SpectraSuite Data File
++++++++++++++++++++++++++++++++++++
Date: Fri Oct 18 13:55:33 GMT-05:00 2013
User: bianchi
Dark Spectrum Present: No
Reference Spectrum Present: No
Number of Sampled Component Spectra: 1
Spectrometers: USB2+H05261
Integration Time (usec): 100000 (USB2+H05261)
Spectra Averaged: 1 (USB2+H05261)
Boxcar Smoothing: 0 (USB2+H05261)
Correct for Electrical Dark: No (USB2+H05261)
Strobe/Lamp Enabled: No (USB2+H05261)
Correct for Detector Non-linearity: No (USB2+H05261)
Correct for Stray Light: No (USB2+H05261)
Number of Pixels in Processed Spectrum: 2048
>>>>>Begin Processed Spectral Data<<<<<
365.73	0.00
365.92	0.00
366.12	0.00
366.32	0.00
366.52	0.00
366.72	0.00
366.91	0.00
367.11	0.00
367.31	0.00
367.51	0.00
367.70	0.00
367.90	0.00
368.10	0.00
368.30	0.00
368.49	0.00
368.69	0.00
368.89	0.00
369.09	0.00
369.28	0.00
369.48	0.00
369.68	0.00
369.87	0.00
370.07	0.00
370.27	0.00
370.47	0.00
370.66	292.57
370.86	203.63
371.06	374.49
371.25	355.76
371.45	386.19
371.65	355.76
371.84	322.99
372.04	397.89
372.24	365.12
372.44	367.46
372.63	510.24
372.83	404.91
373.03	334.70
373.22	374.49
373.42	543.00
373.62	456.40
373.81	472.79
374.01	484.49
374.21	472.79
374.40	442.36
374.60	486.83
374.79	517.26
374.99	514.92
375.19	461.09
375.38	524.28
375.58	528.96
375.78	564.07
375.97	498.53
376.17	601.52
376.37	435.34
376.56	589.82
376.76	547.69
376.95	526.62
377.15	561.73
377.35	557.05
377.54	629.60
377.74	594.50
377.93	519.60
378.13	535.98
378.33	601.52
378.52	528.96
378.72	566.41
378.91	634.29
379.11	624.92
379.31	566.41
379.50	582.79
379.70	613.22
379.89	662.37
380.09	557.05
380.28	620.24
380.48	725.57
380.68	620.24
380.87	645.99
381.07	704.50
381.26	669.39
381.46	636.63
381.65	641.31
381.85	730.25
382.04	685.78
382.24	711.52
382.43	660.03
382.63	667.05
382.83	645.99
383.02	685.78
383.22	802.80
383.41	725.57
383.61	758.33
383.80	826.21
384.00	748.97
384.19	704.50
384.39	746.63
384.58	737.27
384.78	753.65
384.97	814.51
385.17	833.23
385.36	727.91
385.56	809.83
385.75	725.57
385.95	704.50
386.14	739.61
386.34	702.16
386.53	875.36
386.72	770.04
386.92	898.77
387.11	798.12
387.31	868.34
387.50	924.51
387.70	887.06
387.89	905.79
388.09	931.53
388.28	870.68
388.48	863.66
388.67	938.55
388.86	908.13
389.06	840.25
389.25	866.00
389.45	964.30
389.64	959.62
389.84	957.28
390.03	990.05
390.22	959.62
390.42	994.73
390.61	917.49
390.81	950.26
391.00	978.34
391.19	1008.77
391.39	1011.11
391.58	1048.56
391.78	1088.35
391.97	1083.67
392.16	1060.26
392.36	1097.71
392.55	1123.46
392.75	1057.92
392.94	1149.20
393.13	1060.26
393.33	1053.24
393.52	1048.56
393.71	1146.86
393.91	1210.06
394.10	1104.73
394.29	1191.33
394.49	1151.54
394.68	1240.48
394.88	1170.27
395.07	1362.19
395.26	1369.21
395.46	1273.25
395.65	1245.16
395.84	1245.16
396.04	1310.70
396.23	1327.08
396.42	1352.83
396.62	1371.55
396.81	1348.15
397.00	1322.40
397.19	1331.76
397.39	1366.87
397.58	1385.60
397.77	1373.89
397.97	1437.09
398.16	1352.83
398.35	1453.47
398.55	1493.26
398.74	1394.96
398.93	1497.94
399.12	1509.65
399.32	1413.68
399.51	1490.92
399.70	1593.90
399.90	1526.03
400.09	1607.95
400.28	1640.72
400.47	1612.63
400.67	1701.57
400.86	1563.48
401.05	1589.22
401.24	1614.97
401.44	1795.19
401.63	1636.03
401.82	1703.91
402.01	1699.23
402.21	1675.82
402.40	1764.76
402.59	1811.57
402.78	1771.79
402.97	1743.70
403.17	1851.36
403.36	1851.36
403.55	1834.98
403.74	1863.07
403.93	1877.11
404.13	1912.22
404.32	1949.67
404.51	1863.07
404.70	1975.41
404.89	1914.56
405.09	2036.27
405.28	1954.35
405.47	2050.31
405.66	1994.14
405.85	1963.71
406.05	2078.40
406.24	2024.56
406.43	2176.70
406.62	2064.35
406.81	2356.92
407.00	2232.87
407.20	2120.53
407.39	2122.87
407.58	2293.72
407.77	2260.96
407.96	2317.13
408.15	2399.05
408.34	2282.02
408.54	2399.05
408.73	2284.36
408.92	2368.62
409.11	2359.26
409.30	2480.97
409.49	2345.22
409.68	2422.45
409.87	2431.82
410.07	2511.39
410.26	2516.08
410.45	2518.42
410.64	2649.49
410.83	2609.70
411.02	2693.96
411.21	2698.64
411.40	2640.12
411.59	2757.15
411.78	2708.00
411.98	2672.89
412.17	2963.12
412.36	2885.88
412.55	2768.85
412.74	2958.44
412.93	3012.27
413.12	2820.35
413.31	3082.49
413.50	3028.65
413.69	3045.04
413.88	3206.53
414.07	3108.23
414.26	3080.14
414.45	3077.80
414.64	3283.77
414.83	3180.79
415.02	3176.11
415.22	3258.03
415.41	3382.07
415.60	3318.88
415.79	3431.23
415.98	3543.57
416.17	3508.46
416.36	3442.93
416.55	3487.40
416.74	3487.40
416.93	3595.06
417.12	3576.34
417.31	3548.25
417.50	3779.97
417.69	3833.80
417.88	3805.71
418.07	3838.48
418.26	3714.43
418.45	3817.41
418.64	3997.64
418.83	3974.23
419.02	3794.01
419.21	4058.49
419.39	3969.55
419.58	3906.35
419.77	4060.83
419.96	3997.64
420.15	4147.43
420.34	4182.54
420.53	4016.36
420.72	4072.53
420.91	4255.09
421.10	4229.35
421.29	4369.78
421.48	4100.62
421.67	4334.67
421.86	4215.30
422.05	4231.69
422.24	4278.50
422.43	4238.71
422.61	4287.86
422.80	4376.80
422.99	4332.33
423.18	4456.38
423.37	4545.32
423.56	4589.79
423.75	4503.19
423.94	4381.48
424.13	4065.51
424.32	4252.75
424.50	4571.07
424.69	4620.22
424.88	4561.70
425.07	4404.89
425.26	4358.08
425.45	4432.97
425.64	4489.15
425.83	4559.36
426.01	4631.92
426.20	4470.42
426.39	4580.43
426.58	4622.56
426.77	4681.07
426.96	4774.69
427.15	4582.77
427.33	4819.16
427.52	4798.10
427.71	4779.37
427.90	4760.65
428.09	4938.53
428.28	4748.95
428.46	4816.82
428.65	4830.87
428.84	4936.19
429.03	5055.56
429.22	4880.02
429.40	5043.85
429.59	4966.62
429.78	4629.58
429.97	4851.93
430.16	4947.89
430.34	4964.28
430.53	5032.15
430.72	5219.39
430.91	5004.07
431.10	5135.14
431.28	5240.46
431.47	5287.27
431.66	5245.14
431.85	5254.50
432.03	5282.59
432.22	5401.96
432.41	5455.79
432.60	5479.19
432.79	5364.51
432.97	5418.34
433.16	5628.99
433.35	5413.66
433.54	5486.22
433.72	5582.18
433.91	5724.95
434.10	5701.54
434.28	5636.01
434.47	5680.48
434.66	5734.31
434.85	5729.63
435.03	5636.01
435.22	5743.67
435.41	6043.26
435.59	5813.89
435.78	5769.42
435.97	5872.40
436.16	5837.30
436.34	5804.53
436.53	5919.21
436.72	6197.74
436.90	6005.81
437.09	6005.81
437.28	6033.90
437.46	6092.41
437.65	6012.84
437.84	6209.44
438.02	6031.56
438.21	6134.54
438.40	6085.39
438.58	6445.84
438.77	6354.55
438.96	6321.79
439.14	6469.24
439.33	6490.31
439.52	6696.27
439.70	6656.48
439.89	6576.91
440.08	6576.91
440.26	6764.15
440.45	6644.78
440.63	6813.30
440.82	6918.62
441.01	6890.54
441.19	7026.29
441.38	7173.74
441.57	7094.16
441.75	7187.79
441.94	7232.26
442.12	7337.58
442.31	7438.22
442.50	7208.85
442.68	7255.66
442.87	7274.38
443.05	7543.55
443.24	7503.76
443.43	7459.29
443.61	7433.54
443.80	7789.30
443.98	7475.67
444.17	7199.49
444.35	7398.43
444.54	7646.53
444.73	7812.71
444.91	7581.00
445.10	7445.24
445.28	7424.18
445.47	7716.75
445.65	7508.44
445.84	7817.39
446.02	7735.47
446.21	7569.29
446.39	7424.18
446.58	7573.97
446.77	7896.97
446.95	7641.85
447.14	7733.13
447.32	7939.10
447.51	7791.64
447.69	7634.83
447.88	7791.64
448.06	7791.64
448.25	7728.45
448.43	7857.18
448.62	7716.75
448.80	7620.78
448.99	7796.32
449.17	7946.12
449.36	7784.62
449.54	8250.39
449.73	8177.83
449.91	8252.73
450.10	8283.16
450.28	8456.36
450.46	8147.40
450.65	8351.03
450.83	8376.78
451.02	8404.86
451.20	8477.42
451.39	8163.79
451.57	8294.86
451.76	8442.31
451.94	8318.26
452.13	8655.30
452.31	8533.59
452.49	8290.18
452.68	8629.56
452.86	8624.87
453.05	8809.78
453.23	8638.92
453.42	8622.53
453.60	8542.96
453.78	8615.51
453.97	8559.34
454.15	8868.29
454.34	8617.85
454.52	8882.33
454.70	8898.72
454.89	8840.20
455.07	8844.88
455.26	8858.93
455.44	8959.57
455.62	8973.61
455.81	8985.32
455.99	9242.78
456.17	9053.19
456.36	9198.31
456.54	9252.14
456.73	9413.63
456.91	9296.61
457.09	9364.48
457.28	9710.88
457.46	9418.32
457.64	9762.37
457.83	9614.92
458.01	9455.76
458.19	9724.93
458.38	9607.90
458.56	9851.31
458.74	9661.73
458.93	9802.16
459.11	9846.63
459.29	9617.26
459.48	9956.64
459.66	9844.29
459.84	9947.28
460.03	10108.77
460.21	10003.45
460.39	10111.11
460.57	10207.08
460.76	10157.92
460.94	10176.65
461.12	10043.24
461.31	10134.52
461.49	10125.16
461.67	10279.63
461.85	10246.87
462.04	10218.78
462.22	10911.58
462.40	10487.94
462.59	10572.20
462.77	10469.22
462.95	10541.77
463.13	10494.96
463.32	10668.16
463.50	10806.25
463.68	10827.32
463.86	10743.06
464.05	10509.01
464.23	10789.87
464.41	10644.76
464.59	10729.02
464.78	10803.91
464.96	10670.50
465.14	10815.62
465.32	11002.86
465.50	10787.53
465.69	10993.50
465.87	10881.15
466.05	10888.17
466.23	11084.78
466.41	11147.97
466.60	11094.14
466.78	11103.50
466.96	11225.21
467.14	10972.43
467.32	11077.76
467.51	11150.31
467.69	11190.10
467.87	11557.57
468.05	11389.05
468.23	11246.27
468.41	11382.03
468.60	11435.86
468.78	11499.05
468.96	11461.60
469.14	11695.66
469.32	11705.02
469.50	11370.32
469.69	11925.03
469.87	11857.15
470.05	11817.36
470.23	12039.72
470.41	11824.39
470.59	11997.59
470.77	11955.46
470.95	11976.52
471.14	12320.58
471.32	12006.95
471.50	12299.52
471.68	12280.79
471.86	12163.76
472.04	12280.79
472.22	12875.29
472.40	12416.54
472.58	12533.57
472.77	12599.10
472.95	13027.42
473.13	13090.62
473.31	12856.56
473.49	12821.45
473.67	12891.67
473.85	13095.30
474.03	13184.24
474.21	13095.30
474.39	13371.48
474.57	13331.69
474.75	13523.62
474.93	13324.67
475.12	13202.96
475.30	13504.89
475.48	13738.94
475.66	13874.70
475.84	13528.30
476.02	13905.12
476.20	13940.23
476.38	14242.16
476.56	14614.30
476.74	14195.35
476.92	14377.91
477.10	14410.68
477.28	14640.05
477.46	14768.78
477.64	14855.38
477.82	15169.01
478.00	15297.74
478.18	15288.38
478.36	15421.79
478.54	15566.90
478.72	15562.22
478.90	15915.64
479.08	15730.74
479.26	15594.99
479.44	16189.49
479.62	16301.83
479.80	16592.06
479.98	16259.70
480.16	16926.75
480.34	16596.74
480.52	16816.75
480.70	16842.50
480.88	16559.29
481.06	16950.16
481.24	17006.33
481.41	17359.75
481.59	17387.84
481.77	17537.63
481.95	17458.06
482.13	17781.05
482.31	17928.50
482.49	18092.34
482.67	18424.70
482.85	18237.45
483.03	18675.13
483.21	18698.54
483.39	19080.05
483.57	19124.52
483.74	19096.43
483.92	19428.79
484.10	18937.27
484.28	19878.17
484.46	19772.85
484.64	20257.34
484.82	19819.66
485.00	20067.75
485.18	20587.35
485.35	20563.95
485.53	20549.90
485.71	20807.36
485.89	21455.69
486.07	21081.21
486.25	21261.43
486.43	21436.97
486.61	21680.38
486.78	21790.39
486.96	21841.88
487.14	22253.81
487.32	22340.41
487.50	22546.38
487.68	22757.03
487.85	23019.17
488.03	23138.54
488.21	23592.60
488.39	23393.65
488.57	23655.79
488.75	23751.76
488.92	23934.32
489.10	24058.37
489.28	24023.26
489.46	24657.54
489.64	24463.28
489.81	24872.87
489.99	25280.13
490.17	25109.27
490.35	25673.34
490.53	25118.63
490.70	25738.87
490.88	25589.08
491.06	25984.63
491.24	26103.99
491.41	26178.89
491.59	26398.90
491.77	26632.96
491.95	26726.58
492.13	27033.19
492.30	27278.94
492.48	27386.61
492.66	27168.94
492.84	27421.72
493.01	27721.30
493.19	27765.78
493.37	27850.03
493.54	28271.33
493.72	28374.31
493.90	28552.20
494.08	29022.64
494.25	28868.17
494.43	28811.99
494.61	29181.80
494.79	29404.15
494.96	29226.27
495.14	29462.66
495.32	30031.41
495.49	30054.82
495.67	30204.61
495.85	30326.32
496.02	30600.16
496.20	30824.86
496.38	30586.12
496.55	30906.77
496.73	31606.59
496.91	31426.37
497.09	31637.02
497.26	31365.52
497.44	31625.32
497.62	31494.25
497.79	32201.09
497.97	32343.86
498.14	32357.91
498.32	32519.40
498.50	32687.92
498.67	32669.20
498.85	32978.15
499.03	32879.85
499.20	33109.22
499.38	32961.76
499.56	33509.45
499.73	33734.14
499.91	33799.68
500.08	33958.83
500.26	33497.75
500.44	33862.87
500.61	34155.44
500.79	33961.17
500.97	34569.71
501.14	35299.96
501.32	34848.24
501.49	34841.21
501.67	34628.23
501.84	34747.59
502.02	34976.97
502.20	35332.73
502.37	35524.65
502.55	35531.67
502.72	35899.14
502.90	35824.24
503.07	35725.94
503.25	35739.98
503.43	35693.17
503.60	35995.10
503.78	35852.33
503.95	36156.60
504.13	36627.04
504.30	36383.63
504.48	36409.37
504.65	36610.66
504.83	37083.45
505.01	37488.36
505.18	37244.94
505.36	37390.06
505.53	37256.65
505.71	37200.47
505.88	37556.24
506.06	37326.86
506.23	37787.95
506.41	38120.31
506.58	37977.53
506.76	38071.15
506.93	38415.21
507.11	37848.80
507.28	38667.99
507.46	38532.24
507.63	38998.01
507.81	38873.96
507.98	38785.02
508.16	38918.43
508.33	38871.62
508.50	39171.21
508.68	38799.06
508.85	39459.09
509.03	39920.18
509.20	39901.45
509.38	40137.85
509.55	40121.46
509.73	40041.88
509.90	40046.57
510.08	39990.39
510.25	39833.58
510.42	40643.40
510.60	40577.87
510.77	40978.10
510.95	40641.06
511.12	40657.45
511.30	40407.01
511.47	40910.22
511.64	41263.64
511.82	41181.73
511.99	41235.56
512.17	41792.61
512.34	41312.80
512.51	41911.97
512.69	41926.02
512.86	41710.69
513.04	42190.50
513.21	42204.54
513.38	42433.91
513.56	42389.44
513.73	42595.41
513.90	42241.99
514.08	42515.83
514.25	43014.37
514.43	42674.99
514.60	42944.15
514.77	43281.19
514.95	43367.79
515.12	42820.10
515.29	43093.94
515.47	43346.72
515.64	42979.26
515.81	43482.47
515.99	43922.49
516.16	44463.16
516.33	44123.78
516.51	44044.20
516.68	43466.09
516.85	43924.83
517.03	44516.99
517.20	44573.16
517.37	44158.89
517.54	44713.59
517.72	44547.42
517.89	44182.29
518.06	44552.10
518.24	44573.16
518.41	44839.98
518.58	44947.65
518.75	44645.72
518.93	44921.90
519.10	44755.72
519.27	44992.12
519.45	44542.74
519.62	45233.19
519.79	45153.62
519.96	45298.73
520.14	45619.38
520.31	45485.97
520.48	45806.62
520.65	46089.83
520.83	46059.40
521.00	45958.76
521.17	45975.14
521.34	46265.37
521.52	46361.33
521.69	46038.34
521.86	46478.36
522.03	46443.25
522.20	46450.27
522.38	46866.89
522.55	46707.73
522.72	46897.31
522.89	46967.53
523.07	47175.84
523.24	47016.68
523.41	47278.82
523.58	47210.95
523.75	47412.23
523.92	47239.03
524.10	46983.91
524.27	47538.62
524.44	47756.29
524.61	47859.27
524.78	47704.80
524.96	47655.65
525.13	47908.43
525.30	48336.74
525.47	48428.02
525.64	47903.74
525.81	48322.70
525.98	48226.74
526.16	48261.85
526.33	48149.50
526.50	48617.61
526.67	48409.30
526.84	48292.27
527.01	48411.64
527.18	48987.41
527.36	48956.99
527.53	48765.06
527.70	49352.54
527.87	49710.64
528.04	48767.40
528.21	48830.60
528.38	49109.12
528.55	49155.93
528.72	49359.56
528.89	49254.23
529.07	49212.10
529.24	49106.78
529.41	49359.56
529.58	49312.75
529.75	49116.14
529.92	49411.05
530.09	49378.28
530.26	49815.96
530.43	49712.98
530.60	49698.94
530.77	49940.01
530.94	49972.78
531.11	49752.77
531.28	49993.84
531.46	49640.42
531.63	50075.76
531.80	50424.50
531.97	50380.03
532.14	50471.31
532.31	50440.89
532.48	50382.37
532.65	50365.99
532.82	50227.90
532.99	50403.44
533.16	50157.68
533.33	50518.12
533.50	50862.18
533.67	51110.28
533.84	50323.86
534.01	50719.41
534.18	50574.30
534.35	51145.39
534.52	50944.10
534.69	51091.55
534.86	50972.19
535.03	51026.02
535.20	51028.36
535.37	51082.19
535.54	51262.41
535.71	51241.35
535.88	51248.37
536.05	51466.04
536.22	51714.14
536.38	51625.20
536.55	51597.11
536.72	51721.16
536.89	51311.56
537.06	51760.95
537.23	51889.68
537.40	51356.03
537.57	51629.88
537.74	51547.96
537.91	51976.28
538.08	52044.15
538.25	51580.73
538.42	51927.13
538.59	51786.69
538.75	51945.85
538.92	51892.02
539.09	52594.18
539.26	52273.52
539.43	52016.07
539.60	52109.69
539.77	52346.08
539.94	52097.98
540.11	52413.96
540.28	52067.56
540.44	52322.68
540.61	52236.08
540.78	52083.94
540.95	52189.27
541.12	52685.46
541.29	52797.80
541.46	52442.04
541.62	52280.55
541.79	52804.83
541.96	52231.40
542.13	52348.42
542.30	52713.55
542.47	53006.11
542.63	52809.51
542.80	53134.84
542.97	53181.65
543.14	53298.68
543.31	52760.36
543.48	52839.93
543.64	53631.04
543.81	53373.58
543.98	53333.79
544.15	53544.44
544.32	53408.68
544.48	53785.51
544.65	52994.41
544.82	53272.93
544.99	53015.47
545.16	53301.02
545.32	53361.87
545.49	53684.87
545.66	53937.65
545.83	53368.90
546.00	53923.60
546.16	53708.27
546.33	53446.13
546.50	53244.85
546.67	53638.06
546.83	53275.27
547.00	53656.78
547.17	53570.18
547.34	53719.98
547.50	53925.94
547.67	54199.79
547.84	54000.84
548.00	53928.28
548.17	53888.49
548.34	53956.37
548.51	54178.72
548.67	54185.74
548.84	54211.49
549.01	54094.46
549.18	54227.87
549.34	54000.84
549.51	54204.47
549.68	54131.91
549.84	54160.00
550.01	54511.08
550.18	53851.05
550.34	54347.24
550.51	54541.50
550.68	54447.88
550.84	53928.28
551.01	54621.08
551.18	54162.34
551.34	54152.97
551.51	54490.01
551.68	54578.95
551.84	54431.50
552.01	54614.06
552.18	54766.20
552.34	54358.94
552.51	54522.78
552.68	54621.08
552.84	54518.10
553.01	54777.90
553.18	54824.71
553.34	54829.39
553.51	54894.92
553.67	54855.14
553.84	55304.52
554.01	54768.54
554.17	54993.23
554.34	54677.25
554.51	54740.45
554.67	54918.33
554.84	54908.97
555.00	55091.53
555.17	54824.71
555.33	54988.55
555.50	54862.16
555.67	55154.72
555.83	55021.31
556.00	55070.46
556.16	55152.38
556.33	54894.92
556.50	54988.55
556.66	55138.34
556.83	54859.82
556.99	55650.92
557.16	55426.23
557.32	55128.98
557.49	55384.10
557.65	55295.16
557.82	55334.95
557.98	55262.39
558.15	55318.56
558.32	55437.93
558.48	55316.22
558.65	55636.87
558.81	55379.42
558.98	55257.71
559.14	55374.73
559.31	55447.29
559.47	55304.52
559.64	55470.70
559.80	55360.69
559.97	55641.56
560.13	55360.69
560.30	55494.10
560.46	55421.55
560.63	55458.99
560.79	55540.91
560.96	55585.38
561.12	55386.44
561.29	55531.55
561.45	55646.24
561.61	55664.96
561.78	55655.60
561.94	55796.03
562.11	55688.37
562.27	55662.62
562.44	55590.06
562.60	55657.94
562.77	55791.35
562.93	55746.88
563.10	55751.56
563.26	55669.64
563.42	56004.34
563.59	55709.43
563.75	55707.09
563.92	55856.88
564.08	55580.70
564.24	55508.14
564.41	55863.91
564.57	55489.42
564.74	55758.58
564.90	56179.88
565.07	55791.35
565.23	55875.61
565.39	56030.08
565.56	55971.57
565.72	55854.54
565.88	55838.16
566.05	55856.88
566.21	55861.57
566.38	55908.38
566.54	56067.53
566.70	56076.90
566.87	56254.78
567.03	55922.42
567.19	56299.25
567.36	55959.87
567.52	55671.98
567.68	56048.81
567.85	55767.94
568.01	55973.91
568.17	56310.95
568.34	56041.79
568.50	56189.24
568.66	56238.39
568.83	56093.28
568.99	56128.39
569.15	55957.53
569.32	56074.55
569.48	55866.25
569.64	56135.41
569.81	55973.91
569.97	56086.26
570.13	56097.96
570.30	56060.51
570.46	56130.73
570.62	56030.08
570.78	55966.89
570.95	55994.98
571.11	56247.75
571.27	55957.53
571.43	55824.12
571.60	56133.07
571.76	55955.19
571.92	56207.97
572.09	56252.44
572.25	56303.93
572.41	56128.39
572.57	55962.21
572.74	56280.52
572.90	56034.77
573.06	56130.73
573.22	56226.69
573.38	56280.52
573.55	56184.56
573.71	56467.76
573.87	56547.34
574.03	56128.39
574.20	56367.12
574.36	56130.73
574.52	56250.09
574.68	56315.63
574.84	56294.56
575.01	56353.08
575.17	56261.80
575.33	56411.59
575.49	56254.78
575.65	56435.00
575.82	56409.25
575.98	56081.58
576.14	56460.74
576.30	56088.60
576.46	56346.06
576.62	56294.56
576.79	56182.22
576.95	55987.95
577.11	56306.27
577.27	56432.66
577.43	56336.69
577.59	56357.76
577.75	56271.16
577.92	56172.86
578.08	56135.41
578.24	56327.33
578.40	56357.76
578.56	56507.55
578.72	56172.86
578.88	56470.11
579.04	56559.05
579.21	56573.09
579.37	56456.06
579.53	56488.83
579.69	55955.19
579.85	56048.81
580.01	56186.90
580.17	56364.78
580.33	56247.75
580.49	56275.84
580.65	56432.66
580.82	56301.59
580.98	56442.02
581.14	56261.80
581.30	56343.72
581.46	56320.31
581.62	56231.37
581.78	56025.40
581.94	56212.65
582.10	56198.60
582.26	56121.37
582.42	56549.68
582.58	56636.28
582.74	56664.37
582.90	56383.51
583.06	56610.54
583.22	56390.53
583.38	56399.89
583.54	56278.18
583.70	56449.04
583.86	56203.28
584.02	56020.72
584.18	56320.31
584.34	56781.40
584.50	56671.39
584.66	56486.49
584.82	56104.98
584.98	56217.33
585.14	56306.27
585.30	56051.15
585.46	56453.72
585.62	56437.34
585.78	56303.93
585.94	56289.88
586.10	56552.02
586.26	56427.98
586.42	56573.09
586.58	56676.07
586.74	56435.00
586.90	56133.07
587.06	56409.25
587.22	56420.95
587.38	56280.52
587.54	56303.93
587.70	56519.26
587.86	56683.09
588.02	56694.80
588.18	56643.30
588.34	56423.29
588.49	56678.41
588.65	56341.38
588.81	56093.28
588.97	56528.62
589.13	56149.45
589.29	56420.95
589.45	56374.14
589.61	56587.13
589.77	56886.72
589.93	56706.50
590.08	56697.14
590.24	56694.80
590.40	56601.18
590.56	56952.26
590.72	56615.22
590.88	56760.33
591.04	56636.28
591.20	56664.37
591.35	56545.00
591.51	56856.29
591.67	56842.25
591.83	56828.21
591.99	56968.64
592.15	56734.59
592.31	56587.13
592.46	56727.56
592.62	56690.12
592.78	56559.05
592.94	56502.87
593.10	56545.00
593.26	56662.03
593.41	56535.64
593.57	56924.17
593.73	56718.20
593.89	56926.51
594.05	56545.00
594.20	56477.13
594.36	56807.14
594.52	56570.75
594.68	56516.92
594.84	56336.69
594.99	57015.45
595.15	56566.07
595.31	57073.96
595.47	56533.30
595.62	56842.25
595.78	56617.56
595.94	56879.70
596.10	56818.84
596.25	56683.09
596.41	56790.76
596.57	56554.36
596.73	56779.06
596.88	57064.60
597.04	56849.27
597.20	56919.49
597.36	56921.83
597.51	56940.55
597.67	56713.52
597.83	56629.26
597.99	56868.00
598.14	56596.49
598.30	56821.19
598.46	56626.92
598.61	56626.92
598.77	56736.93
598.93	56830.55
599.09	56577.77
599.24	56884.38
599.40	56673.73
599.56	56809.48
599.71	56795.44
599.87	56722.88
600.03	56821.19
600.18	56722.88
600.34	56825.87
600.50	56636.28
600.65	56615.22
600.81	56839.91
600.97	56865.66
601.12	56830.55
601.28	56786.08
601.44	57013.11
601.59	56924.17
601.75	56765.01
601.91	56851.61
602.06	56673.73
602.22	56910.13
602.37	56657.35
602.53	56624.58
602.69	56772.03
602.84	56750.97
603.00	56875.02
603.16	56996.73
603.31	56743.95
603.47	57001.41
603.62	56556.70
603.78	56554.36
603.94	56554.36
604.09	56868.00
604.25	56537.98
604.40	56615.22
604.56	56650.33
604.71	56910.13
604.87	56715.86
605.03	56935.87
605.18	56858.63
605.34	56528.62
605.49	56385.85
605.65	56596.49
605.80	56566.07
605.96	56619.90
606.12	56472.45
606.27	56615.22
606.43	56566.07
606.58	56882.04
606.74	56608.20
606.89	56671.39
607.05	56858.63
607.20	56261.80
607.36	56442.02
607.51	56622.24
607.67	56528.62
607.82	56413.93
607.98	56456.06
608.13	56456.06
608.29	56346.06
608.44	56437.34
608.60	56650.33
608.75	56694.80
608.91	56725.22
609.06	56446.70
609.22	56467.76
609.37	56324.99
609.53	56479.47
609.68	56222.01
609.84	56339.04
609.99	56156.47
610.15	56500.53
610.30	56310.95
610.46	56343.72
610.61	56289.88
610.76	56280.52
610.92	56210.31
611.07	56505.21
611.23	56348.40
611.38	56399.89
611.54	56135.41
611.69	55969.23
611.84	56257.12
612.00	55901.36
612.15	56065.19
612.31	56612.88
612.46	56266.48
612.62	56041.79
612.77	56348.40
612.92	56292.22
613.08	56374.14
613.23	56390.53
613.39	56112.00
613.54	56067.53
613.69	56149.45
613.85	56046.47
614.00	55957.53
614.15	56041.79
614.31	55941.14
614.46	56182.22
614.62	55992.64
614.77	56072.21
614.92	56367.12
615.08	56317.97
615.23	56252.44
615.38	56126.05
615.54	55899.01
615.69	55618.15
615.84	56004.34
616.00	55950.51
616.15	55767.94
616.30	55891.99
616.46	55744.54
616.61	55845.18
616.76	55957.53
616.92	55611.13
617.07	55866.25
617.22	55798.37
617.37	55302.18
617.53	55882.63
617.68	55643.90
617.83	55580.70
617.99	55636.87
618.14	55807.73
618.29	55693.05
618.45	55723.47
618.60	55842.84
618.75	55709.43
618.90	55561.98
619.06	55770.28
619.21	55655.60
619.36	55505.80
619.51	55398.14
619.67	55143.02
619.82	55377.08
619.97	55187.49
620.12	55409.84
620.28	55236.64
620.43	55351.33
620.58	55564.32
620.73	55381.76
620.89	55356.01
621.04	55262.39
621.19	55536.23
621.34	55227.28
621.49	55304.52
621.65	55100.89
621.80	55419.20
621.95	55330.26
622.10	55262.39
622.25	55374.73
622.41	55138.34
622.56	55203.88
622.71	55344.31
622.86	55119.62
623.01	55213.24
623.16	55114.94
623.32	55173.45
623.47	55220.26
623.62	54808.32
623.77	55157.06
623.92	55040.04
624.07	54962.80
624.23	54997.91
624.38	55098.55
624.53	54862.16
624.68	54953.44
624.83	55447.29
624.98	55047.06
625.13	55084.51
625.29	54986.21
625.44	54981.52
625.59	54878.54
625.74	54604.70
625.89	54677.25
626.04	54698.32
626.19	54686.62
626.34	54782.58
626.49	54426.82
626.65	54239.57
626.80	54855.14
626.95	54686.62
627.10	54497.03
627.25	54490.01
627.40	54621.08
627.55	54529.80
627.70	54628.10
627.85	54258.30
628.00	54253.62
628.15	54609.38
628.30	54174.04
628.45	54295.75
628.60	54375.33
628.76	54513.42
628.91	54459.58
629.06	54670.23
629.21	54534.48
629.36	54326.17
629.51	54499.37
629.66	54321.49
629.81	54073.40
629.96	54068.72
630.11	54075.74
630.26	53848.71
630.41	54157.66
630.56	53872.11
630.71	53858.07
630.86	54005.52
631.01	54014.88
631.16	54394.05
631.31	54188.08
631.46	53801.89
631.61	53947.01
631.76	54129.57
631.91	53951.69
632.06	53792.53
632.21	53797.21
632.36	54005.52
632.51	53591.25
632.66	53698.91
632.81	53778.49
632.96	53918.92
633.10	53764.45
633.25	53822.96
633.40	53806.58
633.55	53804.24
633.70	53607.63
633.85	53626.35
634.00	53523.37
634.15	53537.41
634.30	53345.49
634.45	53469.54
634.60	53439.11
634.75	53937.65
634.90	53401.66
635.05	53668.48
635.19	53567.84
635.34	53389.96
635.49	53404.00
635.64	53565.50
635.79	53371.24
635.94	53270.59
636.09	53230.80
636.24	53183.99
636.39	52891.43
636.53	53492.94
636.68	53191.01
636.83	53036.54
636.98	53455.50
637.13	53296.34
637.28	53284.64
637.43	53354.85
637.57	53418.05
637.72	52882.06
637.87	53076.33
638.02	52968.66
638.17	53329.11
638.32	52835.25
638.46	53066.97
638.61	52961.64
638.76	52739.29
638.91	52828.23
639.06	52804.83
639.20	52982.71
639.35	52755.68
639.50	52783.76
639.65	53013.13
639.80	53034.20
639.94	52779.08
640.09	52507.58
640.24	52743.97
640.39	52715.89
640.54	52835.25
640.68	52500.56
640.83	52392.89
640.98	52411.62
641.13	52093.30
641.27	52491.19
641.42	52357.78
641.57	52336.72
641.72	52617.58
641.86	52402.25
642.01	52343.74
642.16	52406.94
642.31	52463.11
642.45	52552.05
642.60	52081.60
642.75	52275.87
642.90	52301.61
643.04	52196.29
643.19	52289.91
643.34	52329.70
643.48	52175.22
643.63	52292.25
643.78	52299.27
643.93	52568.43
644.07	52282.89
644.22	52182.24
644.37	51866.27
644.51	51959.89
644.66	52217.35
644.81	52130.75
644.95	51959.89
645.10	52144.80
645.25	52067.56
645.39	51885.00
645.54	51964.57
645.69	51861.59
645.83	51906.06
645.98	52081.60
646.13	51861.59
646.27	51847.55
646.42	51786.69
646.57	51964.57
646.71	51625.20
646.86	51824.14
647.00	51662.64
647.15	51774.99
647.30	51529.23
647.44	51433.27
647.59	51599.45
647.74	51550.30
647.88	51545.62
648.03	51941.17
648.17	51831.16
648.32	51423.91
648.47	51697.75
648.61	51601.79
648.76	51419.23
648.90	51440.29
649.05	51688.39
649.20	51143.05
649.34	51405.19
649.49	51138.36
649.63	50763.88
649.78	51098.58
649.92	50848.14
650.07	51433.27
650.21	51367.74
650.36	51487.10
650.51	51086.87
650.65	51475.40
650.80	51222.62
650.94	51103.26
651.09	51154.75
651.23	50731.11
651.38	51140.71
651.52	51187.52
651.67	50887.93
651.81	50904.31
651.96	51056.45
652.10	51267.09
652.25	50885.59
652.39	51058.79
652.54	50913.67
652.68	51079.85
652.83	50700.68
652.97	51124.32
653.12	50855.16
653.26	50918.35
653.41	50637.49
653.55	50845.80
653.70	50251.30
653.84	50747.50
653.99	50677.28
654.13	50834.10
654.27	50536.85
654.42	50766.22
654.56	50087.46
654.71	50382.37
654.85	50707.71
655.00	50466.63
655.14	50677.28
655.29	50525.14
655.43	50508.76
655.57	50473.65
655.72	50176.40
655.86	50529.83
656.01	50270.03
656.15	50082.78
656.30	50033.63
656.44	49743.41
656.58	50358.97
656.73	49872.14
656.87	49640.42
657.01	50241.94
657.16	50113.21
657.30	50206.83
657.45	50258.32
657.59	50281.73
657.73	49862.77
657.88	49883.84
658.02	49860.43
658.16	49415.73
658.31	49940.01
658.45	50232.58
658.60	49382.96
658.74	49684.89
658.88	49565.52
659.03	49221.47
659.17	49624.04
659.31	49237.85
659.46	49205.08
659.60	49434.45
659.74	49298.70
659.89	49712.98
660.03	49158.27
660.17	49745.75
660.32	49366.58
660.46	49340.83
660.60	48882.09
660.74	49010.82
660.89	49088.06
661.03	48615.27
661.17	48610.59
661.32	48760.38
661.46	48704.21
661.60	48334.40
661.74	49022.52
661.89	48736.98
662.03	48774.42
662.17	48945.28
662.31	48257.17
662.46	48959.33
662.60	48315.68
662.74	48271.21
662.88	48107.37
663.03	47983.32
663.17	48275.89
663.31	47416.91
663.45	47784.38
663.60	47990.34
663.74	47973.96
663.88	48413.98
664.02	47648.63
664.17	48493.56
664.31	48186.95
664.45	47770.33
664.59	47653.31
664.73	47721.18
664.88	47180.52
665.02	47077.54
665.16	46827.10
665.30	47384.15
665.44	46876.25
665.59	46981.57
665.73	46909.02
665.87	47100.94
666.01	47217.97
666.15	47131.37
666.29	47012.00
666.44	47356.06
666.58	46791.99
666.72	47063.49
666.86	46981.57
667.00	46920.72
667.14	46689.01
667.28	46609.43
667.43	46490.06
667.57	46452.61
667.71	45869.82
667.85	46358.99
667.99	46103.87
668.13	46227.92
668.27	46115.58
668.41	45961.10
668.56	45722.37
668.70	46270.05
668.84	45542.14
668.98	45675.55
669.12	45914.29
669.26	45801.94
669.40	45577.25
669.54	45675.55
669.68	45670.87
669.82	45677.90
669.96	45537.46
670.10	45298.73
670.25	45141.91
670.39	44854.03
670.53	45214.47
670.67	44790.83
670.81	45537.46
670.95	45497.67
671.09	45141.91
671.23	45317.45
671.37	45095.10
671.51	44987.44
671.65	44718.28
671.79	44315.70
671.93	44713.59
672.07	45017.86
672.21	44048.88
672.35	44652.74
672.49	44168.25
672.63	43915.47
672.77	43700.14
672.91	43501.20
673.05	43995.05
673.19	44151.87
673.33	43934.20
673.47	43592.48
673.61	43943.56
673.75	43917.81
673.89	43833.55
674.03	43255.44
674.17	43428.64
674.31	43159.48
674.45	42986.28
674.59	43129.05
674.73	43058.84
674.87	42770.95
675.01	42848.19
675.15	42689.03
675.29	42454.98
675.43	42768.61
675.56	42225.60
675.70	42476.04
675.84	42546.26
675.98	41457.91
676.12	42436.25
676.26	42513.49
676.40	42667.97
676.54	42274.76
676.68	41441.53
676.82	40783.83
676.96	41165.34
677.10	41233.22
677.23	40863.41
677.37	41045.97
677.51	40903.20
677.65	40435.10
677.79	40463.18
677.93	40463.18
678.07	40912.56
678.21	40376.58
678.34	40084.01
678.48	40034.86
678.62	40252.53
678.76	40299.34
678.90	39875.71
679.04	39833.58
679.18	39758.68
679.31	39100.99
679.45	38693.74
679.59	39297.59
679.73	38918.43
679.87	38897.36
680.00	39005.03
680.14	38778.00
680.28	38749.91
680.42	38635.22
680.56	38600.12
680.70	38469.04
680.83	38628.20
680.97	38298.19
681.11	38663.31
681.25	38103.92
681.39	38267.76
681.52	38071.15
681.66	37886.25
681.80	37675.60
681.94	36924.29
682.07	37495.38
682.21	36959.40
682.35	36814.29
682.49	36800.24
682.62	36891.52
682.76	36631.72
682.90	37008.55
683.04	36343.84
683.17	36442.14
683.31	36517.04
683.45	36559.17
683.59	36346.18
683.72	36177.66
683.86	36149.57
684.00	35955.31
684.13	35583.16
684.27	35625.29
684.41	35267.19
684.55	34689.08
684.68	35225.06
684.82	35365.49
684.96	34707.80
685.09	34632.91
685.23	34960.58
685.37	34902.07
685.50	34616.52
685.64	34527.58
685.78	34279.49
685.91	34354.38
686.05	34455.03
686.19	34239.70
686.32	34101.61
686.46	33596.05
686.60	33645.20
686.73	33783.29
686.87	33235.61
687.01	33406.47
687.14	32875.16
687.28	32816.65
687.42	32861.12
687.55	32648.13
687.69	32470.25
687.82	32816.65
687.96	32641.11
688.10	32533.45
688.23	32638.77
688.37	32327.48
688.50	32416.42
688.64	31938.95
688.78	31985.76
688.91	31653.40
689.05	31524.68
689.18	31281.26
689.32	31019.12
689.46	31367.86
689.59	31311.69
689.73	30986.35
689.86	30824.86
690.00	30754.64
690.13	30548.67
690.27	30361.43
690.41	30731.23
690.54	30249.08
690.68	30654.00
690.81	30775.70
690.95	30478.46
691.08	30349.73
691.22	30120.35
691.35	29816.08
691.49	29797.36
691.62	29619.48
691.76	29151.37
691.89	29277.76
692.03	29282.44
692.16	29113.92
692.30	29125.63
692.43	28823.70
692.57	28790.93
692.70	28926.68
692.84	28615.39
692.97	28727.74
693.11	28645.82
693.24	28687.95
693.38	28416.44
693.51	28552.20
693.65	28556.88
693.78	28311.12
693.92	28079.41
694.05	28238.56
694.19	27740.03
694.32	27707.26
694.45	27028.51
694.59	27475.55
694.72	27033.19
694.86	27182.98
694.99	27014.46
695.13	26682.11
695.26	26621.25
695.39	26328.69
695.53	26883.39
695.66	26883.39
695.80	26536.99
695.93	26487.84
696.07	25942.50
696.20	26361.45
696.33	26073.57
696.47	25769.30
696.60	26080.59
696.73	25663.97
696.87	25441.62
697.00	25146.72
697.14	25020.33
697.27	24893.94
697.40	24842.45
697.54	24929.05
697.67	24709.04
697.80	24713.72
697.94	24699.67
698.07	24163.69
698.21	24549.88
698.34	24414.13
698.47	24290.08
698.61	24224.54
698.74	24208.16
698.87	24208.16
699.01	24018.58
699.14	23688.56
699.27	23906.23
699.40	23704.95
699.54	23297.69
699.67	23351.52
699.80	22944.27
699.94	23108.11
700.07	23030.87
700.20	22925.55
700.34	22616.60
700.47	22621.28
700.60	22609.58
700.73	22403.61
700.87	22810.86
701.00	22410.63
701.13	22335.73
701.26	22324.03
701.40	22244.45
701.53	21865.28
701.66	22197.64
701.79	21748.26
701.93	21497.82
702.06	21331.64
702.19	21680.38
702.32	21575.06
702.46	21348.03
702.59	20908.01
702.72	20788.64
702.85	20982.90
702.99	21067.16
703.12	20741.83
703.25	20648.21
703.38	20812.04
703.51	20662.25
703.65	20496.07
703.78	20322.87
703.91	20210.53
704.04	20283.08
704.17	20189.46
704.31	19962.43
704.44	19775.19
704.57	20023.28
704.70	19646.46
704.83	19573.90
704.96	19463.90
705.10	19222.82
705.23	19344.53
>>>>>End Processed Spectral Data<<<<<
