SpectraSuite Data File
++++++++++++++++++++++++++++++++++++
Date: Fri Oct 18 13:54:40 GMT-05:00 2013
User: bianchi
Dark Spectrum Present: No
Reference Spectrum Present: No
Number of Sampled Component Spectra: 1
Spectrometers: USB2+H05261
Integration Time (usec): 100000 (USB2+H05261)
Spectra Averaged: 1 (USB2+H05261)
Boxcar Smoothing: 0 (USB2+H05261)
Correct for Electrical Dark: No (USB2+H05261)
Strobe/Lamp Enabled: No (USB2+H05261)
Correct for Detector Non-linearity: No (USB2+H05261)
Correct for Stray Light: No (USB2+H05261)
Number of Pixels in Processed Spectrum: 2048
>>>>>Begin Processed Spectral Data<<<<<
365.73	0.00
365.92	0.00
366.12	0.00
366.32	0.00
366.52	0.00
366.72	0.00
366.91	0.00
367.11	0.00
367.31	0.00
367.51	0.00
367.70	0.00
367.90	0.00
368.10	0.00
368.30	0.00
368.49	0.00
368.69	0.00
368.89	0.00
369.09	0.00
369.28	0.00
369.48	0.00
369.68	0.00
369.87	0.00
370.07	0.00
370.27	0.00
370.47	35.11
370.66	301.93
370.86	266.82
371.06	344.06
371.25	421.30
371.45	402.57
371.65	322.99
371.84	379.17
372.04	365.12
372.24	386.19
372.44	346.40
372.63	437.68
372.83	465.77
373.03	472.79
373.22	414.27
373.42	397.89
373.62	344.06
373.81	404.91
374.01	477.47
374.21	428.32
374.40	521.94
374.60	521.94
374.79	533.64
374.99	416.62
375.19	517.26
375.38	531.30
375.58	477.47
375.78	638.97
375.97	531.30
376.17	606.20
376.37	533.64
376.56	566.41
376.76	533.64
376.95	505.56
377.15	575.77
377.35	543.00
377.54	620.24
377.74	573.43
377.93	543.00
378.13	528.96
378.33	622.58
378.52	540.66
378.72	589.82
378.91	667.05
379.11	568.75
379.31	554.71
379.50	669.39
379.70	634.29
379.89	692.80
380.09	645.99
380.28	615.56
380.48	676.41
380.68	519.60
380.87	636.63
381.07	678.76
381.26	741.95
381.46	716.20
381.65	657.69
381.85	631.94
382.04	774.72
382.24	751.31
382.43	713.86
382.63	809.83
382.83	667.05
383.02	748.97
383.22	692.80
383.41	709.18
383.61	741.95
383.80	758.33
384.00	734.93
384.19	702.16
384.39	826.21
384.58	863.66
384.78	772.38
384.97	730.25
385.17	814.51
385.36	620.24
385.56	765.36
385.75	741.95
385.95	805.14
386.14	828.55
386.34	809.83
386.53	877.70
386.72	784.08
386.92	889.40
387.11	877.70
387.31	828.55
387.50	788.76
387.70	863.66
387.89	896.43
388.09	990.05
388.28	973.66
388.48	802.80
388.67	973.66
388.86	823.87
389.06	833.23
389.25	957.28
389.45	1018.13
389.64	1001.75
389.84	950.26
390.03	1032.18
390.22	1062.60
390.42	947.92
390.61	994.73
390.81	964.30
391.00	1109.41
391.19	1020.47
391.39	976.00
391.58	1055.58
391.78	1064.94
391.97	1039.20
392.16	1067.28
392.36	1235.80
392.55	1184.31
392.75	1181.97
392.94	1109.41
393.13	1256.87
393.33	1139.84
393.52	1177.29
393.71	1172.61
393.91	1160.91
394.10	1174.95
394.29	1350.49
394.49	1240.48
394.68	1301.34
394.88	1287.29
395.07	1226.44
395.26	1242.82
395.46	1184.31
395.65	1348.15
395.84	1308.36
396.04	1366.87
396.23	1245.16
396.42	1296.66
396.62	1392.62
396.81	1420.71
397.00	1315.38
397.19	1462.83
397.39	1444.11
397.58	1411.34
397.77	1385.60
397.97	1455.81
398.16	1444.11
398.35	1495.60
398.55	1526.03
398.74	1474.54
398.93	1533.05
399.12	1465.18
399.32	1418.36
399.51	1589.22
399.70	1465.18
399.90	1481.56
400.09	1605.61
400.28	1568.16
400.47	1631.35
400.67	1708.59
400.86	1647.74
401.05	1687.53
401.24	1547.09
401.44	1680.50
401.63	1692.21
401.82	1792.85
402.01	1774.13
402.21	1811.57
402.40	1837.32
402.59	1708.59
402.78	1900.52
402.97	1769.44
403.17	1774.13
403.36	1860.73
403.55	1909.88
403.74	1954.35
403.93	1891.15
404.13	1935.62
404.32	1982.43
404.51	1947.33
404.70	2017.54
404.89	1942.64
405.09	2160.31
405.28	1987.11
405.47	2062.01
405.66	2176.70
405.85	2120.53
406.05	1982.43
406.24	2059.67
406.43	2214.15
406.62	2277.34
406.81	2169.68
407.00	2139.25
407.20	2239.89
407.39	2165.00
407.58	2204.78
407.77	2289.04
407.96	2328.83
408.15	2307.77
408.34	2305.43
408.54	2317.13
408.73	2319.47
408.92	2366.28
409.11	2471.61
409.30	2597.99
409.49	2417.77
409.68	2513.74
409.87	2469.27
410.07	2534.80
410.26	2612.04
410.45	2567.57
410.64	2586.29
410.83	2693.96
411.02	2633.10
411.21	2717.36
411.40	2654.17
411.59	2743.11
411.78	2717.36
411.98	2796.94
412.17	2839.07
412.36	2911.63
412.55	2888.22
412.74	2979.50
412.93	2953.76
413.12	2897.58
413.31	3138.66
413.50	3138.66
413.69	3178.45
413.88	3129.30
414.07	3141.00
414.26	3318.88
414.45	3206.53
414.64	3150.36
414.83	3314.20
415.02	3361.01
415.22	3400.80
415.41	3410.16
415.60	3496.76
415.79	3541.23
415.98	3412.50
416.17	3300.16
416.36	3520.17
416.55	3590.38
416.74	3599.74
416.93	3660.60
417.12	3698.05
417.31	3805.71
417.50	3693.37
417.69	3831.46
417.88	3871.25
418.07	3789.33
418.26	3887.63
418.45	3866.56
418.64	3927.42
418.83	4070.19
419.02	4086.58
419.21	4049.13
419.39	4016.36
419.58	3990.61
419.77	4238.71
419.96	4154.45
420.15	4250.41
420.34	3929.76
420.53	4109.98
420.72	4322.97
420.91	4163.81
421.10	4229.35
421.29	4388.50
421.48	4269.14
421.67	4557.02
421.86	4266.80
422.05	4423.61
422.24	4341.69
422.43	4451.70
422.61	4503.19
422.80	4440.00
422.99	4383.82
423.18	4489.15
423.37	4613.20
423.56	4585.11
423.75	4615.54
423.94	4601.49
424.13	4175.52
424.32	4299.56
424.50	4571.07
424.69	4601.49
424.88	4704.48
425.07	4479.79
425.26	4535.96
425.45	4491.49
425.64	4620.22
425.83	4484.47
426.01	4767.67
426.20	4634.26
426.39	4685.75
426.58	4676.39
426.77	4664.69
426.96	4765.33
427.15	4660.01
427.33	4779.37
427.52	4741.93
427.71	4940.87
427.90	4917.47
428.09	4842.57
428.28	4943.21
428.46	4947.89
428.65	4887.04
428.84	4940.87
429.03	5123.43
429.22	4968.96
429.40	5266.21
429.59	5125.77
429.78	4835.55
429.97	4849.59
430.16	5048.54
430.34	5139.82
430.53	5261.52
430.72	5352.81
430.91	5228.76
431.10	5226.42
431.28	5289.61
431.47	5350.46
431.66	5348.12
431.85	5313.02
432.03	5401.96
432.22	5827.93
432.41	5423.02
432.60	5612.60
432.79	5392.59
432.97	5556.43
433.16	5598.56
433.35	5659.42
433.54	5799.85
433.72	5708.57
433.91	5584.52
434.10	5703.89
434.28	5713.25
434.47	5825.59
434.66	5811.55
434.85	5919.21
435.03	5785.80
435.22	5856.02
435.41	6071.35
435.59	5966.03
435.78	5916.87
435.97	6001.13
436.16	6094.76
436.34	6099.44
436.53	6012.84
436.72	6099.44
436.90	5907.51
437.09	6155.61
437.28	6094.76
437.46	6181.35
437.65	6148.59
437.84	6258.59
438.02	6345.19
438.21	6366.26
438.40	6321.79
438.58	6497.33
438.77	6417.75
438.96	6429.45
439.14	6656.48
439.33	6644.78
439.52	6813.30
439.70	6904.58
439.89	6822.66
440.08	6867.13
440.26	7002.88
440.45	6958.41
440.63	7136.29
440.82	6916.28
441.01	7105.87
441.19	6988.84
441.38	7232.26
441.57	7077.78
441.75	7164.38
441.94	7272.04
442.12	7314.17
442.31	7672.28
442.50	7375.03
442.68	7386.73
442.87	7438.22
443.05	7616.10
443.24	7478.01
443.43	7707.38
443.61	7688.66
443.80	7868.88
443.98	7466.31
444.17	7377.37
444.35	7672.28
444.54	7899.31
444.73	7983.57
444.91	7908.67
445.10	7756.54
445.28	7705.04
445.47	7651.21
445.65	7758.88
445.84	7936.76
446.02	8044.42
446.21	7831.43
446.39	7772.92
446.58	7836.11
446.77	7817.39
446.95	7889.95
447.14	7791.64
447.32	7964.84
447.51	7793.98
447.69	7915.69
447.88	7875.90
448.06	7857.18
448.25	7896.97
448.43	7997.61
448.62	7969.52
448.80	7913.35
448.99	8166.13
449.17	8140.38
449.36	8018.68
449.54	8138.04
449.73	8444.65
449.91	8269.11
450.10	7985.91
450.28	8594.45
450.46	8369.76
450.65	8468.06
450.83	8655.30
451.02	8594.45
451.20	8664.66
451.39	8500.83
451.57	8418.91
451.76	8353.37
451.94	8769.99
452.13	8842.54
452.31	8690.41
452.49	8601.47
452.68	8641.26
452.86	8793.39
453.05	8982.98
453.23	9074.26
453.42	8573.38
453.60	8769.99
453.78	8950.21
453.97	8732.54
454.15	8875.31
454.34	8830.84
454.52	8997.02
454.70	9029.79
454.89	9256.82
455.07	8926.80
455.26	9153.84
455.44	9231.07
455.62	9128.09
455.81	9135.11
455.99	9228.73
456.17	9207.67
456.36	9268.52
456.54	9497.89
456.73	9540.02
456.91	9858.34
457.09	9710.88
457.28	9797.48
457.46	9593.86
457.64	9858.34
457.83	9921.53
458.01	9680.46
458.19	9811.53
458.38	9909.83
458.56	10209.42
458.74	9825.57
458.93	9874.72
459.11	9970.68
459.29	9860.68
459.48	10153.24
459.66	10162.61
459.84	10136.86
460.03	10319.42
460.21	10092.39
460.39	10340.49
460.57	10141.54
460.76	10509.01
460.94	10520.71
461.12	10410.70
461.31	10342.83
461.49	10284.31
461.67	10511.35
461.85	10614.33
462.04	10434.11
462.22	11272.02
462.40	10836.68
462.59	10855.40
462.77	10597.95
462.95	10967.75
463.13	10782.85
463.32	10714.97
463.50	10874.13
463.68	10972.43
463.86	10902.22
464.05	10745.40
464.23	11063.71
464.41	11037.97
464.59	10703.27
464.78	11002.86
464.96	11192.44
465.14	10902.22
465.32	11239.25
465.50	11524.80
465.69	11367.98
465.87	11143.29
466.05	11222.87
466.23	11250.96
466.41	11253.30
466.60	11688.64
466.78	11248.61
466.96	11389.05
467.14	11225.21
467.32	11599.70
467.51	11648.85
467.69	11190.10
467.87	11499.05
468.05	11777.58
468.23	11531.82
468.41	11510.75
468.60	11796.30
468.78	11852.47
468.96	11688.64
469.14	12002.27
469.32	12322.92
469.50	11459.26
469.69	12018.65
469.87	12044.40
470.05	12318.24
470.23	12348.67
470.41	12128.66
470.59	12212.92
470.77	12212.92
470.95	12458.67
471.14	12439.95
471.32	12496.12
471.50	12732.51
471.68	12657.62
471.86	12802.73
472.04	12767.62
472.22	12861.24
472.40	12620.17
472.58	12826.14
472.77	12901.03
472.95	13137.43
473.13	13415.95
473.31	13139.77
473.49	12985.29
473.67	13240.41
473.85	13083.59
474.03	13549.36
474.21	13537.66
474.39	13540.00
474.57	13703.84
474.75	13933.21
474.93	13928.53
475.12	13886.40
475.30	13832.57
475.48	13823.20
475.66	14047.90
475.84	14015.13
476.02	14225.78
476.20	14246.84
476.38	14813.25
476.56	14813.25
476.74	14899.85
476.92	14799.21
477.10	14630.69
477.28	14750.06
477.46	14977.09
477.64	14846.02
477.82	15335.19
478.00	15597.33
478.18	15625.42
478.36	15833.72
478.54	15925.00
478.72	16009.26
478.90	15953.09
479.08	16184.80
479.26	16135.65
479.44	16343.96
479.62	16552.27
479.80	16580.36
479.98	16812.07
480.16	16945.48
480.34	16889.31
480.52	17362.09
480.70	17455.72
480.88	17048.46
481.06	17458.06
481.24	17128.04
481.41	17514.23
481.59	18207.03
481.77	18129.79
481.95	18169.58
482.13	18216.39
482.31	18225.75
482.49	18616.62
482.67	18567.47
482.85	18611.94
483.03	19152.60
483.21	19606.67
483.39	19222.82
483.57	19164.31
483.74	19726.04
483.92	19616.03
484.10	19386.66
484.28	20414.15
484.46	20322.87
484.64	20858.85
484.82	20273.72
485.00	20449.26
485.18	21013.33
485.35	21287.17
485.53	21392.50
485.71	21277.81
485.89	22141.47
486.07	21799.75
486.25	21720.17
486.43	22122.74
486.61	22101.68
486.78	22511.27
486.96	22356.80
487.14	22822.56
487.32	22799.16
487.50	23175.98
487.68	23133.86
487.85	23517.70
488.03	23597.28
488.21	23840.70
488.39	23992.83
488.57	24311.14
488.75	24229.23
488.92	24580.31
489.10	24751.17
489.28	24814.36
489.46	24926.71
489.64	25127.99
489.81	25348.00
489.99	25577.37
490.17	25568.01
490.35	25947.18
490.53	26024.42
490.70	26106.34
490.88	26143.78
491.06	26792.11
491.24	26565.08
491.41	26888.07
491.59	27201.71
491.77	26850.63
491.95	27274.26
492.13	27494.27
492.30	27461.51
492.48	27655.77
492.66	27962.38
492.84	27711.94
493.01	28322.82
493.19	27995.15
493.37	28809.65
493.54	28519.43
493.72	28830.72
493.90	29628.84
494.08	29280.10
494.25	29771.61
494.43	29600.76
494.61	30089.93
494.79	29572.67
494.96	29958.86
495.14	30316.96
495.32	30637.61
495.49	30525.27
495.67	30740.60
495.85	31058.91
496.02	31440.42
496.20	31400.63
496.38	31248.49
496.55	31332.75
496.73	32297.05
496.91	31569.15
497.09	31873.42
497.26	32219.81
497.44	32084.06
497.62	32109.81
497.79	32795.59
497.97	32531.11
498.14	32723.03
498.32	33546.90
498.50	33479.02
498.67	33315.19
498.85	33694.35
499.03	33434.55
499.20	33790.31
499.38	33937.77
499.56	34139.05
499.73	34314.59
499.91	34354.38
500.08	34462.05
500.26	34593.12
500.44	34494.82
500.61	34995.69
500.79	34927.81
500.97	35388.90
501.14	35742.32
501.32	35412.31
501.49	35812.54
501.67	35314.00
501.84	35840.62
502.02	35674.45
502.20	35971.69
502.37	36491.29
502.55	36154.26
502.72	36297.03
502.90	36318.09
503.07	36058.29
503.25	36556.83
503.43	36500.65
503.60	36865.78
503.78	37046.00
503.95	37076.43
504.13	37172.39
504.30	37460.27
504.48	36833.01
504.65	37778.59
504.83	38024.34
505.01	38185.84
505.18	38106.26
505.36	38335.63
505.53	37816.04
505.71	38408.19
505.88	38120.31
506.06	38085.20
506.23	38799.06
506.41	38653.95
506.58	38974.60
506.76	38621.18
506.93	39042.48
507.11	39171.21
507.28	39264.83
507.46	39077.58
507.63	39770.38
507.81	40259.55
507.98	39555.05
508.16	39459.09
508.33	39686.12
508.50	39524.63
508.68	40053.59
508.85	40381.26
509.03	40425.73
509.20	40687.87
509.38	40865.75
509.55	41228.54
509.73	40942.99
509.90	41069.38
510.08	41034.27
510.25	41268.33
510.42	41708.35
510.60	41429.82
510.77	41666.22
510.95	41558.55
511.12	41544.51
511.30	41394.71
511.47	41818.35
511.64	41951.76
511.82	42333.27
511.99	42373.06
512.17	42422.21
512.34	42342.63
512.51	42885.64
512.69	42232.63
512.86	42511.15
513.04	43063.52
513.21	43002.66
513.38	42918.40
513.56	43154.80
513.73	43117.35
513.90	43627.59
514.08	43107.99
514.25	43672.06
514.43	43438.00
514.60	43812.49
514.77	43962.28
514.95	44158.89
515.12	43817.17
515.29	43786.74
515.47	44098.03
515.64	44601.25
515.81	44514.65
515.99	44397.62
516.16	44971.05
516.33	44554.44
516.51	44502.95
516.68	44659.76
516.85	44776.79
517.03	44996.80
517.20	44971.05
517.37	45177.02
517.54	45542.14
517.72	45214.47
517.89	45041.27
518.06	45359.58
518.24	45799.60
518.41	45277.66
518.58	45759.81
518.75	46213.88
518.93	45900.25
519.10	46167.07
519.27	46351.97
519.45	46150.68
519.62	46136.64
519.79	46129.62
519.96	46586.02
520.14	46679.64
520.31	46534.53
520.48	47065.83
520.65	46995.62
520.83	46515.81
521.00	47241.37
521.17	46920.72
521.34	46993.28
521.52	47281.16
521.69	47189.88
521.86	47281.16
522.03	47531.60
522.20	47552.66
522.38	47819.49
522.55	47648.63
522.72	47622.88
522.89	47604.16
523.07	48390.58
523.24	47941.19
523.41	48353.13
523.58	47971.62
523.75	47938.85
523.92	48184.61
524.10	48128.44
524.27	48058.22
524.44	48428.02
524.61	48622.29
524.78	48638.67
524.96	49127.84
525.13	48982.73
525.30	48767.40
525.47	48912.52
525.64	48531.01
525.81	49085.72
525.98	49244.87
526.16	49188.70
526.33	49088.06
526.50	49586.59
526.67	49275.30
526.84	49141.89
527.01	49148.91
527.18	49284.66
527.36	49900.22
527.53	49736.38
527.70	50141.30
527.87	50197.47
528.04	49647.44
528.21	49755.11
528.38	49804.26
528.55	49937.67
528.72	50316.84
528.89	50190.45
529.07	49984.48
529.24	50183.43
529.41	50284.07
529.58	50445.57
529.75	50302.79
529.92	50499.40
530.09	50445.57
530.26	50665.58
530.43	50522.80
530.60	50630.47
530.77	50326.20
530.94	50639.83
531.11	50611.74
531.28	50773.24
531.46	50674.94
531.63	51138.36
531.80	51164.11
531.97	50962.82
532.14	51393.48
532.31	50813.03
532.48	50815.37
532.65	51152.41
532.82	51028.36
532.99	51229.65
533.16	50756.86
533.33	51323.27
533.50	51379.44
533.67	51601.79
533.84	51452.00
534.01	51632.22
534.18	51367.74
534.35	51672.01
534.52	51660.30
534.69	51819.46
534.86	51936.49
535.03	51725.84
535.20	52046.49
535.37	52023.09
535.54	51924.78
535.71	51796.06
535.88	51744.56
536.05	52032.45
536.22	52154.16
536.38	52343.74
536.55	52203.31
536.72	52067.56
536.89	52282.89
537.06	52142.45
537.23	52409.28
537.40	52334.38
537.57	52193.95
537.74	52259.48
537.91	52547.37
538.08	52554.39
538.25	52254.80
538.42	52538.01
538.59	52846.96
538.75	52336.72
538.92	52638.65
539.09	52748.65
539.26	52500.56
539.43	53078.67
539.60	53022.50
539.77	52945.26
539.94	52928.87
540.11	53043.56
540.28	52980.37
540.44	52687.80
540.61	52870.36
540.78	52823.55
540.95	53289.32
541.12	52903.13
541.29	53090.37
541.46	53015.47
541.62	53155.91
541.79	53432.09
541.96	52837.59
542.13	53265.91
542.30	53212.08
542.47	53553.80
542.63	53577.20
542.80	53708.27
542.97	53778.49
543.14	53921.26
543.31	53476.56
543.48	53853.39
543.64	53996.16
543.81	54202.13
543.98	54089.78
544.15	54085.10
544.32	54169.36
544.48	54232.55
544.65	53879.13
544.82	53813.60
544.99	53773.81
545.16	54003.18
545.32	53890.83
545.49	54380.01
545.66	54475.97
545.83	54520.44
546.00	54443.20
546.16	54649.17
546.33	54270.00
546.50	54047.65
546.67	54234.89
546.83	54248.94
547.00	54316.81
547.17	54291.07
547.34	54382.35
547.50	54438.52
547.67	54724.07
547.84	54665.55
548.00	54698.32
548.17	54649.17
548.34	54616.40
548.51	55061.10
548.67	55114.94
548.84	54871.52
549.01	54490.01
549.18	54761.51
549.34	54719.38
549.51	54742.79
549.68	54885.56
549.84	54611.72
550.01	55054.08
550.18	54749.81
550.34	55000.25
550.51	55182.81
550.68	55199.19
550.84	54766.20
551.01	55210.90
551.18	54845.77
551.34	54674.91
551.51	54925.35
551.68	55164.09
551.84	55016.63
552.01	55082.17
552.18	55182.81
552.34	55285.79
552.51	55407.50
552.68	55131.32
552.84	55215.58
553.01	55433.25
553.18	55463.67
553.34	55679.00
553.51	55571.34
553.67	55592.40
553.84	55702.41
554.01	55428.57
554.17	55224.94
554.34	55348.99
554.51	55566.66
554.67	55805.39
554.84	55653.26
555.00	55646.24
555.17	55702.41
555.33	55746.88
555.50	55730.50
555.67	55592.40
555.83	55791.35
556.00	55725.81
556.16	55973.91
556.33	55749.22
556.50	55552.62
556.66	56182.22
556.83	55821.78
556.99	55945.83
557.16	56203.28
557.32	56067.53
557.49	56046.47
557.65	55835.82
557.82	55779.65
557.98	55803.05
558.15	56055.83
558.32	56039.45
558.48	55870.93
558.65	56219.67
558.81	56046.47
558.98	56182.22
559.14	56245.41
559.31	55920.08
559.47	56037.11
559.64	56104.98
559.80	56154.13
559.97	56278.18
560.13	56016.04
560.30	56348.40
560.46	56081.58
560.63	56229.03
560.79	56350.74
560.96	56224.35
561.12	56435.00
561.29	56282.86
561.45	56175.20
561.61	56353.08
561.78	56353.08
561.94	56306.27
562.11	56647.99
562.27	56294.56
562.44	56236.05
562.60	56163.50
562.77	56322.65
562.93	56236.05
563.10	56453.72
563.26	56556.70
563.42	56587.13
563.59	56556.70
563.75	56491.17
563.92	56554.36
564.08	56479.47
564.24	56481.81
564.41	56182.22
564.57	56324.99
564.74	56507.55
564.90	56619.90
565.07	56601.18
565.23	56589.47
565.39	56741.61
565.56	56470.11
565.72	56353.08
565.88	56481.81
566.05	56633.94
566.21	56278.18
566.38	56315.63
566.54	56563.73
566.70	56633.94
566.87	56638.62
567.03	56739.27
567.19	56807.14
567.36	56769.69
567.52	56598.83
567.68	56718.20
567.85	56671.39
568.01	56732.25
568.17	56664.37
568.34	56418.61
568.50	56912.47
568.66	56521.60
568.83	56856.29
568.99	56772.03
569.15	56795.44
569.32	56706.50
569.48	56636.28
569.64	56699.48
569.81	56811.82
569.97	56481.81
570.13	57015.45
570.30	56746.29
570.46	56872.68
570.62	56875.02
570.78	56643.30
570.95	56526.28
571.11	56858.63
571.27	56587.13
571.43	56676.07
571.60	56783.74
571.76	56811.82
571.92	56856.29
572.09	56999.07
572.25	56860.97
572.41	56889.06
572.57	56823.53
572.74	57020.13
572.90	56692.46
573.06	56788.42
573.22	56823.53
573.38	56992.04
573.55	56783.74
573.71	57088.01
573.87	57076.30
574.03	57034.17
574.20	56910.13
574.36	56830.55
574.52	56713.52
574.68	56783.74
574.84	56914.81
575.01	56774.37
575.17	57109.07
575.33	57038.86
575.49	56659.69
575.65	56786.08
575.82	56914.81
575.98	56825.87
576.14	57181.63
576.30	56910.13
576.46	56849.27
576.62	56949.92
576.79	56926.51
576.95	57013.11
577.11	56914.81
577.27	56999.07
577.43	56947.57
577.59	56734.59
577.75	56722.88
577.92	56917.15
578.08	56617.56
578.24	56706.50
578.40	56802.46
578.56	56996.73
578.72	57132.48
578.88	57190.99
579.04	57010.77
579.21	57027.15
579.37	57214.40
579.53	57214.40
579.69	56875.02
579.85	56793.10
580.01	56676.07
580.17	56786.08
580.33	56772.03
580.49	56945.23
580.65	56975.66
580.82	57125.46
580.98	57104.39
581.14	57104.39
581.30	57080.98
581.46	56811.82
581.62	56949.92
581.78	56690.12
581.94	57050.56
582.10	56647.99
582.26	56802.46
582.42	56945.23
582.58	57258.87
582.74	57099.71
582.90	57083.33
583.06	57120.77
583.22	57139.50
583.38	57031.83
583.54	56875.02
583.70	56821.19
583.86	56910.13
584.02	56692.46
584.18	56954.60
584.34	57169.93
584.50	57422.70
584.66	56790.76
584.82	56914.81
584.98	57022.47
585.14	56982.68
585.30	56769.69
585.46	56842.25
585.62	56783.74
585.78	57279.93
585.94	56865.66
586.10	57085.67
586.26	56896.08
586.42	57247.16
586.58	57165.24
586.74	57017.79
586.90	56919.49
587.06	57083.33
587.22	57013.11
587.38	56968.64
587.54	57165.24
587.70	57247.16
587.86	57219.08
588.02	57017.79
588.18	57312.70
588.34	57394.62
588.49	57240.14
588.65	56849.27
588.81	57102.05
588.97	57050.56
589.13	57109.07
589.29	57130.14
589.45	57209.71
589.61	57312.70
589.77	57293.97
589.93	57205.03
590.08	57420.36
590.24	57272.91
590.40	57469.51
590.56	57492.92
590.72	57062.26
590.88	57099.71
591.04	57153.54
591.20	57378.23
591.35	57317.38
591.51	57726.97
591.67	57469.51
591.83	57504.62
591.99	57406.32
592.15	57340.78
592.31	57446.11
592.46	57289.29
592.62	57078.64
592.78	57249.50
592.94	57308.02
593.10	57270.57
593.26	57467.17
593.41	57251.84
593.57	57347.81
593.73	57403.98
593.89	57347.81
594.05	57420.36
594.20	56935.87
594.36	57331.42
594.52	57268.23
594.68	57134.82
594.84	57088.01
594.99	57607.61
595.15	57394.62
595.31	57612.29
595.47	57380.57
595.62	57490.58
595.78	57453.13
595.94	57322.06
596.10	57027.15
596.25	57118.43
596.41	57375.89
596.57	57106.73
596.73	57460.15
596.88	57380.57
597.04	57453.13
597.20	57556.11
597.36	57495.26
597.51	57415.68
597.67	57455.47
597.83	57373.55
597.99	57319.72
598.14	57237.80
598.30	57394.62
598.46	57268.23
598.61	57446.11
598.77	57099.71
598.93	57502.28
599.09	57443.77
599.24	57766.76
599.40	57570.16
599.56	57448.45
599.71	57499.94
599.87	57315.04
600.03	57385.25
600.18	57542.07
600.34	57329.08
600.50	57382.91
600.65	57432.07
600.81	57467.17
600.97	57439.09
601.12	57668.46
601.28	57403.98
601.44	57549.09
601.59	57530.37
601.75	57331.42
601.91	57490.58
602.06	57289.29
602.22	57256.53
602.37	57247.16
602.53	57469.51
602.69	57483.56
602.84	57441.43
603.00	57485.90
603.16	57457.81
603.31	57490.58
603.47	57286.95
603.62	57289.29
603.78	57333.76
603.94	57125.46
604.09	57455.47
604.25	57293.97
604.40	57190.99
604.56	57237.80
604.71	57427.38
604.87	57448.45
605.03	57375.89
605.18	57698.89
605.34	57331.42
605.49	57226.10
605.65	56835.23
605.80	57088.01
605.96	57237.80
606.12	57256.53
606.27	57429.72
606.43	57237.80
606.58	57317.38
606.74	57265.89
606.89	57167.58
607.05	57401.64
607.20	57345.47
607.36	57148.86
607.51	57284.61
607.67	57123.11
607.82	56975.66
607.98	56860.97
608.13	57282.27
608.29	57109.07
608.44	57230.78
608.60	57244.82
608.75	57214.40
608.91	57284.61
609.06	57120.77
609.22	57268.23
609.37	56921.83
609.53	57055.24
609.68	57183.97
609.84	56786.08
609.99	57097.37
610.15	56938.21
610.30	56928.85
610.46	56870.34
610.61	57223.76
610.76	56952.26
610.92	57088.01
611.07	56893.74
611.23	56949.92
611.38	57097.37
611.54	56968.64
611.69	56788.42
611.84	56868.00
612.00	56755.65
612.15	56898.42
612.31	57118.43
612.46	56809.48
612.62	57146.52
612.77	56793.10
612.92	57036.51
613.08	56842.25
613.23	56776.72
613.39	56727.56
613.54	56774.37
613.69	56573.09
613.85	56615.22
614.00	56736.93
614.15	56823.53
614.31	56713.52
614.46	56931.19
614.62	56713.52
614.77	56928.85
614.92	56657.35
615.08	56619.90
615.23	56669.05
615.38	56692.46
615.54	56467.76
615.69	56559.05
615.84	56453.72
616.00	56374.14
616.15	56488.83
616.30	56673.73
616.46	56521.60
616.61	56575.43
616.76	56425.64
616.92	56640.96
617.07	56577.77
617.22	56437.34
617.37	56254.78
617.53	56472.45
617.68	56376.48
617.83	56032.42
617.99	56217.33
618.14	56582.45
618.29	56542.66
618.45	56416.27
618.60	56577.77
618.75	56392.87
618.90	56376.48
619.06	56322.65
619.21	56198.60
619.36	56329.67
619.51	56222.01
619.67	55781.99
619.82	55707.09
619.97	56044.13
620.12	56041.79
620.28	55915.40
620.43	56020.72
620.58	56161.15
620.73	56032.42
620.89	55983.27
621.04	56308.61
621.19	56165.84
621.34	56172.86
621.49	55845.18
621.65	55845.18
621.80	56086.26
621.95	55772.63
622.10	55887.31
622.25	55908.38
622.41	55826.46
622.56	56112.00
622.71	56193.92
622.86	56058.17
623.01	55957.53
623.16	55861.57
623.32	55796.03
623.47	55870.93
623.62	55840.50
623.77	55793.69
623.92	55660.28
624.07	55679.00
624.23	55547.93
624.38	55702.41
624.53	55849.86
624.68	55964.55
624.83	55847.52
624.98	55938.80
625.13	55849.86
625.29	55800.71
625.44	55416.86
625.59	55529.21
625.74	55510.49
625.89	55346.65
626.04	55313.88
626.19	55091.53
626.34	55201.53
626.49	55253.03
626.65	55372.39
626.80	55557.30
626.95	55161.75
627.10	55379.42
627.25	55370.05
627.40	55356.01
627.55	55220.26
627.70	55070.46
627.85	54831.73
628.00	54789.60
628.15	54995.57
628.30	54908.97
628.45	55018.97
628.60	55044.72
628.76	55313.88
628.91	55220.26
629.06	55348.99
629.21	55351.33
629.36	55089.19
629.51	54976.84
629.66	55040.04
629.81	54782.58
629.96	54773.22
630.11	54714.70
630.26	54789.60
630.41	54571.93
630.56	54576.61
630.71	54972.16
630.86	54864.50
631.01	55044.72
631.16	55185.15
631.31	54997.91
631.46	54710.02
631.61	54679.60
631.76	54539.16
631.91	54651.51
632.06	54581.29
632.21	54564.91
632.36	54536.82
632.51	54637.47
632.66	54670.23
632.81	54588.31
632.96	54735.77
633.10	54735.77
633.25	54595.34
633.40	54426.82
633.55	54653.85
633.70	54337.88
633.85	54328.52
634.00	54459.58
634.15	54265.32
634.30	54094.46
634.45	54377.67
634.60	54501.71
634.75	54042.97
634.90	54384.69
635.05	54316.81
635.19	54155.32
635.34	54408.09
635.49	54518.10
635.64	54433.84
635.79	54234.89
635.94	54314.47
636.09	54096.80
636.24	53923.60
636.39	54075.74
636.53	54010.20
636.68	54160.00
636.83	54078.08
636.98	54298.09
637.13	54085.10
637.28	54354.26
637.43	54085.10
637.57	54021.90
637.72	53719.98
637.87	53865.09
638.02	54099.14
638.17	54031.27
638.32	53832.32
638.46	53483.58
638.61	53598.27
638.76	53516.35
638.91	53595.93
639.06	53738.70
639.20	53640.40
639.35	53874.45
639.50	54038.29
639.65	53918.92
639.80	53731.68
639.94	53722.32
640.09	53792.53
640.24	53399.32
640.39	53523.37
640.54	53090.37
640.68	53261.23
640.83	53439.11
640.98	53200.38
641.13	52931.22
641.27	53228.46
641.42	53036.54
641.57	53347.83
641.72	53511.67
641.86	53324.43
642.01	53195.70
642.16	53116.12
642.31	52814.19
642.45	53258.89
642.60	52924.19
642.75	53132.50
642.90	53183.99
643.04	52729.93
643.19	53024.84
643.34	52851.64
643.48	52814.19
643.63	53235.48
643.78	53151.23
643.93	53090.37
644.07	52648.01
644.22	53130.16
644.37	52879.72
644.51	52884.40
644.66	53076.33
644.81	52921.85
644.95	52933.56
645.10	52856.32
645.25	52781.42
645.39	52491.19
645.54	52762.70
645.69	53052.92
645.83	52758.02
645.98	52844.62
646.13	53097.39
646.27	53048.24
646.42	52631.63
646.57	52704.18
646.71	52891.43
646.86	52437.36
647.00	52273.52
647.15	52392.89
647.30	52191.61
647.44	52266.50
647.59	52484.17
647.74	52254.80
647.88	52399.91
648.03	52594.18
648.17	52633.97
648.32	52428.00
648.47	52575.45
648.61	52399.91
648.76	52322.68
648.90	52200.97
649.05	52341.40
649.20	52083.94
649.34	52177.56
649.49	52027.77
649.63	52025.43
649.78	51917.76
649.92	52039.47
650.07	52285.23
650.21	51950.53
650.36	52224.37
650.51	52301.61
650.65	52357.78
650.80	52072.24
650.94	52172.88
651.09	52079.26
651.23	51866.27
651.38	51901.38
651.52	51807.76
651.67	51543.28
651.81	51702.43
651.96	51770.31
652.10	52076.92
652.25	51812.44
652.39	52055.85
652.54	51716.48
652.68	51536.26
652.83	52107.35
652.97	52074.58
653.12	52147.14
653.26	51718.82
653.41	51187.52
653.55	51564.34
653.70	51267.09
653.84	51405.19
653.99	51341.99
654.13	51564.34
654.27	51592.43
654.42	51414.55
654.56	51594.77
654.71	51620.52
654.85	51580.73
655.00	51456.68
655.14	51349.01
655.29	51346.67
655.43	51433.27
655.57	51332.63
655.72	51136.02
655.86	50822.39
656.01	50827.07
656.15	50789.62
656.30	50834.10
656.44	50981.55
656.58	50803.67
656.73	50656.21
656.87	51030.70
657.01	51175.81
657.16	51117.30
657.30	50843.46
657.45	50892.61
657.59	51194.54
657.73	50852.82
657.88	50700.68
658.02	50410.46
658.16	50712.39
658.31	50529.83
658.45	50770.90
658.60	50138.96
658.74	50424.50
658.88	50300.45
659.03	50445.57
659.17	50047.68
659.31	50230.24
659.46	50571.96
659.60	50534.51
659.74	50571.96
659.89	50314.50
660.03	50653.87
660.17	50431.52
660.32	50260.66
660.46	50138.96
660.60	50089.80
660.74	50101.51
660.89	49727.02
661.03	49684.89
661.17	50174.06
661.32	49652.12
661.46	49656.81
661.60	49464.88
661.74	49752.77
661.89	49827.66
662.03	49418.07
662.17	49113.80
662.31	49453.18
662.46	49469.56
662.60	49347.86
662.74	49305.73
662.88	49261.26
663.03	49027.20
663.17	49074.01
663.31	48884.43
663.45	48931.24
663.60	48945.28
663.74	48882.09
663.88	49291.68
664.02	48746.34
664.17	49523.40
664.31	48793.15
664.45	48832.94
664.59	48713.57
664.73	48945.28
664.88	48671.44
665.02	47955.24
665.16	48098.01
665.30	48105.03
665.44	48168.22
665.59	48041.84
665.73	48245.46
665.87	47955.24
666.01	47978.64
666.15	48112.05
666.29	48360.15
666.44	48034.81
666.58	47847.57
666.72	47945.87
666.86	48191.63
667.00	47791.40
667.14	47646.29
667.28	47639.26
667.43	47751.61
667.57	47847.57
667.71	47388.83
667.85	47164.14
667.99	46944.12
668.13	47203.92
668.27	46925.40
668.41	47349.04
668.56	46784.97
668.70	47096.26
668.84	47058.81
668.98	46883.27
669.12	46684.33
669.26	46890.29
669.40	46899.65
669.54	46660.92
669.68	46674.96
669.82	46330.90
669.96	46431.55
670.10	45755.13
670.25	46258.35
670.39	46127.28
670.53	45844.07
670.67	45729.39
670.81	46080.47
670.95	45797.26
671.09	45982.16
671.23	45968.12
671.37	45853.44
671.51	45780.88
671.65	46113.23
671.79	45656.83
671.93	45640.45
672.07	45406.39
672.21	45518.74
672.35	45092.76
672.49	45092.76
672.63	45090.42
672.77	45076.38
672.91	45408.73
673.05	44858.71
673.19	44863.39
673.33	44491.24
673.47	44442.09
673.61	45017.86
673.75	44861.05
673.89	44582.52
674.03	44528.69
674.17	44250.17
674.31	44514.65
674.45	44189.31
674.59	43856.96
674.73	44341.45
674.87	44245.49
675.01	43517.58
675.15	43573.75
675.29	43667.37
675.43	43377.15
675.56	43618.22
675.70	43215.65
675.84	43667.37
675.98	42487.74
676.12	43262.46
676.26	43552.69
676.40	42904.36
676.54	43398.21
676.68	42738.18
676.82	42277.10
676.96	42003.25
677.10	42153.05
677.23	42031.34
677.37	41956.44
677.51	41808.99
677.65	41970.49
677.79	41085.76
677.93	41357.27
678.07	41446.21
678.21	40933.63
678.34	41305.77
678.48	41490.68
678.62	41022.57
678.76	41273.01
678.90	40636.38
679.04	40938.31
679.18	40580.21
679.31	39917.84
679.45	40278.28
679.59	39838.26
679.73	39952.94
679.87	39871.03
680.00	39784.43
680.14	39047.16
680.28	39566.76
680.42	39552.71
680.56	39737.62
680.70	39351.43
680.83	39496.54
680.97	39915.50
681.11	39915.50
681.25	39370.15
681.39	39227.38
681.52	39210.99
681.66	38593.09
681.80	38532.24
681.94	38251.38
682.07	38403.51
682.21	38164.78
682.35	38197.54
682.49	38012.64
682.62	38040.73
682.76	37970.51
682.90	37310.48
683.04	37816.04
683.17	37558.58
683.31	37823.06
683.45	37436.87
683.59	37268.35
683.72	36959.40
683.86	37074.09
684.00	36301.71
684.13	36535.76
684.27	36177.66
684.41	36070.00
684.55	36074.68
684.68	36301.71
684.82	35929.56
684.96	35550.40
685.09	35697.85
685.23	35578.48
685.37	35461.46
685.50	35562.10
685.64	35398.26
685.78	35204.00
685.91	35260.17
686.05	35091.65
686.19	34817.81
686.32	34911.43
686.46	34548.65
686.60	34085.22
686.73	34066.50
686.87	34134.37
687.01	34012.66
687.14	33979.90
687.28	33862.87
687.42	33741.16
687.55	33130.28
687.69	33830.10
687.82	33256.67
687.96	33806.70
688.10	33397.10
688.23	33373.70
688.37	33429.87
688.50	33076.45
688.64	32561.53
688.78	32683.24
688.91	32545.15
689.05	32648.13
689.18	32821.33
689.32	31934.27
689.46	31941.29
689.59	32030.23
689.73	31821.92
689.86	31421.69
690.00	31747.03
690.13	31747.03
690.27	31304.67
690.41	31412.33
690.54	31367.86
690.68	31255.51
690.81	31044.87
690.95	31000.40
691.08	31218.07
691.22	30831.88
691.35	30572.08
691.49	30593.14
691.62	30476.12
691.76	30129.72
691.89	29968.22
692.03	29869.92
692.16	29596.07
692.30	29706.08
692.43	29137.33
692.57	29467.34
692.70	29427.56
692.84	29525.86
692.97	29387.77
693.11	29387.77
693.24	29357.34
693.38	28971.15
693.51	29219.25
693.65	28989.88
693.78	28961.79
693.92	29060.09
694.05	28524.11
694.19	28393.04
694.32	28479.64
694.45	28093.45
694.59	28098.13
694.72	28198.77
694.86	27997.49
694.99	27215.75
695.13	27494.27
695.26	27442.78
695.39	27232.13
695.53	27438.10
695.66	27630.02
695.80	27281.28
695.93	27278.94
696.07	26906.80
696.20	27119.79
696.33	27047.23
696.47	26642.32
696.60	26424.65
696.73	26757.00
696.87	26462.10
697.00	26038.46
697.14	25928.45
697.27	25783.34
697.40	25605.46
697.54	25467.37
697.67	25324.60
697.80	25078.84
697.94	25083.52
698.07	25116.29
698.21	24950.11
698.34	24889.26
698.47	25029.69
698.61	24760.53
698.74	24723.08
698.87	25069.48
699.01	24641.16
699.14	24690.31
699.27	24561.58
699.40	24411.79
699.54	24049.00
699.67	23786.86
699.80	23335.14
699.94	23384.29
700.07	24034.96
700.20	23496.64
700.34	23138.54
700.47	23014.49
700.60	23131.51
700.73	23073.00
700.87	23243.86
701.00	23180.67
701.13	22595.53
701.26	22572.13
701.40	23117.47
701.53	22941.93
701.66	23012.15
701.79	22422.33
701.93	22270.20
702.06	22384.88
702.19	22326.37
702.32	22094.66
702.46	22057.21
702.59	21736.56
702.72	21544.63
702.85	21303.56
702.99	21425.26
703.12	21383.13
703.25	21160.78
703.38	21411.22
703.51	21273.13
703.65	21205.25
703.78	21200.57
703.91	20879.92
704.04	21060.14
704.17	20744.17
704.31	20854.17
704.44	20409.47
704.57	20304.15
704.70	19934.34
704.83	20013.92
704.96	20112.22
705.10	19777.53
705.23	19756.46
>>>>>End Processed Spectral Data<<<<<
