SpectraSuite Data File
++++++++++++++++++++++++++++++++++++
Date: Fri Oct 18 13:55:26 GMT-05:00 2013
User: bianchi
Dark Spectrum Present: No
Reference Spectrum Present: No
Number of Sampled Component Spectra: 1
Spectrometers: USB2+H05261
Integration Time (usec): 100000 (USB2+H05261)
Spectra Averaged: 1 (USB2+H05261)
Boxcar Smoothing: 0 (USB2+H05261)
Correct for Electrical Dark: No (USB2+H05261)
Strobe/Lamp Enabled: No (USB2+H05261)
Correct for Detector Non-linearity: No (USB2+H05261)
Correct for Stray Light: No (USB2+H05261)
Number of Pixels in Processed Spectrum: 2048
>>>>>Begin Processed Spectral Data<<<<<
365.73	0.00
365.92	0.00
366.12	0.00
366.32	0.00
366.52	0.00
366.72	0.00
366.91	0.00
367.11	0.00
367.31	0.00
367.51	0.00
367.70	0.00
367.90	0.00
368.10	0.00
368.30	0.00
368.49	0.00
368.69	0.00
368.89	0.00
369.09	0.00
369.28	0.00
369.48	0.00
369.68	0.00
369.87	0.00
370.07	0.00
370.27	0.00
370.47	60.85
370.66	236.39
370.86	332.36
371.06	339.38
371.25	362.78
371.45	318.31
371.65	390.87
371.84	322.99
372.04	421.30
372.24	414.27
372.44	362.78
372.63	372.15
372.83	428.32
373.03	379.17
373.22	374.49
373.42	411.93
373.62	425.98
373.81	461.09
374.01	526.62
374.21	470.45
374.40	465.77
374.60	449.38
374.79	493.85
374.99	493.85
375.19	517.26
375.38	538.32
375.58	566.41
375.78	552.37
375.97	479.81
376.17	533.64
376.37	533.64
376.56	540.66
376.76	538.32
376.95	545.34
377.15	580.45
377.35	491.51
377.54	554.71
377.74	538.32
377.93	557.05
378.13	615.56
378.33	557.05
378.52	589.82
378.72	615.56
378.91	573.43
379.11	510.24
379.31	538.32
379.50	533.64
379.70	613.22
379.89	606.20
380.09	557.05
380.28	627.26
380.48	674.07
380.68	610.88
380.87	564.07
381.07	620.24
381.26	695.14
381.46	657.69
381.65	690.46
381.85	697.48
382.04	603.86
382.24	704.50
382.43	613.22
382.63	653.01
382.83	777.06
383.02	830.89
383.22	798.12
383.41	650.67
383.61	755.99
383.80	748.97
384.00	800.46
384.19	706.84
384.39	709.18
384.58	842.59
384.78	777.06
384.97	814.51
385.17	793.44
385.36	767.70
385.56	772.38
385.75	777.06
385.95	856.64
386.14	814.51
386.34	894.08
386.53	802.80
386.72	919.83
386.92	861.32
387.11	884.72
387.31	774.72
387.50	816.85
387.70	844.93
387.89	858.98
388.09	854.30
388.28	873.02
388.48	910.47
388.67	919.83
388.86	1060.26
389.06	903.45
389.25	983.02
389.45	959.62
389.64	905.79
389.84	1036.86
390.03	940.90
390.22	947.92
390.42	880.04
390.61	964.30
390.81	985.37
391.00	1020.47
391.19	1046.22
391.39	1011.11
391.58	985.37
391.78	1128.14
391.97	1022.81
392.16	1015.79
392.36	1083.67
392.55	1060.26
392.75	1039.20
392.94	1100.05
393.13	1214.74
393.33	1086.01
393.52	1109.41
393.71	1165.59
393.91	1132.82
394.10	1193.67
394.29	1095.37
394.49	1191.33
394.68	1231.12
394.88	1343.47
395.07	1275.59
395.26	1226.44
395.46	1287.29
395.65	1334.11
395.84	1348.15
396.04	1369.21
396.23	1458.15
396.42	1364.53
396.62	1308.36
396.81	1364.53
397.00	1430.07
397.19	1397.30
397.39	1437.09
397.58	1331.76
397.77	1315.38
397.97	1355.17
398.16	1446.45
398.35	1533.05
398.55	1434.75
398.74	1385.60
398.93	1497.94
399.12	1434.75
399.32	1432.41
399.51	1425.39
399.70	1638.38
399.90	1483.90
400.09	1558.80
400.28	1540.07
400.47	1551.78
400.67	1687.53
400.86	1565.82
401.05	1687.53
401.24	1610.29
401.44	1678.16
401.63	1858.39
401.82	1743.70
402.01	1764.76
402.21	1713.27
402.40	1764.76
402.59	1842.00
402.78	1757.74
402.97	1788.17
403.17	1785.83
403.36	1802.21
403.55	1874.77
403.74	1930.94
403.93	2003.50
404.13	1902.86
404.32	1863.07
404.51	1877.11
404.70	1942.64
404.89	1902.86
405.09	2050.31
405.28	1952.01
405.47	2052.65
405.66	2087.76
405.85	2029.24
406.05	2064.35
406.24	2080.74
406.43	2141.59
406.62	2188.40
406.81	2342.88
407.00	2157.97
407.20	2139.25
407.39	2202.44
407.58	2214.15
407.77	2263.30
407.96	2289.04
408.15	2331.17
408.34	2197.76
408.54	2319.47
408.73	2307.77
408.92	2396.71
409.11	2314.79
409.30	2256.28
409.49	2523.10
409.68	2452.88
409.87	2548.84
410.07	2497.35
410.26	2602.68
410.45	2583.95
410.64	2605.02
410.83	2551.18
411.02	2588.63
411.21	2635.44
411.40	2670.55
411.59	2738.43
411.78	2736.09
411.98	2677.57
412.17	2902.26
412.36	2796.94
412.55	2876.52
412.74	2928.01
412.93	2956.10
413.12	2939.71
413.31	2977.16
413.50	3023.97
413.69	3056.74
413.88	3143.34
414.07	3122.27
414.26	3108.23
414.45	3166.74
414.64	3251.00
414.83	3318.88
415.02	3283.77
415.22	3293.13
415.41	3410.16
415.60	3410.16
415.79	3417.18
415.98	3499.10
416.17	3405.48
416.36	3379.73
416.55	3548.25
416.74	3566.98
416.93	3559.95
417.12	3676.98
417.31	3712.09
417.50	3684.00
417.69	3779.97
417.88	3873.59
418.07	3810.39
418.26	3880.61
418.45	3934.44
418.64	4079.55
418.83	4044.45
419.02	3967.21
419.21	4011.68
419.39	3976.57
419.58	4004.66
419.77	3985.93
419.96	4035.08
420.15	4072.53
420.34	4184.88
420.53	4170.83
420.72	4182.54
420.91	4056.15
421.10	4334.67
421.29	4304.25
421.48	4271.48
421.67	4435.32
421.86	4168.49
422.05	4294.88
422.24	4334.67
422.43	4262.12
422.61	4416.59
422.80	4512.55
422.99	4498.51
423.18	4425.95
423.37	4489.15
423.56	4475.10
423.75	4435.32
423.94	4458.72
424.13	4107.64
424.32	4430.63
424.50	4468.08
424.69	4685.75
424.88	4594.47
425.07	4589.79
425.26	4374.46
425.45	4505.53
425.64	4582.77
425.83	4507.87
426.01	4559.36
426.20	4521.92
426.39	4599.15
426.58	4550.00
426.77	4671.71
426.96	4716.18
427.15	4608.51
427.33	4667.03
427.52	4692.77
427.71	4816.82
427.90	4788.74
428.09	4732.56
428.28	4760.65
428.46	4884.70
428.65	4894.06
428.84	4966.62
429.03	5116.41
429.22	4826.18
429.40	5029.81
429.59	5043.85
429.78	4746.61
429.97	4821.50
430.16	4926.83
430.34	5181.95
430.53	5149.18
430.72	5132.79
430.91	5224.08
431.10	4954.91
431.28	5139.82
431.47	5392.59
431.66	5261.52
431.85	5313.02
432.03	5301.31
432.22	5533.03
432.41	5266.21
432.60	5493.24
432.79	5334.08
432.97	5509.62
433.16	5455.79
433.35	5430.04
433.54	5605.58
433.72	5678.14
433.91	5493.24
434.10	5603.24
434.28	5446.43
434.47	5589.20
434.66	5764.74
434.85	5607.92
435.03	5762.40
435.22	5757.72
435.41	6040.92
435.59	5743.67
435.78	5825.59
435.97	5895.81
436.16	5921.56
436.34	6001.13
436.53	5781.12
436.72	6125.18
436.90	5851.34
437.09	5996.45
437.28	5923.90
437.46	5930.92
437.65	5989.43
437.84	6099.44
438.02	6115.82
438.21	6321.79
438.40	6167.31
438.58	6370.94
438.77	6485.62
438.96	6464.56
439.14	6410.73
439.33	6539.46
439.52	6487.96
439.70	6513.71
439.89	6719.68
440.08	6740.74
440.26	6731.38
440.45	6862.45
440.63	6874.15
440.82	6822.66
441.01	6820.32
441.19	6897.56
441.38	7089.48
441.57	7009.90
441.75	7255.66
441.94	7148.00
442.12	7377.37
442.31	7485.03
442.50	7398.43
442.68	7314.17
442.87	7592.70
443.05	7492.05
443.24	7522.48
443.43	7604.40
443.61	7613.76
443.80	7903.99
443.98	7323.54
444.17	7358.64
444.35	7606.74
444.54	7903.99
444.73	7758.88
444.91	7543.55
445.10	7592.70
445.28	7538.87
445.47	7662.91
445.65	7662.91
445.84	7740.15
446.02	7850.16
446.21	7693.34
446.39	7765.90
446.58	7880.58
446.77	7810.37
446.95	7550.57
447.14	7719.09
447.32	7882.92
447.51	7927.39
447.69	7941.44
447.88	7936.76
448.06	7705.04
448.25	7644.19
448.43	7669.94
448.62	7985.91
448.80	8002.29
448.99	7871.22
449.17	8100.59
449.36	7808.03
449.54	7941.44
449.73	8152.09
449.91	8189.53
450.10	8074.85
450.28	8229.32
450.46	8182.51
450.65	8276.13
450.83	8498.49
451.02	8299.54
451.20	8472.74
451.39	8629.56
451.57	8180.17
451.76	8325.29
451.94	8439.97
452.13	8526.57
452.31	8575.72
452.49	8229.32
452.68	8538.27
452.86	8634.24
453.05	8676.37
453.23	8678.71
453.42	8720.84
453.60	8606.15
453.78	8685.73
453.97	8772.33
454.15	8582.74
454.34	8608.49
454.52	8985.32
454.70	8847.22
454.89	9022.77
455.07	8875.31
455.26	9008.72
455.44	9083.62
455.62	9027.45
455.81	9160.86
455.99	9095.32
456.17	9415.98
456.36	9167.88
456.54	9404.27
456.73	9397.25
456.91	9401.93
457.09	9521.30
457.28	9586.83
457.46	9172.56
457.64	9502.58
457.83	9584.49
458.01	9500.23
458.19	9902.81
458.38	9509.60
458.56	9919.19
458.74	9748.33
458.93	9596.20
459.11	9797.48
459.29	9902.81
459.48	9895.78
459.66	9935.57
459.84	10024.51
460.03	10050.26
460.21	10019.83
460.39	10115.80
460.57	10024.51
460.76	10211.76
460.94	10272.61
461.12	10223.46
461.31	10335.81
461.49	10237.50
461.67	10274.95
461.85	10487.94
462.04	10218.78
462.22	10794.55
462.40	10483.26
462.59	10480.92
462.77	10572.20
462.95	10567.52
463.13	10630.71
463.32	10693.91
463.50	10717.31
463.68	10700.93
463.86	10707.95
464.05	10696.25
464.23	10661.14
464.41	10995.84
464.59	10434.11
464.78	10974.77
464.96	10675.18
465.14	10864.77
465.32	11014.56
465.50	11105.84
465.69	11094.14
465.87	10911.58
466.05	10906.90
466.23	11035.63
466.41	11272.02
466.60	11419.47
466.78	11215.85
466.96	11159.67
467.14	11105.84
467.32	11112.86
467.51	11620.76
467.69	10993.50
467.87	11304.79
468.05	11187.76
468.23	11398.41
468.41	11508.41
468.60	11534.16
468.78	11625.44
468.96	11452.24
469.14	11819.71
469.32	11744.81
469.50	11545.86
469.69	11726.08
469.87	11927.37
470.05	12128.66
470.23	11999.93
470.41	12079.50
470.59	12147.38
470.77	11826.73
470.95	11971.84
471.14	12339.30
471.32	12168.45
471.50	12297.17
471.68	12135.68
471.86	12294.83
472.04	12395.48
472.22	12692.73
472.40	12489.10
472.58	12793.37
472.77	12608.47
472.95	13020.40
473.13	13317.65
473.31	12608.47
473.49	12723.15
473.67	12943.16
473.85	12842.52
474.03	13233.39
474.21	13207.64
474.39	13359.78
474.57	13364.46
474.75	13263.82
474.93	13839.59
475.12	13811.50
475.30	13752.99
475.48	13680.43
475.66	13853.63
475.84	13813.84
476.02	14085.34
476.20	14295.99
476.38	14249.18
476.56	14478.55
476.74	14565.15
476.92	14342.80
477.10	14394.29
477.28	14668.14
477.46	14633.03
477.64	14745.38
477.82	14923.26
478.00	15466.26
478.18	15634.78
478.36	15365.62
478.54	15550.52
478.72	15712.02
478.90	16056.08
479.08	16011.60
479.26	15859.47
479.44	16418.86
479.62	16278.43
479.80	16388.43
479.98	16217.57
480.16	16762.92
480.34	16629.51
480.52	16819.09
480.70	17043.78
480.88	16926.75
481.06	17027.40
481.24	16830.79
481.41	17448.69
481.59	17668.70
481.77	17797.43
481.95	17764.67
482.13	18192.98
482.31	17682.75
482.49	18092.34
482.67	18230.43
482.85	18558.11
483.03	18813.23
483.21	18855.36
483.39	19068.34
483.57	18998.13
483.74	19112.81
483.92	19192.39
484.10	19283.67
484.28	19779.87
484.46	20081.80
484.64	20273.72
484.82	19765.82
485.00	19978.81
485.18	20535.86
485.35	20926.73
485.53	21039.08
485.71	20833.11
485.89	21298.88
486.07	21137.38
486.25	21191.21
486.43	21479.10
486.61	21912.10
486.78	21975.29
486.96	22176.58
487.14	22038.48
487.32	22113.38
487.50	22717.24
487.68	22750.01
487.85	22923.21
488.03	23255.56
488.21	23349.18
488.39	23410.04
488.57	23513.02
488.75	24046.66
488.92	23964.75
489.10	24177.73
489.28	24531.15
489.46	24821.38
489.64	24613.07
489.81	25268.42
489.99	25249.70
490.17	25177.14
490.35	25556.31
490.53	25469.71
490.70	26001.01
490.88	25509.50
491.06	26363.79
491.24	26082.93
491.41	26036.12
491.59	26099.31
491.77	26499.55
491.95	27161.92
492.13	27047.23
492.30	27475.55
492.48	27246.18
492.66	27426.40
492.84	27779.82
493.01	27796.20
493.19	27686.20
493.37	28376.66
493.54	28191.75
493.72	28655.18
493.90	28453.89
494.08	28561.56
494.25	28971.15
494.43	29193.50
494.61	28975.83
494.79	29373.72
494.96	29425.22
495.14	29575.01
495.32	30316.96
495.49	29944.81
495.67	30244.40
495.85	30448.03
496.02	30384.83
496.20	30941.88
496.38	30654.00
496.55	31070.61
496.73	31782.13
496.91	30815.49
497.09	31667.45
497.26	31571.49
497.44	31367.86
497.62	31662.77
497.79	32322.80
497.97	32231.52
498.14	32636.43
498.32	32828.35
498.50	32535.79
498.67	33113.90
498.85	33036.66
499.03	33006.23
499.20	33539.88
499.38	33270.72
499.56	33745.84
499.73	33479.02
499.91	33764.57
500.08	34185.86
500.26	33656.90
500.44	33841.81
500.61	34256.08
500.79	33961.17
500.97	34426.94
501.14	34925.47
501.32	35159.53
501.49	34941.86
501.67	35180.59
501.84	34850.58
502.02	34782.70
502.20	35269.53
502.37	35999.78
502.55	35503.59
502.72	35955.31
502.90	35845.30
503.07	35580.82
503.25	35756.36
503.43	35573.80
503.60	36369.58
503.78	36453.84
503.95	36898.55
504.13	36657.47
504.30	36603.64
504.48	36257.24
504.65	36687.90
504.83	37158.34
505.01	37556.24
505.18	37069.40
505.36	37411.12
505.53	37581.98
505.71	37266.01
505.88	37930.72
506.06	37397.08
506.23	37954.13
506.41	37823.06
506.58	38127.33
506.76	38019.66
506.93	38408.19
507.11	38326.27
507.28	38110.94
507.46	38651.61
507.63	39154.82
507.81	38962.90
507.98	39117.37
508.16	38761.61
508.33	38740.55
508.50	39016.73
508.68	39412.28
508.85	39889.75
509.03	39571.44
509.20	39971.67
509.38	39693.15
509.55	39950.60
509.73	39847.62
509.90	40147.21
510.08	40182.32
510.25	40467.86
510.42	40582.55
510.60	40786.18
510.77	40985.12
510.95	40877.46
511.12	40643.40
511.30	40671.49
511.47	41008.53
511.64	40907.88
511.82	41680.26
511.99	41111.51
512.17	41605.36
512.34	41652.17
512.51	41867.50
512.69	41977.51
512.86	41804.31
513.04	42794.36
513.21	42501.79
513.38	42211.56
513.56	42574.34
513.73	42401.14
513.90	42483.06
514.08	42572.00
514.25	42934.79
514.43	42623.50
514.60	43185.22
514.77	43304.59
514.95	43407.58
515.12	42979.26
515.29	43005.00
515.47	43688.44
515.64	43749.29
515.81	43552.69
515.99	44011.43
516.16	44238.47
516.33	44364.85
516.51	44315.70
516.68	43885.04
516.85	43391.19
517.03	44465.50
517.20	44594.23
517.37	44336.77
517.54	44601.25
517.72	44399.96
517.89	44605.93
518.06	44694.87
518.24	44212.72
518.41	44868.07
518.58	44816.58
518.75	44959.35
518.93	45319.79
519.10	45287.03
519.27	45567.89
519.45	45181.70
519.62	45375.97
519.79	45373.63
519.96	45237.87
520.14	45806.62
520.31	45319.79
520.48	46263.03
520.65	45462.57
520.83	46237.28
521.00	45989.19
521.17	46131.96
521.34	46101.53
521.52	46267.71
521.69	46110.89
521.86	46401.12
522.03	46920.72
522.20	46658.58
522.38	46752.20
522.55	46700.71
522.72	46553.26
522.89	46796.67
523.07	47547.98
523.24	46768.58
523.41	47711.82
523.58	46885.61
523.75	47693.10
523.92	47004.98
524.10	47229.67
524.27	47777.36
524.44	47629.90
524.61	48067.58
524.78	48023.11
524.96	47847.57
525.13	47423.93
525.30	48453.77
525.47	48186.95
525.64	47819.49
525.81	48189.29
525.98	48367.17
526.16	48428.02
526.33	48409.30
526.50	48690.16
526.67	48406.96
526.84	48631.65
527.01	48645.69
527.18	48837.62
527.36	48994.43
527.53	49237.85
527.70	49361.90
527.87	49125.50
528.04	48882.09
528.21	49195.72
528.38	49230.83
528.55	49432.11
528.72	49144.23
528.89	49581.91
529.07	49287.00
529.24	49184.02
529.41	49579.57
529.58	49670.85
529.75	49394.67
529.92	49478.92
530.09	49195.72
530.26	49565.52
530.43	50007.89
530.60	49759.79
530.77	50052.36
530.94	50038.31
531.11	49647.44
531.28	49874.48
531.46	50167.04
531.63	50321.52
531.80	50176.40
531.97	50382.37
532.14	50576.64
532.31	50520.46
532.48	50188.11
532.65	50693.66
532.82	50284.07
532.99	50529.83
533.16	50316.84
533.33	50548.55
533.50	51250.71
533.67	51098.58
533.84	50600.04
534.01	50534.51
534.18	50824.73
534.35	51157.09
534.52	51110.28
534.69	51360.72
534.86	51239.01
535.03	51264.75
535.20	51131.34
535.37	51316.25
535.54	51304.54
535.71	51002.61
535.88	51248.37
536.05	51437.95
536.22	51379.44
536.38	51587.75
536.55	51613.49
536.72	51753.93
536.89	51374.76
537.06	51601.79
537.23	51650.94
537.40	51653.28
537.57	51578.39
537.74	51667.33
537.91	52037.13
538.08	52025.43
538.25	51817.12
538.42	52140.11
538.59	51882.66
538.75	51990.32
538.92	52196.29
539.09	52701.84
539.26	52182.24
539.43	52203.31
539.60	52547.37
539.77	52406.94
539.94	52334.38
540.11	52392.89
540.28	52442.04
540.44	52332.04
540.61	52336.72
540.78	52488.85
540.95	52549.71
541.12	52292.25
541.29	52662.05
541.46	52561.41
541.62	52212.67
541.79	52678.44
541.96	52353.10
542.13	52437.36
542.30	52685.46
542.47	52608.22
542.63	53183.99
542.80	53102.07
542.97	53081.01
543.14	53495.28
543.31	52821.21
543.48	53291.66
543.64	53485.92
543.81	53680.19
543.98	53272.93
544.15	53453.15
544.32	53694.23
544.48	53682.53
544.65	53315.06
544.82	53392.30
544.99	53331.45
545.16	53378.26
545.32	53446.13
545.49	53975.09
545.66	53874.45
545.83	53890.83
546.00	53837.00
546.16	53745.72
546.33	53588.91
546.50	53406.34
546.67	54003.18
546.83	53551.46
547.00	53748.06
547.17	53811.26
547.34	54057.01
547.50	53939.99
547.67	54124.89
547.84	54031.27
548.00	54204.47
548.17	54223.19
548.34	53717.64
548.51	54361.28
548.67	54541.50
548.84	54480.65
549.01	54218.51
549.18	54145.95
549.34	54253.62
549.51	54120.21
549.68	54267.66
549.84	54110.85
550.01	54368.30
550.18	54164.68
550.34	54574.27
550.51	54658.53
550.68	54513.42
550.84	54255.96
551.01	54679.60
551.18	54251.28
551.34	54663.21
551.51	54443.20
551.68	54731.09
551.84	54466.61
552.01	54618.74
552.18	54915.99
552.34	54279.36
552.51	54817.69
552.68	54410.43
552.84	54731.09
553.01	54927.69
553.18	54571.93
553.34	54937.05
553.51	54855.14
553.67	54873.86
553.84	55325.58
554.01	55140.68
554.17	54932.37
554.34	54901.95
554.51	54981.52
554.67	55082.17
554.84	55049.40
555.00	54972.16
555.17	54908.97
555.33	55072.81
555.50	55075.15
555.67	55150.04
555.83	55030.68
556.00	54892.58
556.16	55281.11
556.33	55159.41
556.50	55309.20
556.66	55370.05
556.83	55220.26
556.99	55547.93
557.16	55547.93
557.32	55550.27
557.49	55515.17
557.65	55185.15
557.82	55325.58
557.98	55299.84
558.15	55529.21
558.32	55693.05
558.48	55283.45
558.65	55756.24
558.81	55533.89
558.98	55428.57
559.14	55449.63
559.31	55234.30
559.47	55484.74
559.64	55501.12
559.80	55791.35
559.97	55587.72
560.13	55473.04
560.30	55515.17
560.46	55496.44
560.63	55580.70
560.79	55552.62
560.96	55686.03
561.12	55608.79
561.29	55648.58
561.45	55569.00
561.61	55681.34
561.78	55784.33
561.94	55969.23
562.11	55969.23
562.27	55842.84
562.44	55697.73
562.60	56037.11
562.77	55779.65
562.93	55863.91
563.10	55758.58
563.26	55786.67
563.42	56100.30
563.59	56023.06
563.75	55950.51
563.92	56076.90
564.08	55842.84
564.24	55957.53
564.41	55683.69
564.57	55770.28
564.74	55737.52
564.90	55948.17
565.07	55772.63
565.23	55943.48
565.39	56058.17
565.56	56165.84
565.72	55828.80
565.88	56055.83
566.05	56107.32
566.21	55791.35
566.38	55863.91
566.54	56051.15
566.70	56060.51
566.87	56009.02
567.03	56016.04
567.19	56329.67
567.36	55877.95
567.52	56030.08
567.68	56147.11
567.85	55950.51
568.01	56175.20
568.17	56179.88
568.34	56217.33
568.50	56142.43
568.66	56016.04
568.83	56247.75
568.99	56081.58
569.15	55835.82
569.32	56053.49
569.48	56062.85
569.64	55948.17
569.81	56179.88
569.97	56367.12
570.13	56381.16
570.30	56079.24
570.46	56222.01
570.62	56203.28
570.78	56170.52
570.95	56112.00
571.11	56140.09
571.27	56013.70
571.43	56296.91
571.60	56229.03
571.76	56357.76
571.92	56313.29
572.09	56186.90
572.25	56472.45
572.41	56147.11
572.57	56238.39
572.74	56179.88
572.90	56327.33
573.06	56411.59
573.22	56081.58
573.38	56376.48
573.55	56292.22
573.71	56568.41
573.87	56442.02
574.03	56191.58
574.20	56432.66
574.36	56591.81
574.52	56074.55
574.68	56044.13
574.84	56247.75
575.01	56472.45
575.17	56320.31
575.33	56156.47
575.49	56175.20
575.65	56603.52
575.82	56589.47
575.98	56327.33
576.14	56406.91
576.30	56348.40
576.46	55908.38
576.62	56261.80
576.79	56420.95
576.95	56086.26
577.11	56261.80
577.27	56420.95
577.43	56397.55
577.59	56332.01
577.75	56278.18
577.92	56257.12
578.08	56126.05
578.24	56362.44
578.40	56324.99
578.56	56605.86
578.72	56212.65
578.88	56559.05
579.04	56437.34
579.21	56495.85
579.37	56236.05
579.53	56477.13
579.69	56399.89
579.85	56266.48
580.01	56238.39
580.17	56147.11
580.33	56334.35
580.49	56530.96
580.65	56523.94
580.82	56444.36
580.98	56353.08
581.14	56355.42
581.30	56458.40
581.46	56210.31
581.62	56371.80
581.78	56130.73
581.94	56509.89
582.10	56481.81
582.26	56575.43
582.42	56549.68
582.58	56573.09
582.74	56404.57
582.90	56584.79
583.06	56554.36
583.22	56514.58
583.38	56172.86
583.54	56219.67
583.70	56449.04
583.86	56334.35
584.02	56250.09
584.18	56523.94
584.34	56575.43
584.50	56694.80
584.66	56519.26
584.82	56140.09
584.98	56273.50
585.14	56514.58
585.30	56287.54
585.46	56353.08
585.62	56364.78
585.78	56603.52
585.94	56222.01
586.10	56449.04
586.26	56442.02
586.42	56582.45
586.58	56734.59
586.74	56502.87
586.90	56156.47
587.06	56250.09
587.22	56348.40
587.38	56133.07
587.54	56608.20
587.70	56734.59
587.86	56498.19
588.02	56465.42
588.18	56851.61
588.34	56652.67
588.49	56786.08
588.65	56240.73
588.81	56521.60
588.97	56655.01
589.13	56413.93
589.29	56619.90
589.45	56545.00
589.61	56800.12
589.77	56921.83
589.93	56872.68
590.08	56818.84
590.24	56779.06
590.40	56750.97
590.56	56713.52
590.72	56617.56
590.88	56540.32
591.04	56502.87
591.20	56968.64
591.35	56807.14
591.51	56931.19
591.67	56858.63
591.83	56926.51
591.99	56755.65
592.15	56774.37
592.31	56626.92
592.46	56659.69
592.62	56755.65
592.78	56734.59
592.94	56687.78
593.10	56537.98
593.26	56622.24
593.41	56853.95
593.57	56566.07
593.73	56896.08
593.89	56617.56
594.05	56783.74
594.20	56685.43
594.36	56736.93
594.52	56603.52
594.68	56559.05
594.84	56430.32
594.99	57116.09
595.15	56863.32
595.31	56807.14
595.47	56994.39
595.62	56919.49
595.78	56741.61
595.94	56657.35
596.10	56704.16
596.25	56596.49
596.41	56582.45
596.57	56523.94
596.73	56856.29
596.88	56645.65
597.04	57057.58
597.20	56985.02
597.36	56884.38
597.51	57179.29
597.67	56860.97
597.83	56741.61
597.99	57045.88
598.14	56891.40
598.30	56568.41
598.46	56596.49
598.61	56868.00
598.77	56886.72
598.93	56924.17
599.09	56739.27
599.24	57006.09
599.40	56970.98
599.56	56982.68
599.71	56762.67
599.87	57043.54
600.03	56818.84
600.18	56638.62
600.34	56804.80
600.50	56825.87
600.65	56762.67
600.81	56865.66
600.97	57057.58
601.12	57088.01
601.28	56900.76
601.44	56832.89
601.59	56830.55
601.75	56786.08
601.91	57020.13
602.06	56540.32
602.22	56921.83
602.37	56601.18
602.53	56718.20
602.69	56903.10
602.84	56781.40
603.00	56968.64
603.16	56884.38
603.31	56912.47
603.47	56753.31
603.62	56875.02
603.78	56662.03
603.94	56638.62
604.09	56919.49
604.25	56725.22
604.40	56584.79
604.56	56708.84
604.71	57057.58
604.87	56875.02
605.03	56816.50
605.18	56727.56
605.34	56636.28
605.49	56760.33
605.65	56783.74
605.80	56718.20
605.96	56559.05
606.12	56669.05
606.27	56783.74
606.43	56507.55
606.58	56823.53
606.74	56947.57
606.89	56589.47
607.05	56837.57
607.20	56727.56
607.36	56652.67
607.51	56603.52
607.67	56357.76
607.82	56615.22
607.98	56570.75
608.13	56699.48
608.29	56755.65
608.44	56645.65
608.60	56582.45
608.75	56722.88
608.91	56786.08
609.06	56186.90
609.22	56591.81
609.37	56303.93
609.53	56306.27
609.68	56322.65
609.84	56566.07
609.99	56184.56
610.15	56109.66
610.30	56233.71
610.46	56303.93
610.61	56568.41
610.76	56362.44
610.92	56528.62
611.07	56329.67
611.23	56240.73
611.38	56559.05
611.54	56205.62
611.69	56315.63
611.84	56179.88
612.00	56189.24
612.15	56247.75
612.31	56287.54
612.46	56210.31
612.62	56367.12
612.77	56343.72
612.92	56680.75
613.08	56294.56
613.23	56385.85
613.39	56207.97
613.54	56168.18
613.69	56090.94
613.85	56334.35
614.00	55976.25
614.15	56329.67
614.31	56224.35
614.46	56364.78
614.62	56186.90
614.77	56163.50
614.92	56104.98
615.08	56039.45
615.23	56193.92
615.38	56158.81
615.54	55852.20
615.69	55891.99
615.84	55704.75
616.00	56231.37
616.15	55849.86
616.30	55807.73
616.46	55861.57
616.61	55948.17
616.76	56182.22
616.92	55554.96
617.07	55952.85
617.22	55870.93
617.37	55676.66
617.53	55922.42
617.68	55746.88
617.83	55704.75
617.99	55683.69
618.14	55927.10
618.29	55538.57
618.45	55618.15
618.60	55880.29
618.75	55880.29
618.90	55945.83
619.06	55554.96
619.21	55786.67
619.36	55662.62
619.51	55395.80
619.67	55388.78
619.82	55217.92
619.97	55386.44
620.12	55480.06
620.28	55147.70
620.43	55477.72
620.58	55611.13
620.73	55695.39
620.89	55405.16
621.04	55496.44
621.19	55543.25
621.34	55402.82
621.49	55508.14
621.65	55337.29
621.80	55512.83
621.95	55145.36
622.10	55306.86
622.25	55311.54
622.41	55470.70
622.56	55208.56
622.71	55487.08
622.86	55002.59
623.01	55398.14
623.16	55201.53
623.32	55140.68
623.47	55264.73
623.62	55037.70
623.77	55498.78
623.92	55044.72
624.07	54979.18
624.23	55189.83
624.38	55285.79
624.53	55040.04
624.68	55068.12
624.83	55128.98
624.98	55271.75
625.13	54850.45
625.29	55187.49
625.44	55201.53
625.59	54831.73
625.74	54415.11
625.89	54651.51
626.04	54625.76
626.19	54712.36
626.34	54515.76
626.49	54855.14
626.65	54548.53
626.80	54801.30
626.95	54602.36
627.10	54578.95
627.25	54611.72
627.40	54791.94
627.55	54541.50
627.70	54478.31
627.85	54749.81
628.00	54284.04
628.15	54471.29
628.30	54504.06
628.45	54604.70
628.60	54363.62
628.76	54810.67
628.91	54817.69
629.06	54794.28
629.21	54609.38
629.36	54401.07
629.51	54312.13
629.66	54197.44
629.81	54204.47
629.96	54110.85
630.11	54459.58
630.26	54326.17
630.41	54038.29
630.56	53916.58
630.71	54195.10
630.86	54204.47
631.01	54129.57
631.16	53977.43
631.31	54150.63
631.46	53986.80
631.61	54209.15
631.76	54419.80
631.91	53968.07
632.06	54017.22
632.21	53736.36
632.36	53748.06
632.51	53900.20
632.66	53783.17
632.81	53565.50
632.96	54157.66
633.10	53736.36
633.25	54260.64
633.40	53930.62
633.55	53680.19
633.70	53703.59
633.85	53719.98
634.00	53427.41
634.15	53687.21
634.30	53425.07
634.45	53904.88
634.60	53813.60
634.75	53815.94
634.90	53715.29
635.05	53647.42
635.19	53392.30
635.34	54101.48
635.49	53584.22
635.64	53483.58
635.79	53474.22
635.94	53326.77
636.09	53380.60
636.24	53139.52
636.39	53230.80
636.53	53380.60
636.68	53106.76
636.83	53305.70
636.98	53509.33
637.13	53373.58
637.28	53436.77
637.43	53364.21
637.57	53511.67
637.72	53188.67
637.87	53408.68
638.02	53181.65
638.17	53294.00
638.32	53027.18
638.46	52896.11
638.61	52786.10
638.76	52528.64
638.91	52926.53
639.06	53099.73
639.20	53076.33
639.35	53127.82
639.50	52961.64
639.65	53286.98
639.80	52739.29
639.94	53233.14
640.09	52622.26
640.24	52879.72
640.39	52758.02
640.54	52875.04
640.68	52851.64
640.83	52685.46
640.98	52399.91
641.13	51964.57
641.27	52559.07
641.42	52325.02
641.57	52671.42
641.72	52652.69
641.86	52498.22
642.01	52327.36
642.16	52432.68
642.31	52552.05
642.45	52554.39
642.60	52079.26
642.75	52226.71
642.90	52378.85
643.04	52287.57
643.19	51992.66
643.34	52336.72
643.48	52411.62
643.63	52317.99
643.78	52444.38
643.93	52432.68
644.07	52341.40
644.22	52364.81
644.37	52051.17
644.51	52390.55
644.66	52308.63
644.81	52020.75
644.95	52226.71
645.10	51810.10
645.25	52016.07
645.39	52140.11
645.54	51751.59
645.69	52128.41
645.83	52002.02
645.98	51913.08
646.13	52172.88
646.27	52123.73
646.42	51985.64
646.57	52060.54
646.71	51943.51
646.86	51966.91
647.00	51578.39
647.15	51557.32
647.30	51587.75
647.44	51440.29
647.59	51744.56
647.74	51463.70
647.88	51608.81
648.03	51800.74
648.17	51760.95
648.32	51889.68
648.47	51929.47
648.61	51323.27
648.76	51613.49
648.90	51622.86
649.05	51529.23
649.20	51299.86
649.34	51505.83
649.49	51320.93
649.63	51239.01
649.78	51452.00
649.92	51091.55
650.07	51587.75
650.21	51098.58
650.36	51578.39
650.51	51468.38
650.65	51449.66
650.80	51377.10
650.94	51311.56
651.09	51309.22
651.23	51290.50
651.38	50986.23
651.52	51213.26
651.67	51260.07
651.81	50878.57
651.96	50855.16
652.10	50763.88
652.25	51168.79
652.39	51271.78
652.54	51456.68
652.68	51157.09
652.83	51037.72
652.97	51306.88
653.12	50761.54
653.26	50803.67
653.41	50841.12
653.55	50717.07
653.70	50401.10
653.84	50810.69
653.99	50450.25
654.13	50546.21
654.27	50665.58
654.42	50768.56
654.56	50745.15
654.71	50595.36
654.85	50787.28
655.00	51061.13
655.14	50787.28
655.29	50384.71
655.43	50459.61
655.57	50358.97
655.72	50064.06
655.86	50375.35
656.01	50167.04
656.15	49860.43
656.30	49984.48
656.44	50131.93
656.58	50007.89
656.73	50099.17
656.87	49902.56
657.01	50153.00
657.16	50527.48
657.30	50115.55
657.45	50377.69
657.59	50234.92
657.73	49886.18
657.88	50103.85
658.02	49738.72
658.16	50148.32
658.31	49509.35
658.45	50014.91
658.60	49284.66
658.74	49633.40
658.88	49874.48
659.03	49352.54
659.17	49588.93
659.31	49272.96
659.46	49507.01
659.60	49586.59
659.74	49722.34
659.89	49666.17
660.03	49476.58
660.17	49813.62
660.32	49324.45
660.46	49223.81
660.60	48980.39
660.74	49179.34
660.89	48956.99
661.03	48727.61
661.17	48669.10
661.32	49006.14
661.46	48783.79
661.60	48669.10
661.74	48980.39
661.89	48832.94
662.03	48643.35
662.17	48872.73
662.31	48727.61
662.46	48821.23
662.60	48453.77
662.74	48395.26
662.88	48191.63
663.03	48037.16
663.17	47770.33
663.31	47349.04
663.45	47770.33
663.60	48067.58
663.74	48044.18
663.88	47997.37
664.02	48133.12
664.17	48252.48
664.31	48186.95
664.45	48098.01
664.59	48161.20
664.73	47899.06
664.88	47452.02
665.02	47070.51
665.16	47093.92
665.30	47505.85
665.44	47271.80
665.59	46674.96
665.73	47103.28
665.87	47105.62
666.01	47107.96
666.15	47503.51
666.29	47091.58
666.44	47634.58
666.58	46866.89
666.72	46834.12
666.86	47178.18
667.00	46899.65
667.14	46941.78
667.28	46679.64
667.43	46497.08
667.57	46644.54
667.71	46703.05
667.85	46305.16
667.99	46225.58
668.13	46513.47
668.27	46141.32
668.41	45993.87
668.56	46127.28
668.70	46066.42
668.84	46171.75
668.98	46050.04
669.12	46157.70
669.26	45832.37
669.40	46003.23
669.54	45820.67
669.68	45933.01
669.82	45656.83
669.96	45076.38
670.10	45076.38
670.25	45251.92
670.39	44699.55
670.53	45560.87
670.67	44917.22
670.81	45532.78
670.95	45422.78
671.09	44832.96
671.23	45151.27
671.37	45219.15
671.51	45254.26
671.65	45111.49
671.79	44680.83
671.93	44446.77
672.07	44748.70
672.21	44289.96
672.35	43922.49
672.49	44339.11
672.63	44184.63
672.77	44004.41
672.91	43999.73
673.05	43924.83
673.19	44004.41
673.33	43941.22
673.47	43990.37
673.61	43716.53
673.75	43929.51
673.89	43899.09
674.03	43515.24
674.17	43732.91
674.31	43660.35
674.45	43033.09
674.59	43119.69
674.73	42962.87
674.87	43093.94
675.01	42836.48
675.15	42649.24
675.29	42492.43
675.43	42583.71
675.56	42515.83
675.70	42777.97
675.84	42344.97
675.98	40919.59
676.12	42199.86
676.26	41984.53
676.40	42665.63
676.54	42445.62
676.68	41996.23
676.82	40575.53
676.96	40804.90
677.10	41146.62
677.23	41345.56
677.37	40842.35
677.51	40596.59
677.65	40910.22
677.79	40629.36
677.93	40692.55
678.07	40971.08
678.21	40198.70
678.34	40568.51
678.48	40067.63
678.62	40367.22
678.76	39938.90
678.90	39889.75
679.04	40109.76
679.18	40100.40
679.31	39070.56
679.45	39173.55
679.59	38990.98
679.73	39068.22
679.87	39122.05
680.00	38806.08
680.14	38934.81
680.28	38778.00
680.42	38511.17
680.56	38518.20
680.70	38328.61
680.83	38890.34
680.97	38576.71
681.11	38625.86
681.25	37916.68
681.39	38574.37
681.52	38127.33
681.66	38209.25
681.80	37584.32
681.94	36886.84
682.07	37097.49
682.21	36994.51
682.35	37364.31
682.49	37090.47
682.62	36786.20
682.76	36844.71
682.90	36715.98
683.04	36711.30
683.17	36463.21
683.31	36336.82
683.45	36676.19
683.59	36552.15
683.72	35887.43
683.86	35845.30
684.00	35477.84
684.13	35639.34
684.27	35456.78
684.41	35583.16
684.55	35225.06
684.68	34927.81
684.82	35077.61
684.96	35072.93
685.09	35002.71
685.23	34939.52
685.37	34787.38
685.50	34836.53
685.64	34878.66
685.78	34448.00
685.91	34024.37
686.05	34689.08
686.19	33713.08
686.32	33968.19
686.46	33811.38
686.60	33628.82
686.73	34305.23
686.87	33560.94
687.01	33312.84
687.14	32809.63
687.28	33020.28
687.42	33216.88
687.55	32540.47
687.69	32814.31
687.82	32465.57
687.96	32629.41
688.10	32678.56
688.23	32458.55
688.37	32907.93
688.50	32727.71
688.64	32233.86
688.78	32498.34
688.91	31969.38
689.05	31637.02
689.18	31377.22
689.32	31049.55
689.46	30918.48
689.59	30892.73
689.73	31395.95
689.86	31030.82
690.00	30532.29
690.13	30583.78
690.27	30499.52
690.41	30579.10
690.54	30529.95
690.68	30333.34
690.81	30490.16
690.95	30455.05
691.08	30274.83
691.22	30277.17
691.35	30272.49
691.49	29851.19
691.62	29986.94
691.76	29364.36
691.89	29390.11
692.03	28971.15
692.16	28914.98
692.30	29127.97
692.43	28804.97
692.57	28861.15
692.70	28512.41
692.84	28886.89
692.97	28690.29
693.11	28280.69
693.24	28325.16
693.38	28112.17
693.51	28201.11
693.65	28308.78
693.78	28299.42
693.92	28280.69
694.05	28072.39
694.19	27311.71
694.32	27449.80
694.45	27468.53
694.59	27330.44
694.72	27033.19
694.86	27124.47
694.99	26672.74
695.13	26696.15
695.26	26845.94
695.39	26529.97
695.53	27122.13
695.66	26764.03
695.80	26864.67
695.93	26572.10
696.07	26197.62
696.20	26424.65
696.33	25933.14
696.47	25701.42
696.60	26251.45
696.73	25380.77
696.87	25696.74
697.00	25525.88
697.14	25057.78
697.27	24795.64
697.40	25127.99
697.54	24940.75
697.67	24687.97
697.80	24549.88
697.94	24280.72
698.07	24353.27
698.21	24280.72
698.34	24369.66
698.47	24547.54
698.61	24517.11
698.74	24395.40
698.87	24400.08
699.01	24339.23
699.14	23868.78
699.27	23831.33
699.40	23576.22
699.54	23316.42
699.67	23180.67
699.80	23028.53
699.94	22927.89
700.07	23068.32
700.20	23129.17
700.34	22782.77
700.47	22609.58
700.60	22614.26
700.73	22574.47
700.87	22331.05
701.00	22391.91
701.13	22326.37
701.26	22277.22
701.40	22244.45
701.53	22553.40
701.66	22162.53
701.79	21839.54
701.93	21804.43
702.06	21273.13
702.19	21509.52
702.32	21415.90
702.46	21296.53
702.59	21142.06
702.72	20940.77
702.85	21186.53
702.99	21022.69
703.12	20645.87
703.25	20936.09
703.38	20933.75
703.51	20465.64
703.65	20594.37
703.78	20334.57
703.91	20477.35
704.04	20278.40
704.17	20112.22
704.31	19908.60
704.44	20074.77
704.57	19957.75
704.70	19726.04
704.83	19524.75
704.96	19477.94
705.10	19229.84
705.23	18988.77
>>>>>End Processed Spectral Data<<<<<
