SpectraSuite Data File
++++++++++++++++++++++++++++++++++++
Date: Fri Oct 18 13:55:08 GMT-05:00 2013
User: bianchi
Dark Spectrum Present: No
Reference Spectrum Present: No
Number of Sampled Component Spectra: 1
Spectrometers: USB2+H05261
Integration Time (usec): 100000 (USB2+H05261)
Spectra Averaged: 1 (USB2+H05261)
Boxcar Smoothing: 0 (USB2+H05261)
Correct for Electrical Dark: No (USB2+H05261)
Strobe/Lamp Enabled: No (USB2+H05261)
Correct for Detector Non-linearity: No (USB2+H05261)
Correct for Stray Light: No (USB2+H05261)
Number of Pixels in Processed Spectrum: 2048
>>>>>Begin Processed Spectral Data<<<<<
365.73	0.00
365.92	0.00
366.12	0.00
366.32	0.00
366.52	0.00
366.72	0.00
366.91	0.00
367.11	0.00
367.31	0.00
367.51	0.00
367.70	0.00
367.90	0.00
368.10	0.00
368.30	0.00
368.49	0.00
368.69	0.00
368.89	0.00
369.09	0.00
369.28	0.00
369.48	0.00
369.68	0.00
369.87	0.00
370.07	0.00
370.27	0.00
370.47	21.06
370.66	351.08
370.86	266.82
371.06	334.70
371.25	395.55
371.45	304.27
371.65	346.40
371.84	297.25
372.04	287.89
372.24	322.99
372.44	388.53
372.63	397.89
372.83	411.93
373.03	383.85
373.22	327.68
373.42	442.36
373.62	465.77
373.81	533.64
374.01	489.17
374.21	484.49
374.40	500.87
374.60	564.07
374.79	447.04
374.99	582.79
375.19	477.47
375.38	561.73
375.58	440.02
375.78	491.51
375.97	554.71
376.17	568.75
376.37	503.22
376.56	601.52
376.76	557.05
376.95	517.26
377.15	596.84
377.35	582.79
377.54	538.32
377.74	587.47
377.93	533.64
378.13	641.31
378.33	599.18
378.52	634.29
378.72	561.73
378.91	566.41
379.11	615.56
379.31	603.86
379.50	535.98
379.70	608.54
379.89	685.78
380.09	568.75
380.28	622.58
380.48	627.26
380.68	615.56
380.87	660.03
381.07	727.91
381.26	753.65
381.46	627.26
381.65	779.40
381.85	720.88
382.04	737.27
382.24	725.57
382.43	812.17
382.63	688.12
382.83	746.63
383.02	767.70
383.22	821.53
383.41	734.93
383.61	725.57
383.80	819.19
384.00	716.20
384.19	805.14
384.39	741.95
384.58	767.70
384.78	788.76
384.97	807.48
385.17	905.79
385.36	830.89
385.56	814.51
385.75	774.72
385.95	788.76
386.14	826.21
386.34	737.27
386.53	877.70
386.72	786.42
386.92	847.27
387.11	851.96
387.31	910.47
387.50	889.40
387.70	891.74
387.89	943.24
388.09	884.72
388.28	936.21
388.48	887.06
388.67	957.28
388.86	999.41
389.06	910.47
389.25	926.85
389.45	905.79
389.64	938.55
389.84	950.26
390.03	964.30
390.22	999.41
390.42	1015.79
390.61	966.64
390.81	968.98
391.00	968.98
391.19	1083.67
391.39	1060.26
391.58	1153.88
391.78	1111.75
391.97	1207.72
392.16	1123.46
392.36	1144.52
392.55	1205.38
392.75	1196.01
392.94	1090.69
393.13	1270.91
393.33	1240.48
393.52	1200.69
393.71	1268.57
393.91	1193.67
394.10	1071.97
394.29	1139.84
394.49	1256.87
394.68	1205.38
394.88	1221.76
395.07	1327.08
395.26	1226.44
395.46	1313.04
395.65	1291.98
395.84	1322.40
396.04	1387.94
396.23	1378.58
396.42	1308.36
396.62	1362.19
396.81	1263.89
397.00	1348.15
397.19	1320.06
397.39	1413.68
397.58	1448.79
397.77	1359.85
397.97	1495.60
398.16	1544.75
398.35	1401.98
398.55	1535.39
398.74	1490.92
398.93	1650.08
399.12	1392.62
399.32	1401.98
399.51	1483.90
399.70	1664.12
399.90	1519.01
400.09	1614.97
400.28	1636.03
400.47	1572.84
400.67	1708.59
400.86	1668.80
401.05	1617.31
401.24	1701.57
401.44	1654.76
401.63	1664.12
401.82	1811.57
402.01	1664.12
402.21	1668.80
402.40	1703.91
402.59	1806.89
402.78	1788.17
402.97	1771.79
403.17	1853.70
403.36	1809.23
403.55	1790.51
403.74	1867.75
403.93	1930.94
404.13	2024.56
404.32	1963.71
404.51	1961.37
404.70	2080.74
404.89	2017.54
405.09	1980.09
405.28	1973.07
405.47	2015.20
405.66	2127.55
405.85	2132.23
406.05	2129.89
406.24	2001.16
406.43	2141.59
406.62	2272.66
406.81	2188.40
407.00	2115.84
407.20	2167.34
407.39	2132.23
407.58	2340.54
407.77	2305.43
407.96	2298.41
408.15	2389.69
408.34	2342.88
408.54	2450.54
408.73	2448.20
408.92	2457.56
409.11	2370.96
409.30	2427.14
409.49	2455.22
409.68	2415.43
409.87	2560.55
410.07	2499.69
410.26	2588.63
410.45	2656.51
410.64	2602.68
410.83	2656.51
411.02	2724.38
411.21	2722.04
411.40	2761.83
411.59	2689.28
411.78	2818.00
411.98	2782.90
412.17	2808.64
412.36	2750.13
412.55	2942.05
412.74	2960.78
412.93	2998.23
413.12	2977.16
413.31	3164.40
413.50	3169.09
413.69	3187.81
413.88	3269.73
414.07	3274.41
414.26	3255.69
414.45	3157.38
414.64	3218.24
414.83	3351.65
415.02	3487.40
415.22	3400.80
415.41	3496.76
415.60	3471.01
415.79	3517.83
415.98	3548.25
416.17	3588.04
416.36	3538.89
416.55	3559.95
416.74	3679.32
416.93	3658.26
417.12	3660.60
417.31	3623.15
417.50	3756.56
417.69	3953.16
417.88	3864.22
418.07	3770.60
418.26	3866.56
418.45	3831.46
418.64	3995.29
418.83	3920.40
419.02	3967.21
419.21	3999.98
419.39	4142.75
419.58	4042.11
419.77	4142.75
419.96	4187.22
420.15	4105.30
420.34	4014.02
420.53	4348.72
420.72	4341.69
420.91	4112.32
421.10	4369.78
421.29	4301.90
421.48	4283.18
421.67	4486.81
421.86	4346.37
422.05	4461.06
422.24	4402.55
422.43	4498.51
422.61	4538.30
422.80	4615.54
422.99	4458.72
423.18	4500.85
423.37	4505.53
423.56	4524.26
423.75	4503.19
423.94	4402.55
424.13	4278.50
424.32	4212.96
424.50	4566.39
424.69	4692.77
424.88	4652.98
425.07	4526.60
425.26	4451.70
425.45	4564.04
425.64	4585.11
425.83	4517.23
426.01	4683.41
426.20	4519.57
426.39	4657.67
426.58	4610.86
426.77	4753.63
426.96	4734.90
427.15	4720.86
427.33	4645.96
427.52	4720.86
427.71	4767.67
427.90	4835.55
428.09	4840.23
428.28	4882.36
428.46	4922.15
428.65	5043.85
428.84	5011.09
429.03	5107.05
429.22	5027.47
429.40	5109.39
429.59	5039.17
429.78	4983.00
429.97	4891.72
430.16	4980.66
430.34	5153.86
430.53	5390.25
430.72	5284.93
430.91	5315.36
431.10	5181.95
431.28	5418.34
431.47	5289.61
431.66	5373.87
431.85	5291.95
432.03	5549.41
432.22	5657.07
432.41	5647.71
432.60	5495.58
432.79	5392.59
432.97	5575.16
433.16	5577.50
433.35	5530.69
433.54	5511.96
433.72	5659.42
433.91	5699.20
434.10	5614.95
434.28	5607.92
434.47	5830.27
434.66	5785.80
434.85	5893.47
435.03	5809.21
435.22	5790.49
435.41	6085.39
435.59	5968.37
435.78	5916.87
435.97	6059.65
436.16	6040.92
436.34	5919.21
436.53	6164.97
436.72	6141.57
436.90	5937.94
437.09	6150.93
437.28	6024.54
437.46	6218.80
437.65	6232.85
437.84	6312.42
438.02	6221.14
438.21	6223.48
438.40	6200.08
438.58	6506.69
438.77	6586.27
438.96	6544.14
439.14	6672.87
439.33	6525.41
439.52	6743.08
439.70	6637.76
439.89	6967.77
440.08	6904.58
440.26	6913.94
440.45	6970.12
440.63	7028.63
440.82	7117.57
441.01	7012.24
441.19	6953.73
441.38	7236.94
441.57	7126.93
441.75	7150.34
441.94	7356.30
442.12	7262.68
442.31	7403.11
442.50	7693.34
442.68	7515.46
442.87	7447.58
443.05	7564.61
443.24	7737.81
443.43	7740.15
443.61	7868.88
443.80	7943.78
443.98	7492.05
444.17	7456.95
444.35	7712.07
444.54	7756.54
444.73	7581.00
444.91	7618.44
445.10	7667.60
445.28	7632.49
445.47	7651.21
445.65	7737.81
445.84	7819.73
446.02	7988.25
446.21	7716.75
446.39	7681.64
446.58	7775.26
446.77	7777.60
446.95	7784.62
447.14	7824.41
447.32	7997.61
447.51	7812.71
447.69	7941.44
447.88	8006.97
448.06	7829.09
448.25	8013.99
448.43	8093.57
448.62	7770.58
448.80	8067.83
448.99	8011.65
449.17	8095.91
449.36	8154.43
449.54	8025.70
449.73	8308.90
449.91	8372.10
450.10	8500.83
450.28	8486.78
450.46	8360.39
450.65	8540.61
450.83	8423.59
451.02	8407.20
451.20	8489.12
451.39	8472.74
451.57	8418.91
451.76	8315.92
451.94	8589.77
452.13	8613.17
452.31	8615.51
452.49	8491.46
452.68	8683.39
452.86	8638.92
453.05	8833.18
453.23	8936.17
453.42	8720.84
453.60	8690.41
453.78	8870.63
453.97	8748.92
454.15	8828.50
454.34	8760.63
454.52	8924.46
454.70	8997.02
454.89	9104.68
455.07	9130.43
455.26	9249.80
455.44	9151.49
455.62	9076.60
455.81	9280.22
455.99	9114.05
456.17	9263.84
456.36	9275.54
456.54	9362.14
456.73	9320.01
456.91	9720.24
457.09	9682.80
457.28	9820.89
457.46	9544.70
457.64	9764.72
457.83	9851.31
458.01	9673.43
458.19	9734.29
458.38	9790.46
458.56	10214.10
458.74	9987.07
458.93	9879.40
459.11	9944.94
459.29	9909.83
459.48	9856.00
459.66	10136.86
459.84	10064.30
460.03	10031.54
460.21	10064.30
460.39	10260.91
460.57	10087.71
460.76	10466.88
460.94	10347.51
461.12	10099.41
461.31	10153.24
461.49	10427.09
461.67	10176.65
461.85	10675.18
462.04	10504.32
462.22	10684.55
462.40	10640.08
462.59	10583.90
462.77	10614.33
462.95	10817.96
463.13	10810.93
463.32	10691.57
463.50	10960.73
463.68	10895.19
463.86	10930.30
464.05	10766.46
464.23	10984.13
464.41	10970.09
464.59	10785.19
464.78	11222.87
464.96	11101.16
465.14	10939.66
465.32	11201.80
465.50	11288.40
465.69	11302.45
465.87	11257.98
466.05	11143.29
466.23	11248.61
466.41	11641.82
466.60	11609.06
466.78	11269.68
466.96	11346.92
467.14	11295.43
467.32	11377.34
467.51	11616.08
467.69	11372.66
467.87	11375.00
468.05	11751.83
468.23	11485.01
468.41	11344.58
468.60	11648.85
468.78	11693.32
468.96	11522.46
469.14	11892.26
469.32	11899.28
469.50	11653.53
469.69	11887.58
469.87	11969.50
470.05	12018.65
470.23	11913.33
470.41	12107.59
470.59	12182.49
470.77	12037.38
470.95	12196.53
471.14	12248.02
471.32	12348.67
471.50	12573.36
471.68	12643.57
471.86	12615.49
472.04	12779.32
472.22	12807.41
472.40	12676.34
472.58	12732.51
472.77	13013.38
472.95	13018.06
473.13	13418.29
473.31	13078.91
473.49	13071.89
473.67	12952.52
473.85	13256.79
474.03	13540.00
474.21	13575.11
474.39	13757.67
474.57	13731.92
474.75	13706.18
474.93	14024.49
475.12	13907.46
475.30	14111.09
475.48	13891.08
475.66	14050.24
475.84	13867.67
476.02	14190.67
476.20	14492.60
476.38	14565.15
476.56	14801.55
476.74	14707.93
476.92	14473.87
477.10	14719.63
477.28	15014.54
477.46	14752.40
477.64	14824.95
477.82	15145.61
478.00	15552.86
478.18	15618.39
478.36	15665.21
478.54	15728.40
478.72	16196.51
478.90	15712.02
479.08	16205.87
479.26	16360.34
479.44	16102.89
479.62	16549.93
479.80	16688.02
479.98	16819.09
480.16	17060.16
480.34	16833.13
480.52	17069.53
480.70	17322.30
480.88	16945.48
481.06	17268.47
481.24	17294.22
481.41	17476.78
481.59	17923.82
481.77	18155.54
481.95	18045.53
482.13	18427.04
482.31	18108.72
482.49	18651.73
482.67	18441.08
482.85	18937.27
483.03	19037.92
483.21	19358.57
483.39	19477.94
483.57	19332.82
483.74	19489.64
483.92	19875.83
484.10	19487.30
484.28	19997.54
484.46	20102.86
484.64	20592.03
484.82	20159.03
485.00	20725.44
485.18	20765.23
485.35	21064.82
485.53	21228.66
485.71	20891.62
485.89	21940.18
486.07	21549.31
486.25	21408.88
486.43	21963.59
486.61	21914.44
486.78	22214.02
486.96	22176.58
487.14	22569.79
487.32	22658.73
487.50	22462.12
487.68	22951.29
487.85	23293.01
488.03	23494.30
488.21	23683.88
488.39	23777.50
488.57	23962.40
488.75	24198.80
488.92	24369.66
489.10	24278.38
489.28	25060.12
489.46	24730.10
489.64	24961.81
489.81	25184.16
489.99	25404.17
490.17	25516.52
490.35	25633.55
490.53	25748.23
490.70	26183.57
490.88	25961.22
491.06	26661.04
491.24	26333.37
491.41	27082.34
491.59	27077.66
491.77	27040.21
491.95	27175.96
492.13	27683.86
492.30	27175.96
492.48	27630.02
492.66	27704.92
492.84	27864.08
493.01	28212.82
493.19	28002.17
493.37	28748.80
493.54	28964.13
493.72	28982.85
493.90	28631.77
494.08	29095.20
494.25	29797.36
494.43	29408.83
494.61	30043.12
494.79	29909.71
494.96	30015.03
495.14	29757.57
495.32	30810.81
495.49	30286.53
495.67	30780.39
495.85	30864.64
496.02	31307.01
496.20	31370.20
496.38	31068.27
496.55	31285.94
496.73	32158.96
496.91	31487.23
497.09	32254.92
497.26	32264.28
497.44	32205.77
497.62	32491.32
497.79	32929.00
497.97	32589.62
498.14	33137.30
498.32	33280.08
498.50	32837.72
498.67	33429.87
498.85	33546.90
499.03	33467.32
499.20	33778.61
499.38	33553.92
499.56	34108.63
499.73	34000.96
499.91	33982.24
500.08	34569.71
500.26	34209.27
500.44	34630.57
500.61	34672.70
500.79	34607.16
500.97	35168.89
501.14	35548.06
501.32	35363.15
501.49	35204.00
501.67	35299.96
501.84	35435.71
502.02	35791.47
502.20	36072.34
502.37	36009.14
502.55	35962.33
502.72	36390.65
502.90	36453.84
503.07	36278.30
503.25	36615.34
503.43	35978.72
503.60	36776.84
503.78	36889.18
503.95	36701.94
504.13	37064.72
504.30	37368.99
504.48	37139.62
504.65	36938.33
504.83	37684.97
505.01	38075.84
505.18	37773.91
505.36	38319.25
505.53	37432.19
505.71	38419.89
505.88	38117.96
506.06	38019.66
506.23	38438.62
506.41	38323.93
506.58	38742.89
506.76	38976.94
506.93	38869.28
507.11	38796.72
507.28	39035.45
507.46	39070.56
507.63	39372.49
507.81	39627.61
507.98	39999.76
508.16	39700.17
508.33	39447.39
508.50	39732.93
508.68	40032.52
508.85	40610.64
509.03	40313.39
509.20	40308.71
509.38	40730.00
509.55	40446.80
509.73	40547.44
509.90	41163.00
510.08	41050.66
510.25	40683.19
510.42	41268.33
510.60	41584.30
510.77	41565.57
510.95	41577.28
511.12	41502.38
511.30	41139.60
511.47	41816.01
511.64	41961.12
511.82	42141.35
511.99	41488.34
512.17	42326.25
512.34	42305.18
512.51	42127.30
512.69	42597.75
512.86	42419.87
513.04	42895.00
513.21	43129.05
513.38	42859.89
513.56	42810.74
513.73	43103.31
513.90	42955.85
514.08	43140.75
514.25	43166.50
514.43	43749.29
514.60	43702.48
514.77	43732.91
514.95	43784.40
515.12	43515.24
515.29	43384.17
515.47	43782.06
515.64	44184.63
515.81	44369.54
515.99	45052.97
516.16	44793.17
516.33	44641.04
516.51	45106.80
516.68	44414.01
516.85	44481.88
517.03	44872.75
517.20	44760.40
517.37	45221.49
517.54	45291.71
517.72	45198.09
517.89	44832.96
518.06	45272.98
518.24	45504.70
518.41	45184.04
518.58	45373.63
518.75	45521.08
518.93	45867.48
519.10	45755.13
519.27	46319.20
519.45	45418.10
519.62	46225.58
519.79	46213.88
519.96	46223.24
520.14	46485.38
520.31	46031.32
520.48	46904.34
520.65	46527.51
520.83	46911.36
521.00	46649.22
521.17	47122.01
521.34	46717.09
521.52	46817.74
521.69	47159.45
521.86	47325.63
522.03	47578.41
522.20	47416.91
522.38	47480.11
522.55	47454.36
522.72	47547.98
522.89	47512.88
523.07	47892.04
523.24	47402.87
523.41	47899.06
523.58	47756.29
523.75	48128.44
523.92	47793.74
524.10	48051.20
524.27	48505.26
524.44	48493.56
524.61	48299.30
524.78	48875.07
524.96	48299.30
525.13	48458.45
525.30	48430.36
525.47	48821.23
525.64	48659.74
525.81	48999.12
525.98	49394.67
526.16	48945.28
526.33	49207.42
526.50	49242.53
526.67	49193.38
526.84	48788.47
527.01	49261.26
527.18	49172.31
527.36	49734.04
527.53	49694.25
527.70	49820.64
527.87	49984.48
528.04	49312.75
528.21	49745.75
528.38	49610.00
528.55	49916.61
528.72	49387.64
528.89	49801.92
529.07	49907.24
529.24	49584.25
529.41	50328.54
529.58	49869.79
529.75	50021.93
529.92	50038.31
530.09	50064.06
530.26	50450.25
530.43	50520.46
530.60	50213.85
530.77	50391.73
530.94	50405.78
531.11	50443.23
531.28	50490.04
531.46	50396.42
531.63	50911.33
531.80	50770.90
531.97	51065.81
532.14	51133.68
532.31	50775.58
532.48	51063.47
532.65	51173.47
532.82	51229.65
532.99	51353.69
533.16	50937.08
533.33	51377.10
533.50	51381.78
533.67	51489.45
533.84	51084.53
534.01	51370.08
534.18	51117.30
534.35	51573.70
534.52	51384.12
534.69	51728.18
534.86	51796.06
535.03	51639.24
535.20	51728.18
535.37	51749.24
535.54	51885.00
535.71	51667.33
535.88	51648.60
536.05	51866.27
536.22	52301.61
536.38	52177.56
536.55	52144.80
536.72	52250.12
536.89	52025.43
537.06	51985.64
537.23	52404.59
537.40	52053.51
537.57	52196.29
537.74	52044.15
537.91	52753.33
538.08	52666.73
538.25	52575.45
538.42	52652.69
538.59	52612.90
538.75	52437.36
538.92	52538.01
539.09	52706.52
539.26	52800.15
539.43	52615.24
539.60	52814.19
539.77	52956.96
539.94	52877.38
540.11	52954.62
540.28	52954.62
540.44	52987.39
540.61	52715.89
540.78	53085.69
540.95	53174.63
541.12	52884.40
541.29	53073.99
541.46	52963.98
541.62	53099.73
541.79	52966.32
541.96	52687.80
542.13	52891.43
542.30	52968.66
542.47	53415.71
542.63	53567.84
542.80	53495.28
542.97	53439.11
543.14	53701.25
543.31	53394.64
543.48	53488.26
543.64	53659.12
543.81	53914.24
543.98	53937.65
544.15	53876.79
544.32	53928.28
544.48	54162.34
544.65	53881.47
544.82	54054.67
544.99	53420.39
545.16	53937.65
545.32	53729.34
545.49	54466.61
545.66	54567.25
545.83	54443.20
546.00	54515.76
546.16	54340.22
546.33	53750.40
546.50	53841.68
546.67	53996.16
546.83	53935.30
547.00	54361.28
547.17	54450.22
547.34	54382.35
547.50	54541.50
547.67	54440.86
547.84	54377.67
548.00	54417.46
548.17	54798.96
548.34	54763.85
548.51	54600.02
548.67	54932.37
548.84	54801.30
549.01	54698.32
549.18	54946.42
549.34	54695.98
549.51	54415.11
549.68	54887.90
549.84	54738.11
550.01	54787.26
550.18	54604.70
550.34	55124.30
550.51	55110.25
550.68	55035.36
550.84	54754.49
551.01	55079.83
551.18	54665.55
551.34	54754.49
551.51	54824.71
551.68	55416.86
551.84	55091.53
552.01	55264.73
552.18	55047.06
552.34	54988.55
552.51	55231.96
552.68	54855.14
552.84	54880.88
553.01	55323.24
553.18	55136.00
553.34	55613.47
553.51	55351.33
553.67	55662.62
553.84	55583.04
554.01	55480.06
554.17	55217.92
554.34	55512.83
554.51	55440.27
554.67	55660.28
554.84	55451.97
555.00	55234.30
555.17	55571.34
555.33	55545.59
555.50	55545.59
555.67	55622.83
555.83	55655.60
556.00	55627.51
556.16	55739.86
556.33	55536.23
556.50	55505.80
556.66	55594.74
556.83	55704.75
556.99	56062.85
557.16	55994.98
557.32	56039.45
557.49	55742.20
557.65	55765.60
557.82	55657.94
557.98	55870.93
558.15	55873.27
558.32	56016.04
558.48	55763.26
558.65	56097.96
558.81	55955.19
558.98	55908.38
559.14	55920.08
559.31	55896.67
559.47	55978.59
559.64	55941.14
559.80	56065.19
559.97	55985.61
560.13	56252.44
560.30	55992.64
560.46	56212.65
560.63	56116.68
560.79	56334.35
560.96	56065.19
561.12	56030.08
561.29	55983.27
561.45	56207.97
561.61	56402.23
561.78	56378.82
561.94	56509.89
562.11	56219.67
562.27	56205.62
562.44	56362.44
562.60	56280.52
562.77	56292.22
562.93	56385.85
563.10	56652.67
563.26	55959.87
563.42	56413.93
563.59	56437.34
563.75	56465.42
563.92	56495.85
564.08	56205.62
564.24	56498.19
564.41	56219.67
564.57	56402.23
564.74	56156.47
564.90	56296.91
565.07	56310.95
565.23	56460.74
565.39	56460.74
565.56	56463.08
565.72	56523.94
565.88	56301.59
566.05	56364.78
566.21	56458.40
566.38	56449.04
566.54	56357.76
566.70	56629.26
566.87	56739.27
567.03	56346.06
567.19	56896.08
567.36	56514.58
567.52	56406.91
567.68	56619.90
567.85	56594.15
568.01	56505.21
568.17	56512.23
568.34	56549.68
568.50	56748.63
568.66	56523.94
568.83	56432.66
568.99	56456.06
569.15	56507.55
569.32	56404.57
569.48	56385.85
569.64	56442.02
569.81	56563.73
569.97	56442.02
570.13	56498.19
570.30	56676.07
570.46	56774.37
570.62	56479.47
570.78	56472.45
570.95	56552.02
571.11	56561.39
571.27	56561.39
571.43	56423.29
571.60	56664.37
571.76	56722.88
571.92	56921.83
572.09	56912.47
572.25	56757.99
572.41	56769.69
572.57	56898.42
572.74	56818.84
572.90	56804.80
573.06	56727.56
573.22	56875.02
573.38	56622.24
573.55	56842.25
573.71	57064.60
573.87	56748.63
574.03	56566.07
574.20	56851.61
574.36	56701.82
574.52	56671.39
574.68	56727.56
574.84	56456.06
575.01	56741.61
575.17	56582.45
575.33	56718.20
575.49	56774.37
575.65	57029.49
575.82	56999.07
575.98	56903.10
576.14	57024.81
576.30	56804.80
576.46	56727.56
576.62	56626.92
576.79	56865.66
576.95	56582.45
577.11	56704.16
577.27	56793.10
577.43	56765.01
577.59	56793.10
577.75	56776.72
577.92	56732.25
578.08	56657.35
578.24	56467.76
578.40	56647.99
578.56	56870.34
578.72	56765.01
578.88	56889.06
579.04	57057.58
579.21	56746.29
579.37	56875.02
579.53	56978.00
579.69	56900.76
579.85	56722.88
580.01	56701.82
580.17	56743.95
580.33	56788.42
580.49	56928.85
580.65	56975.66
580.82	57006.09
580.98	56959.28
581.14	56896.08
581.30	56945.23
581.46	56715.86
581.62	56797.78
581.78	56645.65
581.94	56788.42
582.10	56760.33
582.26	56849.27
582.42	56938.21
582.58	57113.75
582.74	56968.64
582.90	56992.04
583.06	56968.64
583.22	56804.80
583.38	56933.53
583.54	56961.62
583.70	56835.23
583.86	56994.39
584.02	56807.14
584.18	57188.65
584.34	56886.72
584.50	57102.05
584.66	56989.70
584.82	56814.16
584.98	56959.28
585.14	56807.14
585.30	56795.44
585.46	56800.12
585.62	56938.21
585.78	56926.51
585.94	56655.01
586.10	56753.31
586.26	56823.53
586.42	57102.05
586.58	57022.47
586.74	56802.46
586.90	56645.65
587.06	56863.32
587.22	56860.97
587.38	56818.84
587.54	56886.72
587.70	57340.78
587.86	57181.63
588.02	57080.98
588.18	57214.40
588.34	57102.05
588.49	56935.87
588.65	56713.52
588.81	56884.38
588.97	57015.45
589.13	56926.51
589.29	56830.55
589.45	57317.38
589.61	56966.30
589.77	57354.83
589.93	57242.48
590.08	57251.84
590.24	57162.90
590.40	56839.91
590.56	56968.64
590.72	57029.49
590.88	57095.03
591.04	57008.43
591.20	57301.00
591.35	57251.84
591.51	57478.88
591.67	57373.55
591.83	57436.75
591.99	57347.81
592.15	57228.44
592.31	57118.43
592.46	57064.60
592.62	57006.09
592.78	56860.97
592.94	57172.27
593.10	57303.34
593.26	57378.23
593.41	57141.84
593.57	57439.09
593.73	57380.57
593.89	57322.06
594.05	57017.79
594.20	57080.98
594.36	57158.22
594.52	57097.37
594.68	57090.35
594.84	57095.03
594.99	57291.63
595.15	57460.15
595.31	57387.60
595.47	57235.46
595.62	57181.63
595.78	57286.95
595.94	57436.75
596.10	57293.97
596.25	57174.61
596.41	57118.43
596.57	56924.17
596.73	57155.88
596.88	57289.29
597.04	57265.89
597.20	57467.17
597.36	57518.67
597.51	57635.69
597.67	57237.80
597.83	57109.07
597.99	57429.72
598.14	57216.74
598.30	57190.99
598.46	57116.09
598.61	57205.03
598.77	57148.86
598.93	57137.16
599.09	57083.33
599.24	57272.91
599.40	57291.63
599.56	57366.53
599.71	57308.02
599.87	57305.68
600.03	57371.21
600.18	57361.85
600.34	57165.24
600.50	57041.20
600.65	57167.58
600.81	57350.15
600.97	57478.88
601.12	57331.42
601.28	57499.94
601.44	57441.43
601.59	57380.57
601.75	57069.28
601.91	57392.28
602.06	56931.19
602.22	57193.33
602.37	57286.95
602.53	57017.79
602.69	57460.15
602.84	57263.55
603.00	57441.43
603.16	57268.23
603.31	57298.65
603.47	57202.69
603.62	57364.19
603.78	57200.35
603.94	57366.53
604.09	57169.93
604.25	57069.28
604.40	57118.43
604.56	57272.91
604.71	57497.60
604.87	56884.38
605.03	57265.89
605.18	57399.30
605.34	57183.97
605.49	56973.32
605.65	57148.86
605.80	56823.53
605.96	57085.67
606.12	57102.05
606.27	57116.09
606.43	57242.48
606.58	57219.08
606.74	57151.20
606.89	57237.80
607.05	57209.71
607.20	57160.56
607.36	57226.10
607.51	57064.60
607.67	56952.26
607.82	57038.86
607.98	56938.21
608.13	56795.44
608.29	57022.47
608.44	56846.93
608.60	57130.14
608.75	57251.84
608.91	57029.49
609.06	56870.34
609.22	56994.39
609.37	56774.37
609.53	56994.39
609.68	56924.17
609.84	56706.50
609.99	56774.37
610.15	56687.78
610.30	57057.58
610.46	57034.17
610.61	56837.57
610.76	57080.98
610.92	56961.62
611.07	56816.50
611.23	56753.31
611.38	56856.29
611.54	56753.31
611.69	56692.46
611.84	56830.55
612.00	56481.81
612.15	56512.23
612.31	56903.10
612.46	56640.96
612.62	56802.46
612.77	56704.16
612.92	56846.93
613.08	56837.57
613.23	56821.19
613.39	56683.09
613.54	56699.48
613.69	56449.04
613.85	56484.15
614.00	56521.60
614.15	56669.05
614.31	56519.26
614.46	56786.08
614.62	56718.20
614.77	56645.65
614.92	56835.23
615.08	56432.66
615.23	56596.49
615.38	56671.39
615.54	56577.77
615.69	56196.26
615.84	56294.56
616.00	56573.09
616.15	56339.04
616.30	56633.94
616.46	56350.74
616.61	56395.21
616.76	56795.44
616.92	56369.46
617.07	56287.54
617.22	56219.67
617.37	56158.81
617.53	56360.10
617.68	56425.64
617.83	56104.98
617.99	56149.45
618.14	56200.94
618.29	56257.12
618.45	56247.75
618.60	56067.53
618.75	56240.73
618.90	56339.04
619.06	56083.92
619.21	56154.13
619.36	56163.50
619.51	56207.97
619.67	55842.84
619.82	55777.31
619.97	55927.10
620.12	55964.55
620.28	55583.04
620.43	55847.52
620.58	56011.36
620.73	56053.49
620.89	55955.19
621.04	56102.64
621.19	55828.80
621.34	56013.70
621.49	55828.80
621.65	55915.40
621.80	55948.17
621.95	55674.32
622.10	56154.13
622.25	55765.60
622.41	55917.74
622.56	55737.52
622.71	55849.86
622.86	55781.99
623.01	55964.55
623.16	55679.00
623.32	55517.51
623.47	55646.24
623.62	55365.37
623.77	55522.19
623.92	55547.93
624.07	55510.49
624.23	55569.00
624.38	55641.56
624.53	55653.26
624.68	55725.81
624.83	55814.76
624.98	55571.34
625.13	55414.52
625.29	55430.91
625.44	55477.72
625.59	55292.82
625.74	55320.90
625.89	55400.48
626.04	55117.28
626.19	55072.81
626.34	55255.37
626.49	55281.11
626.65	55089.19
626.80	55220.26
626.95	55107.91
627.10	55274.09
627.25	55112.59
627.40	55079.83
627.55	54937.05
627.70	54988.55
627.85	55037.70
628.00	54658.53
628.15	54946.42
628.30	54691.30
628.45	55009.61
628.60	54988.55
628.76	54918.33
628.91	54962.80
629.06	54878.54
629.21	54955.78
629.36	54899.61
629.51	54855.14
629.66	54801.30
629.81	54857.48
629.96	54581.29
630.11	54532.14
630.26	54604.70
630.41	54639.81
630.56	54569.59
630.71	54651.51
630.86	54480.65
631.01	54759.17
631.16	54852.80
631.31	54681.94
631.46	54639.81
631.61	54787.26
631.76	54260.64
631.91	54356.60
632.06	54452.56
632.21	54319.15
632.36	54398.73
632.51	54152.97
632.66	54522.78
632.81	54232.55
632.96	54707.68
633.10	54408.09
633.25	54429.16
633.40	54267.66
633.55	54494.69
633.70	54305.11
633.85	54115.53
634.00	54082.76
634.15	54092.12
634.30	54145.95
634.45	54094.46
634.60	54468.95
634.75	54188.08
634.90	54323.83
635.05	54213.83
635.19	54047.65
635.34	54054.67
635.49	54232.55
635.64	54241.92
635.79	54129.57
635.94	53729.34
636.09	53738.70
636.24	53822.96
636.39	54017.22
636.53	53738.70
636.68	53787.85
636.83	53848.71
636.98	54073.40
637.13	53783.17
637.28	53710.61
637.43	53766.79
637.57	53801.89
637.72	53443.79
637.87	53439.11
638.02	53628.69
638.17	53546.78
638.32	53631.04
638.46	53188.67
638.61	53717.64
638.76	53113.78
638.91	53535.07
639.06	53275.27
639.20	53329.11
639.35	53518.69
639.50	53237.83
639.65	53511.67
639.80	53764.45
639.94	53600.61
640.09	53303.36
640.24	53296.34
640.39	53322.08
640.54	53036.54
640.68	52947.60
640.83	53251.87
640.98	53214.42
641.13	52893.77
641.27	53399.32
641.42	52837.59
641.57	53027.18
641.72	53085.69
641.86	53003.77
642.01	52853.98
642.16	53134.84
642.31	53151.23
642.45	52933.56
642.60	52758.02
642.75	52561.41
642.90	52772.06
643.04	52547.37
643.19	52924.19
643.34	52924.19
643.48	52495.88
643.63	52900.79
643.78	52963.98
643.93	53024.84
644.07	53052.92
644.22	53331.45
644.37	52793.12
644.51	52853.98
644.66	52851.64
644.81	52793.12
644.95	52554.39
645.10	52467.79
645.25	52418.64
645.39	52486.51
645.54	52685.46
645.69	52397.57
645.83	52561.41
645.98	52491.19
646.13	52678.44
646.27	52673.76
646.42	52608.22
646.57	52533.32
646.71	52409.28
646.86	52540.35
647.00	52381.19
647.15	51924.78
647.30	52203.31
647.44	52074.58
647.59	52023.09
647.74	51934.15
647.88	52287.57
648.03	52053.51
648.17	52442.04
648.32	52420.98
648.47	52325.02
648.61	52081.60
648.76	52095.64
648.90	51906.06
649.05	51749.24
649.20	52086.28
649.34	52144.80
649.49	51849.89
649.63	52105.01
649.78	52076.92
649.92	51983.30
650.07	51887.34
650.21	52051.17
650.36	51990.32
650.51	51943.51
650.65	51971.60
650.80	52264.16
650.94	52116.71
651.09	51779.67
651.23	51908.40
651.38	51669.67
651.52	51742.22
651.67	51501.15
651.81	51519.87
651.96	51625.20
652.10	51435.61
652.25	51627.54
652.39	51774.99
652.54	51786.69
652.68	51812.44
652.83	51379.44
652.97	51793.71
653.12	51550.30
653.26	51538.60
653.41	51281.14
653.55	51377.10
653.70	51264.75
653.84	51463.70
653.99	50862.18
654.13	51100.92
654.27	51316.25
654.42	51370.08
654.56	51089.21
654.71	51552.64
654.85	51093.89
655.00	50838.78
655.14	51316.25
655.29	50981.55
655.43	50990.91
655.57	51154.75
655.72	50817.71
655.86	50801.33
656.01	50979.21
656.15	50607.06
656.30	50499.40
656.44	50705.37
656.58	50637.49
656.73	50871.54
656.87	50749.84
657.01	50848.14
657.16	50873.88
657.30	50754.52
657.45	50962.82
657.59	50803.67
657.73	50714.73
657.88	50567.27
658.02	50515.78
658.16	50230.24
658.31	50466.63
658.45	50490.04
658.60	50188.11
658.74	50087.46
658.88	50368.33
659.03	50117.89
659.17	50295.77
659.31	50307.47
659.46	50162.36
659.60	50108.53
659.74	50216.19
659.89	50459.61
660.03	50131.93
660.17	50433.86
660.32	49694.25
660.46	49755.11
660.60	49645.10
660.74	49862.77
660.89	49694.25
661.03	49570.21
661.17	49766.81
661.32	49371.26
661.46	49640.42
661.60	49261.26
661.74	49607.65
661.89	49469.56
662.03	49502.33
662.17	49546.80
662.31	49429.77
662.46	49411.05
662.60	49092.74
662.74	48872.73
662.88	48655.06
663.03	48905.49
663.17	48753.36
663.31	48722.93
663.45	48587.18
663.60	49027.20
663.74	48816.55
663.88	48734.63
664.02	49055.29
664.17	49151.25
664.31	48556.75
664.45	48725.27
664.59	48662.08
664.73	48374.19
664.88	48610.59
665.02	47910.77
665.16	47873.32
665.30	47976.30
665.44	47744.59
665.59	47559.69
665.73	47791.40
665.87	47505.85
666.01	48282.91
666.15	47770.33
666.29	48093.33
666.44	48051.20
666.58	47852.25
666.72	47416.91
666.86	47999.71
667.00	47683.73
667.14	47648.63
667.28	47636.92
667.43	47536.28
667.57	47456.70
667.71	47058.81
667.85	46717.09
667.99	47096.26
668.13	47065.83
668.27	46740.50
668.41	46761.56
668.56	46766.24
668.70	46979.23
668.84	46761.56
668.98	46452.61
669.12	46927.74
669.26	46920.72
669.40	46412.82
669.54	46466.66
669.68	46155.36
669.82	45975.14
669.96	45925.99
670.10	45893.22
670.25	45954.08
670.39	45406.39
670.53	45434.48
670.67	45778.54
670.81	45989.19
670.95	45918.97
671.09	45544.48
671.23	45801.94
671.37	45773.86
671.51	45930.67
671.65	45762.15
671.79	45497.67
671.93	45394.69
672.07	45230.85
672.21	45024.89
672.35	44804.88
672.49	44776.79
672.63	44949.99
672.77	44708.91
672.91	44727.64
673.05	44652.74
673.19	44706.57
673.33	44634.02
673.47	44612.95
673.61	44418.69
673.75	44229.10
673.89	44301.66
674.03	44062.93
674.17	44388.26
674.31	43906.11
674.45	43447.36
674.59	44027.82
674.73	43833.55
674.87	43377.15
675.01	43220.33
675.15	43086.92
675.29	43388.85
675.43	43040.11
675.56	43337.36
675.70	43126.71
675.84	43559.71
675.98	42499.45
676.12	43110.33
676.26	43215.65
676.40	43096.28
676.54	42782.65
676.68	42462.00
676.82	42122.62
676.96	42101.56
677.10	41944.74
677.23	41493.02
677.37	41820.69
677.51	41652.17
677.65	40942.99
677.79	41006.19
677.93	41385.35
678.07	41385.35
678.21	40959.38
678.34	41071.72
678.48	40802.56
678.62	41125.55
678.76	41109.17
678.90	40760.43
679.04	40563.82
679.18	40435.10
679.31	39959.97
679.45	39709.53
679.59	40053.59
679.73	39873.37
679.87	39716.55
680.00	39421.64
680.14	39330.36
680.28	39335.04
680.42	39332.70
680.56	39360.79
680.70	39328.02
680.83	38878.64
680.97	38986.30
681.11	39330.36
681.25	38967.58
681.39	39061.20
681.52	38546.28
681.66	39023.75
681.80	38239.67
681.94	38122.65
682.07	38305.21
682.21	37656.88
682.35	37942.42
682.49	37794.97
682.62	37439.21
682.76	37184.09
682.90	37275.37
683.04	37053.02
683.17	37205.16
683.31	37336.23
683.45	37497.72
683.59	36816.63
683.72	37048.34
683.86	36624.70
684.00	36608.32
684.13	36290.01
684.27	36203.41
684.41	35765.73
684.55	35845.30
684.68	35964.67
684.82	35683.81
684.96	35723.60
685.09	35576.14
685.23	35508.27
685.37	35318.68
685.50	35707.21
685.64	35587.85
685.78	34998.03
685.91	34979.31
686.05	34920.79
686.19	34700.78
686.32	34724.19
686.46	34190.55
686.60	34157.78
686.73	34618.86
686.87	34244.38
687.01	33614.77
687.14	33853.51
687.28	33495.41
687.42	33160.71
687.55	33474.34
687.69	33443.91
687.82	33354.97
687.96	33216.88
688.10	32758.14
688.23	32610.68
688.37	33024.96
688.50	32947.72
688.64	32900.91
688.78	32542.81
688.91	32444.51
689.05	32219.81
689.18	32322.80
689.32	31721.28
689.46	31964.70
689.59	31971.72
689.73	31711.92
689.86	31817.24
690.00	31646.38
690.13	31571.49
690.27	30984.01
690.41	31147.85
690.54	31056.57
690.68	30951.24
690.81	31101.04
690.95	31168.91
691.08	31084.65
691.22	30518.25
691.35	30665.70
691.49	30541.65
691.62	30202.27
691.76	30286.53
691.89	29813.74
692.03	29886.30
692.16	29748.21
692.30	29584.37
692.43	29502.45
692.57	29111.58
692.70	29069.45
692.84	29198.18
692.97	29116.26
693.11	29134.99
693.24	29048.39
693.38	28929.02
693.51	28814.34
693.65	28807.31
693.78	28793.27
693.92	28833.06
694.05	28505.38
694.19	28353.25
694.32	28116.86
694.45	27704.92
694.59	27866.42
694.72	27580.87
694.86	27484.91
694.99	27246.18
695.13	27309.37
695.26	27307.03
695.39	26614.23
695.53	27316.39
695.66	27241.50
695.80	27555.13
695.93	27208.73
696.07	26955.95
696.20	26731.26
696.33	26548.70
696.47	26639.98
696.60	26558.06
696.73	26216.34
696.87	25773.98
697.00	25575.03
697.14	25628.87
697.27	25694.40
697.40	25591.42
697.54	25483.75
697.67	24889.26
697.80	25205.23
697.94	25202.89
698.07	25022.67
698.21	24861.17
698.34	24861.17
698.47	24716.06
698.61	25057.78
698.74	24659.88
698.87	24687.97
699.01	24381.36
699.14	24821.38
699.27	24334.55
699.40	24219.86
699.54	23950.70
699.67	23363.23
699.80	23513.02
699.94	23241.52
700.07	23559.83
700.20	23063.64
700.34	23124.49
700.47	23192.37
700.60	23129.17
700.73	23159.60
700.87	22747.67
701.00	22738.30
701.13	22764.05
701.26	22923.21
701.40	22698.52
701.53	22801.50
701.66	22689.15
701.79	22221.05
701.93	21965.93
702.06	22122.74
702.19	21874.65
702.32	21832.52
702.46	21612.51
702.59	21549.31
702.72	21270.79
702.85	21193.55
702.99	21149.08
703.12	21319.94
703.25	21516.54
703.38	21181.85
703.51	20957.16
703.65	21039.08
703.78	20702.04
703.91	20751.19
704.04	20617.78
704.17	20723.10
704.31	20425.86
704.44	20315.85
704.57	20255.00
704.70	20063.07
704.83	19960.09
704.96	19695.61
705.10	19601.99
705.23	19592.62
>>>>>End Processed Spectral Data<<<<<
