SpectraSuite Data File
++++++++++++++++++++++++++++++++++++
Date: Fri Oct 18 13:55:02 GMT-05:00 2013
User: bianchi
Dark Spectrum Present: No
Reference Spectrum Present: No
Number of Sampled Component Spectra: 1
Spectrometers: USB2+H05261
Integration Time (usec): 100000 (USB2+H05261)
Spectra Averaged: 1 (USB2+H05261)
Boxcar Smoothing: 0 (USB2+H05261)
Correct for Electrical Dark: No (USB2+H05261)
Strobe/Lamp Enabled: No (USB2+H05261)
Correct for Detector Non-linearity: No (USB2+H05261)
Correct for Stray Light: No (USB2+H05261)
Number of Pixels in Processed Spectrum: 2048
>>>>>Begin Processed Spectral Data<<<<<
365.73	0.00
365.92	0.00
366.12	0.00
366.32	0.00
366.52	0.00
366.72	0.00
366.91	0.00
367.11	0.00
367.31	0.00
367.51	0.00
367.70	0.00
367.90	0.00
368.10	0.00
368.30	0.00
368.49	0.00
368.69	0.00
368.89	0.00
369.09	0.00
369.28	0.00
369.48	0.00
369.68	0.00
369.87	0.00
370.07	0.00
370.27	0.00
370.47	14.04
370.66	332.36
370.86	322.99
371.06	311.29
371.25	400.23
371.45	283.20
371.65	351.08
371.84	348.74
372.04	440.02
372.24	390.87
372.44	292.57
372.63	341.72
372.83	458.74
373.03	409.59
373.22	400.23
373.42	327.68
373.62	468.11
373.81	517.26
374.01	447.04
374.21	573.43
374.40	456.40
374.60	573.43
374.79	582.79
374.99	477.47
375.19	533.64
375.38	454.06
375.58	505.56
375.78	552.37
375.97	517.26
376.17	575.77
376.37	507.90
376.56	521.94
376.76	458.74
376.95	514.92
377.15	531.30
377.35	550.03
377.54	533.64
377.74	547.69
377.93	566.41
378.13	571.09
378.33	589.82
378.52	479.81
378.72	521.94
378.91	631.94
379.11	524.28
379.31	564.07
379.50	648.33
379.70	697.48
379.89	667.05
380.09	655.35
380.28	582.79
380.48	564.07
380.68	664.71
380.87	573.43
381.07	744.29
381.26	751.31
381.46	730.25
381.65	748.97
381.85	627.26
382.04	702.16
382.24	662.37
382.43	697.48
382.63	730.25
382.83	702.16
383.02	720.88
383.22	744.29
383.41	784.08
383.61	786.42
383.80	828.55
384.00	692.80
384.19	706.84
384.39	786.42
384.58	739.61
384.78	753.65
384.97	854.30
385.17	826.21
385.36	772.38
385.56	774.72
385.75	744.29
385.95	903.45
386.14	823.87
386.34	765.36
386.53	840.25
386.72	809.83
386.92	884.72
387.11	781.74
387.31	891.74
387.50	781.74
387.70	889.40
387.89	901.11
388.09	833.23
388.28	950.26
388.48	905.79
388.67	868.34
388.86	959.62
389.06	966.64
389.25	858.98
389.45	1004.09
389.64	1008.77
389.84	976.00
390.03	1032.18
390.22	1076.65
390.42	1015.79
390.61	959.62
390.81	973.66
391.00	929.19
391.19	1102.39
391.39	1015.79
391.58	1083.67
391.78	1135.16
391.97	1095.37
392.16	1018.13
392.36	1142.18
392.55	1128.14
392.75	1118.78
392.94	1078.99
393.13	1174.95
393.33	1167.93
393.52	1135.16
393.71	1149.20
393.91	1090.69
394.10	1130.48
394.29	1284.95
394.49	1249.85
394.68	1224.10
394.88	1263.89
395.07	1287.29
395.26	1158.57
395.46	1310.70
395.65	1294.32
395.84	1341.13
396.04	1364.53
396.23	1331.76
396.42	1263.89
396.62	1406.66
396.81	1348.15
397.00	1273.25
397.19	1383.26
397.39	1371.55
397.58	1334.11
397.77	1469.86
397.97	1380.92
398.16	1486.24
398.35	1364.53
398.55	1540.07
398.74	1561.14
398.93	1579.86
399.12	1502.62
399.32	1392.62
399.51	1561.14
399.70	1624.33
399.90	1507.30
400.09	1668.80
400.28	1607.95
400.47	1600.93
400.67	1575.18
400.86	1633.69
401.05	1638.38
401.24	1682.85
401.44	1727.32
401.63	1657.10
401.82	1797.53
402.01	1703.91
402.21	1834.98
402.40	1820.94
402.59	1755.40
402.78	1820.94
402.97	1760.08
403.17	1762.42
403.36	1863.07
403.55	1811.57
403.74	1921.58
403.93	1952.01
404.13	1947.33
404.32	1942.64
404.51	1933.28
404.70	2040.95
404.89	1888.81
405.09	2071.37
405.28	1937.96
405.47	2029.24
405.66	2143.93
405.85	2148.61
406.05	2132.23
406.24	2277.34
406.43	2078.40
406.62	2242.23
406.81	2310.11
407.00	2221.17
407.20	2204.78
407.39	2216.49
407.58	2342.88
407.77	2263.30
407.96	2284.36
408.15	2293.72
408.34	2277.34
408.54	2459.90
408.73	2483.31
408.92	2445.86
409.11	2452.88
409.30	2534.80
409.49	2448.20
409.68	2438.84
409.87	2530.12
410.07	2513.74
410.26	2640.12
410.45	2698.64
410.64	2633.10
410.83	2583.95
411.02	2733.75
411.21	2654.17
411.40	2626.08
411.59	2848.43
411.78	2717.36
411.98	2836.73
412.17	2935.03
412.36	2930.35
412.55	2897.58
412.74	2890.56
412.93	3033.33
413.12	2988.86
413.31	2979.50
413.50	3096.53
413.69	3042.70
413.88	3255.69
414.07	3077.80
414.26	3232.28
414.45	3269.73
414.64	3243.98
414.83	3269.73
415.02	3330.58
415.22	3337.60
415.41	3328.24
415.60	3398.46
415.79	3501.44
415.98	3550.59
416.17	3641.87
416.36	3531.87
416.55	3566.98
416.74	3815.07
416.93	3700.39
417.12	3768.26
417.31	3730.81
417.50	3845.50
417.69	3908.69
417.88	3864.22
418.07	3929.76
418.26	3808.05
418.45	3847.84
418.64	4044.45
418.83	3976.57
419.02	4037.42
419.21	4095.94
419.39	4205.94
419.58	4004.66
419.77	3946.14
419.96	4121.68
420.15	4067.85
420.34	4227.01
420.53	4297.22
420.72	4346.37
420.91	4311.27
421.10	4334.67
421.29	4299.56
421.48	4322.97
421.67	4276.16
421.86	4402.55
422.05	4337.01
422.24	4397.87
422.43	4414.25
422.61	4409.57
422.80	4430.63
422.99	4498.51
423.18	4589.79
423.37	4777.03
423.56	4404.89
423.75	4613.20
423.94	4542.98
424.13	4334.67
424.32	4500.85
424.50	4704.48
424.69	4786.40
424.88	4706.82
425.07	4521.92
425.26	4449.36
425.45	4578.09
425.64	4589.79
425.83	4505.53
426.01	4774.69
426.20	4493.83
426.39	4744.27
426.58	4617.88
426.77	4676.39
426.96	4741.93
427.15	4706.82
427.33	4777.03
427.52	4861.29
427.71	4880.02
427.90	4884.70
428.09	4894.06
428.28	4861.29
428.46	4931.51
428.65	5085.98
428.84	5020.45
429.03	4994.70
429.22	4821.50
429.40	5095.35
429.59	5151.52
429.78	4994.70
429.97	4706.82
430.16	5018.11
430.34	5359.83
430.53	5275.57
430.72	5348.12
430.91	5233.44
431.10	5277.91
431.28	5401.96
431.47	5408.98
431.66	5401.96
431.85	5298.97
432.03	5366.85
432.22	5657.07
432.41	5596.22
432.60	5542.39
432.79	5441.75
432.97	5554.09
433.16	5460.47
433.35	5453.45
433.54	5687.50
433.72	5858.36
433.91	5526.00
434.10	5636.01
434.28	5776.44
434.47	5750.70
434.66	5879.43
434.85	5816.23
435.03	5944.96
435.22	5893.47
435.41	6047.94
435.59	5898.15
435.78	5954.32
435.97	6017.52
436.16	6111.14
436.34	6087.73
436.53	6054.97
436.72	6335.83
436.90	6146.25
437.09	6104.12
437.28	5806.87
437.46	6237.53
437.65	6239.87
437.84	6347.53
438.02	6352.21
438.21	6406.05
438.40	6359.24
438.58	6588.61
438.77	6483.28
438.96	6438.81
439.14	6738.40
439.33	6747.76
439.52	6715.00
439.70	6644.78
439.89	6754.79
440.08	6775.85
440.26	6993.52
440.45	6904.58
440.63	6810.96
440.82	7061.40
441.01	6974.80
441.19	7084.80
441.38	7225.23
441.57	7192.47
441.75	7232.26
441.94	7290.77
442.12	7192.47
442.31	7604.40
442.50	7494.40
442.68	7449.93
442.87	7702.70
443.05	7410.14
443.24	7707.38
443.43	7744.83
443.61	7770.58
443.80	7789.30
443.98	7515.46
444.17	7330.56
444.35	7714.41
444.54	7798.66
444.73	7775.26
444.91	7602.06
445.10	7644.19
445.28	7683.98
445.47	7618.44
445.65	7705.04
445.84	7805.69
446.02	7679.30
446.21	7726.11
446.39	7894.63
446.58	8023.36
446.77	7992.93
446.95	7751.85
447.14	7840.79
447.32	7765.90
447.51	7999.95
447.69	7775.26
447.88	7892.29
448.06	7932.08
448.25	7922.71
448.43	7964.84
448.62	7854.84
448.80	8025.70
448.99	8009.31
449.17	8189.53
449.36	8149.75
449.54	8201.24
449.73	8250.39
449.91	8336.99
450.10	8458.70
450.28	8645.94
450.46	8463.38
450.65	8234.00
450.83	8503.17
451.02	8341.67
451.20	8397.84
451.39	8542.96
451.57	8411.89
451.76	8470.40
451.94	8528.91
452.13	8713.81
452.31	8762.97
452.49	8559.34
452.68	8823.82
452.86	8606.15
453.05	8863.61
453.23	8894.04
453.42	8596.79
453.60	8812.12
453.78	8875.31
453.97	8692.75
454.15	8905.74
454.34	8683.39
454.52	9324.69
454.70	9130.43
454.89	8901.06
455.07	9055.53
455.26	9310.65
455.44	9212.35
455.62	9217.03
455.81	9261.50
455.99	9247.46
456.17	9273.20
456.36	9397.25
456.54	9497.89
456.73	9507.26
456.91	9633.64
457.09	9540.02
457.28	9851.31
457.46	9591.52
457.64	9682.80
457.83	9750.67
458.01	9544.70
458.19	9825.57
458.38	9832.59
458.56	10031.54
458.74	10141.54
458.93	9956.64
459.11	10005.79
459.29	10141.54
459.48	10059.62
459.66	10118.14
459.84	9872.38
460.03	10558.16
460.21	10228.14
460.39	10239.84
460.57	10200.05
460.76	10303.04
460.94	10527.73
461.12	10125.16
461.31	10434.11
461.49	10558.16
461.67	10270.27
461.85	10579.22
462.04	10579.22
462.22	10864.77
462.40	10656.46
462.59	10860.09
462.77	10768.80
462.95	10672.84
463.13	10869.45
463.32	10806.25
463.50	10764.12
463.68	11002.86
463.86	10972.43
464.05	11021.58
464.23	11073.07
464.41	10970.09
464.59	10661.14
464.78	11267.34
464.96	11215.85
465.14	11157.33
465.32	11080.10
465.50	11052.01
465.69	11318.83
465.87	11103.50
466.05	11124.57
466.23	11101.16
466.41	11332.87
466.60	11843.11
466.78	11403.09
466.96	11283.72
467.14	11243.93
467.32	11417.13
467.51	11676.93
467.69	11344.58
467.87	11623.10
468.05	11611.40
468.23	11375.00
468.41	11566.93
468.60	11403.09
468.78	11873.54
468.96	11587.99
469.14	11913.33
469.32	12053.76
469.50	11587.99
469.69	12156.74
469.87	12226.96
470.05	12236.32
470.23	11932.05
470.41	12351.01
470.59	12166.10
470.77	12081.85
470.95	12390.80
471.14	12470.37
471.32	12582.72
471.50	12685.70
471.68	12746.56
471.86	12704.43
472.04	12650.60
472.22	13123.38
472.40	12559.31
472.58	12805.07
472.77	12901.03
472.95	12908.05
473.13	13652.34
473.31	13004.02
473.49	13057.85
473.67	13331.69
473.85	13221.69
474.03	13619.58
474.21	13282.54
474.39	13628.94
474.57	13722.56
474.75	13811.50
474.93	13879.38
475.12	13774.05
475.30	13951.93
475.48	13834.91
475.66	14092.37
475.84	13797.46
476.02	14279.61
476.20	14033.85
476.38	14511.32
476.56	14743.03
476.74	14794.53
476.92	14452.81
477.10	14902.19
477.28	15009.86
477.46	14834.32
477.64	15119.86
477.82	15517.75
478.00	15749.46
478.18	15545.84
478.36	15641.80
478.54	15896.92
478.72	15772.87
478.90	15939.05
479.08	16091.18
479.26	16308.85
479.44	16390.77
479.62	16432.90
479.80	16463.33
479.98	16533.54
480.16	16952.50
480.34	16975.91
480.52	17193.58
480.70	17240.39
480.88	17092.93
481.06	17247.41
481.24	17343.37
481.41	17785.73
481.59	18022.12
481.77	18071.28
481.95	18118.09
482.13	18314.69
482.31	18167.24
482.49	18523.00
482.67	18541.72
482.85	18930.25
483.03	19271.97
483.21	19389.00
483.39	19297.72
483.57	19190.05
483.74	19623.05
483.92	19714.33
484.10	19819.66
484.28	19995.20
484.46	20360.32
484.64	20957.16
484.82	20332.23
485.00	20381.38
485.18	20776.94
485.35	21640.59
485.53	21322.28
485.71	21165.46
485.89	21563.36
486.07	21460.37
486.25	21755.28
486.43	21872.31
486.61	21874.65
486.78	22094.66
486.96	22295.94
487.14	22614.26
487.32	22635.32
487.50	23009.81
487.68	23122.15
487.85	23440.47
488.03	23590.26
488.21	24058.37
488.39	24020.92
488.57	24299.44
488.75	24236.25
488.92	24482.00
489.10	24545.20
489.28	24891.60
489.46	25071.82
489.64	24685.63
489.81	26005.69
489.99	25333.96
490.17	25652.27
490.35	26167.19
490.53	26342.73
490.70	26576.78
490.88	26307.62
491.06	26616.57
491.24	26560.40
491.41	26682.11
491.59	26965.31
491.77	27168.94
491.95	27391.29
492.13	27763.43
492.30	27723.65
492.48	27639.39
492.66	27711.94
492.84	28063.02
493.01	28287.71
493.19	28306.44
493.37	29013.28
493.54	28746.46
493.72	28912.64
493.90	28800.29
494.08	29764.59
494.25	29855.87
494.43	29717.78
494.61	29954.18
494.79	29766.93
494.96	29823.11
495.14	30256.11
495.32	30518.25
495.49	30698.47
495.67	30897.41
495.85	30932.52
496.02	31339.77
496.20	31037.84
496.38	31419.35
496.55	31688.51
496.73	32044.27
496.91	31770.43
497.09	32098.11
497.26	32514.72
497.44	32142.58
497.62	32086.40
497.79	33219.22
497.97	32683.24
498.14	32797.93
498.32	33268.37
498.50	33659.24
498.67	33521.15
498.85	33495.41
499.03	33631.16
499.20	33741.16
499.38	34054.79
499.56	34363.75
499.73	34078.20
499.91	34473.75
500.08	34693.76
500.26	34302.89
500.44	34459.71
500.61	35447.41
500.79	34873.98
500.97	35225.06
501.14	35512.95
501.32	35421.67
501.49	35395.92
501.67	35220.38
501.84	35861.69
502.02	35782.11
502.20	36552.15
502.37	36332.14
502.55	35922.54
502.72	36261.92
502.90	36376.61
503.07	36404.69
503.25	36247.88
503.43	36187.02
503.60	36486.61
503.78	37036.64
503.95	36989.83
504.13	37411.12
504.30	36966.42
504.48	37205.16
504.65	37642.84
504.83	37909.66
505.01	38141.37
505.18	37656.88
505.36	38190.52
505.53	38302.87
505.71	38122.65
505.88	38319.25
506.06	38178.82
506.23	38820.13
506.41	38913.75
506.58	38902.04
506.76	38986.30
506.93	39215.68
507.11	38904.38
507.28	38745.23
507.46	39344.41
507.63	39299.94
507.81	39789.11
507.98	39454.41
508.16	39707.19
508.33	39838.26
508.50	39744.64
508.68	40371.90
508.85	40620.00
509.03	40631.70
509.20	40287.64
509.38	41074.06
509.55	40753.41
509.73	40954.69
509.90	40760.43
510.08	40832.99
510.25	40788.52
510.42	41357.27
510.60	41397.06
510.77	41724.73
510.95	41675.58
511.12	41188.75
511.30	41577.28
511.47	41975.17
511.64	41710.69
511.82	42417.53
511.99	42059.43
512.17	42438.59
512.34	42307.52
512.51	42490.09
512.69	42499.45
512.86	42471.36
513.04	43255.44
513.21	42649.24
513.38	42981.60
513.56	43210.97
513.73	42838.83
513.90	42864.57
514.08	43047.13
514.25	43402.89
514.43	44266.55
514.60	43491.83
514.77	43936.54
514.95	44088.67
515.12	43477.79
515.29	43611.20
515.47	44449.11
515.64	44479.54
515.81	44367.20
515.99	44987.44
516.16	44739.34
516.33	45055.31
516.51	45368.94
516.68	44406.98
516.85	44657.42
517.03	45043.61
517.20	45277.66
517.37	45230.85
517.54	45368.94
517.72	45237.87
517.89	45256.60
518.06	45092.76
518.24	45525.76
518.41	45595.98
518.58	45635.77
518.75	46162.39
518.93	45762.15
519.10	46117.92
519.27	46461.97
519.45	45858.12
519.62	46314.52
519.79	46241.96
519.96	45755.13
520.14	46557.94
520.31	46349.63
520.48	46689.01
520.65	46726.46
520.83	47356.06
521.00	47103.28
521.17	46932.42
521.34	47150.09
521.52	47171.16
521.69	47337.33
521.86	47552.66
522.03	47665.01
522.20	47742.25
522.38	47770.33
522.55	47681.39
522.72	47510.53
522.89	47461.38
523.07	47997.37
523.24	47819.49
523.41	48163.54
523.58	47728.20
523.75	48334.40
523.92	47789.06
524.10	48308.66
524.27	48133.12
524.44	48458.45
524.61	48718.25
524.78	48629.31
524.96	48786.13
525.13	48687.82
525.30	48697.19
525.47	49331.47
525.64	48708.89
525.81	48868.05
525.98	49336.15
526.16	48783.79
526.33	49525.74
526.50	49399.35
526.67	49144.23
526.84	49015.50
527.01	48912.52
527.18	49167.63
527.36	49418.07
527.53	49694.25
527.70	49867.45
527.87	49787.88
528.04	49600.63
528.21	49930.65
528.38	49806.60
528.55	49820.64
528.72	49956.39
528.89	49846.39
529.07	49954.05
529.24	49745.75
529.41	50265.34
529.58	49808.94
529.75	50340.24
529.92	50302.79
530.09	50169.38
530.26	50506.42
530.43	50628.13
530.60	50452.59
530.77	50710.05
530.94	50574.30
531.11	50475.99
531.28	50483.01
531.46	50756.86
531.63	50836.44
531.80	51004.95
531.97	51269.43
532.14	51143.05
532.31	50916.01
532.48	51260.07
532.65	51381.78
532.82	51019.00
532.99	51208.58
533.16	50927.72
533.33	51646.26
533.50	51550.30
533.67	51819.46
533.84	51393.48
534.01	51379.44
534.18	51496.47
534.35	51557.32
534.52	51554.98
534.69	51826.48
534.86	51847.55
535.03	51924.78
535.20	51786.69
535.37	51908.40
535.54	52011.38
535.71	51922.44
535.88	51835.84
536.05	52144.80
536.22	51992.66
536.38	52254.80
536.55	52505.24
536.72	52367.15
536.89	51922.44
537.06	52306.29
537.23	52371.83
537.40	51915.42
537.57	52505.24
537.74	52535.66
537.91	52659.71
538.08	52348.42
538.25	52240.76
538.42	52580.13
538.59	52903.13
538.75	52339.06
538.92	52563.75
539.09	52631.63
539.26	52870.36
539.43	52816.53
539.60	53078.67
539.77	53059.94
539.94	53008.45
540.11	52928.87
540.28	52821.21
540.44	52931.22
540.61	53006.11
540.78	52889.09
540.95	52793.12
541.12	53198.04
541.29	53277.61
541.46	53179.31
541.62	53401.66
541.79	53570.18
541.96	53034.20
542.13	52942.92
542.30	53570.18
542.47	53523.37
542.63	53528.05
542.80	53846.36
542.97	53705.93
543.14	53841.68
543.31	53694.23
543.48	53506.99
543.64	53944.67
543.81	54190.42
543.98	54419.80
544.15	54152.97
544.32	54049.99
544.48	54026.59
544.65	54096.80
544.82	54010.20
544.99	53984.46
545.16	54085.10
545.32	54010.20
545.49	54642.15
545.66	54583.63
545.83	54492.35
546.00	54630.44
546.16	54410.43
546.33	54078.08
546.50	53851.05
546.67	54206.81
546.83	53998.50
547.00	54384.69
547.17	54396.39
547.34	54679.60
547.50	54782.58
547.67	54698.32
547.84	54513.42
548.00	54794.28
548.17	54583.63
548.34	54576.61
548.51	55089.19
548.67	54768.54
548.84	54850.45
549.01	55063.44
549.18	54475.97
549.34	54841.09
549.51	54728.75
549.68	54836.41
549.84	54756.83
550.01	54951.10
550.18	54864.50
550.34	55028.34
550.51	55011.95
550.68	55246.00
550.84	54731.09
551.01	55173.45
551.18	55002.59
551.34	54780.24
551.51	55035.36
551.68	55243.66
551.84	55269.41
552.01	55140.68
552.18	55325.58
552.34	55173.45
552.51	55152.38
552.68	55161.75
552.84	55150.04
553.01	55379.42
553.18	55461.33
553.34	55320.90
553.51	55629.85
553.67	55543.25
553.84	55744.54
554.01	55447.29
554.17	55730.50
554.34	55470.70
554.51	55625.17
554.67	55746.88
554.84	55627.51
555.00	55510.49
555.17	55770.28
555.33	55688.37
555.50	55578.36
555.67	55618.15
555.83	55353.67
556.00	55697.73
556.16	55978.59
556.33	55936.46
556.50	55725.81
556.66	55856.88
556.83	55814.76
556.99	56123.71
557.16	55917.74
557.32	56023.06
557.49	55891.99
557.65	55833.48
557.82	55770.28
557.98	55962.21
558.15	55943.48
558.32	56388.19
558.48	56144.77
558.65	56147.11
558.81	56219.67
558.98	56203.28
559.14	56191.58
559.31	56027.74
559.47	55945.83
559.64	56062.85
559.80	56093.28
559.97	56161.15
560.13	56025.40
560.30	56067.53
560.46	55971.57
560.63	56058.17
560.79	56268.82
560.96	56177.54
561.12	56229.03
561.29	56275.84
561.45	56128.39
561.61	56472.45
561.78	56306.27
561.94	56435.00
562.11	56460.74
562.27	56119.02
562.44	56126.05
562.60	56287.54
562.77	56203.28
562.93	56222.01
563.10	56615.22
563.26	56175.20
563.42	56891.40
563.59	56425.64
563.75	56491.17
563.92	56500.53
564.08	56292.22
564.24	56566.07
564.41	56362.44
564.57	56418.61
564.74	56488.83
564.90	56568.41
565.07	56545.00
565.23	56746.29
565.39	56676.07
565.56	56346.06
565.72	56477.13
565.88	56736.93
566.05	56303.93
566.21	56275.84
566.38	56306.27
566.54	56530.96
566.70	56835.23
566.87	56671.39
567.03	56619.90
567.19	56729.90
567.36	56659.69
567.52	56388.19
567.68	56615.22
567.85	56460.74
568.01	56582.45
568.17	56615.22
568.34	56655.01
568.50	56638.62
568.66	56750.97
568.83	56811.82
568.99	56638.62
569.15	56638.62
569.32	56900.76
569.48	56568.41
569.64	56818.84
569.81	56699.48
569.97	56582.45
570.13	56652.67
570.30	56708.84
570.46	56954.60
570.62	56765.01
570.78	56945.23
570.95	56418.61
571.11	56767.35
571.27	56643.30
571.43	56650.33
571.60	56746.29
571.76	56945.23
571.92	56736.93
572.09	56875.02
572.25	56938.21
572.41	56807.14
572.57	56783.74
572.74	56617.56
572.90	56561.39
573.06	56720.54
573.22	56786.08
573.38	56823.53
573.55	56736.93
573.71	57193.33
573.87	56877.36
574.03	56743.95
574.20	56783.74
574.36	56786.08
574.52	56842.25
574.68	56722.88
574.84	56720.54
575.01	56970.98
575.17	56924.17
575.33	56769.69
575.49	56931.19
575.65	57088.01
575.82	56931.19
575.98	56559.05
576.14	56725.22
576.30	56849.27
576.46	56860.97
576.62	56582.45
576.79	56788.42
576.95	56603.52
577.11	56868.00
577.27	56905.44
577.43	56797.78
577.59	56793.10
577.75	56720.54
577.92	57027.15
578.08	56692.46
578.24	56844.59
578.40	56980.34
578.56	56893.74
578.72	56856.29
578.88	57193.33
579.04	56999.07
579.21	56825.87
579.37	57045.88
579.53	57144.18
579.69	56877.36
579.85	56987.36
580.01	56629.26
580.17	56809.48
580.33	57104.39
580.49	56891.40
580.65	56900.76
580.82	57153.54
580.98	57052.90
581.14	56882.04
581.30	56933.53
581.46	56800.12
581.62	56933.53
581.78	57031.83
581.94	57080.98
582.10	56882.04
582.26	57083.33
582.42	56942.89
582.58	56966.30
582.74	56985.02
582.90	57176.95
583.06	56811.82
583.22	57078.64
583.38	56982.68
583.54	56970.98
583.70	56818.84
583.86	56835.23
584.02	56790.76
584.18	57127.80
584.34	57242.48
584.50	57301.00
584.66	57244.82
584.82	56891.40
584.98	56940.55
585.14	56720.54
585.30	56940.55
585.46	57080.98
585.62	56694.80
585.78	56898.42
585.94	56942.89
586.10	56844.59
586.26	57223.76
586.42	57174.61
586.58	57286.95
586.74	56992.04
586.90	57008.43
587.06	56779.06
587.22	57052.90
587.38	57134.82
587.54	57195.67
587.70	57120.77
587.86	57043.54
588.02	57113.75
588.18	57202.69
588.34	57190.99
588.49	57069.28
588.65	56900.76
588.81	56956.94
588.97	57331.42
589.13	57195.67
589.29	57057.58
589.45	57073.96
589.61	57214.40
589.77	57462.49
589.93	57291.63
590.08	57263.55
590.24	57312.70
590.40	57237.80
590.56	57233.12
590.72	57205.03
590.88	57286.95
591.04	57034.17
591.20	57284.61
591.35	57436.75
591.51	57666.12
591.67	57343.12
591.83	57593.56
591.99	57352.49
592.15	57195.67
592.31	57106.73
592.46	57043.54
592.62	57008.43
592.78	57373.55
592.94	57509.30
593.10	57118.43
593.26	57378.23
593.41	57261.21
593.57	57275.25
593.73	57268.23
593.89	57242.48
594.05	57165.24
594.20	57181.63
594.36	57134.82
594.52	56968.64
594.68	57268.23
594.84	57361.85
594.99	57595.90
595.15	57118.43
595.31	57160.56
595.47	57593.56
595.62	57521.01
595.78	57279.93
595.94	57256.53
596.10	57446.11
596.25	57247.16
596.41	57310.36
596.57	57279.93
596.73	57193.33
596.88	57389.94
597.04	57120.77
597.20	57373.55
597.36	57453.13
597.51	57616.97
597.67	57518.67
597.83	57247.16
597.99	57572.50
598.14	57193.33
598.30	57443.77
598.46	57577.18
598.61	57340.78
598.77	57216.74
598.93	57357.17
599.09	57471.85
599.24	57780.81
599.40	57553.77
599.56	57755.06
599.71	57343.12
599.87	57553.77
600.03	57401.64
600.18	57389.94
600.34	57202.69
600.50	57359.51
600.65	57502.28
600.81	57415.68
600.97	57612.29
601.12	57567.82
601.28	57584.20
601.44	57366.53
601.59	57394.62
601.75	57329.08
601.91	57579.52
602.06	57286.95
602.22	57406.32
602.37	57436.75
602.53	57382.91
602.69	57298.65
602.84	57380.57
603.00	57565.48
603.16	57495.26
603.31	57499.94
603.47	57277.59
603.62	57223.76
603.78	57123.11
603.94	57469.51
604.09	57448.45
604.25	57186.31
604.40	57265.89
604.56	57380.57
604.71	57668.46
604.87	57392.28
605.03	57450.79
605.18	57455.47
605.34	57289.29
605.49	57216.74
605.65	57031.83
605.80	56973.32
605.96	57315.04
606.12	57221.42
606.27	57427.38
606.43	57226.10
606.58	57474.20
606.74	57179.29
606.89	57190.99
607.05	57230.78
607.20	57235.46
607.36	57123.11
607.51	57207.37
607.67	57090.35
607.82	56917.15
607.98	56966.30
608.13	57242.48
608.29	57172.27
608.44	57003.75
608.60	57144.18
608.75	57230.78
608.91	57322.06
609.06	57066.94
609.22	57279.93
609.37	56863.32
609.53	57092.69
609.68	56865.66
609.84	56870.34
609.99	57174.61
610.15	56980.34
610.30	57015.45
610.46	57109.07
610.61	56938.21
610.76	57083.33
610.92	57109.07
611.07	56849.27
611.23	56961.62
611.38	57092.69
611.54	56940.55
611.69	56945.23
611.84	56889.06
612.00	56821.19
612.15	56573.09
612.31	56935.87
612.46	56825.87
612.62	57057.58
612.77	56671.39
612.92	56931.19
613.08	56757.99
613.23	56788.42
613.39	56704.16
613.54	56638.62
613.69	56549.68
613.85	56825.87
614.00	56788.42
614.15	56692.46
614.31	56750.97
614.46	56921.83
614.62	56781.40
614.77	56769.69
614.92	56800.12
615.08	56832.89
615.23	56652.67
615.38	56722.88
615.54	56423.29
615.69	56507.55
615.84	56493.51
616.00	56547.34
616.15	56367.12
616.30	56666.71
616.46	56512.23
616.61	56753.31
616.76	56582.45
616.92	56353.08
617.07	56472.45
617.22	56385.85
617.37	56203.28
617.53	56292.22
617.68	56292.22
617.83	56168.18
617.99	56100.30
618.14	56388.19
618.29	56528.62
618.45	56306.27
618.60	56210.31
618.75	56409.25
618.90	56411.59
619.06	56425.64
619.21	56376.48
619.36	56058.17
619.51	56402.23
619.67	55962.21
619.82	55891.99
619.97	55997.32
620.12	55917.74
620.28	55728.16
620.43	56002.00
620.58	56219.67
620.73	56086.26
620.89	56247.75
621.04	56189.24
621.19	56081.58
621.34	55941.14
621.49	55992.64
621.65	56051.15
621.80	56030.08
621.95	55702.41
622.10	55997.32
622.25	56104.98
622.41	55742.20
622.56	55863.91
622.71	55936.46
622.86	55777.31
623.01	55697.73
623.16	55784.33
623.32	55711.77
623.47	55891.99
623.62	55519.85
623.77	55543.25
623.92	55739.86
624.07	55405.16
624.23	55718.79
624.38	55671.98
624.53	55845.18
624.68	55679.00
624.83	56048.81
624.98	55585.38
625.13	55566.66
625.29	55613.47
625.44	55543.25
625.59	55583.04
625.74	55428.57
625.89	55510.49
626.04	55189.83
626.19	55332.60
626.34	55363.03
626.49	55498.78
626.65	55264.73
626.80	55585.38
626.95	55257.71
627.10	55304.52
627.25	55178.13
627.40	54946.42
627.55	55253.03
627.70	55234.30
627.85	54979.18
628.00	54995.57
628.15	54829.39
628.30	54923.01
628.45	55299.84
628.60	55040.04
628.76	54869.18
628.91	55227.28
629.06	54988.55
629.21	54976.84
629.36	55061.10
629.51	54990.89
629.66	54756.83
629.81	54869.18
629.96	54686.62
630.11	54738.11
630.26	54841.09
630.41	54735.77
630.56	54667.89
630.71	54908.97
630.86	54745.13
631.01	54658.53
631.16	54932.37
631.31	54927.69
631.46	54600.02
631.61	54754.49
631.76	54576.61
631.91	54571.93
632.06	54447.88
632.21	54389.37
632.36	54656.19
632.51	54326.17
632.66	54401.07
632.81	54227.87
632.96	54731.09
633.10	54433.84
633.25	54513.42
633.40	54590.66
633.55	54443.20
633.70	54387.03
633.85	54255.96
634.00	54223.19
634.15	54148.29
634.30	54021.90
634.45	54419.80
634.60	54265.32
634.75	54473.63
634.90	54218.51
635.05	54461.93
635.19	54330.86
635.34	54403.41
635.49	54312.13
635.64	54466.61
635.79	54277.02
635.94	54031.27
636.09	54087.44
636.24	53930.62
636.39	53902.54
636.53	54078.08
636.68	53727.00
636.83	54162.34
636.98	53961.05
637.13	54150.63
637.28	54185.74
637.43	54108.50
637.57	53869.77
637.72	53956.37
637.87	53755.08
638.02	53928.28
638.17	53624.01
638.32	53556.14
638.46	53647.42
638.61	53525.71
638.76	53502.31
638.91	53574.86
639.06	53579.54
639.20	53413.37
639.35	53694.23
639.50	53663.80
639.65	54031.27
639.80	53741.04
639.94	53556.14
640.09	53404.00
640.24	53261.23
640.39	53607.63
640.54	53202.72
640.68	53141.86
640.83	53525.71
640.98	53254.21
641.13	52870.36
641.27	53216.76
641.42	53043.56
641.57	53425.07
641.72	53413.37
641.86	53076.33
642.01	53106.76
642.16	52959.30
642.31	52884.40
642.45	53015.47
642.60	53078.67
642.75	52893.77
642.90	52802.49
643.04	52947.60
643.19	52875.04
643.34	53085.69
643.48	52956.96
643.63	52917.17
643.78	52823.55
643.93	53174.63
644.07	53050.58
644.22	53066.97
644.37	52931.22
644.51	52917.17
644.66	52811.85
644.81	52851.64
644.95	52697.16
645.10	52907.81
645.25	52760.36
645.39	52952.28
645.54	52519.28
645.69	52530.98
645.83	52608.22
645.98	52868.02
646.13	52680.78
646.27	52903.13
646.42	52875.04
646.57	52500.56
646.71	52807.17
646.86	52561.41
647.00	52685.46
647.15	52133.09
647.30	52198.63
647.44	52112.03
647.59	51936.49
647.74	52357.78
647.88	52079.26
648.03	52526.30
648.17	52463.11
648.32	52467.79
648.47	52390.55
648.61	52264.16
648.76	52231.40
648.90	52130.75
649.05	52336.72
649.20	52294.59
649.34	52053.51
649.49	51936.49
649.63	52051.17
649.78	52210.33
649.92	51906.06
650.07	52416.30
650.21	52196.29
650.36	52444.38
650.51	51721.16
650.65	51943.51
650.80	52247.78
650.94	51779.67
651.09	52128.41
651.23	51756.27
651.38	51896.70
651.52	51569.02
651.67	51636.90
651.81	51622.86
651.96	51725.84
652.10	51746.90
652.25	51526.89
652.39	51936.49
652.54	52058.20
652.68	51693.07
652.83	51452.00
652.97	51767.97
653.12	51749.24
653.26	51730.52
653.41	51440.29
653.55	51379.44
653.70	51416.89
653.84	51391.14
653.99	51030.70
654.13	51161.77
654.27	51330.29
654.42	51391.14
654.56	51283.48
654.71	51611.15
654.85	51444.98
655.00	51384.12
655.14	51550.30
655.29	51341.99
655.43	51210.92
655.57	51208.58
655.72	51105.60
655.86	51367.74
656.01	51021.34
656.15	50494.72
656.30	50925.38
656.44	50892.61
656.58	50925.38
656.73	50911.33
656.87	51112.62
657.01	50981.55
657.16	51161.77
657.30	50997.93
657.45	51124.32
657.59	51210.92
657.73	50684.30
657.88	50703.03
658.02	50604.72
658.16	50604.72
658.31	50578.98
658.45	50553.23
658.60	50042.99
658.74	50417.48
658.88	50403.44
659.03	50609.40
659.17	50518.12
659.31	50394.07
659.46	50270.03
659.60	50302.79
659.74	50253.64
659.89	50234.92
660.03	50206.83
660.17	50574.30
660.32	49874.48
660.46	49940.01
660.60	49818.30
660.74	50071.08
660.89	50047.68
661.03	49645.10
661.17	49659.15
661.32	49621.70
661.46	49296.36
661.60	49546.80
661.74	49509.35
661.89	49162.95
662.03	49675.53
662.17	49722.34
662.31	49694.25
662.46	49766.81
662.60	49478.92
662.74	49263.60
662.88	49251.89
663.03	49029.54
663.17	49205.08
663.31	48685.48
663.45	48776.76
663.60	48797.83
663.74	48315.68
663.88	48835.28
664.02	48762.72
664.17	49240.19
664.31	48882.09
664.45	48975.71
664.59	48559.09
664.73	48751.02
664.88	48416.32
665.02	47894.38
665.16	48233.76
665.30	48339.08
665.44	48128.44
665.59	47978.64
665.73	47632.24
665.87	48020.77
666.01	47702.46
666.15	47611.18
666.29	48016.09
666.44	47704.80
666.58	48030.13
666.72	47840.55
666.86	47849.91
667.00	47952.90
667.14	47550.32
667.28	47393.51
667.43	47782.04
667.57	47538.62
667.71	47688.42
667.85	47386.49
667.99	47426.28
668.13	47255.42
668.27	47023.70
668.41	46976.89
668.56	46309.84
668.70	47276.48
668.84	46703.05
668.98	46497.08
669.12	46981.57
669.26	46344.95
669.40	46546.23
669.54	46983.91
669.68	46672.62
669.82	46323.88
669.96	46461.97
670.10	46309.84
670.25	46361.33
670.39	45808.96
670.53	45673.21
670.67	45755.13
670.81	46548.57
670.95	46061.74
671.09	45591.30
671.23	46033.66
671.37	45909.61
671.51	46263.03
671.65	45354.90
671.79	45549.17
671.93	45462.57
672.07	45191.06
672.21	45343.20
672.35	45174.68
672.49	45116.17
672.63	45022.54
672.77	44921.90
672.91	44893.82
673.05	44793.17
673.19	44854.03
673.33	44863.39
673.47	44404.64
673.61	44678.49
673.75	44683.17
673.89	44739.34
674.03	44912.54
674.17	44549.76
674.31	44414.01
674.45	44472.52
674.59	43721.21
674.73	43737.59
674.87	43929.51
675.01	43578.43
675.15	43615.88
675.29	43611.20
675.43	43501.20
675.56	43489.49
675.70	43463.75
675.84	43423.96
675.98	42431.57
676.12	43253.10
676.26	43292.89
676.40	42927.77
676.54	42923.08
676.68	42735.84
676.82	41588.98
676.96	42611.79
677.10	42438.59
677.23	41869.84
677.37	41825.37
677.51	41911.97
677.65	41366.63
677.79	41038.95
677.93	41240.24
678.07	41188.75
678.21	41528.13
678.34	41305.77
678.48	41345.56
678.62	41078.74
678.76	41216.83
678.90	40517.01
679.04	40814.26
679.18	40488.93
679.31	40484.25
679.45	40594.25
679.59	39824.22
679.73	39936.56
679.87	39833.58
680.00	39583.14
680.14	39423.98
680.28	39955.29
680.42	39639.31
680.56	39306.96
680.70	39332.70
680.83	39122.05
680.97	39409.94
681.11	39351.43
681.25	39269.51
681.39	38913.75
681.52	39225.04
681.66	38670.33
681.80	38370.74
681.94	38359.04
682.07	38410.53
682.21	38068.81
682.35	37572.62
682.49	37818.38
682.62	37642.84
682.76	38012.64
682.90	37050.68
683.04	37326.86
683.17	37111.53
683.31	37280.05
683.45	37556.24
683.59	37003.87
683.72	36952.38
683.86	36774.50
684.00	36671.51
684.13	36552.15
684.27	36308.73
684.41	35981.06
684.55	36189.36
684.68	35779.77
684.82	35590.19
684.96	35491.88
685.09	35859.35
685.23	35571.46
685.37	35548.06
685.50	35646.36
685.64	35009.73
685.78	35138.46
685.91	35075.27
686.05	35117.40
686.19	34586.10
686.32	34625.89
686.46	34127.35
686.60	34141.39
686.73	34438.64
686.87	34040.75
687.01	34003.30
687.14	33762.23
687.28	33607.75
687.42	33675.63
687.55	33591.37
687.69	33076.45
687.82	33436.89
687.96	33422.85
688.10	32989.85
688.23	33429.87
688.37	33326.89
688.50	33010.92
688.64	32666.86
688.78	32765.16
688.91	32385.99
689.05	32285.35
689.18	32397.70
689.32	31700.22
689.46	31803.20
689.59	32074.70
689.73	32224.50
689.86	31819.58
690.00	31850.01
690.13	31639.36
690.27	31171.25
690.41	31065.93
690.54	31704.90
690.68	30918.48
690.81	31658.09
690.95	31229.77
691.08	31321.05
691.22	30724.21
691.35	30717.19
691.49	30494.84
691.62	30426.96
691.76	29975.24
691.89	29970.56
692.03	29883.96
692.16	29837.15
692.30	29893.32
692.43	29605.44
692.57	29476.71
692.70	29331.59
692.84	29385.43
692.97	29642.88
693.11	29596.07
693.24	28847.10
693.38	29205.20
693.51	29022.64
693.65	29020.30
693.78	28732.42
693.92	28875.19
694.05	28503.04
694.19	28409.42
694.32	28072.39
694.45	28109.83
694.59	28067.70
694.72	27791.52
694.86	27400.65
694.99	27126.81
695.13	27505.98
695.26	27419.38
695.39	27138.51
695.53	27489.59
695.66	27456.82
695.80	27302.35
695.93	27328.10
696.07	27199.37
696.20	26808.50
696.33	26705.51
696.47	26387.20
696.60	26436.35
696.73	26218.68
696.87	25984.63
697.00	26223.36
697.14	25568.01
697.27	25654.61
697.40	25823.13
697.54	25600.78
697.67	25355.02
697.80	25123.31
697.94	24863.51
698.07	25010.96
698.21	25153.74
698.34	25137.35
698.47	24711.38
698.61	24503.07
698.74	24980.54
698.87	24889.26
699.01	24376.68
699.14	24400.08
699.27	24390.72
699.40	24121.56
699.54	23887.51
699.67	23616.01
699.80	23573.88
699.94	23527.06
700.07	23962.40
700.20	23147.90
700.34	23077.68
700.47	23307.05
700.60	23063.64
700.73	23101.09
700.87	23185.35
701.00	22836.61
701.13	23075.34
701.26	22916.19
701.40	22710.22
701.53	22494.89
701.66	22675.11
701.79	22305.31
701.93	22089.98
702.06	22078.27
702.19	21853.58
702.32	22162.53
702.46	21717.83
702.59	21486.12
702.72	21331.64
702.85	21156.10
702.99	21303.56
703.12	21294.19
703.25	21453.35
703.38	21380.79
703.51	21074.18
703.65	21308.24
703.78	21034.39
703.91	20711.40
704.04	21095.25
704.17	20786.30
704.31	20835.45
704.44	20559.27
704.57	20152.01
704.70	20109.88
704.83	19777.53
704.96	19882.85
705.10	19786.89
705.23	19604.33
>>>>>End Processed Spectral Data<<<<<
