SpectraSuite Data File
++++++++++++++++++++++++++++++++++++
Date: Fri Oct 18 13:55:36 GMT-05:00 2013
User: bianchi
Dark Spectrum Present: No
Reference Spectrum Present: No
Number of Sampled Component Spectra: 1
Spectrometers: USB2+H05261
Integration Time (usec): 100000 (USB2+H05261)
Spectra Averaged: 1 (USB2+H05261)
Boxcar Smoothing: 0 (USB2+H05261)
Correct for Electrical Dark: No (USB2+H05261)
Strobe/Lamp Enabled: No (USB2+H05261)
Correct for Detector Non-linearity: No (USB2+H05261)
Correct for Stray Light: No (USB2+H05261)
Number of Pixels in Processed Spectrum: 2048
>>>>>Begin Processed Spectral Data<<<<<
365.73	0.00
365.92	0.00
366.12	0.00
366.32	0.00
366.52	0.00
366.72	0.00
366.91	0.00
367.11	0.00
367.31	0.00
367.51	0.00
367.70	0.00
367.90	0.00
368.10	0.00
368.30	0.00
368.49	0.00
368.69	0.00
368.89	0.00
369.09	0.00
369.28	0.00
369.48	0.00
369.68	0.00
369.87	0.00
370.07	0.00
370.27	0.00
370.47	0.00
370.66	318.31
370.86	353.42
371.06	411.93
371.25	397.89
371.45	327.68
371.65	379.17
371.84	381.51
372.04	421.30
372.24	339.38
372.44	447.04
372.63	435.34
372.83	395.55
373.03	421.30
373.22	416.62
373.42	433.00
373.62	444.70
373.81	472.79
374.01	507.90
374.21	571.09
374.40	465.77
374.60	552.37
374.79	519.60
374.99	557.05
375.19	528.96
375.38	531.30
375.58	444.70
375.78	538.32
375.97	512.58
376.17	568.75
376.37	564.07
376.56	571.09
376.76	505.56
376.95	564.07
377.15	627.26
377.35	526.62
377.54	503.22
377.74	571.09
377.93	557.05
378.13	566.41
378.33	503.22
378.52	601.52
378.72	650.67
378.91	599.18
379.11	571.09
379.31	510.24
379.50	524.28
379.70	622.58
379.89	692.80
380.09	540.66
380.28	624.92
380.48	587.47
380.68	613.22
380.87	664.71
381.07	676.41
381.26	678.76
381.46	620.24
381.65	739.61
381.85	620.24
382.04	751.31
382.24	751.31
382.43	793.44
382.63	669.39
382.83	716.20
383.02	765.36
383.22	667.05
383.41	713.86
383.61	741.95
383.80	828.55
384.00	678.76
384.19	746.63
384.39	795.78
384.58	727.91
384.78	779.40
384.97	807.48
385.17	737.27
385.36	809.83
385.56	870.68
385.75	805.14
385.95	793.44
386.14	786.42
386.34	793.44
386.53	889.40
386.72	781.74
386.92	889.40
387.11	933.87
387.31	835.57
387.50	786.42
387.70	793.44
387.89	800.46
388.09	889.40
388.28	901.11
388.48	924.51
388.67	1034.52
388.86	905.79
389.06	966.64
389.25	950.26
389.45	938.55
389.64	1015.79
389.84	1043.88
390.03	1015.79
390.22	961.96
390.42	947.92
390.61	985.37
390.81	1100.05
391.00	1025.15
391.19	1050.90
391.39	1020.47
391.58	1081.33
391.78	987.71
391.97	1090.69
392.16	994.73
392.36	1114.10
392.55	1181.97
392.75	1109.41
392.94	1123.46
393.13	1158.57
393.33	1088.35
393.52	1214.74
393.71	1261.55
393.91	1170.27
394.10	1088.35
394.29	1256.87
394.49	1193.67
394.68	1256.87
394.88	1135.16
395.07	1277.93
395.26	1287.29
395.46	1315.38
395.65	1364.53
395.84	1291.98
396.04	1331.76
396.23	1430.07
396.42	1266.23
396.62	1348.15
396.81	1371.55
397.00	1380.92
397.19	1481.56
397.39	1416.02
397.58	1430.07
397.77	1455.81
397.97	1526.03
398.16	1423.05
398.35	1500.28
398.55	1418.36
398.74	1519.01
398.93	1523.69
399.12	1409.00
399.32	1413.68
399.51	1502.62
399.70	1570.50
399.90	1640.72
400.09	1549.43
400.28	1605.61
400.47	1547.09
400.67	1724.97
400.86	1682.85
401.05	1638.38
401.24	1722.63
401.44	1788.17
401.63	1678.16
401.82	1694.55
402.01	1694.55
402.21	1724.97
402.40	1689.87
402.59	1776.47
402.78	1842.00
402.97	1860.73
403.17	1823.28
403.36	1926.26
403.55	1893.49
403.74	1947.33
403.93	1980.09
404.13	1952.01
404.32	1966.05
404.51	1858.39
404.70	1998.82
404.89	1959.03
405.09	2099.46
405.28	2026.90
405.47	2066.69
405.66	2092.44
405.85	2139.25
406.05	2162.66
406.24	2167.34
406.43	2111.16
406.62	2216.49
406.81	2249.25
407.00	2279.68
407.20	2181.38
407.39	2193.08
407.58	2253.94
407.77	2347.56
407.96	2312.45
408.15	2394.37
408.34	2331.17
408.54	2335.85
408.73	2328.83
408.92	2385.01
409.11	2497.35
409.30	2478.63
409.49	2527.78
409.68	2349.90
409.87	2518.42
410.07	2602.68
410.26	2558.21
410.45	2672.89
410.64	2633.10
410.83	2516.08
411.02	2626.08
411.21	2747.79
411.40	2717.36
411.59	2813.32
411.78	2757.15
411.98	2745.45
412.17	2743.11
412.36	2848.43
412.55	2923.33
412.74	2883.54
412.93	3016.95
413.12	2998.23
413.31	3080.14
413.50	3023.97
413.69	2995.89
413.88	3126.96
414.07	3070.78
414.26	3171.43
414.45	3157.38
414.64	3162.06
414.83	3276.75
415.02	3400.80
415.22	3396.12
415.41	3517.83
415.60	3529.53
415.79	3583.36
415.98	3534.21
416.17	3637.19
416.36	3637.19
416.55	3606.77
416.74	3758.90
416.93	3562.30
417.12	3653.58
417.31	3740.18
417.50	3712.09
417.69	3854.86
417.88	3896.99
418.07	3847.84
418.26	3899.33
418.45	3992.95
418.64	4208.28
418.83	4109.98
419.02	3922.74
419.21	4088.92
419.39	4159.13
419.58	3964.87
419.77	4084.23
419.96	4227.01
420.15	4203.60
420.34	4159.13
420.53	4227.01
420.72	4227.01
420.91	4245.73
421.10	4374.46
421.29	4528.94
421.48	4362.76
421.67	4297.22
421.86	4306.59
422.05	4507.87
422.24	4397.87
422.43	4472.76
422.61	4355.74
422.80	4416.59
422.99	4365.10
423.18	4416.59
423.37	4526.60
423.56	4447.02
423.75	4379.14
423.94	4372.12
424.13	4285.52
424.32	4278.50
424.50	4458.72
424.69	4571.07
424.88	4578.09
425.07	4538.30
425.26	4463.40
425.45	4479.79
425.64	4582.77
425.83	4505.53
426.01	4713.84
426.20	4498.51
426.39	4683.41
426.58	4695.11
426.77	4795.76
426.96	4650.64
427.15	4636.60
427.33	4751.29
427.52	4660.01
427.71	4858.95
427.90	4732.56
428.09	4915.12
428.28	4849.59
428.46	4990.02
428.65	4957.25
428.84	4983.00
429.03	5186.63
429.22	4889.38
429.40	4971.30
429.59	5046.20
429.78	4889.38
429.97	4891.72
430.16	4945.55
430.34	5132.79
430.53	5062.58
430.72	5153.86
430.91	5135.14
431.10	4980.66
431.28	5165.56
431.47	5366.85
431.66	5455.79
431.85	5397.28
432.03	5366.85
432.22	5383.23
432.41	5324.72
432.60	5434.72
432.79	5385.57
432.97	5556.43
433.16	5394.93
433.35	5460.47
433.54	5692.18
433.72	5511.96
433.91	5511.96
434.10	5706.23
434.28	5650.05
434.47	5678.14
434.66	5717.93
434.85	5832.62
435.03	5722.61
435.22	5671.12
435.41	6118.16
435.59	5973.05
435.78	5942.62
435.97	5923.90
436.16	6038.58
436.34	6066.67
436.53	6097.10
436.72	6211.78
436.90	6092.41
437.09	6181.35
437.28	6043.26
437.46	6010.50
437.65	6150.93
437.84	6296.04
438.02	6319.45
438.21	6284.34
438.40	6179.01
438.58	6228.17
438.77	6567.54
438.96	6502.01
439.14	6656.48
439.33	6623.72
439.52	6513.71
439.70	6661.16
439.89	6876.49
440.08	6801.60
440.26	6817.98
440.45	6981.82
440.63	6897.56
440.82	7124.59
441.01	6892.88
441.19	7030.97
441.38	7164.38
441.57	7241.62
441.75	7332.90
441.94	7339.92
442.12	7309.49
442.31	7417.16
442.50	7566.95
442.68	7391.41
442.87	7405.46
443.05	7564.61
443.24	7445.24
443.43	7585.68
443.61	7459.29
443.80	7672.28
443.98	7524.82
444.17	7304.81
444.35	7695.68
444.54	7845.48
444.73	7723.77
444.91	7728.45
445.10	7602.06
445.28	7735.47
445.47	7590.36
445.65	7676.96
445.84	7808.03
446.02	7901.65
446.21	7634.83
446.39	7779.94
446.58	7784.62
446.77	7843.14
446.95	7623.12
447.14	7700.36
447.32	7976.55
447.51	7866.54
447.69	7742.49
447.88	7913.35
448.06	8098.25
448.25	7784.62
448.43	7925.05
448.62	7992.93
448.80	7756.54
448.99	8077.19
449.17	8074.85
449.36	7913.35
449.54	8329.97
449.73	8245.71
449.91	8372.10
450.10	8236.35
450.28	8351.03
450.46	8273.79
450.65	8402.52
450.83	8351.03
451.02	8510.19
451.20	8514.87
451.39	8528.91
451.57	8528.91
451.76	8528.91
451.94	8514.87
452.13	8706.79
452.31	8629.56
452.49	8472.74
452.68	8655.30
452.86	8510.19
453.05	8716.16
453.23	8842.54
453.42	8718.50
453.60	8720.84
453.78	8889.35
453.97	8568.70
454.15	8643.60
454.34	8744.24
454.52	9025.11
454.70	8915.10
454.89	8903.40
455.07	9158.52
455.26	9013.40
455.44	9160.86
455.62	9071.92
455.81	9107.02
455.99	9198.31
456.17	9451.08
456.36	9348.10
456.54	9317.67
456.73	9511.94
456.91	9811.53
457.09	9479.17
457.28	9834.93
457.46	9542.36
457.64	9745.99
457.83	9804.50
458.01	9666.41
458.19	9788.12
458.38	9668.75
458.56	10127.50
458.74	10008.13
458.93	9891.10
459.11	9837.27
459.29	9795.14
459.48	10085.37
459.66	9987.07
459.84	9973.02
460.03	10221.12
460.21	10115.80
460.39	10183.67
460.57	10064.30
460.76	10284.31
460.94	10389.64
461.12	10403.68
461.31	10462.19
461.49	10162.61
461.67	10406.02
461.85	10670.50
462.04	10499.64
462.22	10953.71
462.40	10506.66
462.59	10696.25
462.77	10672.84
462.95	10595.61
463.13	10796.89
463.32	10824.98
463.50	11061.37
463.68	10881.15
463.86	10944.34
464.05	10759.44
464.23	10794.55
464.41	10963.07
464.59	10700.93
464.78	11206.48
464.96	10855.40
465.14	10750.08
465.32	11059.03
465.50	11014.56
465.69	11190.10
465.87	11000.52
466.05	11220.53
466.23	10986.47
466.41	11208.83
466.60	11562.25
466.78	11442.88
466.96	11435.86
467.14	11073.07
467.32	11466.28
467.51	11595.01
467.69	11342.24
467.87	11538.84
468.05	11679.27
468.23	11527.14
468.41	11351.60
468.60	11690.98
468.78	11845.45
468.96	11655.87
469.14	11962.48
469.32	11946.09
469.50	11367.98
469.69	11964.82
469.87	11880.56
470.05	12079.50
470.23	12065.46
470.41	11967.16
470.59	12142.70
470.77	12016.31
470.95	12332.28
471.14	12409.52
471.32	12224.62
471.50	12580.38
471.68	12287.81
471.86	12571.02
472.04	12622.51
472.22	12772.30
472.40	12613.15
472.58	12617.83
472.77	12613.15
472.95	13109.34
473.13	13607.87
473.31	13067.21
473.49	12732.51
473.67	13064.87
473.85	13125.72
474.03	13394.89
474.21	13327.01
474.39	13626.60
474.57	13509.57
474.75	14010.45
474.93	13998.74
475.12	13579.79
475.30	13661.71
475.48	13891.08
475.66	13937.89
475.84	13802.14
476.02	14331.10
476.20	14097.05
476.38	14637.71
476.56	14752.40
476.74	14511.32
476.92	14387.27
477.10	14441.11
477.28	14778.14
477.46	14689.20
477.64	15124.54
477.82	15201.78
478.00	15470.94
478.18	15524.77
478.36	15616.05
478.54	15613.71
478.72	15805.64
478.90	15822.02
479.08	16182.46
479.26	16060.76
479.44	16304.17
479.62	16304.17
479.80	16624.83
479.98	16484.39
480.16	16795.68
480.34	16772.28
480.52	17039.10
480.70	16915.05
480.88	16856.54
481.06	17329.33
481.24	17151.45
481.41	17383.16
481.59	17862.97
481.77	17811.48
481.95	17987.02
482.13	17902.76
482.31	18345.12
482.49	18368.52
482.67	18551.09
482.85	18775.78
483.03	19332.82
483.21	19204.10
483.39	18984.09
483.57	19246.23
483.74	19704.97
483.92	19559.86
484.10	19365.59
484.28	19880.51
484.46	20287.76
484.64	20673.95
484.82	20020.94
485.00	20629.48
485.18	20891.62
485.35	21120.99
485.53	20718.42
485.71	21252.06
485.89	21806.77
486.07	21399.52
486.25	21635.91
486.43	21668.68
486.61	21851.24
486.78	22052.53
486.96	22567.45
487.14	22752.35
487.32	22590.85
487.50	22717.24
487.68	22946.61
487.85	23239.18
488.03	23459.19
488.21	23648.77
488.39	23693.24
488.57	24002.19
488.75	24315.83
488.92	24601.37
489.10	24608.39
489.28	24835.42
489.46	24929.05
489.64	24720.74
489.81	25624.18
489.99	25223.95
490.17	25507.16
490.35	25830.15
490.53	25563.33
490.70	26356.77
490.88	25949.52
491.06	26473.80
491.24	26551.04
491.41	26431.67
491.59	26560.40
491.77	26913.82
491.95	27421.72
492.13	27332.78
492.30	27199.37
492.48	27353.84
492.66	27248.52
492.84	27906.21
493.01	28301.76
493.19	27943.66
493.37	28526.45
493.54	28786.25
493.72	28755.82
493.90	28685.61
494.08	28989.88
494.25	29486.07
494.43	29446.28
494.61	29692.04
494.79	29673.31
494.96	30059.50
495.14	30024.39
495.32	30167.16
495.49	30331.00
495.67	30728.89
495.85	30890.39
496.02	30909.11
496.20	31012.10
496.38	31208.70
496.55	31248.49
496.73	31707.24
496.91	31459.14
497.09	31737.66
497.26	32112.15
497.44	31716.60
497.62	31943.63
497.79	32444.51
497.97	32369.61
498.14	32772.18
498.32	33106.88
498.50	32683.24
498.67	33392.42
498.85	33174.75
499.03	33329.23
499.20	33500.09
499.38	33741.16
499.56	34007.98
499.73	34080.54
499.91	34330.98
500.08	34309.91
500.26	33874.57
500.44	34363.75
500.61	34836.53
500.79	34714.83
500.97	35211.02
501.14	35234.42
501.32	35512.95
501.49	35538.69
501.67	35065.91
501.84	35344.43
502.02	35367.84
502.20	35606.57
502.37	36079.36
502.55	35974.03
502.72	36074.68
502.90	35838.28
503.07	35889.77
503.25	36318.09
503.43	36240.86
503.60	36540.44
503.78	36854.08
503.95	36636.41
504.13	36804.92
504.30	36877.48
504.48	36751.09
504.65	37167.71
504.83	37612.41
505.01	37965.83
505.18	37635.81
505.36	38003.28
505.53	37310.48
505.71	37895.61
505.88	38085.20
506.06	37958.81
506.23	38223.29
506.41	38363.72
506.58	38499.47
506.76	38340.32
506.93	38880.98
507.11	38616.50
507.28	38485.43
507.46	39091.63
507.63	39480.16
507.81	39393.56
507.98	39248.44
508.16	39686.12
508.33	39489.52
508.50	39704.85
508.68	39716.55
508.85	40439.78
509.03	40154.23
509.20	40088.70
509.38	40402.33
509.55	40612.98
509.73	40254.87
509.90	40645.74
510.08	40491.27
510.25	40697.24
510.42	40868.09
510.60	41448.55
510.77	41677.92
510.95	41624.09
511.12	41013.21
511.30	40968.74
511.47	41415.78
511.64	41818.35
511.82	41904.95
511.99	41265.99
512.17	42188.16
512.34	41677.92
512.51	42031.34
512.69	42164.75
512.86	42274.76
513.04	43012.02
513.21	42789.67
513.38	42979.26
513.56	43037.77
513.73	42644.56
513.90	43002.66
514.08	42948.83
514.25	43353.74
514.43	43821.85
514.60	43257.78
514.77	43641.63
514.95	43629.93
515.12	43189.91
515.29	43433.32
515.47	44072.29
515.64	44048.88
515.81	43807.81
515.99	44224.42
516.16	44940.63
516.33	44552.10
516.51	44540.39
516.68	44765.09
516.85	44516.99
517.03	44491.24
517.20	44713.59
517.37	44486.56
517.54	44900.84
517.72	45219.15
517.89	44879.77
518.06	44758.06
518.24	45020.20
518.41	45153.62
518.58	45642.79
518.75	45352.56
518.93	45778.54
519.10	45614.70
519.27	45895.56
519.45	45687.26
519.62	46064.08
519.79	45804.28
519.96	45897.91
520.14	46286.43
520.31	46096.85
520.48	46204.52
520.65	45968.12
520.83	46703.05
521.00	46190.47
521.17	46494.74
521.34	46752.20
521.52	46768.58
521.69	46885.61
521.86	46923.06
522.03	47414.57
522.20	47173.50
522.38	47578.41
522.55	46887.95
522.72	46962.85
522.89	46897.31
523.07	47878.00
523.24	47323.29
523.41	47819.49
523.58	47896.72
523.75	47988.00
523.92	47517.56
524.10	47840.55
524.27	47948.21
524.44	48222.06
524.61	48720.59
524.78	48374.19
524.96	48170.57
525.13	48332.06
525.30	48680.80
525.47	48498.24
525.64	48624.63
525.81	48624.63
525.98	48776.76
526.16	49085.72
526.33	49132.53
526.50	48989.75
526.67	48523.99
526.84	49144.23
527.01	49020.18
527.18	49247.21
527.36	49340.83
527.53	49406.37
527.70	49535.10
527.87	49432.11
528.04	49247.21
528.21	49633.40
528.38	49514.03
528.55	49502.33
528.72	49546.80
528.89	49834.69
529.07	49860.43
529.24	49556.16
529.41	49951.71
529.58	49883.84
529.75	49670.85
529.92	49738.72
530.09	49963.42
530.26	50005.55
530.43	50176.40
530.60	49834.69
530.77	50232.58
530.94	50403.44
531.11	50237.26
531.28	50005.55
531.46	50429.18
531.63	50539.19
531.80	50885.59
531.97	50845.80
532.14	51037.72
532.31	50848.14
532.48	50806.01
532.65	50810.69
532.82	50813.03
532.99	51033.04
533.16	51044.74
533.33	50995.59
533.50	51255.39
533.67	51414.55
533.84	51267.09
534.01	51129.00
534.18	50927.72
534.35	51278.80
534.52	51185.18
534.69	51770.31
534.86	51980.96
535.03	51395.82
535.20	51473.06
535.37	51735.20
535.54	51789.03
535.71	51395.82
535.88	51828.82
536.05	51604.13
536.22	51997.34
536.38	52102.67
536.55	51985.64
536.72	52289.91
536.89	52303.95
537.06	51824.14
537.23	51917.76
537.40	51992.66
537.57	51849.89
537.74	52247.78
537.91	52463.11
538.08	52701.84
538.25	52215.01
538.42	52144.80
538.59	52718.23
538.75	52205.65
538.92	52229.05
539.09	52322.68
539.26	52612.90
539.43	52472.47
539.60	52566.09
539.77	52648.01
539.94	52959.30
540.11	52865.68
540.28	52793.12
540.44	52732.27
540.61	52664.39
540.78	52439.70
540.95	52779.08
541.12	52851.64
541.29	52973.34
541.46	53144.20
541.62	52844.62
541.79	53006.11
541.96	52631.63
542.13	52748.65
542.30	53193.36
542.47	53432.09
542.63	53209.74
542.80	53041.22
542.97	53727.00
543.14	53460.18
543.31	53343.15
543.48	53191.01
543.64	53755.08
543.81	53792.53
543.98	53977.43
544.15	53670.82
544.32	53968.07
544.48	53829.98
544.65	53769.13
544.82	53813.60
544.99	53635.72
545.16	53588.91
545.32	53673.16
545.49	54251.28
545.66	53996.16
545.83	54284.04
546.00	54157.66
546.16	54101.48
546.33	53958.71
546.50	53731.68
546.67	54206.81
546.83	53900.20
547.00	54279.36
547.17	54099.14
547.34	54307.45
547.50	54302.77
547.67	54237.23
547.84	54045.31
548.00	54433.84
548.17	54670.23
548.34	54260.64
548.51	54667.89
548.67	54497.03
548.84	54836.41
549.01	54667.89
549.18	54618.74
549.34	54576.61
549.51	54532.14
549.68	54539.16
549.84	54300.43
550.01	54831.73
550.18	54733.43
550.34	54660.87
550.51	54845.77
550.68	55007.27
550.84	54749.81
551.01	54932.37
551.18	54693.64
551.34	54857.48
551.51	54958.12
551.68	54815.35
551.84	54974.50
552.01	55047.06
552.18	55161.75
552.34	54944.08
552.51	55011.95
552.68	54726.41
552.84	55171.11
553.01	55049.40
553.18	54958.12
553.34	55238.98
553.51	54927.69
553.67	55484.74
553.84	55552.62
554.01	55671.98
554.17	55295.16
554.34	55395.80
554.51	55187.49
554.67	55341.97
554.84	55412.18
555.00	55199.19
555.17	55428.57
555.33	55590.06
555.50	55222.60
555.67	55437.93
555.83	55423.89
556.00	55545.59
556.16	55664.96
556.33	55585.38
556.50	55477.72
556.66	55716.45
556.83	55437.93
556.99	55812.41
557.16	55945.83
557.32	55454.31
557.49	55711.77
557.65	55327.92
557.82	55770.28
557.98	55620.49
558.15	55622.83
558.32	55997.32
558.48	55901.36
558.65	55973.91
558.81	55889.65
558.98	55887.31
559.14	55714.11
559.31	55889.65
559.47	55966.89
559.64	55999.66
559.80	55913.06
559.97	55833.48
560.13	55805.39
560.30	55704.75
560.46	55901.36
560.63	56048.81
560.79	55913.06
560.96	56032.42
561.12	55842.84
561.29	55861.57
561.45	55842.84
561.61	55987.95
561.78	56086.26
561.94	56158.81
562.11	56203.28
562.27	56055.83
562.44	55955.19
562.60	55955.19
562.77	56062.85
562.93	55927.10
563.10	56390.53
563.26	56175.20
563.42	56488.83
563.59	56282.86
563.75	56463.08
563.92	56222.01
564.08	56296.91
564.24	56285.20
564.41	56107.32
564.57	56336.69
564.74	56374.14
564.90	56189.24
565.07	56395.21
565.23	56364.78
565.39	56378.82
565.56	56465.42
565.72	56142.43
565.88	56308.61
566.05	56161.15
566.21	56158.81
566.38	56212.65
566.54	56229.03
566.70	56676.07
566.87	56622.24
567.03	56315.63
567.19	56729.90
567.36	56229.03
567.52	56395.21
567.68	56357.76
567.85	56355.42
568.01	56456.06
568.17	56519.26
568.34	56521.60
568.50	56692.46
568.66	56334.35
568.83	56678.41
568.99	56198.60
569.15	56327.33
569.32	56357.76
569.48	56116.68
569.64	56589.47
569.81	56458.40
569.97	56453.72
570.13	56486.49
570.30	56509.89
570.46	56788.42
570.62	56582.45
570.78	56671.39
570.95	56479.47
571.11	56516.92
571.27	56310.95
571.43	56507.55
571.60	56626.92
571.76	56341.38
571.92	56528.62
572.09	56825.87
572.25	56612.88
572.41	56556.70
572.57	56580.11
572.74	56704.16
572.90	56722.88
573.06	56587.13
573.22	56523.94
573.38	56631.60
573.55	56704.16
573.71	56802.46
573.87	56704.16
574.03	56547.34
574.20	56687.78
574.36	56821.19
574.52	56734.59
574.68	56491.17
574.84	56509.89
575.01	56713.52
575.17	56797.78
575.33	56729.90
575.49	56645.65
575.65	57008.43
575.82	56669.05
575.98	56540.32
576.14	56898.42
576.30	56830.55
576.46	56619.90
576.62	56516.92
576.79	56570.75
576.95	56301.59
577.11	56715.86
577.27	56886.72
577.43	56692.46
577.59	56678.41
577.75	56825.87
577.92	56743.95
578.08	56687.78
578.24	56736.93
578.40	56715.86
578.56	56743.95
578.72	56706.50
578.88	56760.33
579.04	56952.26
579.21	56832.89
579.37	56961.62
579.53	57092.69
579.69	56832.89
579.85	56699.48
580.01	56662.03
580.17	56533.30
580.33	56697.14
580.49	56704.16
580.65	56720.54
580.82	56989.70
580.98	56846.93
581.14	56776.72
581.30	56846.93
581.46	56603.52
581.62	56559.05
581.78	56573.09
581.94	56825.87
582.10	56697.14
582.26	56615.22
582.42	56921.83
582.58	56772.03
582.74	56858.63
582.90	57003.75
583.06	56823.53
583.22	56858.63
583.38	56619.90
583.54	56931.19
583.70	56713.52
583.86	56545.00
584.02	56500.53
584.18	56914.81
584.34	56961.62
584.50	57022.47
584.66	56889.06
584.82	56818.84
584.98	56720.54
585.14	56662.03
585.30	56793.10
585.46	56856.29
585.62	56774.37
585.78	56889.06
585.94	56800.12
586.10	56945.23
586.26	57078.64
586.42	57022.47
586.58	56970.98
586.74	56912.47
586.90	56540.32
587.06	56575.43
587.22	56860.97
587.38	56722.88
587.54	57024.81
587.70	57027.15
587.86	56924.17
588.02	57022.47
588.18	57043.54
588.34	56800.12
588.49	57059.92
588.65	56694.80
588.81	56849.27
588.97	56748.63
589.13	56891.40
589.29	56882.04
589.45	57045.88
589.61	57057.58
589.77	57008.43
589.93	57144.18
590.08	57097.37
590.24	57083.33
590.40	57333.76
590.56	57029.49
590.72	56968.64
590.88	56746.29
591.04	56947.57
591.20	57506.96
591.35	57059.92
591.51	57251.84
591.67	57298.65
591.83	57385.25
591.99	57024.81
592.15	57017.79
592.31	57162.90
592.46	56828.21
592.62	56853.95
592.78	56975.66
592.94	57305.68
593.10	56889.06
593.26	57057.58
593.41	57193.33
593.57	57130.14
593.73	57066.94
593.89	57375.89
594.05	56945.23
594.20	56807.14
594.36	57172.27
594.52	57116.09
594.68	56959.28
594.84	56863.32
594.99	57237.80
595.15	57223.76
595.31	57301.00
595.47	57195.67
595.62	57268.23
595.78	57057.58
595.94	57031.83
596.10	57041.20
596.25	56970.98
596.41	57010.77
596.57	56821.19
596.73	57354.83
596.88	56910.13
597.04	57418.02
597.20	57277.59
597.36	57242.48
597.51	57378.23
597.67	57380.57
597.83	57092.69
597.99	57441.43
598.14	57027.15
598.30	57095.03
598.46	57071.62
598.61	57270.57
598.77	57263.55
598.93	57036.51
599.09	57111.41
599.24	57373.55
599.40	57006.09
599.56	57301.00
599.71	57146.52
599.87	57312.70
600.03	57169.93
600.18	57036.51
600.34	57073.96
600.50	57205.03
600.65	57120.77
600.81	57291.63
600.97	57102.05
601.12	57434.41
601.28	57329.08
601.44	57315.04
601.59	57385.25
601.75	57038.86
601.91	57172.27
602.06	57155.88
602.22	57165.24
602.37	56839.91
602.53	57057.58
602.69	57462.49
602.84	57153.54
603.00	57361.85
603.16	57373.55
603.31	57169.93
603.47	57160.56
603.62	57102.05
603.78	57148.86
603.94	57146.52
604.09	57368.87
604.25	56914.81
604.40	56938.21
604.56	57169.93
604.71	57364.19
604.87	57212.06
605.03	57092.69
605.18	57120.77
605.34	57172.27
605.49	56949.92
605.65	56938.21
605.80	56992.04
605.96	56947.57
606.12	57020.13
606.27	57219.08
606.43	56989.70
606.58	57219.08
606.74	56896.08
606.89	57123.11
607.05	57057.58
607.20	57022.47
607.36	56713.52
607.51	57088.01
607.67	56493.51
607.82	56783.74
607.98	56825.87
608.13	56807.14
608.29	56919.49
608.44	56956.94
608.60	56809.48
608.75	57198.01
608.91	56823.53
609.06	56949.92
609.22	57303.34
609.37	56341.38
609.53	56882.04
609.68	56985.02
609.84	56711.18
609.99	56898.42
610.15	56821.19
610.30	56928.85
610.46	56743.95
610.61	56949.92
610.76	56860.97
610.92	56853.95
611.07	56486.49
611.23	56594.15
611.38	56662.03
611.54	56678.41
611.69	56680.75
611.84	56477.13
612.00	56575.43
612.15	56718.20
612.31	56591.81
612.46	56463.08
612.62	56734.59
612.77	56669.05
612.92	56898.42
613.08	56640.96
613.23	56580.11
613.39	56685.43
613.54	56460.74
613.69	56470.11
613.85	56442.02
614.00	56324.99
614.15	56615.22
614.31	56582.45
614.46	56566.07
614.62	56587.13
614.77	56807.14
614.92	56552.02
615.08	56552.02
615.23	56392.87
615.38	56545.00
615.54	56376.48
615.69	56395.21
615.84	56390.53
616.00	56376.48
616.15	56254.78
616.30	56582.45
616.46	56549.68
616.61	56374.14
616.76	56458.40
616.92	56346.06
617.07	56334.35
617.22	56273.50
617.37	56165.84
617.53	56259.46
617.68	56133.07
617.83	55931.78
617.99	56161.15
618.14	56310.95
618.29	56355.42
618.45	56257.12
618.60	56086.26
618.75	56128.39
618.90	56046.47
619.06	56088.60
619.21	56158.81
619.36	56498.19
619.51	55873.27
619.67	55828.80
619.82	55784.33
619.97	56086.26
620.12	56032.42
620.28	55735.18
620.43	55735.18
620.58	55959.87
620.73	56060.51
620.89	56023.06
621.04	56065.19
621.19	56048.81
621.34	55781.99
621.49	55735.18
621.65	55863.91
621.80	55910.72
621.95	55728.16
622.10	55945.83
622.25	55936.46
622.41	55636.87
622.56	55681.34
622.71	55859.23
622.86	55657.94
623.01	55671.98
623.16	55700.07
623.32	55639.22
623.47	55786.67
623.62	55529.21
623.77	55143.02
623.92	55613.47
624.07	55473.04
624.23	55622.83
624.38	55559.64
624.53	55557.30
624.68	55554.96
624.83	55641.56
624.98	55398.14
625.13	55501.12
625.29	55524.53
625.44	55604.11
625.59	55290.48
625.74	55114.94
625.89	55178.13
626.04	55093.87
626.19	55040.04
626.34	55145.36
626.49	55079.83
626.65	54897.27
626.80	55189.83
626.95	54953.44
627.10	55044.72
627.25	54932.37
627.40	55559.64
627.55	55206.22
627.70	54955.78
627.85	54939.39
628.00	54658.53
628.15	54761.51
628.30	54855.14
628.45	54712.36
628.60	54784.92
628.76	54962.80
628.91	55028.34
629.06	54962.80
629.21	54855.14
629.36	54948.76
629.51	54887.90
629.66	54908.97
629.81	54478.31
629.96	54588.31
630.11	54394.05
630.26	54595.34
630.41	54766.20
630.56	54239.57
630.71	54747.47
630.86	54731.09
631.01	54490.01
631.16	54721.72
631.31	54632.78
631.46	54281.70
631.61	54340.22
631.76	54691.30
631.91	54639.81
632.06	54295.75
632.21	54433.84
632.36	54340.22
632.51	54258.30
632.66	54454.90
632.81	54127.23
632.96	54639.81
633.10	54316.81
633.25	54092.12
633.40	54319.15
633.55	54302.77
633.70	53972.75
633.85	54101.48
634.00	54052.33
634.15	54333.20
634.30	54176.38
634.45	54270.00
634.60	54028.93
634.75	53968.07
634.90	54239.57
635.05	53909.56
635.19	54064.03
635.34	54232.55
635.49	53965.73
635.64	53808.92
635.79	54120.21
635.94	54014.88
636.09	53839.34
636.24	53888.49
636.39	53434.43
636.53	53745.72
636.68	53731.68
636.83	54155.32
636.98	54117.87
637.13	53703.59
637.28	53602.95
637.43	53691.89
637.57	53808.92
637.72	53638.06
637.87	53565.50
638.02	53640.40
638.17	53497.62
638.32	53354.85
638.46	53401.66
638.61	53598.27
638.76	53188.67
638.91	53581.88
639.06	53546.78
639.20	53191.01
639.35	53254.21
639.50	53659.12
639.65	53272.93
639.80	53546.78
639.94	53331.45
640.09	53305.70
640.24	53301.02
640.39	53228.46
640.54	53322.08
640.68	53052.92
640.83	53059.94
640.98	52851.64
641.13	52736.95
641.27	52980.37
641.42	53071.65
641.57	52807.17
641.72	53230.80
641.86	53216.76
642.01	52980.37
642.16	53034.20
642.31	52514.60
642.45	53071.65
642.60	52671.42
642.75	52828.23
642.90	52903.13
643.04	52580.13
643.19	52727.59
643.34	52912.49
643.48	52563.75
643.63	52748.65
643.78	52889.09
643.93	52872.70
644.07	52882.06
644.22	52678.44
644.37	52673.76
644.51	52556.73
644.66	52783.76
644.81	52570.77
644.95	52240.76
645.10	52509.92
645.25	52399.91
645.39	52493.54
645.54	52493.54
645.69	52739.29
645.83	52598.86
645.98	52673.76
646.13	52442.04
646.27	52128.41
646.42	52591.84
646.57	52528.64
646.71	52193.95
646.86	52238.42
647.00	52179.90
647.15	52133.09
647.30	52097.98
647.44	51934.15
647.59	52009.04
647.74	51646.26
647.88	52032.45
648.03	52327.36
648.17	52430.34
648.32	52217.35
648.47	52247.78
648.61	51690.73
648.76	52102.67
648.90	51922.44
649.05	52142.45
649.20	51938.83
649.34	51653.28
649.49	51662.64
649.63	51777.33
649.78	51817.12
649.92	51842.87
650.07	51744.56
650.21	51880.31
650.36	51774.99
650.51	51821.80
650.65	52207.99
650.80	52133.09
650.94	51590.09
651.09	51746.90
651.23	51786.69
651.38	51772.65
651.52	51484.76
651.67	51407.53
651.81	51365.40
651.96	51433.27
652.10	51480.08
652.25	51522.21
652.39	51569.02
652.54	51433.27
652.68	51384.12
652.83	51356.03
652.97	51859.25
653.12	51545.62
653.26	51253.05
653.41	51004.95
653.55	51547.96
653.70	51180.49
653.84	51224.96
653.99	51236.67
654.13	51285.82
654.27	51051.76
654.42	51058.79
654.56	50981.55
654.71	51475.40
654.85	51395.82
655.00	51203.90
655.14	51363.06
655.29	50918.35
655.43	51248.37
655.57	50766.22
655.72	50883.25
655.86	50908.99
656.01	50703.03
656.15	50440.89
656.30	50667.92
656.44	50513.44
656.58	50501.74
656.73	50674.94
656.87	50536.85
657.01	50356.63
657.16	50948.78
657.30	51180.49
657.45	50829.41
657.59	50873.88
657.73	50398.76
657.88	50384.71
658.02	50216.19
658.16	50361.31
658.31	50064.06
658.45	50361.31
658.60	50284.07
658.74	49839.37
658.88	50309.82
659.03	50192.79
659.17	50237.26
659.31	49972.78
659.46	50117.89
659.60	50110.87
659.74	50195.13
659.89	49942.35
660.03	50131.93
660.17	50356.63
660.32	50061.72
660.46	49607.65
660.60	49794.90
660.74	49422.75
660.89	49528.08
661.03	49034.22
661.17	49439.14
661.32	49151.25
661.46	49221.47
661.60	49233.17
661.74	49446.16
661.89	49598.29
662.03	49242.53
662.17	49729.36
662.31	49375.94
662.46	49162.95
662.60	48935.92
662.74	48673.78
662.88	48996.77
663.03	48814.21
663.17	48816.55
663.31	48739.32
663.45	48472.49
663.60	48243.12
663.74	48734.63
663.88	48493.56
664.02	48683.14
664.17	48715.91
664.31	48671.44
664.45	48570.80
664.59	48854.00
664.73	48477.18
664.88	48399.94
665.02	47489.47
665.16	48086.31
665.30	47924.81
665.44	47870.98
665.59	47643.94
665.73	47732.89
665.87	47571.39
666.01	47576.07
666.15	47760.97
666.29	47899.06
666.44	47697.78
666.58	47887.36
666.72	47459.04
666.86	47660.33
667.00	47695.44
667.14	47538.62
667.28	47248.39
667.43	47192.22
667.57	47229.67
667.71	46937.10
667.85	47203.92
667.99	47047.11
668.13	46836.46
668.27	46602.41
668.41	46770.93
668.56	46714.75
668.70	47210.95
668.84	46918.38
668.98	46436.23
669.12	46635.17
669.26	46522.83
669.40	46241.96
669.54	46473.68
669.68	46092.17
669.82	45940.04
669.96	46003.23
670.10	45560.87
670.25	45904.93
670.39	45621.72
670.53	45382.99
670.67	45773.86
670.81	45876.84
670.95	45858.12
671.09	45209.79
671.23	45757.47
671.37	45556.19
671.51	45799.60
671.65	45436.82
671.79	45443.84
671.93	45221.49
672.07	45371.28
672.21	45104.46
672.35	45244.90
672.49	44898.50
672.63	44622.31
672.77	44605.93
672.91	44376.56
673.05	44545.08
673.19	44535.71
673.33	44741.68
673.47	44706.57
673.61	44191.65
673.75	44074.63
673.89	44065.27
674.03	44116.76
674.17	44306.34
674.31	44004.41
674.45	43725.89
674.59	44245.49
674.73	43531.62
674.87	43552.69
675.01	43278.85
675.15	43306.93
675.29	43297.57
675.43	43037.77
675.56	43550.35
675.70	43416.94
675.84	42890.32
675.98	42143.69
676.12	42906.70
676.26	43009.68
676.40	43077.56
676.54	42883.30
676.68	42349.65
676.82	41523.44
676.96	41926.02
677.10	41738.77
677.23	41312.80
677.37	41708.35
677.51	41277.69
677.65	41265.99
677.79	40870.43
677.93	41212.15
678.07	41151.30
678.21	40823.62
678.34	41315.14
678.48	40950.01
678.62	40730.00
678.76	41013.21
678.90	40549.78
679.04	40355.52
679.18	39653.36
679.31	39856.98
679.45	39833.58
679.59	39798.47
679.73	39704.85
679.87	39477.82
680.00	39175.89
680.14	39255.46
680.28	39248.44
680.42	39482.50
680.56	39571.44
680.70	39051.84
680.83	39299.94
680.97	38808.42
681.11	39374.83
681.25	38969.92
681.39	39126.74
681.52	38787.36
681.66	38719.48
681.80	38387.13
681.94	38014.98
682.07	37722.41
682.21	37525.81
682.35	37806.67
682.49	37701.35
682.62	37202.82
682.76	37399.42
682.90	37275.37
683.04	37537.51
683.17	37163.03
683.31	37249.63
683.45	37486.02
683.59	36783.86
683.72	36598.96
683.86	36084.04
684.00	36177.66
684.13	36367.24
684.27	36039.57
684.41	36259.58
684.55	35679.13
684.68	35796.15
684.82	35447.41
684.96	35629.98
685.09	35531.67
685.23	35096.33
685.37	35115.06
685.50	35433.37
685.64	35182.93
685.78	34862.28
685.91	35330.39
686.05	34756.96
686.19	34642.27
686.32	34646.95
686.46	34249.06
686.60	34054.79
686.73	33848.83
686.87	34370.77
687.01	33914.36
687.14	34075.86
687.28	33153.69
687.42	33415.83
687.55	33340.93
687.69	32842.40
687.82	32804.95
687.96	33160.71
688.10	33387.74
688.23	33340.93
688.37	33376.04
688.50	32823.67
688.64	32598.98
688.78	32428.12
688.91	32430.46
689.05	32432.80
689.18	32283.01
689.32	31711.92
689.46	31995.12
689.59	31662.77
689.73	31901.50
689.86	31468.50
690.00	31332.75
690.13	31536.38
690.27	31180.62
690.41	31660.43
690.54	31007.42
690.68	31047.21
690.81	31089.34
690.95	30745.28
691.08	30710.17
691.22	31129.12
691.35	30195.25
691.49	30450.37
691.62	29996.31
691.76	29642.88
691.89	29717.78
692.03	29685.01
692.16	29724.80
692.30	29284.78
692.43	29404.15
692.57	29535.22
692.70	29111.58
692.84	29355.00
692.97	29287.12
693.11	29315.21
693.24	28847.10
693.38	29181.80
693.51	29240.31
693.65	28917.32
693.78	28865.83
693.92	28453.89
694.05	28575.60
694.19	28400.06
694.32	28074.73
694.45	27889.82
694.59	27580.87
694.72	27639.39
694.86	27405.33
694.99	27424.06
695.13	27152.55
695.26	26885.73
695.39	27143.19
695.53	27569.17
695.66	26965.31
695.80	27087.02
695.93	27232.13
696.07	26995.74
696.20	26616.57
696.33	26593.17
696.47	26604.87
696.60	26281.88
696.73	26263.15
696.87	26096.97
697.00	25661.63
697.14	25617.16
697.27	25226.29
697.40	25181.82
697.54	25085.86
697.67	24982.88
697.80	24929.05
697.94	24826.06
698.07	25130.33
698.21	24512.43
698.34	24683.29
698.47	24830.74
698.61	24535.84
698.74	24989.90
698.87	24680.95
699.01	24599.03
699.14	24467.96
699.27	24168.37
699.40	23997.51
699.54	24219.86
699.67	23590.26
699.80	23318.76
699.94	23342.16
700.07	23304.71
700.20	23075.34
700.34	23002.78
700.47	23257.90
700.60	22852.99
700.73	23257.90
700.87	22850.65
701.00	22803.84
701.13	23075.34
701.26	22499.57
701.40	22923.21
701.53	22572.13
701.66	22696.17
701.79	22153.17
701.93	22146.15
702.06	22178.92
702.19	21907.41
702.32	21521.23
702.46	21696.77
702.59	21474.42
702.72	21003.97
702.85	21420.58
702.99	20828.43
703.12	21427.60
703.25	21149.08
703.38	21027.37
703.51	21261.43
703.65	21266.11
703.78	20844.81
703.91	20819.07
704.04	20575.65
704.17	20533.52
704.31	20720.76
704.44	20046.69
704.57	20467.98
704.70	19861.79
704.83	20016.26
704.96	19892.21
705.10	19882.85
705.23	19763.48
>>>>>End Processed Spectral Data<<<<<
