SpectraSuite Data File
++++++++++++++++++++++++++++++++++++
Date: Fri Oct 18 13:55:51 GMT-05:00 2013
User: bianchi
Dark Spectrum Present: No
Reference Spectrum Present: No
Number of Sampled Component Spectra: 1
Spectrometers: USB2+H05261
Integration Time (usec): 100000 (USB2+H05261)
Spectra Averaged: 1 (USB2+H05261)
Boxcar Smoothing: 0 (USB2+H05261)
Correct for Electrical Dark: No (USB2+H05261)
Strobe/Lamp Enabled: No (USB2+H05261)
Correct for Detector Non-linearity: No (USB2+H05261)
Correct for Stray Light: No (USB2+H05261)
Number of Pixels in Processed Spectrum: 2048
>>>>>Begin Processed Spectral Data<<<<<
365.73	0.00
365.92	0.00
366.12	0.00
366.32	0.00
366.52	0.00
366.72	0.00
366.91	0.00
367.11	0.00
367.31	0.00
367.51	0.00
367.70	0.00
367.90	0.00
368.10	0.00
368.30	0.00
368.49	0.00
368.69	0.00
368.89	0.00
369.09	0.00
369.28	0.00
369.48	0.00
369.68	0.00
369.87	0.00
370.07	0.00
370.27	0.00
370.47	0.00
370.66	166.18
370.86	227.03
371.06	344.06
371.25	346.40
371.45	234.05
371.65	283.20
371.84	346.40
372.04	280.86
372.24	409.59
372.44	257.46
372.63	386.19
372.83	496.19
373.03	416.62
373.22	337.04
373.42	351.08
373.62	346.40
373.81	423.64
374.01	381.51
374.21	402.57
374.40	402.57
374.60	486.83
374.79	411.93
374.99	442.36
375.19	372.15
375.38	404.91
375.58	451.72
375.78	498.53
375.97	449.38
376.17	564.07
376.37	514.92
376.56	486.83
376.76	437.68
376.95	381.51
377.15	521.94
377.35	519.60
377.54	393.21
377.74	442.36
377.93	454.06
378.13	496.19
378.33	592.16
378.52	503.22
378.72	514.92
378.91	514.92
379.11	526.62
379.31	486.83
379.50	416.62
379.70	550.03
379.89	617.90
380.09	580.45
380.28	451.72
380.48	468.11
380.68	533.64
380.87	528.96
381.07	610.88
381.26	535.98
381.46	519.60
381.65	608.54
381.85	622.58
382.04	603.86
382.24	491.51
382.43	615.56
382.63	653.01
382.83	601.52
383.02	603.86
383.22	655.35
383.41	601.52
383.61	681.10
383.80	643.65
384.00	634.29
384.19	690.46
384.39	643.65
384.58	610.88
384.78	653.01
384.97	725.57
385.17	641.31
385.36	704.50
385.56	706.84
385.75	716.20
385.95	690.46
386.14	702.16
386.34	650.67
386.53	755.99
386.72	730.25
386.92	732.59
387.11	723.23
387.31	702.16
387.50	765.36
387.70	706.84
387.89	826.21
388.09	725.57
388.28	713.86
388.48	718.54
388.67	758.33
388.86	854.30
389.06	767.70
389.25	772.38
389.45	812.17
389.64	861.32
389.84	826.21
390.03	802.80
390.22	844.93
390.42	798.12
390.61	830.89
390.81	837.91
391.00	905.79
391.19	877.70
391.39	842.59
391.58	980.68
391.78	842.59
391.97	968.98
392.16	1001.75
392.36	933.87
392.55	1001.75
392.75	994.73
392.94	950.26
393.13	1057.92
393.33	1027.50
393.52	947.92
393.71	1081.33
393.91	1053.24
394.10	961.96
394.29	1050.90
394.49	1130.48
394.68	1100.05
394.88	1130.48
395.07	1114.10
395.26	1181.97
395.46	1064.94
395.65	1128.14
395.84	1160.91
396.04	1205.38
396.23	1170.27
396.42	1191.33
396.62	1181.97
396.81	1214.74
397.00	1203.04
397.19	1200.69
397.39	1212.40
397.58	1249.85
397.77	1214.74
397.97	1177.29
398.16	1306.02
398.35	1210.06
398.55	1214.74
398.74	1273.25
398.93	1299.00
399.12	1378.58
399.32	1313.04
399.51	1343.47
399.70	1306.02
399.90	1294.32
400.09	1380.92
400.28	1509.65
400.47	1390.28
400.67	1387.94
400.86	1483.90
401.05	1504.96
401.24	1563.48
401.44	1467.52
401.63	1551.78
401.82	1589.22
402.01	1476.88
402.21	1537.73
402.40	1488.58
402.59	1544.75
402.78	1556.46
402.97	1577.52
403.17	1631.35
403.36	1533.05
403.55	1584.54
403.74	1666.46
403.93	1659.44
404.13	1769.44
404.32	1750.72
404.51	1652.42
404.70	1629.01
404.89	1710.93
405.09	1799.87
405.28	1671.14
405.47	1741.36
405.66	1806.89
405.85	1823.28
406.05	1753.06
406.24	1921.58
406.43	1858.39
406.62	1944.99
406.81	1956.69
407.00	1891.15
407.20	1905.20
407.39	1944.99
407.58	2052.65
407.77	2005.84
407.96	2115.84
408.15	2076.06
408.34	2059.67
408.54	2047.97
408.73	2188.40
408.92	1973.07
409.11	2258.62
409.30	2181.38
409.49	2165.00
409.68	2256.28
409.87	2160.31
410.07	2303.09
410.26	2312.45
410.45	2338.20
410.64	2211.81
410.83	2249.25
411.02	2361.60
411.21	2495.01
411.40	2499.69
411.59	2448.20
411.78	2565.23
411.98	2455.22
412.17	2576.93
412.36	2567.57
412.55	2483.31
412.74	2658.85
412.93	2562.89
413.12	2637.78
413.31	2679.91
413.50	2722.04
413.69	2717.36
413.88	2813.32
414.07	2799.28
414.26	2794.60
414.45	2813.32
414.64	2904.60
414.83	2928.01
415.02	2979.50
415.22	3026.31
415.41	2944.39
415.60	3091.85
415.79	3164.40
415.98	3178.45
416.17	3035.67
416.36	3232.28
416.55	3229.94
416.74	3218.24
416.93	3246.32
417.12	3265.05
417.31	3468.67
417.50	3466.33
417.69	3375.05
417.88	3382.07
418.07	3433.57
418.26	3407.82
418.45	3538.89
418.64	3655.92
418.83	3630.17
419.02	3602.08
419.21	3618.47
419.39	3588.04
419.58	3691.02
419.77	3618.47
419.96	3693.37
420.15	3772.94
420.34	3688.68
420.53	3782.31
420.72	3824.44
420.91	3803.37
421.10	3866.56
421.29	4014.02
421.48	3719.11
421.67	4002.32
421.86	3918.06
422.05	3985.93
422.24	3971.89
422.43	3889.97
422.61	4032.74
422.80	3943.80
422.99	4063.17
423.18	3936.78
423.37	4196.58
423.56	4128.70
423.75	3922.74
423.94	3957.85
424.13	3875.93
424.32	3831.46
424.50	4051.47
424.69	4095.94
424.88	4105.30
425.07	4046.79
425.26	3936.78
425.45	4065.51
425.64	4065.51
425.83	3908.69
426.01	4212.96
426.20	4198.92
426.39	4180.20
426.58	4161.47
426.77	4208.28
426.96	4273.82
427.15	4320.63
427.33	4248.07
427.52	4292.54
427.71	4306.59
427.90	4297.22
428.09	4294.88
428.28	4388.50
428.46	4372.12
428.65	4526.60
428.84	4519.57
429.03	4674.05
429.22	4395.53
429.40	4613.20
429.59	4472.76
429.78	4250.41
429.97	4313.61
430.16	4589.79
430.34	4561.70
430.53	4706.82
430.72	4657.67
430.91	4676.39
431.10	4650.64
431.28	4678.73
431.47	4821.50
431.66	4898.74
431.85	4835.55
432.03	4840.23
432.22	5027.47
432.41	4837.89
432.60	5083.64
432.79	4901.08
432.97	4912.78
433.16	4856.61
433.35	4870.65
433.54	5011.09
433.72	4940.87
433.91	5097.69
434.10	5067.26
434.28	5123.43
434.47	5205.35
434.66	5240.46
434.85	5121.09
435.03	5156.20
435.22	5118.75
435.41	5612.60
435.59	5331.74
435.78	5280.25
435.97	5322.38
436.16	5425.36
436.34	5369.19
436.53	5273.23
436.72	5439.40
436.90	5401.96
437.09	5605.58
437.28	5406.64
437.46	5561.11
437.65	5589.20
437.84	5703.89
438.02	5465.15
438.21	5504.94
438.40	5521.32
438.58	5788.14
438.77	5832.62
438.96	5731.97
439.14	5888.79
439.33	5984.75
439.52	5998.79
439.70	6052.63
439.89	6064.33
440.08	6289.02
440.26	6207.10
440.45	6225.82
440.63	6225.82
440.82	6282.00
441.01	6389.66
441.19	6525.41
441.38	6352.21
441.57	6424.77
441.75	6282.00
441.94	6679.89
442.12	6656.48
442.31	6738.40
442.50	6630.74
442.68	6719.68
442.87	6628.40
443.05	6764.15
443.24	6853.09
443.43	6799.26
443.61	6712.66
443.80	7173.74
443.98	6803.94
444.17	6675.21
444.35	6951.39
444.54	6988.84
444.73	6988.84
444.91	7087.14
445.10	6773.51
445.28	6991.18
445.47	6846.07
445.65	7000.54
445.84	6995.86
446.02	6977.14
446.21	7019.27
446.39	6864.79
446.58	6977.14
446.77	7087.14
446.95	6888.20
447.14	7080.12
447.32	7045.01
447.51	7047.35
447.69	6911.60
447.88	7101.19
448.06	7176.08
448.25	7133.95
448.43	7136.29
448.62	7042.67
448.80	7213.53
448.99	7274.38
449.17	7208.85
449.36	7155.02
449.54	7377.37
449.73	7510.78
449.91	7503.76
450.10	7499.08
450.28	7611.42
450.46	7461.63
450.65	7618.44
450.83	7421.84
451.02	7623.12
451.20	7681.64
451.39	7613.76
451.57	7602.06
451.76	7733.13
451.94	7775.26
452.13	7871.22
452.31	7777.60
452.49	7585.68
452.68	7674.62
452.86	7735.47
453.05	7850.16
453.23	7747.17
453.42	7660.57
453.60	7751.85
453.78	7831.43
453.97	7730.79
454.15	7648.87
454.34	7861.86
454.52	7932.08
454.70	7772.92
454.89	8051.44
455.07	7974.21
455.26	8100.59
455.44	8124.00
455.62	8147.40
455.81	8138.04
455.99	8238.69
456.17	8250.39
456.36	8383.80
456.54	8475.08
456.73	8519.55
456.91	8636.58
457.09	8554.66
457.28	8805.10
457.46	8566.36
457.64	8664.66
457.83	8755.94
458.01	8676.37
458.19	8819.14
458.38	8903.40
458.56	8938.51
458.74	8901.06
458.93	9036.81
459.11	8774.67
459.29	8954.89
459.48	8870.63
459.66	8997.02
459.84	9142.13
460.03	9312.99
460.21	8997.02
460.39	9111.71
460.57	9057.87
460.76	9224.05
460.94	9146.81
461.12	9238.09
461.31	9453.42
461.49	9284.91
461.67	9270.86
461.85	9753.01
462.04	9511.94
462.22	9839.61
462.40	9371.50
462.59	9518.96
462.77	9554.07
462.95	9591.52
463.13	9699.18
463.32	9530.66
463.50	9682.80
463.68	9661.73
463.86	9666.41
464.05	9570.45
464.23	9364.48
464.41	9839.61
464.59	9867.70
464.78	9858.34
464.96	9963.66
465.14	9818.55
465.32	9872.38
465.50	10031.54
465.69	9954.30
465.87	9848.97
466.05	9900.47
466.23	10015.15
466.41	9919.19
466.60	10429.43
466.78	9968.34
466.96	10148.56
467.14	9958.98
467.32	9827.91
467.51	10347.51
467.69	9818.55
467.87	10272.61
468.05	10186.01
468.23	10377.94
468.41	10427.09
468.60	10380.28
468.78	10356.87
468.96	10265.59
469.14	10478.58
469.32	10633.05
469.50	10459.85
469.69	10864.77
469.87	10953.71
470.05	10841.36
470.23	10803.91
470.41	10553.48
470.59	10942.00
470.77	10497.30
470.95	11007.54
471.14	11101.16
471.32	10939.66
471.50	11201.80
471.68	11398.41
471.86	11126.91
472.04	11215.85
472.22	11637.14
472.40	11187.76
472.58	11360.96
472.77	11536.50
472.95	11492.03
473.13	12023.33
473.31	11726.08
473.49	11541.18
473.67	11662.89
473.85	11782.26
474.03	12051.42
474.21	11709.70
474.39	12074.82
474.57	12058.44
474.75	12411.86
474.93	12381.43
475.12	12224.62
475.30	12425.90
475.48	12231.64
475.66	12421.22
475.84	12489.10
476.02	12767.62
476.20	12578.04
476.38	12994.65
476.56	13217.01
476.74	13008.70
476.92	13074.23
477.10	12959.55
477.28	13135.09
477.46	13238.07
477.64	13521.27
477.82	13081.25
478.00	13809.16
478.18	13762.35
478.36	13998.74
478.54	14087.68
478.72	14106.41
478.90	14029.17
479.08	14281.95
479.26	14333.44
479.44	14389.61
479.62	14675.16
479.80	14745.38
479.98	14871.76
480.16	15124.54
480.34	15014.54
480.52	14991.13
480.70	15321.15
480.88	14906.87
481.06	15440.51
481.24	15398.38
481.41	15449.88
481.59	15885.22
481.77	15929.69
481.95	16217.57
482.13	16152.04
482.31	16362.69
482.49	16390.77
482.67	16706.74
482.85	16912.71
483.03	16849.52
483.21	17111.66
483.39	17053.14
483.57	17067.19
483.74	17256.77
483.92	17490.82
484.10	17186.55
484.28	17607.85
484.46	17851.27
484.64	18101.70
484.82	17912.12
485.00	18274.90
485.18	18604.92
485.35	18579.17
485.53	19098.77
485.71	18782.80
485.89	19051.96
486.07	19061.32
486.25	19201.76
486.43	19253.25
486.61	19536.45
486.78	19674.54
486.96	19786.89
487.14	19807.95
487.32	20210.53
487.50	20088.82
487.68	20395.43
487.85	20601.40
488.03	20893.96
488.21	21268.45
488.39	21195.89
488.57	21249.72
488.75	21390.16
488.92	21731.87
489.10	21905.07
489.28	21664.00
489.46	21907.41
489.64	22401.27
489.81	22265.52
489.99	22494.89
490.17	22438.72
490.35	22965.34
490.53	23084.70
490.70	23194.71
490.88	23168.96
491.06	23793.89
491.24	23082.36
491.41	23726.01
491.59	23571.54
491.77	23861.76
491.95	24334.55
492.13	24353.27
492.30	24311.14
492.48	24645.84
492.66	24788.61
492.84	24615.41
493.01	25001.60
493.19	25163.10
493.37	25355.02
493.54	25563.33
493.72	25556.31
493.90	25652.27
494.08	25603.12
494.25	26066.55
494.43	26174.21
494.61	26665.72
494.79	26607.21
494.96	26494.86
495.14	26808.50
495.32	26876.37
495.49	26906.80
495.67	27152.55
495.85	27246.18
496.02	27653.43
496.20	27573.85
496.38	27391.29
496.55	27627.68
496.73	28217.50
496.91	28224.52
497.09	28477.30
497.26	28582.62
497.44	28278.35
497.62	28568.58
497.79	29219.25
497.97	29244.99
498.14	29230.95
498.32	29586.71
498.50	29762.25
498.67	29617.14
498.85	29556.28
499.03	29979.92
499.20	29900.34
499.38	29802.04
499.56	30298.23
499.73	30380.15
499.91	30293.55
500.08	30504.20
500.26	30403.56
500.44	30490.16
500.61	30635.27
500.79	30654.00
500.97	31292.96
501.14	31466.16
501.32	31213.38
501.49	31409.99
501.67	31559.78
501.84	31512.97
502.02	31461.48
502.20	31583.19
502.37	32217.47
502.55	32226.84
502.72	31868.73
502.90	32161.30
503.07	31833.63
503.25	32261.94
503.43	32226.84
503.60	32505.36
503.78	32655.15
503.95	32776.86
504.13	32889.21
504.30	33029.64
504.48	32833.04
504.65	33109.22
504.83	33493.07
505.01	33591.37
505.18	33490.73
505.36	33741.16
505.53	33511.79
505.71	33387.74
505.88	34068.84
506.06	33628.82
506.23	34249.06
506.41	34047.77
506.58	34426.94
506.76	34614.18
506.93	34492.47
507.11	34249.06
507.28	34199.91
507.46	34532.26
507.63	34927.81
507.81	35093.99
507.98	34916.11
508.16	35019.10
508.33	35000.37
508.50	35229.74
508.68	34986.33
508.85	35496.56
509.03	35487.20
509.20	35814.88
509.38	36023.19
509.55	35988.08
509.73	36030.21
509.90	36348.52
510.08	36641.09
510.25	36416.40
510.42	36411.71
510.60	36655.13
510.77	36926.63
510.95	36624.70
511.12	36788.54
511.30	36601.30
511.47	37095.15
511.64	36690.24
511.82	37577.30
511.99	37691.99
512.17	37612.41
512.34	37446.23
512.51	37614.75
512.69	37804.33
512.86	37525.81
513.04	38384.79
513.21	38359.04
513.38	38377.76
513.56	38487.77
513.73	38029.02
513.90	38447.98
514.08	38515.86
514.25	38817.78
514.43	38504.15
514.60	38623.52
514.77	38969.92
514.95	38707.78
515.12	38560.33
515.29	38834.17
515.47	39009.71
515.64	39426.32
515.81	39325.68
515.99	38925.45
516.16	40233.81
516.33	39679.10
516.51	39779.74
516.68	39592.50
516.85	39611.23
517.03	40156.57
517.20	39964.65
517.37	40287.64
517.54	40245.51
517.72	40116.78
517.89	40605.95
518.06	40140.19
518.24	40669.15
518.41	40594.25
518.58	40655.11
518.75	40479.57
518.93	41181.73
519.10	40975.76
519.27	40898.52
519.45	40987.46
519.62	41067.04
519.79	41216.83
519.96	41450.89
520.14	41895.59
520.31	41462.59
520.48	41603.02
520.65	41706.01
520.83	41724.73
521.00	41291.73
521.17	41670.90
521.34	41724.73
521.52	41486.00
521.69	41642.81
521.86	42588.39
522.03	42525.19
522.20	42597.75
522.38	42330.93
522.55	42223.26
522.72	42440.93
522.89	42426.89
523.07	42820.10
523.24	42843.51
523.41	43075.22
523.58	42677.33
523.75	42850.53
523.92	42904.36
524.10	42866.91
524.27	43323.32
524.44	43232.04
524.61	43737.59
524.78	43775.04
524.96	43775.04
525.13	43622.90
525.30	44025.48
525.47	44002.07
525.64	43709.50
525.81	43634.61
525.98	44126.12
526.16	44304.00
526.33	43742.27
526.50	44460.82
526.67	43871.00
526.84	43800.79
527.01	44121.44
527.18	44397.62
527.36	44851.69
527.53	44526.35
527.70	44917.22
527.87	45083.40
528.04	45010.84
528.21	45081.06
528.38	44456.14
528.55	45076.38
528.72	45216.81
528.89	44996.80
529.07	45207.45
529.24	44865.73
529.41	44935.95
529.58	44708.91
529.75	44959.35
529.92	45387.67
530.09	45357.24
530.26	45600.66
530.43	45443.84
530.60	45485.97
530.77	45727.05
530.94	45858.12
531.11	45359.58
531.28	45322.13
531.46	45373.63
531.63	46256.01
531.80	46195.15
531.97	46167.07
532.14	46698.37
532.31	46267.71
532.48	45689.60
532.65	46403.46
532.82	45736.41
532.99	46529.85
533.16	46164.73
533.33	46747.52
533.50	47002.64
533.67	46457.29
533.84	46445.59
534.01	46789.65
534.18	46663.26
534.35	46993.28
534.52	46209.20
534.69	46827.10
534.86	47210.95
535.03	46946.47
535.20	47122.01
535.37	47323.29
535.54	47136.05
535.71	47096.26
535.88	47033.07
536.05	46880.93
536.22	47657.99
536.38	47566.71
536.55	47175.84
536.72	47639.26
536.89	47206.26
537.06	47253.08
537.23	47599.47
537.40	47557.35
537.57	47529.26
537.74	47746.93
537.91	48133.12
538.08	48296.95
538.25	47924.81
538.42	47973.96
538.59	47936.51
538.75	47585.43
538.92	47845.23
539.09	48137.80
539.26	48208.01
539.43	48076.94
539.60	48444.41
539.77	48320.36
539.94	48446.75
540.11	48086.31
540.28	48573.14
540.44	48444.41
540.61	48383.55
540.78	48573.14
540.95	48369.51
541.12	48486.54
541.29	48175.25
541.46	48502.92
541.62	48673.78
541.79	48907.83
541.96	48018.43
542.13	48573.14
542.30	48872.73
542.47	48765.06
542.63	48893.79
542.80	48924.22
542.97	49284.66
543.14	49481.27
543.31	49151.25
543.48	49453.18
543.64	49490.63
543.81	49593.61
543.98	49844.05
544.15	49588.93
544.32	49876.82
544.48	49876.82
544.65	49652.12
544.82	49457.86
544.99	49600.63
545.16	49565.52
545.32	49656.81
545.49	50424.50
545.66	50412.80
545.83	49698.94
546.00	50087.46
546.16	49907.24
546.33	49895.54
546.50	49584.25
546.67	50010.23
546.83	49352.54
547.00	50092.15
547.17	50239.60
547.34	50199.81
547.50	50277.05
547.67	50424.50
547.84	50085.12
548.00	50176.40
548.17	50475.99
548.34	50066.40
548.51	50838.78
548.67	50457.27
548.84	50258.32
549.01	50412.80
549.18	50583.66
549.34	50642.17
549.51	50272.37
549.68	50632.81
549.84	50321.52
550.01	50822.39
550.18	50576.64
550.34	50955.80
550.51	51000.27
550.68	50782.60
550.84	50443.23
551.01	50880.91
551.18	50834.10
551.34	50445.57
551.51	50953.46
551.68	50555.57
551.84	51030.70
552.01	50536.85
552.18	51056.45
552.34	50955.80
552.51	50885.59
552.68	50841.12
552.84	51002.61
553.01	51107.94
553.18	50979.21
553.34	51065.81
553.51	51063.47
553.67	51341.99
553.84	51625.20
554.01	51341.99
554.17	51227.31
554.34	51239.01
554.51	51196.88
554.67	51550.30
554.84	51049.42
555.00	51379.44
555.17	51358.38
555.33	51409.87
555.50	51292.84
555.67	51358.38
555.83	51416.89
556.00	51606.47
556.16	51868.61
556.33	51540.94
556.50	51709.46
556.66	52023.09
556.83	51538.60
556.99	52009.04
557.16	51751.59
557.32	51870.95
557.49	51945.85
557.65	51442.63
557.82	51456.68
557.98	51533.92
558.15	51845.21
558.32	52004.36
558.48	51873.29
558.65	52044.15
558.81	52097.98
558.98	52088.62
559.14	51824.14
559.31	51833.50
559.47	51709.46
559.64	51959.89
559.80	52287.57
559.97	52177.56
560.13	51639.24
560.30	51812.44
560.46	52076.92
560.63	52030.11
560.79	52105.01
560.96	52025.43
561.12	52420.98
561.29	52093.30
561.45	52144.80
561.61	52404.59
561.78	52186.92
561.94	52404.59
562.11	52060.54
562.27	52161.18
562.44	52034.79
562.60	52081.60
562.77	52168.20
562.93	52009.04
563.10	52432.68
563.26	52308.63
563.42	52615.24
563.59	52334.38
563.75	52261.82
563.92	52502.90
564.08	52067.56
564.24	52175.22
564.41	52294.59
564.57	51826.48
564.74	52090.96
564.90	52299.27
565.07	52390.55
565.23	52626.95
565.39	52325.02
565.56	52353.10
565.72	52404.59
565.88	52474.81
566.05	52079.26
566.21	51973.94
566.38	52364.81
566.54	52299.27
566.70	52870.36
566.87	52753.33
567.03	52465.45
567.19	52577.79
567.36	52542.69
567.52	52327.36
567.68	52442.04
567.85	52275.87
568.01	52547.37
568.17	52259.48
568.34	52507.58
568.50	52626.95
568.66	52552.05
568.83	52640.99
568.99	52261.82
569.15	52488.85
569.32	52303.95
569.48	52376.51
569.64	52619.92
569.81	52467.79
569.97	52198.63
570.13	52556.73
570.30	52460.77
570.46	52591.84
570.62	52666.73
570.78	52357.78
570.95	52547.37
571.11	52568.43
571.27	52229.05
571.43	52479.49
571.60	52727.59
571.76	52736.95
571.92	52683.12
572.09	52758.02
572.25	52823.55
572.41	52608.22
572.57	52835.25
572.74	52788.44
572.90	52809.51
573.06	52736.95
573.22	52640.99
573.38	52863.34
573.55	52839.93
573.71	52648.01
573.87	53083.35
574.03	52633.97
574.20	52694.82
574.36	52486.51
574.52	52612.90
574.68	52540.35
574.84	52563.75
575.01	52910.15
575.17	52704.18
575.33	52638.65
575.49	52879.72
575.65	52767.38
575.82	52980.37
575.98	52683.12
576.14	53130.16
576.30	52921.85
576.46	52463.11
576.62	52479.49
576.79	52549.71
576.95	52428.00
577.11	52659.71
577.27	52727.59
577.43	52615.24
577.59	52938.24
577.75	52741.63
577.92	52631.63
578.08	52664.39
578.24	52631.63
578.40	52596.52
578.56	52797.80
578.72	52779.08
578.88	52790.78
579.04	52954.62
579.21	53097.39
579.37	53116.12
579.53	52963.98
579.69	52725.25
579.85	52608.22
580.01	52519.28
580.17	52491.19
580.33	52898.45
580.49	52687.80
580.65	52802.49
580.82	52945.26
580.98	52746.31
581.14	52563.75
581.30	52786.10
581.46	52903.13
581.62	52645.67
581.78	52458.43
581.94	52762.70
582.10	52662.05
582.26	52910.15
582.42	53059.94
582.58	52865.68
582.74	53153.57
582.90	53045.90
583.06	52839.93
583.22	52877.38
583.38	52615.24
583.54	52622.26
583.70	52570.77
583.86	52774.40
584.02	52741.63
584.18	53127.82
584.34	53169.95
584.50	53158.25
584.66	52891.43
584.82	52671.42
584.98	53017.82
585.14	52858.66
585.30	52788.44
585.46	52800.15
585.62	52868.02
585.78	52739.29
585.94	52619.92
586.10	52818.87
586.26	52931.22
586.42	52718.23
586.58	53055.26
586.74	52884.40
586.90	52617.58
587.06	52898.45
587.22	52570.77
587.38	52818.87
587.54	52968.66
587.70	53071.65
587.86	53118.46
588.02	53092.71
588.18	53118.46
588.34	53310.38
588.49	52629.29
588.65	52758.02
588.81	52662.05
588.97	53006.11
589.13	52966.32
589.29	52793.12
589.45	53237.83
589.61	52842.27
589.77	53254.21
589.93	53205.06
590.08	53052.92
590.24	52753.33
590.40	53202.72
590.56	53385.28
590.72	52999.09
590.88	52956.96
591.04	52800.15
591.20	53127.82
591.35	53216.76
591.51	53441.45
591.67	53263.57
591.83	53223.78
591.99	53212.08
592.15	52973.34
592.31	53020.16
592.46	52711.20
592.62	53029.52
592.78	53242.51
592.94	52973.34
593.10	52797.80
593.26	53368.90
593.41	53408.68
593.57	53095.05
593.73	53422.73
593.89	53521.03
594.05	52919.51
594.20	52942.92
594.36	53165.27
594.52	52900.79
594.68	52893.77
594.84	52907.81
594.99	53141.86
595.15	53176.97
595.31	53502.31
595.47	53183.99
595.62	53216.76
595.78	53073.99
595.94	52987.39
596.10	53368.90
596.25	53127.82
596.41	53010.79
596.57	52816.53
596.73	53090.37
596.88	53153.57
597.04	53244.85
597.20	53176.97
597.36	53162.93
597.51	53387.62
597.67	53123.14
597.83	53010.79
597.99	53181.65
598.14	53104.41
598.30	53202.72
598.46	53076.33
598.61	53146.54
598.77	52910.15
598.93	53343.15
599.09	53146.54
599.24	53504.65
599.40	53099.73
599.56	53301.02
599.71	53209.74
599.87	53069.31
600.03	53249.53
600.18	53265.91
600.34	53003.77
600.50	53130.16
600.65	53240.17
600.81	53219.10
600.97	53195.70
601.12	53394.64
601.28	52992.07
601.44	53205.06
601.59	53235.48
601.75	53144.20
601.91	53123.14
602.06	53052.92
602.22	53130.16
602.37	52842.27
602.53	53137.18
602.69	53312.72
602.84	52978.03
603.00	53191.01
603.16	52966.32
603.31	53066.97
603.47	53076.33
603.62	52870.36
603.78	52725.25
603.94	52987.39
604.09	53083.35
604.25	52734.61
604.40	52989.73
604.56	53301.02
604.71	53226.12
604.87	53102.07
605.03	53181.65
605.18	53088.03
605.34	53059.94
605.49	52624.60
605.65	53050.58
605.80	52853.98
605.96	52715.89
606.12	52739.29
606.27	52975.69
606.43	52982.71
606.58	52910.15
606.74	53041.22
606.89	53109.10
607.05	52992.07
607.20	53015.47
607.36	52584.82
607.51	52563.75
607.67	52474.81
607.82	52589.50
607.98	52673.76
608.13	52626.95
608.29	52856.32
608.44	52989.73
608.60	52963.98
608.75	53029.52
608.91	53041.22
609.06	52832.91
609.22	52938.24
609.37	52563.75
609.53	52631.63
609.68	52561.41
609.84	52596.52
609.99	52523.96
610.15	52573.11
610.30	52538.01
610.46	52542.69
610.61	52662.05
610.76	52479.49
610.92	52556.73
611.07	52708.86
611.23	52523.96
611.38	52746.31
611.54	52526.30
611.69	52411.62
611.84	52175.22
612.00	52439.70
612.15	52449.06
612.31	52633.97
612.46	52552.05
612.62	52828.23
612.77	52512.26
612.92	52809.51
613.08	52479.49
613.23	52296.93
613.39	52191.61
613.54	52109.69
613.69	52336.72
613.85	52282.89
614.00	52575.45
614.15	52369.49
614.31	52215.01
614.46	52317.99
614.62	52165.86
614.77	52376.51
614.92	52580.13
615.08	52100.32
615.23	52179.90
615.38	52177.56
615.54	51819.46
615.69	51807.76
615.84	51676.69
616.00	52039.47
616.15	51786.69
616.30	52303.95
616.46	52079.26
616.61	51922.44
616.76	52317.99
616.92	51873.29
617.07	51807.76
617.22	51653.28
617.37	51770.31
617.53	52130.75
617.68	51983.30
617.83	51405.19
617.99	51810.10
618.14	51636.90
618.29	51803.08
618.45	51569.02
618.60	51852.23
618.75	51866.27
618.90	51554.98
619.06	51519.87
619.21	51807.76
619.36	51854.57
619.51	51512.85
619.67	51480.08
619.82	51028.36
619.97	51444.98
620.12	51365.40
620.28	51161.77
620.43	51470.72
620.58	51650.94
620.73	51597.11
620.89	51543.28
621.04	51524.55
621.19	51737.54
621.34	51400.50
621.49	51030.70
621.65	51231.99
621.80	51430.93
621.95	50801.33
622.10	51377.10
622.25	51180.49
622.41	51075.17
622.56	51332.63
622.71	51590.09
622.86	51196.88
623.01	51056.45
623.16	51391.14
623.32	51236.67
623.47	50810.69
623.62	51208.58
623.77	50703.03
623.92	51133.68
624.07	50607.06
624.23	51114.96
624.38	51180.49
624.53	51044.74
624.68	51100.92
624.83	50892.61
624.98	50749.84
625.13	50906.65
625.29	50644.51
625.44	50834.10
625.59	50674.94
625.74	50174.06
625.89	50335.56
626.04	50763.88
626.19	50260.66
626.34	50555.57
626.49	50206.83
626.65	50286.41
626.80	50710.05
626.95	50485.36
627.10	50468.97
627.25	50607.06
627.40	50361.31
627.55	50546.21
627.70	50141.30
627.85	49722.34
628.00	50103.85
628.15	50550.89
628.30	50174.06
628.45	50185.77
628.60	50040.65
628.76	49984.48
628.91	50358.97
629.06	49790.22
629.21	50010.23
629.36	50188.11
629.51	49846.39
629.66	49928.31
629.81	50021.93
629.96	49930.65
630.11	49694.25
630.26	49750.43
630.41	49394.67
630.56	49715.32
630.71	49687.23
630.86	49759.79
631.01	49595.95
631.16	50099.17
631.31	49738.72
631.46	49647.44
631.61	49808.94
631.76	49532.76
631.91	49514.03
632.06	49598.29
632.21	49490.63
632.36	49488.29
632.51	49099.76
632.66	49287.00
632.81	49315.09
632.96	49911.92
633.10	49949.37
633.25	49532.76
633.40	49600.63
633.55	49511.69
633.70	49228.49
633.85	48905.49
634.00	49167.63
634.15	49130.19
634.30	49237.85
634.45	49247.21
634.60	49303.38
634.75	48945.28
634.90	49226.15
635.05	48982.73
635.19	49155.93
635.34	49233.17
635.49	49184.02
635.64	49022.52
635.79	48900.81
635.94	48765.06
636.09	48701.87
636.24	48961.67
636.39	48512.28
636.53	48945.28
636.68	49041.24
636.83	48622.29
636.98	49097.42
637.13	48493.56
637.28	48631.65
637.43	49052.95
637.57	48772.08
637.72	48465.47
637.87	48566.12
638.02	48825.92
638.17	48676.12
638.32	48219.72
638.46	48406.96
638.61	48151.84
638.76	48250.14
638.91	48156.52
639.06	48245.46
639.20	48271.21
639.35	48193.97
639.50	48130.78
639.65	48325.04
639.80	48250.14
639.94	47985.66
640.09	48175.25
640.24	47845.23
640.39	48030.13
640.54	47580.75
640.68	47739.91
640.83	47407.55
640.98	47955.24
641.13	47449.68
641.27	47915.45
641.42	47416.91
641.57	47531.60
641.72	47702.46
641.86	47461.38
642.01	47838.21
642.16	47625.22
642.31	47136.05
642.45	47751.61
642.60	47878.00
642.75	47545.64
642.90	47428.62
643.04	47285.84
643.19	47320.95
643.34	47391.17
643.48	47327.97
643.63	47641.60
643.78	47646.29
643.93	47674.37
644.07	47648.63
644.22	47763.31
644.37	47398.19
644.51	47482.45
644.66	47615.86
644.81	47332.65
644.95	47028.38
645.10	46726.46
645.25	47250.74
645.39	46906.68
645.54	47187.54
645.69	47002.64
645.83	47063.49
645.98	47143.07
646.13	47182.86
646.27	47007.32
646.42	47253.08
646.57	46899.65
646.71	47070.51
646.86	46990.94
647.00	46834.12
647.15	46836.46
647.30	46597.73
647.44	46274.73
647.59	46513.47
647.74	46408.14
647.88	46494.74
648.03	46747.52
648.17	46726.46
648.32	46855.18
648.47	46946.47
648.61	46728.80
648.76	46927.74
648.90	46473.68
649.05	46398.78
649.20	46555.60
649.34	46012.59
649.49	46061.74
649.63	46342.61
649.78	46237.28
649.92	46490.06
650.07	46560.28
650.21	46113.23
650.36	46419.84
650.51	46415.16
650.65	46384.74
650.80	46761.56
650.94	46174.09
651.09	45965.78
651.23	46277.07
651.38	46136.64
651.52	45818.33
651.67	46253.67
651.81	46050.04
651.96	45895.56
652.10	45542.14
652.25	45731.73
652.39	45991.53
652.54	46038.34
652.68	45801.94
652.83	46014.93
652.97	46003.23
653.12	45944.72
653.26	45851.09
653.41	45460.23
653.55	45139.57
653.70	45244.90
653.84	45612.36
653.99	45687.26
654.13	45715.34
654.27	45083.40
654.42	45483.63
654.56	45427.46
654.71	45380.65
654.85	45251.92
655.00	45755.13
655.14	45647.47
655.29	45390.01
655.43	45155.96
655.57	45448.52
655.72	45453.20
655.86	45244.90
656.01	44694.87
656.15	44814.24
656.30	44746.36
656.44	44650.40
656.58	44657.42
656.73	44928.92
656.87	44575.50
657.01	44952.33
657.16	45390.01
657.30	44678.49
657.45	45024.89
657.59	45284.68
657.73	44882.11
657.88	44538.05
658.02	44734.66
658.16	44158.89
658.31	44481.88
658.45	44444.43
658.60	44308.68
658.74	44493.58
658.88	44296.98
659.03	44367.20
659.17	44287.62
659.31	44224.42
659.46	44048.88
659.60	44308.68
659.74	44170.59
659.89	44191.65
660.03	44481.88
660.17	43959.94
660.32	43529.28
660.46	43583.12
660.60	43449.70
660.74	43725.89
660.89	43548.01
661.03	43295.23
661.17	43402.89
661.32	43086.92
661.46	43592.48
661.60	43318.64
661.74	43761.00
661.89	43461.41
662.03	43693.12
662.17	43391.19
662.31	43281.19
662.46	43360.76
662.60	43590.14
662.74	43000.32
662.88	43063.52
663.03	42916.06
663.17	42761.59
663.31	42171.77
663.45	42593.07
663.60	42782.65
663.74	42721.80
663.88	42792.01
664.02	42450.30
664.17	42281.78
664.31	42784.99
664.45	42398.80
664.59	42581.37
664.73	42328.59
664.88	42579.03
665.02	42050.06
665.16	41975.17
665.30	42110.92
665.44	42139.00
665.59	41394.71
665.73	41486.00
665.87	41546.85
666.01	41581.96
666.15	42295.82
666.29	41560.89
666.44	41750.48
666.58	41584.30
666.72	41734.09
666.86	41668.56
667.00	41448.55
667.14	41263.64
667.28	41464.93
667.43	41455.57
667.57	41233.22
667.71	41060.02
667.85	40671.49
667.99	40830.65
668.13	41282.37
668.27	40711.28
668.41	40556.80
668.56	40662.13
668.70	40591.91
668.84	40634.04
668.98	40236.15
669.12	40409.35
669.26	40308.71
669.40	40161.25
669.54	40172.96
669.68	40378.92
669.82	39711.87
669.96	39995.07
670.10	39899.11
670.25	40341.47
670.39	40261.90
670.53	39276.53
670.67	39840.60
670.81	39810.17
670.95	40018.48
671.09	39845.28
671.23	39681.44
671.37	39578.46
671.51	39920.18
671.65	39807.83
671.79	39653.36
671.93	38693.74
672.07	39487.18
672.21	39416.96
672.35	38618.84
672.49	38899.70
672.63	39103.33
672.77	38621.18
672.91	39002.69
673.05	38597.77
673.19	38487.77
673.33	38565.01
673.47	38841.19
673.61	38424.57
673.75	38036.05
673.89	38029.02
674.03	38157.75
674.17	38270.10
674.31	38361.38
674.45	37612.41
674.59	37979.87
674.73	37610.07
674.87	37502.40
675.01	37539.85
675.15	37413.46
675.29	37432.19
675.43	37212.18
675.56	36655.13
675.70	37017.91
675.84	37392.40
675.98	36297.03
676.12	37308.14
676.26	37170.05
676.40	37048.34
676.54	36755.77
676.68	36472.57
676.82	35737.64
676.96	35938.93
677.10	35988.08
677.23	36182.34
677.37	35707.21
677.51	35754.02
677.65	35337.41
677.79	35047.18
677.93	35168.89
678.07	35709.55
678.21	34948.88
678.34	35281.24
678.48	35126.76
678.62	35079.95
678.76	34747.59
678.90	34895.05
679.04	34279.49
679.18	35236.77
679.31	34101.61
679.45	34038.41
679.59	33979.90
679.73	34003.30
679.87	34391.83
680.00	34108.63
680.14	34242.04
680.28	33869.89
680.42	34040.75
680.56	34071.18
680.70	33584.35
680.83	34307.57
680.97	33591.37
681.11	33593.71
681.25	33408.81
681.39	33462.64
681.52	33235.61
681.66	32952.40
681.80	33151.35
681.94	32676.22
682.07	32636.43
682.21	32526.42
682.35	31941.29
682.49	32198.75
682.62	31800.86
682.76	32077.04
682.90	31314.03
683.04	31896.82
683.17	31927.25
683.31	31765.75
683.45	31908.52
683.59	31187.64
683.72	31260.20
683.86	31220.41
684.00	30693.79
684.13	31381.90
684.27	31040.18
684.41	31016.78
684.55	30190.57
684.68	30958.27
684.82	30291.21
684.96	30333.34
685.09	30153.12
685.23	30288.87
685.37	30284.19
685.50	30366.11
685.64	30103.97
685.78	29954.18
685.91	30331.00
686.05	30085.25
686.19	29708.42
686.32	30188.23
686.46	29582.03
686.60	28830.72
686.73	29518.84
686.87	28617.73
687.01	28912.64
687.14	28940.72
687.28	28671.56
687.42	28472.62
687.55	28325.16
687.69	28304.10
687.82	28196.43
687.96	28435.17
688.10	28231.54
688.23	28804.97
688.37	28311.12
688.50	27779.82
688.64	27948.34
688.78	27903.87
688.91	27276.60
689.05	27821.95
689.18	27431.08
689.32	26864.67
689.46	26897.44
689.59	27133.83
689.73	26820.20
689.86	26941.91
690.00	26948.93
690.13	26796.79
690.27	26586.15
690.41	26747.64
690.54	26380.18
690.68	26747.64
690.81	26586.15
690.95	26307.62
691.08	26422.31
691.22	26118.04
691.35	26312.30
691.49	26106.34
691.62	25736.53
691.76	25275.45
691.89	25528.22
692.03	24868.19
692.16	25378.43
692.30	25050.75
692.43	24732.44
692.57	25238.00
692.70	24821.38
692.84	24559.24
692.97	24746.48
693.11	24779.25
693.24	24566.26
693.38	24896.28
693.51	24816.70
693.65	24758.19
693.78	24357.96
693.92	24435.19
694.05	24360.30
694.19	23662.82
694.32	23920.28
694.45	23845.38
694.59	23372.59
694.72	23562.17
694.86	23496.64
694.99	23042.57
695.13	23126.83
695.26	23236.84
695.39	22621.28
695.53	23459.19
695.66	22988.74
695.80	23091.73
695.93	23456.85
696.07	22766.39
696.20	22609.58
696.33	22492.55
696.47	22522.98
696.60	22410.63
696.73	22129.77
696.87	21975.29
697.00	22080.61
697.14	21909.75
697.27	21511.86
697.40	21785.71
697.54	21561.02
697.67	21385.47
697.80	21467.39
697.94	21060.14
698.07	21015.67
698.21	20919.71
698.34	20959.50
698.47	21008.65
698.61	21067.16
698.74	21125.68
698.87	21008.65
699.01	20865.88
699.14	20552.24
699.27	20423.51
699.40	20549.90
699.54	20301.81
699.67	19859.45
699.80	20065.41
699.94	20180.10
700.07	20133.29
700.20	19627.73
700.34	19747.10
700.47	19805.61
700.60	19751.78
700.73	19831.36
700.87	19339.85
701.00	19257.93
701.13	19527.09
701.26	19253.25
701.40	19253.25
701.53	19314.10
701.66	19058.98
701.79	19143.24
701.93	18796.84
702.06	18604.92
702.19	18544.06
702.32	18483.21
702.46	18572.15
702.59	18490.23
702.72	18015.10
702.85	18155.54
702.99	17867.65
703.12	18270.22
703.25	17657.00
703.38	17809.14
703.51	17661.68
703.65	17755.30
703.78	17804.46
703.91	17706.15
704.04	17603.17
704.17	17563.38
704.31	17284.86
704.44	17163.15
704.57	17263.79
704.70	16835.47
704.83	17022.72
704.96	17074.21
705.10	16702.06
705.23	16671.64
>>>>>End Processed Spectral Data<<<<<
