SpectraSuite Data File
++++++++++++++++++++++++++++++++++++
Date: Fri Oct 18 13:55:18 GMT-05:00 2013
User: bianchi
Dark Spectrum Present: No
Reference Spectrum Present: No
Number of Sampled Component Spectra: 1
Spectrometers: USB2+H05261
Integration Time (usec): 100000 (USB2+H05261)
Spectra Averaged: 1 (USB2+H05261)
Boxcar Smoothing: 0 (USB2+H05261)
Correct for Electrical Dark: No (USB2+H05261)
Strobe/Lamp Enabled: No (USB2+H05261)
Correct for Detector Non-linearity: No (USB2+H05261)
Correct for Stray Light: No (USB2+H05261)
Number of Pixels in Processed Spectrum: 2048
>>>>>Begin Processed Spectral Data<<<<<
365.73	0.00
365.92	0.00
366.12	0.00
366.32	0.00
366.52	0.00
366.72	0.00
366.91	0.00
367.11	0.00
367.31	0.00
367.51	0.00
367.70	0.00
367.90	0.00
368.10	0.00
368.30	0.00
368.49	0.00
368.69	0.00
368.89	0.00
369.09	0.00
369.28	0.00
369.48	0.00
369.68	0.00
369.87	0.00
370.07	0.00
370.27	0.00
370.47	60.85
370.66	203.63
370.86	320.65
371.06	330.02
371.25	322.99
371.45	369.80
371.65	341.72
371.84	320.65
372.04	304.27
372.24	381.51
372.44	395.55
372.63	451.72
372.83	437.68
373.03	404.91
373.22	428.32
373.42	465.77
373.62	433.00
373.81	409.59
374.01	564.07
374.21	526.62
374.40	423.64
374.60	477.47
374.79	489.17
374.99	528.96
375.19	444.70
375.38	566.41
375.58	517.26
375.78	514.92
375.97	540.66
376.17	587.47
376.37	543.00
376.56	550.03
376.76	535.98
376.95	547.69
377.15	559.39
377.35	575.77
377.54	634.29
377.74	641.31
377.93	585.13
378.13	587.47
378.33	557.05
378.52	505.56
378.72	608.54
378.91	571.09
379.11	636.63
379.31	486.83
379.50	489.17
379.70	587.47
379.89	608.54
380.09	641.31
380.28	606.20
380.48	631.94
380.68	601.52
380.87	585.13
381.07	734.93
381.26	697.48
381.46	723.23
381.65	641.31
381.85	676.41
382.04	685.78
382.24	699.82
382.43	685.78
382.63	748.97
382.83	608.54
383.02	683.44
383.22	706.84
383.41	784.08
383.61	800.46
383.80	695.14
384.00	777.06
384.19	732.59
384.39	753.65
384.58	688.12
384.78	732.59
384.97	760.67
385.17	741.95
385.36	784.08
385.56	770.04
385.75	826.21
385.95	786.42
386.14	842.59
386.34	833.23
386.53	809.83
386.72	739.61
386.92	896.43
387.11	866.00
387.31	816.85
387.50	793.44
387.70	847.27
387.89	798.12
388.09	994.73
388.28	908.13
388.48	884.72
388.67	910.47
388.86	950.26
389.06	964.30
389.25	980.68
389.45	961.96
389.64	952.60
389.84	1039.20
390.03	894.08
390.22	1006.43
390.42	905.79
390.61	1011.11
390.81	1062.60
391.00	1020.47
391.19	1074.31
391.39	1015.79
391.58	1048.56
391.78	1048.56
391.97	1067.28
392.16	1034.52
392.36	1050.90
392.55	1137.50
392.75	1118.78
392.94	1121.12
393.13	1121.12
393.33	1259.21
393.52	1130.48
393.71	1060.26
393.91	1102.39
394.10	1179.63
394.29	1060.26
394.49	1273.25
394.68	1259.21
394.88	1205.38
395.07	1205.38
395.26	1212.40
395.46	1287.29
395.65	1259.21
395.84	1263.89
396.04	1294.32
396.23	1282.61
396.42	1401.98
396.62	1432.41
396.81	1369.21
397.00	1383.26
397.19	1352.83
397.39	1327.08
397.58	1401.98
397.77	1357.51
397.97	1441.77
398.16	1458.15
398.35	1418.36
398.55	1404.32
398.74	1392.62
398.93	1465.18
399.12	1521.35
399.32	1476.88
399.51	1441.77
399.70	1572.84
399.90	1575.18
400.09	1624.33
400.28	1565.82
400.47	1572.84
400.67	1631.35
400.86	1584.54
401.05	1713.27
401.24	1703.91
401.44	1687.53
401.63	1640.72
401.82	1727.32
402.01	1710.93
402.21	1703.91
402.40	1760.08
402.59	1757.74
402.78	1816.26
402.97	1783.49
403.17	1895.83
403.36	1729.66
403.55	1928.60
403.74	1877.11
403.93	1900.52
404.13	1982.43
404.32	1893.49
404.51	1877.11
404.70	1982.43
404.89	1959.03
405.09	1825.62
405.28	1944.99
405.47	2031.58
405.66	2111.16
405.85	2204.78
406.05	2069.03
406.24	2134.57
406.43	2076.06
406.62	2193.08
406.81	2190.74
407.00	2249.25
407.20	2209.47
407.39	2218.83
407.58	2244.57
407.77	2211.81
407.96	2342.88
408.15	2284.36
408.34	2319.47
408.54	2289.04
408.73	2291.38
408.92	2366.28
409.11	2401.39
409.30	2478.63
409.49	2429.48
409.68	2413.09
409.87	2539.48
410.07	2668.21
410.26	2471.61
410.45	2560.55
410.64	2579.27
410.83	2537.14
411.02	2597.99
411.21	2738.43
411.40	2644.81
411.59	2832.05
411.78	2759.49
411.98	2743.11
412.17	2775.88
412.36	2785.24
412.55	2988.86
412.74	3129.30
412.93	2995.89
413.12	2899.92
413.31	3000.57
413.50	2862.48
413.69	3042.70
413.88	3126.96
414.07	3194.83
414.26	3143.34
414.45	3218.24
414.64	3206.53
414.83	3311.86
415.02	3293.13
415.22	3403.14
415.41	3449.95
415.60	3370.37
415.79	3452.29
415.98	3506.12
416.17	3412.50
416.36	3534.21
416.55	3620.81
416.74	3599.74
416.93	3712.09
417.12	3726.13
417.31	3719.11
417.50	3812.73
417.69	3817.41
417.88	3798.69
418.07	3803.37
418.26	3868.91
418.45	3805.71
418.64	3939.12
418.83	4030.40
419.02	3929.76
419.21	3943.80
419.39	4114.66
419.58	4030.40
419.77	3967.21
419.96	4079.55
420.15	4107.64
420.34	4243.39
420.53	4170.83
420.72	4210.62
420.91	4379.14
421.10	4126.36
421.29	4376.80
421.48	4161.47
421.67	4376.80
421.86	4278.50
422.05	4372.12
422.24	4341.69
422.43	4301.90
422.61	4355.74
422.80	4393.19
422.99	4388.50
423.18	4484.47
423.37	4557.02
423.56	4409.57
423.75	4493.83
423.94	4407.23
424.13	4037.42
424.32	4425.95
424.50	4456.38
424.69	4526.60
424.88	4688.09
425.07	4400.21
425.26	4517.23
425.45	4561.70
425.64	4425.95
425.83	4498.51
426.01	4648.30
426.20	4615.54
426.39	4664.69
426.58	4592.13
426.77	4594.47
426.96	4601.49
427.15	4753.63
427.33	4594.47
427.52	4823.84
427.71	4727.88
427.90	4699.80
428.09	4882.36
428.28	4983.00
428.46	4880.02
428.65	4901.08
428.84	5025.13
429.03	5095.35
429.22	4894.06
429.40	5036.83
429.59	4947.89
429.78	4774.69
429.97	4908.10
430.16	4947.89
430.34	5184.29
430.53	5259.18
430.72	5128.11
430.91	4985.34
431.10	5142.16
431.28	5123.43
431.47	5273.23
431.66	5294.29
431.85	5228.76
432.03	5504.94
432.22	5556.43
432.41	5465.15
432.60	5570.48
432.79	5284.93
432.97	5643.03
433.16	5413.66
433.35	5535.37
433.54	5579.84
433.72	5643.03
433.91	5521.32
434.10	5507.28
434.28	5390.25
434.47	5715.59
434.66	5863.04
434.85	5636.01
435.03	5809.21
435.22	5673.46
435.41	6097.10
435.59	5923.90
435.78	5729.63
435.97	6038.58
436.16	6094.76
436.34	6076.03
436.53	5947.30
436.72	6054.97
436.90	5973.05
437.09	6132.20
437.28	5902.83
437.46	5942.62
437.65	6085.39
437.84	6153.27
438.02	6132.20
438.21	6132.20
438.40	6230.51
438.58	6345.19
438.77	6464.56
438.96	6399.02
439.14	6342.85
439.33	6565.20
439.52	6516.05
439.70	6612.01
439.89	6635.42
440.08	6644.78
440.26	6927.99
440.45	6691.59
440.63	6729.04
440.82	7030.97
441.01	7000.54
441.19	7052.03
441.38	7080.12
441.57	7194.81
441.75	7180.76
441.94	7405.46
442.12	7398.43
442.31	7590.36
442.50	7342.26
442.68	7496.74
442.87	7314.17
443.05	7513.12
443.24	7611.42
443.43	7461.63
443.61	7644.19
443.80	8030.38
443.98	7389.07
444.17	7389.07
444.35	7627.81
444.54	7749.51
444.73	7695.68
444.91	7616.10
445.10	7637.17
445.28	7698.02
445.47	7801.01
445.65	7630.15
445.84	7623.12
446.02	7632.49
446.21	7686.32
446.39	7550.57
446.58	7822.07
446.77	7700.36
446.95	7735.47
447.14	7817.39
447.32	7829.09
447.51	7793.98
447.69	7864.20
447.88	8194.22
448.06	7896.97
448.25	7936.76
448.43	7658.23
448.62	7786.96
448.80	7829.09
448.99	8025.70
449.17	8257.41
449.36	8023.36
449.54	8098.25
449.73	8262.09
449.91	8259.75
450.10	8203.58
450.28	8348.69
450.46	8365.07
450.65	8318.26
450.83	8245.71
451.02	8336.99
451.20	8400.18
451.39	8496.14
451.57	8229.32
451.76	8458.70
451.94	8505.51
452.13	8547.64
452.31	8517.21
452.49	8552.32
452.68	8676.37
452.86	8627.21
453.05	8786.37
453.23	8662.32
453.42	8533.59
453.60	8650.62
453.78	8571.04
453.97	8606.15
454.15	8648.28
454.34	8636.58
454.52	8851.91
454.70	8819.14
454.89	8901.06
455.07	9053.19
455.26	9137.45
455.44	9221.71
455.62	8910.42
455.81	9167.88
455.99	9221.71
456.17	9132.77
456.36	9167.88
456.54	9219.37
456.73	9399.59
456.91	9689.82
457.09	9556.41
457.28	9893.44
457.46	9699.18
457.64	9652.37
457.83	9579.81
458.01	9621.94
458.19	9767.06
458.38	9710.88
458.56	9848.97
458.74	9734.29
458.93	9792.80
459.11	9912.17
459.29	9867.70
459.48	10015.15
459.66	9975.36
459.84	10094.73
460.03	10258.57
460.21	9937.91
460.39	10190.69
460.57	9975.36
460.76	10111.11
460.94	10204.74
461.12	10223.46
461.31	10270.27
461.49	10150.90
461.67	10134.52
461.85	10705.61
462.04	10384.96
462.22	10965.41
462.40	10658.80
462.59	10611.99
462.77	10768.80
462.95	10736.04
463.13	10647.10
463.32	10471.56
463.50	10679.86
463.68	10504.32
463.86	10820.30
464.05	10712.63
464.23	10654.12
464.41	10890.51
464.59	10623.69
464.78	10925.62
464.96	10888.17
465.14	10916.26
465.32	11197.12
465.50	11124.57
465.69	11040.31
465.87	10888.17
466.05	10995.84
466.23	11030.94
466.41	11300.11
466.60	11602.04
466.78	11096.48
466.96	11213.51
467.14	11265.00
467.32	11246.27
467.51	11424.15
467.69	11243.93
467.87	11473.31
468.05	11538.84
468.23	11557.57
468.41	11515.44
468.60	11559.91
468.78	11599.70
468.96	11412.45
469.14	11721.40
469.32	11932.05
469.50	11389.05
469.69	11887.58
469.87	11892.26
470.05	11868.86
470.23	12100.57
470.41	11913.33
470.59	12128.66
470.77	12067.80
470.95	12215.26
471.14	12397.82
471.32	12142.70
471.50	12517.18
471.68	12126.32
471.86	12400.16
472.04	12486.76
472.22	12870.61
472.40	12435.27
472.58	12781.67
472.77	12767.62
472.95	12926.78
473.13	13392.55
473.31	13062.53
473.49	12676.34
473.67	13022.74
473.85	13177.22
474.03	13371.48
474.21	13397.23
474.39	13504.89
474.57	13561.06
474.75	13378.50
474.93	13596.17
475.12	13631.28
475.30	13671.07
475.48	13549.36
475.66	13881.72
475.84	13776.39
476.02	14001.08
476.20	14384.93
476.38	13998.74
476.56	14618.99
476.74	14265.57
476.92	14443.45
477.10	14370.89
477.28	14736.01
477.46	14609.62
477.64	14806.23
477.82	15110.50
478.00	15473.28
478.18	15534.14
478.36	15269.66
478.54	15819.68
478.72	15754.15
478.90	15819.68
479.08	16011.60
479.26	15833.72
479.44	16156.72
479.62	16332.26
479.80	16673.98
479.98	16596.74
480.16	16908.03
480.34	16716.11
480.52	17020.38
480.70	17060.16
480.88	16800.37
481.06	17003.99
481.24	17099.95
481.41	17348.05
481.59	17755.30
481.77	17694.45
481.95	17921.48
482.13	17792.75
482.31	17757.64
482.49	18534.70
482.67	18408.31
482.85	18682.16
483.03	18583.85
483.21	18993.45
483.39	19241.54
483.57	19300.06
483.74	19463.90
483.92	19606.67
484.10	19482.62
484.28	19433.47
484.46	19999.88
484.64	20269.04
484.82	19934.34
485.00	20233.93
485.18	20704.38
485.35	21214.62
485.53	20821.41
485.71	21142.06
485.89	21486.12
486.07	21453.35
486.25	21352.71
486.43	21333.98
486.61	21699.11
486.78	21741.24
486.96	22195.30
487.14	22745.33
487.32	22281.90
487.50	22375.52
487.68	22567.45
487.85	22888.10
488.03	23124.49
488.21	23669.84
488.39	23274.29
488.57	23857.08
488.75	23559.83
488.92	23971.77
489.10	24236.25
489.28	24638.82
489.46	24493.71
489.64	24769.89
489.81	25362.04
489.99	25170.12
490.17	25399.49
490.35	25584.40
490.53	25738.87
490.70	26059.52
490.88	25799.73
491.06	26305.28
491.24	26361.45
491.41	26438.69
491.59	26375.50
491.77	26333.37
491.95	27040.21
492.13	27419.38
492.30	26855.31
492.48	27143.19
492.66	27206.39
492.84	27372.57
493.01	27578.53
493.19	28245.58
493.37	28364.95
493.54	28374.31
493.72	28610.71
493.90	28357.93
494.08	28968.81
494.25	29013.28
494.43	29488.41
494.61	30068.86
494.79	29586.71
494.96	29371.38
495.14	29720.12
495.32	30211.64
495.49	30216.32
495.67	30506.54
495.85	30429.30
496.02	30937.20
496.20	30878.69
496.38	30707.83
496.55	30911.46
496.73	31583.19
496.91	31377.22
497.09	31828.95
497.26	32219.81
497.44	31927.25
497.62	31632.34
497.79	32238.54
497.97	32226.84
498.14	32680.90
498.32	33092.83
498.50	32900.91
498.67	33151.35
498.85	33111.56
499.03	33418.17
499.20	33305.82
499.38	33631.16
499.56	33542.22
499.73	34157.78
499.91	34251.40
500.08	34064.16
500.26	33806.70
500.44	34078.20
500.61	34110.97
500.79	34373.11
500.97	34560.35
501.14	35129.10
501.32	35285.92
501.49	34766.32
501.67	35133.78
501.84	35225.06
502.02	35309.32
502.20	35480.18
502.37	35627.63
502.55	35646.36
502.72	35559.76
502.90	35742.32
503.07	35789.13
503.25	35854.67
503.43	36093.40
503.60	36378.95
503.78	36442.14
503.95	36453.84
504.13	36456.18
504.30	36629.38
504.48	37036.64
504.65	36828.33
504.83	37216.86
505.01	37659.22
505.18	37631.13
505.36	37879.23
505.53	37380.70
505.71	37708.37
505.88	37741.14
506.06	37174.73
506.23	38387.13
506.41	37961.15
506.58	38616.50
506.76	38204.56
506.93	38256.06
507.11	38363.72
507.28	38464.36
507.46	38433.94
507.63	38490.11
507.81	39098.65
507.98	38843.53
508.16	38728.84
508.33	38979.28
508.50	39531.65
508.68	39562.08
508.85	39569.10
509.03	39775.06
509.20	40165.93
509.38	40006.78
509.55	40561.48
509.73	40137.85
509.90	40336.79
510.08	40598.93
510.25	40844.69
510.42	40498.29
510.60	40891.50
510.77	41373.65
510.95	41883.89
511.12	40893.84
511.30	41097.47
511.47	41233.22
511.64	41067.04
511.82	41752.82
511.99	41879.21
512.17	41708.35
512.34	41902.61
512.51	41752.82
512.69	42115.60
512.86	42209.22
513.04	42564.98
513.21	42504.13
513.38	42356.67
513.56	42539.24
513.73	42136.66
513.90	42810.74
514.08	42667.97
514.25	42920.74
514.43	43021.39
514.60	43187.56
514.77	43337.36
514.95	43433.32
515.12	42838.83
515.29	43210.97
515.47	43519.92
515.64	43962.28
515.81	43299.91
515.99	44058.24
516.16	44690.19
516.33	44582.52
516.51	44516.99
516.68	44460.82
516.85	44421.03
517.03	44458.48
517.20	44905.52
517.37	44582.52
517.54	44591.89
517.72	44877.43
517.89	44992.12
518.06	44760.40
518.24	44552.10
518.41	44912.54
518.58	45237.87
518.75	44837.64
518.93	45570.23
519.10	45261.28
519.27	45476.61
519.45	45443.84
519.62	45469.59
519.79	45549.17
519.96	45455.54
520.14	45324.47
520.31	45228.51
520.48	46274.73
520.65	46085.15
520.83	46529.85
521.00	46150.68
521.17	45965.78
521.34	46036.00
521.52	46326.22
521.69	46272.39
521.86	47009.66
522.03	46813.05
522.20	46787.31
522.38	46752.20
522.55	46855.18
522.72	46710.07
522.89	47070.51
523.07	47590.11
523.24	47356.06
523.41	47714.16
523.58	47114.98
523.75	47908.43
523.92	47445.00
524.10	47847.57
524.27	47973.96
524.44	47924.81
524.61	48472.49
524.78	48062.90
524.96	48053.54
525.13	47948.21
525.30	48435.05
525.47	48409.30
525.64	48046.52
525.81	48566.12
525.98	48568.46
526.16	48423.34
526.33	48612.93
526.50	48832.94
526.67	48409.30
526.84	48554.41
527.01	48395.26
527.18	48879.75
527.36	49387.64
527.53	49097.42
527.70	49331.47
527.87	49415.73
528.04	49247.21
528.21	49682.55
528.38	49184.02
528.55	49216.78
528.72	49106.78
528.89	49724.68
529.07	49453.18
529.24	49389.98
529.41	49860.43
529.58	49743.41
529.75	49507.01
529.92	49453.18
530.09	49691.91
530.26	49652.12
530.43	50040.65
530.60	49712.98
530.77	49911.92
530.94	50211.51
531.11	49937.67
531.28	49682.55
531.46	50085.12
531.63	50616.43
531.80	50623.45
531.97	50464.29
532.14	50710.05
532.31	50497.06
532.48	50485.36
532.65	50625.79
532.82	50347.26
532.99	50770.90
533.16	50408.12
533.33	51131.34
533.50	51206.24
533.67	50990.91
533.84	50660.90
534.01	50770.90
534.18	50852.82
534.35	51222.62
534.52	51058.79
534.69	51435.61
534.86	51456.68
535.03	51271.78
535.20	51482.42
535.37	51360.72
535.54	51430.93
535.71	51072.83
535.88	51379.44
536.05	51393.48
536.22	51639.24
536.38	51805.42
536.55	51604.13
536.72	51758.61
536.89	51569.02
537.06	51583.07
537.23	51817.12
537.40	51494.13
537.57	51676.69
537.74	51990.32
537.91	52339.06
538.08	52261.82
538.25	52011.38
538.42	52041.81
538.59	52264.16
538.75	51863.93
538.92	52088.62
539.09	52268.84
539.26	52435.02
539.43	52271.18
539.60	52116.71
539.77	52409.28
539.94	52460.77
540.11	52519.28
540.28	52587.16
540.44	52254.80
540.61	52645.67
540.78	52673.76
540.95	52505.24
541.12	52713.55
541.29	52500.56
541.46	52603.54
541.62	52662.05
541.79	52877.38
541.96	52402.25
542.13	52210.33
542.30	52891.43
542.47	53453.15
542.63	52975.69
542.80	53109.10
542.97	53710.61
543.14	53214.42
543.31	53275.27
543.48	53120.80
543.64	53689.55
543.81	53514.01
543.98	53448.47
544.15	53677.85
544.32	53518.69
544.48	53647.42
544.65	53350.17
544.82	53724.66
544.99	53284.64
545.16	53577.20
545.32	53600.61
545.49	54007.86
545.66	54007.86
545.83	53907.22
546.00	54038.29
546.16	53827.64
546.33	53556.14
546.50	53085.69
546.67	53558.48
546.83	53624.01
547.00	53799.55
547.17	53961.05
547.34	53944.67
547.50	54026.59
547.67	54138.93
547.84	54136.59
548.00	54017.22
548.17	53647.42
548.34	53813.60
548.51	54384.69
548.67	54443.20
548.84	54389.37
549.01	54220.85
549.18	54124.89
549.34	54337.88
549.51	54206.81
549.68	54452.56
549.84	54241.92
550.01	54555.55
550.18	54513.42
550.34	54365.96
550.51	54719.38
550.68	54878.54
550.84	54436.18
551.01	54768.54
551.18	54284.04
551.34	54354.26
551.51	54637.47
551.68	54740.45
551.84	55063.44
552.01	54672.57
552.18	54787.26
552.34	54766.20
552.51	54632.78
552.68	54583.63
552.84	54728.75
553.01	55030.68
553.18	54883.22
553.34	55201.53
553.51	55107.91
553.67	54925.35
553.84	55126.64
554.01	55030.68
554.17	55093.87
554.34	55133.66
554.51	55121.96
554.67	55098.55
554.84	54962.80
555.00	55276.43
555.17	55173.45
555.33	55360.69
555.50	54920.67
555.67	55147.70
555.83	55227.28
556.00	55124.30
556.16	55341.97
556.33	55147.70
556.50	55084.51
556.66	55393.46
556.83	55157.06
556.99	55800.71
557.16	55547.93
557.32	55470.70
557.49	55629.85
557.65	55276.43
557.82	55150.04
557.98	55084.51
558.15	55559.64
558.32	55503.46
558.48	55569.00
558.65	55868.59
558.81	55751.56
558.98	55587.72
559.14	55629.85
559.31	55601.77
559.47	55615.81
559.64	55817.10
559.80	55877.95
559.97	55721.13
560.13	55466.02
560.30	55779.65
560.46	55594.74
560.63	55746.88
560.79	55529.21
560.96	55615.81
561.12	55707.09
561.29	55831.14
561.45	55791.35
561.61	55887.31
561.78	55817.10
561.94	55941.14
562.11	55789.01
562.27	56027.74
562.44	55913.06
562.60	55753.90
562.77	55758.58
562.93	55702.41
563.10	56027.74
563.26	55938.80
563.42	56332.01
563.59	55924.76
563.75	55959.87
563.92	56189.24
564.08	56191.58
564.24	56161.15
564.41	55980.93
564.57	55901.36
564.74	55889.65
564.90	56002.00
565.07	56196.26
565.23	56243.07
565.39	56179.88
565.56	56144.77
565.72	55772.63
565.88	56193.92
566.05	55814.76
566.21	55952.85
566.38	56097.96
566.54	56207.97
566.70	56278.18
566.87	56444.36
567.03	56285.20
567.19	56467.76
567.36	56179.88
567.52	56116.68
567.68	56128.39
567.85	56039.45
568.01	56069.87
568.17	55877.95
568.34	56217.33
568.50	56357.76
568.66	56034.77
568.83	56257.12
568.99	56140.09
569.15	56282.86
569.32	56439.68
569.48	56130.73
569.64	56622.24
569.81	56212.65
569.97	56182.22
570.13	56137.75
570.30	56458.40
570.46	56575.43
570.62	56336.69
570.78	56397.55
570.95	56175.20
571.11	56341.38
571.27	56184.56
571.43	56196.26
571.60	56350.74
571.76	56285.20
571.92	56285.20
572.09	56713.52
572.25	56640.96
572.41	56479.47
572.57	56477.13
572.74	56282.86
572.90	56163.50
573.06	56250.09
573.22	56355.42
573.38	56423.29
573.55	56336.69
573.71	56605.86
573.87	56664.37
574.03	56460.74
574.20	56442.02
574.36	56280.52
574.52	56357.76
574.68	56222.01
574.84	56500.53
575.01	56456.06
575.17	56516.92
575.33	56439.68
575.49	56240.73
575.65	56697.14
575.82	56399.89
575.98	56413.93
576.14	56540.32
576.30	56514.58
576.46	56296.91
576.62	56280.52
576.79	56512.23
576.95	56315.63
577.11	56584.79
577.27	56282.86
577.43	56488.83
577.59	56442.02
577.75	56430.32
577.92	56310.95
578.08	56516.92
578.24	56406.91
578.40	56104.98
578.56	56807.14
578.72	56322.65
578.88	56699.48
579.04	56484.15
579.21	56432.66
579.37	56629.26
579.53	56528.62
579.69	56442.02
579.85	56514.58
580.01	56367.12
580.17	56364.78
580.33	56376.48
580.49	56676.07
580.65	56741.61
580.82	56701.82
580.98	56568.41
581.14	56540.32
581.30	56835.23
581.46	56350.74
581.62	56154.13
581.78	56395.21
581.94	56463.08
582.10	56542.66
582.26	56516.92
582.42	56458.40
582.58	56629.26
582.74	56556.70
582.90	56559.05
583.06	56669.05
583.22	56385.85
583.38	56573.09
583.54	56430.32
583.70	56222.01
583.86	56453.72
584.02	56488.83
584.18	56753.31
584.34	56776.72
584.50	56828.21
584.66	56409.25
584.82	56257.12
584.98	56535.64
585.14	56521.60
585.30	56411.59
585.46	56636.28
585.62	56512.23
585.78	56610.54
585.94	56292.22
586.10	56659.69
586.26	56645.65
586.42	56725.22
586.58	56629.26
586.74	56622.24
586.90	56336.69
587.06	56404.57
587.22	56706.50
587.38	56420.95
587.54	56404.57
587.70	56940.55
587.86	56769.69
588.02	56727.56
588.18	56839.91
588.34	56739.27
588.49	56568.41
588.65	56739.27
588.81	56643.30
588.97	56493.51
589.13	56514.58
589.29	56669.05
589.45	56772.03
589.61	56680.75
589.77	56872.68
589.93	56870.34
590.08	56912.47
590.24	56718.20
590.40	56790.76
590.56	56690.12
590.72	56835.23
590.88	56486.49
591.04	56662.03
591.20	57064.60
591.35	57097.37
591.51	57102.05
591.67	57050.56
591.83	57226.10
591.99	57006.09
592.15	56900.76
592.31	56776.72
592.46	56893.74
592.62	56547.34
592.78	56638.62
592.94	56814.16
593.10	56835.23
593.26	56999.07
593.41	56968.64
593.57	56776.72
593.73	56807.14
593.89	56879.70
594.05	57071.62
594.20	56736.93
594.36	56828.21
594.52	56680.75
594.68	56655.01
594.84	56788.42
594.99	57013.11
595.15	56947.57
595.31	57139.50
595.47	56800.12
595.62	57083.33
595.78	56935.87
595.94	56821.19
596.10	56767.35
596.25	56910.13
596.41	56825.87
596.57	56659.69
596.73	57017.79
596.88	56779.06
597.04	56884.38
597.20	57123.11
597.36	57127.80
597.51	57073.96
597.67	56989.70
597.83	56856.29
597.99	57055.24
598.14	56687.78
598.30	56996.73
598.46	56746.29
598.61	56947.57
598.77	56729.90
598.93	56919.49
599.09	56769.69
599.24	57385.25
599.40	57071.62
599.56	56975.66
599.71	56992.04
599.87	56966.30
600.03	56804.80
600.18	56968.64
600.34	56818.84
600.50	56985.02
600.65	56748.63
600.81	57008.43
600.97	57078.64
601.12	57134.82
601.28	56858.63
601.44	57015.45
601.59	56933.53
601.75	57001.41
601.91	56893.74
602.06	56753.31
602.22	56896.08
602.37	56629.26
602.53	57022.47
602.69	57071.62
602.84	56900.76
603.00	56980.34
603.16	57127.80
603.31	57052.90
603.47	56987.36
603.62	56570.75
603.78	56926.51
603.94	56760.33
604.09	56985.02
604.25	56926.51
604.40	56797.78
604.56	57064.60
604.71	57038.86
604.87	56849.27
605.03	56835.23
605.18	57001.41
605.34	56690.12
605.49	56636.28
605.65	56910.13
605.80	56732.25
605.96	56633.94
606.12	56811.82
606.27	56970.98
606.43	56725.22
606.58	56832.89
606.74	56900.76
606.89	56704.16
607.05	56704.16
607.20	56973.32
607.36	56559.05
607.51	56587.13
607.67	56502.87
607.82	56444.36
607.98	56694.80
608.13	56568.41
608.29	56748.63
608.44	56765.01
608.60	56708.84
608.75	56851.61
608.91	56966.30
609.06	56479.47
609.22	56853.95
609.37	56289.88
609.53	56596.49
609.68	56530.96
609.84	56266.48
609.99	56652.67
610.15	56533.30
610.30	56699.48
610.46	56427.98
610.61	56537.98
610.76	56460.74
610.92	56659.69
611.07	56449.04
611.23	56161.15
611.38	56612.88
611.54	56322.65
611.69	56259.46
611.84	56355.42
612.00	56264.14
612.15	56107.32
612.31	56271.16
612.46	56065.19
612.62	56460.74
612.77	56577.77
612.92	56671.39
613.08	56467.76
613.23	56470.11
613.39	56179.88
613.54	56226.69
613.69	56442.02
613.85	56060.51
614.00	56104.98
614.15	56346.06
614.31	56069.87
614.46	56435.00
614.62	56385.85
614.77	56545.00
614.92	56268.82
615.08	56282.86
615.23	56301.59
615.38	56271.16
615.54	56041.79
615.69	56156.47
615.84	55660.28
616.00	56217.33
616.15	56037.11
616.30	56121.37
616.46	55931.78
616.61	55894.33
616.76	56282.86
616.92	55999.66
617.07	56310.95
617.22	55931.78
617.37	56076.90
617.53	55798.37
617.68	56048.81
617.83	55730.50
617.99	55833.48
618.14	55765.60
618.29	55915.40
618.45	55924.76
618.60	55903.70
618.75	55854.54
618.90	55936.46
619.06	55547.93
619.21	55793.69
619.36	56025.40
619.51	55529.21
619.67	55466.02
619.82	55426.23
619.97	55458.99
620.12	55370.05
620.28	55285.79
620.43	55473.04
620.58	55779.65
620.73	55646.24
620.89	55529.21
621.04	55679.00
621.19	55585.38
621.34	55657.94
621.49	55599.43
621.65	55458.99
621.80	55632.19
621.95	55168.77
622.10	55456.65
622.25	55292.82
622.41	55313.88
622.56	55388.78
622.71	55384.10
622.86	55449.63
623.01	55402.82
623.16	55374.73
623.32	55072.81
623.47	55313.88
623.62	55309.20
623.77	55337.29
623.92	55246.00
624.07	55192.17
624.23	54986.21
624.38	55068.12
624.53	55056.42
624.68	55058.76
624.83	55384.10
624.98	55033.02
625.13	55061.10
625.29	55297.50
625.44	55018.97
625.59	55030.68
625.74	54808.32
625.89	54691.30
626.04	54824.71
626.19	54663.21
626.34	55168.77
626.49	54644.49
626.65	54761.51
626.80	55014.29
626.95	54843.43
627.10	54878.54
627.25	54714.70
627.40	54789.60
627.55	54679.60
627.70	54478.31
627.85	54574.27
628.00	54593.00
628.15	54506.40
628.30	54506.40
628.45	54574.27
628.60	54714.70
628.76	54665.55
628.91	54567.25
629.06	54583.63
629.21	54546.18
629.36	54614.06
629.51	54199.79
629.66	54419.80
629.81	54398.73
629.96	54438.52
630.11	54178.72
630.26	54342.56
630.41	54152.97
630.56	53853.39
630.71	54143.61
630.86	54068.72
631.01	54316.81
631.16	54316.81
631.31	54267.66
631.46	53963.39
631.61	54319.15
631.76	54246.60
631.91	53918.92
632.06	54087.44
632.21	53846.36
632.36	54281.70
632.51	54113.19
632.66	53869.77
632.81	53944.67
632.96	54040.63
633.10	53806.58
633.25	53855.73
633.40	54192.76
633.55	53773.81
633.70	53925.94
633.85	53572.52
634.00	53532.73
634.15	53624.01
634.30	53841.68
634.45	53691.89
634.60	53869.77
634.75	54038.29
634.90	53478.90
635.05	53879.13
635.19	53687.21
635.34	54012.54
635.49	53902.54
635.64	53560.82
635.79	53825.30
635.94	53612.31
636.09	53848.71
636.24	53577.20
636.39	53553.80
636.53	53464.86
636.68	53347.83
636.83	53684.87
636.98	53511.67
637.13	53415.71
637.28	53584.22
637.43	53191.01
637.57	53296.34
637.72	53251.87
637.87	53457.84
638.02	53509.33
638.17	53474.22
638.32	53137.18
638.46	53085.69
638.61	52884.40
638.76	52945.26
638.91	52655.03
639.06	53041.22
639.20	53095.05
639.35	53338.47
639.50	53155.91
639.65	53216.76
639.80	53144.20
639.94	52949.94
640.09	52746.31
640.24	53326.77
640.39	52846.96
640.54	52837.59
640.68	52765.04
640.83	52552.05
640.98	52706.52
641.13	52577.79
641.27	52884.40
641.42	52629.29
641.57	52636.31
641.72	52858.66
641.86	52666.73
642.01	52577.79
642.16	52673.76
642.31	52409.28
642.45	52699.50
642.60	52423.32
642.75	52254.80
642.90	52334.38
643.04	52320.34
643.19	52402.25
643.34	52481.83
643.48	52657.37
643.63	52453.75
643.78	52411.62
643.93	52715.89
644.07	52708.86
644.22	52229.05
644.37	51957.55
644.51	52215.01
644.66	52327.36
644.81	52360.12
644.95	52013.73
645.10	51870.95
645.25	52289.91
645.39	52093.30
645.54	52456.09
645.69	52252.46
645.83	51959.89
645.98	52219.69
646.13	52212.67
646.27	52252.46
646.42	52023.09
646.57	51922.44
646.71	52055.85
646.86	52224.37
647.00	51732.86
647.15	51686.05
647.30	51892.02
647.44	51529.23
647.59	51906.06
647.74	51599.45
647.88	51924.78
648.03	51887.34
648.17	52156.50
648.32	51742.22
648.47	51980.96
648.61	51711.80
648.76	51784.35
648.90	51482.42
649.05	51554.98
649.20	51777.33
649.34	51667.33
649.49	51037.72
649.63	51026.02
649.78	51805.42
649.92	51276.46
650.07	51660.30
650.21	51554.98
650.36	51510.51
650.51	51367.74
650.65	51985.64
650.80	51503.49
650.94	51580.73
651.09	51435.61
651.23	51306.88
651.38	51260.07
651.52	51187.52
651.67	51278.80
651.81	50850.48
651.96	51049.42
652.10	51117.30
652.25	50948.78
652.39	51309.22
652.54	51536.26
652.68	51185.18
652.83	51061.13
652.97	51409.87
653.12	51262.41
653.26	50899.63
653.41	51033.04
653.55	50569.61
653.70	50665.58
653.84	50717.07
653.99	50883.25
654.13	50822.39
654.27	50775.58
654.42	50934.74
654.56	50569.61
654.71	50703.03
654.85	50724.09
655.00	51054.11
655.14	50731.11
655.29	50759.20
655.43	50761.54
655.57	50546.21
655.72	50731.11
655.86	50363.65
656.01	50506.42
656.15	50337.90
656.30	50632.81
656.44	50073.42
656.58	50389.39
656.73	50316.84
656.87	49986.82
657.01	50185.77
657.16	50419.82
657.30	50763.88
657.45	50557.91
657.59	50148.32
657.73	50129.59
657.88	50138.96
658.02	49867.45
658.16	49958.73
658.31	49862.77
658.45	49928.31
658.60	49801.92
658.74	49722.34
658.88	49593.61
659.03	49762.13
659.17	49813.62
659.31	49698.94
659.46	49546.80
659.60	49846.39
659.74	49659.15
659.89	49745.75
660.03	49743.41
660.17	49820.64
660.32	49102.10
660.46	49539.78
660.60	49317.43
660.74	49394.67
660.89	49050.61
661.03	49003.80
661.17	48875.07
661.32	48821.23
661.46	48877.41
661.60	48814.21
661.74	48786.13
661.89	48861.02
662.03	48879.75
662.17	48739.32
662.31	48837.62
662.46	48619.95
662.60	48701.87
662.74	48353.13
662.88	48378.87
663.03	47814.80
663.17	48507.60
663.31	47962.26
663.45	48023.11
663.60	48355.47
663.74	47852.25
663.88	47995.03
664.02	48163.54
664.17	48774.42
664.31	48196.31
664.45	48222.06
664.59	47936.51
664.73	47973.96
664.88	47688.42
665.02	47524.58
665.16	47428.62
665.30	47288.18
665.44	47288.18
665.59	47089.24
665.73	47447.34
665.87	47227.33
666.01	46803.69
666.15	47662.67
666.29	47388.83
666.44	47299.89
666.58	47281.16
666.72	47082.22
666.86	47414.57
667.00	47395.85
667.14	46988.60
667.28	46712.41
667.43	47075.19
667.57	46808.37
667.71	46487.72
667.85	46583.68
667.99	46473.68
668.13	46597.73
668.27	46333.24
668.41	46309.84
668.56	46415.16
668.70	46754.54
668.84	46707.73
668.98	46007.91
669.12	45668.53
669.26	46075.79
669.40	46316.86
669.54	46061.74
669.68	45507.04
669.82	45659.17
669.96	45457.88
670.10	45408.73
670.25	45450.86
670.39	45434.48
670.53	45170.00
670.67	45401.71
670.81	45151.27
670.95	45687.26
671.09	45647.47
671.23	45303.41
671.37	45287.03
671.51	45216.81
671.65	45186.38
671.79	45333.84
671.93	44921.90
672.07	44825.94
672.21	44596.57
672.35	44240.81
672.49	44294.64
672.63	44591.89
672.77	43847.60
672.91	43803.13
673.05	44348.47
673.19	43983.35
673.33	44229.10
673.47	43931.86
673.61	43997.39
673.75	43936.54
673.89	43971.64
674.03	43840.57
674.17	43665.03
674.31	43615.88
674.45	43098.62
674.59	43065.86
674.73	43306.93
674.87	43021.39
675.01	43068.20
675.15	42745.20
675.29	43187.56
675.43	42658.60
675.56	42738.18
675.70	42749.88
675.84	42934.79
675.98	41656.85
676.12	42450.30
676.26	42794.36
676.40	41926.02
676.54	42295.82
676.68	41937.72
676.82	41085.76
676.96	41762.18
677.10	41324.50
677.23	40711.28
677.37	41560.89
677.51	41230.88
677.65	41134.92
677.79	40184.66
677.93	40671.49
678.07	40622.34
678.21	40722.98
678.34	40755.75
678.48	40620.00
678.62	40694.89
678.76	40100.40
678.90	40467.86
679.04	40126.14
679.18	40215.08
679.31	39302.28
679.45	39086.95
679.59	39339.72
679.73	39194.61
679.87	39253.12
680.00	39250.78
680.14	38710.12
680.28	38883.32
680.42	38932.47
680.56	39098.65
680.70	38473.73
680.83	38829.49
680.97	38560.33
681.11	38665.65
681.25	38553.30
681.39	38724.16
681.52	38117.96
681.66	38375.42
681.80	38183.50
681.94	37839.44
682.07	37717.73
682.21	37205.16
682.35	37127.92
682.49	37266.01
682.62	36804.92
682.76	36734.71
682.90	37303.46
683.04	36943.02
683.17	36416.40
683.31	36488.95
683.45	36961.74
683.59	36493.63
683.72	36350.86
683.86	35679.13
684.00	36079.36
684.13	35517.63
684.27	35690.83
684.41	35665.08
684.55	35201.66
684.68	35639.34
684.82	35407.62
684.96	35009.73
685.09	34712.49
685.23	34932.50
685.37	34923.13
685.50	34923.13
685.64	34780.36
685.78	34635.25
685.91	34714.83
686.05	34663.33
686.19	34300.55
686.32	34396.51
686.46	34036.07
686.60	33881.60
686.73	33916.70
686.87	33369.02
687.01	33504.77
687.14	33397.10
687.28	33387.74
687.42	32985.17
687.55	32776.86
687.69	32650.47
687.82	32402.38
687.96	33193.48
688.10	32929.00
688.23	32512.38
688.37	32676.22
688.50	32364.93
688.64	32222.16
688.78	32378.97
688.91	31700.22
689.05	31943.63
689.18	31875.76
689.32	31414.67
689.46	31407.65
689.59	31307.01
689.73	31281.26
689.86	31182.96
690.00	31030.82
690.13	30948.90
690.27	30443.35
690.41	30766.34
690.54	30698.47
690.68	30958.27
690.81	30600.16
690.95	30689.10
691.08	30230.36
691.22	30260.79
691.35	30012.69
691.49	29848.85
691.62	29518.84
691.76	29317.55
691.89	29699.06
692.03	29329.25
692.16	28907.96
692.30	29083.50
692.43	29242.65
692.57	28828.38
692.70	28701.99
692.84	28828.38
692.97	29050.73
693.11	28816.68
693.24	28627.09
693.38	28603.69
693.51	28582.62
693.65	28610.71
693.78	28819.02
693.92	28308.78
694.05	28158.99
694.19	27831.31
694.32	27910.89
694.45	27522.36
694.59	27161.92
694.72	27220.43
694.86	27042.55
694.99	27080.00
695.13	26890.41
695.26	26984.04
695.39	26771.05
695.53	27009.78
695.66	26792.11
695.80	26848.29
695.93	26724.24
696.07	26398.90
696.20	26398.90
696.33	25750.57
696.47	26515.93
696.60	26064.21
696.73	25804.41
696.87	25710.78
697.00	25343.32
697.14	25139.69
697.27	25235.66
697.40	24996.92
697.54	24821.38
697.67	24746.48
697.80	24575.62
697.94	24615.41
698.07	24264.33
698.21	24662.22
698.34	24451.58
698.47	24383.70
698.61	24233.91
698.74	24203.48
698.87	24173.05
699.01	23957.72
699.14	24114.54
699.27	23828.99
699.40	23737.71
699.54	23728.35
699.67	23276.63
699.80	23047.26
699.94	23484.94
700.07	23131.51
700.20	23183.01
700.34	22892.78
700.47	22925.55
700.60	22838.95
700.73	22541.70
700.87	22785.12
701.00	22480.85
701.13	22530.00
701.26	22515.95
701.40	22501.91
701.53	22326.37
701.66	22307.65
701.79	21855.92
701.93	21832.52
702.06	21458.03
702.19	21476.76
702.32	21710.81
702.46	20989.92
702.59	21287.17
702.72	20819.07
702.85	21214.62
702.99	21177.17
703.12	21069.50
703.25	20790.98
703.38	20952.48
703.51	20910.35
703.65	20893.96
703.78	20465.64
703.91	20568.63
704.04	20266.70
704.17	20262.02
704.31	20060.73
704.44	19915.62
704.57	19901.58
704.70	19662.84
704.83	19704.97
704.96	19585.60
705.10	19358.57
705.23	19117.50
>>>>>End Processed Spectral Data<<<<<
