SpectraSuite Data File
++++++++++++++++++++++++++++++++++++
Date: Fri Oct 18 13:54:52 GMT-05:00 2013
User: bianchi
Dark Spectrum Present: No
Reference Spectrum Present: No
Number of Sampled Component Spectra: 1
Spectrometers: USB2+H05261
Integration Time (usec): 100000 (USB2+H05261)
Spectra Averaged: 1 (USB2+H05261)
Boxcar Smoothing: 0 (USB2+H05261)
Correct for Electrical Dark: No (USB2+H05261)
Strobe/Lamp Enabled: No (USB2+H05261)
Correct for Detector Non-linearity: No (USB2+H05261)
Correct for Stray Light: No (USB2+H05261)
Number of Pixels in Processed Spectrum: 2048
>>>>>Begin Processed Spectral Data<<<<<
365.73	0.00
365.92	0.00
366.12	0.00
366.32	0.00
366.52	0.00
366.72	0.00
366.91	0.00
367.11	0.00
367.31	0.00
367.51	0.00
367.70	0.00
367.90	0.00
368.10	0.00
368.30	0.00
368.49	0.00
368.69	0.00
368.89	0.00
369.09	0.00
369.28	0.00
369.48	0.00
369.68	0.00
369.87	0.00
370.07	0.00
370.27	0.00
370.47	44.47
370.66	241.08
370.86	273.84
371.06	355.76
371.25	355.76
371.45	304.27
371.65	404.91
371.84	388.53
372.04	447.04
372.24	470.45
372.44	379.17
372.63	402.57
372.83	521.94
373.03	341.72
373.22	430.66
373.42	454.06
373.62	477.47
373.81	491.51
374.01	414.27
374.21	461.09
374.40	463.43
374.60	512.58
374.79	514.92
374.99	514.92
375.19	458.74
375.38	503.22
375.58	592.16
375.78	514.92
375.97	634.29
376.17	610.88
376.37	568.75
376.56	622.58
376.76	608.54
376.95	585.13
377.15	566.41
377.35	624.92
377.54	653.01
377.74	585.13
377.93	580.45
378.13	592.16
378.33	575.77
378.52	573.43
378.72	617.90
378.91	622.58
379.11	554.71
379.31	613.22
379.50	575.77
379.70	641.31
379.89	603.86
380.09	688.12
380.28	634.29
380.48	585.13
380.68	603.86
380.87	648.33
381.07	662.37
381.26	760.67
381.46	657.69
381.65	716.20
381.85	744.29
382.04	622.58
382.24	734.93
382.43	753.65
382.63	718.54
382.83	753.65
383.02	741.95
383.22	805.14
383.41	802.80
383.61	863.66
383.80	903.45
384.00	772.38
384.19	812.17
384.39	823.87
384.58	821.53
384.78	781.74
384.97	835.57
385.17	826.21
385.36	765.36
385.56	800.46
385.75	821.53
385.95	856.64
386.14	889.40
386.34	873.02
386.53	837.91
386.72	823.87
386.92	884.72
387.11	866.00
387.31	903.45
387.50	938.55
387.70	957.28
387.89	976.00
388.09	933.87
388.28	837.91
388.48	868.34
388.67	994.73
388.86	891.74
389.06	980.68
389.25	985.37
389.45	1015.79
389.64	959.62
389.84	1039.20
390.03	1015.79
390.22	954.94
390.42	1015.79
390.61	1046.22
390.81	961.96
391.00	1048.56
391.19	1107.07
391.39	1064.94
391.58	1153.88
391.78	1104.73
391.97	1144.52
392.16	1050.90
392.36	1163.25
392.55	1132.82
392.75	1221.76
392.94	1130.48
393.13	1158.57
393.33	1123.46
393.52	1160.91
393.71	1203.04
393.91	1247.51
394.10	1174.95
394.29	1266.23
394.49	1287.29
394.68	1313.04
394.88	1287.29
395.07	1181.97
395.26	1275.59
395.46	1277.93
395.65	1350.49
395.84	1303.68
396.04	1430.07
396.23	1455.81
396.42	1387.94
396.62	1441.77
396.81	1465.18
397.00	1331.76
397.19	1465.18
397.39	1352.83
397.58	1406.66
397.77	1399.64
397.97	1385.60
398.16	1497.94
398.35	1458.15
398.55	1500.28
398.74	1434.75
398.93	1495.60
399.12	1664.12
399.32	1500.28
399.51	1556.46
399.70	1561.14
399.90	1561.14
400.09	1577.52
400.28	1680.50
400.47	1661.78
400.67	1619.65
400.86	1694.55
401.05	1579.86
401.24	1776.47
401.44	1671.14
401.63	1699.23
401.82	1619.65
402.01	1722.63
402.21	1781.15
402.40	1842.00
402.59	1877.11
402.78	1872.43
402.97	1891.15
403.17	1830.30
403.36	1746.04
403.55	1846.68
403.74	1863.07
403.93	2026.90
404.13	1909.88
404.32	1928.60
404.51	1879.45
404.70	2047.97
404.89	1975.41
405.09	1959.03
405.28	1956.69
405.47	2101.80
405.66	2083.08
405.85	2080.74
406.05	1998.82
406.24	2150.95
406.43	2193.08
406.62	2307.77
406.81	2251.60
407.00	2193.08
407.20	2197.76
407.39	2167.34
407.58	2385.01
407.77	2277.34
407.96	2401.39
408.15	2377.98
408.34	2406.07
408.54	2452.88
408.73	2335.85
408.92	2345.22
409.11	2509.05
409.30	2408.41
409.49	2576.93
409.68	2548.84
409.87	2502.03
410.07	2607.36
410.26	2586.29
410.45	2679.91
410.64	2665.87
410.83	2726.72
411.02	2574.59
411.21	2801.62
411.40	2675.23
411.59	2909.29
411.78	2818.00
411.98	2876.52
412.17	2843.75
412.36	2829.71
412.55	2881.20
412.74	3054.40
412.93	2916.31
413.12	3070.78
413.31	3075.46
413.50	3070.78
413.69	3141.00
413.88	3138.66
414.07	3229.94
414.26	3353.99
414.45	3162.06
414.64	3281.43
414.83	3318.88
415.02	3468.67
415.22	3414.84
415.41	3492.08
415.60	3571.66
415.79	3597.40
415.98	3445.27
416.17	3564.64
416.36	3578.68
416.55	3623.15
416.74	3754.22
416.93	3845.50
417.12	3779.97
417.31	3868.91
417.50	3768.26
417.69	4098.28
417.88	3791.67
418.07	3887.63
418.26	3803.37
418.45	3936.78
418.64	4053.81
418.83	3964.87
419.02	3929.76
419.21	4287.86
419.39	4133.39
419.58	4142.75
419.77	4070.19
419.96	4205.94
420.15	4252.75
420.34	4304.25
420.53	4304.25
420.72	4280.84
420.91	4465.74
421.10	4348.72
421.29	4444.68
421.48	4287.86
421.67	4372.12
421.86	4489.15
422.05	4533.62
422.24	4486.81
422.43	4475.10
422.61	4554.68
422.80	4519.57
422.99	4470.42
423.18	4451.70
423.37	4594.47
423.56	4493.83
423.75	4624.90
423.94	4751.29
424.13	4290.20
424.32	4344.03
424.50	4692.77
424.69	4793.42
424.88	4634.26
425.07	4645.96
425.26	4465.74
425.45	4589.79
425.64	4622.56
425.83	4671.71
426.01	4662.35
426.20	4739.58
426.39	4690.43
426.58	4585.11
426.77	4758.31
426.96	4594.47
427.15	4777.03
427.33	4784.06
427.52	4781.71
427.71	4875.34
427.90	4835.55
428.09	4863.63
428.28	5055.56
428.46	5142.16
428.65	5025.13
428.84	5144.50
429.03	5163.22
429.22	5036.83
429.40	5249.82
429.59	5041.51
429.78	4975.98
429.97	4922.15
430.16	4987.68
430.34	5214.71
430.53	5320.04
430.72	5018.11
430.91	5179.61
431.10	5158.54
431.28	5322.38
431.47	5628.99
431.66	5350.46
431.85	5453.45
432.03	5645.37
432.22	5591.54
432.41	5593.88
432.60	5605.58
432.79	5708.57
432.97	5626.65
433.16	5638.35
433.35	5778.78
433.54	5771.76
433.72	5710.91
433.91	5640.69
434.10	5614.95
434.28	5680.48
434.47	5678.14
434.66	5755.38
434.85	5968.37
435.03	6001.13
435.22	5870.06
435.41	6001.13
435.59	6017.52
435.78	5966.03
435.97	6258.59
436.16	6024.54
436.34	6059.65
436.53	6101.78
436.72	6104.12
436.90	6085.39
437.09	6286.68
437.28	6211.78
437.46	6164.97
437.65	6314.77
437.84	6221.14
438.02	6436.47
438.21	6530.09
438.40	6340.51
438.58	6431.79
438.77	6560.52
438.96	6487.96
439.14	6614.35
439.33	6778.19
439.52	6820.32
439.70	6871.81
439.89	6937.35
440.08	6876.49
440.26	6895.22
440.45	6841.39
440.63	7019.27
440.82	7276.73
441.01	7112.89
441.19	7176.08
441.38	7426.52
441.57	7365.67
441.75	7304.81
441.94	7211.19
442.12	7405.46
442.31	7555.25
442.50	7754.19
442.68	7810.37
442.87	7527.16
443.05	7688.66
443.24	7644.19
443.43	7850.16
443.61	7761.22
443.80	7744.83
443.98	7672.28
444.17	7433.54
444.35	7618.44
444.54	7908.67
444.73	7845.48
444.91	7861.86
445.10	7831.43
445.28	7882.92
445.47	7801.01
445.65	7651.21
445.84	7854.84
446.02	7873.56
446.21	7896.97
446.39	7882.92
446.58	7866.54
446.77	8126.34
446.95	7810.37
447.14	7826.75
447.32	8037.40
447.51	8067.83
447.69	8114.64
447.88	7997.61
448.06	7948.46
448.25	8074.85
448.43	8287.84
448.62	8006.97
448.80	7974.21
448.99	8243.37
449.17	8168.47
449.36	8276.13
449.54	8182.51
449.73	8327.63
449.91	8439.97
450.10	8634.24
450.28	8470.40
450.46	8362.73
450.65	8559.34
450.83	8446.99
451.02	8411.89
451.20	8496.14
451.39	8648.28
451.57	8571.04
451.76	8519.55
451.94	8458.70
452.13	8875.31
452.31	8837.86
452.49	8702.11
452.68	8769.99
452.86	8889.35
453.05	8833.18
453.23	9078.94
453.42	8791.05
453.60	8812.12
453.78	9041.49
453.97	8816.80
454.15	8940.85
454.34	9067.24
454.52	9116.39
454.70	8985.32
454.89	9109.36
455.07	9146.81
455.26	9128.09
455.44	9394.91
455.62	9224.05
455.81	9315.33
455.99	9509.60
456.17	9387.89
456.36	9270.86
456.54	9390.23
456.73	9542.36
456.91	9776.42
457.09	9568.11
457.28	9771.74
457.46	9729.61
457.64	9937.91
457.83	9909.83
458.01	9703.86
458.19	9942.60
458.38	9944.94
458.56	10136.86
458.74	10057.28
458.93	9891.10
459.11	10146.22
459.29	10085.37
459.48	10356.87
459.66	10225.80
459.84	10298.36
460.03	10303.04
460.21	10310.06
460.39	10324.10
460.57	10410.70
460.76	10480.92
460.94	10597.95
461.12	10352.19
461.31	10555.82
461.49	10516.03
461.67	10319.42
461.85	10785.19
462.04	10604.97
462.22	11272.02
462.40	10827.32
462.59	11105.84
462.77	10822.64
462.95	10736.04
463.13	10923.28
463.32	10974.77
463.50	10925.62
463.68	11073.07
463.86	11056.69
464.05	10895.19
464.23	10977.11
464.41	11190.10
464.59	10951.37
464.78	11363.30
464.96	11159.67
465.14	11105.84
465.32	11094.14
465.50	11370.32
465.69	11400.75
465.87	11353.94
466.05	11281.38
466.23	11140.95
466.41	11367.98
466.60	11602.04
466.78	11431.18
466.96	11548.20
467.14	11372.66
467.32	11749.49
467.51	11620.76
467.69	11257.98
467.87	11590.33
468.05	11534.16
468.23	11721.40
468.41	11627.78
468.60	11686.29
468.78	11861.84
468.96	11964.82
469.14	12161.42
469.32	11866.52
469.50	11763.53
469.69	12081.85
469.87	12343.99
470.05	12231.64
470.23	12315.90
470.41	12351.01
470.59	12299.52
470.77	12226.96
470.95	12489.10
471.14	12706.77
471.32	12105.25
471.50	12695.07
471.68	12601.44
471.86	12664.64
472.04	12746.56
472.22	13142.11
472.40	12875.29
472.58	13036.78
472.77	13102.32
472.95	13032.10
473.13	13565.74
473.31	13081.25
473.49	13411.27
473.67	13455.74
473.85	13392.55
474.03	13511.91
474.21	13504.89
474.39	13816.18
474.57	13748.31
474.75	13926.19
474.93	14090.02
475.12	13809.16
475.30	14195.35
475.48	14075.98
475.66	14061.94
475.84	14132.15
476.02	14403.66
476.20	14242.16
476.38	14899.85
476.56	15150.29
476.74	14743.03
476.92	14780.48
477.10	14787.50
477.28	15176.03
477.46	14867.08
477.64	15063.69
477.82	15517.75
478.00	15676.91
478.18	15667.55
478.36	15875.85
478.54	16084.16
478.72	16189.49
478.90	16273.74
479.08	16306.51
479.26	16468.01
479.44	16744.19
479.62	16847.18
479.80	16638.87
479.98	16840.15
480.16	16929.09
480.34	16938.46
480.52	17329.33
480.70	17357.41
480.88	17259.11
481.06	17556.36
481.24	17425.29
481.41	17717.86
481.59	18057.23
481.77	18153.20
481.95	18300.65
482.13	18513.64
482.31	18455.12
482.49	18897.49
482.67	18923.23
482.85	18988.77
483.03	19192.39
483.21	19171.33
483.39	19625.39
483.57	19487.30
483.74	19674.54
483.92	20287.76
484.10	19878.17
484.28	20283.08
484.46	20837.79
484.64	20868.22
484.82	20526.50
485.00	20786.30
485.18	21188.87
485.35	21631.23
485.53	21193.55
485.71	21696.77
485.89	22029.12
486.07	21656.98
486.25	21954.22
486.43	21729.53
486.61	22354.46
486.78	22485.53
486.96	22799.16
487.14	23042.57
487.32	22909.16
487.50	23171.30
487.68	23056.62
487.85	23616.01
488.03	23974.11
488.21	24063.05
488.39	24084.11
488.57	24416.47
488.75	24416.47
488.92	24884.58
489.10	24669.25
489.28	24856.49
489.46	25174.80
489.64	25198.21
489.81	25708.44
489.99	25759.94
490.17	26143.78
490.35	26211.66
490.53	26551.04
490.70	26602.53
490.88	26499.55
491.06	27030.85
491.24	27117.45
491.41	26862.33
491.59	27377.25
491.77	27276.60
491.95	27718.96
492.13	27655.77
492.30	28147.28
492.48	28191.75
492.66	28039.62
492.84	28140.26
493.01	28491.34
493.19	28599.01
493.37	28961.79
493.54	29249.67
493.72	29467.34
493.90	29319.89
494.08	29465.00
494.25	30057.16
494.43	30050.14
494.61	30384.83
494.79	30366.11
494.96	30445.69
495.14	30508.88
495.32	30686.76
495.49	30679.74
495.67	31133.81
495.85	31314.03
496.02	31688.51
496.20	31721.28
496.38	31700.22
496.55	31409.99
496.73	32170.66
496.91	32245.56
497.09	32620.05
497.26	33078.79
497.44	32662.18
497.62	32690.26
497.79	33088.15
497.97	33074.11
498.14	33741.16
498.32	33472.00
498.50	33968.19
498.67	34389.49
498.85	33900.32
499.03	33680.31
499.20	34366.09
499.38	34213.95
499.56	34398.85
499.73	34499.50
499.91	35115.06
500.08	34756.96
500.26	34897.39
500.44	34991.01
500.61	35625.29
500.79	35030.80
500.97	35702.53
501.14	35892.12
501.32	35697.85
501.49	35370.18
501.67	35711.89
501.84	35861.69
502.02	35999.78
502.20	36505.34
502.37	36613.00
502.55	36751.09
502.72	36704.28
502.90	36870.46
503.07	36383.63
503.25	37069.40
503.43	36795.56
503.60	37574.96
503.78	37596.03
503.95	37535.17
504.13	37963.49
504.30	37797.31
504.48	37614.75
504.65	37675.60
504.83	38361.38
505.01	38534.58
505.18	38181.16
505.36	38635.22
505.53	38298.19
505.71	38515.86
505.88	38705.44
506.06	38632.88
506.23	39323.34
506.41	39505.90
506.58	39636.97
506.76	39175.89
506.93	39470.79
507.11	39632.29
507.28	39379.51
507.46	39431.01
507.63	39782.09
507.81	40079.33
507.98	40027.84
508.16	40182.32
508.33	40076.99
508.50	40402.33
508.68	40786.18
508.85	40725.32
509.03	40809.58
509.20	41537.49
509.38	40933.63
509.55	41432.16
509.73	41205.13
509.90	41144.28
510.08	41385.35
510.25	41373.65
510.42	41713.03
510.60	41949.42
510.77	42010.28
510.95	41986.87
511.12	41900.27
511.30	41649.83
511.47	42717.12
511.64	42412.85
511.82	42447.96
511.99	42457.32
512.17	42925.42
512.34	42733.50
512.51	43550.35
512.69	43253.10
512.86	43115.01
513.04	43271.82
513.21	43182.88
513.38	43330.34
513.56	43452.05
513.73	43398.21
513.90	43311.61
514.08	43583.12
514.25	43878.02
514.43	44041.86
514.60	44030.16
514.77	44102.71
514.95	45059.99
515.12	44018.46
515.29	44296.98
515.47	45097.44
515.64	44713.59
515.81	44741.68
515.99	44886.79
516.16	45544.48
516.33	45464.91
516.51	45315.11
516.68	44966.37
516.85	45324.47
517.03	45478.95
517.20	45521.08
517.37	45968.12
517.54	45832.37
517.72	45476.61
517.89	45993.87
518.06	45858.12
518.24	45551.51
518.41	45750.45
518.58	46174.09
518.75	45954.08
518.93	46726.46
519.10	46440.91
519.27	46794.33
519.45	46476.02
519.62	46836.46
519.79	46384.74
519.96	47014.34
520.14	47124.35
520.31	46815.40
520.48	47105.62
520.65	47278.82
520.83	47079.88
521.00	47409.89
521.17	47283.50
521.34	47346.70
521.52	47311.59
521.69	48037.16
521.86	47920.13
522.03	47723.52
522.20	48020.77
522.38	48261.85
522.55	48378.87
522.72	48121.41
522.89	47992.68
523.07	48577.82
523.24	48350.79
523.41	48587.18
523.58	48615.27
523.75	48823.58
523.92	48608.25
524.10	48610.59
524.27	48650.38
524.44	48917.20
524.61	49301.04
524.78	49062.31
524.96	49071.67
525.13	49097.42
525.30	49120.82
525.47	49542.12
525.64	48882.09
525.81	49347.86
525.98	49347.86
526.16	49602.97
526.33	49544.46
526.50	49773.83
526.67	49499.99
526.84	49481.27
527.01	49762.13
527.18	49944.69
527.36	50124.91
527.53	50089.80
527.70	50475.99
527.87	50614.08
528.04	49808.94
528.21	50398.76
528.38	50380.03
528.55	50548.55
528.72	50454.93
528.89	50588.34
529.07	50642.17
529.24	50485.36
529.41	50604.72
529.58	50211.51
529.75	50649.19
529.92	50691.32
530.09	50609.40
530.26	50719.41
530.43	51107.94
530.60	50866.86
530.77	50691.32
530.94	50923.04
531.11	51002.61
531.28	50721.75
531.46	51121.98
531.63	51363.06
531.80	51316.25
531.97	51805.42
532.14	51604.13
532.31	51332.63
532.48	51650.94
532.65	51501.15
532.82	51597.11
532.99	51545.62
533.16	51395.82
533.33	51526.89
533.50	51980.96
533.67	52233.74
533.84	51744.56
534.01	51854.57
534.18	51627.54
534.35	51753.93
534.52	52018.41
534.69	51936.49
534.86	52292.25
535.03	52109.69
535.20	52247.78
535.37	52285.23
535.54	52327.36
535.71	52229.05
535.88	52509.92
536.05	52608.22
536.22	52720.57
536.38	52758.02
536.55	52694.82
536.72	53057.60
536.89	52322.68
537.06	52549.71
537.23	52662.05
537.40	52605.88
537.57	52861.00
537.74	52533.32
537.91	52992.07
538.08	52982.71
538.25	52884.40
538.42	52790.78
538.59	53104.41
538.75	52858.66
538.92	53141.86
539.09	53399.32
539.26	53186.33
539.43	53176.97
539.60	53375.92
539.77	53041.22
539.94	53432.09
540.11	53399.32
540.28	53429.75
540.44	53305.70
540.61	53284.64
540.78	53490.60
540.95	53518.69
541.12	53392.30
541.29	53396.98
541.46	53724.66
541.62	53638.06
541.79	53558.48
541.96	53291.66
542.13	53738.70
542.30	53593.59
542.47	53888.49
542.63	54087.44
542.80	53963.39
542.97	54192.76
543.14	54372.99
543.31	54157.66
543.48	54211.49
543.64	54302.77
543.81	54482.99
543.98	54457.24
544.15	54578.95
544.32	54342.56
544.48	54487.67
544.65	54424.48
544.82	54363.62
544.99	54014.88
545.16	54176.38
545.32	54288.73
545.49	54831.73
545.66	54925.35
545.83	54923.01
546.00	55014.29
546.16	54815.35
546.33	54665.55
546.50	54396.39
546.67	54763.85
546.83	54529.80
547.00	54698.32
547.17	54871.52
547.34	54726.41
547.50	55011.95
547.67	54843.43
547.84	55086.85
548.00	54782.58
548.17	55210.90
548.34	54789.60
548.51	55224.94
548.67	55253.03
548.84	55114.94
549.01	55157.06
549.18	55152.38
549.34	55107.91
549.51	55175.79
549.68	55126.64
549.84	55061.10
550.01	55208.56
550.18	55360.69
550.34	55236.64
550.51	55473.04
550.68	55622.83
550.84	55351.33
551.01	55531.55
551.18	55152.38
551.34	55288.13
551.51	55690.71
551.68	55377.08
551.84	55440.27
552.01	55543.25
552.18	55880.29
552.34	55725.81
552.51	55536.23
552.68	55650.92
552.84	55477.72
553.01	55723.47
553.18	55884.97
553.34	55627.51
553.51	55641.56
553.67	55641.56
553.84	56137.75
554.01	56142.43
554.17	55924.76
554.34	55896.67
554.51	55887.31
554.67	55941.14
554.84	56144.77
555.00	55929.44
555.17	55952.85
555.33	55901.36
555.50	55852.20
555.67	55957.53
555.83	56123.71
556.00	55962.21
556.16	56104.98
556.33	56079.24
556.50	55891.99
556.66	56310.95
556.83	56137.75
556.99	56322.65
557.16	56381.16
557.32	56214.99
557.49	56161.15
557.65	56245.41
557.82	56371.80
557.98	56254.78
558.15	56334.35
558.32	56367.12
558.48	56465.42
558.65	56409.25
558.81	56495.85
558.98	56481.81
559.14	56587.13
559.31	56306.27
559.47	56315.63
559.64	56378.82
559.80	56500.53
559.97	56713.52
560.13	56402.23
560.30	56617.56
560.46	56662.03
560.63	56563.73
560.79	56516.92
560.96	56788.42
561.12	56699.48
561.29	56547.34
561.45	56666.71
561.61	56732.25
561.78	56776.72
561.94	56690.12
562.11	56596.49
562.27	56687.78
562.44	56645.65
562.60	56734.59
562.77	56727.56
562.93	56446.70
563.10	56741.61
563.26	56767.35
563.42	56919.49
563.59	56882.04
563.75	56832.89
563.92	56954.60
564.08	56669.05
564.24	56807.14
564.41	56779.06
564.57	56683.09
564.74	56713.52
564.90	56823.53
565.07	56996.73
565.23	56956.94
565.39	56973.32
565.56	56760.33
565.72	56858.63
565.88	56832.89
566.05	56638.62
566.21	56973.32
566.38	56725.22
566.54	56804.80
566.70	57160.56
566.87	57118.43
567.03	56846.93
567.19	57301.00
567.36	56912.47
567.52	56846.93
567.68	57174.61
567.85	56797.78
568.01	57090.35
568.17	56968.64
568.34	57282.27
568.50	57001.41
568.66	57127.80
568.83	57148.86
568.99	56868.00
569.15	56987.36
569.32	56996.73
569.48	56844.59
569.64	56893.74
569.81	56816.50
569.97	57106.73
570.13	57270.57
570.30	57003.75
570.46	57315.04
570.62	56947.57
570.78	56903.10
570.95	57022.47
571.11	57205.03
571.27	56933.53
571.43	56963.96
571.60	57148.86
571.76	57235.46
571.92	57331.42
572.09	57139.50
572.25	57361.85
572.41	57303.34
572.57	57041.20
572.74	57338.44
572.90	57244.82
573.06	57125.46
573.22	56968.64
573.38	57249.50
573.55	57303.34
573.71	57626.33
573.87	57422.70
574.03	57399.30
574.20	57268.23
574.36	57350.15
574.52	57368.87
574.68	57127.80
574.84	57078.64
575.01	57315.04
575.17	57504.62
575.33	56940.55
575.49	57181.63
575.65	57291.63
575.82	57546.75
575.98	57127.80
576.14	57228.44
576.30	57233.12
576.46	57062.26
576.62	57172.27
576.79	57420.36
576.95	57010.77
577.11	57324.40
577.27	57361.85
577.43	57336.10
577.59	57118.43
577.75	57336.10
577.92	57062.26
578.08	57195.67
578.24	57258.87
578.40	57492.92
578.56	57315.04
578.72	57312.70
578.88	57380.57
579.04	57411.00
579.21	57324.40
579.37	57434.41
579.53	57425.04
579.69	57523.35
579.85	57277.59
580.01	57368.87
580.17	57286.95
580.33	56999.07
580.49	57474.20
580.65	57425.04
580.82	57525.69
580.98	57366.53
581.14	57153.54
581.30	57499.94
581.46	57127.80
581.62	57205.03
581.78	57120.77
581.94	57282.27
582.10	57462.49
582.26	57317.38
582.42	57179.29
582.58	57179.29
582.74	57324.40
582.90	57432.07
583.06	57380.57
583.22	57371.21
583.38	57214.40
583.54	57209.71
583.70	57315.04
583.86	57141.84
584.02	57088.01
584.18	57331.42
584.34	57556.11
584.50	57682.50
584.66	57408.66
584.82	57158.22
584.98	57373.55
585.14	57279.93
585.30	57279.93
585.46	57439.09
585.62	57251.84
585.78	57286.95
585.94	57151.20
586.10	57509.30
586.26	57455.47
586.42	57450.79
586.58	57677.82
586.74	57389.94
586.90	57333.76
587.06	57092.69
587.22	57411.00
587.38	57237.80
587.54	57347.81
587.70	57748.04
587.86	57436.75
588.02	57336.10
588.18	57628.67
588.34	57598.24
588.49	57399.30
588.65	57378.23
588.81	57399.30
588.97	57279.93
589.13	57602.92
589.29	57326.74
589.45	57530.37
589.61	57682.50
589.77	57883.79
589.93	57829.96
590.08	57762.08
590.24	57712.93
590.40	57689.52
590.56	57827.62
590.72	57352.49
590.88	57631.01
591.04	57832.30
591.20	57780.81
591.35	57851.02
591.51	57970.39
591.67	57862.72
591.83	57731.65
591.99	57841.66
592.15	57773.78
592.31	57652.08
592.46	57647.39
592.62	57612.29
592.78	57492.92
592.94	57645.05
593.10	57460.15
593.26	57762.08
593.41	57890.81
593.57	57663.78
593.73	57684.84
593.89	57808.89
594.05	57687.18
594.20	57745.70
594.36	57621.65
594.52	57593.56
594.68	57546.75
594.84	57642.71
594.99	57895.49
595.15	57762.08
595.31	58010.18
595.47	57904.85
595.62	58129.54
595.78	57769.10
595.94	57642.71
596.10	57577.18
596.25	57811.23
596.41	57549.09
596.57	57642.71
596.73	57640.37
596.88	57495.26
597.04	57907.19
597.20	57897.83
597.36	57890.81
597.51	58141.25
597.67	57654.42
597.83	57921.24
597.99	57841.66
598.14	57677.82
598.30	57719.95
598.46	57867.40
598.61	57961.03
598.77	57558.45
598.93	57687.18
599.09	57832.30
599.24	58113.16
599.40	57890.81
599.56	57829.96
599.71	57729.31
599.87	57925.92
600.03	57701.23
600.18	57584.20
600.34	57654.42
600.50	57577.18
600.65	57785.49
600.81	57970.39
600.97	57860.38
601.12	57865.06
601.28	57914.22
601.44	57701.23
601.59	57930.60
601.75	57687.18
601.91	57787.83
602.06	57616.97
602.22	57949.32
602.37	57411.00
602.53	57829.96
602.69	58007.84
602.84	57638.03
603.00	57811.23
603.16	57738.68
603.31	57886.13
603.47	57815.91
603.62	57649.74
603.78	57572.50
603.94	57822.93
604.09	57813.57
604.25	57609.95
604.40	57619.31
604.56	57621.65
604.71	58291.04
604.87	57757.40
605.03	57715.27
605.18	57808.89
605.34	57813.57
605.49	57506.96
605.65	57399.30
605.80	57293.97
605.96	57778.46
606.12	57649.74
606.27	57733.99
606.43	57347.81
606.58	57712.93
606.74	57668.46
606.89	57638.03
607.05	57560.79
607.20	57757.40
607.36	57453.13
607.51	57516.32
607.67	57350.15
607.82	57614.63
607.98	57317.38
608.13	57476.54
608.29	57411.00
608.44	57092.69
608.60	57305.68
608.75	57673.14
608.91	57499.94
609.06	57406.32
609.22	57586.54
609.37	57242.48
609.53	57450.79
609.68	57425.04
609.84	57359.51
609.99	57293.97
610.15	57254.18
610.30	57247.16
610.46	57425.04
610.61	57277.59
610.76	57235.46
610.92	57186.31
611.07	57270.57
611.23	57155.88
611.38	57471.85
611.54	57242.48
611.69	57401.64
611.84	57130.14
612.00	57151.20
612.15	57125.46
612.31	57422.70
612.46	57216.74
612.62	57298.65
612.77	57375.89
612.92	57551.43
613.08	57174.61
613.23	57371.21
613.39	57069.28
613.54	57092.69
613.69	57209.71
613.85	57165.24
614.00	57130.14
614.15	57104.39
614.31	56947.57
614.46	57048.22
614.62	57106.73
614.77	57303.34
614.92	56999.07
615.08	57130.14
615.23	57071.62
615.38	57099.71
615.54	56832.89
615.69	56828.21
615.84	56872.68
616.00	56933.53
616.15	56828.21
616.30	56978.00
616.46	56793.10
616.61	57085.67
616.76	56774.37
616.92	56905.44
617.07	56940.55
617.22	56743.95
617.37	56671.39
617.53	56926.51
617.68	56474.79
617.83	56512.23
617.99	56774.37
618.14	56643.30
618.29	56809.48
618.45	56662.03
618.60	56851.61
618.75	56828.21
618.90	56779.06
619.06	56860.97
619.21	56594.15
619.36	56868.00
619.51	56552.02
619.67	56528.62
619.82	56437.34
619.97	56390.53
620.12	56535.64
620.28	56409.25
620.43	56472.45
620.58	56413.93
620.73	56357.76
620.89	56673.73
621.04	56690.12
621.19	56442.02
621.34	56388.19
621.49	56381.16
621.65	56296.91
621.80	56451.38
621.95	56196.26
622.10	56397.55
622.25	56467.76
622.41	56575.43
622.56	56175.20
622.71	56289.88
622.86	56364.78
623.01	56418.61
623.16	56126.05
623.32	56320.31
623.47	56491.17
623.62	56177.54
623.77	56067.53
623.92	55987.95
624.07	55992.64
624.23	56116.68
624.38	56310.95
624.53	56037.11
624.68	56072.21
624.83	56060.51
624.98	56175.20
625.13	55966.89
625.29	56095.62
625.44	56053.49
625.59	56086.26
625.74	55976.25
625.89	55664.96
626.04	55629.85
626.19	55650.92
626.34	55945.83
626.49	55683.69
626.65	55648.58
626.80	55599.43
626.95	55693.05
627.10	55690.71
627.25	55835.82
627.40	55728.16
627.55	55732.84
627.70	55374.73
627.85	55625.17
628.00	55571.34
628.15	55487.08
628.30	55316.22
628.45	55671.98
628.60	55533.89
628.76	55711.77
628.91	55379.42
629.06	55671.98
629.21	55566.66
629.36	55667.30
629.51	55487.08
629.66	55725.81
629.81	55171.11
629.96	55246.00
630.11	55075.15
630.26	55255.37
630.41	55173.45
630.56	55049.40
630.71	55173.45
630.86	55311.54
631.01	55044.72
631.16	55091.53
631.31	55194.51
631.46	55140.68
631.61	55089.19
631.76	55152.38
631.91	54927.69
632.06	54976.84
632.21	54972.16
632.36	55313.88
632.51	54672.57
632.66	54813.01
632.81	54775.56
632.96	55185.15
633.10	55091.53
633.25	54958.12
633.40	55119.62
633.55	54857.48
633.70	54878.54
633.85	54850.45
634.00	54754.49
634.15	54803.64
634.30	54759.17
634.45	54698.32
634.60	54752.15
634.75	54836.41
634.90	54583.63
635.05	54724.07
635.19	54768.54
635.34	55037.70
635.49	54684.28
635.64	54522.78
635.79	54740.45
635.94	54721.72
636.09	54440.86
636.24	54389.37
636.39	54384.69
636.53	54621.08
636.68	54337.88
636.83	54578.95
636.98	54885.56
637.13	54522.78
637.28	54777.90
637.43	54494.69
637.57	54354.26
637.72	54223.19
637.87	54230.21
638.02	54188.08
638.17	54429.16
638.32	54342.56
638.46	54244.26
638.61	53982.12
638.76	53930.62
638.91	54113.19
639.06	54241.92
639.20	54061.69
639.35	53986.80
639.50	54265.32
639.65	54319.15
639.80	54270.00
639.94	54333.20
640.09	53977.43
640.24	54000.84
640.39	53776.15
640.54	53677.85
640.68	53972.75
640.83	53741.04
640.98	53448.47
641.13	53233.14
641.27	54038.29
641.42	53797.21
641.57	53556.14
641.72	53961.05
641.86	53773.81
642.01	53605.29
642.16	53722.32
642.31	53329.11
642.45	53918.92
642.60	53279.96
642.75	53666.14
642.90	53525.71
643.04	53450.81
643.19	53441.45
643.34	53703.59
643.48	53242.51
643.63	53453.15
643.78	53670.82
643.93	53616.99
644.07	53380.60
644.22	53523.37
644.37	53221.44
644.51	53261.23
644.66	53455.50
644.81	53434.43
644.95	53193.36
645.10	53296.34
645.25	53151.23
645.39	53186.33
645.54	53258.89
645.69	53450.81
645.83	53034.20
645.98	53289.32
646.13	53200.38
646.27	53303.36
646.42	52985.05
646.57	53272.93
646.71	53045.90
646.86	53073.99
647.00	52882.06
647.15	52875.04
647.30	52643.33
647.44	52865.68
647.59	52718.23
647.74	52701.84
647.88	52947.60
648.03	53118.46
648.17	53158.25
648.32	53036.54
648.47	52959.30
648.61	52844.62
648.76	52980.37
648.90	52622.26
649.05	52538.01
649.20	52788.44
649.34	52807.17
649.49	52556.73
649.63	52657.37
649.78	52554.39
649.92	52540.35
650.07	52722.91
650.21	52203.31
650.36	52563.75
650.51	52617.58
650.65	52622.26
650.80	52837.59
650.94	52477.15
651.09	52477.15
651.23	52327.36
651.38	52549.71
651.52	52397.57
651.67	52390.55
651.81	52200.97
651.96	52196.29
652.10	52402.25
652.25	52217.35
652.39	52310.97
652.54	52435.02
652.68	52418.64
652.83	52392.89
652.97	52266.50
653.12	52552.05
653.26	52119.05
653.41	52109.69
653.55	52313.31
653.70	51772.65
653.84	52083.94
653.99	52116.71
654.13	52013.73
654.27	51924.78
654.42	51636.90
654.56	51828.82
654.71	52205.65
654.85	51887.34
655.00	51824.14
655.14	51763.29
655.29	51859.25
655.43	51639.24
655.57	51786.69
655.72	51714.14
655.86	51653.28
656.01	51524.55
656.15	51274.12
656.30	51444.98
656.44	51662.64
656.58	51351.35
656.73	51400.50
656.87	51262.41
657.01	51545.62
657.16	51805.42
657.30	51435.61
657.45	51466.04
657.59	51405.19
657.73	51416.89
657.88	51189.86
658.02	51086.87
658.16	51061.13
658.31	51021.34
658.45	50630.47
658.60	50913.67
658.74	51070.49
658.88	51016.66
659.03	51152.41
659.17	50855.16
659.31	51224.96
659.46	50768.56
659.60	51152.41
659.74	51126.66
659.89	51150.07
660.03	50829.41
660.17	51023.68
660.32	50562.59
660.46	50756.86
660.60	50623.45
660.74	50504.08
660.89	50461.95
661.03	50337.90
661.17	50171.72
661.32	50160.02
661.46	50312.16
661.60	50066.40
661.74	50316.84
661.89	50192.79
662.03	50113.21
662.17	50265.34
662.31	50087.46
662.46	50085.12
662.60	50143.64
662.74	49752.77
662.88	49626.38
663.03	49663.83
663.17	49457.86
663.31	49057.63
663.45	49338.49
663.60	49209.76
663.74	49308.07
663.88	49659.15
664.02	49317.43
664.17	49595.95
664.31	49111.46
664.45	49460.20
664.59	49722.34
664.73	49537.44
664.88	49031.88
665.02	48437.39
665.16	48699.53
665.30	48907.83
665.44	48591.86
665.59	48825.92
665.73	48704.21
665.87	48568.46
666.01	48877.41
666.15	49036.56
666.29	48554.41
666.44	48928.90
666.58	48289.93
666.72	48954.64
666.86	48428.02
667.00	48509.94
667.14	48233.76
667.28	48678.46
667.43	48500.58
667.57	48236.10
667.71	48236.10
667.85	48041.84
667.99	47824.17
668.13	47810.12
668.27	47515.22
668.41	47723.52
668.56	47629.90
668.70	47826.51
668.84	47690.76
668.98	47255.42
669.12	47445.00
669.26	47522.24
669.40	47501.17
669.54	47501.17
669.68	47114.98
669.82	46948.81
669.96	47079.88
670.10	46717.09
670.25	46752.20
670.39	46703.05
670.53	46567.30
670.67	46735.82
670.81	46775.61
670.95	46485.38
671.09	46653.90
671.23	46717.09
671.37	46569.64
671.51	46396.44
671.65	46461.97
671.79	46174.09
671.93	46440.91
672.07	46110.89
672.21	46108.55
672.35	46045.36
672.49	45649.81
672.63	45670.87
672.77	45476.61
672.91	45720.02
673.05	45235.53
673.19	45776.20
673.33	45574.91
673.47	45446.18
673.61	45464.91
673.75	45528.10
673.89	45153.62
674.03	45062.33
674.17	44891.48
674.31	45076.38
674.45	44683.17
674.59	44704.23
674.73	44739.34
674.87	44507.63
675.01	44545.08
675.15	44432.73
675.29	44435.07
675.43	43913.13
675.56	44388.26
675.70	43964.62
675.84	44306.34
675.98	43049.47
676.12	44264.21
676.26	44055.90
676.40	43456.73
676.54	43501.20
676.68	43606.52
676.82	42504.13
676.96	43248.42
677.10	43117.35
677.23	42553.28
677.37	42600.09
677.51	42525.19
677.65	42192.84
677.79	41900.27
677.93	42052.41
678.07	41872.18
678.21	41619.41
678.34	42057.09
678.48	41647.49
678.62	41670.90
678.76	41528.13
678.90	41677.92
679.04	41493.02
679.18	41439.18
679.31	40790.86
679.45	40683.19
679.59	40877.46
679.73	40718.30
679.87	40456.16
680.00	40383.60
680.14	40194.02
680.28	40149.55
680.42	40137.85
680.56	40259.55
680.70	39821.87
680.83	40273.60
680.97	39709.53
681.11	40116.78
681.25	39716.55
681.39	39906.13
681.52	39407.60
681.66	39587.82
681.80	38927.79
681.94	38796.72
682.07	38930.13
682.21	38553.30
682.35	38883.32
682.49	38632.88
682.62	38017.32
682.76	38326.27
682.90	38579.05
683.04	37975.19
683.17	38010.30
683.31	37848.80
683.45	38342.66
683.59	37495.38
683.72	37874.55
683.86	37235.58
684.00	37008.55
684.13	36884.50
684.27	36966.42
684.41	37038.98
684.55	36875.14
684.68	36697.26
684.82	36329.80
684.96	36421.08
685.09	36229.15
685.23	36032.55
685.37	36154.26
685.50	36285.33
685.64	36016.16
685.78	36004.46
685.91	36032.55
686.05	35777.43
686.19	35576.14
686.32	35351.45
686.46	34642.27
686.60	34873.98
686.73	35196.98
686.87	34838.87
687.01	34859.94
687.14	34377.79
687.28	34031.39
687.42	34106.29
687.55	34345.02
687.69	34314.59
687.82	34293.53
687.96	33986.92
688.10	33879.25
688.23	33886.28
688.37	34017.35
688.50	33673.29
688.64	33495.41
688.78	32917.29
688.91	33092.83
689.05	33024.96
689.18	33050.70
689.32	32339.18
689.46	32409.40
689.59	32215.13
689.73	32435.14
689.86	32444.51
690.00	31929.59
690.13	32400.04
690.27	32385.99
690.41	32002.14
690.54	32093.43
690.68	31622.98
690.81	31899.16
690.95	31637.02
691.08	31824.26
691.22	31674.47
691.35	31358.50
691.49	31328.07
691.62	30904.43
691.76	30899.75
691.89	30639.95
692.03	30398.88
692.16	30487.82
692.30	30300.58
692.43	30211.64
692.57	29970.56
692.70	29600.76
692.84	29706.08
692.97	29638.20
693.11	29570.33
693.24	29694.38
693.38	29902.68
693.51	29521.18
693.65	29666.29
693.78	29247.33
693.92	29256.70
694.05	29088.18
694.19	28893.91
694.32	28936.04
694.45	28538.15
694.59	28341.55
694.72	28629.43
694.86	27971.74
694.99	28046.64
695.13	27913.23
695.26	27489.59
695.39	27943.66
695.53	28142.60
695.66	27931.95
695.80	27529.38
695.93	27599.60
696.07	27711.94
696.20	27335.12
696.33	27253.20
696.47	27014.46
696.60	27023.83
696.73	26675.09
696.87	26810.84
697.00	26572.10
697.14	26398.90
697.27	25575.03
697.40	25649.93
697.54	25827.81
697.67	26015.05
697.80	25724.83
697.94	25460.35
698.07	25289.49
698.21	25432.26
698.34	25355.02
698.47	25612.48
698.61	25055.43
698.74	25181.82
698.87	25085.86
699.01	25127.99
699.14	24790.95
699.27	24819.04
699.40	24926.71
699.54	24439.87
699.67	24304.12
699.80	24266.67
699.94	23939.00
700.07	24081.77
700.20	24018.58
700.34	23695.58
700.47	23480.25
700.60	23782.18
700.73	23747.08
700.87	23611.32
701.00	23601.96
701.13	23131.51
701.26	23372.59
701.40	23005.13
701.53	23002.78
701.66	23094.07
701.79	22906.82
701.93	22537.02
702.06	22494.89
702.19	22398.93
702.32	22309.99
702.46	22118.06
702.59	22010.40
702.72	21654.64
702.85	21685.06
702.99	21811.45
703.12	21596.12
703.25	21673.36
703.38	21614.85
703.51	21577.40
703.65	21436.97
703.78	21259.09
703.91	21111.63
704.04	21055.46
704.17	21151.42
704.31	20959.50
704.44	21069.50
704.57	20833.11
704.70	20690.34
704.83	20114.56
704.96	20280.74
705.10	20201.16
705.23	20191.80
>>>>>End Processed Spectral Data<<<<<
