SpectraSuite Data File
++++++++++++++++++++++++++++++++++++
Date: Fri Oct 18 13:58:16 GMT-05:00 2013
User: bianchi
Dark Spectrum Present: No
Reference Spectrum Present: No
Number of Sampled Component Spectra: 1
Spectrometers: USB2+H05261
Integration Time (usec): 50000 (USB2+H05261)
Spectra Averaged: 1 (USB2+H05261)
Boxcar Smoothing: 0 (USB2+H05261)
Correct for Electrical Dark: No (USB2+H05261)
Strobe/Lamp Enabled: No (USB2+H05261)
Correct for Detector Non-linearity: No (USB2+H05261)
Correct for Stray Light: No (USB2+H05261)
Number of Pixels in Processed Spectrum: 2048
>>>>>Begin Processed Spectral Data<<<<<
365.73	0.00
365.92	0.00
366.12	0.00
366.32	0.00
366.52	0.00
366.72	0.00
366.91	0.00
367.11	0.00
367.31	0.00
367.51	0.00
367.70	0.00
367.90	0.00
368.10	0.00
368.30	0.00
368.49	0.00
368.69	0.00
368.89	0.00
369.09	0.00
369.28	0.00
369.48	0.00
369.68	0.00
369.87	0.00
370.07	0.00
370.27	0.00
370.47	0.00
370.66	159.16
370.86	105.32
371.06	173.20
371.25	112.35
371.45	189.58
371.65	182.56
371.84	126.39
372.04	58.51
372.24	250.44
372.44	145.11
372.63	119.37
372.83	236.39
373.03	201.29
373.22	145.11
373.42	182.56
373.62	201.29
373.81	194.26
374.01	194.26
374.21	250.44
374.40	264.48
374.60	292.57
374.79	266.82
374.99	194.26
375.19	222.35
375.38	215.33
375.58	215.33
375.78	287.89
375.97	252.78
376.17	241.08
376.37	220.01
376.56	308.95
376.76	259.80
376.95	283.20
377.15	299.59
377.35	269.16
377.54	374.49
377.74	262.14
377.93	266.82
378.13	273.84
378.33	217.67
378.52	299.59
378.72	266.82
378.91	311.29
379.11	180.22
379.31	212.99
379.50	273.84
379.70	304.27
379.89	297.25
380.09	187.24
380.28	311.29
380.48	236.39
380.68	297.25
380.87	222.35
381.07	285.55
381.26	287.89
381.46	229.37
381.65	287.89
381.85	259.80
382.04	341.72
382.24	304.27
382.43	283.20
382.63	351.08
382.83	294.91
383.02	337.04
383.22	346.40
383.41	348.74
383.61	374.49
383.80	311.29
384.00	351.08
384.19	423.64
384.39	339.38
384.58	372.15
384.78	367.46
384.97	388.53
385.17	416.62
385.36	400.23
385.56	264.48
385.75	351.08
385.95	390.87
386.14	407.25
386.34	456.40
386.53	411.93
386.72	404.91
386.92	376.83
387.11	365.12
387.31	444.70
387.50	428.32
387.70	362.78
387.89	444.70
388.09	447.04
388.28	433.00
388.48	388.53
388.67	440.02
388.86	538.32
389.06	491.51
389.25	418.96
389.45	461.09
389.64	479.81
389.84	606.20
390.03	388.53
390.22	482.15
390.42	491.51
390.61	414.27
390.81	477.47
391.00	411.93
391.19	489.17
391.39	456.40
391.58	503.22
391.78	498.53
391.97	599.18
392.16	550.03
392.36	568.75
392.55	470.45
392.75	615.56
392.94	524.28
393.13	528.96
393.33	554.71
393.52	599.18
393.71	573.43
393.91	521.94
394.10	580.45
394.29	514.92
394.49	608.54
394.68	603.86
394.88	540.66
395.07	599.18
395.26	613.22
395.46	613.22
395.65	617.90
395.84	580.45
396.04	657.69
396.23	660.03
396.42	559.39
396.62	631.94
396.81	650.67
397.00	697.48
397.19	662.37
397.39	704.50
397.58	674.07
397.77	575.77
397.97	720.88
398.16	648.33
398.35	688.12
398.55	683.44
398.74	727.91
398.93	671.73
399.12	730.25
399.32	641.31
399.51	660.03
399.70	730.25
399.90	758.33
400.09	723.23
400.28	704.50
400.47	767.70
400.67	723.23
400.86	856.64
401.05	793.44
401.24	732.59
401.44	812.17
401.63	828.55
401.82	819.19
402.01	798.12
402.21	868.34
402.40	809.83
402.59	758.33
402.78	800.46
402.97	863.66
403.17	856.64
403.36	833.23
403.55	882.38
403.74	933.87
403.93	954.94
404.13	894.08
404.32	985.37
404.51	833.23
404.70	922.17
404.89	854.30
405.09	908.13
405.28	968.98
405.47	912.81
405.66	1046.22
405.85	1025.15
406.05	929.19
406.24	945.58
406.43	980.68
406.62	1020.47
406.81	1060.26
407.00	936.21
407.20	926.85
407.39	997.07
407.58	1060.26
407.77	1137.50
407.96	1050.90
408.15	1081.33
408.34	1006.43
408.54	1219.42
408.73	1128.14
408.92	1142.18
409.11	1172.61
409.30	1174.95
409.49	1177.29
409.68	1036.86
409.87	1200.69
410.07	1170.27
410.26	1212.40
410.45	1149.20
410.64	1256.87
410.83	1198.35
411.02	1289.64
411.21	1186.65
411.40	1188.99
411.59	1334.11
411.78	1217.08
411.98	1249.85
412.17	1270.91
412.36	1247.51
412.55	1345.81
412.74	1308.36
412.93	1369.21
413.12	1331.76
413.31	1390.28
413.50	1378.58
413.69	1322.40
413.88	1430.07
414.07	1409.00
414.26	1453.47
414.45	1411.34
414.64	1474.54
414.83	1549.43
415.02	1556.46
415.22	1467.52
415.41	1603.27
415.60	1504.96
415.79	1544.75
415.98	1591.56
416.17	1549.43
416.36	1568.16
416.55	1584.54
416.74	1579.86
416.93	1664.12
417.12	1650.08
417.31	1790.51
417.50	1614.97
417.69	1809.23
417.88	1748.38
418.07	1699.23
418.26	1755.40
418.45	1771.79
418.64	1813.92
418.83	1788.17
419.02	1776.47
419.21	1809.23
419.39	1776.47
419.58	1813.92
419.77	1788.17
419.96	1844.34
420.15	1926.26
420.34	1877.11
420.53	1790.51
420.72	1916.90
420.91	1912.22
421.10	1975.41
421.29	1802.21
421.48	1870.09
421.67	2033.93
421.86	2045.63
422.05	1895.83
422.24	2045.63
422.43	1975.41
422.61	2059.67
422.80	2101.80
422.99	1909.88
423.18	1959.03
423.37	2094.78
423.56	2015.20
423.75	1891.15
423.94	1895.83
424.13	1909.88
424.32	1923.92
424.50	2085.42
424.69	2047.97
424.88	2085.42
425.07	1989.46
425.26	2003.50
425.45	2115.84
425.64	2099.46
425.83	2024.56
426.01	2036.27
426.20	2111.16
426.39	2024.56
426.58	2036.27
426.77	2118.18
426.96	2085.42
427.15	2092.44
427.33	2134.57
427.52	2085.42
427.71	2169.68
427.90	2197.76
428.09	2232.87
428.28	2139.25
428.46	2207.13
428.65	2031.58
428.84	2258.62
429.03	2326.49
429.22	2202.44
429.40	2235.21
429.59	2260.96
429.78	2101.80
429.97	2183.72
430.16	2251.60
430.34	2186.06
430.53	2338.20
430.72	2303.09
430.91	2242.23
431.10	2298.41
431.28	2312.45
431.47	2375.64
431.66	2403.73
431.85	2340.54
432.03	2385.01
432.22	2466.92
432.41	2415.43
432.60	2438.84
432.79	2424.80
432.97	2387.35
433.16	2270.32
433.35	2312.45
433.54	2530.12
433.72	2464.58
433.91	2504.37
434.10	2569.91
434.28	2546.50
434.47	2562.89
434.66	2527.78
434.85	2525.44
435.03	2553.52
435.22	2504.37
435.41	2745.45
435.59	2649.49
435.78	2637.78
435.97	2682.25
436.16	2630.76
436.34	2614.38
436.53	2668.21
436.72	2663.53
436.90	2602.68
437.09	2738.43
437.28	2679.91
437.46	2689.28
437.65	2808.64
437.84	2733.75
438.02	2745.45
438.21	2787.58
438.40	2708.00
438.58	2906.95
438.77	2855.45
438.96	2853.11
439.14	2937.37
439.33	2958.44
439.52	2920.99
439.70	2862.48
439.89	3023.97
440.08	3028.65
440.26	3082.49
440.45	3096.53
440.63	3173.77
440.82	3002.91
441.01	3052.06
441.19	3213.56
441.38	3136.32
441.57	3211.22
441.75	3232.28
441.94	3286.11
442.12	3325.90
442.31	3304.84
442.50	3297.81
442.68	3300.16
442.87	3403.14
443.05	3304.84
443.24	3391.44
443.43	3318.88
443.61	3316.54
443.80	3517.83
443.98	3353.99
444.17	3339.94
444.35	3482.72
444.54	3417.18
444.73	3391.44
444.91	3452.29
445.10	3461.65
445.28	3398.46
445.47	3449.95
445.65	3536.55
445.84	3473.36
446.02	3531.87
446.21	3403.14
446.39	3412.50
446.58	3503.78
446.77	3384.41
446.95	3351.65
447.14	3428.88
447.32	3496.76
447.51	3492.08
447.69	3527.19
447.88	3501.44
448.06	3499.10
448.25	3501.44
448.43	3435.91
448.62	3478.04
448.80	3494.42
448.99	3634.85
449.17	3616.13
449.36	3543.57
449.54	3592.72
449.73	3768.26
449.91	3669.96
450.10	3662.94
450.28	3698.05
450.46	3688.68
450.65	3756.56
450.83	3929.76
451.02	3735.50
451.20	3702.73
451.39	3777.62
451.57	3651.24
451.76	3714.43
451.94	3798.69
452.13	3988.27
452.31	3901.67
452.49	3772.94
452.68	3843.16
452.86	3840.82
453.05	3819.75
453.23	4032.74
453.42	3840.82
453.60	3817.41
453.78	3974.23
453.97	3922.74
454.15	3971.89
454.34	3871.25
454.52	3983.59
454.70	4093.60
454.89	4161.47
455.07	3936.78
455.26	4067.85
455.44	4074.87
455.62	4142.75
455.81	4105.30
455.99	4203.60
456.17	4084.23
456.36	4119.34
456.54	4245.73
456.73	4231.69
456.91	4264.46
457.09	4283.18
457.28	4472.76
457.46	4191.90
457.64	4318.29
457.83	4117.00
458.01	4163.81
458.19	4344.03
458.38	4285.52
458.56	4507.87
458.74	4489.15
458.93	4451.70
459.11	4510.21
459.29	4372.12
459.48	4657.67
459.66	4472.76
459.84	4596.81
460.03	4678.73
460.21	4550.00
460.39	4524.26
460.57	4594.47
460.76	4535.96
460.94	4477.44
461.12	4599.15
461.31	4734.90
461.49	4624.90
461.67	4681.07
461.85	4816.82
462.04	4624.90
462.22	4877.68
462.40	4802.78
462.59	4620.22
462.77	4835.55
462.95	4788.74
463.13	4660.01
463.32	4690.43
463.50	4826.18
463.68	4968.96
463.86	4786.40
464.05	4662.35
464.23	4854.27
464.41	4828.53
464.59	4840.23
464.78	5064.92
464.96	4875.34
465.14	4915.12
465.32	5053.22
465.50	4912.78
465.69	4873.00
465.87	4945.55
466.05	5027.47
466.23	4975.98
466.41	4950.23
466.60	5135.14
466.78	5118.75
466.96	5039.17
467.14	5053.22
467.32	5102.37
467.51	5064.92
467.69	5039.17
467.87	5247.48
468.05	5158.54
468.23	5160.88
468.41	5217.05
468.60	5247.48
468.78	5270.89
468.96	5118.75
469.14	5320.04
469.32	5458.13
469.50	5093.01
469.69	5467.49
469.87	5305.99
470.05	5320.04
470.23	5324.72
470.41	5298.97
470.59	5378.55
470.77	5444.09
470.95	5486.22
471.14	5589.20
471.32	5518.98
471.50	5607.92
471.68	5659.42
471.86	5638.35
472.04	5577.50
472.22	5755.38
472.40	5434.72
472.58	5696.86
472.77	5727.29
472.95	5853.68
473.13	6045.60
473.31	5785.80
473.49	5713.25
473.67	5692.18
473.85	5907.51
474.03	5973.05
474.21	5973.05
474.39	6019.86
474.57	6171.99
474.75	6101.78
474.93	6333.49
475.12	6171.99
475.30	6239.87
475.48	6202.42
475.66	6200.08
475.84	6354.55
476.02	6480.94
476.20	6466.90
476.38	6410.73
476.56	6511.37
476.74	6384.98
476.92	6480.94
477.10	6642.44
477.28	6600.31
477.46	6509.03
477.64	6707.98
477.82	6817.98
478.00	6829.68
478.18	6890.54
478.36	6888.20
478.54	7037.99
478.72	7005.22
478.90	7150.34
479.08	7094.16
479.26	7318.86
479.44	7192.47
479.62	7229.91
479.80	7241.62
479.98	7482.69
480.16	7555.25
480.34	7573.97
480.52	7449.93
480.70	7613.76
480.88	7468.65
481.06	7648.87
481.24	7466.31
481.41	7705.04
481.59	7822.07
481.77	8159.11
481.95	8095.91
482.13	8159.11
482.31	8053.78
482.49	8121.66
482.67	8187.19
482.85	8491.46
483.03	8491.46
483.21	8650.62
483.39	8671.68
483.57	8353.37
483.74	8723.18
483.92	8634.24
484.10	8603.81
484.28	9015.74
484.46	8926.80
484.64	9268.52
484.82	8758.28
485.00	9039.15
485.18	9266.18
485.35	9418.32
485.53	9427.68
485.71	9586.83
485.89	9645.35
486.07	9584.49
486.25	9729.61
486.43	9579.81
486.61	9753.01
486.78	9661.73
486.96	10045.58
487.14	10090.05
487.32	10017.49
487.50	10099.41
487.68	10296.02
487.85	10176.65
488.03	10448.15
488.21	10501.98
488.39	10530.07
488.57	10668.16
488.75	10775.83
488.92	10878.81
489.10	10974.77
489.28	10986.47
489.46	11265.00
489.64	10883.49
489.81	11274.36
489.99	11187.76
490.17	11332.87
490.35	11403.09
490.53	11632.46
490.70	11728.42
490.88	11396.07
491.06	11625.44
491.24	11501.39
491.41	12051.42
491.59	11964.82
491.77	12091.21
491.95	12004.61
492.13	12133.34
492.30	12262.07
492.48	12201.21
492.66	12411.86
492.84	12325.26
493.01	12706.77
493.19	12610.81
493.37	12746.56
493.54	12580.38
493.72	12615.49
493.90	12879.97
494.08	12877.63
494.25	13034.44
494.43	12959.55
494.61	13160.83
494.79	13542.34
494.96	13226.37
495.14	13483.83
495.32	13481.49
495.49	13469.78
495.67	13734.26
495.85	13977.68
496.02	13905.12
496.20	13860.65
496.38	13862.99
496.55	14010.45
496.73	14071.30
496.91	14045.55
497.09	14150.88
497.26	14211.73
497.44	14347.48
497.62	14209.39
497.79	14497.28
497.97	14387.27
498.14	14579.20
498.32	14951.34
498.50	14876.44
498.67	14745.38
498.85	14736.01
499.03	14855.38
499.20	14813.25
499.38	15131.56
499.56	15192.42
499.73	15382.00
499.91	15323.49
500.08	15463.92
500.26	15229.87
500.44	15365.62
500.61	15456.90
500.79	15552.86
500.97	15651.16
501.14	15754.15
501.32	15864.15
501.49	15761.17
501.67	15695.63
501.84	15955.43
502.02	15747.12
502.20	16114.59
502.37	15990.54
502.55	16018.63
502.72	15992.88
502.90	15990.54
503.07	16086.50
503.25	16341.62
503.43	16493.76
503.60	16746.53
503.78	16421.20
503.95	16386.09
504.13	16837.81
504.30	16580.36
504.48	16376.73
504.65	16622.48
504.83	16861.22
505.01	16940.80
505.18	16842.50
505.36	17116.34
505.53	17020.38
505.71	17055.48
505.88	16996.97
506.06	17092.93
506.23	17556.36
506.41	17130.38
506.58	17336.35
506.76	17336.35
506.93	17474.44
507.11	17439.33
507.28	17682.75
507.46	17621.89
507.63	17514.23
507.81	17942.55
507.98	17532.95
508.16	17804.46
508.33	17474.44
508.50	17954.25
508.68	17820.84
508.85	18012.76
509.03	18075.96
509.20	17980.00
509.38	18211.71
509.55	18368.52
509.73	18281.92
509.90	18417.68
510.08	18134.47
510.25	18354.48
510.42	18466.83
510.60	18597.90
510.77	18841.31
510.95	18611.94
511.12	18574.49
511.30	18738.33
511.47	18829.61
511.64	18970.04
511.82	19159.63
511.99	18750.03
512.17	19056.64
512.34	18974.72
512.51	19098.77
512.69	19009.83
512.86	19215.80
513.04	19372.61
513.21	19314.10
513.38	19463.90
513.56	19625.39
513.73	19403.04
513.90	19604.33
514.08	19323.46
514.25	19360.91
514.43	19793.91
514.60	20042.01
514.77	19936.68
514.95	19667.52
515.12	19634.75
515.29	19850.08
515.47	19690.93
515.64	19695.61
515.81	20063.07
515.99	20067.75
516.16	20173.08
516.33	19917.96
516.51	20428.20
516.68	20280.74
516.85	20100.52
517.03	20439.90
517.20	20325.21
517.37	20376.70
517.54	20713.74
517.72	20556.93
517.89	20339.26
518.06	20772.25
518.24	20526.50
518.41	20533.52
518.58	20863.54
518.75	20964.18
518.93	20849.49
519.10	20915.03
519.27	21167.80
519.45	20666.93
519.62	20851.83
519.79	21048.44
519.96	21139.72
520.14	21151.42
520.31	21486.12
520.48	21383.13
520.65	21240.36
520.83	21326.96
521.00	21404.20
521.17	20947.79
521.34	21458.03
521.52	21373.77
521.69	21392.50
521.86	21661.66
522.03	21743.58
522.20	21565.70
522.38	21481.44
522.55	21872.31
522.72	21919.12
522.89	21827.84
523.07	21654.64
523.24	22054.87
523.41	22356.80
523.58	22097.00
523.75	22153.17
523.92	21790.39
524.10	21935.50
524.27	22160.19
524.44	22419.99
524.61	22593.19
524.78	22359.14
524.96	22218.71
525.13	22267.86
525.30	22558.08
525.47	22630.64
525.64	22684.47
525.81	22850.65
525.98	22867.03
526.16	22515.95
526.33	22665.75
526.50	23012.15
526.67	22782.77
526.84	23058.96
527.01	22661.07
527.18	22785.12
527.36	23063.64
527.53	23281.31
527.70	23304.71
527.87	23166.62
528.04	23075.34
528.21	23154.92
528.38	23236.84
528.55	23199.39
528.72	23475.57
528.89	23108.11
529.07	23470.89
529.24	23314.08
529.41	23508.34
529.58	23227.48
529.75	23283.65
529.92	23674.52
530.09	23461.53
530.26	23716.65
530.43	23594.94
530.60	23587.92
530.77	23786.86
530.94	23747.08
531.11	23501.32
531.28	23847.72
531.46	23772.82
531.63	24023.26
531.80	23779.84
531.97	24313.48
532.14	24308.80
532.31	23868.78
532.48	24362.64
532.65	24364.98
532.82	23763.46
532.99	23910.91
533.16	24116.88
533.33	24306.46
533.50	24587.33
533.67	24294.76
533.84	24238.59
534.01	24175.39
534.18	24121.56
534.35	24348.59
534.52	23854.74
534.69	24678.61
534.86	24493.71
535.03	24343.91
535.20	24875.21
535.37	24687.97
535.54	24694.99
535.71	24809.68
535.88	24945.43
536.05	24985.22
536.22	25149.06
536.38	24816.70
536.55	24861.17
536.72	24699.67
536.89	24416.47
537.06	24989.90
537.23	25085.86
537.40	24652.86
537.57	24945.43
537.74	24952.45
537.91	25106.93
538.08	25247.36
538.25	25125.65
538.42	25387.79
538.59	25207.57
538.75	25057.78
538.92	25025.01
539.09	25177.14
539.26	25507.16
539.43	25392.47
539.60	25591.42
539.77	25259.06
539.94	25518.86
540.11	25525.88
540.28	25532.90
540.44	25607.80
540.61	25605.46
540.78	25443.96
540.95	25558.65
541.12	25668.66
541.29	25776.32
541.46	25462.69
541.62	25528.22
541.79	25495.46
541.96	25415.88
542.13	25696.74
542.30	25900.37
542.47	26150.81
542.63	25769.30
542.80	26111.02
542.97	26103.99
543.14	26239.75
543.31	26052.50
543.48	26169.53
543.64	26518.27
543.81	26529.97
543.98	26663.38
544.15	26380.18
544.32	26775.73
544.48	26768.71
544.65	26464.44
544.82	26632.96
544.99	26174.21
545.16	26412.95
545.32	26836.58
545.49	26904.46
545.66	26544.02
545.83	26953.61
546.00	27021.48
546.16	26974.67
546.33	26426.99
546.50	26590.83
546.67	26735.94
546.83	26333.37
547.00	26719.56
547.17	26897.44
547.34	26588.49
547.50	26876.37
547.67	26925.52
547.84	26782.75
548.00	26930.20
548.17	27271.92
548.34	27227.45
548.51	27328.10
548.67	27442.78
548.84	27480.23
549.01	27276.60
549.18	26881.05
549.34	27115.11
549.51	27028.51
549.68	27164.26
549.84	27096.38
550.01	27513.00
550.18	27061.27
550.34	27550.45
550.51	27384.27
550.68	27517.68
550.84	27489.59
551.01	27714.28
551.18	27410.01
551.34	27386.61
551.51	27468.53
551.68	27590.24
551.84	27491.93
552.01	27426.40
552.18	27592.58
552.34	27697.90
552.51	27955.36
552.68	27529.38
552.84	27520.02
553.01	27894.50
553.18	27480.23
553.34	28020.89
553.51	27826.63
553.67	28247.93
553.84	28166.01
554.01	28065.36
554.17	28095.79
554.34	28161.33
554.51	27981.10
554.67	28116.86
554.84	27861.74
555.00	27964.72
555.17	28018.55
555.33	28367.29
555.50	27941.32
555.67	28168.35
555.83	27929.61
556.00	28203.46
556.16	28388.36
556.33	27845.35
556.50	27962.38
556.66	28311.12
556.83	28231.54
556.99	28676.24
557.16	28400.06
557.32	28334.53
557.49	28657.52
557.65	28056.00
557.82	28240.90
557.98	28100.47
558.15	28439.85
558.32	28599.01
558.48	28547.51
558.65	28973.49
558.81	28655.18
558.98	28538.15
559.14	28170.69
559.31	28622.41
559.47	28287.71
559.64	28666.88
559.80	28166.01
559.97	28687.95
560.13	28547.51
560.30	28709.01
560.46	28746.46
560.63	28861.15
560.79	29071.79
560.96	28994.56
561.12	28657.52
561.29	28601.35
561.45	28973.49
561.61	29111.58
561.78	28826.04
561.94	29006.26
562.11	28914.98
562.27	28952.43
562.44	28922.00
562.60	28774.55
562.77	28870.51
562.93	28900.94
563.10	29219.25
563.26	29053.07
563.42	29336.27
563.59	29263.72
563.75	29050.73
563.92	28952.43
564.08	28725.39
564.24	29039.03
564.41	29003.92
564.57	28870.51
564.74	28938.38
564.90	29319.89
565.07	28980.51
565.23	29193.50
565.39	28994.56
565.56	29525.86
565.72	28758.16
565.88	28954.77
566.05	29134.99
566.21	29015.62
566.38	28945.41
566.54	29230.95
566.70	29411.17
566.87	29542.24
567.03	29268.40
567.19	29483.73
567.36	29340.96
567.52	29158.39
567.68	29450.96
567.85	29233.29
568.01	29074.13
568.17	29032.00
568.34	29357.34
568.50	29420.53
568.66	29642.88
568.83	29614.80
568.99	29193.50
569.15	29556.28
569.32	29596.07
569.48	28975.83
569.64	29013.28
569.81	29385.43
569.97	29465.00
570.13	29748.21
570.30	29050.73
570.46	29680.33
570.62	29399.47
570.78	29144.35
570.95	29385.43
571.11	29699.06
571.27	29223.93
571.43	29268.40
571.60	29322.23
571.76	29378.40
571.92	29589.05
572.09	29202.86
572.25	29460.32
572.41	29495.43
572.57	29266.06
572.74	29591.39
572.90	29228.61
573.06	29598.41
573.22	29149.03
573.38	29628.84
573.55	29270.74
573.71	29687.36
573.87	29846.51
574.03	29649.91
574.20	29488.41
574.36	29462.66
574.52	29497.77
574.68	29881.62
574.84	29708.42
575.01	29696.72
575.17	29544.58
575.33	29652.25
575.49	29378.40
575.65	29874.60
575.82	29780.98
575.98	29652.25
576.14	29685.01
576.30	29284.78
576.46	29359.68
576.62	29102.22
576.79	29848.85
576.95	29296.49
577.11	29834.81
577.27	29673.31
577.43	29858.21
577.59	29668.63
577.75	29558.63
577.92	29813.74
578.08	29406.49
578.24	29518.84
578.40	29647.57
578.56	29832.47
578.72	29518.84
578.88	29713.10
579.04	29724.80
579.21	29802.04
579.37	29582.03
579.53	29979.92
579.69	29773.95
579.85	29619.48
580.01	29795.02
580.17	29675.65
580.33	29731.83
580.49	29841.83
580.65	29923.75
580.82	29879.28
580.98	29752.89
581.14	29926.09
581.30	29851.19
581.46	29773.95
581.62	29659.27
581.78	29546.92
581.94	30106.31
582.10	29598.41
582.26	29675.65
582.42	29748.21
582.58	29851.19
582.74	29792.68
582.90	30012.69
583.06	29771.61
583.22	30050.14
583.38	29649.91
583.54	29694.38
583.70	29820.77
583.86	29399.47
584.02	29970.56
584.18	30342.70
584.34	29738.85
584.50	30253.76
584.66	29879.28
584.82	29507.13
584.98	29977.58
585.14	29947.15
585.30	29741.19
585.46	29663.95
585.62	29582.03
585.78	29905.02
585.94	29804.38
586.10	29916.73
586.26	29949.50
586.42	30155.46
586.58	29942.47
586.74	29734.17
586.90	29483.73
587.06	29352.66
587.22	29883.96
587.38	29626.50
587.54	29759.91
587.70	29797.36
587.86	29935.45
588.02	29949.50
588.18	30342.70
588.34	29942.47
588.49	30022.05
588.65	29792.68
588.81	29912.05
588.97	30298.23
589.13	30085.25
589.29	30050.14
589.45	30108.65
589.61	29874.60
589.77	30209.29
589.93	30082.91
590.08	30127.38
590.24	30471.43
590.40	30232.70
590.56	30312.28
590.72	30405.90
590.88	30242.06
591.04	30103.97
591.20	30881.03
591.35	30054.82
591.51	30625.91
591.67	30574.42
591.83	30532.29
591.99	30073.54
592.15	30073.54
592.31	30340.36
592.46	30291.21
592.62	30094.61
592.78	30148.44
592.94	30164.82
593.10	30347.39
593.26	30288.87
593.41	30668.04
593.57	30368.45
593.73	30099.29
593.89	30403.56
594.05	30249.08
594.20	30291.21
594.36	30513.56
594.52	30040.78
594.68	30441.01
594.84	29977.58
594.99	30508.88
595.15	30424.62
595.31	30806.13
595.47	30239.72
595.62	30637.61
595.78	30658.68
595.94	30396.54
596.10	30354.41
596.25	30349.73
596.41	30141.42
596.57	29874.60
596.73	30160.14
596.88	30038.44
597.04	30546.33
597.20	31014.44
597.36	30616.55
597.51	30693.79
597.67	30078.22
597.83	30082.91
597.99	30225.68
598.14	30333.34
598.30	30485.48
598.46	30012.69
598.61	30834.22
598.77	30183.55
598.93	30401.22
599.09	30387.18
599.24	31206.36
599.40	30735.92
599.56	30431.65
599.71	30597.82
599.87	30581.44
600.03	30522.93
600.18	30354.41
600.34	30277.17
600.50	30459.73
600.65	30504.20
600.81	30794.43
600.97	30878.69
601.12	30726.55
601.28	30424.62
601.44	30436.33
601.59	30513.56
601.75	30642.29
601.91	30665.70
602.06	30579.10
602.22	30764.00
602.37	30188.23
602.53	30536.97
602.69	30658.68
602.84	30223.34
603.00	30572.08
603.16	30520.59
603.31	30543.99
603.47	30298.23
603.62	30185.89
603.78	30644.63
603.94	30319.30
604.09	30579.10
604.25	30356.75
604.40	30632.93
604.56	30244.40
604.71	30639.95
604.87	30504.20
605.03	30450.37
605.18	30415.26
605.34	30462.07
605.49	30340.36
605.65	30366.11
605.80	30017.37
605.96	29930.77
606.12	30134.40
606.27	30401.22
606.43	30396.54
606.58	30448.03
606.74	30721.87
606.89	30335.68
607.05	30553.35
607.20	30443.35
607.36	30529.95
607.51	30059.50
607.67	30036.09
607.82	30394.20
607.98	30197.59
608.13	30436.33
608.29	30328.66
608.44	30302.92
608.60	30352.07
608.75	30321.64
608.91	30621.23
609.06	30106.31
609.22	30300.58
609.37	30167.16
609.53	30143.76
609.68	30256.11
609.84	29944.81
609.99	30148.44
610.15	29900.34
610.30	30457.39
610.46	29874.60
610.61	30497.18
610.76	30396.54
610.92	30263.13
611.07	30209.29
611.23	29844.17
611.38	30139.08
611.54	29790.34
611.69	29612.46
611.84	30029.07
612.00	30412.92
612.15	29663.95
612.31	30012.69
612.46	30471.43
612.62	30396.54
612.77	30162.48
612.92	29979.92
613.08	29979.92
613.23	29954.18
613.39	29909.71
613.54	29607.78
613.69	29813.74
613.85	30279.51
614.00	29795.02
614.15	30005.67
614.31	29680.33
614.46	29912.05
614.62	29898.00
614.77	29823.11
614.92	29614.80
615.08	29762.25
615.23	29778.64
615.38	29940.13
615.54	29670.97
615.69	29525.86
615.84	29680.33
616.00	29537.56
616.15	29624.16
616.30	30038.44
616.46	29474.37
616.61	29661.61
616.76	29862.90
616.92	29827.79
617.07	29556.28
617.22	29642.88
617.37	29518.84
617.53	29720.12
617.68	29584.37
617.83	29441.60
617.99	29329.25
618.14	29586.71
618.29	29528.20
618.45	29502.45
618.60	29834.81
618.75	29345.64
618.90	29310.53
619.06	29818.42
619.21	29610.12
619.36	29752.89
619.51	29446.28
619.67	29193.50
619.82	28975.83
619.97	29336.27
620.12	29235.63
620.28	29127.97
620.43	29619.48
620.58	29305.85
620.73	29277.76
620.89	29479.05
621.04	29837.15
621.19	29439.26
621.34	29184.14
621.49	29170.10
621.65	29294.14
621.80	29277.76
621.95	29214.57
622.10	29153.71
622.25	28833.06
622.41	28872.85
622.56	28964.13
622.71	29357.34
622.86	28973.49
623.01	29053.07
623.16	29343.30
623.32	28858.81
623.47	29085.84
623.62	28528.79
623.77	28905.62
623.92	29195.84
624.07	28840.08
624.23	29001.58
624.38	28678.58
624.53	29097.54
624.68	29212.23
624.83	29301.17
624.98	28922.00
625.13	28907.96
625.29	29024.98
625.44	28968.81
625.59	28753.48
625.74	28664.54
625.89	28622.41
626.04	28538.15
626.19	28828.38
626.34	28467.94
626.49	28493.68
626.65	28360.27
626.80	28505.38
626.95	28517.09
627.10	28903.28
627.25	28376.66
627.40	28379.00
627.55	28261.97
627.70	28657.52
627.85	28264.31
628.00	28276.01
628.15	28395.38
628.30	28259.63
628.45	28121.54
628.60	28257.29
628.76	28868.17
628.91	28304.10
629.06	28442.19
629.21	28503.04
629.36	28276.01
629.51	28379.00
629.66	28086.43
629.81	28088.77
629.96	28189.41
630.11	28006.85
630.26	28570.92
630.41	28041.96
630.56	28065.36
630.71	28177.71
630.86	28135.58
631.01	28119.20
631.16	28189.41
631.31	28329.84
631.46	28217.50
631.61	28100.47
631.76	28121.54
631.91	27931.95
632.06	27896.85
632.21	27569.17
632.36	27953.02
632.51	27618.32
632.66	27953.02
632.81	27690.88
632.96	27896.85
633.10	27676.83
633.25	28100.47
633.40	28191.75
633.55	27920.25
633.70	27601.94
633.85	27721.30
634.00	27594.92
634.15	27744.71
634.30	27562.15
634.45	27487.25
634.60	27646.41
634.75	27761.09
634.90	27463.85
635.05	27564.49
635.19	27604.28
635.34	27964.72
635.49	27594.92
635.64	27620.66
635.79	27573.85
635.94	27611.30
636.09	27597.26
636.24	27505.98
636.39	27321.07
636.53	27534.06
636.68	27505.98
636.83	27360.86
636.98	27395.97
637.13	27328.10
637.28	27307.03
637.43	27410.01
637.57	27517.68
637.72	27243.84
637.87	27234.47
638.02	27129.15
638.17	27419.38
638.32	27405.33
638.46	26984.04
638.61	26864.67
638.76	27103.40
638.91	27012.12
639.06	27091.70
639.20	27531.72
639.35	27246.18
639.50	27138.51
639.65	27393.63
639.80	27402.99
639.94	27150.21
640.09	27157.24
640.24	27157.24
640.39	26672.74
640.54	26544.02
640.68	27035.53
640.83	27145.53
640.98	27136.17
641.13	26719.56
641.27	27126.81
641.42	26834.24
641.57	26597.85
641.72	27171.28
641.86	26899.78
642.01	26483.16
642.16	26813.18
642.31	26707.85
642.45	26897.44
642.60	26405.92
642.75	26452.73
642.90	26469.12
643.04	26848.29
643.19	26565.08
643.34	26757.00
643.48	26665.72
643.63	26721.90
643.78	26782.75
643.93	26670.40
644.07	26668.06
644.22	26644.66
644.37	26766.37
644.51	26668.06
644.66	26553.38
644.81	26396.56
644.95	26235.06
645.10	26396.56
645.25	26544.02
645.39	26651.68
645.54	26249.11
645.69	26677.43
645.83	26909.14
645.98	25977.61
646.13	26387.20
646.27	26396.56
646.42	26473.80
646.57	26422.31
646.71	26560.40
646.86	26682.11
647.00	25975.27
647.15	26143.78
647.30	26347.41
647.44	25745.89
647.59	26258.47
647.74	26036.12
647.88	26424.65
648.03	26139.10
648.17	26059.52
648.32	26316.98
648.47	25963.56
648.61	25935.48
648.76	26375.50
648.90	26185.91
649.05	26260.81
649.20	25989.31
649.34	25883.98
649.49	25912.07
649.63	25923.77
649.78	25766.96
649.92	25771.64
650.07	25979.95
650.21	25741.21
650.36	25951.86
650.51	25628.87
650.65	25986.97
650.80	25708.44
650.94	25869.94
651.09	26195.28
651.23	25933.14
651.38	25537.59
651.52	25701.42
651.67	25916.75
651.81	25750.57
651.96	25525.88
652.10	25663.97
652.25	25975.27
652.39	25823.13
652.54	25979.95
652.68	26092.29
652.83	25720.15
652.97	25811.43
653.12	25486.09
653.26	25357.36
653.41	25483.75
653.55	25394.81
653.70	25661.63
653.84	25713.13
653.99	25303.53
654.13	25729.51
654.27	25336.30
654.42	25462.69
654.56	25738.87
654.71	25579.71
654.85	25879.30
655.00	25425.24
655.14	25179.48
655.29	25135.01
655.43	25317.57
655.57	25287.15
655.72	25076.50
655.86	25795.04
656.01	25441.62
656.15	25015.65
656.30	25104.59
656.44	25254.38
656.58	25029.69
656.73	25076.50
656.87	25315.23
657.01	25149.06
657.16	25301.19
657.30	25266.08
657.45	25544.61
657.59	25071.82
657.73	24940.75
657.88	24898.62
658.02	25041.39
658.16	24926.71
658.31	24563.92
658.45	24519.45
658.60	24407.11
658.74	24786.27
658.88	24608.39
659.03	24999.26
659.17	24957.13
659.31	24919.68
659.46	24938.41
659.60	24547.54
659.74	24952.45
659.89	24575.62
660.03	24589.67
660.17	24933.73
660.32	24013.90
660.46	24737.12
660.60	24285.40
660.74	24425.83
660.89	24620.10
661.03	24477.32
661.17	24292.42
661.32	24592.01
661.46	24727.76
661.60	24379.02
661.74	24336.89
661.89	24524.13
662.03	24229.23
662.17	24039.64
662.31	24116.88
662.46	24163.69
662.60	24367.32
662.74	24053.69
662.88	23964.75
663.03	23969.43
663.17	24091.13
663.31	24065.39
663.45	23974.11
663.60	23800.91
663.74	23637.07
663.88	23974.11
664.02	23859.42
664.17	24119.22
664.31	23924.96
664.45	23611.32
664.59	24030.28
664.73	23807.93
664.88	23779.84
665.02	23428.76
665.16	23335.14
665.30	23187.69
665.44	23241.52
665.59	22916.19
665.73	23365.57
665.87	23255.56
666.01	23508.34
666.15	23342.16
666.29	23285.99
666.44	23452.17
666.58	23087.04
666.72	22963.00
666.86	23496.64
667.00	23255.56
667.14	23147.90
667.28	22817.88
667.43	23007.47
667.57	23140.88
667.71	22630.64
667.85	22927.89
667.99	22986.40
668.13	23145.56
668.27	22726.60
668.41	22967.68
668.56	22735.96
668.70	22597.87
668.84	22810.86
668.98	22670.43
669.12	22918.53
669.26	22555.74
669.40	22539.36
669.54	22654.05
669.68	22583.83
669.82	22553.40
669.96	22485.53
670.10	22602.55
670.25	22314.67
670.39	22015.08
670.53	22075.93
670.67	22361.48
670.81	22155.51
670.95	22235.09
671.09	21968.27
671.23	22267.86
671.37	22422.33
671.51	22218.71
671.65	22230.41
671.79	21769.32
671.93	22141.47
672.07	21986.99
672.21	21757.62
672.35	21734.21
672.49	21497.82
672.63	21788.05
672.77	21486.12
672.91	22015.08
673.05	21605.49
673.19	21507.18
673.33	21596.12
673.47	21378.45
673.61	21542.29
673.75	21537.61
673.89	21490.80
674.03	21266.11
674.17	21284.83
674.31	21399.52
674.45	21102.27
674.59	21308.24
674.73	20989.92
674.87	21252.06
675.01	21006.31
675.15	21055.46
675.29	20765.23
675.43	20528.84
675.56	20781.62
675.70	21022.69
675.84	20613.10
675.98	20386.07
676.12	20790.98
676.26	20847.15
676.40	20475.01
676.54	20915.03
676.68	20676.29
676.82	19878.17
676.96	20285.42
677.10	20381.38
677.23	19999.88
677.37	20538.20
677.51	19936.68
677.65	20343.94
677.79	19644.12
677.93	19765.82
678.07	19730.72
678.21	19831.36
678.34	19833.70
678.48	19625.39
678.62	19506.02
678.76	19616.03
678.90	19772.85
679.04	19286.01
679.18	19599.65
679.31	19173.67
679.45	19253.25
679.59	19124.52
679.73	19005.15
679.87	19063.66
680.00	19037.92
680.14	18902.17
680.28	19054.30
680.42	19110.47
680.56	19124.52
680.70	19098.77
680.83	19414.74
680.97	18897.49
681.11	18836.63
681.25	18874.08
681.39	18588.53
681.52	18813.23
681.66	18532.36
681.80	18436.40
681.94	18558.11
682.07	18525.34
682.21	18099.36
682.35	18038.51
682.49	18183.62
682.62	17994.04
682.76	18125.11
682.90	17895.74
683.04	18139.15
683.17	18099.36
683.31	18136.81
683.45	18040.85
683.59	17717.86
683.72	17996.38
683.86	17640.62
684.00	17741.26
684.13	17605.51
684.27	17549.34
684.41	17125.70
684.55	17046.12
684.68	17268.47
684.82	17350.39
684.96	16915.05
685.09	17376.14
685.23	16917.39
685.37	16929.09
685.50	16957.18
685.64	16936.12
685.78	16961.86
685.91	16910.37
686.05	17097.61
686.19	16582.70
686.32	16884.62
686.46	16695.04
686.60	16692.70
686.73	16444.60
686.87	16182.46
687.01	16299.49
687.14	16650.57
687.28	16184.80
687.42	16121.61
687.55	16060.76
687.69	15948.41
687.82	16161.40
687.96	16053.73
688.10	16070.12
688.23	15981.18
688.37	15990.54
688.50	15632.44
688.64	15878.19
688.78	15709.68
688.91	15836.06
689.05	15599.67
689.18	15452.22
689.32	15023.90
689.46	15470.94
689.59	15470.94
689.73	15325.83
689.86	15171.35
690.00	15477.96
690.13	15049.64
690.27	15325.83
690.41	15229.87
690.54	15173.69
690.68	15084.75
690.81	14991.13
690.95	15152.63
691.08	14958.36
691.22	14913.89
691.35	14707.93
691.49	15000.49
691.62	14771.12
691.76	14586.22
691.89	14644.73
692.03	14335.78
692.16	14284.29
692.30	14160.24
692.43	14546.43
692.57	14265.57
692.70	14052.58
692.84	14204.71
692.97	13940.23
693.11	14246.84
693.24	13923.85
693.38	14134.50
693.51	13813.84
693.65	13970.66
693.78	13762.35
693.92	13722.56
694.05	14005.77
694.19	13720.22
694.32	13561.06
694.45	13458.08
694.59	13544.68
694.72	13359.78
694.86	13287.22
694.99	13144.45
695.13	13179.56
695.26	13205.30
695.39	13224.03
695.53	13270.84
695.66	12872.95
695.80	12947.84
695.93	13020.40
696.07	12952.52
696.20	13165.51
696.33	12982.95
696.47	13018.06
696.60	12549.95
696.73	12744.22
696.87	12702.09
697.00	12692.73
697.14	12430.59
697.27	12421.22
697.40	12498.46
697.54	12521.87
697.67	12306.54
697.80	12149.72
697.94	12121.63
698.07	12072.48
698.21	12095.89
698.34	12142.70
698.47	11925.03
698.61	12091.21
698.74	12013.97
698.87	11885.24
699.01	11871.20
699.14	11985.88
699.27	11742.47
699.40	11630.12
699.54	11754.17
699.67	11829.07
699.80	11382.03
699.94	11442.88
700.07	11459.26
700.20	11178.40
700.34	11370.32
700.47	11026.26
700.60	11339.90
700.73	11283.72
700.87	11037.97
701.00	11103.50
701.13	11157.33
701.26	11257.98
701.40	11276.70
701.53	11054.35
701.66	10876.47
701.79	10789.87
701.93	10984.13
702.06	10658.80
702.19	10689.23
702.32	10626.03
702.46	10698.59
702.59	10239.84
702.72	10389.64
702.85	10450.49
702.99	10363.89
703.12	10492.62
703.25	10317.08
703.38	10331.12
703.51	10136.86
703.65	10066.64
703.78	10246.87
703.91	10279.63
704.04	10085.37
704.17	10246.87
704.31	10174.31
704.44	9907.49
704.57	9935.57
704.70	9804.50
704.83	9863.02
704.96	9659.39
705.10	9579.81
705.23	9638.33
>>>>>End Processed Spectral Data<<<<<
