SpectraSuite Data File
++++++++++++++++++++++++++++++++++++
Date: Fri Oct 18 13:58:37 GMT-05:00 2013
User: bianchi
Dark Spectrum Present: No
Reference Spectrum Present: No
Number of Sampled Component Spectra: 1
Spectrometers: USB2+H05261
Integration Time (usec): 50000 (USB2+H05261)
Spectra Averaged: 1 (USB2+H05261)
Boxcar Smoothing: 0 (USB2+H05261)
Correct for Electrical Dark: No (USB2+H05261)
Strobe/Lamp Enabled: No (USB2+H05261)
Correct for Detector Non-linearity: No (USB2+H05261)
Correct for Stray Light: No (USB2+H05261)
Number of Pixels in Processed Spectrum: 2048
>>>>>Begin Processed Spectral Data<<<<<
365.73	0.00
365.92	0.00
366.12	0.00
366.32	0.00
366.52	0.00
366.72	0.00
366.91	0.00
367.11	0.00
367.31	0.00
367.51	0.00
367.70	0.00
367.90	0.00
368.10	0.00
368.30	0.00
368.49	0.00
368.69	0.00
368.89	0.00
369.09	0.00
369.28	0.00
369.48	0.00
369.68	0.00
369.87	0.00
370.07	0.00
370.27	0.00
370.47	37.45
370.66	16.38
370.86	159.16
371.06	163.84
371.25	149.79
371.45	67.88
371.65	131.07
371.84	126.39
372.04	79.58
372.24	95.96
372.44	170.86
372.63	187.24
372.83	198.95
373.03	266.82
373.22	168.52
373.42	189.58
373.62	177.88
373.81	149.79
374.01	182.56
374.21	320.65
374.40	264.48
374.60	280.86
374.79	168.52
374.99	257.46
375.19	201.29
375.38	271.50
375.58	292.57
375.78	245.76
375.97	243.42
376.17	227.03
376.37	255.12
376.56	292.57
376.76	285.55
376.95	266.82
377.15	198.95
377.35	245.76
377.54	224.69
377.74	262.14
377.93	264.48
378.13	273.84
378.33	276.18
378.52	248.10
378.72	327.68
378.91	334.70
379.11	212.99
379.31	266.82
379.50	205.97
379.70	294.91
379.89	285.55
380.09	283.20
380.28	327.68
380.48	318.31
380.68	241.08
380.87	365.12
381.07	355.76
381.26	400.23
381.46	327.68
381.65	308.95
381.85	390.87
382.04	388.53
382.24	353.42
382.43	416.62
382.63	262.14
382.83	360.44
383.02	301.93
383.22	367.46
383.41	369.80
383.61	418.96
383.80	372.15
384.00	278.52
384.19	315.97
384.39	334.70
384.58	379.17
384.78	390.87
384.97	421.30
385.17	360.44
385.36	362.78
385.56	500.87
385.75	318.31
385.95	346.40
386.14	423.64
386.34	404.91
386.53	407.25
386.72	435.34
386.92	428.32
387.11	411.93
387.31	496.19
387.50	430.66
387.70	479.81
387.89	407.25
388.09	456.40
388.28	472.79
388.48	470.45
388.67	404.91
388.86	503.22
389.06	524.28
389.25	411.93
389.45	463.43
389.64	433.00
389.84	552.37
390.03	449.38
390.22	486.83
390.42	514.92
390.61	559.39
390.81	507.90
391.00	538.32
391.19	493.85
391.39	557.05
391.58	500.87
391.78	507.90
391.97	472.79
392.16	528.96
392.36	543.00
392.55	505.56
392.75	601.52
392.94	531.30
393.13	503.22
393.33	540.66
393.52	512.58
393.71	578.11
393.91	510.24
394.10	519.60
394.29	606.20
394.49	414.27
394.68	571.09
394.88	599.18
395.07	610.88
395.26	575.77
395.46	610.88
395.65	606.20
395.84	617.90
396.04	758.33
396.23	622.58
396.42	685.78
396.62	697.48
396.81	552.37
397.00	653.01
397.19	599.18
397.39	720.88
397.58	676.41
397.77	613.22
397.97	678.76
398.16	667.05
398.35	702.16
398.55	655.35
398.74	791.10
398.93	660.03
399.12	739.61
399.32	737.27
399.51	650.67
399.70	697.48
399.90	751.31
400.09	777.06
400.28	732.59
400.47	718.54
400.67	713.86
400.86	798.12
401.05	753.65
401.24	774.72
401.44	805.14
401.63	770.04
401.82	842.59
402.01	713.86
402.21	767.70
402.40	767.70
402.59	737.27
402.78	880.04
402.97	847.27
403.17	842.59
403.36	922.17
403.55	819.19
403.74	952.60
403.93	812.17
404.13	1008.77
404.32	947.92
404.51	880.04
404.70	968.98
404.89	973.66
405.09	945.58
405.28	980.68
405.47	926.85
405.66	994.73
405.85	901.11
406.05	945.58
406.24	1036.86
406.43	964.30
406.62	1057.92
406.81	1046.22
407.00	1078.99
407.20	1039.20
407.39	954.94
407.58	1039.20
407.77	1039.20
407.96	1062.60
408.15	1135.16
408.34	1057.92
408.54	1130.48
408.73	1130.48
408.92	1093.03
409.11	1135.16
409.30	1191.33
409.49	1142.18
409.68	1109.41
409.87	1135.16
410.07	1181.97
410.26	1160.91
410.45	1203.04
410.64	1177.29
410.83	1273.25
411.02	1268.57
411.21	1198.35
411.40	1252.19
411.59	1306.02
411.78	1350.49
411.98	1270.91
412.17	1301.34
412.36	1233.46
412.55	1301.34
412.74	1345.81
412.93	1235.80
413.12	1352.83
413.31	1455.81
413.50	1399.64
413.69	1444.11
413.88	1343.47
414.07	1439.43
414.26	1338.79
414.45	1362.19
414.64	1497.94
414.83	1495.60
415.02	1434.75
415.22	1621.99
415.41	1619.65
415.60	1530.71
415.79	1561.14
415.98	1568.16
416.17	1614.97
416.36	1523.69
416.55	1540.07
416.74	1607.95
416.93	1582.20
417.12	1701.57
417.31	1717.95
417.50	1668.80
417.69	1795.19
417.88	1710.93
418.07	1764.76
418.26	1636.03
418.45	1769.44
418.64	1708.59
418.83	1853.70
419.02	1853.70
419.21	1776.47
419.39	1909.88
419.58	1823.28
419.77	1755.40
419.96	1881.79
420.15	1900.52
420.34	1734.34
420.53	1994.14
420.72	1991.80
420.91	1935.62
421.10	1952.01
421.29	1909.88
421.48	1914.56
421.67	1954.35
421.86	1909.88
422.05	1994.14
422.24	1973.07
422.43	1966.05
422.61	1947.33
422.80	2019.88
422.99	2024.56
423.18	1923.92
423.37	2001.16
423.56	2040.95
423.75	2064.35
423.94	1998.82
424.13	1872.43
424.32	1944.99
424.50	2080.74
424.69	2148.61
424.88	1959.03
425.07	1973.07
425.26	1881.79
425.45	2001.16
425.64	2071.37
425.83	1994.14
426.01	2115.84
426.20	2146.27
426.39	2038.61
426.58	1966.05
426.77	2050.31
426.96	2066.69
427.15	2108.82
427.33	2036.27
427.52	2179.04
427.71	2141.59
427.90	2141.59
428.09	2127.55
428.28	2078.40
428.46	2153.29
428.65	2136.91
428.84	2242.23
429.03	2326.49
429.22	2242.23
429.40	2230.53
429.59	2314.79
429.78	2118.18
429.97	2141.59
430.16	2186.06
430.34	2246.91
430.53	2218.83
430.72	2347.56
430.91	2401.39
431.10	2169.68
431.28	2333.51
431.47	2452.88
431.66	2448.20
431.85	2438.84
432.03	2363.94
432.22	2415.43
432.41	2480.97
432.60	2420.11
432.79	2455.22
432.97	2436.50
433.16	2455.22
433.35	2471.61
433.54	2429.48
433.72	2438.84
433.91	2609.70
434.10	2572.25
434.28	2469.27
434.47	2623.74
434.66	2565.23
434.85	2637.78
435.03	2712.68
435.22	2642.46
435.41	2661.19
435.59	2605.02
435.78	2616.72
435.97	2637.78
436.16	2656.51
436.34	2651.83
436.53	2836.73
436.72	2789.92
436.90	2612.04
437.09	2799.28
437.28	2708.00
437.46	2780.56
437.65	2768.85
437.84	2949.08
438.02	2867.16
438.21	2843.75
438.40	2733.75
438.58	2925.67
438.77	2771.19
438.96	2960.78
439.14	2993.55
439.33	2995.89
439.52	3110.57
439.70	2937.37
439.89	2906.95
440.08	3052.06
440.26	3026.31
440.45	3084.83
440.63	3063.76
440.82	3009.93
441.01	3009.93
441.19	3148.02
441.38	3119.93
441.57	3218.24
441.75	3176.11
441.94	3253.34
442.12	3346.97
442.31	3351.65
442.50	3325.90
442.68	3265.05
442.87	3232.28
443.05	3297.81
443.24	3426.54
443.43	3328.24
443.61	3510.80
443.80	3492.08
443.98	3356.33
444.17	3297.81
444.35	3412.50
444.54	3449.95
444.73	3361.01
444.91	3428.88
445.10	3391.44
445.28	3407.82
445.47	3407.82
445.65	3431.23
445.84	3456.97
446.02	3548.25
446.21	3473.36
446.39	3426.54
446.58	3407.82
446.77	3421.86
446.95	3442.93
447.14	3543.57
447.32	3576.34
447.51	3417.18
447.69	3410.16
447.88	3578.68
448.06	3487.40
448.25	3520.17
448.43	3489.74
448.62	3569.32
448.80	3440.59
448.99	3569.32
449.17	3536.55
449.36	3548.25
449.54	3679.32
449.73	3684.00
449.91	3798.69
450.10	3651.24
450.28	3805.71
450.46	3721.45
450.65	3679.32
450.83	3796.35
451.02	3749.54
451.20	3936.78
451.39	3808.05
451.57	3794.01
451.76	3749.54
451.94	3824.44
452.13	3911.04
452.31	3812.73
452.49	3782.31
452.68	3932.10
452.86	3815.07
453.05	3852.52
453.23	3852.52
453.42	3829.12
453.60	3857.20
453.78	3875.93
453.97	3885.29
454.15	3995.29
454.34	3801.03
454.52	4117.00
454.70	3901.67
454.89	4002.32
455.07	4112.32
455.26	4023.38
455.44	4173.18
455.62	3981.25
455.81	4039.76
455.99	3981.25
456.17	4245.73
456.36	4173.18
456.54	4119.34
456.73	4182.54
456.91	4217.65
457.09	4236.37
457.28	4479.79
457.46	4189.56
457.64	4297.22
457.83	4390.84
458.01	4381.48
458.19	4409.57
458.38	4234.03
458.56	4594.47
458.74	4449.36
458.93	4418.93
459.11	4395.53
459.29	4454.04
459.48	4648.30
459.66	4451.70
459.84	4538.30
460.03	4699.80
460.21	4620.22
460.39	4634.26
460.57	4624.90
460.76	4655.33
460.94	4557.02
461.12	4486.81
461.31	4697.46
461.49	4751.29
461.67	4706.82
461.85	4662.35
462.04	4627.24
462.22	4999.38
462.40	4631.92
462.59	4823.84
462.77	4894.06
462.95	4950.23
463.13	4608.51
463.32	4957.25
463.50	4828.53
463.68	4901.08
463.86	4884.70
464.05	4805.12
464.23	4734.90
464.41	4983.00
464.59	4891.72
464.78	5013.43
464.96	4952.57
465.14	4919.81
465.32	4957.25
465.50	4926.83
465.69	4868.31
465.87	5029.81
466.05	5071.94
466.23	5027.47
466.41	4952.57
466.60	5252.16
466.78	5116.41
466.96	5071.94
467.14	5020.45
467.32	5046.20
467.51	5158.54
467.69	4971.30
467.87	5144.50
468.05	5013.43
468.23	5188.97
468.41	5205.35
468.60	5123.43
468.78	5413.66
468.96	5078.96
469.14	5313.02
469.32	5387.91
469.50	5184.29
469.69	5294.29
469.87	5359.83
470.05	5240.46
470.23	5401.96
470.41	5235.78
470.59	5589.20
470.77	5369.19
470.95	5378.55
471.14	5476.85
471.32	5408.98
471.50	5614.95
471.68	5603.24
471.86	5617.29
472.04	5575.16
472.22	5764.74
472.40	5783.46
472.58	5839.64
472.77	5717.93
472.95	5661.76
473.13	5996.45
473.31	5973.05
473.49	5856.02
473.67	5811.55
473.85	5856.02
474.03	5930.92
474.21	6038.58
474.39	6197.74
474.57	6054.97
474.75	6115.82
474.93	6118.16
475.12	6272.64
475.30	6270.30
475.48	6153.27
475.66	6176.67
475.84	6303.06
476.02	6314.77
476.20	6265.61
476.38	6455.20
476.56	6712.66
476.74	6429.45
476.92	6520.73
477.10	6490.31
477.28	6640.10
477.46	6654.14
477.64	6686.91
477.82	6665.85
478.00	6888.20
478.18	7143.32
478.36	6792.23
478.54	7021.61
478.72	7325.88
478.90	7094.16
479.08	7372.69
479.26	7494.40
479.44	7283.75
479.62	7332.90
479.80	7421.84
479.98	7419.50
480.16	7618.44
480.34	7576.31
480.52	7651.21
480.70	7517.80
480.88	7543.55
481.06	7698.02
481.24	7737.81
481.41	7915.69
481.59	7906.33
481.77	7967.18
481.95	8154.43
482.13	8229.32
482.31	8149.75
482.49	8362.73
482.67	8336.99
482.85	8615.51
483.03	8573.38
483.21	8542.96
483.39	8489.12
483.57	8449.33
483.74	8491.46
483.92	8720.84
484.10	8720.84
484.28	9067.24
484.46	8884.67
484.64	9186.60
484.82	8926.80
485.00	9008.72
485.18	9399.59
485.35	9493.21
485.53	9357.46
485.71	9458.10
485.89	9479.17
486.07	9544.70
486.25	9781.10
486.43	9729.61
486.61	9888.76
486.78	9994.09
486.96	9767.06
487.14	10181.33
487.32	10239.84
487.50	10317.08
487.68	10443.47
487.85	10485.60
488.03	10368.57
488.21	10642.42
488.39	10548.79
488.57	10567.52
488.75	10567.52
488.92	10782.85
489.10	10986.47
489.28	10792.21
489.46	11007.54
489.64	11173.72
489.81	11232.23
489.99	11119.89
490.17	11449.90
490.35	11531.82
490.53	11644.17
490.70	11536.50
490.88	11536.50
491.06	11721.40
491.24	11630.12
491.41	11857.15
491.59	11721.40
491.77	12102.91
491.95	11885.24
492.13	12123.98
492.30	12360.37
492.48	12191.85
492.66	12461.01
492.84	12180.15
493.01	12542.93
493.19	12711.45
493.37	12585.06
493.54	12844.86
493.72	12758.26
493.90	12966.57
494.08	12931.46
494.25	13308.29
494.43	13179.56
494.61	13322.33
494.79	13296.58
494.96	13507.23
495.14	13434.68
495.32	13547.02
495.49	13631.28
495.67	13565.74
495.85	13848.95
496.02	13645.32
496.20	13858.31
496.38	13944.91
496.55	13982.36
496.73	14331.10
496.91	14160.24
497.09	14375.57
497.26	14373.23
497.44	14382.59
497.62	14604.94
497.79	14539.41
497.97	14494.94
498.14	14576.86
498.32	14878.79
498.50	14747.72
498.67	14923.26
498.85	15073.05
499.03	15302.42
499.20	15040.28
499.38	15222.84
499.56	15054.33
499.73	15330.51
499.91	15520.09
500.08	15571.58
500.26	15288.38
500.44	15573.92
500.61	15536.48
500.79	15386.68
500.97	15800.96
501.14	15803.30
501.32	15796.28
501.49	15861.81
501.67	15791.59
501.84	16121.61
502.02	15737.76
502.20	16346.30
502.37	16491.41
502.55	16081.82
502.72	16025.65
502.90	16102.89
503.07	16259.70
503.25	16400.13
503.43	16397.79
503.60	16460.99
503.78	16568.65
503.95	16542.91
504.13	16751.21
504.30	16624.83
504.48	16566.31
504.65	16865.90
504.83	17104.64
505.01	16870.58
505.18	17205.28
505.36	17146.76
505.53	17238.05
505.71	17104.64
505.88	17142.08
506.06	17114.00
506.23	17366.78
506.41	17191.23
506.58	17605.51
506.76	17851.27
506.93	17287.20
507.11	17296.56
507.28	17769.35
507.46	17612.53
507.63	18108.72
507.81	18111.07
507.98	17678.07
508.16	17823.18
508.33	17905.10
508.50	17841.90
508.68	18185.96
508.85	18258.52
509.03	18183.62
509.20	18438.74
509.38	18267.88
509.55	18696.20
509.73	18410.65
509.90	18333.42
510.08	18455.12
510.25	18148.51
510.42	18623.64
510.60	18679.82
510.77	18597.90
510.95	18686.84
511.12	18689.18
511.30	18745.35
511.47	19007.49
511.64	18743.01
511.82	18913.87
511.99	18916.21
512.17	19133.88
512.34	19077.71
512.51	19281.33
512.69	19278.99
512.86	19204.10
513.04	19744.76
513.21	19580.92
513.38	19672.20
513.56	19693.27
513.73	19246.23
513.90	19236.86
514.08	19524.75
514.25	19571.56
514.43	19695.61
514.60	19723.69
514.77	19829.02
514.95	20042.01
515.12	19637.09
515.29	19709.65
515.47	19917.96
515.64	20266.70
515.81	19941.36
515.99	20386.07
516.16	20365.00
516.33	20463.30
516.51	20208.19
516.68	20205.84
516.85	20100.52
517.03	20318.19
517.20	20369.68
517.37	20402.45
517.54	20627.14
517.72	20512.46
517.89	20528.84
518.06	20610.76
518.24	20659.91
518.41	20641.18
518.58	20620.12
518.75	21172.49
518.93	20957.16
519.10	21053.12
519.27	21205.25
519.45	20790.98
519.62	21341.00
519.79	21184.19
519.96	21191.21
520.14	21167.80
520.31	21198.23
520.48	21296.53
520.65	21359.73
520.83	21553.99
521.00	21568.04
521.17	21020.35
521.34	21376.11
521.52	21928.48
521.69	21762.30
521.86	21696.77
522.03	21937.84
522.20	21455.69
522.38	21495.48
522.55	21734.21
522.72	21755.28
522.89	21928.48
523.07	22207.00
523.24	21984.65
523.41	22244.45
523.58	21628.89
523.75	22434.03
523.92	22160.19
524.10	22127.42
524.27	22597.87
524.44	22326.37
524.61	22530.00
524.78	22242.11
524.96	22579.15
525.13	22370.84
525.30	22848.31
525.47	22757.03
525.64	22719.58
525.81	23068.32
525.98	22735.96
526.16	22817.88
526.33	22707.88
526.50	23192.37
526.67	22810.86
526.84	22609.58
527.01	22890.44
527.18	23122.15
527.36	23157.26
527.53	23365.57
527.70	23623.03
527.87	23681.54
528.04	23168.96
528.21	23316.42
528.38	23173.64
528.55	23042.57
528.72	23534.09
528.89	23510.68
529.07	23726.01
529.24	23164.28
529.41	23618.35
529.58	23632.39
529.75	23494.30
529.92	23304.71
530.09	23328.12
530.26	23721.33
530.43	23543.45
530.60	23847.72
530.77	23957.72
530.94	23929.64
531.11	23871.12
531.28	23826.65
531.46	23892.19
531.63	24280.72
531.80	23946.02
531.97	24135.60
532.14	24018.58
532.31	24046.66
532.48	24336.89
532.65	24086.45
532.82	24217.52
532.99	24308.80
533.16	24432.85
533.33	24641.16
533.50	24411.79
533.67	24554.56
533.84	24341.57
534.01	24292.42
534.18	24498.39
534.35	24702.01
534.52	24222.20
534.69	24634.14
534.86	24802.66
535.03	24596.69
535.20	24584.99
535.37	24870.53
535.54	24718.40
535.71	24673.93
535.88	24367.32
536.05	24769.89
536.22	25020.33
536.38	25062.46
536.55	25165.44
536.72	25043.73
536.89	24900.96
537.06	25207.57
537.23	25025.01
537.40	24943.09
537.57	25071.82
537.74	25209.91
537.91	25214.59
538.08	25472.05
538.25	25191.19
538.42	25362.04
538.59	25284.81
538.75	25273.10
538.92	25371.41
539.09	25722.49
539.26	25167.78
539.43	25558.65
539.60	25483.75
539.77	25647.59
539.94	25956.54
540.11	25439.28
540.28	25687.38
540.44	25369.07
540.61	25825.47
540.78	25830.15
540.95	25961.22
541.12	25600.78
541.29	25734.19
541.46	25462.69
541.62	25776.32
541.79	25951.86
541.96	25685.04
542.13	25490.77
542.30	25956.54
542.47	26178.89
542.63	26017.40
542.80	26384.86
542.97	26361.45
543.14	26394.22
543.31	26665.72
543.48	26471.46
543.64	26497.20
543.81	26511.25
543.98	26319.32
544.15	26450.39
544.32	26469.12
544.48	26892.76
544.65	26719.56
544.82	26532.31
544.99	26267.83
545.16	26759.34
545.32	26569.76
545.49	26967.65
545.66	27171.28
545.83	27159.58
546.00	27250.86
546.16	26974.67
546.33	26649.34
546.50	26319.32
546.67	26967.65
546.83	26518.27
547.00	26766.37
547.17	26920.84
547.34	26881.05
547.50	27564.49
547.67	27154.90
547.84	27138.51
548.00	27126.81
548.17	27131.49
548.34	26981.70
548.51	27534.06
548.67	27644.07
548.84	27632.36
549.01	27164.26
549.18	27505.98
549.34	27103.40
549.51	27363.20
549.68	27386.61
549.84	27356.18
550.01	27864.08
550.18	27094.04
550.34	26986.38
550.51	27475.55
550.68	27894.50
550.84	27234.47
551.01	27594.92
551.18	27468.53
551.34	27323.41
551.51	27524.70
551.68	27522.36
551.84	27903.87
552.01	27555.13
552.18	28102.81
552.34	27646.41
552.51	27424.06
552.68	27634.71
552.84	27852.38
553.01	28095.79
553.18	28100.47
553.34	28051.32
553.51	28081.75
553.67	28053.66
553.84	28521.77
554.01	28166.01
554.17	28357.93
554.34	28278.35
554.51	28294.74
554.67	28058.34
554.84	28039.62
555.00	28025.57
555.17	28030.26
555.33	28257.29
555.50	28044.30
555.67	28184.73
555.83	28205.80
556.00	28194.09
556.16	28149.62
556.33	28350.91
556.50	28121.54
556.66	28341.55
556.83	28362.61
556.99	28503.04
557.16	28786.25
557.32	28350.91
557.49	28655.18
557.65	28711.35
557.82	28491.34
557.98	28624.75
558.15	29067.11
558.32	28428.15
558.48	28318.14
558.65	28627.09
558.81	28823.70
558.98	28603.69
559.14	28648.16
559.31	28751.14
559.47	28608.37
559.64	28526.45
559.80	28828.38
559.97	28664.54
560.13	28788.59
560.30	28837.74
560.46	29057.75
560.63	28680.92
560.79	28811.99
560.96	28872.85
561.12	28716.03
561.29	28973.49
561.45	28999.24
561.61	28767.52
561.78	29076.48
561.94	29411.17
562.11	29139.67
562.27	28701.99
562.44	29120.95
562.60	28746.46
562.77	28718.37
562.93	28924.34
563.10	29324.57
563.26	28917.32
563.42	29172.44
563.59	29142.01
563.75	29048.39
563.92	29380.74
564.08	28823.70
564.24	29076.48
564.41	28788.59
564.57	29137.33
564.74	29029.66
564.90	29467.34
565.07	29104.56
565.23	29249.67
565.39	29310.53
565.56	29502.45
565.72	29170.10
565.88	29149.03
566.05	29170.10
566.21	29383.09
566.38	29036.69
566.54	29113.92
566.70	29277.76
566.87	29675.65
567.03	29170.10
567.19	29687.36
567.36	29514.16
567.52	29184.14
567.68	29537.56
567.85	29415.85
568.01	29537.56
568.17	29326.91
568.34	29752.89
568.50	29373.72
568.66	29465.00
568.83	29731.83
568.99	29343.30
569.15	29237.97
569.32	29359.68
569.48	29170.10
569.64	29422.87
569.81	29610.12
569.97	29460.32
570.13	29504.79
570.30	29383.09
570.46	29809.06
570.62	29577.35
570.78	29546.92
570.95	29383.09
571.11	29558.63
571.27	29352.66
571.43	29399.47
571.60	29479.05
571.76	29612.46
571.92	29790.34
572.09	29390.11
572.25	29715.44
572.41	29675.65
572.57	29844.17
572.74	29521.18
572.90	29455.64
573.06	29778.64
573.22	29633.52
573.38	29638.20
573.55	29483.73
573.71	29888.64
573.87	29806.72
574.03	29893.32
574.20	29390.11
574.36	29429.90
574.52	29757.57
574.68	29647.57
574.84	29724.80
575.01	29371.38
575.17	29783.32
575.33	29642.88
575.49	29668.63
575.65	29757.57
575.82	29727.14
575.98	30036.09
576.14	29694.38
576.30	29914.39
576.46	29628.84
576.62	29673.31
576.79	29837.15
576.95	29572.67
577.11	29984.60
577.27	29795.02
577.43	29998.65
577.59	29713.10
577.75	29984.60
577.92	29542.24
578.08	29621.82
578.24	29446.28
578.40	29575.01
578.56	30061.84
578.72	30043.12
578.88	29860.55
579.04	30221.00
579.21	29673.31
579.37	29914.39
579.53	29881.62
579.69	29834.81
579.85	29752.89
580.01	29645.23
580.17	29778.64
580.33	30169.51
580.49	29785.66
580.65	30085.25
580.82	29961.20
580.98	30321.64
581.14	29890.98
581.30	29921.41
581.46	30050.14
581.62	29603.10
581.78	29825.45
581.94	29989.28
582.10	29956.52
582.26	29893.32
582.42	29762.25
582.58	30169.51
582.74	30125.04
582.90	30143.76
583.06	30015.03
583.22	29710.76
583.38	29926.09
583.54	29745.87
583.70	29673.31
583.86	29703.74
584.02	30068.86
584.18	29930.77
584.34	29937.79
584.50	29687.36
584.66	29729.48
584.82	29759.91
584.98	29977.58
585.14	29876.94
585.30	29818.42
585.46	29879.28
585.62	29825.45
585.78	30008.01
585.94	29802.04
586.10	29736.51
586.26	30274.83
586.42	30249.08
586.58	30684.42
586.74	29806.72
586.90	29752.89
587.06	29809.06
587.22	29677.99
587.38	30146.10
587.54	30050.14
587.70	30073.54
587.86	30160.14
588.02	30228.02
588.18	30714.85
588.34	30375.47
588.49	29916.73
588.65	30178.87
588.81	30361.43
588.97	30305.26
589.13	30239.72
589.29	30230.36
589.45	30396.54
589.61	30115.67
589.77	30403.56
589.93	30195.25
590.08	30532.29
590.24	30281.85
590.40	30253.76
590.56	30368.45
590.72	30125.04
590.88	30110.99
591.04	30417.60
591.20	30658.68
591.35	30712.51
591.51	30581.44
591.67	30176.53
591.83	30625.91
591.99	30822.51
592.15	30539.31
592.31	29986.94
592.46	30118.01
592.62	30071.20
592.78	30323.98
592.94	30443.35
593.10	30352.07
593.26	30803.79
593.41	30307.60
593.57	30373.13
593.73	30586.12
593.89	30345.05
594.05	30710.17
594.20	30190.57
594.36	30326.32
594.52	30611.87
594.68	30588.46
594.84	29942.47
594.99	30726.55
595.15	30253.76
595.31	30368.45
595.47	30408.24
595.62	30656.34
595.78	30331.00
595.94	30630.59
596.10	30677.40
596.25	30469.09
596.41	30412.92
596.57	30433.99
596.73	30604.84
596.88	30232.70
597.04	30445.69
597.20	30916.14
597.36	30333.34
597.51	30960.61
597.67	30499.52
597.83	30532.29
597.99	30735.92
598.14	30768.68
598.30	30389.52
598.46	30293.55
598.61	30618.89
598.77	30621.23
598.93	31037.84
599.09	30845.92
599.24	30773.36
599.40	30600.16
599.56	30934.86
599.71	30604.84
599.87	30665.70
600.03	30036.09
600.18	30515.90
600.34	30419.94
600.50	30146.10
600.65	30471.43
600.81	30457.39
600.97	30649.32
601.12	30822.51
601.28	31065.93
601.44	31159.55
601.59	31089.34
601.75	30363.77
601.91	30859.96
602.06	30291.21
602.22	30384.83
602.37	30408.24
602.53	30583.78
602.69	30754.64
602.84	30513.56
603.00	30761.66
603.16	30897.41
603.31	30768.68
603.47	30595.48
603.62	30473.78
603.78	30768.68
603.94	30443.35
604.09	30558.03
604.25	30707.83
604.40	30436.33
604.56	30740.60
604.71	30749.96
604.87	30850.60
605.03	30436.33
605.18	30717.19
605.34	30778.04
605.49	30345.05
605.65	30433.99
605.80	30417.60
605.96	30349.73
606.12	30635.27
606.27	30721.87
606.43	30548.67
606.58	30211.64
606.74	30796.77
606.89	30431.65
607.05	31075.29
607.20	30836.56
607.36	30363.77
607.51	30361.43
607.67	30331.00
607.82	30199.93
607.98	30654.00
608.13	30508.88
608.29	30445.69
608.44	30433.99
608.60	30483.14
608.75	30553.35
608.91	30501.86
609.06	30391.86
609.22	30588.46
609.37	30328.66
609.53	30511.22
609.68	30394.20
609.84	30707.83
609.99	30347.39
610.15	30213.98
610.30	30288.87
610.46	30403.56
610.61	30319.30
610.76	30202.27
610.92	30359.09
611.07	30125.04
611.23	30258.45
611.38	30223.34
611.54	30345.05
611.69	30040.78
611.84	30309.94
612.00	29954.18
612.15	30291.21
612.31	30188.23
612.46	30003.33
612.62	30302.92
612.77	30267.81
612.92	30305.26
613.08	30394.20
613.23	30085.25
613.39	29923.75
613.54	29958.86
613.69	29582.03
613.85	29813.74
614.00	29956.52
614.15	30122.69
614.31	30024.39
614.46	30036.09
614.62	29839.49
614.77	30270.15
614.92	30038.44
615.08	29949.50
615.23	29841.83
615.38	30003.33
615.54	29792.68
615.69	29722.46
615.84	29703.74
616.00	29642.88
616.15	29759.91
616.30	29944.81
616.46	29645.23
616.61	29797.36
616.76	29900.34
616.92	29830.13
617.07	29806.72
617.22	30122.69
617.37	29689.70
617.53	29961.20
617.68	29661.61
617.83	29638.20
617.99	29598.41
618.14	29537.56
618.29	30010.35
618.45	29282.44
618.60	29713.10
618.75	29759.91
618.90	29546.92
619.06	29432.24
619.21	29668.63
619.36	29682.67
619.51	29537.56
619.67	29125.63
619.82	29212.23
619.97	29415.85
620.12	29340.96
620.28	29549.26
620.43	29504.79
620.58	29797.36
620.73	29556.28
620.89	29570.33
621.04	29855.87
621.19	29280.10
621.34	29469.69
621.49	29017.96
621.65	29193.50
621.80	29123.29
621.95	28905.62
622.10	29221.59
622.25	29186.48
622.41	28821.36
622.56	29467.34
622.71	29216.91
622.86	29109.24
623.01	29209.89
623.16	28849.44
623.32	29233.29
623.47	29343.30
623.62	29216.91
623.77	29139.67
623.92	28842.42
624.07	28795.61
624.23	28884.55
624.38	28964.13
624.53	29041.37
624.68	28954.77
624.83	29172.44
624.98	29230.95
625.13	29013.28
625.29	29408.83
625.44	29153.71
625.59	28849.44
625.74	28496.02
625.89	28533.47
626.04	29062.43
626.19	28781.57
626.34	28847.10
626.49	28807.31
626.65	28854.12
626.80	28772.21
626.95	28905.62
627.10	28723.05
627.25	28800.29
627.40	28463.25
627.55	28493.68
627.70	28481.98
627.85	28458.57
628.00	28304.10
628.15	28535.81
628.30	28308.78
628.45	28430.49
628.60	28388.36
628.76	28797.95
628.91	28842.42
629.06	28341.55
629.21	28826.04
629.36	28517.09
629.51	28697.31
629.66	28343.89
629.81	28116.86
629.96	28402.40
630.11	28456.23
630.26	28465.60
630.41	28250.27
630.56	27835.99
630.71	28451.55
630.86	28229.20
631.01	28123.88
631.16	28201.11
631.31	28489.00
631.46	28205.80
631.61	28161.33
631.76	28247.93
631.91	27995.15
632.06	28025.57
632.21	27864.08
632.36	28011.53
632.51	27821.95
632.66	27843.01
632.81	27899.19
632.96	27821.95
633.10	27803.22
633.25	28180.05
633.40	27969.40
633.55	27709.60
633.70	27623.00
633.85	27985.79
634.00	27784.50
634.15	27545.76
634.30	27747.05
634.45	27564.49
634.60	27761.09
634.75	27957.70
634.90	28058.34
635.05	27950.68
635.19	27831.31
635.34	27922.59
635.49	27866.42
635.64	27964.72
635.79	28048.98
635.94	27494.27
636.09	27564.49
636.24	27454.48
636.39	27328.10
636.53	27508.32
636.68	27480.23
636.83	27800.88
636.98	27449.80
637.13	27632.36
637.28	27442.78
637.43	27772.80
637.57	27292.99
637.72	27697.90
637.87	27124.47
638.02	27592.58
638.17	27206.39
638.32	27168.94
638.46	27395.97
638.61	27175.96
638.76	27370.22
638.91	27002.76
639.06	27445.12
639.20	27632.36
639.35	27718.96
639.50	27749.39
639.65	27421.72
639.80	27384.27
639.94	27236.81
640.09	27208.73
640.24	27344.48
640.39	27311.71
640.54	26867.01
640.68	27276.60
640.83	27133.83
640.98	26677.43
641.13	27002.76
641.27	27026.17
641.42	26981.70
641.57	27021.48
641.72	27300.01
641.86	27096.38
642.01	26803.82
642.16	26838.92
642.31	26452.73
642.45	26529.97
642.60	26611.89
642.75	26754.66
642.90	26675.09
643.04	26403.58
643.19	26965.31
643.34	26724.24
643.48	26684.45
643.63	26787.43
643.78	26604.87
643.93	26501.89
644.07	27012.12
644.22	27318.73
644.37	26883.39
644.51	26794.45
644.66	26471.46
644.81	26389.54
644.95	26637.64
645.10	26621.25
645.25	26703.17
645.39	26829.56
645.54	26625.93
645.69	26373.16
645.83	26487.84
645.98	26525.29
646.13	26455.08
646.27	26890.41
646.42	26658.70
646.57	26478.48
646.71	26663.38
646.86	26525.29
647.00	26403.58
647.15	26539.33
647.30	26281.88
647.44	26544.02
647.59	26480.82
647.74	26258.47
647.88	26286.56
648.03	26611.89
648.17	26600.19
648.32	26529.97
648.47	26593.17
648.61	26223.36
648.76	26492.52
648.90	26366.13
649.05	26401.24
649.20	26450.39
649.34	26382.52
649.49	25909.73
649.63	25766.96
649.78	25991.65
649.92	25982.29
650.07	26031.44
650.21	25752.91
650.36	25869.94
650.51	25832.49
650.65	26244.43
650.80	25982.29
650.94	26111.02
651.09	26022.08
651.23	25879.30
651.38	25825.47
651.52	25898.03
651.67	25755.26
651.81	26216.34
651.96	25989.31
652.10	25502.48
652.25	25717.81
652.39	25919.09
652.54	25748.23
652.68	25757.60
652.83	25783.34
652.97	26008.03
653.12	26010.37
653.26	25809.09
653.41	25535.24
653.55	25539.93
653.70	25322.26
653.84	25827.81
653.99	25476.73
654.13	25734.19
654.27	25663.97
654.42	25563.33
654.56	25104.59
654.71	26031.44
654.85	25717.81
655.00	25476.73
655.14	25575.03
655.29	25624.18
655.43	25460.35
655.57	25474.39
655.72	25425.24
655.86	25418.22
656.01	25212.25
656.15	25490.77
656.30	25273.10
656.44	25291.83
656.58	25340.98
656.73	25261.40
656.87	25516.52
657.01	24994.58
657.16	25366.73
657.30	25565.67
657.45	25015.65
657.59	25420.56
657.73	25355.02
657.88	25504.82
658.02	25287.15
658.16	25048.41
658.31	24826.06
658.45	25081.18
658.60	24627.12
658.74	25399.49
658.88	24889.26
659.03	24692.65
659.17	24875.21
659.31	25102.25
659.46	24931.39
659.60	24865.85
659.74	24968.84
659.89	24741.80
660.03	24781.59
660.17	24629.46
660.32	24849.47
660.46	24357.96
660.60	24900.96
660.74	24641.16
660.89	24589.67
661.03	24294.76
661.17	24680.95
661.32	24648.18
661.46	24294.76
661.60	24805.00
661.74	24549.88
661.89	24360.30
662.03	24463.28
662.17	24409.45
662.31	24219.86
662.46	24217.52
662.60	24065.39
662.74	24353.27
662.88	24376.68
663.03	24156.67
663.17	23967.09
663.31	23690.90
663.45	23761.12
663.60	23723.67
663.74	23983.47
663.88	24030.28
664.02	23667.50
664.17	23559.83
664.31	23428.76
664.45	23569.19
664.59	23894.53
664.73	23786.86
664.88	23562.17
665.02	23468.55
665.16	23482.59
665.30	23660.48
665.44	23608.98
665.59	23222.80
665.73	23211.09
665.87	23632.39
666.01	23559.83
666.15	23527.06
666.29	23147.90
666.44	23447.49
666.58	23283.65
666.72	23353.87
666.86	23566.85
667.00	23360.89
667.14	23370.25
667.28	23232.16
667.43	23356.21
667.57	23470.89
667.71	23288.33
667.85	23005.13
667.99	22904.48
668.13	23117.47
668.27	23091.73
668.41	22778.09
668.56	23005.13
668.70	23112.79
668.84	23213.43
668.98	22614.26
669.12	23129.17
669.26	23042.57
669.40	22759.37
669.54	22670.43
669.68	22579.15
669.82	22288.92
669.96	22658.73
670.10	22338.07
670.25	22513.61
670.39	22115.72
670.53	22401.27
670.67	22216.36
670.81	22363.82
670.95	22501.91
671.09	22312.33
671.23	22335.73
671.37	22562.76
671.51	22478.50
671.65	22230.41
671.79	22008.06
671.93	22565.10
672.07	22204.66
672.21	21954.22
672.35	21916.78
672.49	21422.92
672.63	22118.06
672.77	21898.05
672.91	21717.83
673.05	21734.21
673.19	21621.87
673.33	22008.06
673.47	21359.73
673.61	21568.04
673.75	21626.55
673.89	21633.57
674.03	21619.53
674.17	21411.22
674.31	21394.84
674.45	21341.00
674.59	21624.21
674.73	21268.45
674.87	21130.36
675.01	20840.13
675.15	20940.77
675.29	20676.29
675.43	21156.10
675.56	20936.09
675.70	21153.76
675.84	21106.95
675.98	20325.21
676.12	20966.52
676.26	20975.88
676.40	20952.48
676.54	20737.15
676.68	20851.83
676.82	20311.17
676.96	20790.98
677.10	20439.90
677.23	20294.79
677.37	20025.62
677.51	20243.29
677.65	19803.27
677.79	19943.70
677.93	20304.15
678.07	19941.36
678.21	19751.78
678.34	20037.33
678.48	19957.75
678.62	19653.48
678.76	19634.75
678.90	19747.10
679.04	19651.14
679.18	19749.44
679.31	19372.61
679.45	19288.35
679.59	19225.16
679.73	19227.50
679.87	19208.78
680.00	19187.71
680.14	19255.59
680.28	19030.90
680.42	19154.94
680.56	19068.34
680.70	19026.21
680.83	19103.45
680.97	18857.70
681.11	18813.23
681.25	18558.11
681.39	18747.69
681.52	18731.31
681.66	18560.45
681.80	18185.96
681.94	18387.25
682.07	18504.28
682.21	18146.17
682.35	18462.15
682.49	18490.23
682.62	18335.76
682.76	18024.47
682.90	18143.83
683.04	17994.04
683.17	17998.72
683.31	18101.70
683.45	18380.23
683.59	17935.53
683.72	17722.54
683.86	17734.24
684.00	17612.53
684.13	17563.38
684.27	17715.51
684.41	17462.74
684.55	17231.02
684.68	17125.70
684.82	17273.15
684.96	17193.58
685.09	17273.15
685.23	17092.93
685.37	17202.94
685.50	17198.26
685.64	17376.14
685.78	17060.16
685.91	17195.92
686.05	17135.06
686.19	16585.04
686.32	16835.47
686.46	16594.40
686.60	16432.90
686.73	16563.97
686.87	16547.59
687.01	16383.75
687.14	16547.59
687.28	16496.10
687.42	16152.04
687.55	16372.05
687.69	16184.80
687.82	16039.69
687.96	16226.93
688.10	15915.64
688.23	15901.60
688.37	16149.70
688.50	16095.86
688.64	16278.43
688.78	16004.58
688.91	15627.76
689.05	15522.43
689.18	15506.05
689.32	15250.93
689.46	15288.38
689.59	15363.28
689.73	15557.54
689.86	15377.32
690.00	15293.06
690.13	15220.50
690.27	15257.95
690.41	15321.15
690.54	15014.54
690.68	15218.16
690.81	15089.43
690.95	15190.08
691.08	14993.47
691.22	15084.75
691.35	15180.71
691.49	14939.64
691.62	14761.76
691.76	14719.63
691.89	14656.43
692.03	14567.49
692.16	14391.95
692.30	14295.99
692.43	14307.69
692.57	14265.57
692.70	14265.57
692.84	14380.25
692.97	14033.85
693.11	14368.55
693.24	14228.12
693.38	14008.11
693.51	13935.55
693.65	14005.77
693.78	13907.46
693.92	13848.95
694.05	13657.03
694.19	13619.58
694.32	13792.78
694.45	13596.17
694.59	13488.51
694.72	13448.72
694.86	13221.69
694.99	13284.88
695.13	12936.14
695.26	13343.39
695.39	13261.48
695.53	13219.35
695.66	13076.57
695.80	12854.22
695.93	13486.17
696.07	13027.42
696.20	13233.39
696.33	12905.71
696.47	12748.90
696.60	12856.56
696.73	13041.46
696.87	12851.88
697.00	12674.00
697.14	12594.42
697.27	12400.16
697.40	12233.98
697.54	12538.25
697.67	12290.15
697.80	12180.15
697.94	11903.96
698.07	12191.85
698.21	12112.27
698.34	12180.15
698.47	12238.66
698.61	12013.97
698.74	12325.26
698.87	11929.71
699.01	11885.24
699.14	12128.66
699.27	11941.41
699.40	11882.90
699.54	11747.15
699.67	11606.72
699.80	11545.86
699.94	11920.35
700.07	11536.50
700.20	11384.37
700.34	11236.91
700.47	11414.79
700.60	11351.60
700.73	11396.07
700.87	11358.62
701.00	11281.38
701.13	11059.03
701.26	11052.01
701.40	11169.04
701.53	11119.89
701.66	11199.46
701.79	11030.94
701.93	11035.63
702.06	10960.73
702.19	10761.78
702.32	10626.03
702.46	10555.82
702.59	10813.28
702.72	10539.43
702.85	10324.10
702.99	10518.37
703.12	10520.71
703.25	10118.14
703.38	10401.34
703.51	10342.83
703.65	10312.40
703.78	10256.23
703.91	10284.31
704.04	10354.53
704.17	10214.10
704.31	10190.69
704.44	9987.07
704.57	10029.20
704.70	9874.72
704.83	9680.46
704.96	9905.15
705.10	9537.68
705.23	9568.11
>>>>>End Processed Spectral Data<<<<<
