SpectraSuite Data File
++++++++++++++++++++++++++++++++++++
Date: Fri Oct 18 13:58:07 GMT-05:00 2013
User: bianchi
Dark Spectrum Present: No
Reference Spectrum Present: No
Number of Sampled Component Spectra: 1
Spectrometers: USB2+H05261
Integration Time (usec): 50000 (USB2+H05261)
Spectra Averaged: 1 (USB2+H05261)
Boxcar Smoothing: 0 (USB2+H05261)
Correct for Electrical Dark: No (USB2+H05261)
Strobe/Lamp Enabled: No (USB2+H05261)
Correct for Detector Non-linearity: No (USB2+H05261)
Correct for Stray Light: No (USB2+H05261)
Number of Pixels in Processed Spectrum: 2048
>>>>>Begin Processed Spectral Data<<<<<
365.73	0.00
365.92	0.00
366.12	0.00
366.32	0.00
366.52	0.00
366.72	0.00
366.91	0.00
367.11	0.00
367.31	0.00
367.51	0.00
367.70	0.00
367.90	0.00
368.10	0.00
368.30	0.00
368.49	0.00
368.69	0.00
368.89	0.00
369.09	0.00
369.28	0.00
369.48	0.00
369.68	0.00
369.87	0.00
370.07	0.00
370.27	0.00
370.47	0.00
370.66	79.58
370.86	170.86
371.06	119.37
371.25	95.96
371.45	84.26
371.65	121.71
371.84	217.67
372.04	119.37
372.24	173.20
372.44	191.92
372.63	154.48
372.83	262.14
373.03	205.97
373.22	236.39
373.42	180.22
373.62	196.60
373.81	177.88
374.01	322.99
374.21	262.14
374.40	248.10
374.60	262.14
374.79	252.78
374.99	269.16
375.19	259.80
375.38	248.10
375.58	259.80
375.78	280.86
375.97	278.52
376.17	327.68
376.37	259.80
376.56	269.16
376.76	257.46
376.95	266.82
377.15	276.18
377.35	294.91
377.54	297.25
377.74	252.78
377.93	266.82
378.13	262.14
378.33	276.18
378.52	360.44
378.72	341.72
378.91	344.06
379.11	341.72
379.31	348.74
379.50	313.63
379.70	241.08
379.89	346.40
380.09	315.97
380.28	208.31
380.48	304.27
380.68	318.31
380.87	257.46
381.07	304.27
381.26	341.72
381.46	339.38
381.65	287.89
381.85	278.52
382.04	344.06
382.24	346.40
382.43	355.76
382.63	383.85
382.83	304.27
383.02	451.72
383.22	365.12
383.41	369.80
383.61	360.44
383.80	315.97
384.00	395.55
384.19	402.57
384.39	355.76
384.58	416.62
384.78	362.78
384.97	402.57
385.17	348.74
385.36	367.46
385.56	449.38
385.75	351.08
385.95	451.72
386.14	428.32
386.34	365.12
386.53	383.85
386.72	423.64
386.92	397.89
387.11	400.23
387.31	505.56
387.50	423.64
387.70	393.21
387.89	404.91
388.09	477.47
388.28	463.43
388.48	444.70
388.67	444.70
388.86	470.45
389.06	430.66
389.25	486.83
389.45	458.74
389.64	472.79
389.84	500.87
390.03	500.87
390.22	517.26
390.42	477.47
390.61	472.79
390.81	559.39
391.00	479.81
391.19	528.96
391.39	496.19
391.58	475.13
391.78	538.32
391.97	489.17
392.16	479.81
392.36	514.92
392.55	568.75
392.75	610.88
392.94	547.69
393.13	514.92
393.33	613.22
393.52	559.39
393.71	601.52
393.91	596.84
394.10	566.41
394.29	510.24
394.49	554.71
394.68	629.60
394.88	648.33
395.07	627.26
395.26	667.05
395.46	685.78
395.65	585.13
395.84	592.16
396.04	777.06
396.23	671.73
396.42	638.97
396.62	634.29
396.81	622.58
397.00	622.58
397.19	650.67
397.39	655.35
397.58	697.48
397.77	671.73
397.97	704.50
398.16	767.70
398.35	727.91
398.55	730.25
398.74	748.97
398.93	765.36
399.12	748.97
399.32	734.93
399.51	655.35
399.70	819.19
399.90	751.31
400.09	770.04
400.28	774.72
400.47	802.80
400.67	770.04
400.86	866.00
401.05	835.57
401.24	882.38
401.44	755.99
401.63	748.97
401.82	821.53
402.01	770.04
402.21	823.87
402.40	720.88
402.59	866.00
402.78	772.38
402.97	924.51
403.17	922.17
403.36	952.60
403.55	926.85
403.74	926.85
403.93	910.47
404.13	915.15
404.32	922.17
404.51	887.06
404.70	898.77
404.89	910.47
405.09	940.90
405.28	978.34
405.47	1013.45
405.66	936.21
405.85	961.96
406.05	985.37
406.24	978.34
406.43	964.30
406.62	1020.47
406.81	1055.58
407.00	940.90
407.20	950.26
407.39	1018.13
407.58	999.41
407.77	1043.88
407.96	1043.88
408.15	1107.07
408.34	1111.75
408.54	1170.27
408.73	1114.10
408.92	1081.33
409.11	1193.67
409.30	1088.35
409.49	1100.05
409.68	1142.18
409.87	1118.78
410.07	1289.64
410.26	1191.33
410.45	1118.78
410.64	1233.46
410.83	1142.18
411.02	1221.76
411.21	1320.06
411.40	1226.44
411.59	1301.34
411.78	1331.76
411.98	1275.59
412.17	1310.70
412.36	1301.34
412.55	1317.72
412.74	1303.68
412.93	1413.68
413.12	1322.40
413.31	1441.77
413.50	1313.04
413.69	1516.67
413.88	1500.28
414.07	1444.11
414.26	1369.21
414.45	1502.62
414.64	1488.58
414.83	1495.60
415.02	1544.75
415.22	1537.73
415.41	1540.07
415.60	1565.82
415.79	1603.27
415.98	1593.90
416.17	1598.59
416.36	1631.35
416.55	1666.46
416.74	1664.12
416.93	1720.29
417.12	1680.50
417.31	1736.68
417.50	1734.34
417.69	1724.97
417.88	1750.72
418.07	1736.68
418.26	1743.70
418.45	1863.07
418.64	1710.93
418.83	1776.47
419.02	1710.93
419.21	1788.17
419.39	1865.41
419.58	1893.49
419.77	1942.64
419.96	1818.60
420.15	1818.60
420.34	1806.89
420.53	1912.22
420.72	1977.75
420.91	1905.20
421.10	1912.22
421.29	1952.01
421.48	1989.46
421.67	1956.69
421.86	1968.39
422.05	1996.48
422.24	1874.77
422.43	2008.18
422.61	1996.48
422.80	2179.04
422.99	2031.58
423.18	2064.35
423.37	2029.24
423.56	2022.22
423.75	1980.09
423.94	1954.35
424.13	1930.94
424.32	1884.13
424.50	2146.27
424.69	2085.42
424.88	2275.00
425.07	2029.24
425.26	1982.43
425.45	2052.65
425.64	2017.54
425.83	2069.03
426.01	2073.71
426.20	2026.90
426.39	2069.03
426.58	2090.10
426.77	2057.33
426.96	2094.78
427.15	2127.55
427.33	2064.35
427.52	2113.50
427.71	2181.38
427.90	2104.14
428.09	2148.61
428.28	2132.23
428.46	2230.53
428.65	2148.61
428.84	2242.23
429.03	2324.15
429.22	2232.87
429.40	2223.51
429.59	2160.31
429.78	2289.04
429.97	2134.57
430.16	2246.91
430.34	2272.66
430.53	2345.22
430.72	2321.81
430.91	2317.13
431.10	2298.41
431.28	2368.62
431.47	2410.75
431.66	2377.98
431.85	2361.60
432.03	2443.52
432.22	2464.58
432.41	2567.57
432.60	2431.82
432.79	2373.30
432.97	2469.27
433.16	2513.74
433.35	2537.14
433.54	2368.62
433.72	2504.37
433.91	2438.84
434.10	2445.86
434.28	2539.48
434.47	2495.01
434.66	2675.23
434.85	2593.31
435.03	2593.31
435.22	2602.68
435.41	2738.43
435.59	2623.74
435.78	2717.36
435.97	2729.06
436.16	2759.49
436.34	2703.32
436.53	2712.68
436.72	2773.53
436.90	2736.09
437.09	2630.76
437.28	2738.43
437.46	2731.41
437.65	2801.62
437.84	2747.79
438.02	2785.24
438.21	2904.60
438.40	2820.35
438.58	2958.44
438.77	2949.08
438.96	2946.73
439.14	2932.69
439.33	2960.78
439.52	2986.52
439.70	2974.82
439.89	2981.84
440.08	3063.76
440.26	3117.59
440.45	3122.27
440.63	3089.51
440.82	3260.37
441.01	3126.96
441.19	3199.51
441.38	3162.06
441.57	3353.99
441.75	3288.45
441.94	3318.88
442.12	3330.58
442.31	3459.31
442.50	3234.62
442.68	3346.97
442.87	3162.06
443.05	3328.24
443.24	3342.28
443.43	3349.31
443.61	3400.80
443.80	3545.91
443.98	3328.24
444.17	3206.53
444.35	3503.78
444.54	3452.29
444.73	3499.10
444.91	3424.20
445.10	3393.78
445.28	3384.41
445.47	3365.69
445.65	3403.14
445.84	3522.51
446.02	3435.91
446.21	3384.41
446.39	3468.67
446.58	3625.49
446.77	3641.87
446.95	3461.65
447.14	3433.57
447.32	3597.40
447.51	3557.61
447.69	3552.93
447.88	3424.20
448.06	3576.34
448.25	3625.49
448.43	3646.55
448.62	3538.89
448.80	3552.93
448.99	3648.90
449.17	3597.40
449.36	3634.85
449.54	3770.60
449.73	3861.88
449.91	3801.03
450.10	3693.37
450.28	3840.82
450.46	3695.71
450.65	3761.24
450.83	3808.05
451.02	3786.99
451.20	3758.90
451.39	3735.50
451.57	3812.73
451.76	3754.22
451.94	3906.35
452.13	3852.52
452.31	3873.59
452.49	3899.33
452.68	3962.53
452.86	3810.39
453.05	3948.48
453.23	3955.51
453.42	3948.48
453.60	3747.20
453.78	3922.74
453.97	3971.89
454.15	3868.91
454.34	3995.29
454.52	4018.70
454.70	4063.17
454.89	3957.85
455.07	4098.28
455.26	3988.27
455.44	4215.30
455.62	4011.68
455.81	4105.30
455.99	4262.12
456.17	4229.35
456.36	4231.69
456.54	4140.41
456.73	4306.59
456.91	4360.42
457.09	4273.82
457.28	4376.80
457.46	4318.29
457.64	4484.47
457.83	4512.55
458.01	4400.21
458.19	4500.85
458.38	4397.87
458.56	4493.83
458.74	4470.42
458.93	4503.19
459.11	4332.33
459.29	4411.91
459.48	4557.02
459.66	4631.92
459.84	4528.94
460.03	4589.79
460.21	4482.13
460.39	4641.28
460.57	4521.92
460.76	4711.50
460.94	4734.90
461.12	4638.94
461.31	4692.77
461.49	4774.69
461.67	4702.14
461.85	4816.82
462.04	4847.25
462.22	5008.75
462.40	4788.74
462.59	4851.93
462.77	4772.35
462.95	4978.32
463.13	4709.16
463.32	4844.91
463.50	4922.15
463.68	5085.98
463.86	4851.93
464.05	4833.21
464.23	4924.49
464.41	4802.78
464.59	4856.61
464.78	5043.85
464.96	4961.94
465.14	4844.91
465.32	4910.44
465.50	4868.31
465.69	5114.07
465.87	5085.98
466.05	5135.14
466.23	5032.15
466.41	5118.75
466.60	5280.25
466.78	5315.36
466.96	5165.56
467.14	5039.17
467.32	5034.49
467.51	5364.51
467.69	5074.28
467.87	5275.57
468.05	5060.24
468.23	5132.79
468.41	5238.12
468.60	5142.16
468.78	5298.97
468.96	5329.40
469.14	5420.68
469.32	5383.23
469.50	5355.15
469.69	5315.36
469.87	5394.93
470.05	5509.62
470.23	5488.56
470.41	5474.51
470.59	5504.94
470.77	5472.17
470.95	5502.60
471.14	5628.99
471.32	5551.75
471.50	5781.12
471.68	5650.05
471.86	5612.60
472.04	5490.90
472.22	5888.79
472.40	5741.33
472.58	5652.39
472.77	5708.57
472.95	5877.09
473.13	5973.05
473.31	5820.91
473.49	5804.53
473.67	5898.15
473.85	5935.60
474.03	6113.48
474.21	6043.26
474.39	6094.76
474.57	6188.38
474.75	6251.57
474.93	6157.95
475.12	6340.51
475.30	6225.82
475.48	6305.40
475.66	6286.68
475.84	6518.39
476.02	6623.72
476.20	6237.53
476.38	6588.61
476.56	6726.70
476.74	6602.65
476.92	6583.93
477.10	6600.31
477.28	6619.04
477.46	6820.32
477.64	6722.02
477.82	6970.12
478.00	6920.96
478.18	7016.93
478.36	7098.84
478.54	7056.72
478.72	6970.12
478.90	7091.82
479.08	7272.04
479.26	7372.69
479.44	7316.51
479.62	7480.35
479.80	7454.61
479.98	7531.84
480.16	7569.29
480.34	7510.78
480.52	7691.00
480.70	7822.07
480.88	7728.45
481.06	7616.10
481.24	7864.20
481.41	7957.82
481.59	8182.51
481.77	7939.10
481.95	8198.90
482.13	8210.60
482.31	8306.56
482.49	8177.83
482.67	8493.80
482.85	8325.29
483.03	8526.57
483.21	8830.84
483.39	8737.22
483.57	8589.77
483.74	8753.60
483.92	8847.22
484.10	8634.24
484.28	9001.70
484.46	9158.52
484.64	9383.21
484.82	9142.13
485.00	9109.36
485.18	9355.12
485.35	9460.45
485.53	9511.94
485.71	9432.36
485.89	9715.56
486.07	9621.94
486.25	9788.12
486.43	9654.71
486.61	9989.41
486.78	10097.07
486.96	10127.50
487.14	10164.95
487.32	10188.35
487.50	10506.66
487.68	10263.25
487.85	10216.44
488.03	10689.23
488.21	10768.80
488.39	10647.10
488.57	10934.98
488.75	10869.45
488.92	10981.79
489.10	11183.08
489.28	10939.66
489.46	11042.65
489.64	11290.74
489.81	11321.17
489.99	11454.58
490.17	11337.56
490.35	11550.54
490.53	11620.76
490.70	11655.87
490.88	11573.95
491.06	11915.67
491.24	11829.07
491.41	11983.54
491.59	12006.95
491.77	12088.87
491.95	12456.33
492.13	12142.70
492.30	12404.84
492.48	12542.93
492.66	12322.92
492.84	12521.87
493.01	12690.38
493.19	12561.66
493.37	12982.95
493.54	13011.04
493.72	12915.08
493.90	12741.88
494.08	13090.62
494.25	13282.54
494.43	13444.04
494.61	13277.86
494.79	13518.93
494.96	13451.06
495.14	13530.64
495.32	13694.47
495.49	13738.94
495.67	13713.20
495.85	14118.11
496.02	14017.47
496.20	14097.05
496.38	14104.07
496.55	13671.07
496.73	14565.15
496.91	14274.93
497.09	14499.62
497.26	14361.53
497.44	14558.13
497.62	14406.00
497.79	14892.83
497.97	14387.27
498.14	14899.85
498.32	14941.98
498.50	15147.95
498.67	15246.25
498.85	15321.15
499.03	15026.24
499.20	15115.18
499.38	15253.27
499.56	15506.05
499.73	15302.42
499.91	15543.50
500.08	15658.18
500.26	15545.84
500.44	15660.52
500.61	15777.55
500.79	15894.58
500.97	15913.30
501.14	16271.40
501.32	16070.12
501.49	16095.86
501.67	15997.56
501.84	15901.60
502.02	16407.16
502.20	16250.34
502.37	16128.63
502.55	16248.00
502.72	16603.76
502.90	16460.99
503.07	16301.83
503.25	16470.35
503.43	16767.60
503.60	16655.25
503.78	16666.95
503.95	16903.35
504.13	16837.81
504.30	16746.53
504.48	16755.90
504.65	16940.80
504.83	17128.04
505.01	17062.51
505.18	17200.60
505.36	17252.09
505.53	17118.68
505.71	17018.04
505.88	17411.25
506.06	17317.62
506.23	17413.59
506.41	17572.74
506.58	17315.28
506.76	17640.62
506.93	17638.28
507.11	17549.34
507.28	17980.00
507.46	17605.51
507.63	17933.18
507.81	18015.10
507.98	17734.24
508.16	17958.93
508.33	18090.00
508.50	18368.52
508.68	18136.81
508.85	18382.57
509.03	18558.11
509.20	18471.51
509.38	18354.48
509.55	18792.16
509.73	18560.45
509.90	18483.21
510.08	18490.23
510.25	18382.57
510.42	18799.18
510.60	18656.41
510.77	19082.39
510.95	18771.10
511.12	19124.52
511.30	18988.77
511.47	19215.80
511.64	19012.17
511.82	19360.91
511.99	19150.26
512.17	19353.89
512.34	19257.93
512.51	19325.80
512.69	19789.23
512.86	19290.70
513.04	19613.69
513.21	19772.85
513.38	19431.13
513.56	19594.96
513.73	19859.45
513.90	19735.40
514.08	19604.33
514.25	19992.86
514.43	19763.48
514.60	20130.95
514.77	19917.96
514.95	20013.92
515.12	20018.60
515.29	19939.02
515.47	20159.03
515.64	20149.67
515.81	20393.09
515.99	20755.87
516.16	20533.52
516.33	20500.75
516.51	20849.49
516.68	20659.91
516.85	20294.79
517.03	20641.18
517.20	20617.78
517.37	20720.76
517.54	21097.59
517.72	21228.66
517.89	21076.52
518.06	20542.88
518.24	20861.19
518.41	21020.35
518.58	20776.94
518.75	21120.99
518.93	21324.62
519.10	21525.91
519.27	21460.37
519.45	21603.14
519.62	21104.61
519.79	21537.61
519.96	21092.91
520.14	21446.33
520.31	21408.88
520.48	21532.93
520.65	21429.94
520.83	21926.14
521.00	21867.63
521.17	21823.16
521.34	21572.72
521.52	21589.10
521.69	21891.03
521.86	21834.86
522.03	22066.57
522.20	21994.01
522.38	22246.79
522.55	22274.88
522.72	22361.48
522.89	22195.30
523.07	22522.98
523.24	22244.45
523.41	22434.03
523.58	22382.54
523.75	22644.68
523.92	22405.95
524.10	22441.06
524.27	22527.66
524.44	22487.87
524.61	22855.33
524.78	22576.81
524.96	22679.79
525.13	22588.51
525.30	22944.27
525.47	22850.65
525.64	22998.10
525.81	22890.44
525.98	22707.88
526.16	23211.09
526.33	23276.63
526.50	23276.63
526.67	23147.90
526.84	23190.03
527.01	22979.38
527.18	23300.03
527.36	23197.05
527.53	23571.54
527.70	23447.49
527.87	23763.46
528.04	23625.37
528.21	23576.22
528.38	23393.65
528.55	23798.57
528.72	23197.05
528.89	23857.08
529.07	23857.08
529.24	23620.69
529.41	23761.12
529.58	23616.01
529.75	23735.37
529.92	23960.06
530.09	23669.84
530.26	23812.61
530.43	24294.76
530.60	23789.20
530.77	24159.01
530.94	24201.14
531.11	23679.20
531.28	24325.19
531.46	24201.14
531.63	24287.74
531.80	24264.33
531.97	24360.30
532.14	24545.20
532.31	24418.81
532.48	24800.32
532.65	24622.44
532.82	24603.71
532.99	24723.08
533.16	24507.75
533.33	24613.07
533.50	24751.17
533.67	24854.15
533.84	24374.34
534.01	24872.87
534.18	24872.87
534.35	24840.11
534.52	24837.76
534.69	24886.92
534.86	25167.78
535.03	24802.66
535.20	24823.72
535.37	24912.66
535.54	24940.75
535.71	25013.31
535.88	24957.13
536.05	25025.01
536.22	25048.41
536.38	25160.76
536.55	25186.50
536.72	25479.07
536.89	25205.23
537.06	25160.76
537.23	25596.10
537.40	25106.93
537.57	25062.46
537.74	25961.22
537.91	25781.00
538.08	25612.48
538.25	25429.92
538.42	25418.22
538.59	25703.76
538.75	25689.72
538.92	25781.00
539.09	25486.09
539.26	25769.30
539.43	25577.37
539.60	26017.40
539.77	26057.18
539.94	25916.75
540.11	25958.88
540.28	26022.08
540.44	25696.74
540.61	25743.55
540.78	25652.27
540.95	25862.92
541.12	26237.41
541.29	26075.91
541.46	26099.31
541.62	26008.03
541.79	26202.30
541.96	25869.94
542.13	25970.58
542.30	26373.16
542.47	26106.34
542.63	26778.07
542.80	26663.38
542.97	26665.72
543.14	26684.45
543.31	26487.84
543.48	26621.25
543.64	26518.27
543.81	26665.72
543.98	26649.34
544.15	26529.97
544.32	27309.37
544.48	27178.30
544.65	26717.22
544.82	26841.26
544.99	26829.56
545.16	26822.54
545.32	26948.93
545.49	27194.68
545.66	27285.97
545.83	26789.77
546.00	27154.90
546.16	27199.37
546.33	27063.61
546.50	26965.31
546.67	27051.91
546.83	26920.84
547.00	27091.70
547.17	27295.33
547.34	27433.42
547.50	27381.93
547.67	27707.26
547.84	27365.54
548.00	27255.54
548.17	27597.26
548.34	27424.06
548.51	27840.67
548.67	27428.74
548.84	27751.73
549.01	27484.91
549.18	27566.83
549.34	27477.89
549.51	27297.67
549.68	27405.33
549.84	27798.54
550.01	27761.09
550.18	27513.00
550.34	27922.59
550.51	28079.41
550.68	28081.75
550.84	27620.66
551.01	27913.23
551.18	27873.44
551.34	27585.55
551.51	27798.54
551.68	27946.00
551.84	27660.45
552.01	27854.72
552.18	28304.10
552.34	27852.38
552.51	27990.47
552.68	27807.90
552.84	27941.32
553.01	28531.13
553.18	28278.35
553.34	28423.47
553.51	28121.54
553.67	28594.32
553.84	28371.97
554.01	28631.77
554.17	28594.32
554.34	28332.18
554.51	28306.44
554.67	28580.28
554.84	28503.04
555.00	28350.91
555.17	28428.15
555.33	28463.25
555.50	28435.17
555.67	28444.53
555.83	28755.82
556.00	28804.97
556.16	29263.72
556.33	28472.62
556.50	28774.55
556.66	29163.08
556.83	28423.47
556.99	28416.44
557.16	29160.73
557.32	28936.04
557.49	28786.25
557.65	28622.41
557.82	28552.20
557.98	28875.19
558.15	29050.73
558.32	29404.15
558.48	28826.04
558.65	28992.22
558.81	29179.46
558.98	28863.49
559.14	29151.37
559.31	28772.21
559.47	28788.59
559.64	28896.25
559.80	29062.43
559.97	29184.14
560.13	29071.79
560.30	29242.65
560.46	29219.25
560.63	29177.12
560.79	29053.07
560.96	29240.31
561.12	29259.04
561.29	29532.88
561.45	29235.63
561.61	29268.40
561.78	29406.49
561.94	29060.09
562.11	29373.72
562.27	29350.32
562.44	29432.24
562.60	29048.39
562.77	29640.54
562.93	29294.14
563.10	29549.26
563.26	29113.92
563.42	29420.53
563.59	29404.15
563.75	29628.84
563.92	29518.84
564.08	29780.98
564.24	29544.58
564.41	29053.07
564.57	29160.73
564.74	29268.40
564.90	29862.90
565.07	29680.33
565.23	29322.23
565.39	29930.77
565.56	29862.90
565.72	29556.28
565.88	29504.79
566.05	29310.53
566.21	29422.87
566.38	29799.70
566.54	29811.40
566.70	29893.32
566.87	29762.25
567.03	29610.12
567.19	30237.38
567.36	30008.01
567.52	29804.38
567.68	29876.94
567.85	29752.89
568.01	29675.65
568.17	29937.79
568.34	29811.40
568.50	29900.34
568.66	30082.91
568.83	30132.06
568.99	30061.84
569.15	29865.24
569.32	29659.27
569.48	29741.19
569.64	29851.19
569.81	30314.62
569.97	29921.41
570.13	30071.20
570.30	29649.91
570.46	29975.24
570.62	30101.63
570.78	29832.47
570.95	29738.85
571.11	29687.36
571.27	29890.98
571.43	29544.58
571.60	29820.77
571.76	29827.79
571.92	29757.57
572.09	29954.18
572.25	30162.48
572.41	30029.07
572.57	29759.91
572.74	29989.28
572.90	30015.03
573.06	29923.75
573.22	30267.81
573.38	29991.62
573.55	30038.44
573.71	29949.50
573.87	30429.30
574.03	30408.24
574.20	29860.55
574.36	30029.07
574.52	30045.46
574.68	30005.67
574.84	30162.48
575.01	30188.23
575.17	30146.10
575.33	29944.81
575.49	30345.05
575.65	30405.90
575.82	30272.49
575.98	30314.62
576.14	30401.22
576.30	30120.35
576.46	30153.12
576.62	30155.46
576.79	30457.39
576.95	29839.49
577.11	30291.21
577.27	30071.20
577.43	30345.05
577.59	30052.48
577.75	30536.97
577.92	30094.61
578.08	30017.37
578.24	30000.99
578.40	30628.25
578.56	30529.95
578.72	30115.67
578.88	30738.26
579.04	30602.50
579.21	30518.25
579.37	30249.08
579.53	30621.23
579.69	30352.07
579.85	29958.86
580.01	30494.84
580.17	30143.76
580.33	29888.64
580.49	30237.38
580.65	30354.41
580.82	30593.14
580.98	30010.35
581.14	30347.39
581.30	30630.59
581.46	30462.07
581.62	30333.34
581.78	29986.94
581.94	30270.15
582.10	30174.19
582.26	30558.03
582.42	30471.43
582.58	30101.63
582.74	30483.14
582.90	30609.53
583.06	30773.36
583.22	30061.84
583.38	30302.92
583.54	30359.09
583.70	30235.04
583.86	30724.21
584.02	30199.93
584.18	30719.53
584.34	30382.49
584.50	30473.78
584.66	30366.11
584.82	30122.69
584.98	30260.79
585.14	30747.62
585.30	30412.92
585.46	30183.55
585.62	30625.91
585.78	30370.79
585.94	30125.04
586.10	30473.78
586.26	30359.09
586.42	30639.95
586.58	30693.79
586.74	30651.66
586.90	30415.26
587.06	30796.77
587.22	30438.67
587.38	30370.79
587.54	30810.81
587.70	30560.37
587.86	30569.74
588.02	30684.42
588.18	30485.48
588.34	30771.02
588.49	30312.28
588.65	30426.96
588.81	30384.83
588.97	30845.92
589.13	30728.89
589.29	30785.07
589.45	31000.40
589.61	30754.64
589.77	31222.75
589.93	30934.86
590.08	31211.04
590.24	30981.67
590.40	30899.75
590.56	31124.44
590.72	30707.83
590.88	30450.37
591.04	30689.10
591.20	31274.24
591.35	30923.16
591.51	31227.43
591.67	30981.67
591.83	31019.12
591.99	30927.84
592.15	31208.70
592.31	30815.49
592.46	30925.50
592.62	30862.30
592.78	30780.39
592.94	30476.12
593.10	31269.56
593.26	30855.28
593.41	30991.03
593.57	30981.67
593.73	30665.70
593.89	31079.97
594.05	30794.43
594.20	30560.37
594.36	30822.51
594.52	30831.88
594.68	30845.92
594.84	30677.40
594.99	30948.90
595.15	30747.62
595.31	31171.25
595.47	31208.70
595.62	31295.30
595.78	30780.39
595.94	30724.21
596.10	31124.44
596.25	30838.90
596.41	31026.14
596.57	30756.98
596.73	30885.71
596.88	30778.04
597.04	31173.60
597.20	31414.67
597.36	31115.08
597.51	31091.68
597.67	31365.52
597.83	31218.07
597.99	30895.07
598.14	30955.93
598.30	31220.41
598.46	30693.79
598.61	30951.24
598.77	31033.16
598.93	30962.95
599.09	31070.61
599.24	31716.60
599.40	31295.30
599.56	30920.82
599.71	31075.29
599.87	31281.26
600.03	31035.50
600.18	31005.08
600.34	30892.73
600.50	31072.95
600.65	30967.63
600.81	31351.48
600.97	31253.17
601.12	31016.78
601.28	30984.01
601.44	30848.26
601.59	31386.58
601.75	31152.53
601.91	31239.13
602.06	30740.60
602.22	31505.95
602.37	30951.24
602.53	31016.78
602.69	31241.47
602.84	31037.84
603.00	30979.33
603.16	31314.03
603.31	31253.17
603.47	31049.55
603.62	30911.46
603.78	31070.61
603.94	30639.95
604.09	31288.28
604.25	31473.18
604.40	31164.23
604.56	30810.81
604.71	31140.83
604.87	30962.95
605.03	31505.95
605.18	31307.01
605.34	31285.94
605.49	30597.82
605.65	31079.97
605.80	30595.48
605.96	30789.75
606.12	31096.36
606.27	31491.91
606.43	30780.39
606.58	31103.38
606.74	30841.24
606.89	31292.96
607.05	31098.70
607.20	31131.47
607.36	31000.40
607.51	30611.87
607.67	31028.48
607.82	30670.38
607.98	30782.73
608.13	31239.13
608.29	30742.94
608.44	30792.09
608.60	30820.17
608.75	30845.92
608.91	31178.28
609.06	30815.49
609.22	30965.29
609.37	30480.80
609.53	30651.66
609.68	30836.56
609.84	30597.82
609.99	30817.83
610.15	30466.75
610.30	30642.29
610.46	30707.83
610.61	30834.22
610.76	30878.69
610.92	31094.02
611.07	30733.57
611.23	30684.42
611.38	30579.10
611.54	30242.06
611.69	30490.16
611.84	30581.44
612.00	30665.70
612.15	30689.10
612.31	31171.25
612.46	30616.55
612.62	30733.57
612.77	30845.92
612.92	30974.65
613.08	30747.62
613.23	30654.00
613.39	30651.66
613.54	30431.65
613.69	30562.72
613.85	30820.17
614.00	30410.58
614.15	30356.75
614.31	30181.21
614.46	30614.21
614.62	30639.95
614.77	30607.19
614.92	30499.52
615.08	30780.39
615.23	30548.67
615.38	30724.21
615.54	30331.00
615.69	30225.68
615.84	29956.52
616.00	30445.69
616.15	30431.65
616.30	30433.99
616.46	30314.62
616.61	30572.08
616.76	30492.50
616.92	30354.41
617.07	30384.83
617.22	30384.83
617.37	30029.07
617.53	30183.55
617.68	30258.45
617.83	30059.50
617.99	30497.18
618.14	30125.04
618.29	29792.68
618.45	30132.06
618.60	29979.92
618.75	30197.59
618.90	30075.88
619.06	30108.65
619.21	29954.18
619.36	30272.49
619.51	29914.39
619.67	29986.94
619.82	29734.17
619.97	30008.01
620.12	29748.21
620.28	29699.06
620.43	30295.89
620.58	30300.58
620.73	30115.67
620.89	30005.67
621.04	30305.26
621.19	29762.25
621.34	29640.54
621.49	29874.60
621.65	29914.39
621.80	29902.68
621.95	29788.00
622.10	29467.34
622.25	29584.37
622.41	29474.37
622.56	29661.61
622.71	29893.32
622.86	29530.54
623.01	29809.06
623.16	29422.87
623.32	29493.09
623.47	29759.91
623.62	29736.51
623.77	29259.04
623.92	29600.76
624.07	29034.35
624.23	29715.44
624.38	29347.98
624.53	29890.98
624.68	29996.31
624.83	29710.76
624.98	29120.95
625.13	29638.20
625.29	29677.99
625.44	29439.26
625.59	29626.50
625.74	29050.73
625.89	29364.36
626.04	29296.49
626.19	28870.51
626.34	29614.80
626.49	28982.85
626.65	29006.26
626.80	29579.69
626.95	29504.79
627.10	29071.79
627.25	29181.80
627.40	28954.77
627.55	29329.25
627.70	28776.89
627.85	29029.66
628.00	28706.67
628.15	29163.08
628.30	28552.20
628.45	28807.31
628.60	29032.00
628.76	29228.61
628.91	28957.11
629.06	28989.88
629.21	28835.40
629.36	29118.60
629.51	29013.28
629.66	28802.63
629.81	29076.48
629.96	28634.11
630.11	29113.92
630.26	28343.89
630.41	28608.37
630.56	28800.29
630.71	28533.47
630.86	28552.20
631.01	28629.43
631.16	28903.28
631.31	28594.32
631.46	28699.65
631.61	28346.23
631.76	28847.10
631.91	28437.51
632.06	28816.68
632.21	28458.57
632.36	28573.26
632.51	28257.29
632.66	28329.84
632.81	28570.92
632.96	28723.05
633.10	28549.85
633.25	28472.62
633.40	28723.05
633.55	28622.41
633.70	28409.42
633.85	28201.11
634.00	28519.43
634.15	28465.60
634.30	28379.00
634.45	28212.82
634.60	28236.22
634.75	28180.05
634.90	28208.14
635.05	28580.28
635.19	28587.30
635.34	28290.06
635.49	28559.22
635.64	28226.86
635.79	28126.22
635.94	28147.28
636.09	28173.03
636.24	28238.56
636.39	28091.11
636.53	27948.34
636.68	27931.95
636.83	28350.91
636.98	27852.38
637.13	28086.43
637.28	28175.37
637.43	28098.13
637.57	28144.94
637.72	27953.02
637.87	28163.67
638.02	27765.78
638.17	28149.62
638.32	27573.85
638.46	27498.95
638.61	27630.02
638.76	27445.12
638.91	27793.86
639.06	27648.75
639.20	27658.11
639.35	27714.28
639.50	27854.72
639.65	28044.30
639.80	28013.87
639.94	27894.50
640.09	27814.93
640.24	27585.55
640.39	27529.38
640.54	27412.35
640.68	27466.19
640.83	27234.47
640.98	27346.82
641.13	26979.36
641.27	28091.11
641.42	27585.55
641.57	27487.25
641.72	28039.62
641.86	27541.08
642.01	26913.82
642.16	27049.57
642.31	27522.36
642.45	27618.32
642.60	27105.74
642.75	26948.93
642.90	27084.68
643.04	27314.05
643.19	27225.11
643.34	27442.78
643.48	27386.61
643.63	27606.62
643.78	27185.32
643.93	27353.84
644.07	27119.79
644.22	27307.03
644.37	27466.19
644.51	27056.59
644.66	27072.98
644.81	26923.18
644.95	26944.25
645.10	27077.66
645.25	27002.76
645.39	26644.66
645.54	26829.56
645.69	26773.39
645.83	27019.14
645.98	27037.87
646.13	27339.80
646.27	27075.32
646.42	26768.71
646.57	27253.20
646.71	26904.46
646.86	26862.33
647.00	27019.14
647.15	26852.97
647.30	26663.38
647.44	26354.43
647.59	26696.15
647.74	26485.50
647.88	26677.43
648.03	26862.33
648.17	26677.43
648.32	26621.25
648.47	26962.97
648.61	26705.51
648.76	26742.96
648.90	26902.12
649.05	27030.85
649.20	26274.85
649.34	26593.17
649.49	26501.89
649.63	26639.98
649.78	26389.54
649.92	26405.92
650.07	26405.92
650.21	26426.99
650.36	26518.27
650.51	26532.31
650.65	26218.68
650.80	26483.16
650.94	26490.18
651.09	26508.91
651.23	26469.12
651.38	26192.94
651.52	26099.31
651.67	26338.05
651.81	26316.98
651.96	26480.82
652.10	26331.03
652.25	26457.42
652.39	26349.75
652.54	26309.96
652.68	26111.02
652.83	26375.50
652.97	26574.44
653.12	26279.54
653.26	26019.74
653.41	25851.22
653.55	26169.53
653.70	25631.21
653.84	26134.42
653.99	26293.58
654.13	25830.15
654.27	25869.94
654.42	26019.74
654.56	25666.31
654.71	26455.08
654.85	26054.84
655.00	25876.96
655.14	26038.46
655.29	25930.80
655.43	26155.49
655.57	25678.02
655.72	25872.28
655.86	25502.48
656.01	25848.88
656.15	25940.16
656.30	25963.56
656.44	26040.80
656.58	25703.76
656.73	25556.31
656.87	25750.57
657.01	25687.38
657.16	26038.46
657.30	25888.67
657.45	25479.07
657.59	25717.81
657.73	25649.93
657.88	25792.70
658.02	25483.75
658.16	25348.00
658.31	25781.00
658.45	25663.97
658.60	24882.24
658.74	25333.96
658.88	25153.74
659.03	25441.62
659.17	25563.33
659.31	25373.75
659.46	25362.04
659.60	25577.37
659.74	25373.75
659.89	24861.17
660.03	25163.10
660.17	25245.02
660.32	25240.34
660.46	25048.41
660.60	24730.10
660.74	24783.93
660.89	24734.78
661.03	24758.19
661.17	24699.67
661.32	25165.44
661.46	24694.99
661.60	24851.81
661.74	24732.44
661.89	25039.05
662.03	24823.72
662.17	24542.86
662.31	24301.78
662.46	24844.79
662.60	24320.51
662.74	24477.32
662.88	24503.07
663.03	24308.80
663.17	24144.97
663.31	24130.92
663.45	24156.67
663.60	24442.21
663.74	24252.63
663.88	24402.43
664.02	24732.44
664.17	24645.84
664.31	24126.24
664.45	23854.74
664.59	24367.32
664.73	24467.96
664.88	24409.45
665.02	23733.03
665.16	23985.81
665.30	24264.33
665.44	23910.91
665.59	23810.27
665.73	23786.86
665.87	23683.88
666.01	23880.49
666.15	23889.85
666.29	23887.51
666.44	23594.94
666.58	23578.56
666.72	23559.83
666.86	23882.83
667.00	23838.36
667.14	23576.22
667.28	23580.90
667.43	23555.15
667.57	23887.51
667.71	23285.99
667.85	23459.19
667.99	23487.28
668.13	23297.69
668.27	23150.24
668.41	23456.85
668.56	22860.01
668.70	23421.74
668.84	23487.28
668.98	23145.56
669.12	23222.80
669.26	23110.45
669.40	22841.29
669.54	23285.99
669.68	22944.27
669.82	22838.95
669.96	23016.83
670.10	22698.52
670.25	22651.70
670.39	22558.08
670.53	22654.05
670.67	22810.86
670.81	22366.16
670.95	22630.64
671.09	22642.34
671.23	22764.05
671.37	22602.55
671.51	22558.08
671.65	22586.17
671.79	22539.36
671.93	22604.89
672.07	22340.41
672.21	22391.91
672.35	22574.47
672.49	22080.61
672.63	22560.42
672.77	22150.83
672.91	22169.55
673.05	22178.92
673.19	22370.84
673.33	22246.79
673.47	22171.89
673.61	21853.58
673.75	22097.00
673.89	21699.11
674.03	21792.73
674.17	21720.17
674.31	21465.05
674.45	21549.31
674.59	21816.13
674.73	21483.78
674.87	21226.32
675.01	21223.98
675.15	21380.79
675.29	21472.07
675.43	21261.43
675.56	21425.26
675.70	21429.94
675.84	21720.17
675.98	20723.10
676.12	21298.88
676.26	21387.82
676.40	21352.71
676.54	21025.03
676.68	21284.83
676.82	20556.93
676.96	20926.73
677.10	20545.22
677.23	20650.55
677.37	20456.28
677.51	20283.08
677.65	20269.04
677.79	20191.80
677.93	20512.46
678.07	20718.42
678.21	20580.33
678.34	20259.68
678.48	20107.54
678.62	20264.36
678.76	20152.01
678.90	20196.48
679.04	19999.88
679.18	19777.53
679.31	19644.12
679.45	19545.81
679.59	19442.83
679.73	19538.79
679.87	19644.12
680.00	19527.09
680.14	19440.49
680.28	19267.29
680.42	19480.28
680.56	19517.73
680.70	19398.36
680.83	19594.96
680.97	19105.79
681.11	19351.55
681.25	19211.12
681.39	18981.74
681.52	19316.44
681.66	18654.07
681.80	18878.76
681.94	18824.93
682.07	18808.54
682.21	18731.31
682.35	18590.88
682.49	18537.04
682.62	18415.34
682.76	18403.63
682.90	18340.44
683.04	18501.93
683.17	18228.09
683.31	18572.15
683.45	18530.02
683.59	18176.60
683.72	18113.41
683.86	18068.94
684.00	18157.88
684.13	18160.22
684.27	17980.00
684.41	17694.45
684.55	17565.72
684.68	17729.56
684.82	17366.78
684.96	17547.00
685.09	17539.97
685.23	17371.46
685.37	17380.82
685.50	17561.04
685.64	17532.95
685.78	17226.34
685.91	17359.75
686.05	17092.93
686.19	17312.94
686.32	17315.28
686.46	17001.65
686.60	16737.17
686.73	16774.62
686.87	17039.10
687.01	16739.51
687.14	16716.11
687.28	16336.94
687.42	16613.12
687.55	16369.71
687.69	16311.19
687.82	16142.67
687.96	16669.30
688.10	16369.71
688.23	16322.90
688.37	16390.77
688.50	16294.81
688.64	16196.51
688.78	16280.77
688.91	16020.97
689.05	15943.73
689.18	16236.30
689.32	15573.92
689.46	15763.51
689.59	15852.45
689.73	15660.52
689.86	15651.16
690.00	15662.86
690.13	15658.18
690.27	15583.29
690.41	15590.31
690.54	15508.39
690.68	15213.48
690.81	15452.22
690.95	15510.73
691.08	15302.42
691.22	15571.58
691.35	15166.67
691.49	15250.93
691.62	15059.01
691.76	14998.15
691.89	14839.00
692.03	14707.93
692.16	14841.34
692.30	14626.01
692.43	14686.86
692.57	14401.32
692.70	14724.31
692.84	14265.57
692.97	14537.07
693.11	14633.03
693.24	14253.86
693.38	14143.86
693.51	14200.03
693.65	13991.72
693.78	14249.18
693.92	14012.79
694.05	14188.33
694.19	13987.04
694.32	14092.37
694.45	13699.16
694.59	13743.63
694.72	13846.61
694.86	13767.03
694.99	13291.90
695.13	13411.27
695.26	13518.93
695.39	13366.80
695.53	13394.89
695.66	13441.70
695.80	13479.15
695.93	13448.72
696.07	13289.56
696.20	13439.36
696.33	13151.47
696.47	13046.15
696.60	13219.35
696.73	12760.60
696.87	12950.18
697.00	12891.67
697.14	12786.35
697.27	12666.98
697.40	12601.44
697.54	12545.27
697.67	12603.78
697.80	12674.00
697.94	12468.03
698.07	12407.18
698.21	12320.58
698.34	12428.24
698.47	12578.04
698.61	12093.55
698.74	12517.18
698.87	12259.73
699.01	12243.34
699.14	12184.83
699.27	12138.02
699.40	12133.34
699.54	12067.80
699.67	11782.26
699.80	11770.55
699.94	11768.21
700.07	11875.88
700.20	11550.54
700.34	11529.48
700.47	11585.65
700.60	11459.26
700.73	11559.91
700.87	11435.86
701.00	11082.44
701.13	11232.23
701.26	11440.54
701.40	11314.15
701.53	11365.64
701.66	11267.34
701.79	11070.73
701.93	11302.45
702.06	10899.87
702.19	10888.17
702.32	10946.69
702.46	10883.49
702.59	10773.49
702.72	10686.89
702.85	10684.55
702.99	10583.90
703.12	10651.78
703.25	10555.82
703.38	10455.17
703.51	10513.69
703.65	10434.11
703.78	10331.12
703.91	10237.50
704.04	10450.49
704.17	10600.29
704.31	10321.76
704.44	10281.97
704.57	10047.92
704.70	10008.13
704.83	10008.13
704.96	10125.16
705.10	9935.57
705.23	9769.40
>>>>>End Processed Spectral Data<<<<<
