SpectraSuite Data File
++++++++++++++++++++++++++++++++++++
Date: Fri Oct 18 13:58:28 GMT-05:00 2013
User: bianchi
Dark Spectrum Present: No
Reference Spectrum Present: No
Number of Sampled Component Spectra: 1
Spectrometers: USB2+H05261
Integration Time (usec): 50000 (USB2+H05261)
Spectra Averaged: 1 (USB2+H05261)
Boxcar Smoothing: 0 (USB2+H05261)
Correct for Electrical Dark: No (USB2+H05261)
Strobe/Lamp Enabled: No (USB2+H05261)
Correct for Detector Non-linearity: No (USB2+H05261)
Correct for Stray Light: No (USB2+H05261)
Number of Pixels in Processed Spectrum: 2048
>>>>>Begin Processed Spectral Data<<<<<
365.73	0.00
365.92	0.00
366.12	0.00
366.32	0.00
366.52	0.00
366.72	0.00
366.91	0.00
367.11	0.00
367.31	0.00
367.51	0.00
367.70	0.00
367.90	0.00
368.10	0.00
368.30	0.00
368.49	0.00
368.69	0.00
368.89	0.00
369.09	0.00
369.28	0.00
369.48	0.00
369.68	0.00
369.87	0.00
370.07	0.00
370.27	0.00
370.47	0.00
370.66	77.24
370.86	112.35
371.06	110.01
371.25	133.41
371.45	154.48
371.65	149.79
371.84	145.11
372.04	159.16
372.24	161.50
372.44	163.84
372.63	215.33
372.83	194.26
373.03	166.18
373.22	180.22
373.42	187.24
373.62	229.37
373.81	194.26
374.01	203.63
374.21	238.73
374.40	119.37
374.60	227.03
374.79	252.78
374.99	311.29
375.19	170.86
375.38	299.59
375.58	283.20
375.78	266.82
375.97	278.52
376.17	301.93
376.37	318.31
376.56	203.63
376.76	266.82
376.95	203.63
377.15	194.26
377.35	229.37
377.54	273.84
377.74	276.18
377.93	278.52
378.13	222.35
378.33	255.12
378.52	222.35
378.72	306.61
378.91	238.73
379.11	269.16
379.31	318.31
379.50	273.84
379.70	264.48
379.89	266.82
380.09	292.57
380.28	327.68
380.48	325.33
380.68	318.31
380.87	313.63
381.07	290.23
381.26	325.33
381.46	290.23
381.65	341.72
381.85	400.23
382.04	369.80
382.24	346.40
382.43	395.55
382.63	388.53
382.83	341.72
383.02	379.17
383.22	327.68
383.41	374.49
383.61	407.25
383.80	381.51
384.00	304.27
384.19	430.66
384.39	360.44
384.58	322.99
384.78	437.68
384.97	388.53
385.17	337.04
385.36	351.08
385.56	355.76
385.75	362.78
385.95	278.52
386.14	409.59
386.34	425.98
386.53	402.57
386.72	372.15
386.92	362.78
387.11	407.25
387.31	414.27
387.50	486.83
387.70	451.72
387.89	440.02
388.09	374.49
388.28	447.04
388.48	416.62
388.67	461.09
388.86	477.47
389.06	486.83
389.25	421.30
389.45	388.53
389.64	524.28
389.84	521.94
390.03	526.62
390.22	463.43
390.42	468.11
390.61	463.43
390.81	468.11
391.00	484.49
391.19	533.64
391.39	505.56
391.58	458.74
391.78	552.37
391.97	484.49
392.16	493.85
392.36	475.13
392.55	552.37
392.75	624.92
392.94	517.26
393.13	524.28
393.33	521.94
393.52	521.94
393.71	617.90
393.91	550.03
394.10	594.50
394.29	510.24
394.49	564.07
394.68	571.09
394.88	559.39
395.07	585.13
395.26	617.90
395.46	648.33
395.65	573.43
395.84	587.47
396.04	664.71
396.23	610.88
396.42	685.78
396.62	596.84
396.81	755.99
397.00	660.03
397.19	702.16
397.39	669.39
397.58	699.82
397.77	699.82
397.97	596.84
398.16	624.92
398.35	608.54
398.55	662.37
398.74	669.39
398.93	739.61
399.12	746.63
399.32	678.76
399.51	664.71
399.70	699.82
399.90	798.12
400.09	751.31
400.28	873.02
400.47	704.50
400.67	713.86
400.86	767.70
401.05	772.38
401.24	723.23
401.44	784.08
401.63	784.08
401.82	812.17
402.01	791.10
402.21	842.59
402.40	812.17
402.59	837.91
402.78	828.55
402.97	901.11
403.17	894.08
403.36	861.32
403.55	922.17
403.74	877.70
403.93	880.04
404.13	922.17
404.32	884.72
404.51	954.94
404.70	973.66
404.89	1006.43
405.09	943.24
405.28	844.93
405.47	994.73
405.66	940.90
405.85	954.94
406.05	952.60
406.24	1022.81
406.43	992.39
406.62	931.53
406.81	1088.35
407.00	917.49
407.20	1013.45
407.39	1067.28
407.58	1039.20
407.77	1097.71
407.96	1081.33
408.15	1078.99
408.34	1020.47
408.54	1116.44
408.73	1078.99
408.92	1078.99
409.11	1146.86
409.30	1100.05
409.49	1032.18
409.68	1153.88
409.87	1090.69
410.07	1095.37
410.26	1207.72
410.45	1242.82
410.64	1207.72
410.83	1273.25
411.02	1123.46
411.21	1231.12
411.40	1186.65
411.59	1210.06
411.78	1252.19
411.98	1266.23
412.17	1254.53
412.36	1165.59
412.55	1355.17
412.74	1364.53
412.93	1306.02
413.12	1245.16
413.31	1376.24
413.50	1432.41
413.69	1387.94
413.88	1460.49
414.07	1378.58
414.26	1348.15
414.45	1490.92
414.64	1378.58
414.83	1467.52
415.02	1540.07
415.22	1537.73
415.41	1462.83
415.60	1603.27
415.79	1584.54
415.98	1589.22
416.17	1743.70
416.36	1598.59
416.55	1605.61
416.74	1600.93
416.93	1596.25
417.12	1607.95
417.31	1720.29
417.50	1647.74
417.69	1802.21
417.88	1659.44
418.07	1741.36
418.26	1746.04
418.45	1694.55
418.64	1827.96
418.83	1746.04
419.02	1842.00
419.21	1799.87
419.39	1741.36
419.58	1715.61
419.77	1837.32
419.96	1823.28
420.15	1914.56
420.34	1900.52
420.53	1802.21
420.72	1940.30
420.91	2043.29
421.10	2003.50
421.29	1977.75
421.48	1907.54
421.67	1900.52
421.86	1881.79
422.05	1975.41
422.24	1923.92
422.43	2029.24
422.61	2005.84
422.80	2047.97
422.99	1947.33
423.18	1926.26
423.37	1987.11
423.56	1947.33
423.75	1982.43
423.94	2022.22
424.13	1884.13
424.32	1863.07
424.50	2026.90
424.69	2083.08
424.88	2092.44
425.07	2073.71
425.26	2033.93
425.45	2005.84
425.64	1963.71
425.83	2043.29
426.01	2132.23
426.20	2127.55
426.39	2087.76
426.58	2050.31
426.77	1996.48
426.96	2127.55
427.15	2148.61
427.33	2064.35
427.52	2125.21
427.71	2066.69
427.90	2026.90
428.09	2207.13
428.28	2186.06
428.46	2249.25
428.65	2153.29
428.84	2249.25
429.03	2181.38
429.22	2111.16
429.40	2237.55
429.59	2340.54
429.78	2214.15
429.97	2139.25
430.16	2162.66
430.34	2197.76
430.53	2335.85
430.72	2359.26
430.91	2324.15
431.10	2239.89
431.28	2457.56
431.47	2352.24
431.66	2413.09
431.85	2392.03
432.03	2509.05
432.22	2445.86
432.41	2370.96
432.60	2380.32
432.79	2406.07
432.97	2590.97
433.16	2502.03
433.35	2464.58
433.54	2422.45
433.72	2523.10
433.91	2605.02
434.10	2593.31
434.28	2455.22
434.47	2534.80
434.66	2551.18
434.85	2553.52
435.03	2607.36
435.22	2525.44
435.41	2555.86
435.59	2565.23
435.78	2607.36
435.97	2583.95
436.16	2551.18
436.34	2511.39
436.53	2693.96
436.72	2712.68
436.90	2630.76
437.09	2682.25
437.28	2649.49
437.46	2768.85
437.65	2841.41
437.84	2820.35
438.02	2630.76
438.21	2782.90
438.40	2782.90
438.58	2855.45
438.77	2878.86
438.96	2818.00
439.14	3005.25
439.33	2916.31
439.52	2937.37
439.70	3014.61
439.89	2881.20
440.08	2981.84
440.26	3035.67
440.45	3145.68
440.63	3213.56
440.82	3040.36
441.01	3047.38
441.19	3246.32
441.38	3150.36
441.57	3262.71
441.75	3234.62
441.94	3283.77
442.12	3243.98
442.31	3246.32
442.50	3269.73
442.68	3190.15
442.87	3208.87
443.05	3339.94
443.24	3407.82
443.43	3417.18
443.61	3375.05
443.80	3559.95
443.98	3412.50
444.17	3349.31
444.35	3421.86
444.54	3393.78
444.73	3377.39
444.91	3398.46
445.10	3339.94
445.28	3386.76
445.47	3337.60
445.65	3447.61
445.84	3391.44
446.02	3459.31
446.21	3433.57
446.39	3499.10
446.58	3494.42
446.77	3517.83
446.95	3403.14
447.14	3435.91
447.32	3503.78
447.51	3368.03
447.69	3382.07
447.88	3400.80
448.06	3307.18
448.25	3524.85
448.43	3611.45
448.62	3466.33
448.80	3602.08
448.99	3499.10
449.17	3494.42
449.36	3660.60
449.54	3695.71
449.73	3740.18
449.91	3747.20
450.10	3606.77
450.28	3648.90
450.46	3681.66
450.65	3735.50
450.83	3644.21
451.02	3688.68
451.20	3604.42
451.39	3831.46
451.57	3810.39
451.76	3588.04
451.94	3726.13
452.13	3889.97
452.31	3770.60
452.49	3765.92
452.68	3765.92
452.86	3688.68
453.05	3936.78
453.23	3822.09
453.42	3829.12
453.60	3812.73
453.78	3798.69
453.97	3833.80
454.15	3911.04
454.34	3887.63
454.52	4028.06
454.70	4234.03
454.89	3911.04
455.07	3864.22
455.26	4046.79
455.44	4053.81
455.62	4030.40
455.81	3995.29
455.99	4147.43
456.17	4135.73
456.36	4224.67
456.54	4180.20
456.73	4227.01
456.91	4301.90
457.09	4337.01
457.28	4428.29
457.46	4360.42
457.64	4271.48
457.83	4337.01
458.01	4215.30
458.19	4257.43
458.38	4299.56
458.56	4582.77
458.74	4461.06
458.93	4381.48
459.11	4362.76
459.29	4484.47
459.48	4484.47
459.66	4512.55
459.84	4479.79
460.03	4477.44
460.21	4449.36
460.39	4493.83
460.57	4507.87
460.76	4748.95
460.94	4655.33
461.12	4587.45
461.31	4650.64
461.49	4622.56
461.67	4535.96
461.85	4603.83
462.04	4709.16
462.22	4652.98
462.40	4662.35
462.59	4847.25
462.77	4688.09
462.95	4809.80
463.13	4645.96
463.32	4777.03
463.50	4840.23
463.68	4814.48
463.86	4767.67
464.05	4779.37
464.23	4819.16
464.41	4863.63
464.59	4798.10
464.78	4898.74
464.96	4798.10
465.14	4894.06
465.32	4798.10
465.50	4992.36
465.69	5128.11
465.87	4999.38
466.05	5088.32
466.23	4990.02
466.41	5095.35
466.60	5205.35
466.78	4994.70
466.96	5055.56
467.14	5008.75
467.32	4997.04
467.51	5118.75
467.69	5083.64
467.87	5102.37
468.05	5149.18
468.23	5025.13
468.41	5008.75
468.60	5181.95
468.78	5186.63
468.96	5027.47
469.14	5085.98
469.32	5284.93
469.50	5200.67
469.69	5317.70
469.87	5418.34
470.05	5451.11
470.23	5413.66
470.41	5497.92
470.59	5418.34
470.77	5226.42
470.95	5408.98
471.14	5607.92
471.32	5444.09
471.50	5715.59
471.68	5542.39
471.86	5366.85
472.04	5568.13
472.22	5776.44
472.40	5729.63
472.58	5694.52
472.77	5834.96
472.95	5668.78
473.13	5949.64
473.31	5790.49
473.49	5970.71
473.67	5959.00
473.85	5849.00
474.03	6071.35
474.21	6115.82
474.39	5973.05
474.57	6176.67
474.75	6164.97
474.93	5977.73
475.12	6183.70
475.30	6132.20
475.48	6242.21
475.66	6143.91
475.84	6085.39
476.02	6118.16
476.20	6319.45
476.38	6457.54
476.56	6518.39
476.74	6459.88
476.92	6380.30
477.10	6532.44
477.28	6647.12
477.46	6679.89
477.64	6661.16
477.82	6766.49
478.00	6897.56
478.18	6743.08
478.36	6792.23
478.54	7056.72
478.72	6998.20
478.90	7091.82
479.08	7220.55
479.26	7070.76
479.44	7243.96
479.62	7370.35
479.80	7272.04
479.98	7342.26
480.16	7478.01
480.34	7536.52
480.52	7606.74
480.70	7545.89
480.88	7370.35
481.06	7740.15
481.24	7555.25
481.41	7808.03
481.59	7775.26
481.77	8051.44
481.95	7850.16
482.13	7957.82
482.31	8131.02
482.49	8262.09
482.67	8287.84
482.85	8318.26
483.03	8322.94
483.21	8390.82
483.39	8276.13
483.57	8353.37
483.74	8535.93
483.92	8620.19
484.10	8657.64
484.28	8697.43
484.46	8769.99
484.64	9069.58
484.82	8791.05
485.00	8990.00
485.18	9261.50
485.35	9385.55
485.53	9202.99
485.71	9205.33
485.89	9577.47
486.07	9469.81
486.25	9614.92
486.43	9668.75
486.61	9638.33
486.78	9858.34
486.96	9797.48
487.14	9921.53
487.32	10008.13
487.50	10015.15
487.68	10066.64
487.85	10239.84
488.03	10310.06
488.21	10520.71
488.39	10586.24
488.57	10712.63
488.75	10801.57
488.92	10967.75
489.10	10607.31
489.28	10862.43
489.46	10965.41
489.64	10754.76
489.81	11330.53
489.99	11012.22
490.17	11178.40
490.35	11438.20
490.53	11400.75
490.70	11440.54
490.88	11304.79
491.06	11714.38
491.24	11744.81
491.41	11754.17
491.59	11817.36
491.77	12105.25
491.95	11948.43
492.13	12037.38
492.30	12063.12
492.48	12367.39
492.66	12109.93
492.84	12264.41
493.01	12432.93
493.19	12393.14
493.37	12655.28
493.54	12720.81
493.72	12732.51
493.90	12739.54
494.08	12753.58
494.25	13111.68
494.43	13109.34
494.61	13198.28
494.79	13462.76
494.96	13167.85
495.14	13298.92
495.32	13413.61
495.49	13563.40
495.67	13369.14
495.85	13760.01
496.02	13729.58
496.20	13893.42
496.38	13767.03
496.55	13741.29
496.73	14099.39
496.91	13834.91
497.09	14183.65
497.26	14214.07
497.44	14455.15
497.62	14408.34
497.79	14455.15
497.97	14303.01
498.14	14768.78
498.32	14813.25
498.50	14717.29
498.67	14768.78
498.85	15028.58
499.03	14892.83
499.20	14951.34
499.38	14895.17
499.56	15009.86
499.73	15248.59
499.91	14986.45
500.08	15105.82
500.26	14885.81
500.44	15360.94
500.61	15384.34
500.79	15328.17
500.97	15510.73
501.14	15704.99
501.32	15597.33
501.49	15641.80
501.67	16032.67
501.84	16051.39
502.02	15775.21
502.20	16343.96
502.37	15838.41
502.55	15955.43
502.72	15941.39
502.90	16240.98
503.07	15683.93
503.25	15906.28
503.43	16187.14
503.60	16189.49
503.78	16262.04
503.95	16453.97
504.13	16353.32
504.30	16379.07
504.48	16196.51
504.65	16634.19
504.83	16835.47
505.01	16886.97
505.18	16919.73
505.36	17090.59
505.53	16741.85
505.71	16968.88
505.88	16964.20
506.06	16973.56
506.23	17216.98
506.41	17191.23
506.58	17394.86
506.76	17181.87
506.93	17317.62
507.11	17116.34
507.28	17472.10
507.46	17446.35
507.63	17507.21
507.81	17970.63
507.98	17352.73
508.16	17263.79
508.33	17696.79
508.50	17755.30
508.68	17666.36
508.85	18057.23
509.03	18094.68
509.20	18017.44
509.38	18307.67
509.55	18574.49
509.73	18157.88
509.90	18054.89
510.08	18235.11
510.25	18314.69
510.42	18218.73
510.60	18558.11
510.77	18623.64
510.95	18539.38
511.12	18548.75
511.30	18560.45
511.47	18731.31
511.64	18628.32
511.82	18881.10
511.99	18682.16
512.17	18787.48
512.34	18698.54
512.51	18977.06
512.69	19077.71
512.86	19061.32
513.04	19246.23
513.21	19199.41
513.38	19454.53
513.56	19391.34
513.73	19199.41
513.90	19199.41
514.08	19461.55
514.25	19325.80
514.43	19669.86
514.60	19655.82
514.77	19807.95
514.95	19929.66
515.12	19506.02
515.29	19744.76
515.47	19503.68
515.64	19814.98
515.81	19861.79
515.99	20376.70
516.16	20306.49
516.33	20297.13
516.51	19845.40
516.68	20264.36
516.85	19962.43
517.03	20374.36
517.20	20166.06
517.37	20177.76
517.54	20725.44
517.72	20414.15
517.89	20409.47
518.06	20535.86
518.24	20425.86
518.41	20411.81
518.58	20688.00
518.75	20692.68
518.93	20877.58
519.10	20758.21
519.27	20737.15
519.45	20837.79
519.62	20610.76
519.79	20877.58
519.96	21130.36
520.14	21151.42
520.31	21022.69
520.48	21275.47
520.65	21006.31
520.83	21404.20
521.00	21317.60
521.17	21277.81
521.34	21329.30
521.52	21525.91
521.69	21458.03
521.86	21624.21
522.03	21685.06
522.20	21575.06
522.38	21558.67
522.55	21380.79
522.72	21834.86
522.89	21963.59
523.07	21874.65
523.24	22010.40
523.41	22061.89
523.58	22040.82
523.75	22008.06
523.92	21802.09
524.10	21717.83
524.27	22120.40
524.44	22328.71
524.61	22452.76
524.78	22843.63
524.96	22356.80
525.13	22228.07
525.30	22492.55
525.47	22246.79
525.64	22288.92
525.81	22913.84
525.98	22438.72
526.16	22366.16
526.33	22391.91
526.50	22787.46
526.67	22274.88
526.84	22558.08
527.01	22724.26
527.18	22455.10
527.36	23171.30
527.53	22918.53
527.70	23058.96
527.87	23220.45
528.04	22970.02
528.21	23019.17
528.38	22792.14
528.55	23433.44
528.72	23168.96
528.89	23468.55
529.07	22972.36
529.24	22707.88
529.41	23159.60
529.58	23080.02
529.75	23239.18
529.92	23016.83
530.09	23585.58
530.26	23405.36
530.43	23686.22
530.60	23285.99
530.77	23506.00
530.94	23281.31
531.11	23611.32
531.28	23388.97
531.46	23861.76
531.63	23531.75
531.80	23655.79
531.97	23644.09
532.14	24086.45
532.31	23990.49
532.48	23782.18
532.65	23971.77
532.82	24184.76
532.99	23770.48
533.16	24002.19
533.33	23929.64
533.50	24456.26
533.67	24210.50
533.84	23864.10
534.01	24226.89
534.18	23943.68
534.35	24273.70
534.52	24329.87
534.69	24339.23
534.86	24549.88
535.03	24386.04
535.20	24212.84
535.37	24299.44
535.54	24594.35
535.71	24542.86
535.88	24521.79
536.05	24437.53
536.22	24664.57
536.38	24671.59
536.55	24561.58
536.72	25109.27
536.89	24936.07
537.06	24971.18
537.23	24893.94
537.40	24779.25
537.57	24847.13
537.74	24814.36
537.91	25142.03
538.08	25252.04
538.25	24950.11
538.42	25032.03
538.59	24989.90
538.75	24809.68
538.92	25235.66
539.09	25015.65
539.26	24987.56
539.43	24961.81
539.60	25263.74
539.77	25378.43
539.94	25151.40
540.11	25443.96
540.28	25628.87
540.44	25563.33
540.61	25205.23
540.78	25392.47
540.95	25193.53
541.12	25270.76
541.29	25703.76
541.46	25668.66
541.62	25635.89
541.79	25415.88
541.96	25380.77
542.13	25572.69
542.30	25745.89
542.47	25912.07
542.63	25687.38
542.80	25640.57
542.97	26176.55
543.14	25982.29
543.31	25933.14
543.48	26064.21
543.64	26277.19
543.81	26204.64
543.98	26064.21
544.15	26506.57
544.32	26101.65
544.48	26806.16
544.65	26331.03
544.82	26263.15
544.99	26096.97
545.16	26103.99
545.32	26333.37
545.49	26478.48
545.66	26632.96
545.83	26621.25
546.00	26876.37
546.16	26778.07
546.33	26169.53
546.50	26370.82
546.67	26450.39
546.83	26237.41
547.00	26778.07
547.17	26525.29
547.34	26457.42
547.50	27117.45
547.67	26747.64
547.84	26787.43
548.00	26876.37
548.17	26939.57
548.34	26824.88
548.51	27044.89
548.67	27180.64
548.84	26965.31
549.01	27143.19
549.18	27009.78
549.34	26895.10
549.51	27199.37
549.68	27234.47
549.84	26874.03
550.01	26906.80
550.18	26677.43
550.34	27410.01
550.51	27075.32
550.68	27381.93
550.84	27215.75
551.01	27414.69
551.18	27339.80
551.34	27178.30
551.51	27379.59
551.68	27152.55
551.84	27679.18
552.01	27529.38
552.18	27758.75
552.34	27356.18
552.51	27637.05
552.68	27475.55
552.84	27646.41
553.01	27290.65
553.18	27381.93
553.34	27754.07
553.51	27314.05
553.67	27660.45
553.84	28226.86
554.01	27718.96
554.17	27850.03
554.34	27604.28
554.51	27709.60
554.67	27735.35
554.84	27779.82
555.00	27697.90
555.17	27847.69
555.33	27531.72
555.50	27646.41
555.67	27754.07
555.83	27644.07
556.00	27718.96
556.16	28430.49
556.33	28215.16
556.50	27756.41
556.66	28156.64
556.83	28294.74
556.99	28449.21
557.16	28496.02
557.32	28056.00
557.49	28304.10
557.65	27758.75
557.82	28313.46
557.98	28009.19
558.15	28184.73
558.32	28072.39
558.48	28304.10
558.65	28219.84
558.81	28236.22
558.98	28299.42
559.14	28414.10
559.31	28299.42
559.47	28126.22
559.64	28163.67
559.80	28411.76
559.97	28334.53
560.13	28587.30
560.30	28423.47
560.46	28498.36
560.63	28645.82
560.79	28264.31
560.96	28489.00
561.12	28629.43
561.29	28161.33
561.45	28318.14
561.61	28411.76
561.78	28622.41
561.94	28477.30
562.11	28599.01
562.27	28432.83
562.44	28746.46
562.60	28725.39
562.77	28620.07
562.93	28804.97
563.10	28671.56
563.26	28512.41
563.42	28659.86
563.59	28886.89
563.75	28463.25
563.92	28797.95
564.08	28631.77
564.24	28727.74
564.41	28493.68
564.57	28779.23
564.74	29099.88
564.90	29092.86
565.07	29067.11
565.23	28847.10
565.39	28767.52
565.56	29060.09
565.72	29090.52
565.88	28664.54
566.05	28664.54
566.21	28699.65
566.38	29048.39
566.54	29017.96
566.70	28964.13
566.87	28922.00
567.03	29167.76
567.19	29362.02
567.36	29048.39
567.52	28856.46
567.68	29357.34
567.85	29029.66
568.01	29137.33
568.17	28830.72
568.34	29008.60
568.50	28727.74
568.66	29319.89
568.83	28971.15
568.99	29090.52
569.15	28877.53
569.32	28882.21
569.48	29043.71
569.64	29275.42
569.81	29277.76
569.97	29123.29
570.13	28891.57
570.30	29060.09
570.46	29235.63
570.62	29324.57
570.78	29144.35
570.95	29020.30
571.11	29448.62
571.27	28842.42
571.43	29273.08
571.60	29160.73
571.76	29069.45
571.92	29378.40
572.09	29493.09
572.25	29237.97
572.41	29528.20
572.57	29598.41
572.74	29355.00
572.90	28835.40
573.06	29106.90
573.22	29355.00
573.38	29158.39
573.55	29139.67
573.71	29600.76
573.87	29553.94
574.03	29333.93
574.20	29394.79
574.36	29156.05
574.52	29308.19
574.68	29090.52
574.84	29336.27
575.01	29535.22
575.17	29472.03
575.33	29832.47
575.49	29198.18
575.65	29495.43
575.82	29893.32
575.98	29450.96
576.14	29462.66
576.30	29373.72
576.46	29516.50
576.62	29553.94
576.79	29418.19
576.95	28968.81
577.11	29184.14
577.27	29701.40
577.43	29443.94
577.59	29408.83
577.75	29345.64
577.92	29078.82
578.08	29053.07
578.24	29301.17
578.40	29912.05
578.56	29439.26
578.72	29729.48
578.88	29640.54
579.04	29764.59
579.21	29689.70
579.37	29635.86
579.53	29645.23
579.69	29369.04
579.85	29249.67
580.01	29586.71
580.17	29453.30
580.33	29584.37
580.49	29715.44
580.65	29516.50
580.82	29703.74
580.98	29654.59
581.14	29165.42
581.30	29923.75
581.46	29605.44
581.62	29308.19
581.78	29261.38
581.94	29310.53
582.10	28992.22
582.26	29724.80
582.42	29525.86
582.58	29766.93
582.74	29752.89
582.90	29642.88
583.06	29694.38
583.22	29488.41
583.38	29343.30
583.54	29532.88
583.70	29252.02
583.86	29633.52
584.02	29523.52
584.18	29558.63
584.34	29670.97
584.50	29984.60
584.66	29347.98
584.82	29338.62
584.98	29450.96
585.14	29579.69
585.30	29462.66
585.46	29614.80
585.62	29582.03
585.78	29567.99
585.94	29223.93
586.10	29783.32
586.26	29378.40
586.42	29816.08
586.58	29944.81
586.74	29848.85
586.90	29509.47
587.06	29109.24
587.22	29752.89
587.38	29343.30
587.54	29963.54
587.70	29780.98
587.86	29970.56
588.02	29916.73
588.18	30192.91
588.34	30029.07
588.49	29703.74
588.65	29778.64
588.81	29350.32
588.97	29853.53
589.13	29612.46
589.29	29902.68
589.45	29982.26
589.61	30099.29
589.77	30309.94
589.93	30143.76
590.08	30237.38
590.24	30136.74
590.40	30033.75
590.56	30204.61
590.72	29881.62
590.88	29685.01
591.04	29930.77
591.20	30101.63
591.35	30089.93
591.51	30347.39
591.67	30237.38
591.83	30085.25
591.99	30272.49
592.15	30473.78
592.31	29874.60
592.46	29972.90
592.62	29659.27
592.78	29795.02
592.94	29497.77
593.10	29790.34
593.26	29984.60
593.41	30064.18
593.57	30225.68
593.73	30146.10
593.89	30139.08
594.05	30022.05
594.20	29825.45
594.36	29823.11
594.52	30153.12
594.68	30038.44
594.84	29898.00
594.99	30101.63
595.15	29867.58
595.31	30244.40
595.47	30183.55
595.62	29947.15
595.78	30384.83
595.94	30204.61
596.10	29944.81
596.25	29989.28
596.41	29827.79
596.57	29661.61
596.73	30043.12
596.88	30082.91
597.04	30242.06
597.20	30466.75
597.36	30373.13
597.51	30525.27
597.67	30132.06
597.83	30258.45
597.99	29928.43
598.14	29949.50
598.30	29977.58
598.46	30047.80
598.61	29839.49
598.77	30174.19
598.93	30712.51
599.09	30061.84
599.24	30583.78
599.40	30831.88
599.56	30562.72
599.71	30492.50
599.87	30108.65
600.03	30471.43
600.18	30075.88
600.34	30110.99
600.50	30197.59
600.65	30223.34
600.81	30078.22
600.97	30342.70
601.12	30492.50
601.28	30787.41
601.44	30450.37
601.59	30197.59
601.75	29996.31
601.91	29926.09
602.06	29944.81
602.22	30190.57
602.37	29869.92
602.53	29881.62
602.69	30419.94
602.84	30003.33
603.00	30195.25
603.16	30347.39
603.31	30366.11
603.47	30443.35
603.62	29762.25
603.78	30333.34
603.94	30473.78
604.09	30462.07
604.25	29947.15
604.40	30368.45
604.56	30267.81
604.71	30342.70
604.87	30026.73
605.03	30005.67
605.18	30047.80
605.34	30300.58
605.49	30040.78
605.65	30150.78
605.80	30235.04
605.96	30155.46
606.12	30096.95
606.27	30174.19
606.43	29895.66
606.58	30429.30
606.74	30043.12
606.89	30394.20
607.05	30391.86
607.20	30223.34
607.36	30101.63
607.51	30066.52
607.67	29858.21
607.82	29647.57
607.98	30340.36
608.13	30038.44
608.29	30197.59
608.44	29975.24
608.60	30174.19
608.75	30260.79
608.91	29900.34
609.06	29900.34
609.22	30150.78
609.37	29521.18
609.53	29565.65
609.68	29635.86
609.84	29497.77
609.99	29930.77
610.15	29771.61
610.30	29809.06
610.46	29806.72
610.61	30078.22
610.76	29778.64
610.92	29837.15
611.07	29853.53
611.23	30148.44
611.38	29560.97
611.54	29680.33
611.69	29366.70
611.84	29518.84
612.00	29694.38
612.15	29486.07
612.31	29872.26
612.46	29539.90
612.62	29589.05
612.77	29830.13
612.92	29921.41
613.08	29949.50
613.23	29755.23
613.39	29645.23
613.54	29486.07
613.69	29811.40
613.85	29202.86
614.00	29621.82
614.15	29474.37
614.31	29432.24
614.46	29699.06
614.62	29701.40
614.77	29495.43
614.92	29872.26
615.08	29457.98
615.23	29406.49
615.38	29317.55
615.54	29167.76
615.69	29308.19
615.84	29186.48
616.00	29626.50
616.15	29048.39
616.30	29525.86
616.46	29586.71
616.61	29235.63
616.76	29591.39
616.92	29261.38
617.07	29338.62
617.22	29055.41
617.37	29331.59
617.53	29523.52
617.68	29270.74
617.83	29057.75
617.99	28821.36
618.14	29205.20
618.29	29034.35
618.45	29027.32
618.60	29144.35
618.75	29247.33
618.90	29223.93
619.06	29340.96
619.21	29001.58
619.36	29256.70
619.51	29181.80
619.67	28746.46
619.82	28744.12
619.97	28952.43
620.12	28599.01
620.28	29083.50
620.43	29193.50
620.58	29436.92
620.73	29235.63
620.89	29083.50
621.04	29109.24
621.19	28854.12
621.34	28975.83
621.49	28844.76
621.65	28545.17
621.80	29209.89
621.95	28811.99
622.10	28720.71
622.25	28676.24
622.41	29099.88
622.56	28751.14
622.71	28734.76
622.86	29120.95
623.01	29069.45
623.16	28683.27
623.32	28720.71
623.47	28748.80
623.62	28655.18
623.77	28507.72
623.92	28671.56
624.07	28746.46
624.23	28802.63
624.38	28744.12
624.53	28582.62
624.68	28591.98
624.83	28872.85
624.98	29071.79
625.13	28474.96
625.29	28599.01
625.44	28634.11
625.59	28271.33
625.74	28240.90
625.89	28236.22
626.04	28355.59
626.19	28032.60
626.34	28580.28
626.49	28173.03
626.65	27749.39
626.80	28130.90
626.95	28173.03
627.10	28168.35
627.25	28053.66
627.40	28212.82
627.55	28280.69
627.70	28283.03
627.85	28243.24
628.00	28135.58
628.15	28215.16
628.30	28121.54
628.45	27833.65
628.60	28088.77
628.76	27882.80
628.91	28215.16
629.06	28128.56
629.21	28191.75
629.36	28161.33
629.51	27733.01
629.66	28446.87
629.81	28051.32
629.96	27541.08
630.11	27534.06
630.26	27672.15
630.41	28268.99
630.56	27489.59
630.71	27695.56
630.86	27793.86
631.01	27999.83
631.16	27999.83
631.31	27744.71
631.46	27784.50
631.61	27784.50
631.76	27559.81
631.91	27255.54
632.06	27913.23
632.21	27379.59
632.36	27552.79
632.51	27159.58
632.66	27768.12
632.81	27283.62
632.96	27835.99
633.10	27311.71
633.25	27501.29
633.40	27728.33
633.55	27234.47
633.70	27168.94
633.85	27288.31
634.00	27283.62
634.15	27288.31
634.30	27374.91
634.45	27477.89
634.60	27133.83
634.75	27377.25
634.90	27330.44
635.05	27573.85
635.19	27651.09
635.34	27601.94
635.49	27672.15
635.64	27608.96
635.79	27168.94
635.94	27412.35
636.09	27351.50
636.24	26969.99
636.39	26953.61
636.53	26867.01
636.68	27096.38
636.83	26944.25
636.98	27126.81
637.13	26775.73
637.28	27192.34
637.43	27314.05
637.57	27290.65
637.72	27346.82
637.87	27264.90
638.02	26859.99
638.17	26719.56
638.32	26836.58
638.46	26529.97
638.61	26965.31
638.76	26529.97
638.91	26890.41
639.06	26824.88
639.20	27051.91
639.35	26766.37
639.50	26941.91
639.65	27199.37
639.80	26953.61
639.94	26810.84
640.09	26920.84
640.24	26890.41
640.39	26539.33
640.54	26609.55
640.68	26726.58
640.83	26562.74
640.98	26457.42
641.13	26270.17
641.27	26478.48
641.42	26480.82
641.57	26892.76
641.72	26595.51
641.86	26499.55
642.01	26387.20
642.16	26642.32
642.31	26387.20
642.45	26527.63
642.60	26417.63
642.75	26230.38
642.90	25916.75
643.04	26621.25
643.19	26410.60
643.34	26569.76
643.48	26291.24
643.63	26181.23
643.78	26426.99
643.93	26417.63
644.07	26572.10
644.22	26174.21
644.37	26492.52
644.51	26340.39
644.66	26204.64
644.81	26176.55
644.95	25940.16
645.10	25982.29
645.25	26192.94
645.39	25874.62
645.54	26125.06
645.69	26192.94
645.83	26113.36
645.98	25764.62
646.13	26375.50
646.27	26263.15
646.42	26008.03
646.57	26024.42
646.71	26033.78
646.86	26005.69
647.00	26148.46
647.15	25717.81
647.30	26230.38
647.44	25720.15
647.59	25640.57
647.74	25731.85
647.88	25926.11
648.03	25827.81
648.17	25944.84
648.32	26022.08
648.47	25902.71
648.61	25949.52
648.76	26153.15
648.90	26148.46
649.05	25795.04
649.20	25579.71
649.34	25834.83
649.49	25397.15
649.63	25319.92
649.78	25572.69
649.92	25649.93
650.07	25710.78
650.21	25509.50
650.36	25610.14
650.51	25563.33
650.65	25909.73
650.80	25568.01
650.94	25387.79
651.09	25191.19
651.23	25062.46
651.38	25348.00
651.52	25640.57
651.67	25357.36
651.81	25560.99
651.96	25474.39
652.10	25621.84
652.25	25546.95
652.39	25177.14
652.54	25663.97
652.68	25207.57
652.83	25322.26
652.97	25788.02
653.12	25207.57
653.26	25261.40
653.41	25214.59
653.55	25317.57
653.70	25099.90
653.84	24945.43
653.99	25345.66
654.13	25546.95
654.27	25481.41
654.42	25039.05
654.56	25488.43
654.71	25348.00
654.85	25074.16
655.00	25369.07
655.14	25142.03
655.29	24931.39
655.43	25158.42
655.57	24931.39
655.72	24915.00
655.86	24779.25
656.01	25373.75
656.15	25172.46
656.30	24891.60
656.44	24372.00
656.58	24891.60
656.73	24886.92
656.87	24959.47
657.01	24744.14
657.16	25053.09
657.30	24805.00
657.45	24882.24
657.59	24786.27
657.73	24400.08
657.88	24716.06
658.02	24884.58
658.16	24456.26
658.31	24395.40
658.45	24685.63
658.60	24603.71
658.74	24465.62
658.88	24266.67
659.03	24400.08
659.17	24393.06
659.31	24643.50
659.46	24730.10
659.60	24381.36
659.74	24395.40
659.89	24568.60
660.03	24449.24
660.17	24215.18
660.32	24212.84
660.46	24229.23
660.60	24121.56
660.74	23939.00
660.89	23997.51
661.03	23995.17
661.17	24320.51
661.32	24016.24
661.46	24135.60
661.60	24027.94
661.74	23967.09
661.89	24049.00
662.03	24177.73
662.17	23859.42
662.31	23936.66
662.46	24243.27
662.60	23840.70
662.74	23943.68
662.88	23683.88
663.03	23559.83
663.17	23840.70
663.31	23150.24
663.45	23541.11
663.60	23711.97
663.74	23314.08
663.88	23431.10
664.02	23438.12
664.17	23463.87
664.31	23506.00
664.45	23608.98
664.59	23281.31
664.73	23463.87
664.88	23126.83
665.02	22827.24
665.16	22897.46
665.30	23232.16
665.44	23342.16
665.59	23087.04
665.73	23360.89
665.87	22733.62
666.01	23185.35
666.15	22932.57
666.29	22948.95
666.44	23192.37
666.58	22682.13
666.72	22902.14
666.86	22733.62
667.00	22871.72
667.14	22782.77
667.28	22948.95
667.43	23063.64
667.57	22750.01
667.71	22686.81
667.85	22672.77
667.99	22618.94
668.13	22537.02
668.27	22497.23
668.41	22373.18
668.56	22419.99
668.70	22562.76
668.84	22525.32
668.98	22412.97
669.12	22331.05
669.26	22281.90
669.40	22448.08
669.54	22427.01
669.68	22361.48
669.82	22057.21
669.96	22218.71
670.10	21933.16
670.25	21841.88
670.39	21937.84
670.53	21813.79
670.67	21848.90
670.81	21951.88
670.95	22305.31
671.09	22015.08
671.23	22309.99
671.37	22174.24
671.51	21895.71
671.65	21806.77
671.79	21771.66
671.93	21619.53
672.07	21451.01
672.21	21549.31
672.35	21476.76
672.49	21507.18
672.63	21518.89
672.77	21369.09
672.91	21305.90
673.05	21528.25
673.19	21326.96
673.33	21008.65
673.47	21151.42
673.61	21256.75
673.75	21055.46
673.89	21462.71
674.03	21076.52
674.17	21376.11
674.31	20547.56
674.45	21226.32
674.59	20926.73
674.73	20585.01
674.87	20879.92
675.01	20783.96
675.15	20587.35
675.29	20542.88
675.43	20458.62
675.56	20549.90
675.70	20500.75
675.84	20439.90
675.98	20250.32
676.12	20531.18
676.26	20334.57
676.40	20357.98
676.54	20320.53
676.68	20229.25
676.82	20163.72
676.96	19814.98
677.10	19868.81
677.23	19812.63
677.37	19868.81
677.51	19822.00
677.65	19899.23
677.79	19644.12
677.93	19686.25
678.07	19634.75
678.21	19681.56
678.34	19274.31
678.48	19782.21
678.62	19386.66
678.76	19295.38
678.90	19211.12
679.04	19253.25
679.18	19206.44
679.31	19082.39
679.45	18991.11
679.59	18853.02
679.73	18988.77
679.87	18548.75
680.00	18963.02
680.14	18637.69
680.28	18558.11
680.42	18485.55
680.56	18836.63
680.70	18284.26
680.83	18586.19
680.97	18436.40
681.11	18412.99
681.25	18628.32
681.39	18452.78
681.52	18405.97
681.66	18265.54
681.80	18532.36
681.94	18113.41
682.07	17928.50
682.21	17839.56
682.35	17888.71
682.49	18090.00
682.62	17785.73
682.76	17841.90
682.90	17603.17
683.04	17884.03
683.17	17685.09
683.31	17816.16
683.45	17415.93
683.59	17334.01
683.72	17336.35
683.86	17373.80
684.00	17343.37
684.13	17458.06
684.27	17509.55
684.41	17041.44
684.55	16905.69
684.68	16968.88
684.82	16833.13
684.96	16711.42
685.09	16587.38
685.23	16774.62
685.37	16657.59
685.50	16786.32
685.64	16849.52
685.78	16961.86
685.91	16776.96
686.05	16556.95
686.19	16578.01
686.32	16776.96
686.46	16531.20
686.60	16119.27
686.73	16236.30
686.87	16130.97
687.01	16325.24
687.14	16388.43
687.28	16308.85
687.42	16114.59
687.55	15920.32
687.69	16219.91
687.82	15859.47
687.96	15892.24
688.10	15775.21
688.23	15950.75
688.37	15782.23
688.50	15941.39
688.64	15712.02
688.78	15618.39
688.91	15733.08
689.05	15576.27
689.18	15683.93
689.32	15122.20
689.46	15342.21
689.59	15264.97
689.73	15346.89
689.86	15250.93
690.00	15054.33
690.13	15126.88
690.27	15012.20
690.41	14951.34
690.54	15007.52
690.68	14768.78
690.81	14991.13
690.95	14656.43
691.08	14618.99
691.22	14597.92
691.35	14932.62
691.49	14740.69
691.62	14600.26
691.76	14427.06
691.89	14356.85
692.03	14258.54
692.16	14209.39
692.30	14132.15
692.43	14146.20
692.57	14012.79
692.70	13930.87
692.84	13996.40
692.97	13958.96
693.11	14085.34
693.24	14127.47
693.38	13867.67
693.51	13900.44
693.65	13860.65
693.78	13343.39
693.92	13586.81
694.05	13607.87
694.19	13312.97
694.32	13483.83
694.45	13378.50
694.59	12910.40
694.72	13294.24
694.86	13034.44
694.99	12908.05
695.13	13064.87
695.26	12926.78
695.39	12917.42
695.53	12938.48
695.66	12908.05
695.80	12805.07
695.93	12816.77
696.07	13001.68
696.20	12861.24
696.33	12547.61
696.47	12826.14
696.60	12456.33
696.73	12512.50
696.87	12414.20
697.00	12617.83
697.14	12311.22
697.27	12163.76
697.40	12271.43
697.54	12372.07
697.67	12039.72
697.80	12280.79
697.94	12013.97
698.07	12056.10
698.21	11885.24
698.34	12018.65
698.47	12049.08
698.61	11925.03
698.74	11910.99
698.87	11845.45
699.01	11815.02
699.14	11508.41
699.27	11595.01
699.40	11492.03
699.54	11632.46
699.67	11585.65
699.80	11447.56
699.94	11227.55
700.07	11147.97
700.20	11391.39
700.34	11178.40
700.47	11243.93
700.60	11140.95
700.73	11194.78
700.87	11075.42
701.00	10857.75
701.13	10911.58
701.26	10991.16
701.40	10977.11
701.53	10808.59
701.66	10986.47
701.79	10792.21
701.93	10808.59
702.06	10630.71
702.19	10513.69
702.32	10333.47
702.46	10541.77
702.59	10328.78
702.72	10317.08
702.85	10558.16
702.99	10111.11
703.12	10249.21
703.25	10118.14
703.38	10235.16
703.51	10108.77
703.65	10186.01
703.78	10176.65
703.91	10211.76
704.04	10031.54
704.17	10139.20
704.31	9844.29
704.44	9935.57
704.57	9926.21
704.70	9898.13
704.83	9624.28
704.96	9465.13
705.10	9511.94
705.23	9612.58
>>>>>End Processed Spectral Data<<<<<
