SpectraSuite Data File
++++++++++++++++++++++++++++++++++++
Date: Fri Oct 18 13:58:27 GMT-05:00 2013
User: bianchi
Dark Spectrum Present: No
Reference Spectrum Present: No
Number of Sampled Component Spectra: 1
Spectrometers: USB2+H05261
Integration Time (usec): 50000 (USB2+H05261)
Spectra Averaged: 1 (USB2+H05261)
Boxcar Smoothing: 0 (USB2+H05261)
Correct for Electrical Dark: No (USB2+H05261)
Strobe/Lamp Enabled: No (USB2+H05261)
Correct for Detector Non-linearity: No (USB2+H05261)
Correct for Stray Light: No (USB2+H05261)
Number of Pixels in Processed Spectrum: 2048
>>>>>Begin Processed Spectral Data<<<<<
365.73	0.00
365.92	0.00
366.12	0.00
366.32	0.00
366.52	0.00
366.72	0.00
366.91	0.00
367.11	0.00
367.31	0.00
367.51	0.00
367.70	0.00
367.90	0.00
368.10	0.00
368.30	0.00
368.49	0.00
368.69	0.00
368.89	0.00
369.09	0.00
369.28	0.00
369.48	0.00
369.68	0.00
369.87	0.00
370.07	0.00
370.27	0.00
370.47	0.00
370.66	18.72
370.86	77.24
371.06	105.32
371.25	128.73
371.45	51.49
371.65	175.54
371.84	217.67
372.04	147.45
372.24	161.50
372.44	140.43
372.63	184.90
372.83	217.67
373.03	196.60
373.22	175.54
373.42	175.54
373.62	271.50
373.81	210.65
374.01	257.46
374.21	229.37
374.40	205.97
374.60	241.08
374.79	220.01
374.99	287.89
375.19	222.35
375.38	184.90
375.58	276.18
375.78	271.50
375.97	306.61
376.17	285.55
376.37	208.31
376.56	236.39
376.76	220.01
376.95	304.27
377.15	344.06
377.35	273.84
377.54	180.22
377.74	191.92
377.93	252.78
378.13	287.89
378.33	271.50
378.52	210.65
378.72	301.93
378.91	311.29
379.11	269.16
379.31	264.48
379.50	313.63
379.70	313.63
379.89	238.73
380.09	315.97
380.28	280.86
380.48	337.04
380.68	273.84
380.87	304.27
381.07	376.83
381.26	376.83
381.46	271.50
381.65	425.98
381.85	339.38
382.04	320.65
382.24	301.93
382.43	383.85
382.63	348.74
382.83	297.25
383.02	341.72
383.22	334.70
383.41	355.76
383.61	313.63
383.80	423.64
384.00	339.38
384.19	344.06
384.39	355.76
384.58	404.91
384.78	332.36
384.97	416.62
385.17	400.23
385.36	311.29
385.56	360.44
385.75	334.70
385.95	334.70
386.14	348.74
386.34	418.96
386.53	337.04
386.72	421.30
386.92	435.34
387.11	315.97
387.31	407.25
387.50	407.25
387.70	365.12
387.89	414.27
388.09	454.06
388.28	435.34
388.48	320.65
388.67	402.57
388.86	477.47
389.06	440.02
389.25	486.83
389.45	400.23
389.64	430.66
389.84	411.93
390.03	479.81
390.22	498.53
390.42	437.68
390.61	383.85
390.81	491.51
391.00	418.96
391.19	435.34
391.39	517.26
391.58	477.47
391.78	442.36
391.97	538.32
392.16	500.87
392.36	557.05
392.55	514.92
392.75	535.98
392.94	547.69
393.13	519.60
393.33	552.37
393.52	573.43
393.71	578.11
393.91	554.71
394.10	582.79
394.29	589.82
394.49	594.50
394.68	533.64
394.88	592.16
395.07	589.82
395.26	510.24
395.46	596.84
395.65	585.13
395.84	636.63
396.04	678.76
396.23	636.63
396.42	617.90
396.62	629.60
396.81	674.07
397.00	683.44
397.19	599.18
397.39	718.54
397.58	770.04
397.77	678.76
397.97	645.99
398.16	674.07
398.35	690.46
398.55	690.46
398.74	741.95
398.93	702.16
399.12	662.37
399.32	727.91
399.51	751.31
399.70	741.95
399.90	781.74
400.09	777.06
400.28	826.21
400.47	732.59
400.67	727.91
400.86	793.44
401.05	777.06
401.24	753.65
401.44	741.95
401.63	866.00
401.82	842.59
402.01	812.17
402.21	727.91
402.40	784.08
402.59	868.34
402.78	800.46
402.97	896.43
403.17	884.72
403.36	887.06
403.55	854.30
403.74	866.00
403.93	887.06
404.13	908.13
404.32	870.68
404.51	849.61
404.70	877.70
404.89	922.17
405.09	957.28
405.28	936.21
405.47	903.45
405.66	994.73
405.85	926.85
406.05	945.58
406.24	952.60
406.43	1064.94
406.62	990.05
406.81	1102.39
407.00	990.05
407.20	983.02
407.39	1011.11
407.58	931.53
407.77	1048.56
407.96	1008.77
408.15	1071.97
408.34	929.19
408.54	1055.58
408.73	1057.92
408.92	1107.07
409.11	1123.46
409.30	1132.82
409.49	1170.27
409.68	1200.69
409.87	1139.84
410.07	1172.61
410.26	1118.78
410.45	1179.63
410.64	1097.71
410.83	1212.40
411.02	1135.16
411.21	1303.68
411.40	1196.01
411.59	1210.06
411.78	1308.36
411.98	1240.48
412.17	1315.38
412.36	1268.57
412.55	1327.08
412.74	1352.83
412.93	1268.57
413.12	1224.10
413.31	1385.60
413.50	1348.15
413.69	1273.25
413.88	1399.64
414.07	1350.49
414.26	1362.19
414.45	1441.77
414.64	1467.52
414.83	1418.36
415.02	1458.15
415.22	1495.60
415.41	1504.96
415.60	1437.09
415.79	1577.52
415.98	1607.95
416.17	1633.69
416.36	1631.35
416.55	1626.67
416.74	1706.25
416.93	1565.82
417.12	1764.76
417.31	1673.48
417.50	1586.88
417.69	1785.83
417.88	1764.76
418.07	1706.25
418.26	1933.28
418.45	1696.89
418.64	1806.89
418.83	1778.81
419.02	1879.45
419.21	1701.57
419.39	1816.26
419.58	1802.21
419.77	1916.90
419.96	1858.39
420.15	1851.36
420.34	1844.34
420.53	1963.71
420.72	1959.03
420.91	1844.34
421.10	1935.62
421.29	1987.11
421.48	1870.09
421.67	2003.50
421.86	1947.33
422.05	2015.20
422.24	1891.15
422.43	1907.54
422.61	2045.63
422.80	2045.63
422.99	1923.92
423.18	1956.69
423.37	2104.14
423.56	1973.07
423.75	1991.80
423.94	1984.77
424.13	1834.98
424.32	1853.70
424.50	1837.32
424.69	2085.42
424.88	2064.35
425.07	2092.44
425.26	1884.13
425.45	2050.31
425.64	1954.35
425.83	2005.84
426.01	1982.43
426.20	2090.10
426.39	2045.63
426.58	2064.35
426.77	2146.27
426.96	2143.93
427.15	1994.14
427.33	2071.37
427.52	2010.52
427.71	2022.22
427.90	2179.04
428.09	2239.89
428.28	2188.40
428.46	2155.63
428.65	2092.44
428.84	2132.23
429.03	2211.81
429.22	2054.99
429.40	2298.41
429.59	2174.36
429.78	2209.47
429.97	2045.63
430.16	2230.53
430.34	2347.56
430.53	2209.47
430.72	2263.30
430.91	2342.88
431.10	2277.34
431.28	2314.79
431.47	2443.52
431.66	2324.15
431.85	2338.20
432.03	2317.13
432.22	2333.51
432.41	2382.67
432.60	2385.01
432.79	2356.92
432.97	2516.08
433.16	2450.54
433.35	2368.62
433.54	2399.05
433.72	2431.82
433.91	2466.92
434.10	2597.99
434.28	2513.74
434.47	2686.94
434.66	2574.59
434.85	2525.44
435.03	2530.12
435.22	2600.34
435.41	2546.50
435.59	2569.91
435.78	2586.29
435.97	2616.72
436.16	2555.86
436.34	2565.23
436.53	2539.48
436.72	2860.13
436.90	2612.04
437.09	2637.78
437.28	2579.27
437.46	2654.17
437.65	2672.89
437.84	2810.98
438.02	2724.38
438.21	2726.72
438.40	2679.91
438.58	2834.39
438.77	2782.90
438.96	2764.17
439.14	2951.42
439.33	2813.32
439.52	2860.13
439.70	3000.57
439.89	2977.16
440.08	3038.02
440.26	3033.33
440.45	2970.14
440.63	3000.57
440.82	3197.17
441.01	3112.91
441.19	3124.62
441.38	3206.53
441.57	3096.53
441.75	3201.85
441.94	3311.86
442.12	3190.15
442.31	3269.73
442.50	3297.81
442.68	3220.58
442.87	3325.90
443.05	3236.96
443.24	3279.09
443.43	3297.81
443.61	3346.97
443.80	3468.67
443.98	3382.07
444.17	3133.98
444.35	3421.86
444.54	3302.50
444.73	3426.54
444.91	3433.57
445.10	3346.97
445.28	3438.25
445.47	3370.37
445.65	3386.76
445.84	3459.31
446.02	3574.00
446.21	3419.52
446.39	3489.74
446.58	3403.14
446.77	3510.80
446.95	3433.57
447.14	3361.01
447.32	3417.18
447.51	3386.76
447.69	3426.54
447.88	3400.80
448.06	3452.29
448.25	3318.88
448.43	3508.46
448.62	3463.99
448.80	3499.10
448.99	3478.04
449.17	3485.06
449.36	3494.42
449.54	3648.90
449.73	3536.55
449.91	3660.60
450.10	3630.17
450.28	3735.50
450.46	3531.87
450.65	3854.86
450.83	3655.92
451.02	3679.32
451.20	3709.75
451.39	3840.82
451.57	3611.45
451.76	3686.34
451.94	3688.68
452.13	3873.59
452.31	3843.16
452.49	3845.50
452.68	3695.71
452.86	3817.41
453.05	3789.33
453.23	3861.88
453.42	3822.09
453.60	3889.97
453.78	3866.56
453.97	3894.65
454.15	3920.40
454.34	3943.80
454.52	3932.10
454.70	4016.36
454.89	4095.94
455.07	4002.32
455.26	3995.29
455.44	4194.24
455.62	4088.92
455.81	4086.58
455.99	4159.13
456.17	3981.25
456.36	4297.22
456.54	4201.26
456.73	4257.43
456.91	4313.61
457.09	4227.01
457.28	4327.65
457.46	4212.96
457.64	4212.96
457.83	4327.65
458.01	4362.76
458.19	4468.08
458.38	4402.55
458.56	4461.06
458.74	4297.22
458.93	4259.78
459.11	4531.28
459.29	4374.46
459.48	4449.36
459.66	4418.93
459.84	4585.11
460.03	4622.56
460.21	4421.27
460.39	4531.28
460.57	4582.77
460.76	4414.25
460.94	4498.51
461.12	4718.52
461.31	4500.85
461.49	4423.61
461.67	4535.96
461.85	4732.56
462.04	4732.56
462.22	4781.71
462.40	4739.58
462.59	4655.33
462.77	4835.55
462.95	4709.16
463.13	4802.78
463.32	4744.27
463.50	4851.93
463.68	4896.40
463.86	4837.89
464.05	4767.67
464.23	4554.68
464.41	4961.94
464.59	4875.34
464.78	4915.12
464.96	4805.12
465.14	4774.69
465.32	4842.57
465.50	4938.53
465.69	4847.25
465.87	4849.59
466.05	4971.30
466.23	5001.72
466.41	4980.66
466.60	5135.14
466.78	4894.06
466.96	4999.38
467.14	4896.40
467.32	5057.90
467.51	5266.21
467.69	4922.15
467.87	4966.62
468.05	5261.52
468.23	5228.76
468.41	5247.48
468.60	5104.71
468.78	5062.58
468.96	5093.01
469.14	5254.50
469.32	5214.71
469.50	5102.37
469.69	5310.68
469.87	5273.23
470.05	5259.18
470.23	5359.83
470.41	5474.51
470.59	5308.34
470.77	5352.81
470.95	5329.40
471.14	5301.31
471.32	5439.40
471.50	5483.88
471.68	5584.52
471.86	5448.77
472.04	5570.48
472.22	5558.77
472.40	5488.56
472.58	5652.39
472.77	5724.95
472.95	5771.76
473.13	5870.06
473.31	5722.61
473.49	5755.38
473.67	5741.33
473.85	5841.98
474.03	5966.03
474.21	6122.84
474.39	6003.47
474.57	5989.43
474.75	6066.67
474.93	6150.93
475.12	6104.12
475.30	6237.53
475.48	6101.78
475.66	6289.02
475.84	6101.78
476.02	6258.59
476.20	6244.55
476.38	6558.18
476.56	6647.12
476.74	6502.01
476.92	6417.75
477.10	6401.37
477.28	6509.03
477.46	6693.93
477.64	6593.29
477.82	6572.22
478.00	6867.13
478.18	6700.95
478.36	7033.31
478.54	6923.30
478.72	7028.63
478.90	7110.55
479.08	6995.86
479.26	7138.63
479.44	7143.32
479.62	7218.21
479.80	7215.87
479.98	7253.32
480.16	7592.70
480.34	7506.10
480.52	7653.55
480.70	7475.67
480.88	7475.67
481.06	7850.16
481.24	7658.23
481.41	7859.52
481.59	7527.16
481.77	7768.24
481.95	8028.04
482.13	7939.10
482.31	8301.88
482.49	8067.83
482.67	8182.51
482.85	8271.45
483.03	8491.46
483.21	8397.84
483.39	8587.43
483.57	8496.14
483.74	8758.28
483.92	8760.63
484.10	8863.61
484.28	8674.03
484.46	8727.86
484.64	9109.36
484.82	8842.54
485.00	8844.88
485.18	9357.46
485.35	9352.78
485.53	9294.27
485.71	9430.02
485.89	9444.06
486.07	9486.19
486.25	9343.42
486.43	9631.30
486.61	9584.49
486.78	9757.69
486.96	9956.64
487.14	10087.71
487.32	9778.76
487.50	9973.02
487.68	10036.22
487.85	10279.63
488.03	10169.63
488.21	10464.54
488.39	10382.62
488.57	10635.39
488.75	10600.29
488.92	10745.40
489.10	10757.10
489.28	10892.85
489.46	10977.11
489.64	10883.49
489.81	11112.86
489.99	11232.23
490.17	11225.21
490.35	11330.53
490.53	11562.25
490.70	11428.84
490.88	11552.88
491.06	11815.02
491.24	11749.49
491.41	11651.19
491.59	12002.27
491.77	11634.80
491.95	12236.32
492.13	12304.20
492.30	12063.12
492.48	12161.42
492.66	12149.72
492.84	12131.00
493.01	12552.29
493.19	12320.58
493.37	12606.13
493.54	12360.37
493.72	12704.43
493.90	12608.47
494.08	12624.85
494.25	12919.76
494.43	13041.46
494.61	13205.30
494.79	13036.78
494.96	12774.64
495.14	13319.99
495.32	13673.41
495.49	13593.83
495.67	13514.25
495.85	13568.09
496.02	13813.84
496.20	13809.16
496.38	13916.83
496.55	13635.96
496.73	13975.34
496.91	13987.04
497.09	14115.77
497.26	14150.88
497.44	14024.49
497.62	14221.10
497.79	14420.04
497.97	14427.06
498.14	14497.28
498.32	14789.85
498.50	14616.65
498.67	14794.53
498.85	14668.14
499.03	14934.96
499.20	14644.73
499.38	14918.57
499.56	15180.71
499.73	15021.56
499.91	15206.46
500.08	15138.58
500.26	15206.46
500.44	15164.33
500.61	15250.93
500.79	15393.70
500.97	15489.67
501.14	15499.03
501.32	15662.86
501.49	15447.54
501.67	15669.89
501.84	15721.38
502.02	15917.98
502.20	15726.06
502.37	15861.81
502.55	16063.10
502.72	15967.13
502.90	16009.26
503.07	16130.97
503.25	16231.62
503.43	16156.72
503.60	16147.36
503.78	16491.41
503.95	16329.92
504.13	16472.69
504.30	16168.42
504.48	16575.67
504.65	16645.89
504.83	16865.90
505.01	17074.21
505.18	16924.41
505.36	16999.31
505.53	16819.09
505.71	16975.91
505.88	17151.45
506.06	16943.14
506.23	17212.30
506.41	16933.78
506.58	17123.36
506.76	17338.69
506.93	17200.60
507.11	17011.01
507.28	17177.19
507.46	17577.42
507.63	17488.48
507.81	17645.30
507.98	17436.99
508.16	17745.94
508.33	17413.59
508.50	17752.96
508.68	17600.83
508.85	17877.01
509.03	17886.37
509.20	18181.28
509.38	18258.52
509.55	18200.01
509.73	18422.36
509.90	18073.62
510.08	18082.98
510.25	18129.79
510.42	18270.22
510.60	18438.74
510.77	18548.75
510.95	18623.64
511.12	18457.46
511.30	18707.90
511.47	18607.26
511.64	18703.22
511.82	19056.64
511.99	18897.49
512.17	19028.56
512.34	18902.17
512.51	18782.80
512.69	18792.16
512.86	18607.26
513.04	19145.58
513.21	19309.42
513.38	19424.11
513.56	19438.15
513.73	19229.84
513.90	19262.61
514.08	19461.55
514.25	19318.78
514.43	19529.43
514.60	19440.49
514.77	19477.94
514.95	19756.46
515.12	19999.88
515.29	19555.18
515.47	19386.66
515.64	20091.16
515.81	19929.66
515.99	19789.23
516.16	20058.39
516.33	20053.71
516.51	20217.55
516.68	19990.52
516.85	19882.85
517.03	20098.18
517.20	20114.56
517.37	20030.30
517.54	20315.85
517.72	20561.61
517.89	20451.60
518.06	20489.05
518.24	20245.63
518.41	20262.02
518.58	20559.27
518.75	20341.60
518.93	20556.93
519.10	20563.95
519.27	20648.21
519.45	20498.41
519.62	20648.21
519.79	20554.58
519.96	20699.70
520.14	21006.31
520.31	21376.11
520.48	21289.51
520.65	21078.86
520.83	21125.68
521.00	21287.17
521.17	21247.38
521.34	21303.56
521.52	21336.32
521.69	21408.88
521.86	21399.52
522.03	21458.03
522.20	21142.06
522.38	21385.47
522.55	21537.61
522.72	21551.65
522.89	21855.92
523.07	21881.67
523.24	21844.22
523.41	22136.79
523.58	21736.56
523.75	22171.89
523.92	21743.58
524.10	22017.42
524.27	22099.34
524.44	22387.22
524.61	21958.91
524.78	22286.58
524.96	22108.70
525.13	22176.58
525.30	21968.27
525.47	22181.26
525.64	22157.85
525.81	22150.83
525.98	22565.10
526.16	22354.46
526.33	22319.35
526.50	22691.49
526.67	22422.33
526.84	22354.46
527.01	22651.70
527.18	22684.47
527.36	23044.91
527.53	22663.41
527.70	23009.81
527.87	23168.96
528.04	22937.25
528.21	23033.21
528.38	22967.68
528.55	23042.57
528.72	23065.98
528.89	23295.35
529.07	23005.13
529.24	23119.81
529.41	23342.16
529.58	23445.15
529.75	23183.01
529.92	23105.77
530.09	23466.21
530.26	23363.23
530.43	23293.01
530.60	23297.69
530.77	23658.14
530.94	23309.40
531.11	23267.27
531.28	23604.30
531.46	23466.21
531.63	23470.89
531.80	23946.02
531.97	23892.19
532.14	23770.48
532.31	23817.29
532.48	23660.48
532.65	23901.55
532.82	23683.88
532.99	24144.97
533.16	23974.11
533.33	23960.06
533.50	24243.27
533.67	24137.94
533.84	24130.92
534.01	23875.80
534.18	24084.11
534.35	24109.86
534.52	23906.23
534.69	24575.62
534.86	24521.79
535.03	24208.16
535.20	24470.30
535.37	24624.78
535.54	24451.58
535.71	24287.74
535.88	24388.38
536.05	24589.67
536.22	24631.80
536.38	24907.98
536.55	24652.86
536.72	24769.89
536.89	24741.80
537.06	24877.55
537.23	24797.98
537.40	24819.04
537.57	24636.48
537.74	24865.85
537.91	25085.86
538.08	25324.60
538.25	24669.25
538.42	24926.71
538.59	24809.68
538.75	24814.36
538.92	25017.99
539.09	25039.05
539.26	25207.57
539.43	25074.16
539.60	25118.63
539.77	25376.09
539.94	25291.83
540.11	25380.77
540.28	25394.81
540.44	25132.67
540.61	25067.14
540.78	25406.52
540.95	24982.88
541.12	25429.92
541.29	25273.10
541.46	25633.55
541.62	25233.32
541.79	25596.10
541.96	25207.57
542.13	25539.93
542.30	25619.50
542.47	26146.12
542.63	25331.62
542.80	25788.02
542.97	25984.63
543.14	26101.65
543.31	25862.92
543.48	25558.65
543.64	26087.61
543.81	25972.92
543.98	26068.89
544.15	26242.09
544.32	26155.49
544.48	26476.14
544.65	26375.50
544.82	26176.55
544.99	25865.26
545.16	26071.23
545.32	26527.63
545.49	26560.40
545.66	26546.36
545.83	26211.66
546.00	26656.36
546.16	26473.80
546.33	26120.38
546.50	26155.49
546.67	26305.28
546.83	25942.50
547.00	26375.50
547.17	26342.73
547.34	26864.67
547.50	26387.20
547.67	26483.16
547.84	26635.30
548.00	26487.84
548.17	26738.28
548.34	26635.30
548.51	26967.65
548.67	26841.26
548.84	26820.20
549.01	26892.76
549.18	26869.35
549.34	26771.05
549.51	26749.98
549.68	27080.00
549.84	26775.73
550.01	26822.54
550.18	26977.01
550.34	26965.31
550.51	27648.75
550.68	27482.57
550.84	26941.91
551.01	27260.22
551.18	27140.85
551.34	26906.80
551.51	26958.29
551.68	27250.86
551.84	27782.16
552.01	27274.26
552.18	27456.82
552.34	27559.81
552.51	27679.18
552.68	27077.66
552.84	27461.51
553.01	27388.95
553.18	27442.78
553.34	27740.03
553.51	27243.84
553.67	27611.30
553.84	27779.82
554.01	27606.62
554.17	27555.13
554.34	27892.16
554.51	27770.46
554.67	27672.15
554.84	27229.79
555.00	27662.79
555.17	27211.07
555.33	27854.72
555.50	27737.69
555.67	27496.61
555.83	27744.71
556.00	27730.67
556.16	27854.72
556.33	27812.59
556.50	27604.28
556.66	27833.65
556.83	27740.03
556.99	27962.38
557.16	28187.07
557.32	28030.26
557.49	28400.06
557.65	27702.58
557.82	28086.43
557.98	28154.30
558.15	28198.77
558.32	28379.00
558.48	28025.57
558.65	28194.09
558.81	28318.14
558.98	28175.37
559.14	28643.48
559.31	28240.90
559.47	28364.95
559.64	28278.35
559.80	28318.14
559.97	28437.51
560.13	28285.37
560.30	28252.61
560.46	28474.96
560.63	28259.63
560.79	28437.51
560.96	28671.56
561.12	28428.15
561.29	28217.50
561.45	28591.98
561.61	28599.01
561.78	28566.24
561.94	28601.35
562.11	28615.39
562.27	28748.80
562.44	28449.21
562.60	28236.22
562.77	28524.11
562.93	28521.77
563.10	28896.25
563.26	28547.51
563.42	28959.45
563.59	28507.72
563.75	28451.55
563.92	28999.24
564.08	28620.07
564.24	28854.12
564.41	28554.54
564.57	28245.58
564.74	28767.52
564.90	28996.90
565.07	28781.57
565.23	28877.53
565.39	28793.27
565.56	28994.56
565.72	28325.16
565.88	28961.79
566.05	28374.31
566.21	28924.34
566.38	28811.99
566.54	28947.75
566.70	28734.76
566.87	29062.43
567.03	29120.95
567.19	29420.53
567.36	28816.68
567.52	28893.91
567.68	29092.86
567.85	28943.06
568.01	28720.71
568.17	28603.69
568.34	29134.99
568.50	29067.11
568.66	28950.09
568.83	29223.93
568.99	28992.22
569.15	28975.83
569.32	29160.73
569.48	28627.09
569.64	29263.72
569.81	28849.44
569.97	29160.73
570.13	28980.51
570.30	29097.54
570.46	29024.98
570.62	28875.19
570.78	28907.96
570.95	28711.35
571.11	29228.61
571.27	28767.52
571.43	29165.42
571.60	28994.56
571.76	28840.08
571.92	28772.21
572.09	28879.87
572.25	28961.79
572.41	29378.40
572.57	29280.10
572.74	29259.04
572.90	29411.17
573.06	29298.83
573.22	29256.70
573.38	29191.16
573.55	28999.24
573.71	29745.87
573.87	29589.05
574.03	29046.05
574.20	29256.70
574.36	29113.92
574.52	29172.44
574.68	29170.10
574.84	29294.14
575.01	29104.56
575.17	29139.67
575.33	28863.49
575.49	29289.46
575.65	29287.12
575.82	29399.47
575.98	29125.63
576.14	29521.18
576.30	29270.74
576.46	29055.41
576.62	29315.21
576.79	29289.46
576.95	29099.88
577.11	29170.10
577.27	29460.32
577.43	29610.12
577.59	29296.49
577.75	29212.23
577.92	29181.80
578.08	28891.57
578.24	29259.04
578.40	29036.69
578.56	29544.58
578.72	29329.25
578.88	29600.76
579.04	29589.05
579.21	29514.16
579.37	29163.08
579.53	29511.81
579.69	29109.24
579.85	29333.93
580.01	29392.45
580.17	29357.34
580.33	29270.74
580.49	29294.14
580.65	29589.05
580.82	29483.73
580.98	29490.75
581.14	29383.09
581.30	29476.71
581.46	29209.89
581.62	29392.45
581.78	29212.23
581.94	29649.91
582.10	29282.44
582.26	29436.92
582.42	29453.30
582.58	29560.97
582.74	29319.89
582.90	29553.94
583.06	29390.11
583.22	29450.96
583.38	29380.74
583.54	29598.41
583.70	29832.47
583.86	29163.08
584.02	29247.33
584.18	29909.71
584.34	29905.02
584.50	29701.40
584.66	29495.43
584.82	29408.83
584.98	29525.86
585.14	29329.25
585.30	29530.54
585.46	29233.29
585.62	29280.10
585.78	29472.03
585.94	29216.91
586.10	29441.60
586.26	29528.20
586.42	29509.47
586.58	29937.79
586.74	29366.70
586.90	29600.76
587.06	29443.94
587.22	29294.14
587.38	29266.06
587.54	29642.88
587.70	30059.50
587.86	29549.26
588.02	29876.94
588.18	29567.99
588.34	29827.79
588.49	30010.35
588.65	29706.08
588.81	29563.31
588.97	29727.14
589.13	29687.36
589.29	29476.71
589.45	29600.76
589.61	29518.84
589.77	30075.88
589.93	30195.25
590.08	29427.56
590.24	29420.53
590.40	29727.14
590.56	30110.99
590.72	29607.78
590.88	29806.72
591.04	29984.60
591.20	29998.65
591.35	30103.97
591.51	30169.51
591.67	30029.07
591.83	30188.23
591.99	29745.87
592.15	30066.52
592.31	29687.36
592.46	29935.45
592.62	29827.79
592.78	29937.79
592.94	30164.82
593.10	29795.02
593.26	29956.52
593.41	30036.09
593.57	30010.35
593.73	29741.19
593.89	29783.32
594.05	30089.93
594.20	30015.03
594.36	29827.79
594.52	30059.50
594.68	29783.32
594.84	29893.32
594.99	30419.94
595.15	29909.71
595.31	30052.48
595.47	30050.14
595.62	30445.69
595.78	30199.93
595.94	29460.32
596.10	30040.78
596.25	30202.27
596.41	30024.39
596.57	30036.09
596.73	29834.81
596.88	29947.15
597.04	29790.34
597.20	30080.56
597.36	30071.20
597.51	30382.49
597.67	29958.86
597.83	29823.11
597.99	30178.87
598.14	29649.91
598.30	29813.74
598.46	29956.52
598.61	29968.22
598.77	29858.21
598.93	30176.53
599.09	30490.16
599.24	30654.00
599.40	30197.59
599.56	29982.26
599.71	30263.13
599.87	30326.32
600.03	30019.71
600.18	30000.99
600.34	29956.52
600.50	30160.14
600.65	29970.56
600.81	30230.36
600.97	29876.94
601.12	30422.28
601.28	30110.99
601.44	30115.67
601.59	30628.25
601.75	30059.50
601.91	30410.58
602.06	29895.66
602.22	30026.73
602.37	29912.05
602.53	29874.60
602.69	30600.16
602.84	30253.76
603.00	29907.37
603.16	30195.25
603.31	30429.30
603.47	30185.89
603.62	29888.64
603.78	29553.94
603.94	30190.57
604.09	29921.41
604.25	30101.63
604.40	29872.26
604.56	29558.63
604.71	30132.06
604.87	30068.86
605.03	30019.71
605.18	30162.48
605.34	30068.86
605.49	29511.81
605.65	30008.01
605.80	29598.41
605.96	29696.72
606.12	29656.93
606.27	30160.14
606.43	29902.68
606.58	30242.06
606.74	30125.04
606.89	30132.06
607.05	29556.28
607.20	30089.93
607.36	29905.02
607.51	30394.20
607.67	30008.01
607.82	29591.39
607.98	30000.99
608.13	30038.44
608.29	29926.09
608.44	29935.45
608.60	29972.90
608.75	30431.65
608.91	29893.32
609.06	29827.79
609.22	30106.31
609.37	29736.51
609.53	29965.88
609.68	29839.49
609.84	29710.76
609.99	29837.15
610.15	29699.06
610.30	29621.82
610.46	30033.75
610.61	29689.70
610.76	29862.90
610.92	29851.19
611.07	29818.42
611.23	29244.99
611.38	29790.34
611.54	29457.98
611.69	29647.57
611.84	29640.54
612.00	29523.52
612.15	29607.78
612.31	30101.63
612.46	29163.08
612.62	29788.00
612.77	29362.02
612.92	29975.24
613.08	29319.89
613.23	30024.39
613.39	29642.88
613.54	29230.95
613.69	29638.20
613.85	29612.46
614.00	29123.29
614.15	29593.73
614.31	29273.08
614.46	29757.57
614.62	29614.80
614.77	29647.57
614.92	29731.83
615.08	29479.05
615.23	29411.17
615.38	29518.84
615.54	29165.42
615.69	28884.55
615.84	29273.08
616.00	29244.99
616.15	29179.46
616.30	29509.47
616.46	29546.92
616.61	29366.70
616.76	29406.49
616.92	29106.90
617.07	29509.47
617.22	29537.56
617.37	29188.82
617.53	29298.83
617.68	28875.19
617.83	28996.90
617.99	28905.62
618.14	28837.74
618.29	29134.99
618.45	28828.38
618.60	29221.59
618.75	28844.76
618.90	29322.23
619.06	29057.75
619.21	29146.69
619.36	29205.20
619.51	28559.22
619.67	28870.51
619.82	28720.71
619.97	28823.70
620.12	28992.22
620.28	28545.17
620.43	28945.41
620.58	28858.81
620.73	29151.37
620.89	29010.94
621.04	29053.07
621.19	28933.70
621.34	28847.10
621.49	28371.97
621.65	28744.12
621.80	28709.01
621.95	28453.89
622.10	28591.98
622.25	28589.64
622.41	29060.09
622.56	28739.44
622.71	28776.89
622.86	28919.66
623.01	28379.00
623.16	28339.21
623.32	28786.25
623.47	28737.10
623.62	28645.82
623.77	28514.75
623.92	28669.22
624.07	28332.18
624.23	28538.15
624.38	28950.09
624.53	28297.08
624.68	28634.11
624.83	28622.41
624.98	28559.22
625.13	28507.72
625.29	28603.69
625.44	28517.09
625.59	28285.37
625.74	28512.41
625.89	27931.95
626.04	28039.62
626.19	28023.23
626.34	28388.36
626.49	27768.12
626.65	28283.03
626.80	28404.74
626.95	28484.32
627.10	28056.00
627.25	28149.62
627.40	28121.54
627.55	27922.59
627.70	28020.89
627.85	27681.52
628.00	27943.66
628.15	28039.62
628.30	28081.75
628.45	27985.79
628.60	27740.03
628.76	27927.27
628.91	28070.04
629.06	28261.97
629.21	27943.66
629.36	27920.25
629.51	27931.95
629.66	27751.73
629.81	27861.74
629.96	27651.09
630.11	27775.14
630.26	27487.25
630.41	27779.82
630.56	27807.90
630.71	27922.59
630.86	27496.61
631.01	27784.50
631.16	28250.27
631.31	28133.24
631.46	27428.74
631.61	27585.55
631.76	27716.62
631.91	27747.05
632.06	27445.12
632.21	27381.93
632.36	27791.52
632.51	27262.56
632.66	27470.87
632.81	27585.55
632.96	27608.96
633.10	27665.13
633.25	27688.54
633.40	27414.69
633.55	27316.39
633.70	27173.62
633.85	27428.74
634.00	27089.36
634.15	26932.54
634.30	27232.13
634.45	27204.05
634.60	27339.80
634.75	27412.35
634.90	27194.68
635.05	27349.16
635.19	27213.41
635.34	27243.84
635.49	27407.67
635.64	27377.25
635.79	27028.51
635.94	27353.84
636.09	27285.97
636.24	27019.14
636.39	27096.38
636.53	26944.25
636.68	26457.42
636.83	27051.91
636.98	27285.97
637.13	27012.12
637.28	27297.67
637.43	27477.89
637.57	27466.19
637.72	26630.62
637.87	26827.22
638.02	26888.07
638.17	26925.52
638.32	26803.82
638.46	26888.07
638.61	27117.45
638.76	26675.09
638.91	26267.83
639.06	26560.40
639.20	27330.44
639.35	26808.50
639.50	26553.38
639.65	27016.80
639.80	27236.81
639.94	27124.47
640.09	26644.66
640.24	26749.98
640.39	26693.81
640.54	26403.58
640.68	26242.09
640.83	26731.26
640.98	26560.40
641.13	26345.07
641.27	26663.38
641.42	26466.78
641.57	26579.12
641.72	26773.39
641.86	26225.70
642.01	26487.84
642.16	26450.39
642.31	26579.12
642.45	26139.10
642.60	26127.40
642.75	26316.98
642.90	26202.30
643.04	26206.98
643.19	26225.70
643.34	26398.90
643.48	26265.49
643.63	26251.45
643.78	26052.50
643.93	26471.46
644.07	26132.08
644.22	26342.73
644.37	26602.53
644.51	26181.23
644.66	25902.71
644.81	26080.59
644.95	25888.67
645.10	25935.48
645.25	25923.77
645.39	25996.33
645.54	25862.92
645.69	26153.15
645.83	26134.42
645.98	26225.70
646.13	26466.78
646.27	26146.12
646.42	25799.73
646.57	26214.00
646.71	26005.69
646.86	25755.26
647.00	25905.05
647.15	25979.95
647.30	25790.36
647.44	25432.26
647.59	25947.18
647.74	25928.45
647.88	25757.60
648.03	25820.79
648.17	26001.01
648.32	26075.91
648.47	25757.60
648.61	25947.18
648.76	25757.60
648.90	26019.74
649.05	25715.47
649.20	25699.08
649.34	25722.49
649.49	25703.76
649.63	25521.20
649.78	25640.57
649.92	25568.01
650.07	25544.61
650.21	25240.34
650.36	25373.75
650.51	25247.36
650.65	25951.86
650.80	25570.35
650.94	25612.48
651.09	25516.52
651.23	25212.25
651.38	25088.20
651.52	25308.21
651.67	25467.37
651.81	25488.43
651.96	25668.66
652.10	25546.95
652.25	25338.64
652.39	25401.83
652.54	25570.35
652.68	25467.37
652.83	25338.64
652.97	25303.53
653.12	25160.76
653.26	25322.26
653.41	25305.87
653.55	25266.08
653.70	25120.97
653.84	25116.29
653.99	25123.31
654.13	24933.73
654.27	25359.70
654.42	25078.84
654.56	25355.02
654.71	25348.00
654.85	25104.59
655.00	25418.22
655.14	25205.23
655.29	24924.36
655.43	25371.41
655.57	24973.52
655.72	24767.55
655.86	24762.87
656.01	24898.62
656.15	24657.54
656.30	24758.19
656.44	24751.17
656.58	24526.47
656.73	24528.81
656.87	24727.76
657.01	24821.38
657.16	24807.34
657.30	24992.24
657.45	24430.51
657.59	24615.41
657.73	24542.86
657.88	24538.18
658.02	24636.48
658.16	24716.06
658.31	24741.80
658.45	24294.76
658.60	24491.37
658.74	24634.14
658.88	24432.85
659.03	24540.52
659.17	24568.60
659.31	24343.91
659.46	24264.33
659.60	24872.87
659.74	24269.01
659.89	24240.93
660.03	24245.61
660.17	24388.38
660.32	23866.44
660.46	24095.82
660.60	24105.18
660.74	23843.04
660.89	24198.80
661.03	23770.48
661.17	23974.11
661.32	24067.73
661.46	24034.96
661.60	23946.02
661.74	24149.65
661.89	24191.78
662.03	24362.64
662.17	23826.65
662.31	23955.38
662.46	23573.88
662.60	23697.92
662.74	23688.56
662.88	23365.57
663.03	23910.91
663.17	23520.04
663.31	23627.71
663.45	23379.61
663.60	23480.25
663.74	23211.09
663.88	23522.38
664.02	23447.49
664.17	23314.08
664.31	23484.94
664.45	23381.95
664.59	23323.44
664.73	23075.34
664.88	23063.64
665.02	22932.57
665.16	23227.48
665.30	23145.56
665.44	23517.70
665.59	23152.58
665.73	22754.69
665.87	22998.10
666.01	23271.95
666.15	23098.75
666.29	22939.59
666.44	22808.52
666.58	22703.20
666.72	23103.43
666.86	22679.79
667.00	22934.91
667.14	22553.40
667.28	22878.74
667.43	22286.58
667.57	22775.75
667.71	22771.07
667.85	22377.86
667.99	22548.72
668.13	22672.77
668.27	22490.21
668.41	22368.50
668.56	22104.02
668.70	22918.53
668.84	22750.01
668.98	22338.07
669.12	22410.63
669.26	22335.73
669.40	22546.38
669.54	22099.34
669.68	22176.58
669.82	21884.01
669.96	21991.67
670.10	21893.37
670.25	21944.86
670.39	22047.85
670.53	22097.00
670.67	21872.31
670.81	21827.84
670.95	22101.68
671.09	21869.97
671.23	21769.32
671.37	22333.39
671.51	21706.13
671.65	21532.93
671.79	21804.43
671.93	21448.67
672.07	21734.21
672.21	21181.85
672.35	21439.31
672.49	21301.22
672.63	21699.11
672.77	21188.87
672.91	21266.11
673.05	21275.47
673.19	21067.16
673.33	21118.65
673.47	21282.49
673.61	21502.50
673.75	21046.10
673.89	20980.56
674.03	21308.24
674.17	21069.50
674.31	21095.25
674.45	20947.79
674.59	21172.49
674.73	21041.42
674.87	20664.59
675.01	20559.27
675.15	20566.29
675.29	20540.54
675.43	20624.80
675.56	20610.76
675.70	20425.86
675.84	20372.02
675.98	19920.30
676.12	20510.11
676.26	20615.44
676.40	20357.98
676.54	20383.73
676.68	20594.37
676.82	19779.87
676.96	20020.94
677.10	19845.40
677.23	19819.66
677.37	19829.02
677.51	19882.85
677.65	19690.93
677.79	19477.94
677.93	19594.96
678.07	19669.86
678.21	19557.52
678.34	19379.64
678.48	19267.29
678.62	19351.55
678.76	19241.54
678.90	19178.35
679.04	19288.35
679.18	19173.67
679.31	19028.56
679.45	18874.08
679.59	18525.34
679.73	18906.85
679.87	18644.71
680.00	18768.76
680.14	18628.32
680.28	18548.75
680.42	18831.95
680.56	18707.90
680.70	18375.55
680.83	18590.88
680.97	18401.29
681.11	18583.85
681.25	18424.70
681.39	18389.59
681.52	18171.92
681.66	18317.03
681.80	18045.53
681.94	18223.41
682.07	18160.22
682.21	17877.01
682.35	17628.92
682.49	17893.40
682.62	17996.38
682.76	17617.21
682.90	17816.16
683.04	17848.93
683.17	17972.97
683.31	18040.85
683.45	17830.20
683.59	17696.79
683.72	17565.72
683.86	17371.46
684.00	17640.62
684.13	17207.62
684.27	17071.87
684.41	17172.51
684.55	16905.69
684.68	17095.27
684.82	16915.05
684.96	16982.93
685.09	16709.08
685.23	16671.64
685.37	16776.96
685.50	16713.77
685.64	16992.29
685.78	16411.84
685.91	16629.51
686.05	16835.47
686.19	16444.60
686.32	16350.98
686.46	16521.84
686.60	16280.77
686.73	16355.66
686.87	16123.95
687.01	16126.29
687.14	16070.12
687.28	15852.45
687.42	15815.00
687.55	15716.70
687.69	15714.36
687.82	15793.94
687.96	16023.31
688.10	15775.21
688.23	15784.57
688.37	15634.78
688.50	15552.86
688.64	15779.89
688.78	15463.92
688.91	15452.22
689.05	15452.22
689.18	15225.18
689.32	15094.11
689.46	15171.35
689.59	15260.29
689.73	15033.26
689.86	15164.33
690.00	14949.00
690.13	15286.04
690.27	15152.63
690.41	15087.09
690.54	14939.64
690.68	15037.94
690.81	14869.42
690.95	14867.08
691.08	14705.59
691.22	14644.73
691.35	14630.69
691.49	14651.75
691.62	14417.70
691.76	14148.54
691.89	14246.84
692.03	14162.58
692.16	13982.36
692.30	14001.08
692.43	13994.06
692.57	13965.98
692.70	13795.12
692.84	13855.97
692.97	13912.14
693.11	14003.43
693.24	13818.52
693.38	13799.80
693.51	13848.95
693.65	13715.54
693.78	13692.13
693.92	13589.15
694.05	13523.62
694.19	13324.67
694.32	13338.71
694.45	13172.54
694.59	13144.45
694.72	13245.09
694.86	13116.36
694.99	12910.40
695.13	12945.50
695.26	12837.84
695.39	12996.99
695.53	13015.72
695.66	12762.94
695.80	12601.44
695.93	12901.03
696.07	12697.41
696.20	12830.82
696.33	12681.02
696.47	12507.82
696.60	12496.12
696.73	12547.61
696.87	12280.79
697.00	12444.63
697.14	12325.26
697.27	11971.84
697.40	11861.84
697.54	12065.46
697.67	11988.22
697.80	12166.10
697.94	11632.46
698.07	12009.29
698.21	11665.23
698.34	11763.53
698.47	12067.80
698.61	11627.78
698.74	11808.00
698.87	11908.65
699.01	11541.18
699.14	11552.88
699.27	11721.40
699.40	11534.16
699.54	11482.67
699.67	11349.26
699.80	11302.45
699.94	11171.38
700.07	11211.17
700.20	10977.11
700.34	11026.26
700.47	11173.72
700.60	11089.46
700.73	11098.82
700.87	11089.46
701.00	10998.18
701.13	10855.40
701.26	11037.97
701.40	11201.80
701.53	10707.95
701.66	10600.29
701.79	10511.35
701.93	10626.03
702.06	10504.32
702.19	10583.90
702.32	10541.77
702.46	10382.62
702.59	10258.57
702.72	10483.26
702.85	10253.89
702.99	10076.01
703.12	10186.01
703.25	10106.43
703.38	10211.76
703.51	10267.93
703.65	9947.28
703.78	10127.50
703.91	10153.24
704.04	10045.58
704.17	9832.59
704.31	9912.17
704.44	9839.61
704.57	9771.74
704.70	9547.05
704.83	9600.88
704.96	9659.39
705.10	9446.40
705.23	9668.75
>>>>>End Processed Spectral Data<<<<<
