SpectraSuite Data File
++++++++++++++++++++++++++++++++++++
Date: Fri Oct 18 13:58:26 GMT-05:00 2013
User: bianchi
Dark Spectrum Present: No
Reference Spectrum Present: No
Number of Sampled Component Spectra: 1
Spectrometers: USB2+H05261
Integration Time (usec): 50000 (USB2+H05261)
Spectra Averaged: 1 (USB2+H05261)
Boxcar Smoothing: 0 (USB2+H05261)
Correct for Electrical Dark: No (USB2+H05261)
Strobe/Lamp Enabled: No (USB2+H05261)
Correct for Detector Non-linearity: No (USB2+H05261)
Correct for Stray Light: No (USB2+H05261)
Number of Pixels in Processed Spectrum: 2048
>>>>>Begin Processed Spectral Data<<<<<
365.73	0.00
365.92	0.00
366.12	0.00
366.32	0.00
366.52	0.00
366.72	0.00
366.91	0.00
367.11	0.00
367.31	0.00
367.51	0.00
367.70	0.00
367.90	0.00
368.10	0.00
368.30	0.00
368.49	0.00
368.69	0.00
368.89	0.00
369.09	0.00
369.28	0.00
369.48	0.00
369.68	0.00
369.87	0.00
370.07	0.00
370.27	0.00
370.47	0.00
370.66	91.28
370.86	74.90
371.06	128.73
371.25	182.56
371.45	189.58
371.65	67.88
371.84	91.28
372.04	138.09
372.24	184.90
372.44	170.86
372.63	234.05
372.83	187.24
373.03	154.48
373.22	243.42
373.42	140.43
373.62	145.11
373.81	215.33
374.01	358.10
374.21	222.35
374.40	212.99
374.60	231.71
374.79	252.78
374.99	280.86
375.19	283.20
375.38	198.95
375.58	187.24
375.78	227.03
375.97	241.08
376.17	362.78
376.37	269.16
376.56	318.31
376.76	243.42
376.95	255.12
377.15	269.16
377.35	191.92
377.54	273.84
377.74	243.42
377.93	311.29
378.13	416.62
378.33	264.48
378.52	264.48
378.72	255.12
378.91	315.97
379.11	299.59
379.31	245.76
379.50	266.82
379.70	248.10
379.89	365.12
380.09	250.44
380.28	245.76
380.48	280.86
380.68	330.02
380.87	318.31
381.07	365.12
381.26	372.15
381.46	308.95
381.65	325.33
381.85	262.14
382.04	297.25
382.24	308.95
382.43	351.08
382.63	334.70
382.83	351.08
383.02	327.68
383.22	313.63
383.41	374.49
383.61	386.19
383.80	390.87
384.00	379.17
384.19	400.23
384.39	402.57
384.58	313.63
384.78	428.32
384.97	372.15
385.17	383.85
385.36	325.33
385.56	421.30
385.75	367.46
385.95	337.04
386.14	334.70
386.34	362.78
386.53	400.23
386.72	409.59
386.92	379.17
387.11	386.19
387.31	409.59
387.50	458.74
387.70	388.53
387.89	414.27
388.09	449.38
388.28	388.53
388.48	421.30
388.67	472.79
388.86	414.27
389.06	463.43
389.25	454.06
389.45	442.36
389.64	491.51
389.84	425.98
390.03	547.69
390.22	440.02
390.42	414.27
390.61	437.68
390.81	503.22
391.00	557.05
391.19	519.60
391.39	433.00
391.58	500.87
391.78	489.17
391.97	552.37
392.16	472.79
392.36	596.84
392.55	554.71
392.75	615.56
392.94	496.19
393.13	484.49
393.33	491.51
393.52	599.18
393.71	606.20
393.91	671.73
394.10	594.50
394.29	582.79
394.49	566.41
394.68	624.92
394.88	521.94
395.07	645.99
395.26	662.37
395.46	636.63
395.65	631.94
395.84	582.79
396.04	596.84
396.23	622.58
396.42	596.84
396.62	723.23
396.81	739.61
397.00	662.37
397.19	622.58
397.39	690.46
397.58	741.95
397.77	664.71
397.97	676.41
398.16	784.08
398.35	690.46
398.55	645.99
398.74	795.78
398.93	739.61
399.12	716.20
399.32	678.76
399.51	624.92
399.70	777.06
399.90	753.65
400.09	741.95
400.28	732.59
400.47	809.83
400.67	791.10
400.86	856.64
401.05	744.29
401.24	795.78
401.44	798.12
401.63	809.83
401.82	828.55
402.01	739.61
402.21	795.78
402.40	774.72
402.59	917.49
402.78	868.34
402.97	894.08
403.17	938.55
403.36	856.64
403.55	875.36
403.74	873.02
403.93	908.13
404.13	938.55
404.32	866.00
404.51	856.64
404.70	929.19
404.89	849.61
405.09	936.21
405.28	894.08
405.47	971.32
405.66	976.00
405.85	985.37
406.05	987.71
406.24	1050.90
406.43	1050.90
406.62	1043.88
406.81	1053.24
407.00	1020.47
407.20	1006.43
407.39	952.60
407.58	1057.92
407.77	990.05
407.96	1008.77
408.15	1029.84
408.34	1041.54
408.54	1116.44
408.73	1029.84
408.92	1123.46
409.11	1123.46
409.30	1114.10
409.49	1139.84
409.68	1149.20
409.87	1203.04
410.07	1121.12
410.26	1177.29
410.45	1184.31
410.64	1249.85
410.83	1184.31
411.02	1203.04
411.21	1280.27
411.40	1348.15
411.59	1235.80
411.78	1146.86
411.98	1188.99
412.17	1338.79
412.36	1334.11
412.55	1289.64
412.74	1331.76
412.93	1308.36
413.12	1362.19
413.31	1315.38
413.50	1306.02
413.69	1448.79
413.88	1364.53
414.07	1427.73
414.26	1385.60
414.45	1439.43
414.64	1439.43
414.83	1439.43
415.02	1455.81
415.22	1437.09
415.41	1565.82
415.60	1439.43
415.79	1540.07
415.98	1467.52
416.17	1514.33
416.36	1511.99
416.55	1614.97
416.74	1699.23
416.93	1584.54
417.12	1631.35
417.31	1654.76
417.50	1612.63
417.69	1713.27
417.88	1741.36
418.07	1671.14
418.26	1713.27
418.45	1717.95
418.64	1741.36
418.83	1802.21
419.02	1837.32
419.21	1849.02
419.39	1753.06
419.58	1727.32
419.77	1823.28
419.96	1853.70
420.15	1933.28
420.34	1944.99
420.53	1872.43
420.72	1900.52
420.91	1980.09
421.10	1975.41
421.29	1966.05
421.48	1956.69
421.67	2008.18
421.86	2022.22
422.05	1998.82
422.24	1912.22
422.43	1952.01
422.61	1879.45
422.80	2043.29
422.99	1994.14
423.18	2113.50
423.37	1966.05
423.56	1973.07
423.75	1961.37
423.94	1961.37
424.13	1809.23
424.32	1940.30
424.50	2010.52
424.69	2012.86
424.88	2064.35
425.07	2008.18
425.26	1968.39
425.45	1935.62
425.64	1984.77
425.83	2005.84
426.01	2008.18
426.20	2057.33
426.39	2036.27
426.58	1982.43
426.77	2104.14
426.96	2099.46
427.15	2111.16
427.33	2078.40
427.52	2113.50
427.71	2207.13
427.90	1970.73
428.09	2115.84
428.28	2172.02
428.46	2076.06
428.65	2064.35
428.84	2258.62
429.03	2197.76
429.22	2167.34
429.40	2251.60
429.59	2307.77
429.78	2029.24
429.97	2223.51
430.16	2296.07
430.34	2282.02
430.53	2317.13
430.72	2291.38
430.91	2312.45
431.10	2284.36
431.28	2298.41
431.47	2399.05
431.66	2443.52
431.85	2373.30
432.03	2431.82
432.22	2466.92
432.41	2387.35
432.60	2436.50
432.79	2408.41
432.97	2415.43
433.16	2373.30
433.35	2363.94
433.54	2473.95
433.72	2504.37
433.91	2499.69
434.10	2457.56
434.28	2478.63
434.47	2633.10
434.66	2518.42
434.85	2698.64
435.03	2593.31
435.22	2495.01
435.41	2672.89
435.59	2715.02
435.78	2621.40
435.97	2619.06
436.16	2637.78
436.34	2736.09
436.53	2668.21
436.72	2836.73
436.90	2609.70
437.09	2792.26
437.28	2651.83
437.46	2686.94
437.65	2668.21
437.84	2825.03
438.02	2726.72
438.21	2780.56
438.40	2801.62
438.58	2869.50
438.77	2984.18
438.96	2827.37
439.14	3035.67
439.33	2939.71
439.52	2979.50
439.70	2963.12
439.89	3007.59
440.08	3014.61
440.26	3075.46
440.45	3035.67
440.63	3103.55
440.82	2995.89
441.01	3112.91
441.19	3119.93
441.38	3141.00
441.57	3286.11
441.75	3150.36
441.94	3293.13
442.12	3258.03
442.31	3344.63
442.50	3225.26
442.68	3344.63
442.87	3375.05
443.05	3222.92
443.24	3283.77
443.43	3288.45
443.61	3328.24
443.80	3433.57
443.98	3370.37
444.17	3225.26
444.35	3363.35
444.54	3503.78
444.73	3428.88
444.91	3368.03
445.10	3375.05
445.28	3398.46
445.47	3449.95
445.65	3431.23
445.84	3370.37
446.02	3510.80
446.21	3323.56
446.39	3557.61
446.58	3541.23
446.77	3520.17
446.95	3531.87
447.14	3499.10
447.32	3496.76
447.51	3538.89
447.69	3414.84
447.88	3524.85
448.06	3386.76
448.25	3482.72
448.43	3538.89
448.62	3524.85
448.80	3487.40
448.99	3515.48
449.17	3524.85
449.36	3548.25
449.54	3796.35
449.73	3679.32
449.91	3768.26
450.10	3585.70
450.28	3630.17
450.46	3742.52
450.65	3660.60
450.83	3742.52
451.02	3702.73
451.20	3588.04
451.39	3791.67
451.57	3655.92
451.76	3602.08
451.94	3719.11
452.13	3861.88
452.31	3740.18
452.49	3859.54
452.68	3871.25
452.86	3852.52
453.05	3899.33
453.23	4004.66
453.42	3882.95
453.60	3854.86
453.78	3878.27
453.97	3859.54
454.15	3999.98
454.34	3925.08
454.52	4021.04
454.70	3894.65
454.89	3946.14
455.07	4025.72
455.26	4032.74
455.44	4140.41
455.62	3999.98
455.81	4095.94
455.99	4168.49
456.17	4180.20
456.36	4051.47
456.54	4217.65
456.73	4367.44
456.91	4255.09
457.09	4325.31
457.28	4472.76
457.46	4290.20
457.64	4458.72
457.83	4348.72
458.01	4304.25
458.19	4348.72
458.38	4337.01
458.56	4381.48
458.74	4475.10
458.93	4465.74
459.11	4374.46
459.29	4519.57
459.48	4374.46
459.66	4463.40
459.84	4353.40
460.03	4674.05
460.21	4678.73
460.39	4599.15
460.57	4552.34
460.76	4470.42
460.94	4589.79
461.12	4528.94
461.31	4617.88
461.49	4648.30
461.67	4594.47
461.85	4772.35
462.04	4603.83
462.22	4868.31
462.40	4725.54
462.59	4688.09
462.77	4657.67
462.95	4702.14
463.13	4751.29
463.32	4861.29
463.50	4880.02
463.68	4851.93
463.86	4746.61
464.05	4877.68
464.23	4793.42
464.41	4926.83
464.59	4873.00
464.78	4830.87
464.96	4854.27
465.14	4868.31
465.32	5151.52
465.50	5053.22
465.69	4975.98
465.87	4947.89
466.05	5069.60
466.23	5011.09
466.41	5027.47
466.60	5107.05
466.78	5167.90
466.96	4973.64
467.14	5018.11
467.32	5114.07
467.51	5104.71
467.69	5097.69
467.87	5011.09
468.05	5118.75
468.23	5060.24
468.41	5048.54
468.60	5043.85
468.78	5170.24
468.96	5177.26
469.14	5303.65
469.32	5245.14
469.50	5090.67
469.69	5467.49
469.87	5446.43
470.05	5390.25
470.23	5437.06
470.41	5490.90
470.59	5462.81
470.77	5444.09
470.95	5476.85
471.14	5547.07
471.32	5554.09
471.50	5483.88
471.68	5671.12
471.86	5692.18
472.04	5561.11
472.22	5706.23
472.40	5600.90
472.58	5741.33
472.77	5827.93
472.95	5795.17
473.13	5905.17
473.31	5863.04
473.49	5776.44
473.67	5799.85
473.85	5849.00
474.03	6024.54
474.21	6076.03
474.39	5891.13
474.57	6045.60
474.75	6052.63
474.93	6190.72
475.12	6136.88
475.30	6246.89
475.48	6209.44
475.66	6150.93
475.84	6359.24
476.02	6314.77
476.20	6375.62
476.38	6527.75
476.56	6539.46
476.74	6586.27
476.92	6530.09
477.10	6410.73
477.28	6478.60
477.46	6558.18
477.64	6581.59
477.82	6626.06
478.00	6986.50
478.18	6719.68
478.36	6937.35
478.54	7059.06
478.72	7101.19
478.90	7176.08
479.08	6984.16
479.26	7183.10
479.44	7236.94
479.62	7229.91
479.80	7461.63
479.98	7524.82
480.16	7627.81
480.34	7517.80
480.52	7543.55
480.70	7616.10
480.88	7576.31
481.06	7679.30
481.24	7609.08
481.41	7812.71
481.59	7875.90
481.77	7981.23
481.95	8063.15
482.13	7896.97
482.31	8030.38
482.49	8360.39
482.67	8119.32
482.85	8304.22
483.03	8505.51
483.21	8585.08
483.39	8517.21
483.57	8528.91
483.74	8887.01
483.92	8549.98
484.10	8585.08
484.28	8755.94
484.46	8844.88
484.64	9179.58
484.82	9013.40
485.00	8828.50
485.18	9123.41
485.35	9451.08
485.53	9460.45
485.71	9488.53
485.89	9589.17
486.07	9504.92
486.25	9507.26
486.43	9525.98
486.61	9605.56
486.78	9783.44
486.96	9982.38
487.14	9968.34
487.32	10040.90
487.50	9909.83
487.68	10258.57
487.85	10326.44
488.03	10445.81
488.21	10609.65
488.39	10452.83
488.57	10574.54
488.75	10846.04
488.92	10930.30
489.10	10665.82
489.28	10974.77
489.46	11154.99
489.64	11215.85
489.81	11311.81
489.99	11346.92
490.17	11510.75
490.35	11353.94
490.53	11367.98
490.70	11499.05
490.88	11688.64
491.06	11740.13
491.24	11918.01
491.41	11836.09
491.59	11976.52
491.77	11882.90
491.95	12205.89
492.13	12035.03
492.30	12259.73
492.48	12313.56
492.66	12299.52
492.84	12301.86
493.01	12355.69
493.19	12297.17
493.37	12613.15
493.54	12776.98
493.72	12952.52
493.90	12727.83
494.08	12872.95
494.25	13001.68
494.43	13111.68
494.61	13188.92
494.79	13275.52
494.96	13088.28
495.14	13460.42
495.32	13392.55
495.49	13343.39
495.67	13781.07
495.85	13797.46
496.02	13771.71
496.20	13764.69
496.38	13919.17
496.55	14017.47
496.73	14288.97
496.91	14230.46
497.09	14171.94
497.26	14471.53
497.44	14345.14
497.62	14148.54
497.79	14551.11
497.97	14487.92
498.14	14775.80
498.32	14836.66
498.50	14913.89
498.67	14782.82
498.85	14981.77
499.03	15089.43
499.20	14963.04
499.38	15133.90
499.56	15255.61
499.73	15314.13
499.91	15225.18
500.08	15398.38
500.26	15243.91
500.44	15538.82
500.61	15342.21
500.79	15419.45
500.97	15789.25
501.14	15941.39
501.32	15672.23
501.49	15613.71
501.67	15824.36
501.84	15915.64
502.02	15681.59
502.20	15920.32
502.37	16072.46
502.55	16027.99
502.72	16231.62
502.90	16236.30
503.07	16173.10
503.25	16449.28
503.43	16212.89
503.60	16168.42
503.78	16791.00
503.95	16613.12
504.13	16758.24
504.30	16456.31
504.48	16465.67
504.65	16685.68
504.83	16959.52
505.01	16758.24
505.18	16807.39
505.36	17076.55
505.53	16753.55
505.71	17057.82
505.88	17043.78
506.06	16833.13
506.23	16999.31
506.41	17341.03
506.58	17128.04
506.76	17345.71
506.93	17556.36
507.11	17298.90
507.28	17556.36
507.46	17738.92
507.63	17668.70
507.81	17933.18
507.98	17586.79
508.16	18040.85
508.33	17439.33
508.50	17944.89
508.68	17900.42
508.85	17851.27
509.03	17954.25
509.20	18480.87
509.38	18307.67
509.55	18370.86
509.73	18244.48
509.90	18258.52
510.08	18302.99
510.25	18356.82
510.42	18218.73
510.60	18443.42
510.77	18728.97
510.95	18621.30
511.12	18862.38
511.30	18544.06
511.47	18705.56
511.64	19058.98
511.82	18897.49
511.99	18721.95
512.17	19157.28
512.34	18986.43
512.51	19302.40
512.69	19152.60
512.86	19232.18
513.04	19278.99
513.21	19433.47
513.38	19417.08
513.56	19433.47
513.73	19653.48
513.90	19372.61
514.08	19653.48
514.25	19531.77
514.43	19672.20
514.60	19786.89
514.77	19520.07
514.95	19796.25
515.12	19683.91
515.29	19789.23
515.47	19889.87
515.64	19999.88
515.81	19791.57
515.99	20250.32
516.16	20350.96
516.33	20205.84
516.51	20175.42
516.68	20245.63
516.85	20243.29
517.03	20292.44
517.20	20463.30
517.37	20498.41
517.54	20538.20
517.72	20414.15
517.89	20538.20
518.06	20669.27
518.24	20652.89
518.41	20531.18
518.58	20702.04
518.75	20842.47
518.93	20807.36
519.10	20648.21
519.27	21118.65
519.45	21015.67
519.62	21036.74
519.79	20772.25
519.96	21144.40
520.14	21088.23
520.31	20989.92
520.48	21376.11
520.65	21212.28
520.83	21289.51
521.00	21371.43
521.17	21118.65
521.34	21228.66
521.52	21724.85
521.69	21975.29
521.86	21586.76
522.03	21624.21
522.20	21905.07
522.38	21750.60
522.55	21656.98
522.72	21649.96
522.89	21956.57
523.07	21673.36
523.24	21905.07
523.41	22068.91
523.58	22026.78
523.75	21933.16
523.92	22141.47
524.10	22270.20
524.27	22134.45
524.44	22546.38
524.61	22307.65
524.78	22537.02
524.96	22104.02
525.13	22462.12
525.30	22445.74
525.47	22537.02
525.64	22312.33
525.81	22576.81
525.98	22759.37
526.16	22789.80
526.33	22455.10
526.50	22867.03
526.67	22642.34
526.84	22757.03
527.01	22941.93
527.18	22801.50
527.36	22927.89
527.53	22761.71
527.70	23180.67
527.87	22831.93
528.04	23077.68
528.21	23337.48
528.38	23204.07
528.55	23143.22
528.72	22927.89
528.89	23374.93
529.07	23400.68
529.24	23154.92
529.41	23330.46
529.58	23438.12
529.75	23424.08
529.92	23225.14
530.09	23690.90
530.26	23597.28
530.43	23623.03
530.60	23410.04
530.77	23503.66
530.94	23878.15
531.11	23587.92
531.28	23735.37
531.46	24105.18
531.63	23791.55
531.80	23861.76
531.97	24126.24
532.14	24240.93
532.31	23920.28
532.48	24156.67
532.65	24238.59
532.82	23868.78
532.99	23976.45
533.16	24285.40
533.33	24458.60
533.50	24292.42
533.67	24219.86
533.84	23992.83
534.01	24404.77
534.18	24208.16
534.35	24037.30
534.52	24580.31
534.69	24411.79
534.86	24374.34
535.03	24425.83
535.20	24524.13
535.37	24257.31
535.54	24528.81
535.71	24133.26
535.88	24945.43
536.05	24685.63
536.22	24797.98
536.38	24783.93
536.55	25153.74
536.72	24755.85
536.89	25006.28
537.06	24882.24
537.23	24992.24
537.40	24926.71
537.57	25156.08
537.74	24985.22
537.91	25273.10
538.08	25046.07
538.25	25174.80
538.42	25228.63
538.59	25392.47
538.75	24741.80
538.92	25170.12
539.09	25507.16
539.26	25614.82
539.43	25745.89
539.60	25060.12
539.77	25385.45
539.94	25591.42
540.11	25645.25
540.28	25436.94
540.44	25577.37
540.61	25408.86
540.78	25577.37
540.95	25350.34
541.12	25788.02
541.29	25458.01
541.46	25825.47
541.62	25575.03
541.79	25687.38
541.96	25350.34
542.13	25420.56
542.30	25757.60
542.47	25872.28
542.63	26232.72
542.80	25820.79
542.97	26057.18
543.14	26050.16
543.31	26087.61
543.48	26183.57
543.64	26520.61
543.81	26464.44
543.98	26249.11
544.15	26281.88
544.32	26209.32
544.48	26565.08
544.65	26008.03
544.82	26094.63
544.99	26775.73
545.16	26209.32
545.32	26195.28
545.49	26553.38
545.66	27269.58
545.83	26764.03
546.00	27014.46
546.16	26487.84
546.33	26675.09
546.50	26345.07
546.67	26927.86
546.83	26410.60
547.00	26726.58
547.17	27087.02
547.34	26576.78
547.50	26808.50
547.67	27339.80
547.84	26988.72
548.00	27229.79
548.17	27171.28
548.34	26639.98
548.51	27225.11
548.67	27297.67
548.84	27161.92
549.01	27297.67
549.18	27374.91
549.34	27236.81
549.51	27206.39
549.68	27648.75
549.84	27161.92
550.01	27484.91
550.18	27131.49
550.34	27693.22
550.51	27328.10
550.68	27613.64
550.84	27159.58
551.01	27482.57
551.18	26986.38
551.34	27204.05
551.51	27426.40
551.68	27377.25
551.84	27557.47
552.01	27208.73
552.18	27707.26
552.34	27653.43
552.51	27754.07
552.68	27482.57
552.84	27903.87
553.01	27805.56
553.18	27711.94
553.34	27922.59
553.51	27740.03
553.67	27658.11
553.84	27934.29
554.01	28362.61
554.17	27779.82
554.34	27648.75
554.51	28002.17
554.67	27976.42
554.84	28163.67
555.00	27793.86
555.17	27814.93
555.33	27955.36
555.50	27974.08
555.67	28044.30
555.83	27843.01
556.00	28100.47
556.16	28341.55
556.33	28105.15
556.50	28299.42
556.66	28606.03
556.83	27873.44
556.99	28596.67
557.16	28212.82
557.32	28390.70
557.49	28002.17
557.65	28140.26
557.82	28271.33
557.98	28568.58
558.15	28355.59
558.32	28407.08
558.48	28222.18
558.65	28496.02
558.81	28465.60
558.98	28268.99
559.14	28320.48
559.31	28500.70
559.47	28414.10
559.64	28936.04
559.80	28699.65
559.97	28725.39
560.13	28175.37
560.30	28425.81
560.46	28655.18
560.63	28650.50
560.79	28940.72
560.96	29001.58
561.12	28280.69
561.29	28648.16
561.45	28505.38
561.61	28751.14
561.78	29137.33
561.94	28713.69
562.11	28746.46
562.27	28732.42
562.44	28889.23
562.60	28549.85
562.77	28589.64
562.93	28577.94
563.10	29137.33
563.26	28584.96
563.42	29394.79
563.59	28830.72
563.75	29088.18
563.92	28844.76
564.08	29160.73
564.24	28989.88
564.41	28636.45
564.57	28776.89
564.74	28952.43
564.90	28952.43
565.07	28643.48
565.23	29132.65
565.39	29287.12
565.56	28954.77
565.72	28933.70
565.88	28978.17
566.05	29165.42
566.21	29179.46
566.38	28950.09
566.54	29209.89
566.70	29319.89
566.87	29153.71
567.03	29113.92
567.19	29523.52
567.36	29029.66
567.52	29219.25
567.68	29544.58
567.85	29340.96
568.01	29603.10
568.17	29022.64
568.34	29912.05
568.50	29205.20
568.66	29273.08
568.83	29212.23
568.99	29247.33
569.15	29457.98
569.32	29383.09
569.48	29359.68
569.64	29542.24
569.81	29364.36
569.97	29469.69
570.13	29326.91
570.30	29289.46
570.46	29296.49
570.62	29364.36
570.78	29085.84
570.95	29071.79
571.11	29556.28
571.27	28917.32
571.43	29378.40
571.60	29275.42
571.76	29553.94
571.92	29326.91
572.09	29209.89
572.25	29345.64
572.41	29392.45
572.57	29642.88
572.74	29495.43
572.90	29528.20
573.06	29352.66
573.22	29352.66
573.38	29537.56
573.55	29736.51
573.71	29687.36
573.87	29556.28
574.03	29521.18
574.20	29525.86
574.36	29488.41
574.52	29528.20
574.68	29652.25
574.84	29481.39
575.01	29640.54
575.17	29631.18
575.33	29244.99
575.49	29551.60
575.65	29134.99
575.82	29708.42
575.98	29675.65
576.14	29589.05
576.30	29785.66
576.46	29659.27
576.62	29612.46
576.79	29558.63
576.95	29415.85
577.11	29347.98
577.27	29935.45
577.43	29556.28
577.59	29818.42
577.75	29422.87
577.92	29263.72
578.08	29160.73
578.24	29486.07
578.40	29326.91
578.56	29509.47
578.72	29642.88
578.88	29940.13
579.04	29790.34
579.21	29841.83
579.37	29631.18
579.53	29696.72
579.69	29408.83
579.85	29610.12
580.01	29722.46
580.17	29287.12
580.33	29736.51
580.49	29411.17
580.65	29518.84
580.82	29785.66
580.98	29783.32
581.14	29345.64
581.30	29851.19
581.46	29605.44
581.62	29638.20
581.78	29397.13
581.94	29867.58
582.10	29560.97
582.26	29474.37
582.42	29633.52
582.58	29883.96
582.74	29851.19
582.90	29720.12
583.06	29600.76
583.22	29551.60
583.38	29879.28
583.54	29940.13
583.70	29757.57
583.86	29860.55
584.02	29542.24
584.18	30218.66
584.34	29748.21
584.50	30082.91
584.66	29776.30
584.82	29642.88
584.98	29635.86
585.14	29677.99
585.30	29710.76
585.46	29837.15
585.62	29584.37
585.78	29947.15
585.94	29296.49
586.10	30015.03
586.26	29902.68
586.42	29827.79
586.58	29958.86
586.74	29790.34
586.90	29701.40
587.06	29610.12
587.22	29816.08
587.38	29935.45
587.54	30127.38
587.70	30146.10
587.86	30015.03
588.02	29804.38
588.18	30089.93
588.34	30096.95
588.49	29780.98
588.65	30251.42
588.81	29890.98
588.97	30148.44
589.13	29745.87
589.29	29788.00
589.45	29785.66
589.61	30003.33
589.77	30396.54
589.93	30267.81
590.08	30279.51
590.24	30099.29
590.40	30089.93
590.56	29954.18
590.72	29825.45
590.88	29989.28
591.04	29788.00
591.20	30349.73
591.35	30438.67
591.51	30581.44
591.67	30333.34
591.83	30574.42
591.99	30094.61
592.15	30190.57
592.31	30288.87
592.46	30251.42
592.62	29907.37
592.78	30178.87
592.94	30368.45
593.10	30010.35
593.26	30167.16
593.41	30314.62
593.57	30270.15
593.73	30033.75
593.89	30036.09
594.05	30473.78
594.20	29881.62
594.36	29933.11
594.52	30113.33
594.68	29905.02
594.84	30188.23
594.99	30302.92
595.15	30071.20
595.31	30223.34
595.47	30281.85
595.62	30663.36
595.78	30197.59
595.94	29860.55
596.10	30452.71
596.25	30216.32
596.41	29993.97
596.57	30031.41
596.73	30560.37
596.88	30270.15
597.04	30157.80
597.20	30539.31
597.36	30391.86
597.51	30721.87
597.67	30309.94
597.83	30195.25
597.99	30490.16
598.14	30122.69
598.30	30143.76
598.46	30251.42
598.61	30520.59
598.77	30197.59
598.93	30267.81
599.09	30213.98
599.24	30630.59
599.40	30764.00
599.56	30387.18
599.71	30572.08
599.87	30295.89
600.03	30668.04
600.18	30387.18
600.34	30157.80
600.50	30333.34
600.65	30078.22
600.81	30452.71
600.97	30417.60
601.12	30499.52
601.28	30927.84
601.44	30417.60
601.59	30630.59
601.75	30752.30
601.91	30639.95
602.06	30160.14
602.22	30218.66
602.37	30199.93
602.53	30277.17
602.69	30113.33
602.84	30492.50
603.00	30305.26
603.16	30499.52
603.31	30455.05
603.47	30415.26
603.62	30426.96
603.78	30471.43
603.94	30368.45
604.09	30536.97
604.25	30110.99
604.40	30455.05
604.56	30162.48
604.71	30366.11
604.87	30192.91
605.03	30712.51
605.18	30623.57
605.34	30015.03
605.49	30410.58
605.65	30134.40
605.80	30183.55
605.96	30375.47
606.12	30471.43
606.27	30522.93
606.43	30398.88
606.58	30398.88
606.74	30466.75
606.89	30331.00
607.05	30178.87
607.20	30738.26
607.36	30319.30
607.51	30408.24
607.67	30213.98
607.82	30040.78
607.98	29783.32
608.13	30295.89
608.29	30202.27
608.44	30237.38
608.60	30118.01
608.75	30422.28
608.91	30094.61
609.06	30462.07
609.22	30244.40
609.37	29682.67
609.53	29944.81
609.68	29942.47
609.84	30064.18
609.99	30134.40
610.15	30267.81
610.30	29797.36
610.46	30288.87
610.61	30373.13
610.76	30476.12
610.92	30162.48
611.07	29883.96
611.23	30356.75
611.38	29708.42
611.54	30010.35
611.69	30132.06
611.84	30012.69
612.00	29841.83
612.15	29898.00
612.31	30291.21
612.46	29949.50
612.62	29963.54
612.77	30150.78
612.92	30141.42
613.08	29532.88
613.23	29890.98
613.39	29436.92
613.54	29830.13
613.69	29612.46
613.85	29549.26
614.00	29738.85
614.15	29654.59
614.31	29472.03
614.46	30429.30
614.62	29839.49
614.77	29907.37
614.92	29851.19
615.08	29694.38
615.23	29797.36
615.38	30036.09
615.54	29689.70
615.69	29287.12
615.84	29631.18
616.00	29537.56
616.15	29680.33
616.30	29240.31
616.46	29752.89
616.61	29783.32
616.76	29600.76
616.92	29446.28
617.07	29729.48
617.22	29289.46
617.37	29486.07
617.53	29778.64
617.68	29724.80
617.83	29572.67
617.99	29453.30
618.14	29303.51
618.29	29514.16
618.45	29116.26
618.60	29575.01
618.75	29518.84
618.90	29296.49
619.06	29254.36
619.21	29158.39
619.36	29415.85
619.51	29095.20
619.67	29085.84
619.82	29219.25
619.97	29373.72
620.12	29043.71
620.28	28954.77
620.43	29369.04
620.58	29649.91
620.73	29195.84
620.89	29268.40
621.04	29333.93
621.19	29481.39
621.34	29090.52
621.49	28765.18
621.65	29132.65
621.80	29048.39
621.95	28910.30
622.10	28999.24
622.25	28828.38
622.41	29221.59
622.56	29010.94
622.71	29165.42
622.86	28961.79
623.01	29240.31
623.16	29039.03
623.32	28767.52
623.47	29186.48
623.62	28905.62
623.77	28943.06
623.92	28814.34
624.07	28727.74
624.23	28507.72
624.38	28819.02
624.53	28758.16
624.68	28978.17
624.83	29078.82
624.98	29156.05
625.13	28704.33
625.29	29172.44
625.44	28636.45
625.59	28774.55
625.74	28589.64
625.89	28641.14
626.04	28329.84
626.19	28397.72
626.34	28402.40
626.49	28418.78
626.65	28456.23
626.80	29116.26
626.95	28147.28
627.10	28767.52
627.25	28336.87
627.40	28402.40
627.55	28371.97
627.70	28245.58
627.85	28140.26
628.00	28084.09
628.15	28376.66
628.30	27950.68
628.45	28224.52
628.60	28243.24
628.76	28397.72
628.91	28573.26
629.06	28634.11
629.21	28259.63
629.36	28627.09
629.51	28107.49
629.66	28346.23
629.81	27740.03
629.96	28053.66
630.11	28158.99
630.26	28051.32
630.41	27976.42
630.56	27924.93
630.71	27988.13
630.86	27995.15
631.01	28154.30
631.16	28268.99
631.31	27978.76
631.46	27850.03
631.61	27697.90
631.76	28081.75
631.91	27711.94
632.06	27730.67
632.21	27845.35
632.36	28177.71
632.51	27697.90
632.66	27690.88
632.81	27711.94
632.96	27861.74
633.10	27819.61
633.25	27974.08
633.40	27763.43
633.55	27880.46
633.70	27524.70
633.85	27569.17
634.00	27613.64
634.15	27899.19
634.30	27817.27
634.45	27854.72
634.60	27449.80
634.75	27449.80
634.90	27297.67
635.05	27871.10
635.19	27672.15
635.34	27367.88
635.49	27480.23
635.64	27316.39
635.79	27498.95
635.94	27246.18
636.09	27428.74
636.24	27166.60
636.39	27161.92
636.53	27171.28
636.68	27009.78
636.83	27262.56
636.98	27414.69
637.13	27119.79
637.28	27321.07
637.43	27508.32
637.57	27367.88
637.72	27395.97
637.87	27211.07
638.02	27206.39
638.17	27194.68
638.32	27166.60
638.46	27091.70
638.61	26991.06
638.76	27009.78
638.91	26955.95
639.06	26885.73
639.20	27288.31
639.35	27285.97
639.50	27192.34
639.65	27241.50
639.80	27316.39
639.94	26855.31
640.09	26986.38
640.24	26916.16
640.39	26696.15
640.54	26766.37
640.68	27058.93
640.83	26831.90
640.98	26539.33
641.13	26555.72
641.27	26621.25
641.42	26586.15
641.57	26434.01
641.72	26977.01
641.86	26478.48
642.01	26656.36
642.16	26511.25
642.31	26698.49
642.45	26494.86
642.60	26176.55
642.75	26518.27
642.90	26349.75
643.04	26757.00
643.19	26815.52
643.34	26490.18
643.48	26211.66
643.63	26595.51
643.78	26635.30
643.93	26642.32
644.07	26459.76
644.22	26831.90
644.37	26225.70
644.51	26731.26
644.66	26525.29
644.81	26380.18
644.95	26230.38
645.10	26359.11
645.25	26520.61
645.39	26333.37
645.54	26249.11
645.69	26422.31
645.83	26033.78
645.98	26270.17
646.13	26349.75
646.27	26508.91
646.42	26419.97
646.57	26403.58
646.71	25975.27
646.86	26394.22
647.00	25942.50
647.15	26167.19
647.30	26045.48
647.44	26036.12
647.59	25926.11
647.74	25792.70
647.88	26150.81
648.03	26249.11
648.17	26087.61
648.32	26235.06
648.47	26214.00
648.61	25912.07
648.76	26115.70
648.90	26157.83
649.05	25860.58
649.20	25907.39
649.34	25846.54
649.49	25956.54
649.63	25631.21
649.78	25579.71
649.92	25640.57
650.07	26045.48
650.21	25568.01
650.36	25883.98
650.51	25553.97
650.65	25851.22
650.80	25738.87
650.94	25781.00
651.09	25111.61
651.23	25876.96
651.38	25291.83
651.52	25656.95
651.67	25591.42
651.81	25621.84
651.96	25933.14
652.10	25448.64
652.25	25642.91
652.39	25610.14
652.54	25979.95
652.68	25450.99
652.83	25872.28
652.97	25500.14
653.12	25759.94
653.26	25553.97
653.41	25518.86
653.55	25310.55
653.70	25460.35
653.84	25340.98
653.99	25429.92
654.13	25249.70
654.27	25338.64
654.42	25352.68
654.56	25406.52
654.71	25125.65
654.85	25460.35
655.00	25235.66
655.14	25184.16
655.29	25350.34
655.43	25174.80
655.57	24907.98
655.72	25069.48
655.86	25027.35
656.01	25006.28
656.15	24795.64
656.30	24882.24
656.44	25238.00
656.58	25193.53
656.73	25156.08
656.87	24931.39
657.01	24929.05
657.16	25289.49
657.30	25350.34
657.45	25310.55
657.59	24893.94
657.73	24903.30
657.88	24994.58
658.02	24964.15
658.16	24767.55
658.31	24650.52
658.45	24631.80
658.60	24702.01
658.74	24594.35
658.88	24676.27
659.03	24730.10
659.17	24907.98
659.31	24678.61
659.46	24666.91
659.60	24622.44
659.74	24732.44
659.89	24559.24
660.03	24505.41
660.17	24470.30
660.32	24353.27
660.46	24411.79
660.60	24407.11
660.74	24683.29
660.89	24489.03
661.03	24013.90
661.17	24538.18
661.32	24252.63
661.46	24313.48
661.60	24154.33
661.74	24367.32
661.89	24477.32
662.03	24306.46
662.17	24114.54
662.31	24009.22
662.46	23887.51
662.60	24093.47
662.74	24067.73
662.88	23871.12
663.03	23906.23
663.17	23828.99
663.31	23599.62
663.45	23590.26
663.60	23606.64
663.74	23824.31
663.88	23756.44
664.02	24011.56
664.17	24053.69
664.31	23910.91
664.45	23414.72
664.59	23372.59
664.73	23630.05
664.88	23480.25
665.02	23220.45
665.16	23379.61
665.30	23314.08
665.44	23278.97
665.59	23517.70
665.73	23339.82
665.87	23180.67
666.01	23482.59
666.15	23403.02
666.29	23175.98
666.44	22948.95
666.58	23236.84
666.72	22970.02
666.86	23044.91
667.00	23433.44
667.14	23061.30
667.28	22766.39
667.43	22991.08
667.57	23009.81
667.71	22920.87
667.85	22796.82
667.99	22703.20
668.13	22740.64
668.27	22747.67
668.41	23080.02
668.56	22850.65
668.70	22705.54
668.84	22885.76
668.98	22448.08
669.12	22689.15
669.26	22499.57
669.40	23002.78
669.54	22537.02
669.68	22359.14
669.82	22417.65
669.96	22403.61
670.10	22176.58
670.25	22054.87
670.39	22415.31
670.53	22185.94
670.67	21968.27
670.81	22230.41
670.95	21951.88
671.09	21862.94
671.23	22122.74
671.37	22141.47
671.51	22288.92
671.65	22239.77
671.79	22031.46
671.93	21916.78
672.07	21830.18
672.21	21530.59
672.35	21813.79
672.49	21546.97
672.63	21788.05
672.77	21521.23
672.91	21500.16
673.05	21689.74
673.19	21261.43
673.33	21790.39
673.47	21469.73
673.61	21399.52
673.75	21460.37
673.89	21233.34
674.03	21345.69
674.17	21404.20
674.31	21067.16
674.45	21364.41
674.59	21142.06
674.73	21507.18
674.87	21163.12
675.01	20966.52
675.15	20856.51
675.29	20807.36
675.43	20748.85
675.56	20985.24
675.70	20589.69
675.84	20538.20
675.98	20107.54
676.12	20903.32
676.26	20924.39
676.40	20760.55
676.54	20369.68
676.68	20262.02
676.82	20039.67
676.96	20458.62
677.10	20283.08
677.23	20016.26
677.37	19777.53
677.51	20205.84
677.65	19838.38
677.79	19974.13
677.93	19889.87
678.07	19672.20
678.21	19756.46
678.34	19843.06
678.48	19557.52
678.62	19412.40
678.76	19662.84
678.90	19431.13
679.04	19424.11
679.18	19241.54
679.31	19293.04
679.45	19129.20
679.59	19066.00
679.73	19122.18
679.87	19005.15
680.00	19042.60
680.14	19030.90
680.28	18937.27
680.42	18817.91
680.56	18654.07
680.70	18923.23
680.83	19110.47
680.97	18782.80
681.11	18836.63
681.25	18806.20
681.39	18551.09
681.52	18565.13
681.66	18195.32
681.80	17998.72
681.94	18504.28
682.07	18176.60
682.21	18127.45
682.35	18113.41
682.49	17877.01
682.62	17902.76
682.76	18043.19
682.90	17982.34
683.04	17767.01
683.17	17949.57
683.31	17921.48
683.45	17867.65
683.59	17563.38
683.72	17593.81
683.86	17617.21
684.00	17579.76
684.13	17460.40
684.27	17591.47
684.41	17371.46
684.55	17041.44
684.68	17074.21
684.82	17083.57
684.96	17153.79
685.09	16868.24
685.23	16929.09
685.37	16879.94
685.50	16905.69
685.64	16901.01
685.78	17123.36
685.91	17085.91
686.05	16912.71
686.19	16924.41
686.32	16706.74
686.46	16538.23
686.60	16388.43
686.73	16390.77
686.87	16233.96
687.01	16421.20
687.14	16128.63
687.28	16137.99
687.42	15995.22
687.55	15922.66
687.69	16166.08
687.82	15967.13
687.96	16121.61
688.10	16004.58
688.23	15831.38
688.37	16020.97
688.50	15899.26
688.64	15667.55
688.78	15985.86
688.91	15571.58
689.05	15714.36
689.18	15573.92
689.32	15276.68
689.46	15508.39
689.59	15314.13
689.73	15218.16
689.86	15112.84
690.00	15033.26
690.13	15419.45
690.27	14993.47
690.41	15005.17
690.54	14927.94
690.68	14944.32
690.81	15094.11
690.95	14932.62
691.08	14773.46
691.22	14642.39
691.35	14546.43
691.49	14689.20
691.62	14773.46
691.76	14633.03
691.89	14476.21
692.03	14265.57
692.16	14274.93
692.30	14047.90
692.43	14143.86
692.57	14097.05
692.70	14225.78
692.84	14057.26
692.97	14026.83
693.11	13933.21
693.24	13825.54
693.38	13855.97
693.51	13944.91
693.65	13865.33
693.78	13893.42
693.92	13757.67
694.05	13628.94
694.19	13633.62
694.32	13748.31
694.45	13678.09
694.59	13387.86
694.72	13289.56
694.86	13364.46
694.99	13104.66
695.13	13280.20
695.26	13195.94
695.39	13172.54
695.53	13294.24
695.66	12989.97
695.80	12826.14
695.93	12856.56
696.07	12828.48
696.20	12732.51
696.33	12823.80
696.47	12772.30
696.60	12608.47
696.73	12650.60
696.87	12734.85
697.00	12601.44
697.14	12343.99
697.27	12166.10
697.40	12255.04
697.54	12320.58
697.67	12175.47
697.80	12248.02
697.94	12170.79
698.07	11894.60
698.21	11946.09
698.34	12086.53
698.47	12175.47
698.61	11791.62
698.74	12102.91
698.87	11896.94
699.01	11822.05
699.14	11702.68
699.27	11700.34
699.40	11545.86
699.54	11690.98
699.67	11473.31
699.80	11435.86
699.94	11136.27
700.07	11288.40
700.20	11421.81
700.34	11236.91
700.47	11052.01
700.60	11068.39
700.73	11323.51
700.87	11171.38
701.00	11147.97
701.13	10904.56
701.26	11047.33
701.40	11178.40
701.53	10920.94
701.66	10864.77
701.79	10724.33
701.93	10736.04
702.06	10792.21
702.19	10817.96
702.32	10478.58
702.46	10740.72
702.59	10518.37
702.72	10406.02
702.85	10359.21
702.99	10464.54
703.12	10480.92
703.25	10319.42
703.38	10066.64
703.51	10085.37
703.65	10202.40
703.78	10132.18
703.91	10171.97
704.04	10085.37
704.17	10078.35
704.31	9991.75
704.44	10043.24
704.57	9914.51
704.70	9760.03
704.83	9785.78
704.96	9430.02
705.10	9516.62
705.23	9500.23
>>>>>End Processed Spectral Data<<<<<
