SpectraSuite Data File
++++++++++++++++++++++++++++++++++++
Date: Fri Oct 18 13:58:23 GMT-05:00 2013
User: bianchi
Dark Spectrum Present: No
Reference Spectrum Present: No
Number of Sampled Component Spectra: 1
Spectrometers: USB2+H05261
Integration Time (usec): 50000 (USB2+H05261)
Spectra Averaged: 1 (USB2+H05261)
Boxcar Smoothing: 0 (USB2+H05261)
Correct for Electrical Dark: No (USB2+H05261)
Strobe/Lamp Enabled: No (USB2+H05261)
Correct for Detector Non-linearity: No (USB2+H05261)
Correct for Stray Light: No (USB2+H05261)
Number of Pixels in Processed Spectrum: 2048
>>>>>Begin Processed Spectral Data<<<<<
365.73	0.00
365.92	0.00
366.12	0.00
366.32	0.00
366.52	0.00
366.72	0.00
366.91	0.00
367.11	0.00
367.31	0.00
367.51	0.00
367.70	0.00
367.90	0.00
368.10	0.00
368.30	0.00
368.49	0.00
368.69	0.00
368.89	0.00
369.09	0.00
369.28	0.00
369.48	0.00
369.68	0.00
369.87	0.00
370.07	0.00
370.27	0.00
370.47	0.00
370.66	119.37
370.86	131.07
371.06	88.94
371.25	194.26
371.45	88.94
371.65	168.52
371.84	205.97
372.04	156.82
372.24	196.60
372.44	180.22
372.63	210.65
372.83	231.71
373.03	177.88
373.22	180.22
373.42	220.01
373.62	161.50
373.81	208.31
374.01	280.86
374.21	236.39
374.40	266.82
374.60	257.46
374.79	191.92
374.99	308.95
375.19	273.84
375.38	266.82
375.58	217.67
375.78	266.82
375.97	276.18
376.17	280.86
376.37	287.89
376.56	273.84
376.76	217.67
376.95	187.24
377.15	283.20
377.35	285.55
377.54	269.16
377.74	276.18
377.93	231.71
378.13	220.01
378.33	330.02
378.52	248.10
378.72	311.29
378.91	229.37
379.11	318.31
379.31	241.08
379.50	304.27
379.70	353.42
379.89	266.82
380.09	285.55
380.28	248.10
380.48	231.71
380.68	301.93
380.87	217.67
381.07	351.08
381.26	348.74
381.46	337.04
381.65	442.36
381.85	330.02
382.04	369.80
382.24	362.78
382.43	351.08
382.63	449.38
382.83	269.16
383.02	374.49
383.22	374.49
383.41	217.67
383.61	353.42
383.80	367.46
384.00	393.21
384.19	311.29
384.39	428.32
384.58	353.42
384.78	386.19
384.97	379.17
385.17	304.27
385.36	379.17
385.56	388.53
385.75	386.19
385.95	341.72
386.14	418.96
386.34	433.00
386.53	397.89
386.72	386.19
386.92	423.64
387.11	507.90
387.31	425.98
387.50	524.28
387.70	458.74
387.89	397.89
388.09	440.02
388.28	449.38
388.48	372.15
388.67	454.06
388.86	425.98
389.06	458.74
389.25	505.56
389.45	416.62
389.64	463.43
389.84	531.30
390.03	519.60
390.22	444.70
390.42	458.74
390.61	456.40
390.81	423.64
391.00	564.07
391.19	575.77
391.39	533.64
391.58	505.56
391.78	519.60
391.97	596.84
392.16	498.53
392.36	550.03
392.55	610.88
392.75	486.83
392.94	526.62
393.13	484.49
393.33	599.18
393.52	636.63
393.71	580.45
393.91	503.22
394.10	610.88
394.29	603.86
394.49	521.94
394.68	629.60
394.88	596.84
395.07	704.50
395.26	552.37
395.46	678.76
395.65	613.22
395.84	662.37
396.04	624.92
396.23	653.01
396.42	690.46
396.62	671.73
396.81	650.67
397.00	636.63
397.19	751.31
397.39	650.67
397.58	671.73
397.77	669.39
397.97	685.78
398.16	645.99
398.35	667.05
398.55	692.80
398.74	688.12
398.93	786.42
399.12	774.72
399.32	692.80
399.51	716.20
399.70	786.42
399.90	746.63
400.09	709.18
400.28	795.78
400.47	697.48
400.67	711.52
400.86	828.55
401.05	814.51
401.24	840.25
401.44	748.97
401.63	915.15
401.82	880.04
402.01	823.87
402.21	753.65
402.40	891.74
402.59	854.30
402.78	798.12
402.97	800.46
403.17	793.44
403.36	772.38
403.55	945.58
403.74	919.83
403.93	950.26
404.13	882.38
404.32	908.13
404.51	896.43
404.70	908.13
404.89	952.60
405.09	954.94
405.28	933.87
405.47	877.70
405.66	936.21
405.85	1074.31
406.05	912.81
406.24	1043.88
406.43	992.39
406.62	973.66
406.81	1055.58
407.00	1008.77
407.20	940.90
407.39	1090.69
407.58	1055.58
407.77	999.41
407.96	1046.22
408.15	1167.93
408.34	1135.16
408.54	997.07
408.73	1139.84
408.92	1132.82
409.11	1160.91
409.30	1174.95
409.49	1071.97
409.68	1109.41
409.87	1156.22
410.07	1181.97
410.26	1139.84
410.45	1249.85
410.64	1151.54
410.83	1226.44
411.02	1203.04
411.21	1228.78
411.40	1160.91
411.59	1270.91
411.78	1240.48
411.98	1170.27
412.17	1345.81
412.36	1345.81
412.55	1401.98
412.74	1322.40
412.93	1322.40
413.12	1238.14
413.31	1376.24
413.50	1390.28
413.69	1455.81
413.88	1380.92
414.07	1416.02
414.26	1437.09
414.45	1465.18
414.64	1453.47
414.83	1467.52
415.02	1528.37
415.22	1486.24
415.41	1474.54
415.60	1437.09
415.79	1563.48
415.98	1629.01
416.17	1572.84
416.36	1589.22
416.55	1657.10
416.74	1657.10
416.93	1544.75
417.12	1647.74
417.31	1727.32
417.50	1598.59
417.69	1783.49
417.88	1741.36
418.07	1652.42
418.26	1713.27
418.45	1720.29
418.64	1884.13
418.83	1827.96
419.02	1760.08
419.21	1832.64
419.39	1860.73
419.58	1856.04
419.77	1748.38
419.96	1926.26
420.15	1942.64
420.34	1888.81
420.53	1973.07
420.72	1954.35
420.91	1898.17
421.10	1907.54
421.29	1902.86
421.48	1879.45
421.67	2057.33
421.86	1980.09
422.05	1968.39
422.24	1933.28
422.43	1982.43
422.61	2047.97
422.80	1956.69
422.99	2069.03
423.18	2062.01
423.37	2038.61
423.56	2036.27
423.75	1961.37
423.94	1982.43
424.13	1844.34
424.32	1956.69
424.50	2031.58
424.69	2038.61
424.88	2097.12
425.07	1928.60
425.26	1982.43
425.45	2064.35
425.64	2005.84
425.83	2169.68
426.01	2190.74
426.20	2125.21
426.39	2040.95
426.58	2022.22
426.77	2064.35
426.96	2153.29
427.15	2113.50
427.33	2054.99
427.52	2106.48
427.71	2244.57
427.90	2176.70
428.09	2207.13
428.28	2186.06
428.46	2167.34
428.65	2223.51
428.84	2277.34
429.03	2260.96
429.22	2223.51
429.40	2275.00
429.59	2312.45
429.78	2127.55
429.97	2221.17
430.16	2232.87
430.34	2284.36
430.53	2366.28
430.72	2352.24
430.91	2349.90
431.10	2335.85
431.28	2328.83
431.47	2363.94
431.66	2443.52
431.85	2317.13
432.03	2417.77
432.22	2532.46
432.41	2544.16
432.60	2443.52
432.79	2459.90
432.97	2502.03
433.16	2513.74
433.35	2537.14
433.54	2527.78
433.72	2424.80
433.91	2546.50
434.10	2422.45
434.28	2539.48
434.47	2525.44
434.66	2623.74
434.85	2593.31
435.03	2562.89
435.22	2609.70
435.41	2628.42
435.59	2630.76
435.78	2703.32
435.97	2740.77
436.16	2780.56
436.34	2633.10
436.53	2736.09
436.72	2848.43
436.90	2658.85
437.09	2682.25
437.28	2640.12
437.46	2775.88
437.65	2677.57
437.84	2832.05
438.02	2773.53
438.21	2782.90
438.40	2832.05
438.58	2738.43
438.77	2888.22
438.96	3014.61
439.14	2876.52
439.33	3035.67
439.52	2965.46
439.70	2923.33
439.89	3115.25
440.08	2995.89
440.26	3033.33
440.45	2995.89
440.63	2995.89
440.82	3094.19
441.01	3197.17
441.19	3129.30
441.38	3173.77
441.57	3204.19
441.75	3311.86
441.94	3227.60
442.12	3302.50
442.31	3463.99
442.50	3255.69
442.68	3353.99
442.87	3269.73
443.05	3141.00
443.24	3344.63
443.43	3466.33
443.61	3349.31
443.80	3588.04
443.98	3335.26
444.17	3269.73
444.35	3400.80
444.54	3485.06
444.73	3485.06
444.91	3386.76
445.10	3346.97
445.28	3466.33
445.47	3435.91
445.65	3492.08
445.84	3480.38
446.02	3475.70
446.21	3564.64
446.39	3384.41
446.58	3566.98
446.77	3550.59
446.95	3534.21
447.14	3627.83
447.32	3543.57
447.51	3475.70
447.69	3520.17
447.88	3447.61
448.06	3597.40
448.25	3473.36
448.43	3623.15
448.62	3529.53
448.80	3555.27
448.99	3485.06
449.17	3597.40
449.36	3494.42
449.54	3822.09
449.73	3700.39
449.91	3723.79
450.10	3754.22
450.28	3765.92
450.46	3798.69
450.65	3866.56
450.83	3911.04
451.02	3742.52
451.20	3840.82
451.39	3836.14
451.57	3779.97
451.76	3763.58
451.94	3794.01
452.13	3859.54
452.31	3878.27
452.49	3651.24
452.68	3922.74
452.86	3873.59
453.05	3899.33
453.23	3852.52
453.42	3988.27
453.60	3946.14
453.78	3932.10
453.97	4018.70
454.15	3871.25
454.34	3868.91
454.52	4004.66
454.70	3815.07
454.89	4053.81
455.07	3990.61
455.26	4086.58
455.44	4079.55
455.62	3997.64
455.81	4086.58
455.99	4210.62
456.17	4161.47
456.36	4074.87
456.54	4236.37
456.73	4196.58
456.91	4243.39
457.09	4285.52
457.28	4430.63
457.46	4273.82
457.64	4482.13
457.83	4341.69
458.01	4454.04
458.19	4341.69
458.38	4339.35
458.56	4601.49
458.74	4386.16
458.93	4294.88
459.11	4348.72
459.29	4271.48
459.48	4449.36
459.66	4517.23
459.84	4664.69
460.03	4734.90
460.21	4393.19
460.39	4484.47
460.57	4475.10
460.76	4535.96
460.94	4580.43
461.12	4542.98
461.31	4613.20
461.49	4650.64
461.67	4545.32
461.85	4746.61
462.04	4571.07
462.22	4660.01
462.40	4812.14
462.59	4788.74
462.77	4844.91
462.95	4863.63
463.13	4681.07
463.32	4828.53
463.50	4873.00
463.68	4837.89
463.86	4805.12
464.05	4842.57
464.23	4777.03
464.41	4877.68
464.59	4777.03
464.78	4898.74
464.96	4950.23
465.14	4898.74
465.32	4936.19
465.50	5076.62
465.69	5100.03
465.87	5048.54
466.05	4971.30
466.23	4961.94
466.41	5132.79
466.60	5254.50
466.78	4980.66
466.96	5062.58
467.14	5121.09
467.32	4994.70
467.51	5352.81
467.69	5149.18
467.87	5156.20
468.05	5233.44
468.23	5116.41
468.41	5205.35
468.60	5200.67
468.78	5151.52
468.96	5210.03
469.14	5263.86
469.32	5235.78
469.50	5207.69
469.69	5408.98
469.87	5369.19
470.05	5376.21
470.23	5345.78
470.41	5430.04
470.59	5434.72
470.77	5523.66
470.95	5212.37
471.14	5518.98
471.32	5427.70
471.50	5460.47
471.68	5678.14
471.86	5472.17
472.04	5554.09
472.22	5778.78
472.40	5659.42
472.58	5668.78
472.77	5734.31
472.95	5783.46
473.13	6012.84
473.31	5820.91
473.49	5881.77
473.67	5832.62
473.85	5902.83
474.03	6054.97
474.21	6036.24
474.39	6057.31
474.57	6064.33
474.75	6071.35
474.93	6090.07
475.12	6155.61
475.30	6279.66
475.48	6139.23
475.66	6417.75
475.84	6338.17
476.02	6314.77
476.20	6314.77
476.38	6445.84
476.56	6434.13
476.74	6541.80
476.92	6546.48
477.10	6609.67
477.28	6803.94
477.46	6640.10
477.64	6576.91
477.82	6707.98
478.00	6913.94
478.18	6935.01
478.36	6981.82
478.54	7068.42
478.72	6993.52
478.90	6972.46
479.08	7229.91
479.26	7332.90
479.44	7400.77
479.62	7482.69
479.80	7461.63
479.98	7410.14
480.16	7550.57
480.34	7438.22
480.52	7754.19
480.70	7747.17
480.88	7581.00
481.06	7793.98
481.24	7967.18
481.41	7840.79
481.59	7948.46
481.77	8006.97
481.95	8030.38
482.13	8140.38
482.31	8093.57
482.49	8311.24
482.67	8327.63
482.85	8271.45
483.03	8585.08
483.21	8606.15
483.39	8631.90
483.57	8500.83
483.74	8617.85
483.92	8645.94
484.10	8578.06
484.28	8835.52
484.46	9022.77
484.64	9268.52
484.82	8882.33
485.00	9240.44
485.18	9399.59
485.35	9500.23
485.53	9516.62
485.71	9708.54
485.89	9762.37
486.07	9643.01
486.25	9483.85
486.43	9654.71
486.61	9877.06
486.78	9984.73
486.96	9877.06
487.14	9984.73
487.32	9966.00
487.50	10139.20
487.68	10310.06
487.85	10328.78
488.03	10438.79
488.21	10532.41
488.39	10682.20
488.57	10602.63
488.75	10792.21
488.92	10911.58
489.10	10853.06
489.28	10799.23
489.46	11098.82
489.64	11140.95
489.81	11365.64
489.99	11356.28
490.17	11468.62
490.35	11449.90
490.53	11508.41
490.70	11822.05
490.88	11756.51
491.06	11836.09
491.24	11859.49
491.41	11808.00
491.59	12109.93
491.77	11981.20
491.95	12037.38
492.13	12318.24
492.30	12322.92
492.48	12606.13
492.66	12421.22
492.84	12383.77
493.01	12596.76
493.19	12414.20
493.37	12809.75
493.54	12760.60
493.72	12945.50
493.90	12924.44
494.08	12870.61
494.25	13118.70
494.43	12896.35
494.61	13319.99
494.79	13394.89
494.96	13509.57
495.14	13444.04
495.32	13523.62
495.49	13774.05
495.67	13715.54
495.85	13898.10
496.02	13860.65
496.20	13996.40
496.38	14001.08
496.55	13970.66
496.73	14246.84
496.91	14190.67
497.09	14260.88
497.26	14658.78
497.44	14359.19
497.62	14544.09
497.79	14740.69
497.97	14714.95
498.14	14766.44
498.32	14991.13
498.50	14892.83
498.67	15014.54
498.85	15073.05
499.03	15021.56
499.20	14934.96
499.38	15328.17
499.56	15559.88
499.73	15269.66
499.91	15382.00
500.08	15279.02
500.26	15487.32
500.44	15447.54
500.61	15548.18
500.79	15719.04
500.97	15679.25
501.14	16128.63
501.32	16030.33
501.49	16049.05
501.67	15850.11
501.84	15838.41
502.02	15974.16
502.20	16229.27
502.37	16280.77
502.55	16098.20
502.72	16325.24
502.90	16102.89
503.07	16248.00
503.25	16318.22
503.43	16248.00
503.60	16629.51
503.78	16638.87
503.95	16779.30
504.13	16592.06
504.30	16606.10
504.48	16690.36
504.65	16849.52
504.83	16833.13
505.01	17322.30
505.18	17011.01
505.36	17179.53
505.53	16961.86
505.71	17312.94
505.88	17207.62
506.06	17092.93
506.23	17394.86
506.41	17362.09
506.58	17322.30
506.76	17556.36
506.93	17579.76
507.11	17535.29
507.28	17685.09
507.46	17790.41
507.63	17830.20
507.81	17963.61
507.98	17678.07
508.16	17830.20
508.33	17928.50
508.50	17865.31
508.68	18005.74
508.85	18057.23
509.03	18010.42
509.20	18478.53
509.38	18625.98
509.55	18422.36
509.73	18518.32
509.90	18544.06
510.08	18391.93
510.25	18625.98
510.42	18614.28
510.60	18944.30
510.77	19007.49
510.95	18857.70
511.12	18740.67
511.30	18693.86
511.47	19068.34
511.64	18979.40
511.82	19290.70
511.99	19098.77
512.17	19323.46
512.34	19300.06
512.51	19288.35
512.69	19456.87
512.86	19463.90
513.04	19597.31
513.21	19693.27
513.38	19517.73
513.56	19843.06
513.73	19559.86
513.90	19627.73
514.08	19814.98
514.25	19470.92
514.43	20086.48
514.60	19976.47
514.77	19901.58
514.95	20460.96
515.12	20231.59
515.29	19655.82
515.47	20016.26
515.64	20079.46
515.81	20360.32
515.99	20341.60
516.16	20168.40
516.33	20599.05
516.51	20709.06
516.68	19978.81
516.85	20449.26
517.03	20659.91
517.20	20643.52
517.37	20493.73
517.54	20830.77
517.72	20865.88
517.89	20790.98
518.06	20669.27
518.24	20503.09
518.41	20671.61
518.58	21046.10
518.75	20842.47
518.93	21177.17
519.10	20947.79
519.27	21109.29
519.45	21018.01
519.62	20863.54
519.79	21135.04
519.96	20905.66
520.14	21532.93
520.31	21479.10
520.48	21565.70
520.65	21149.08
520.83	21509.52
521.00	21465.05
521.17	21521.23
521.34	21467.39
521.52	21757.62
521.69	21874.65
521.86	21727.19
522.03	21816.13
522.20	22026.78
522.38	21930.82
522.55	21855.92
522.72	21776.34
522.89	21986.99
523.07	21778.68
523.24	22134.45
523.41	22068.91
523.58	21942.52
523.75	22207.00
523.92	22120.40
524.10	22197.64
524.27	22333.39
524.44	22579.15
524.61	22799.16
524.78	22569.79
524.96	22457.44
525.13	22815.54
525.30	22719.58
525.47	22712.56
525.64	22422.33
525.81	23019.17
525.98	22948.95
526.16	22782.77
526.33	22857.67
526.50	23073.00
526.67	23063.64
526.84	22965.34
527.01	22906.82
527.18	23098.75
527.36	23410.04
527.53	23475.57
527.70	23243.86
527.87	23171.30
528.04	23035.55
528.21	23545.79
528.38	23070.66
528.55	23393.65
528.72	23482.59
528.89	23288.33
529.07	23501.32
529.24	23419.40
529.41	23807.93
529.58	23840.70
529.75	23349.18
529.92	23597.28
530.09	23477.91
530.26	23662.82
530.43	23585.58
530.60	23733.03
530.77	23765.80
530.94	24250.29
531.11	23758.78
531.28	24107.52
531.46	23623.03
531.63	23803.25
531.80	24067.73
531.97	24088.79
532.14	23964.75
532.31	24013.90
532.48	24486.68
532.65	24196.46
532.82	24254.97
532.99	24278.38
533.16	24474.98
533.33	24610.73
533.50	24699.67
533.67	24608.39
533.84	24512.43
534.01	24624.78
534.18	24116.88
534.35	24680.95
534.52	24769.89
534.69	24657.54
534.86	24542.86
535.03	24713.72
535.20	24936.07
535.37	24489.03
535.54	24938.41
535.71	25013.31
535.88	24851.81
536.05	25083.52
536.22	24802.66
536.38	24837.76
536.55	24751.17
536.72	24989.90
536.89	25125.65
537.06	25233.32
537.23	25333.96
537.40	24933.73
537.57	25235.66
537.74	25226.29
537.91	25446.30
538.08	25326.94
538.25	25191.19
538.42	25818.45
538.59	25273.10
538.75	25142.03
538.92	25326.94
539.09	25568.01
539.26	25741.21
539.43	25883.98
539.60	25582.06
539.77	25748.23
539.94	25818.45
540.11	25610.14
540.28	25635.89
540.44	25888.67
540.61	25465.03
540.78	25790.36
540.95	25771.64
541.12	25923.77
541.29	26031.44
541.46	25979.95
541.62	25617.16
541.79	25888.67
541.96	26022.08
542.13	26092.29
542.30	25727.17
542.47	26260.81
542.63	26342.73
542.80	26244.43
542.97	26532.31
543.14	26614.23
543.31	26441.03
543.48	26504.23
543.64	26551.04
543.81	26602.53
543.98	26508.91
544.15	26616.57
544.32	26735.94
544.48	26771.05
544.65	26417.63
544.82	26431.67
544.99	26361.45
545.16	26822.54
545.32	26895.10
545.49	27103.40
545.66	27096.38
545.83	27218.09
546.00	27438.10
546.16	27042.55
546.33	26705.51
546.50	26649.34
546.67	26883.39
546.83	26501.89
547.00	26911.48
547.17	27026.17
547.34	27180.64
547.50	27002.76
547.67	27239.15
547.84	27309.37
548.00	27206.39
548.17	27501.29
548.34	27513.00
548.51	27292.99
548.67	27648.75
548.84	27618.32
549.01	27082.34
549.18	27101.06
549.34	27175.96
549.51	27353.84
549.68	27473.21
549.84	27028.51
550.01	27505.98
550.18	27419.38
550.34	27524.70
550.51	27564.49
550.68	27669.81
550.84	27438.10
551.01	27723.65
551.18	27838.33
551.34	27384.27
551.51	27758.75
551.68	27648.75
551.84	27686.20
552.01	27953.02
552.18	28116.86
552.34	27941.32
552.51	28056.00
552.68	27821.95
552.84	27885.14
553.01	27906.21
553.18	27906.21
553.34	27793.86
553.51	28418.78
553.67	28147.28
553.84	28191.75
554.01	28215.16
554.17	27828.97
554.34	27995.15
554.51	27833.65
554.67	28477.30
554.84	28229.20
555.00	28027.92
555.17	28290.06
555.33	28025.57
555.50	28430.49
555.67	28453.89
555.83	28407.08
556.00	28191.75
556.16	28800.29
556.33	28268.99
556.50	28325.16
556.66	28811.99
556.83	28304.10
556.99	28528.79
557.16	28870.51
557.32	28627.09
557.49	28755.82
557.65	28505.38
557.82	28652.84
557.98	28748.80
558.15	28692.63
558.32	28954.77
558.48	28809.65
558.65	29076.48
558.81	28723.05
558.98	28943.06
559.14	28893.91
559.31	28900.94
559.47	28685.61
559.64	28774.55
559.80	28608.37
559.97	29081.16
560.13	28861.15
560.30	29029.66
560.46	28741.78
560.63	28676.24
560.79	29151.37
560.96	29195.84
561.12	28952.43
561.29	29116.26
561.45	28753.48
561.61	29153.71
561.78	29289.46
561.94	29317.55
562.11	29305.85
562.27	29006.26
562.44	28851.78
562.60	29312.87
562.77	29013.28
562.93	28718.37
563.10	29329.25
563.26	28912.64
563.42	29228.61
563.59	29252.02
563.75	29401.81
563.92	29432.24
564.08	29448.62
564.24	29310.53
564.41	29247.33
564.57	29010.94
564.74	29223.93
564.90	29504.79
565.07	29207.55
565.23	29322.23
565.39	29310.53
565.56	29799.70
565.72	29266.06
565.88	29120.95
566.05	28919.66
566.21	29319.89
566.38	29364.36
566.54	29343.30
566.70	29661.61
566.87	29759.91
567.03	29788.00
567.19	29626.50
567.36	29799.70
567.52	29378.40
567.68	29628.84
567.85	29343.30
568.01	29453.30
568.17	29359.68
568.34	29748.21
568.50	29481.39
568.66	29142.01
568.83	29940.13
568.99	29584.37
569.15	29511.81
569.32	29275.42
569.48	29287.12
569.64	29546.92
569.81	29273.08
569.97	29614.80
570.13	29710.76
570.30	29214.57
570.46	29876.94
570.62	29301.17
570.78	29778.64
570.95	29436.92
571.11	29795.02
571.27	28877.53
571.43	29380.74
571.60	29839.49
571.76	29720.12
571.92	29511.81
572.09	30000.99
572.25	29914.39
572.41	29563.31
572.57	29776.30
572.74	29937.79
572.90	29577.35
573.06	29481.39
573.22	29907.37
573.38	29921.41
573.55	29570.33
573.71	29771.61
573.87	29940.13
574.03	29771.61
574.20	29998.65
574.36	29488.41
574.52	29888.64
574.68	29495.43
574.84	30082.91
575.01	30199.93
575.17	29685.01
575.33	30003.33
575.49	29853.53
575.65	30190.57
575.82	29970.56
575.98	29631.18
576.14	29692.04
576.30	29874.60
576.46	29617.14
576.62	29874.60
576.79	30047.80
576.95	29816.08
577.11	30258.45
577.27	30204.61
577.43	30129.72
577.59	29783.32
577.75	29844.17
577.92	29591.39
578.08	29841.83
578.24	29977.58
578.40	29977.58
578.56	29830.13
578.72	29937.79
578.88	30242.06
579.04	29865.24
579.21	29844.17
579.37	29780.98
579.53	30113.33
579.69	29909.71
579.85	30370.79
580.01	29743.53
580.17	29701.40
580.33	30204.61
580.49	29825.45
580.65	30253.76
580.82	30387.18
580.98	30169.51
581.14	30110.99
581.30	29750.55
581.46	30120.35
581.62	30040.78
581.78	29902.68
581.94	30181.21
582.10	29748.21
582.26	29998.65
582.42	30103.97
582.58	30302.92
582.74	30457.39
582.90	29965.88
583.06	30012.69
583.22	30033.75
583.38	29907.37
583.54	30089.93
583.70	30092.27
583.86	30087.59
584.02	29841.83
584.18	30625.91
584.34	30274.83
584.50	30136.74
584.66	30026.73
584.82	29883.96
584.98	30015.03
585.14	30150.78
585.30	29848.85
585.46	29912.05
585.62	30242.06
585.78	30008.01
585.94	29759.91
586.10	30118.01
586.26	30635.27
586.42	30562.72
586.58	30335.68
586.74	30136.74
586.90	29975.24
587.06	30389.52
587.22	30026.73
587.38	30202.27
587.54	30277.17
587.70	30424.62
587.86	30291.21
588.02	30300.58
588.18	30632.93
588.34	30441.01
588.49	30349.73
588.65	30263.13
588.81	30300.58
588.97	30260.79
589.13	30314.62
589.29	30359.09
589.45	30066.52
589.61	30309.94
589.77	30562.72
589.93	30300.58
590.08	30661.02
590.24	30328.66
590.40	30373.13
590.56	30899.75
590.72	30436.33
590.88	30405.90
591.04	30646.97
591.20	30457.39
591.35	30520.59
591.51	30415.26
591.67	30534.63
591.83	30710.17
591.99	30511.22
592.15	30073.54
592.31	30387.18
592.46	30101.63
592.62	30286.53
592.78	30249.08
592.94	30579.10
593.10	30066.52
593.26	30986.35
593.41	30876.35
593.57	30684.42
593.73	30401.22
593.89	30927.84
594.05	30342.70
594.20	30239.72
594.36	30433.99
594.52	30518.25
594.68	30293.55
594.84	30038.44
594.99	30487.82
595.15	30782.73
595.31	30515.90
595.47	30614.21
595.62	30881.03
595.78	30417.60
595.94	30511.22
596.10	30604.84
596.25	30675.06
596.41	30253.76
596.57	30232.70
596.73	30618.89
596.88	30071.20
597.04	30658.68
597.20	30810.81
597.36	30845.92
597.51	30677.40
597.67	30817.83
597.83	30646.97
597.99	31037.84
598.14	30597.82
598.30	30527.61
598.46	30429.30
598.61	30649.32
598.77	30253.76
598.93	31122.10
599.09	30918.48
599.24	31400.63
599.40	30698.47
599.56	31070.61
599.71	30522.93
599.87	30866.98
600.03	30668.04
600.18	30773.36
600.34	30403.56
600.50	30663.36
600.65	30504.20
600.81	30923.16
600.97	30904.43
601.12	31049.55
601.28	30712.51
601.44	30726.55
601.59	30939.54
601.75	30527.61
601.91	30649.32
602.06	30806.13
602.22	30518.25
602.37	30281.85
602.53	30609.53
602.69	30916.14
602.84	30513.56
603.00	31014.44
603.16	30951.24
603.31	30780.39
603.47	30904.43
603.62	30445.69
603.78	30768.68
603.94	30836.56
604.09	30251.42
604.25	30614.21
604.40	30665.70
604.56	31145.51
604.71	30845.92
604.87	30125.04
605.03	30658.68
605.18	30644.63
605.34	30782.73
605.49	30354.41
605.65	30354.41
605.80	30621.23
605.96	30469.09
606.12	30361.43
606.27	30614.21
606.43	30328.66
606.58	30747.62
606.74	30932.52
606.89	30581.44
607.05	30639.95
607.20	30670.38
607.36	30520.59
607.51	30338.02
607.67	30380.15
607.82	30295.89
607.98	30703.15
608.13	30588.46
608.29	30328.66
608.44	30415.26
608.60	30583.78
608.75	30567.40
608.91	30834.22
609.06	30396.54
609.22	30630.59
609.37	30335.68
609.53	30293.55
609.68	30396.54
609.84	30471.43
609.99	30089.93
610.15	30099.29
610.30	30567.40
610.46	30457.39
610.61	30242.06
610.76	30602.50
610.92	30417.60
611.07	30267.81
611.23	30122.69
611.38	30066.52
611.54	30368.45
611.69	30033.75
611.84	30368.45
612.00	30246.74
612.15	29951.84
612.31	30450.37
612.46	30022.05
612.62	29951.84
612.77	30270.15
612.92	30125.04
613.08	30176.53
613.23	29886.30
613.39	30235.04
613.54	29949.50
613.69	30118.01
613.85	30169.51
614.00	30300.58
614.15	29734.17
614.31	29685.01
614.46	30239.72
614.62	30125.04
614.77	30508.88
614.92	30036.09
615.08	30286.53
615.23	30050.14
615.38	29745.87
615.54	29876.94
615.69	30197.59
615.84	29624.16
616.00	30319.30
616.15	29488.41
616.30	30129.72
616.46	29762.25
616.61	29965.88
616.76	29869.92
616.92	29839.49
617.07	29968.22
617.22	29600.76
617.37	29879.28
617.53	29511.81
617.68	29750.55
617.83	29638.20
617.99	29940.13
618.14	30022.05
618.29	29804.38
618.45	29890.98
618.60	29577.35
618.75	29624.16
618.90	29481.39
619.06	29734.17
619.21	29411.17
619.36	30047.80
619.51	29790.34
619.67	29139.67
619.82	29565.65
619.97	29619.48
620.12	29247.33
620.28	29275.42
620.43	29570.33
620.58	29827.79
620.73	29752.89
620.89	29722.46
621.04	29575.01
621.19	29376.06
621.34	29631.18
621.49	29134.99
621.65	29380.74
621.80	29305.85
621.95	29254.36
622.10	29216.91
622.25	29116.26
622.41	29439.26
622.56	28978.17
622.71	29160.73
622.86	29266.06
623.01	29343.30
623.16	29303.51
623.32	29188.82
623.47	29240.31
623.62	29160.73
623.77	29022.64
623.92	29020.30
624.07	29060.09
624.23	29378.40
624.38	29010.94
624.53	29013.28
624.68	29371.38
624.83	29226.27
624.98	29319.89
625.13	29083.50
625.29	29125.63
625.44	28973.49
625.59	29106.90
625.74	28910.30
625.89	28851.78
626.04	28847.10
626.19	28959.45
626.34	28620.07
626.49	28582.62
626.65	28547.51
626.80	28577.94
626.95	28608.37
627.10	28875.19
627.25	28971.15
627.40	29050.73
627.55	28369.63
627.70	28685.61
627.85	28676.24
628.00	28671.56
628.15	28451.55
628.30	28549.85
628.45	28519.43
628.60	28418.78
628.76	28425.81
628.91	28779.23
629.06	28374.31
629.21	28566.24
629.36	28734.76
629.51	28261.97
629.66	28386.02
629.81	28264.31
629.96	28472.62
630.11	28428.15
630.26	28189.41
630.41	28187.07
630.56	28126.22
630.71	28381.34
630.86	28067.70
631.01	28201.11
631.16	28259.63
631.31	28156.64
631.46	28182.39
631.61	28503.04
631.76	28327.50
631.91	28041.96
632.06	28063.02
632.21	28018.55
632.36	27798.54
632.51	27924.93
632.66	28311.12
632.81	28334.53
632.96	27885.14
633.10	28404.74
633.25	28208.14
633.40	28229.20
633.55	28409.42
633.70	27637.05
633.85	27615.98
634.00	27756.41
634.15	27971.74
634.30	27644.07
634.45	27620.66
634.60	28135.58
634.75	27810.25
634.90	27845.35
635.05	28168.35
635.19	27892.16
635.34	28088.77
635.49	27910.89
635.64	28077.07
635.79	27768.12
635.94	27414.69
636.09	27625.34
636.24	27644.07
636.39	27660.45
636.53	27768.12
636.68	27604.28
636.83	27700.24
636.98	27826.63
637.13	27707.26
637.28	27615.98
637.43	27742.37
637.57	27583.21
637.72	27417.04
637.87	27232.13
638.02	27541.08
638.17	27641.73
638.32	27110.43
638.46	27386.61
638.61	27484.91
638.76	27190.00
638.91	27405.33
639.06	27363.20
639.20	27175.96
639.35	27489.59
639.50	27513.00
639.65	27388.95
639.80	27304.69
639.94	27414.69
640.09	27541.08
640.24	27377.25
640.39	27087.02
640.54	27058.93
640.68	27049.57
640.83	27220.43
640.98	27159.58
641.13	26934.88
641.27	27040.21
641.42	27344.48
641.57	27173.62
641.72	27180.64
641.86	27026.17
642.01	27023.83
642.16	27129.15
642.31	27075.32
642.45	27227.45
642.60	26600.19
642.75	26721.90
642.90	26986.38
643.04	26878.71
643.19	26911.48
643.34	26452.73
643.48	26778.07
643.63	26885.73
643.78	26810.84
643.93	27056.59
644.07	26806.16
644.22	26738.28
644.37	26984.04
644.51	26312.30
644.66	26937.23
644.81	26520.61
644.95	26670.40
645.10	26295.92
645.25	26782.75
645.39	26618.91
645.54	26731.26
645.69	26670.40
645.83	27178.30
645.98	26752.32
646.13	26527.63
646.27	26960.63
646.42	26518.27
646.57	26607.21
646.71	26654.02
646.86	26630.62
647.00	26085.27
647.15	26548.70
647.30	26366.13
647.44	26272.51
647.59	26328.69
647.74	26497.20
647.88	26335.71
648.03	26511.25
648.17	26611.89
648.32	26410.60
648.47	26162.51
648.61	26347.41
648.76	26476.14
648.90	26136.76
649.05	26368.48
649.20	26328.69
649.34	25834.83
649.49	26003.35
649.63	26256.13
649.78	25921.43
649.92	26125.06
650.07	26263.15
650.21	26019.74
650.36	26300.60
650.51	25977.61
650.65	26279.54
650.80	26185.91
650.94	26064.21
651.09	25930.80
651.23	25888.67
651.38	25663.97
651.52	25912.07
651.67	25891.01
651.81	26108.68
651.96	25928.45
652.10	25731.85
652.25	26045.48
652.39	26040.80
652.54	26092.29
652.68	25837.17
652.83	26349.75
652.97	26008.03
653.12	25982.29
653.26	25750.57
653.41	25488.43
653.55	25518.86
653.70	26031.44
653.84	25495.46
653.99	25640.57
654.13	25497.80
654.27	25818.45
654.42	25984.63
654.56	25518.86
654.71	25834.83
654.85	25652.27
655.00	25755.26
655.14	25453.33
655.29	25390.13
655.43	25603.12
655.57	25542.27
655.72	25245.02
655.86	25474.39
656.01	25439.28
656.15	25340.98
656.30	25596.10
656.44	25256.72
656.58	25432.26
656.73	25378.43
656.87	25413.54
657.01	25429.92
657.16	25504.82
657.30	25490.77
657.45	25240.34
657.59	25549.29
657.73	25348.00
657.88	25366.73
658.02	24982.88
658.16	25041.39
658.31	25120.97
658.45	25303.53
658.60	24589.67
658.74	25130.33
658.88	25062.46
659.03	25085.86
659.17	25200.55
659.31	25144.38
659.46	25254.38
659.60	25500.14
659.74	24650.52
659.89	25170.12
660.03	25057.78
660.17	24765.21
660.32	24666.91
660.46	24561.58
660.60	24659.88
660.74	24570.94
660.89	24910.32
661.03	24383.70
661.17	24620.10
661.32	24645.84
661.46	24641.16
661.60	24404.77
661.74	24456.26
661.89	24858.83
662.03	24685.63
662.17	24219.86
662.31	24205.82
662.46	24299.44
662.60	24269.01
662.74	24556.90
662.88	24107.52
663.03	24044.32
663.17	24327.53
663.31	23824.31
663.45	23950.70
663.60	24182.42
663.74	24030.28
663.88	23915.59
664.02	23861.76
664.17	24446.90
664.31	23796.23
664.45	23967.09
664.59	23777.50
664.73	24367.32
664.88	23814.95
665.02	23520.04
665.16	23836.02
665.30	23482.59
665.44	23618.35
665.59	23550.47
665.73	23847.72
665.87	23506.00
666.01	23278.97
666.15	23903.89
666.29	23367.91
666.44	23187.69
666.58	23126.83
666.72	23388.97
666.86	23307.05
667.00	23297.69
667.14	23070.66
667.28	23386.63
667.43	23096.41
667.57	23236.84
667.71	22988.74
667.85	22885.76
667.99	22951.29
668.13	23096.41
668.27	23269.61
668.41	23180.67
668.56	22640.00
668.70	22848.31
668.84	22991.08
668.98	22869.37
669.12	22888.10
669.26	22590.85
669.40	22672.77
669.54	23065.98
669.68	22925.55
669.82	22558.08
669.96	22693.83
670.10	22630.64
670.25	22838.95
670.39	22600.21
670.53	22677.45
670.67	22494.89
670.81	22534.68
670.95	22389.56
671.09	22469.14
671.23	22567.45
671.37	22490.21
671.51	22331.05
671.65	22448.08
671.79	22162.53
671.93	22155.51
672.07	22305.31
672.21	21954.22
672.35	21923.80
672.49	21752.94
672.63	22031.46
672.77	21766.98
672.91	21596.12
673.05	21914.44
673.19	21738.90
673.33	21626.55
673.47	21685.06
673.61	21804.43
673.75	21617.19
673.89	21453.35
674.03	21497.82
674.17	21586.76
674.31	21532.93
674.45	21186.53
674.59	21462.71
674.73	21205.25
674.87	21118.65
675.01	21209.93
675.15	21132.70
675.29	21020.35
675.43	20886.94
675.56	20936.09
675.70	21188.87
675.84	20943.11
675.98	20346.28
676.12	21160.78
676.26	21069.50
676.40	20744.17
676.54	20819.07
676.68	20748.85
676.82	20402.45
676.96	20599.05
677.10	20690.34
677.23	20238.61
677.37	20210.53
677.51	20341.60
677.65	20196.48
677.79	20273.72
677.93	20219.89
678.07	20072.43
678.21	19721.35
678.34	19826.68
678.48	19747.10
678.62	19653.48
678.76	19726.04
678.90	19873.49
679.04	19700.29
679.18	19609.01
679.31	19515.39
679.45	19377.30
679.59	19463.90
679.73	19271.97
679.87	19016.85
680.00	19208.78
680.14	19110.47
680.28	19089.41
680.42	19066.00
680.56	19091.75
680.70	19173.67
680.83	19101.11
680.97	18960.68
681.11	19047.28
681.25	18925.57
681.39	18927.91
681.52	18836.63
681.66	18616.62
681.80	18450.44
681.94	18267.88
682.07	18368.52
682.21	18092.34
682.35	18197.67
682.49	18340.44
682.62	18405.97
682.76	18394.27
682.90	18270.22
683.04	18099.36
683.17	17998.72
683.31	17914.46
683.45	18169.58
683.59	18038.51
683.72	17624.23
683.86	17886.37
684.00	17561.04
684.13	17699.13
684.27	17652.32
684.41	17521.25
684.55	17200.60
684.68	17191.23
684.82	17369.12
684.96	17174.85
685.09	17099.95
685.23	16901.01
685.37	17408.90
685.50	17357.41
685.64	17025.06
685.78	17165.49
685.91	17263.79
686.05	17029.74
686.19	16966.54
686.32	16966.54
686.46	16940.80
686.60	16519.50
686.73	16643.55
686.87	16699.72
687.01	16596.74
687.14	16339.28
687.28	16184.80
687.42	16435.24
687.55	16449.28
687.69	16343.96
687.82	16152.04
687.96	16060.76
688.10	16140.33
688.23	16135.65
688.37	15917.98
688.50	15960.11
688.64	15756.49
688.78	15882.88
688.91	15620.74
689.05	16030.33
689.18	15456.90
689.32	15513.07
689.46	15187.74
689.59	15674.57
689.73	15452.22
689.86	15424.13
690.00	15602.01
690.13	15407.75
690.27	15279.02
690.41	15225.18
690.54	15183.06
690.68	15122.20
690.81	15534.14
690.95	15342.21
691.08	15250.93
691.22	15061.35
691.35	14979.43
691.49	15026.24
691.62	15005.17
691.76	14581.54
691.89	14621.33
692.03	14483.24
692.16	14387.27
692.30	14359.19
692.43	14487.92
692.57	14256.20
692.70	14160.24
692.84	14298.33
692.97	14403.66
693.11	14214.07
693.24	14164.92
693.38	14143.86
693.51	13891.08
693.65	14045.55
693.78	13916.83
693.92	13823.20
694.05	14024.49
694.19	13858.31
694.32	13692.13
694.45	13860.65
694.59	13458.08
694.72	13605.53
694.86	13331.69
694.99	13111.68
695.13	13415.95
695.26	13369.14
695.39	13184.24
695.53	13125.72
695.66	13355.10
695.80	13291.90
695.93	13308.29
696.07	13261.48
696.20	13104.66
696.33	13022.74
696.47	12886.99
696.60	12926.78
696.73	12807.41
696.87	12952.52
697.00	12751.24
697.14	12547.61
697.27	12329.94
697.40	12606.13
697.54	12547.61
697.67	12524.21
697.80	12461.01
697.94	12168.45
698.07	12046.74
698.21	12079.50
698.34	12271.43
698.47	12210.57
698.61	12016.31
698.74	12163.76
698.87	12336.96
699.01	11861.84
699.14	11899.28
699.27	11817.36
699.40	11950.78
699.54	11800.98
699.67	11845.45
699.80	11742.47
699.94	11627.78
700.07	11658.21
700.20	11248.61
700.34	11613.74
700.47	11260.32
700.60	11318.83
700.73	11351.60
700.87	11363.30
701.00	11056.69
701.13	11110.52
701.26	11122.23
701.40	11164.36
701.53	11087.12
701.66	11150.31
701.79	11082.44
701.93	10932.64
702.06	10771.15
702.19	10768.80
702.32	10586.24
702.46	10719.65
702.59	10466.88
702.72	10628.37
702.85	10562.84
702.99	10586.24
703.12	10303.04
703.25	10504.32
703.38	10452.83
703.51	10354.53
703.65	10059.62
703.78	10431.77
703.91	10071.33
704.04	10391.98
704.17	10176.65
704.31	10235.16
704.44	10270.27
704.57	10052.60
704.70	9720.24
704.83	10031.54
704.96	9736.63
705.10	9750.67
705.23	9565.77
>>>>>End Processed Spectral Data<<<<<
