SpectraSuite Data File
++++++++++++++++++++++++++++++++++++
Date: Fri Oct 18 13:58:24 GMT-05:00 2013
User: bianchi
Dark Spectrum Present: No
Reference Spectrum Present: No
Number of Sampled Component Spectra: 1
Spectrometers: USB2+H05261
Integration Time (usec): 50000 (USB2+H05261)
Spectra Averaged: 1 (USB2+H05261)
Boxcar Smoothing: 0 (USB2+H05261)
Correct for Electrical Dark: No (USB2+H05261)
Strobe/Lamp Enabled: No (USB2+H05261)
Correct for Detector Non-linearity: No (USB2+H05261)
Correct for Stray Light: No (USB2+H05261)
Number of Pixels in Processed Spectrum: 2048
>>>>>Begin Processed Spectral Data<<<<<
365.73	0.00
365.92	0.00
366.12	0.00
366.32	0.00
366.52	0.00
366.72	0.00
366.91	0.00
367.11	0.00
367.31	0.00
367.51	0.00
367.70	0.00
367.90	0.00
368.10	0.00
368.30	0.00
368.49	0.00
368.69	0.00
368.89	0.00
369.09	0.00
369.28	0.00
369.48	0.00
369.68	0.00
369.87	0.00
370.07	0.00
370.27	0.00
370.47	0.00
370.66	77.24
370.86	7.02
371.06	152.13
371.25	152.13
371.45	63.19
371.65	124.05
371.84	170.86
372.04	133.41
372.24	217.67
372.44	154.48
372.63	229.37
372.83	250.44
373.03	224.69
373.22	191.92
373.42	252.78
373.62	259.80
373.81	189.58
374.01	262.14
374.21	257.46
374.40	252.78
374.60	245.76
374.79	255.12
374.99	304.27
375.19	241.08
375.38	313.63
375.58	231.71
375.78	266.82
375.97	297.25
376.17	308.95
376.37	264.48
376.56	278.52
376.76	262.14
376.95	184.90
377.15	287.89
377.35	290.23
377.54	301.93
377.74	159.16
377.93	315.97
378.13	278.52
378.33	348.74
378.52	224.69
378.72	339.38
378.91	325.33
379.11	259.80
379.31	287.89
379.50	294.91
379.70	308.95
379.89	248.10
380.09	276.18
380.28	308.95
380.48	313.63
380.68	234.05
380.87	311.29
381.07	266.82
381.26	322.99
381.46	308.95
381.65	264.48
381.85	271.50
382.04	280.86
382.24	344.06
382.43	327.68
382.63	348.74
382.83	374.49
383.02	351.08
383.22	374.49
383.41	379.17
383.61	318.31
383.80	332.36
384.00	365.12
384.19	367.46
384.39	330.02
384.58	308.95
384.78	297.25
384.97	374.49
385.17	322.99
385.36	376.83
385.56	395.55
385.75	430.66
385.95	372.15
386.14	414.27
386.34	477.47
386.53	395.55
386.72	397.89
386.92	444.70
387.11	388.53
387.31	428.32
387.50	421.30
387.70	444.70
387.89	411.93
388.09	472.79
388.28	521.94
388.48	386.19
388.67	393.21
388.86	330.02
389.06	458.74
389.25	456.40
389.45	524.28
389.64	447.04
389.84	482.15
390.03	498.53
390.22	512.58
390.42	477.47
390.61	444.70
390.81	533.64
391.00	395.55
391.19	484.49
391.39	496.19
391.58	435.34
391.78	521.94
391.97	498.53
392.16	500.87
392.36	585.13
392.55	479.81
392.75	493.85
392.94	486.83
393.13	526.62
393.33	603.86
393.52	526.62
393.71	498.53
393.91	566.41
394.10	557.05
394.29	500.87
394.49	514.92
394.68	613.22
394.88	564.07
395.07	559.39
395.26	601.52
395.46	615.56
395.65	613.22
395.84	603.86
396.04	622.58
396.23	608.54
396.42	571.09
396.62	631.94
396.81	650.67
397.00	627.26
397.19	636.63
397.39	636.63
397.58	636.63
397.77	664.71
397.97	629.60
398.16	678.76
398.35	683.44
398.55	596.84
398.74	596.84
398.93	727.91
399.12	704.50
399.32	718.54
399.51	648.33
399.70	753.65
399.90	699.82
400.09	774.72
400.28	777.06
400.47	772.38
400.67	772.38
400.86	746.63
401.05	767.70
401.24	706.84
401.44	788.76
401.63	779.40
401.82	884.72
402.01	765.36
402.21	816.85
402.40	725.57
402.59	767.70
402.78	849.61
402.97	795.78
403.17	800.46
403.36	842.59
403.55	905.79
403.74	891.74
403.93	868.34
404.13	849.61
404.32	898.77
404.51	835.57
404.70	926.85
404.89	1004.09
405.09	1013.45
405.28	945.58
405.47	968.98
405.66	929.19
405.85	994.73
406.05	973.66
406.24	1062.60
406.43	1078.99
406.62	1011.11
406.81	994.73
407.00	997.07
407.20	973.66
407.39	1046.22
407.58	1013.45
407.77	987.71
407.96	1081.33
408.15	1060.26
408.34	1053.24
408.54	1109.41
408.73	1172.61
408.92	1069.62
409.11	1139.84
409.30	1086.01
409.49	1102.39
409.68	1069.62
409.87	1158.57
410.07	1144.52
410.26	1181.97
410.45	1160.91
410.64	1207.72
410.83	1200.69
411.02	1188.99
411.21	1217.08
411.40	1315.38
411.59	1284.95
411.78	1235.80
411.98	1249.85
412.17	1200.69
412.36	1322.40
412.55	1214.74
412.74	1252.19
412.93	1252.19
413.12	1203.04
413.31	1275.59
413.50	1355.17
413.69	1413.68
413.88	1423.05
414.07	1446.45
414.26	1369.21
414.45	1413.68
414.64	1451.13
414.83	1479.22
415.02	1474.54
415.22	1490.92
415.41	1575.18
415.60	1460.49
415.79	1577.52
415.98	1495.60
416.17	1647.74
416.36	1497.94
416.55	1558.80
416.74	1650.08
416.93	1624.33
417.12	1661.78
417.31	1631.35
417.50	1654.76
417.69	1696.89
417.88	1636.03
418.07	1739.02
418.26	1643.06
418.45	1720.29
418.64	1640.72
418.83	1706.25
419.02	1776.47
419.21	1823.28
419.39	1856.04
419.58	1785.83
419.77	1741.36
419.96	1849.02
420.15	1849.02
420.34	1839.66
420.53	1842.00
420.72	1834.98
420.91	1792.85
421.10	1963.71
421.29	2069.03
421.48	1750.72
421.67	1893.49
421.86	1923.92
422.05	1956.69
422.24	1867.75
422.43	1930.94
422.61	1942.64
422.80	1987.11
422.99	1973.07
423.18	1907.54
423.37	2043.29
423.56	2008.18
423.75	1923.92
423.94	1996.48
424.13	1891.15
424.32	1989.46
424.50	2076.06
424.69	2026.90
424.88	2143.93
425.07	1982.43
425.26	1942.64
425.45	1912.22
425.64	2005.84
425.83	2003.50
426.01	2094.78
426.20	1912.22
426.39	2073.71
426.58	1970.73
426.77	2118.18
426.96	2099.46
427.15	2129.89
427.33	2160.31
427.52	2022.22
427.71	2097.12
427.90	2097.12
428.09	2101.80
428.28	2104.14
428.46	2197.76
428.65	2221.17
428.84	2253.94
429.03	2230.53
429.22	2155.63
429.40	2193.08
429.59	2195.42
429.78	2029.24
429.97	2174.36
430.16	2136.91
430.34	2246.91
430.53	2282.02
430.72	2321.81
430.91	2342.88
431.10	2172.02
431.28	2197.76
431.47	2382.67
431.66	2258.62
431.85	2270.32
432.03	2363.94
432.22	2340.54
432.41	2387.35
432.60	2368.62
432.79	2401.39
432.97	2406.07
433.16	2429.48
433.35	2431.82
433.54	2478.63
433.72	2579.27
433.91	2495.01
434.10	2370.96
434.28	2537.14
434.47	2567.57
434.66	2518.42
434.85	2602.68
435.03	2518.42
435.22	2651.83
435.41	2677.57
435.59	2609.70
435.78	2579.27
435.97	2623.74
436.16	2605.02
436.34	2607.36
436.53	2726.72
436.72	2745.45
436.90	2588.63
437.09	2717.36
437.28	2700.98
437.46	2733.75
437.65	2757.15
437.84	2656.51
438.02	2820.35
438.21	2747.79
438.40	2719.70
438.58	2754.81
438.77	2965.46
438.96	2871.84
439.14	2796.94
439.33	2766.51
439.52	2942.05
439.70	2981.84
439.89	2960.78
440.08	2963.12
440.26	3049.72
440.45	3007.59
440.63	3009.93
440.82	3054.40
441.01	3159.72
441.19	3075.46
441.38	3143.34
441.57	3124.62
441.75	3115.25
441.94	3201.85
442.12	3096.53
442.31	3246.32
442.50	3393.78
442.68	3325.90
442.87	3370.37
443.05	3176.11
443.24	3363.35
443.43	3410.16
443.61	3318.88
443.80	3478.04
443.98	3323.56
444.17	3187.81
444.35	3307.18
444.54	3431.23
444.73	3353.99
444.91	3260.37
445.10	3365.69
445.28	3346.97
445.47	3241.64
445.65	3435.91
445.84	3529.53
446.02	3487.40
446.21	3517.83
446.39	3382.07
446.58	3578.68
446.77	3424.20
446.95	3328.24
447.14	3440.59
447.32	3363.35
447.51	3440.59
447.69	3463.99
447.88	3534.21
448.06	3475.70
448.25	3592.72
448.43	3562.30
448.62	3478.04
448.80	3393.78
448.99	3576.34
449.17	3611.45
449.36	3522.51
449.54	3676.98
449.73	3726.13
449.91	3639.53
450.10	3660.60
450.28	3702.73
450.46	3646.55
450.65	3744.86
450.83	3786.99
451.02	3569.32
451.20	3918.06
451.39	3676.98
451.57	3805.71
451.76	3758.90
451.94	3920.40
452.13	3894.65
452.31	3950.82
452.49	3707.41
452.68	3882.95
452.86	3723.79
453.05	3880.61
453.23	3824.44
453.42	3782.31
453.60	3904.01
453.78	3964.87
453.97	3726.13
454.15	3936.78
454.34	3758.90
454.52	3929.76
454.70	4058.49
454.89	3999.98
455.07	3960.19
455.26	4039.76
455.44	4173.18
455.62	4149.77
455.81	4117.00
455.99	4166.15
456.17	3992.95
456.36	4182.54
456.54	4117.00
456.73	4196.58
456.91	4184.88
457.09	4187.22
457.28	4416.59
457.46	4124.02
457.64	4229.35
457.83	4322.97
458.01	4227.01
458.19	4367.44
458.38	4266.80
458.56	4386.16
458.74	4468.08
458.93	4465.74
459.11	4379.14
459.29	4397.87
459.48	4554.68
459.66	4395.53
459.84	4486.81
460.03	4542.98
460.21	4615.54
460.39	4564.04
460.57	4603.83
460.76	4449.36
460.94	4477.44
461.12	4458.72
461.31	4594.47
461.49	4587.45
461.67	4449.36
461.85	4891.72
462.04	4765.33
462.22	4746.61
462.40	4732.56
462.59	4596.81
462.77	4746.61
462.95	4748.95
463.13	4777.03
463.32	4784.06
463.50	4863.63
463.68	4786.40
463.86	4786.40
464.05	4732.56
464.23	4770.01
464.41	4891.72
464.59	4952.57
464.78	4837.89
464.96	4931.51
465.14	4732.56
465.32	4957.25
465.50	4978.32
465.69	4983.00
465.87	4973.64
466.05	4898.74
466.23	4884.70
466.41	5132.79
466.60	5219.39
466.78	5104.71
466.96	5043.85
467.14	5123.43
467.32	5022.79
467.51	5163.22
467.69	4975.98
467.87	5020.45
468.05	5252.16
468.23	5097.69
468.41	5071.94
468.60	5186.63
468.78	5238.12
468.96	5067.26
469.14	5123.43
469.32	5277.91
469.50	5083.64
469.69	5256.84
469.87	5329.40
470.05	5324.72
470.23	5430.04
470.41	5336.42
470.59	5357.49
470.77	5310.68
470.95	5518.98
471.14	5509.62
471.32	5390.25
471.50	5495.58
471.68	5514.30
471.86	5626.65
472.04	5729.63
472.22	5734.31
472.40	5467.49
472.58	5636.01
472.77	5750.70
472.95	5650.05
473.13	5818.57
473.31	5734.31
473.49	5750.70
473.67	5790.49
473.85	5891.13
474.03	5942.62
474.21	5944.96
474.39	5886.45
474.57	5846.66
474.75	6052.63
474.93	6298.38
475.12	5975.39
475.30	6307.74
475.48	6155.61
475.66	6183.70
475.84	6228.17
476.02	6328.81
476.20	6174.33
476.38	6424.77
476.56	6406.05
476.74	6469.24
476.92	6387.32
477.10	6511.37
477.28	6525.41
477.46	6565.20
477.64	6759.47
477.82	6740.74
478.00	6789.89
478.18	6726.70
478.36	6841.39
478.54	6897.56
478.72	6939.69
478.90	7087.14
479.08	7218.21
479.26	7070.76
479.44	7365.67
479.62	7061.40
479.80	7302.47
479.98	7501.42
480.16	7658.23
480.34	7428.86
480.52	7513.12
480.70	7478.01
480.88	7524.82
481.06	7583.34
481.24	7616.10
481.41	7793.98
481.59	7899.31
481.77	7892.29
481.95	7705.04
482.13	8032.72
482.31	7992.93
482.49	8280.82
482.67	8201.24
482.85	8292.52
483.03	8390.82
483.21	8463.38
483.39	8491.46
483.57	8512.53
483.74	8468.06
483.92	8699.77
484.10	8484.44
484.28	8826.16
484.46	8744.24
484.64	9076.60
484.82	8908.08
485.00	8901.06
485.18	9497.89
485.35	9341.08
485.53	9259.16
485.71	9448.74
485.89	9385.55
486.07	9343.42
486.25	9572.79
486.43	9570.45
486.61	9755.35
486.78	9724.93
486.96	9635.99
487.14	9844.29
487.32	9923.87
487.50	10071.33
487.68	10122.82
487.85	10050.26
488.03	10466.88
488.21	10377.94
488.39	10415.38
488.57	10602.63
488.75	10485.60
488.92	10707.95
489.10	10874.13
489.28	10703.27
489.46	10808.59
489.64	10991.16
489.81	11171.38
489.99	11098.82
490.17	11365.64
490.35	11494.37
490.53	11494.37
490.70	11662.89
490.88	11583.31
491.06	11653.53
491.24	11620.76
491.41	11590.33
491.59	11854.81
491.77	11896.94
491.95	12002.27
492.13	12044.40
492.30	12219.94
492.48	12259.73
492.66	12222.28
492.84	12184.83
493.01	12379.09
493.19	12315.90
493.37	12615.49
493.54	12641.23
493.72	12463.35
493.90	12748.90
494.08	13001.68
494.25	12961.89
494.43	13219.35
494.61	13338.71
494.79	13303.60
494.96	13111.68
495.14	13284.88
495.32	13301.26
495.49	13474.46
495.67	13362.12
495.85	13472.12
496.02	13762.35
496.20	13638.30
496.38	13788.10
496.55	13488.51
496.73	14057.26
496.91	13989.38
497.09	13987.04
497.26	14361.53
497.44	14108.75
497.62	14417.70
497.79	14466.85
497.97	14513.66
498.14	14420.04
498.32	14700.90
498.50	14654.09
498.67	14796.87
498.85	14609.62
499.03	14778.14
499.20	14731.33
499.38	14939.64
499.56	14974.75
499.73	14984.11
499.91	15290.72
500.08	15084.75
500.26	15133.90
500.44	15332.85
500.61	15330.51
500.79	15187.74
500.97	15531.80
501.14	15515.41
501.32	15609.03
501.49	15782.23
501.67	15854.79
501.84	15747.12
502.02	15786.91
502.20	15894.58
502.37	16060.76
502.55	15714.36
502.72	16184.80
502.90	15917.98
503.07	15957.77
503.25	16004.58
503.43	16278.43
503.60	16538.23
503.78	16325.24
503.95	16140.33
504.13	16439.92
504.30	16372.05
504.48	16510.14
504.65	16629.51
504.83	16985.27
505.01	16727.81
505.18	16746.53
505.36	16980.59
505.53	16716.11
505.71	16889.31
505.88	16842.50
506.06	16758.24
506.23	17099.95
506.41	17085.91
506.58	17139.74
506.76	17177.19
506.93	17352.73
507.11	17273.15
507.28	17589.13
507.46	17387.84
507.63	17249.75
507.81	17575.08
507.98	17488.48
508.16	17350.39
508.33	17729.56
508.50	17591.47
508.68	17593.81
508.85	17937.87
509.03	17958.93
509.20	18045.53
509.38	17933.18
509.55	18185.96
509.73	18059.57
509.90	18200.01
510.08	18125.11
510.25	18286.61
510.42	18319.37
510.60	18286.61
510.77	18310.01
510.95	18661.09
511.12	18558.11
511.30	18665.77
511.47	18363.84
511.64	18803.86
511.82	19154.94
511.99	18827.27
512.17	18845.99
512.34	18654.07
512.51	19033.24
512.69	19225.16
512.86	19037.92
513.04	18867.06
513.21	18972.38
513.38	19187.71
513.56	19384.32
513.73	19398.36
513.90	19152.60
514.08	19122.18
514.25	19449.85
514.43	19410.06
514.60	19513.05
514.77	19527.09
514.95	19899.23
515.12	19531.77
515.29	19772.85
515.47	19988.18
515.64	19943.70
515.81	19618.37
515.99	19899.23
516.16	20084.14
516.33	20006.90
516.51	20020.94
516.68	19985.83
516.85	20067.75
517.03	19953.07
517.20	20297.13
517.37	20678.63
517.54	20510.11
517.72	20255.00
517.89	20400.11
518.06	20563.95
518.24	20306.49
518.41	20496.07
518.58	20175.42
518.75	20449.26
518.93	20421.17
519.10	20697.36
519.27	21128.02
519.45	20526.50
519.62	20807.36
519.79	20996.95
519.96	20767.57
520.14	21137.38
520.31	21205.25
520.48	21209.93
520.65	21113.97
520.83	21083.55
521.00	21399.52
521.17	21135.04
521.34	21359.73
521.52	21434.63
521.69	21277.81
521.86	21764.64
522.03	21406.54
522.20	21518.89
522.38	21666.34
522.55	21439.31
522.72	21624.21
522.89	21666.34
523.07	21647.61
523.24	21680.38
523.41	21916.78
523.58	21785.71
523.75	21996.35
523.92	22087.64
524.10	21788.05
524.27	22050.19
524.44	22043.17
524.61	22511.27
524.78	22485.53
524.96	22515.95
525.13	22380.20
525.30	22099.34
525.47	22106.36
525.64	22317.01
525.81	22373.18
525.98	22548.72
526.16	22239.77
526.33	22618.94
526.50	22766.39
526.67	22588.51
526.84	22679.79
527.01	22740.64
527.18	22670.43
527.36	22569.79
527.53	23009.81
527.70	22986.40
527.87	22972.36
528.04	22848.31
528.21	23070.66
528.38	22904.48
528.55	22995.76
528.72	22665.75
528.89	23328.12
529.07	23164.28
529.24	23171.30
529.41	23365.57
529.58	23215.77
529.75	23218.11
529.92	23267.27
530.09	23328.12
530.26	23278.97
530.43	23494.30
530.60	23250.88
530.77	23126.83
530.94	23625.37
531.11	23204.07
531.28	23601.96
531.46	23740.05
531.63	23300.03
531.80	23527.06
531.97	24144.97
532.14	23838.36
532.31	23793.89
532.48	23868.78
532.65	24116.88
532.82	23770.48
532.99	23969.43
533.16	23583.24
533.33	24290.08
533.50	24161.35
533.67	24208.16
533.84	23901.55
534.01	24144.97
534.18	24170.71
534.35	24334.55
534.52	24573.28
534.69	24620.10
534.86	24631.80
535.03	24091.13
535.20	24367.32
535.37	24493.71
535.54	24198.80
535.71	24510.09
535.88	24584.99
536.05	24266.67
536.22	24964.15
536.38	24950.11
536.55	24666.91
536.72	24432.85
536.89	24575.62
537.06	24915.00
537.23	24524.13
537.40	24816.70
537.57	24624.78
537.74	25060.12
537.91	24905.64
538.08	25216.93
538.25	24751.17
538.42	24669.25
538.59	25090.54
538.75	24669.25
538.92	24987.56
539.09	25022.67
539.26	24994.58
539.43	25078.84
539.60	25207.57
539.77	25242.68
539.94	25422.90
540.11	25242.68
540.28	25310.55
540.44	25223.95
540.61	25216.93
540.78	25242.68
540.95	25458.01
541.12	25130.33
541.29	25406.52
541.46	25406.52
541.62	25296.51
541.79	25137.35
541.96	25263.74
542.13	25434.60
542.30	25450.99
542.47	25649.93
542.63	25876.96
542.80	25837.17
542.97	25785.68
543.14	26082.93
543.31	26089.95
543.48	25895.69
543.64	26111.02
543.81	26293.58
543.98	25968.24
544.15	26625.93
544.32	26029.10
544.48	26412.95
544.65	26368.48
544.82	26134.42
544.99	26080.59
545.16	25986.97
545.32	26417.63
545.49	26532.31
545.66	26616.57
545.83	26370.82
546.00	26796.79
546.16	26696.15
546.33	26518.27
546.50	26214.00
546.67	26457.42
546.83	26216.34
547.00	26511.25
547.17	26876.37
547.34	26352.09
547.50	26497.20
547.67	26923.18
547.84	26789.77
548.00	26366.13
548.17	26979.36
548.34	27119.79
548.51	26639.98
548.67	27136.17
548.84	27014.46
549.01	26977.01
549.18	27023.83
549.34	26679.77
549.51	26778.07
549.68	26703.17
549.84	26953.61
550.01	27084.68
550.18	26941.91
550.34	27028.51
550.51	27180.64
550.68	27157.24
550.84	27126.81
551.01	27192.34
551.18	26969.99
551.34	26986.38
551.51	27103.40
551.68	26869.35
551.84	27225.11
552.01	27084.68
552.18	27470.87
552.34	27089.36
552.51	27517.68
552.68	27075.32
552.84	27379.59
553.01	27718.96
553.18	27571.51
553.34	27374.91
553.51	27541.08
553.67	27349.16
553.84	27660.45
554.01	27648.75
554.17	27435.76
554.34	27953.02
554.51	27246.18
554.67	27513.00
554.84	27690.88
555.00	27796.20
555.17	27765.78
555.33	27988.13
555.50	27620.66
555.67	27601.94
555.83	27468.53
556.00	27782.16
556.16	28224.52
556.33	28163.67
556.50	27978.76
556.66	27946.00
556.83	28350.91
556.99	28140.26
557.16	28486.66
557.32	28390.70
557.49	28149.62
557.65	27960.04
557.82	28245.58
557.98	28271.33
558.15	27999.83
558.32	27962.38
558.48	28311.12
558.65	28027.92
558.81	28168.35
558.98	28379.00
559.14	28222.18
559.31	28107.49
559.47	28465.60
559.64	28311.12
559.80	28505.38
559.97	28489.00
560.13	28278.35
560.30	28278.35
560.46	28608.37
560.63	28273.67
560.79	28535.81
560.96	28489.00
561.12	28423.47
561.29	28332.18
561.45	28512.41
561.61	28247.93
561.78	28526.45
561.94	28474.96
562.11	28503.04
562.27	28896.25
562.44	28629.43
562.60	28556.88
562.77	28395.38
562.93	28390.70
563.10	28575.60
563.26	28758.16
563.42	29027.32
563.59	29003.92
563.75	28737.10
563.92	28554.54
564.08	28283.03
564.24	28479.64
564.41	28395.38
564.57	28732.42
564.74	28638.80
564.90	28987.53
565.07	28753.48
565.23	28772.21
565.39	28725.39
565.56	28774.55
565.72	28652.84
565.88	29074.13
566.05	28720.71
566.21	28826.04
566.38	28886.89
566.54	29008.60
566.70	29153.71
566.87	29160.73
567.03	29200.52
567.19	29202.86
567.36	28875.19
567.52	28680.92
567.68	29039.03
567.85	28814.34
568.01	29071.79
568.17	28877.53
568.34	29453.30
568.50	28851.78
568.66	29270.74
568.83	29064.77
568.99	29036.69
569.15	29170.10
569.32	28786.25
569.48	29064.77
569.64	29055.41
569.81	29259.04
569.97	29268.40
570.13	29050.73
570.30	29207.55
570.46	29046.05
570.62	29207.55
570.78	29275.42
570.95	29254.36
571.11	28957.11
571.27	28936.04
571.43	29312.87
571.60	29102.22
571.76	29165.42
571.92	29343.30
572.09	29062.43
572.25	29125.63
572.41	29764.59
572.57	29226.27
572.74	29074.13
572.90	29242.65
573.06	29181.80
573.22	29259.04
573.38	29184.14
573.55	29146.69
573.71	29233.29
573.87	29364.36
574.03	29247.33
574.20	29465.00
574.36	29333.93
574.52	29099.88
574.68	28779.23
574.84	29137.33
575.01	28809.65
575.17	29216.91
575.33	29191.16
575.49	29474.37
575.65	29345.64
575.82	29521.18
575.98	29516.50
576.14	29525.86
576.30	29151.37
576.46	29202.86
576.62	29277.76
576.79	29542.24
576.95	29362.02
577.11	29504.79
577.27	29614.80
577.43	29472.03
577.59	29687.36
577.75	29710.76
577.92	29439.26
578.08	29266.06
578.24	28978.17
578.40	29605.44
578.56	29364.36
578.72	29050.73
578.88	29692.04
579.04	29694.38
579.21	29500.11
579.37	29692.04
579.53	29308.19
579.69	29207.55
579.85	29298.83
580.01	29280.10
580.17	29659.27
580.33	29294.14
580.49	29378.40
580.65	29617.14
580.82	29153.71
580.98	29975.24
581.14	29151.37
581.30	29125.63
581.46	29460.32
581.62	29343.30
581.78	29500.11
581.94	29383.09
582.10	29434.58
582.26	29380.74
582.42	29315.21
582.58	29879.28
582.74	29546.92
582.90	29598.41
583.06	29900.34
583.22	29406.49
583.38	29415.85
583.54	29883.96
583.70	29415.85
583.86	29469.69
584.02	29453.30
584.18	29612.46
584.34	29935.45
584.50	29507.13
584.66	29481.39
584.82	29195.84
584.98	29535.22
585.14	29612.46
585.30	29394.79
585.46	29074.13
585.62	29270.74
585.78	29600.76
585.94	29539.90
586.10	29694.38
586.26	29720.12
586.42	29722.46
586.58	29813.74
586.74	29542.24
586.90	29261.38
587.06	29546.92
587.22	29418.19
587.38	29682.67
587.54	29621.82
587.70	29677.99
587.86	29879.28
588.02	29816.08
588.18	29984.60
588.34	29612.46
588.49	29680.33
588.65	29862.90
588.81	29359.68
588.97	29802.04
589.13	30108.65
589.29	29610.12
589.45	29291.80
589.61	29663.95
589.77	30361.43
589.93	30361.43
590.08	30148.44
590.24	29598.41
590.40	30141.42
590.56	30064.18
590.72	29677.99
590.88	29668.63
591.04	29851.19
591.20	29958.86
591.35	29832.47
591.51	30487.82
591.67	30249.08
591.83	30490.16
591.99	29876.94
592.15	30031.41
592.31	29963.54
592.46	29507.13
592.62	29607.78
592.78	29429.90
592.94	29703.74
593.10	29780.98
593.26	30216.32
593.41	29970.56
593.57	30045.46
593.73	29830.13
593.89	30356.75
594.05	30110.99
594.20	29528.20
594.36	30120.35
594.52	29921.41
594.68	29926.09
594.84	29467.34
594.99	30036.09
595.15	29771.61
595.31	30082.91
595.47	30096.95
595.62	30387.18
595.78	30401.22
595.94	29914.39
596.10	30033.75
596.25	30043.12
596.41	29935.45
596.57	29839.49
596.73	30031.41
596.88	29916.73
597.04	29986.94
597.20	30424.62
597.36	30274.83
597.51	30195.25
597.67	30326.32
597.83	30352.07
597.99	29804.38
598.14	29825.45
598.30	29788.00
598.46	30108.65
598.61	30031.41
598.77	29677.99
598.93	30127.38
599.09	29979.92
599.24	30686.76
599.40	30033.75
599.56	30307.60
599.71	30052.48
599.87	29909.71
600.03	30075.88
600.18	30197.59
600.34	29986.94
600.50	30043.12
600.65	29888.64
600.81	30309.94
600.97	30258.45
601.12	30050.14
601.28	30293.55
601.44	29937.79
601.59	30192.91
601.75	30150.78
601.91	30398.88
602.06	29991.62
602.22	30040.78
602.37	30359.09
602.53	30113.33
602.69	30221.00
602.84	30015.03
603.00	30206.95
603.16	30089.93
603.31	30277.17
603.47	29905.02
603.62	29839.49
603.78	30277.17
603.94	29944.81
604.09	30237.38
604.25	30352.07
604.40	30043.12
604.56	29923.75
604.71	30129.72
604.87	30085.25
605.03	30288.87
605.18	30169.51
605.34	30092.27
605.49	29993.97
605.65	30127.38
605.80	29816.08
605.96	29584.37
606.12	29970.56
606.27	30061.84
606.43	30078.22
606.58	30347.39
606.74	30054.82
606.89	29907.37
607.05	29933.11
607.20	30012.69
607.36	30199.93
607.51	29865.24
607.67	29652.25
607.82	30047.80
607.98	29965.88
608.13	30101.63
608.29	30368.45
608.44	29972.90
608.60	29860.55
608.75	30160.14
608.91	30260.79
609.06	29596.07
609.22	29902.68
609.37	29731.83
609.53	29621.82
609.68	29839.49
609.84	29577.35
609.99	30054.82
610.15	29942.47
610.30	30061.84
610.46	29923.75
610.61	29839.49
610.76	29963.54
610.92	29846.51
611.07	29809.06
611.23	29972.90
611.38	30054.82
611.54	29661.61
611.69	29663.95
611.84	29415.85
612.00	29537.56
612.15	29160.73
612.31	29685.01
612.46	29703.74
612.62	29958.86
612.77	29404.15
612.92	29820.77
613.08	29668.63
613.23	29612.46
613.39	29317.55
613.54	29582.03
613.69	29347.98
613.85	29645.23
614.00	29319.89
614.15	29481.39
614.31	29675.65
614.46	29221.59
614.62	29340.96
614.77	29507.13
614.92	29469.69
615.08	29888.64
615.23	29486.07
615.38	29434.58
615.54	29177.12
615.69	29425.22
615.84	29289.46
616.00	29504.79
616.15	29656.93
616.30	29603.10
616.46	29474.37
616.61	29481.39
616.76	29404.15
616.92	29301.17
617.07	29212.23
617.22	29284.78
617.37	29109.24
617.53	29677.99
617.68	29186.48
617.83	28917.32
617.99	29050.73
618.14	28966.47
618.29	29530.54
618.45	29015.62
618.60	29586.71
618.75	29336.27
618.90	29149.03
619.06	29579.69
619.21	29312.87
619.36	29010.94
619.51	29266.06
619.67	29106.90
619.82	28690.29
619.97	28950.09
620.12	28751.14
620.28	28961.79
620.43	29032.00
620.58	29373.72
620.73	29017.96
620.89	29308.19
621.04	28865.83
621.19	29111.58
621.34	28779.23
621.49	28596.67
621.65	28835.40
621.80	29230.95
621.95	28449.21
622.10	28793.27
622.25	28659.86
622.41	28636.45
622.56	28648.16
622.71	28954.77
622.86	28631.77
623.01	28355.59
623.16	28753.48
623.32	28533.47
623.47	28638.80
623.62	28608.37
623.77	28776.89
623.92	28840.08
624.07	28163.67
624.23	28489.00
624.38	28498.36
624.53	28620.07
624.68	28943.06
624.83	28521.77
624.98	28624.75
625.13	28507.72
625.29	28559.22
625.44	28353.25
625.59	28135.58
625.74	28355.59
625.89	28151.96
626.04	28212.82
626.19	28114.52
626.34	28524.11
626.49	28020.89
626.65	27967.06
626.80	28320.48
626.95	28393.04
627.10	28493.68
627.25	28184.73
627.40	27988.13
627.55	27910.89
627.70	27498.95
627.85	27988.13
628.00	27992.81
628.15	28379.00
628.30	28147.28
628.45	27894.50
628.60	28254.95
628.76	27681.52
628.91	28151.96
629.06	27955.36
629.21	27950.68
629.36	27882.80
629.51	28025.57
629.66	27978.76
629.81	27852.38
629.96	27733.01
630.11	27580.87
630.26	27950.68
630.41	27548.11
630.56	27784.50
630.71	27613.64
630.86	27854.72
631.01	27653.43
631.16	27910.89
631.31	27929.61
631.46	27592.58
631.61	27819.61
631.76	27665.13
631.91	27402.99
632.06	27182.98
632.21	27487.25
632.36	27295.33
632.51	27288.31
632.66	27522.36
632.81	27536.40
632.96	27674.49
633.10	27419.38
633.25	28037.28
633.40	27470.87
633.55	27669.81
633.70	27393.63
633.85	27328.10
634.00	27143.19
634.15	27253.20
634.30	27182.98
634.45	27405.33
634.60	27414.69
634.75	27147.87
634.90	26862.33
635.05	27012.12
635.19	27435.76
635.34	27412.35
635.49	27484.91
635.64	27337.46
635.79	27442.78
635.94	27065.96
636.09	27101.06
636.24	26808.50
636.39	27164.26
636.53	26939.57
636.68	26876.37
636.83	26883.39
636.98	26927.86
637.13	27012.12
637.28	26991.06
637.43	27211.07
637.57	27065.96
637.72	26939.57
637.87	27271.92
638.02	26787.43
638.17	26801.47
638.32	27042.55
638.46	26642.32
638.61	26775.73
638.76	26639.98
638.91	26485.50
639.06	26962.97
639.20	26813.18
639.35	26937.23
639.50	26625.93
639.65	26925.52
639.80	26768.71
639.94	27084.68
640.09	26665.72
640.24	26553.38
640.39	26869.35
640.54	26572.10
640.68	26761.69
640.83	26347.41
640.98	26274.85
641.13	26258.47
641.27	26448.05
641.42	26204.64
641.57	26473.80
641.72	26431.67
641.86	26754.66
642.01	26441.03
642.16	26426.99
642.31	26326.35
642.45	26499.55
642.60	26066.55
642.75	26024.42
642.90	25902.71
643.04	26380.18
643.19	25954.20
643.34	26389.54
643.48	26288.90
643.63	26209.32
643.78	26272.51
643.93	26375.50
644.07	26256.13
644.22	26312.30
644.37	26150.81
644.51	26094.63
644.66	25764.62
644.81	25851.22
644.95	26129.74
645.10	25895.69
645.25	26118.04
645.39	26050.16
645.54	25907.39
645.69	25970.58
645.83	26075.91
645.98	26195.28
646.13	26333.37
646.27	26092.29
646.42	25731.85
646.57	26008.03
646.71	25888.67
646.86	25773.98
647.00	26031.44
647.15	25912.07
647.30	25694.40
647.44	25614.82
647.59	25759.94
647.74	25839.51
647.88	25820.79
648.03	26134.42
648.17	25783.34
648.32	25483.75
648.47	25830.15
648.61	25893.35
648.76	25926.11
648.90	25860.58
649.05	25575.03
649.20	25834.83
649.34	25898.03
649.49	25460.35
649.63	25841.85
649.78	25221.61
649.92	25095.22
650.07	25731.85
650.21	25635.89
650.36	25757.60
650.51	25612.48
650.65	25881.64
650.80	25951.86
650.94	25500.14
651.09	25254.38
651.23	25441.62
651.38	25322.26
651.52	25642.91
651.67	25376.09
651.81	25343.32
651.96	25338.64
652.10	25340.98
652.25	25355.02
652.39	25413.54
652.54	25259.06
652.68	25331.62
652.83	25479.07
652.97	25511.84
653.12	25490.77
653.26	25064.80
653.41	25170.12
653.55	25563.33
653.70	25081.18
653.84	25221.61
653.99	25249.70
654.13	25238.00
654.27	25085.86
654.42	25076.50
654.56	25006.28
654.71	25263.74
654.85	25069.48
655.00	25280.13
655.14	25156.08
655.29	24893.94
655.43	24933.73
655.57	24884.58
655.72	24868.19
655.86	25172.46
656.01	24875.21
656.15	24772.23
656.30	24994.58
656.44	25010.96
656.58	24744.14
656.73	24786.27
656.87	24868.19
657.01	24849.47
657.16	24769.89
657.30	24924.36
657.45	24751.17
657.59	24793.29
657.73	24334.55
657.88	24819.04
658.02	24961.81
658.16	24992.24
658.31	24617.75
658.45	24245.61
658.60	24582.65
658.74	24428.17
658.88	24584.99
659.03	24592.01
659.17	24482.00
659.31	24580.31
659.46	24140.29
659.60	24531.15
659.74	24587.33
659.89	24596.69
660.03	24163.69
660.17	24257.31
660.32	24102.84
660.46	24072.41
660.60	23983.47
660.74	24077.09
660.89	24547.54
661.03	23468.55
661.17	24006.87
661.32	24063.05
661.46	24006.87
661.60	24112.20
661.74	24140.29
661.89	23791.55
662.03	23882.83
662.17	23901.55
662.31	23894.53
662.46	23948.36
662.60	23777.50
662.74	23857.08
662.88	23683.88
663.03	23356.21
663.17	23709.63
663.31	23508.34
663.45	23421.74
663.60	23634.73
663.74	23283.65
663.88	23337.48
664.02	23445.15
664.17	23742.39
664.31	23515.36
664.45	23442.81
664.59	23410.04
664.73	23377.27
664.88	23328.12
665.02	23236.84
665.16	23250.88
665.30	23396.00
665.44	23295.35
665.59	22857.67
665.73	23101.09
665.87	22972.36
666.01	23084.70
666.15	23255.56
666.29	22970.02
666.44	23269.61
666.58	22815.54
666.72	22951.29
666.86	22906.82
667.00	23283.65
667.14	22796.82
667.28	22815.54
667.43	22668.09
667.57	22845.97
667.71	22647.02
667.85	22661.07
667.99	22691.49
668.13	22647.02
668.27	22513.61
668.41	22597.87
668.56	22410.63
668.70	22361.48
668.84	22871.72
668.98	22153.17
669.12	22553.40
669.26	22342.75
669.40	22274.88
669.54	22370.84
669.68	22129.77
669.82	22029.12
669.96	21928.48
670.10	21825.50
670.25	21748.26
670.39	21991.67
670.53	21984.65
670.67	21699.11
670.81	22078.27
670.95	22052.53
671.09	21610.17
671.23	21729.53
671.37	21841.88
671.51	22038.48
671.65	21656.98
671.79	21544.63
671.93	21914.44
672.07	21624.21
672.21	21668.68
672.35	21406.54
672.49	21282.49
672.63	21373.77
672.77	21191.21
672.91	21336.32
673.05	21394.84
673.19	21238.02
673.33	21233.34
673.47	21025.03
673.61	21469.73
673.75	21170.15
673.89	21605.49
674.03	21259.09
674.17	21020.35
674.31	21132.70
674.45	20737.15
674.59	20903.32
674.73	20971.20
674.87	20718.42
675.01	20933.75
675.15	20781.62
675.29	20793.32
675.43	20613.10
675.56	20652.89
675.70	20732.47
675.84	20559.27
675.98	19950.73
676.12	20718.42
676.26	20498.41
676.40	20421.17
676.54	20297.13
676.68	20369.68
676.82	19969.45
676.96	20182.44
677.10	19967.11
677.23	20034.99
677.37	19761.14
677.51	19515.39
677.65	19763.48
677.79	19515.39
677.93	19723.69
678.07	19424.11
678.21	19676.88
678.34	19585.60
678.48	19274.31
678.62	19587.94
678.76	19510.71
678.90	19157.28
679.04	19295.38
679.18	19440.49
679.31	19094.09
679.45	19379.64
679.59	18995.79
679.73	18757.05
679.87	18817.91
680.00	18810.89
680.14	18853.02
680.28	18541.72
680.42	18548.75
680.56	18841.31
680.70	18527.68
680.83	18878.76
680.97	18457.46
681.11	18637.69
681.25	18277.24
681.39	18204.69
681.52	18122.77
681.66	18200.01
681.80	18043.19
681.94	18310.01
682.07	18136.81
682.21	18101.70
682.35	17928.50
682.49	17987.02
682.62	17752.96
682.76	17488.48
682.90	17607.85
683.04	17811.48
683.17	17809.14
683.31	17752.96
683.45	17743.60
683.59	17673.39
683.72	17518.91
683.86	17167.83
684.00	17621.89
684.13	17228.68
684.27	17125.70
684.41	17280.18
684.55	17069.53
684.68	16826.11
684.82	16882.28
684.96	16760.58
685.09	16720.79
685.23	16912.71
685.37	16861.22
685.50	16772.28
685.64	16798.02
685.78	16620.14
685.91	16552.27
686.05	16655.25
686.19	16545.25
686.32	16648.23
686.46	16259.70
686.60	16423.54
686.73	16264.38
686.87	16159.06
687.01	16245.66
687.14	16168.42
687.28	15859.47
687.42	15847.77
687.55	15950.75
687.69	15894.58
687.82	15768.19
687.96	15824.36
688.10	15681.59
688.23	15707.34
688.37	15690.95
688.50	15737.76
688.64	15641.80
688.78	15749.46
688.91	15475.62
689.05	15393.70
689.18	15480.30
689.32	15321.15
689.46	15070.71
689.59	15059.01
689.73	15297.74
689.86	14909.21
690.00	14850.70
690.13	14860.06
690.27	14771.12
690.41	15049.64
690.54	14757.08
690.68	14843.68
690.81	14703.25
690.95	14848.36
691.08	14855.38
691.22	14553.45
691.35	14452.81
691.49	14885.81
691.62	14611.96
691.76	14494.94
691.89	14338.12
692.03	14097.05
692.16	14366.21
692.30	14174.28
692.43	14171.94
692.57	13954.27
692.70	13755.33
692.84	13951.93
692.97	13809.16
693.11	13785.76
693.24	13767.03
693.38	13778.73
693.51	13563.40
693.65	13841.93
693.78	13448.72
693.92	13572.77
694.05	13710.86
694.19	13628.94
694.32	13422.97
694.45	13338.71
694.59	13352.76
694.72	13188.92
694.86	13048.49
694.99	13102.32
695.13	12933.80
695.26	13153.81
695.39	12938.48
695.53	13041.46
695.66	13048.49
695.80	12800.39
695.93	12933.80
696.07	12720.81
696.20	13036.78
696.33	12814.43
696.47	12662.30
696.60	12559.31
696.73	12425.90
696.87	12451.65
697.00	12264.41
697.14	12486.76
697.27	12163.76
697.40	12152.06
697.54	12049.08
697.67	12070.14
697.80	11985.88
697.94	11988.22
698.07	11824.39
698.21	11929.71
698.34	11754.17
698.47	12152.06
698.61	11768.21
698.74	11946.09
698.87	11812.68
699.01	11719.06
699.14	11665.23
699.27	11466.28
699.40	11707.36
699.54	11702.68
699.67	11468.62
699.80	11510.75
699.94	11075.42
700.07	11250.96
700.20	11176.06
700.34	11162.01
700.47	11098.82
700.60	11080.10
700.73	11176.06
700.87	10979.45
701.00	10890.51
701.13	10909.24
701.26	11054.35
701.40	11014.56
701.53	11094.14
701.66	10815.62
701.79	10520.71
701.93	10593.26
702.06	10588.58
702.19	10642.42
702.32	10476.24
702.46	10328.78
702.59	10356.87
702.72	10331.12
702.85	10370.91
702.99	10244.52
703.12	10104.09
703.25	10045.58
703.38	10136.86
703.51	10090.05
703.65	10085.37
703.78	10064.30
703.91	9966.00
704.04	10076.01
704.17	9926.21
704.31	9874.72
704.44	9823.23
704.57	9689.82
704.70	9565.77
704.83	9537.68
704.96	9525.98
705.10	9720.24
705.23	9617.26
>>>>>End Processed Spectral Data<<<<<
