SpectraSuite Data File
++++++++++++++++++++++++++++++++++++
Date: Fri Oct 18 13:58:10 GMT-05:00 2013
User: bianchi
Dark Spectrum Present: No
Reference Spectrum Present: No
Number of Sampled Component Spectra: 1
Spectrometers: USB2+H05261
Integration Time (usec): 50000 (USB2+H05261)
Spectra Averaged: 1 (USB2+H05261)
Boxcar Smoothing: 0 (USB2+H05261)
Correct for Electrical Dark: No (USB2+H05261)
Strobe/Lamp Enabled: No (USB2+H05261)
Correct for Detector Non-linearity: No (USB2+H05261)
Correct for Stray Light: No (USB2+H05261)
Number of Pixels in Processed Spectrum: 2048
>>>>>Begin Processed Spectral Data<<<<<
365.73	0.00
365.92	0.00
366.12	0.00
366.32	0.00
366.52	0.00
366.72	0.00
366.91	0.00
367.11	0.00
367.31	0.00
367.51	0.00
367.70	0.00
367.90	0.00
368.10	0.00
368.30	0.00
368.49	0.00
368.69	0.00
368.89	0.00
369.09	0.00
369.28	0.00
369.48	0.00
369.68	0.00
369.87	0.00
370.07	0.00
370.27	0.00
370.47	0.00
370.66	42.13
370.86	70.22
371.06	145.11
371.25	220.01
371.45	140.43
371.65	156.82
371.84	173.20
372.04	189.58
372.24	180.22
372.44	196.60
372.63	236.39
372.83	299.59
373.03	243.42
373.22	215.33
373.42	201.29
373.62	250.44
373.81	203.63
374.01	262.14
374.21	294.91
374.40	283.20
374.60	231.71
374.79	334.70
374.99	215.33
375.19	234.05
375.38	234.05
375.58	220.01
375.78	341.72
375.97	257.46
376.17	280.86
376.37	248.10
376.56	287.89
376.76	269.16
376.95	250.44
377.15	313.63
377.35	248.10
377.54	241.08
377.74	250.44
377.93	318.31
378.13	341.72
378.33	248.10
378.52	264.48
378.72	248.10
378.91	290.23
379.11	243.42
379.31	215.33
379.50	301.93
379.70	313.63
379.89	264.48
380.09	271.50
380.28	304.27
380.48	304.27
380.68	255.12
380.87	339.38
381.07	348.74
381.26	234.05
381.46	339.38
381.65	341.72
381.85	360.44
382.04	351.08
382.24	379.17
382.43	334.70
382.63	337.04
382.83	372.15
383.02	339.38
383.22	355.76
383.41	395.55
383.61	376.83
383.80	346.40
384.00	388.53
384.19	430.66
384.39	388.53
384.58	372.15
384.78	348.74
384.97	397.89
385.17	379.17
385.36	388.53
385.56	351.08
385.75	423.64
385.95	308.95
386.14	458.74
386.34	433.00
386.53	414.27
386.72	388.53
386.92	383.85
387.11	470.45
387.31	489.17
387.50	451.72
387.70	463.43
387.89	416.62
388.09	557.05
388.28	369.80
388.48	477.47
388.67	400.23
388.86	447.04
389.06	463.43
389.25	451.72
389.45	486.83
389.64	430.66
389.84	484.49
390.03	510.24
390.22	388.53
390.42	517.26
390.61	505.56
390.81	524.28
391.00	507.90
391.19	463.43
391.39	507.90
391.58	500.87
391.78	568.75
391.97	552.37
392.16	571.09
392.36	526.62
392.55	587.47
392.75	564.07
392.94	622.58
393.13	568.75
393.33	463.43
393.52	596.84
393.71	634.29
393.91	564.07
394.10	566.41
394.29	547.69
394.49	655.35
394.68	559.39
394.88	592.16
395.07	613.22
395.26	552.37
395.46	620.24
395.65	631.94
395.84	720.88
396.04	671.73
396.23	662.37
396.42	601.52
396.62	655.35
396.81	643.65
397.00	676.41
397.19	706.84
397.39	664.71
397.58	730.25
397.77	704.50
397.97	685.78
398.16	744.29
398.35	711.52
398.55	669.39
398.74	788.76
398.93	725.57
399.12	816.85
399.32	674.07
399.51	711.52
399.70	758.33
399.90	720.88
400.09	791.10
400.28	821.53
400.47	781.74
400.67	840.25
400.86	844.93
401.05	737.27
401.24	753.65
401.44	847.27
401.63	802.80
401.82	777.06
402.01	858.98
402.21	947.92
402.40	889.40
402.59	802.80
402.78	851.96
402.97	833.23
403.17	903.45
403.36	887.06
403.55	875.36
403.74	915.15
403.93	1034.52
404.13	919.83
404.32	880.04
404.51	894.08
404.70	947.92
404.89	980.68
405.09	959.62
405.28	891.74
405.47	1018.13
405.66	978.34
405.85	1015.79
406.05	1020.47
406.24	997.07
406.43	1020.47
406.62	1032.18
406.81	1151.54
407.00	1046.22
407.20	1041.54
407.39	1050.90
407.58	1114.10
407.77	1055.58
407.96	1097.71
408.15	1151.54
408.34	1083.67
408.54	1086.01
408.73	1057.92
408.92	1123.46
409.11	1142.18
409.30	1174.95
409.49	1144.52
409.68	1212.40
409.87	1144.52
410.07	1212.40
410.26	1160.91
410.45	1270.91
410.64	1196.01
410.83	1130.48
411.02	1221.76
411.21	1296.66
411.40	1259.21
411.59	1404.32
411.78	1303.68
411.98	1282.61
412.17	1219.42
412.36	1334.11
412.55	1394.96
412.74	1430.07
412.93	1427.73
413.12	1446.45
413.31	1542.41
413.50	1448.79
413.69	1441.77
413.88	1467.52
414.07	1418.36
414.26	1444.11
414.45	1425.39
414.64	1533.05
414.83	1579.86
415.02	1582.20
415.22	1650.08
415.41	1614.97
415.60	1511.99
415.79	1568.16
415.98	1624.33
416.17	1643.06
416.36	1771.79
416.55	1556.46
416.74	1682.85
416.93	1689.87
417.12	1816.26
417.31	1708.59
417.50	1736.68
417.69	1743.70
417.88	1839.66
418.07	1767.10
418.26	1776.47
418.45	1837.32
418.64	1937.96
418.83	1912.22
419.02	1877.11
419.21	1914.56
419.39	1900.52
419.58	1893.49
419.77	1872.43
419.96	1914.56
420.15	1942.64
420.34	1973.07
420.53	1830.30
420.72	1834.98
420.91	1827.96
421.10	2001.16
421.29	2003.50
421.48	2012.86
421.67	2043.29
421.86	2141.59
422.05	2113.50
422.24	1994.14
422.43	2017.54
422.61	1947.33
422.80	1989.46
422.99	2069.03
423.18	2059.67
423.37	2160.31
423.56	2125.21
423.75	2094.78
423.94	1980.09
424.13	1907.54
424.32	2043.29
424.50	2092.44
424.69	2090.10
424.88	2221.17
425.07	2118.18
425.26	1977.75
425.45	2132.23
425.64	2017.54
425.83	2066.69
426.01	2097.12
426.20	2059.67
426.39	2033.93
426.58	2179.04
426.77	2017.54
426.96	2031.58
427.15	2108.82
427.33	2118.18
427.52	2218.83
427.71	2197.76
427.90	2204.78
428.09	2279.68
428.28	2216.49
428.46	2186.06
428.65	2279.68
428.84	2249.25
429.03	2284.36
429.22	2125.21
429.40	2284.36
429.59	2375.64
429.78	2272.66
429.97	2293.72
430.16	2403.73
430.34	2305.43
430.53	2303.09
430.72	2375.64
430.91	2342.88
431.10	2368.62
431.28	2387.35
431.47	2356.92
431.66	2431.82
431.85	2368.62
432.03	2441.18
432.22	2469.27
432.41	2511.39
432.60	2502.03
432.79	2590.97
432.97	2420.11
433.16	2415.43
433.35	2492.67
433.54	2612.04
433.72	2572.25
433.91	2450.54
434.10	2684.59
434.28	2574.59
434.47	2609.70
434.66	2651.83
434.85	2607.36
435.03	2574.59
435.22	2626.08
435.41	2679.91
435.59	2593.31
435.78	2729.06
435.97	2642.46
436.16	2682.25
436.34	2745.45
436.53	2675.23
436.72	2747.79
436.90	2801.62
437.09	2813.32
437.28	2710.34
437.46	2836.73
437.65	2836.73
437.84	2792.26
438.02	2822.69
438.21	2881.20
438.40	2808.64
438.58	2883.54
438.77	2916.31
438.96	3002.91
439.14	2930.35
439.33	3049.72
439.52	3045.04
439.70	2998.23
439.89	3136.32
440.08	3005.25
440.26	3260.37
440.45	3047.38
440.63	3131.64
440.82	3192.49
441.01	3176.11
441.19	3276.75
441.38	3428.88
441.57	3255.69
441.75	3243.98
441.94	3302.50
442.12	3269.73
442.31	3295.47
442.50	3316.54
442.68	3431.23
442.87	3267.39
443.05	3286.11
443.24	3440.59
443.43	3375.05
443.61	3361.01
443.80	3618.47
443.98	3323.56
444.17	3293.13
444.35	3489.74
444.54	3456.97
444.73	3620.81
444.91	3503.78
445.10	3473.36
445.28	3768.26
445.47	3552.93
445.65	3599.74
445.84	3452.29
446.02	3499.10
446.21	3566.98
446.39	3473.36
446.58	3489.74
446.77	3475.70
446.95	3552.93
447.14	3555.27
447.32	3653.58
447.51	3637.19
447.69	3648.90
447.88	3515.48
448.06	3616.13
448.25	3637.19
448.43	3602.08
448.62	3644.21
448.80	3639.53
448.99	3749.54
449.17	3691.02
449.36	3646.55
449.54	3758.90
449.73	3592.72
449.91	3770.60
450.10	3777.62
450.28	3784.65
450.46	3889.97
450.65	3838.48
450.83	3737.84
451.02	3854.86
451.20	3819.75
451.39	3915.72
451.57	3866.56
451.76	3873.59
451.94	3882.95
452.13	3964.87
452.31	3817.41
452.49	3882.95
452.68	3911.04
452.86	3941.46
453.05	3934.44
453.23	4025.72
453.42	3955.51
453.60	3892.31
453.78	3960.19
453.97	3875.93
454.15	3962.53
454.34	3974.23
454.52	4093.60
454.70	4042.11
454.89	3978.91
455.07	4058.49
455.26	4241.05
455.44	4348.72
455.62	4142.75
455.81	4140.41
455.99	4156.79
456.17	4156.79
456.36	4337.01
456.54	4301.90
456.73	4430.63
456.91	4418.93
457.09	4468.08
457.28	4533.62
457.46	4402.55
457.64	4531.28
457.83	4346.37
458.01	4376.80
458.19	4503.19
458.38	4498.51
458.56	4402.55
458.74	4304.25
458.93	4337.01
459.11	4440.00
459.29	4510.21
459.48	4599.15
459.66	4631.92
459.84	4657.67
460.03	4620.22
460.21	4622.56
460.39	4645.96
460.57	4727.88
460.76	4702.14
460.94	4762.99
461.12	4814.48
461.31	4685.75
461.49	4526.60
461.67	4795.76
461.85	4807.46
462.04	4755.97
462.22	5130.45
462.40	4828.53
462.59	4837.89
462.77	4835.55
462.95	5020.45
463.13	4812.14
463.32	5013.43
463.50	4894.06
463.68	4978.32
463.86	4847.25
464.05	4833.21
464.23	4833.21
464.41	4926.83
464.59	4805.12
464.78	5050.88
464.96	5109.39
465.14	4975.98
465.32	4947.89
465.50	5195.99
465.69	5090.67
465.87	4957.25
466.05	5071.94
466.23	5071.94
466.41	5181.95
466.60	5263.86
466.78	5008.75
466.96	5088.32
467.14	5027.47
467.32	5235.78
467.51	5322.38
467.69	5132.79
467.87	5291.95
468.05	5280.25
468.23	5188.97
468.41	5165.56
468.60	5313.02
468.78	5490.90
468.96	5160.88
469.14	5516.64
469.32	5392.59
469.50	5327.06
469.69	5460.47
469.87	5521.32
470.05	5565.79
470.23	5598.56
470.41	5425.36
470.59	5570.48
470.77	5650.05
470.95	5565.79
471.14	5694.52
471.32	5692.18
471.50	5813.89
471.68	5788.14
471.86	5738.99
472.04	5717.93
472.22	5895.81
472.40	5682.82
472.58	5863.04
472.77	5757.72
472.95	5937.94
473.13	6106.46
473.31	5987.09
473.49	5989.43
473.67	5961.34
473.85	5961.34
474.03	6188.38
474.21	6197.74
474.39	6214.12
474.57	6129.86
474.75	6251.57
474.93	6445.84
475.12	6445.84
475.30	6293.70
475.48	6256.25
475.66	6424.77
475.84	6403.71
476.02	6555.84
476.20	6420.09
476.38	6518.39
476.56	6712.66
476.74	6796.92
476.92	6640.10
477.10	6558.18
477.28	6825.00
477.46	6729.04
477.64	6895.22
477.82	6981.82
478.00	7016.93
478.18	7082.46
478.36	7089.48
478.54	7227.57
478.72	7279.07
478.90	7344.60
479.08	7442.90
479.26	7302.47
479.44	7243.96
479.62	7545.89
479.80	7590.36
479.98	7592.70
480.16	7620.78
480.34	7644.19
480.52	7875.90
480.70	7742.49
480.88	7623.12
481.06	7779.94
481.24	7859.52
481.41	8009.31
481.59	8224.64
481.77	8245.71
481.95	8116.98
482.13	8393.16
482.31	8161.45
482.49	8313.58
482.67	8439.97
482.85	8512.53
483.03	8753.60
483.21	8812.12
483.39	8727.86
483.57	8777.01
483.74	8793.39
483.92	9078.94
484.10	8816.80
484.28	9341.08
484.46	9202.99
484.64	9341.08
484.82	9380.87
485.00	9111.71
485.18	9411.29
485.35	9448.74
485.53	9591.52
485.71	9741.31
485.89	9671.09
486.07	9788.12
486.25	9827.91
486.43	9834.93
486.61	9834.93
486.78	10237.50
486.96	10111.11
487.14	10235.16
487.32	10319.42
487.50	10375.59
487.68	10623.69
487.85	10721.99
488.03	10663.48
488.21	10883.49
488.39	10787.53
488.57	10853.06
488.75	11122.23
488.92	11257.98
489.10	11096.48
489.28	11335.21
489.46	11241.59
489.64	11384.37
489.81	11185.42
489.99	11489.69
490.17	11651.19
490.35	11768.21
490.53	11857.15
490.70	11786.94
490.88	11925.03
491.06	12002.27
491.24	11936.73
491.41	11990.56
491.59	12327.60
491.77	12229.30
491.95	12545.27
492.13	12285.47
492.30	12510.16
492.48	12465.69
492.66	12610.81
492.84	12798.05
493.01	12716.13
493.19	12872.95
493.37	13158.49
493.54	13217.01
493.72	13397.23
493.90	12971.25
494.08	13158.49
494.25	13329.35
494.43	13420.63
494.61	13490.85
494.79	13493.19
494.96	13542.34
495.14	13570.43
495.32	13874.70
495.49	13874.70
495.67	13886.40
495.85	14492.60
496.02	14178.97
496.20	14340.46
496.38	14083.00
496.55	14281.95
496.73	14607.28
496.91	14267.91
497.09	14574.52
497.26	14579.20
497.44	14855.38
497.62	14525.36
497.79	14630.69
497.97	14705.59
498.14	15047.30
498.32	15468.60
498.50	15096.46
498.67	15344.55
498.85	15157.31
499.03	15414.77
499.20	15269.66
499.38	15384.34
499.56	15508.39
499.73	15812.66
499.91	15606.69
500.08	15630.10
500.26	15515.41
500.44	15852.45
500.61	15917.98
500.79	15728.40
500.97	16081.82
501.14	16198.85
501.32	16278.43
501.49	16262.04
501.67	16266.72
501.84	16233.96
502.02	16184.80
502.20	16475.03
502.37	16409.50
502.55	16500.78
502.72	16484.39
502.90	16615.46
503.07	16585.04
503.25	16585.04
503.43	16917.39
503.60	16772.28
503.78	17116.34
503.95	16971.22
504.13	17214.64
504.30	16959.52
504.48	17132.72
504.65	16968.88
504.83	17406.56
505.01	17561.04
505.18	17228.68
505.36	17518.91
505.53	17270.81
505.71	17678.07
505.88	17245.07
506.06	17376.14
506.23	17734.24
506.41	17687.43
506.58	17898.08
506.76	17980.00
506.93	17799.77
507.11	18003.40
507.28	17965.95
507.46	17680.41
507.63	17944.89
507.81	18174.26
507.98	18288.95
508.16	17937.87
508.33	18412.99
508.50	18333.42
508.68	18075.96
508.85	18403.63
509.03	18429.38
509.20	18436.40
509.38	18838.97
509.55	18970.04
509.73	18787.48
509.90	18658.75
510.08	18906.85
510.25	18785.14
510.42	19124.52
510.60	19239.20
510.77	19066.00
510.95	19103.45
511.12	18890.46
511.30	19557.52
511.47	19372.61
511.64	19304.74
511.82	19578.58
511.99	19281.33
512.17	19229.84
512.34	19522.41
512.51	19878.17
512.69	19513.05
512.86	19775.19
513.04	19831.36
513.21	19990.52
513.38	19805.61
513.56	19927.32
513.73	19997.54
513.90	19917.96
514.08	20259.68
514.25	20217.55
514.43	20119.24
514.60	20355.64
514.77	20287.76
514.95	20287.76
515.12	19913.28
515.29	20212.87
515.47	20762.89
515.64	20482.03
515.81	20446.92
515.99	20798.00
516.16	20552.24
516.33	20812.04
516.51	21050.78
516.68	20643.52
516.85	20854.17
517.03	21128.02
517.20	21160.78
517.37	21209.93
517.54	20961.84
517.72	20959.50
517.89	21064.82
518.06	21020.35
518.24	21294.19
518.41	20879.92
518.58	21425.26
518.75	21221.64
518.93	21357.39
519.10	21472.07
519.27	21572.72
519.45	21525.91
519.62	21577.40
519.79	21514.20
519.96	21724.85
520.14	21895.71
520.31	21837.20
520.48	21846.56
520.65	21671.02
520.83	22010.40
521.00	21694.43
521.17	22059.55
521.34	22005.72
521.52	22221.05
521.69	21944.86
521.86	22677.45
522.03	22237.43
522.20	22551.06
522.38	22176.58
522.55	22511.27
522.72	22307.65
522.89	22609.58
523.07	22862.35
523.24	22581.49
523.41	22939.59
523.58	22462.12
523.75	22850.65
523.92	22534.68
524.10	22782.77
524.27	22916.19
524.44	22977.04
524.61	23063.64
524.78	23585.58
524.96	23271.95
525.13	23087.04
525.30	23096.41
525.47	23019.17
525.64	23084.70
525.81	23524.72
525.98	23442.81
526.16	23311.74
526.33	23281.31
526.50	23562.17
526.67	23461.53
526.84	23274.29
527.01	23454.51
527.18	23728.35
527.36	23913.25
527.53	23473.23
527.70	23756.44
527.87	23868.78
528.04	23875.80
528.21	23777.50
528.38	23648.77
528.55	23742.39
528.72	24123.90
528.89	24053.69
529.07	24044.32
529.24	24016.24
529.41	24081.77
529.58	24144.97
529.75	24219.86
529.92	24058.37
530.09	24102.84
530.26	24142.63
530.43	24245.61
530.60	24063.05
530.77	24294.76
530.94	24491.37
531.11	23836.02
531.28	24297.10
531.46	24430.51
531.63	24472.64
531.80	24641.16
531.97	24418.81
532.14	24826.06
532.31	24685.63
532.48	24678.61
532.65	24758.19
532.82	24451.58
532.99	24636.48
533.16	24694.99
533.33	24940.75
533.50	24931.39
533.67	25116.29
533.84	24669.25
534.01	24933.73
534.18	24896.28
534.35	25174.80
534.52	24844.79
534.69	25233.32
534.86	25184.16
535.03	24975.86
535.20	25172.46
535.37	25331.62
535.54	25219.27
535.71	25315.23
535.88	25324.60
536.05	25296.51
536.22	25422.90
536.38	25776.32
536.55	25504.82
536.72	25607.80
536.89	25441.62
537.06	25649.93
537.23	25551.63
537.40	25851.22
537.57	25710.78
537.74	25923.77
537.91	26047.82
538.08	25996.33
538.25	25689.72
538.42	25982.29
538.59	26426.99
538.75	25577.37
538.92	25883.98
539.09	26232.72
539.26	26324.01
539.43	26167.19
539.60	26221.02
539.77	26178.89
539.94	26384.86
540.11	26476.14
540.28	26326.35
540.44	26111.02
540.61	26352.09
540.78	26066.55
540.95	26157.83
541.12	26125.06
541.29	26228.04
541.46	26548.70
541.62	26424.65
541.79	26611.89
541.96	26581.46
542.13	26244.43
542.30	26258.47
542.47	26497.20
542.63	26925.52
542.80	26757.00
542.97	26993.40
543.14	27122.13
543.31	26668.06
543.48	27262.56
543.64	27241.50
543.81	27014.46
543.98	27140.85
544.15	27393.63
544.32	27466.19
544.48	27325.75
544.65	27192.34
544.82	27229.79
544.99	27026.17
545.16	27304.69
545.32	27225.11
545.49	27763.43
545.66	27758.75
545.83	27433.42
546.00	27688.54
546.16	27101.06
546.33	27154.90
546.50	27159.58
546.67	27505.98
546.83	27220.43
547.00	27768.12
547.17	27674.49
547.34	27316.39
547.50	27955.36
547.67	28210.48
547.84	27632.36
548.00	27868.76
548.17	28177.71
548.34	27852.38
548.51	27782.16
548.67	27630.02
548.84	28257.29
549.01	27826.63
549.18	27690.88
549.34	27978.76
549.51	27660.45
549.68	27960.04
549.84	27990.47
550.01	28254.95
550.18	28020.89
550.34	28088.77
550.51	28430.49
550.68	28423.47
550.84	27992.81
551.01	28058.34
551.18	28229.20
551.34	28292.40
551.51	28058.34
551.68	28268.99
551.84	27981.10
552.01	28283.03
552.18	28545.17
552.34	28451.55
552.51	28254.95
552.68	28180.05
552.84	28680.92
553.01	28393.04
553.18	28451.55
553.34	28332.18
553.51	28819.02
553.67	28465.60
553.84	28847.10
554.01	28727.74
554.17	29254.36
554.34	28847.10
554.51	28788.59
554.67	29071.79
554.84	28856.46
555.00	28713.69
555.17	29060.09
555.33	28910.30
555.50	28865.83
555.67	28783.91
555.83	28687.95
556.00	28456.23
556.16	29174.78
556.33	29275.42
556.50	28875.19
556.66	29193.50
556.83	29132.65
556.99	29575.01
557.16	29235.63
557.32	29144.35
557.49	29483.73
557.65	28872.85
557.82	28950.09
557.98	29088.18
558.15	29446.28
558.32	29394.79
558.48	29680.33
558.65	29259.04
558.81	29326.91
558.98	29287.12
559.14	29511.81
559.31	29369.04
559.47	29193.50
559.64	29366.70
559.80	29315.21
559.97	29439.26
560.13	29198.18
560.30	29703.74
560.46	29633.52
560.63	29392.45
560.79	29575.01
560.96	29617.14
561.12	29436.92
561.29	29603.10
561.45	29858.21
561.61	29420.53
561.78	29544.58
561.94	29685.01
562.11	29670.97
562.27	30005.67
562.44	29916.73
562.60	29642.88
562.77	29839.49
562.93	29708.42
563.10	29619.48
563.26	30071.20
563.42	30015.03
563.59	29788.00
563.75	29703.74
563.92	30171.85
564.08	29708.42
564.24	29883.96
564.41	29893.32
564.57	29846.51
564.74	30029.07
564.90	30178.87
565.07	30010.35
565.23	30256.11
565.39	30134.40
565.56	29867.58
565.72	29986.94
565.88	30153.12
566.05	29879.28
566.21	29898.00
566.38	29989.28
566.54	30251.42
566.70	30188.23
566.87	30148.44
567.03	30410.58
567.19	30487.82
567.36	30347.39
567.52	29638.20
567.68	30113.33
567.85	29635.86
568.01	30008.01
568.17	29993.97
568.34	30370.79
568.50	30368.45
568.66	30171.85
568.83	30312.28
568.99	30148.44
569.15	30211.64
569.32	30242.06
569.48	29905.02
569.64	30174.19
569.81	30281.85
569.97	30078.22
570.13	30129.72
570.30	30321.64
570.46	30298.23
570.62	30298.23
570.78	29984.60
570.95	30218.66
571.11	30171.85
571.27	30122.69
571.43	29661.61
571.60	30366.11
571.76	30110.99
571.92	30410.58
572.09	30415.26
572.25	30529.95
572.41	30305.26
572.57	30305.26
572.74	30923.16
572.90	30375.47
573.06	29905.02
573.22	30391.86
573.38	30621.23
573.55	30370.79
573.71	30635.27
573.87	30937.20
574.03	30586.12
574.20	30197.59
574.36	30256.11
574.52	30649.32
574.68	30363.77
574.84	30307.60
575.01	30665.70
575.17	30026.73
575.33	30405.90
575.49	30110.99
575.65	30476.12
575.82	30815.49
575.98	30436.33
576.14	30597.82
576.30	30611.87
576.46	30380.15
576.62	30061.84
576.79	30513.56
576.95	30719.53
577.11	30534.63
577.27	30829.54
577.43	30525.27
577.59	30787.41
577.75	30466.75
577.92	30192.91
578.08	30529.95
578.24	30389.52
578.40	30628.25
578.56	30485.48
578.72	30609.53
578.88	30789.75
579.04	30707.83
579.21	30661.02
579.37	30689.10
579.53	30888.05
579.69	30277.17
579.85	30244.40
580.01	30504.20
580.17	30707.83
580.33	30384.83
580.49	30721.87
580.65	30579.10
580.82	31021.46
580.98	30953.58
581.14	30602.50
581.30	30742.94
581.46	30651.66
581.62	30944.22
581.78	30717.19
581.94	30354.41
582.10	30663.36
582.26	31091.68
582.42	30747.62
582.58	30799.11
582.74	31070.61
582.90	30677.40
583.06	30899.75
583.22	30586.12
583.38	30433.99
583.54	30574.42
583.70	30792.09
583.86	30637.61
584.02	30504.20
584.18	30906.77
584.34	30904.43
584.50	31133.81
584.66	30862.30
584.82	30642.29
584.98	30796.77
585.14	30778.04
585.30	30291.21
585.46	30752.30
585.62	30412.92
585.78	30988.69
585.94	30646.97
586.10	30845.92
586.26	31023.80
586.42	30974.65
586.58	30972.31
586.74	30595.48
586.90	30628.25
587.06	30319.30
587.22	30843.58
587.38	31070.61
587.54	30576.76
587.70	30930.18
587.86	30911.46
588.02	31168.91
588.18	31065.93
588.34	30874.01
588.49	30899.75
588.65	30618.89
588.81	30359.09
588.97	30398.88
589.13	30801.45
589.29	31136.15
589.45	31096.36
589.61	31250.83
589.77	31571.49
589.93	31344.45
590.08	31264.88
590.24	31098.70
590.40	31077.63
590.56	31143.17
590.72	31105.72
590.88	30618.89
591.04	31033.16
591.20	31065.93
591.35	31538.72
591.51	31803.20
591.67	31124.44
591.83	31414.67
591.99	31213.38
592.15	31009.76
592.31	31012.10
592.46	31381.90
592.62	31309.35
592.78	31372.54
592.94	31215.72
593.10	31147.85
593.26	31255.51
593.41	31220.41
593.57	31208.70
593.73	31292.96
593.89	31136.15
594.05	30941.88
594.20	31353.82
594.36	31213.38
594.52	31019.12
594.68	31339.77
594.84	31173.60
594.99	31112.74
595.15	31101.04
595.31	31459.14
595.47	31033.16
595.62	31796.18
595.78	31136.15
595.94	31248.49
596.10	31482.55
596.25	31182.96
596.41	30962.95
596.57	31250.83
596.73	31288.28
596.88	31297.64
597.04	31564.46
597.20	31466.16
597.36	31637.02
597.51	31424.03
597.67	31229.77
597.83	31456.80
597.99	31524.68
598.14	31234.45
598.30	31129.12
598.46	31489.57
598.61	31283.60
598.77	31363.18
598.93	31103.38
599.09	31519.99
599.24	31875.76
599.40	31524.68
599.56	31496.59
599.71	31374.88
599.87	31707.24
600.03	31592.55
600.18	31587.87
600.34	30906.77
600.50	31388.92
600.65	31295.30
600.81	31311.69
600.97	31461.48
601.12	31571.49
601.28	31438.08
601.44	31515.31
601.59	31779.79
601.75	31515.31
601.91	31522.34
602.06	31187.64
602.22	31498.93
602.37	31573.83
602.53	31662.77
602.69	31138.49
602.84	31318.71
603.00	31440.42
603.16	31468.50
603.31	31388.92
603.47	31311.69
603.62	31440.42
603.78	31299.98
603.94	31274.24
604.09	31452.12
604.25	31349.14
604.40	31494.25
604.56	31578.51
604.71	31747.03
604.87	31440.42
605.03	31484.89
605.18	31522.34
605.34	31281.26
605.49	31388.92
605.65	31543.40
605.80	31335.09
605.96	31166.57
606.12	30986.35
606.27	31379.56
606.43	31094.02
606.58	31597.23
606.74	31519.99
606.89	31182.96
607.05	31356.16
607.20	31246.15
607.36	31180.62
607.51	31292.96
607.67	31391.26
607.82	31105.72
607.98	30948.90
608.13	31278.92
608.29	31133.81
608.44	30986.35
608.60	31042.53
608.75	31435.74
608.91	31552.76
609.06	31084.65
609.22	31585.53
609.37	30698.47
609.53	31077.63
609.68	31290.62
609.84	31040.18
609.99	31112.74
610.15	31288.28
610.30	31044.87
610.46	30967.63
610.61	31323.39
610.76	31487.23
610.92	30892.73
611.07	31309.35
611.23	30717.19
611.38	31115.08
611.54	30827.20
611.69	30904.43
611.84	30735.92
612.00	31147.85
612.15	30684.42
612.31	31304.67
612.46	30738.26
612.62	31194.66
612.77	30719.53
612.92	31122.10
613.08	30981.67
613.23	31194.66
613.39	30651.66
613.54	30785.07
613.69	30717.19
613.85	30707.83
614.00	30459.73
614.15	30778.04
614.31	30962.95
614.46	31461.48
614.62	30782.73
614.77	30946.56
614.92	31072.95
615.08	30560.37
615.23	30848.26
615.38	30604.84
615.54	30209.29
615.69	30646.97
615.84	30618.89
616.00	30693.79
616.15	30827.20
616.30	30656.34
616.46	30651.66
616.61	30759.32
616.76	30768.68
616.92	30558.03
617.07	30455.05
617.22	30677.40
617.37	30518.25
617.53	30984.01
617.68	30349.73
617.83	30237.38
617.99	30005.67
618.14	30338.02
618.29	30382.49
618.45	30668.04
618.60	30457.39
618.75	30466.75
618.90	30452.71
619.06	30291.21
619.21	30560.37
619.36	30558.03
619.51	30396.54
619.67	30073.54
619.82	30040.78
619.97	30309.94
620.12	30052.48
620.28	30071.20
620.43	30071.20
620.58	30658.68
620.73	30541.65
620.89	30192.91
621.04	30298.23
621.19	30438.67
621.34	30120.35
621.49	30195.25
621.65	30150.78
621.80	30436.33
621.95	29837.15
622.10	30258.45
622.25	30019.71
622.41	29944.81
622.56	30405.90
622.71	30141.42
622.86	30183.55
623.01	29853.53
623.16	29757.57
623.32	30246.74
623.47	30068.86
623.62	29909.71
623.77	29837.15
623.92	29881.62
624.07	29790.34
624.23	29944.81
624.38	30080.56
624.53	29610.12
624.68	30202.27
624.83	29986.94
624.98	30036.09
625.13	30242.06
625.29	30148.44
625.44	29844.17
625.59	29687.36
625.74	29560.97
625.89	29369.04
626.04	29736.51
626.19	29914.39
626.34	29769.27
626.49	29380.74
626.65	28994.56
626.80	29507.13
626.95	29535.22
627.10	29670.97
627.25	29357.34
627.40	29659.27
627.55	29546.92
627.70	29191.16
627.85	28945.41
628.00	29226.27
628.15	29184.14
628.30	28992.22
628.45	29298.83
628.60	29172.44
628.76	29376.06
628.91	29331.59
629.06	29057.75
629.21	29340.96
629.36	29317.55
629.51	29317.55
629.66	28914.98
629.81	28987.53
629.96	29146.69
630.11	29046.05
630.26	28444.53
630.41	28865.83
630.56	28739.44
630.71	29163.08
630.86	29298.83
631.01	28854.12
631.16	29212.23
631.31	28929.02
631.46	28896.25
631.61	29008.60
631.76	28882.21
631.91	28795.61
632.06	28783.91
632.21	28627.09
632.36	28968.81
632.51	28615.39
632.66	28907.96
632.81	28570.92
632.96	28926.68
633.10	28966.47
633.25	28683.27
633.40	29001.58
633.55	29111.58
633.70	28741.78
633.85	28542.83
634.00	28683.27
634.15	28374.31
634.30	28566.24
634.45	28540.49
634.60	28725.39
634.75	28636.45
634.90	28292.40
635.05	28645.82
635.19	28645.82
635.34	28694.97
635.49	28552.20
635.64	28666.88
635.79	28540.49
635.94	28521.77
636.09	28437.51
636.24	28563.90
636.39	28250.27
636.53	28336.87
636.68	28409.42
636.83	28397.72
636.98	28362.61
637.13	28339.21
637.28	28587.30
637.43	28386.02
637.57	28325.16
637.72	28189.41
637.87	28226.86
638.02	27962.38
638.17	28053.66
638.32	27793.86
638.46	27833.65
638.61	28215.16
638.76	27536.40
638.91	28074.73
639.06	28020.89
639.20	28093.45
639.35	27953.02
639.50	28135.58
639.65	28304.10
639.80	28168.35
639.94	28306.44
640.09	28084.09
640.24	28044.30
640.39	27803.22
640.54	27985.79
640.68	27917.91
640.83	27784.50
640.98	27742.37
641.13	27384.27
641.27	28156.64
641.42	27901.53
641.57	27791.52
641.72	27908.55
641.86	27770.46
642.01	27763.43
642.16	27676.83
642.31	27716.62
642.45	27562.15
642.60	27796.20
642.75	27573.85
642.90	27316.39
643.04	27576.19
643.19	27571.51
643.34	27489.59
643.48	27747.05
643.63	27599.60
643.78	27627.68
643.93	27695.56
644.07	27182.98
644.22	27534.06
644.37	27648.75
644.51	27393.63
644.66	27505.98
644.81	27239.15
644.95	27606.62
645.10	27309.37
645.25	27276.60
645.39	27241.50
645.54	27143.19
645.69	27442.78
645.83	27262.56
645.98	27175.96
646.13	27281.28
646.27	27564.49
646.42	27187.66
646.57	27241.50
646.71	27091.70
646.86	27349.16
647.00	27323.41
647.15	26995.74
647.30	27330.44
647.44	27019.14
647.59	26993.40
647.74	26883.39
647.88	26859.99
648.03	27157.24
648.17	26979.36
648.32	27456.82
648.47	27391.29
648.61	27080.00
648.76	27311.71
648.90	26885.73
649.05	26923.18
649.20	27173.62
649.34	27028.51
649.49	26359.11
649.63	26728.92
649.78	27070.64
649.92	26749.98
650.07	26686.79
650.21	26710.19
650.36	27005.10
650.51	26871.69
650.65	26733.60
650.80	27124.47
650.94	26719.56
651.09	26941.91
651.23	26497.20
651.38	26256.13
651.52	26712.53
651.67	26298.26
651.81	26796.79
651.96	26867.01
652.10	26588.49
652.25	26529.97
652.39	26665.72
652.54	26487.84
652.68	26881.05
652.83	26539.33
652.97	26960.63
653.12	26778.07
653.26	26197.62
653.41	26747.64
653.55	26192.94
653.70	26300.60
653.84	26225.70
653.99	26146.12
654.13	26426.99
654.27	26494.86
654.42	26455.08
654.56	26588.49
654.71	26094.63
654.85	26178.89
655.00	26630.62
655.14	26169.53
655.29	25958.88
655.43	26195.28
655.57	26359.11
655.72	25675.68
655.86	26134.42
656.01	26141.44
656.15	26127.40
656.30	25848.88
656.44	26075.91
656.58	26019.74
656.73	25905.05
656.87	25642.91
657.01	26127.40
657.16	26015.05
657.30	26038.46
657.45	26125.06
657.59	25874.62
657.73	25757.60
657.88	25755.26
658.02	25745.89
658.16	25823.13
658.31	25881.64
658.45	25621.84
658.60	25528.22
658.74	25727.17
658.88	25867.60
659.03	25820.79
659.17	25663.97
659.31	25453.33
659.46	25575.03
659.60	25432.26
659.74	25518.86
659.89	25422.90
660.03	25242.68
660.17	25607.80
660.32	25048.41
660.46	25521.20
660.60	25170.12
660.74	25017.99
660.89	25137.35
661.03	24851.81
661.17	25324.60
661.32	25209.91
661.46	25324.60
661.60	25104.59
661.74	25359.70
661.89	25025.01
662.03	25151.40
662.17	25034.37
662.31	24973.52
662.46	25097.56
662.60	25032.03
662.74	24915.00
662.88	24856.49
663.03	24704.35
663.17	24746.48
663.31	24503.07
663.45	24603.71
663.60	24683.29
663.74	24797.98
663.88	24837.76
664.02	24636.48
664.17	24812.02
664.31	24247.95
664.45	24451.58
664.59	24421.15
664.73	24285.40
664.88	24372.00
665.02	24084.11
665.16	24142.63
665.30	23927.30
665.44	24049.00
665.59	24065.39
665.73	24250.29
665.87	24322.85
666.01	24577.97
666.15	24074.75
666.29	24020.92
666.44	24018.58
666.58	24297.10
666.72	24039.64
666.86	24177.73
667.00	24067.73
667.14	24009.22
667.28	23920.28
667.43	23410.04
667.57	23700.26
667.71	23529.41
667.85	23693.24
667.99	23435.78
668.13	23360.89
668.27	23653.45
668.41	23470.89
668.56	23768.14
668.70	23744.73
668.84	23590.26
668.98	23550.47
669.12	23606.64
669.26	23239.18
669.40	23393.65
669.54	23644.09
669.68	23353.87
669.82	23318.76
669.96	23047.26
670.10	23075.34
670.25	22860.01
670.39	22906.82
670.53	23068.32
670.67	22775.75
670.81	22876.40
670.95	23075.34
671.09	23047.26
671.23	22801.50
671.37	22885.76
671.51	23054.28
671.65	22867.03
671.79	22806.18
671.93	22782.77
672.07	22979.38
672.21	22661.07
672.35	22459.78
672.49	22403.61
672.63	22628.30
672.77	22031.46
672.91	22434.03
673.05	22347.44
673.19	22342.75
673.33	22146.15
673.47	22239.77
673.61	22618.94
673.75	22579.15
673.89	22157.85
674.03	22309.99
674.17	22125.08
674.31	22026.78
674.45	21895.71
674.59	22050.19
674.73	22178.92
674.87	21926.14
675.01	21642.93
675.15	21846.56
675.29	21699.11
675.43	21736.56
675.56	21593.78
675.70	21635.91
675.84	21401.86
675.98	21151.42
676.12	21703.79
676.26	21710.81
676.40	21731.87
676.54	21458.03
676.68	21371.43
676.82	20582.67
676.96	21422.92
677.10	21003.97
677.23	20798.00
677.37	21083.55
677.51	20812.04
677.65	20933.75
677.79	20610.76
677.93	20472.67
678.07	20599.05
678.21	20402.45
678.34	20718.42
678.48	20350.96
678.62	20432.88
678.76	20037.33
678.90	20566.29
679.04	20255.00
679.18	20446.92
679.31	19962.43
679.45	20042.01
679.59	19889.87
679.73	19793.91
679.87	19609.01
680.00	19410.06
680.14	19550.49
680.28	19496.66
680.42	19367.93
680.56	19702.63
680.70	19896.89
680.83	19845.40
680.97	19513.05
681.11	19578.58
681.25	19288.35
681.39	19379.64
681.52	19405.38
681.66	19180.69
681.80	19087.07
681.94	18951.32
682.07	19225.16
682.21	19042.60
682.35	18998.13
682.49	18689.18
682.62	18803.86
682.76	18913.87
682.90	18956.00
683.04	18679.82
683.17	18579.17
683.31	18534.70
683.45	18717.26
683.59	18558.11
683.72	18345.12
683.86	18490.23
684.00	18293.63
684.13	17928.50
684.27	18031.49
684.41	18136.81
684.55	17862.97
684.68	17914.46
684.82	17500.19
684.96	17874.67
685.09	17727.22
685.23	17638.28
685.37	17427.63
685.50	17696.79
685.64	17682.75
685.78	17399.54
685.91	17589.13
686.05	17706.15
686.19	17310.60
686.32	17460.40
686.46	17144.42
686.60	17043.78
686.73	17249.75
686.87	16896.33
687.01	17008.67
687.14	16858.88
687.28	16891.65
687.42	16730.15
687.55	16592.06
687.69	16945.48
687.82	16664.61
687.96	16835.47
688.10	16585.04
688.23	16629.51
688.37	16570.99
688.50	16456.31
688.64	16482.05
688.78	16299.49
688.91	16166.08
689.05	15999.90
689.18	16145.02
689.32	15913.30
689.46	15981.18
689.59	16039.69
689.73	15772.87
689.86	15817.34
690.00	16013.95
690.13	15859.47
690.27	15735.42
690.41	15932.03
690.54	15829.04
690.68	15531.80
690.81	15775.21
690.95	15339.87
691.08	15407.75
691.22	15410.09
691.35	15337.53
691.49	15272.00
691.62	15122.20
691.76	15129.22
691.89	14934.96
692.03	14707.93
692.16	14883.47
692.30	14738.35
692.43	14895.17
692.57	14747.72
692.70	14420.04
692.84	14771.12
692.97	14546.43
693.11	14572.18
693.24	14567.49
693.38	14583.88
693.51	14436.42
693.65	14586.22
693.78	14230.46
693.92	14586.22
694.05	14253.86
694.19	14204.71
694.32	13954.27
694.45	13923.85
694.59	13844.27
694.72	13774.05
694.86	13687.45
694.99	13664.05
695.13	13731.92
695.26	13483.83
695.39	13469.78
695.53	13453.40
695.66	13661.71
695.80	13483.83
695.93	13455.74
696.07	13582.13
696.20	13502.55
696.33	13280.20
696.47	13448.72
696.60	12952.52
696.73	12961.89
696.87	13221.69
697.00	12992.31
697.14	12821.45
697.27	12716.13
697.40	12842.52
697.54	12706.77
697.67	12458.67
697.80	12575.70
697.94	12585.06
698.07	12617.83
698.21	12418.88
698.34	12596.76
698.47	12439.95
698.61	12615.49
698.74	12477.40
698.87	12592.08
699.01	12208.23
699.14	12365.05
699.27	12180.15
699.40	12102.91
699.54	11747.15
699.67	12046.74
699.80	11915.67
699.94	11847.79
700.07	11786.94
700.20	11749.49
700.34	11819.71
700.47	11660.55
700.60	11737.79
700.73	11503.73
700.87	11524.80
701.00	11262.66
701.13	11276.70
701.26	11534.16
701.40	11637.14
701.53	11653.53
701.66	11580.97
701.79	11213.51
701.93	11468.62
702.06	11318.83
702.19	11164.36
702.32	11154.99
702.46	10956.05
702.59	10925.62
702.72	10834.34
702.85	10757.10
702.99	10757.10
703.12	10782.85
703.25	10487.94
703.38	10637.73
703.51	10647.10
703.65	10771.15
703.78	10574.54
703.91	10399.00
704.04	10513.69
704.17	10490.28
704.31	10457.51
704.44	10513.69
704.57	10253.89
704.70	10148.56
704.83	10181.33
704.96	10207.08
705.10	10017.49
705.23	10061.96
>>>>>End Processed Spectral Data<<<<<
