SpectraSuite Data File
++++++++++++++++++++++++++++++++++++
Date: Fri Oct 18 13:58:21 GMT-05:00 2013
User: bianchi
Dark Spectrum Present: No
Reference Spectrum Present: No
Number of Sampled Component Spectra: 1
Spectrometers: USB2+H05261
Integration Time (usec): 50000 (USB2+H05261)
Spectra Averaged: 1 (USB2+H05261)
Boxcar Smoothing: 0 (USB2+H05261)
Correct for Electrical Dark: No (USB2+H05261)
Strobe/Lamp Enabled: No (USB2+H05261)
Correct for Detector Non-linearity: No (USB2+H05261)
Correct for Stray Light: No (USB2+H05261)
Number of Pixels in Processed Spectrum: 2048
>>>>>Begin Processed Spectral Data<<<<<
365.73	42.13
365.92	42.13
366.12	42.13
366.32	0.00
366.52	0.00
366.72	0.00
366.91	0.00
367.11	0.00
367.31	0.00
367.51	0.00
367.70	0.00
367.90	0.00
368.10	0.00
368.30	0.00
368.49	0.00
368.69	0.00
368.89	0.00
369.09	0.00
369.28	0.00
369.48	0.00
369.68	0.00
369.87	0.00
370.07	0.00
370.27	0.00
370.47	0.00
370.66	56.17
370.86	81.92
371.06	107.66
371.25	145.11
371.45	173.20
371.65	95.96
371.84	114.69
372.04	142.77
372.24	124.05
372.44	142.77
372.63	154.48
372.83	215.33
373.03	227.03
373.22	201.29
373.42	180.22
373.62	229.37
373.81	224.69
374.01	173.20
374.21	236.39
374.40	271.50
374.60	250.44
374.79	262.14
374.99	252.78
375.19	241.08
375.38	250.44
375.58	241.08
375.78	220.01
375.97	245.76
376.17	252.78
376.37	224.69
376.56	257.46
376.76	266.82
376.95	191.92
377.15	252.78
377.35	231.71
377.54	285.55
377.74	227.03
377.93	259.80
378.13	301.93
378.33	292.57
378.52	318.31
378.72	273.84
378.91	327.68
379.11	273.84
379.31	264.48
379.50	276.18
379.70	196.60
379.89	341.72
380.09	280.86
380.28	180.22
380.48	315.97
380.68	234.05
380.87	315.97
381.07	255.12
381.26	313.63
381.46	283.20
381.65	220.01
381.85	248.10
382.04	339.38
382.24	280.86
382.43	297.25
382.63	327.68
382.83	332.36
383.02	322.99
383.22	339.38
383.41	369.80
383.61	346.40
383.80	400.23
384.00	360.44
384.19	327.68
384.39	381.51
384.58	360.44
384.78	400.23
384.97	404.91
385.17	376.83
385.36	344.06
385.56	334.70
385.75	351.08
385.95	454.06
386.14	409.59
386.34	332.36
386.53	486.83
386.72	365.12
386.92	351.08
387.11	447.04
387.31	461.09
387.50	358.10
387.70	440.02
387.89	484.49
388.09	451.72
388.28	369.80
388.48	454.06
388.67	407.25
388.86	451.72
389.06	493.85
389.25	470.45
389.45	519.60
389.64	437.68
389.84	503.22
390.03	440.02
390.22	388.53
390.42	507.90
390.61	440.02
390.81	479.81
391.00	538.32
391.19	437.68
391.39	486.83
391.58	500.87
391.78	470.45
391.97	517.26
392.16	465.77
392.36	526.62
392.55	566.41
392.75	503.22
392.94	531.30
393.13	557.05
393.33	498.53
393.52	585.13
393.71	587.47
393.91	512.58
394.10	557.05
394.29	550.03
394.49	531.30
394.68	641.31
394.88	603.86
395.07	596.84
395.26	561.73
395.46	580.45
395.65	582.79
395.84	615.56
396.04	638.97
396.23	594.50
396.42	615.56
396.62	650.67
396.81	683.44
397.00	615.56
397.19	552.37
397.39	557.05
397.58	671.73
397.77	627.26
397.97	601.52
398.16	575.77
398.35	657.69
398.55	688.12
398.74	688.12
398.93	681.10
399.12	739.61
399.32	674.07
399.51	709.18
399.70	781.74
399.90	629.60
400.09	631.94
400.28	819.19
400.47	690.46
400.67	730.25
400.86	779.40
401.05	777.06
401.24	816.85
401.44	800.46
401.63	793.44
401.82	777.06
402.01	835.57
402.21	699.82
402.40	718.54
402.59	765.36
402.78	870.68
402.97	835.57
403.17	826.21
403.36	830.89
403.55	875.36
403.74	802.80
403.93	861.32
404.13	840.25
404.32	896.43
404.51	889.40
404.70	891.74
404.89	943.24
405.09	931.53
405.28	929.19
405.47	896.43
405.66	910.47
405.85	976.00
406.05	926.85
406.24	978.34
406.43	938.55
406.62	971.32
406.81	945.58
407.00	1025.15
407.20	1050.90
407.39	1053.24
407.58	1034.52
407.77	1050.90
407.96	1067.28
408.15	1100.05
408.34	1074.31
408.54	1062.60
408.73	1046.22
408.92	1170.27
409.11	1203.04
409.30	1036.86
409.49	1135.16
409.68	1025.15
409.87	1083.67
410.07	1217.08
410.26	1163.25
410.45	1210.06
410.64	1107.07
410.83	1277.93
411.02	1128.14
411.21	1254.53
411.40	1235.80
411.59	1376.24
411.78	1270.91
411.98	1296.66
412.17	1313.04
412.36	1352.83
412.55	1364.53
412.74	1299.00
412.93	1289.64
413.12	1320.06
413.31	1409.00
413.50	1350.49
413.69	1476.88
413.88	1483.90
414.07	1458.15
414.26	1341.13
414.45	1481.56
414.64	1413.68
414.83	1394.96
415.02	1542.41
415.22	1493.26
415.41	1533.05
415.60	1488.58
415.79	1614.97
415.98	1558.80
416.17	1554.12
416.36	1530.71
416.55	1647.74
416.74	1544.75
416.93	1586.88
417.12	1769.44
417.31	1640.72
417.50	1638.38
417.69	1713.27
417.88	1621.99
418.07	1675.82
418.26	1671.14
418.45	1736.68
418.64	1825.62
418.83	1746.04
419.02	1734.34
419.21	1713.27
419.39	1767.10
419.58	1799.87
419.77	1722.63
419.96	1842.00
420.15	1970.73
420.34	1837.32
420.53	1776.47
420.72	1937.96
420.91	1877.11
421.10	1872.43
421.29	1956.69
421.48	1980.09
421.67	1956.69
421.86	1912.22
422.05	2054.99
422.24	1949.67
422.43	1980.09
422.61	1989.46
422.80	1966.05
422.99	2062.01
423.18	1926.26
423.37	1919.24
423.56	1891.15
423.75	1984.77
423.94	1839.66
424.13	1867.75
424.32	1907.54
424.50	1933.28
424.69	1994.14
424.88	1977.75
425.07	1942.64
425.26	1935.62
425.45	2017.54
425.64	1956.69
425.83	2059.67
426.01	2057.33
426.20	1902.86
426.39	2038.61
426.58	1982.43
426.77	2040.95
426.96	1996.48
427.15	2015.20
427.33	2111.16
427.52	2090.10
427.71	2083.08
427.90	2118.18
428.09	2094.78
428.28	2127.55
428.46	2190.74
428.65	2090.10
428.84	2085.42
429.03	2328.83
429.22	2204.78
429.40	2401.39
429.59	2162.66
429.78	2181.38
429.97	2139.25
430.16	2211.81
430.34	2228.19
430.53	2284.36
430.72	2244.57
430.91	2204.78
431.10	2132.23
431.28	2263.30
431.47	2422.45
431.66	2464.58
431.85	2293.72
432.03	2366.28
432.22	2420.11
432.41	2424.80
432.60	2445.86
432.79	2483.31
432.97	2389.69
433.16	2436.50
433.35	2525.44
433.54	2539.48
433.72	2560.55
433.91	2572.25
434.10	2544.16
434.28	2342.88
434.47	2499.69
434.66	2555.86
434.85	2513.74
435.03	2511.39
435.22	2539.48
435.41	2642.46
435.59	2520.76
435.78	2649.49
435.97	2590.97
436.16	2530.12
436.34	2450.54
436.53	2656.51
436.72	2682.25
436.90	2576.93
437.09	2703.32
437.28	2731.41
437.46	2647.15
437.65	2806.30
437.84	2656.51
438.02	2731.41
438.21	2703.32
438.40	2637.78
438.58	2836.73
438.77	2829.71
438.96	2827.37
439.14	2923.33
439.33	2888.22
439.52	2951.42
439.70	2942.05
439.89	2946.73
440.08	3077.80
440.26	3030.99
440.45	3014.61
440.63	3054.40
440.82	3091.85
441.01	3040.36
441.19	3208.87
441.38	3124.62
441.57	3141.00
441.75	3180.79
441.94	3122.27
442.12	3152.70
442.31	3267.39
442.50	3162.06
442.68	3243.98
442.87	3332.92
443.05	3272.07
443.24	3370.37
443.43	3337.60
443.61	3309.52
443.80	3487.40
443.98	3246.32
444.17	3077.80
444.35	3407.82
444.54	3405.48
444.73	3290.79
444.91	3323.56
445.10	3431.23
445.28	3337.60
445.47	3445.27
445.65	3382.07
445.84	3426.54
446.02	3583.36
446.21	3337.60
446.39	3356.33
446.58	3426.54
446.77	3410.16
446.95	3407.82
447.14	3424.20
447.32	3454.63
447.51	3435.91
447.69	3449.95
447.88	3574.00
448.06	3452.29
448.25	3536.55
448.43	3501.44
448.62	3461.65
448.80	3541.23
448.99	3520.17
449.17	3449.95
449.36	3503.78
449.54	3595.06
449.73	3538.89
449.91	3702.73
450.10	3590.38
450.28	3707.41
450.46	3756.56
450.65	3723.79
450.83	3627.83
451.02	3545.91
451.20	3810.39
451.39	3768.26
451.57	3700.39
451.76	3662.94
451.94	3836.14
452.13	3882.95
452.31	3742.52
452.49	3707.41
452.68	3873.59
452.86	3779.97
453.05	3880.61
453.23	3925.08
453.42	3742.52
453.60	3831.46
453.78	3906.35
453.97	3810.39
454.15	3777.62
454.34	4009.34
454.52	3983.59
454.70	3967.21
454.89	3901.67
455.07	3882.95
455.26	4124.02
455.44	4011.68
455.62	4039.76
455.81	4105.30
455.99	4049.13
456.17	4131.05
456.36	4070.19
456.54	4119.34
456.73	4161.47
456.91	4266.80
457.09	4320.63
457.28	4208.28
457.46	4248.07
457.64	4262.12
457.83	4236.37
458.01	4264.46
458.19	4264.46
458.38	4346.37
458.56	4442.34
458.74	4271.48
458.93	4168.49
459.11	4390.84
459.29	4311.27
459.48	4381.48
459.66	4245.73
459.84	4355.74
460.03	4440.00
460.21	4503.19
460.39	4533.62
460.57	4451.70
460.76	4496.17
460.94	4634.26
461.12	4489.15
461.31	4421.27
461.49	4652.98
461.67	4503.19
461.85	4636.60
462.04	4636.60
462.22	4636.60
462.40	4774.69
462.59	4816.82
462.77	4643.62
462.95	4781.71
463.13	4781.71
463.32	4777.03
463.50	4767.67
463.68	4753.63
463.86	4863.63
464.05	4732.56
464.23	4882.36
464.41	4868.31
464.59	4734.90
464.78	4959.60
464.96	4788.74
465.14	4840.23
465.32	4952.57
465.50	4975.98
465.69	4828.53
465.87	4856.61
466.05	4758.31
466.23	4957.25
466.41	5046.20
466.60	5008.75
466.78	5076.62
466.96	4898.74
467.14	5015.77
467.32	5039.17
467.51	5027.47
467.69	4887.04
467.87	5039.17
468.05	5200.67
468.23	5179.61
468.41	5114.07
468.60	5130.45
468.78	5289.61
468.96	5081.30
469.14	5172.58
469.32	5219.39
469.50	5132.79
469.69	5310.68
469.87	5392.59
470.05	5320.04
470.23	5458.13
470.41	5357.49
470.59	5469.83
470.77	5331.74
470.95	5504.94
471.14	5467.49
471.32	5252.16
471.50	5458.13
471.68	5467.49
471.86	5481.53
472.04	5516.64
472.22	5682.82
472.40	5392.59
472.58	5687.50
472.77	5673.46
472.95	5673.46
473.13	5902.83
473.31	5788.14
473.49	5743.67
473.67	5977.73
473.85	5900.49
474.03	6097.10
474.21	6111.14
474.39	5907.51
474.57	5886.45
474.75	5947.30
474.93	6022.20
475.12	6230.51
475.30	6113.48
475.48	5968.37
475.66	6204.76
475.84	6113.48
476.02	6253.91
476.20	6214.12
476.38	6286.68
476.56	6392.00
476.74	6443.49
476.92	6363.92
477.10	6384.98
477.28	6560.52
477.46	6399.02
477.64	6642.44
477.82	6724.36
478.00	6857.77
478.18	6846.07
478.36	7007.56
478.54	6958.41
478.72	6984.16
478.90	7138.63
479.08	7087.14
479.26	7070.76
479.44	7234.60
479.62	7218.21
479.80	7332.90
479.98	7166.72
480.16	7386.73
480.34	7337.58
480.52	7517.80
480.70	7634.83
480.88	7346.94
481.06	7452.27
481.24	7480.35
481.41	7798.66
481.59	7805.69
481.77	7728.45
481.95	7976.55
482.13	8044.42
482.31	8035.06
482.49	8180.17
482.67	8145.06
482.85	8201.24
483.03	8383.80
483.21	8376.78
483.39	8416.57
483.57	8503.17
483.74	8741.90
483.92	8479.76
484.10	8599.13
484.28	8557.00
484.46	9039.15
484.64	8851.91
484.82	9036.81
485.00	8758.28
485.18	8833.18
485.35	9329.38
485.53	9116.39
485.71	9390.23
485.89	9425.34
486.07	9369.16
486.25	9413.63
486.43	9446.40
486.61	9558.75
486.78	9865.36
486.96	9841.95
487.14	9853.66
487.32	9844.29
487.50	10015.15
487.68	9940.26
487.85	10223.46
488.03	10413.04
488.21	10373.25
488.39	10415.38
488.57	10307.72
488.75	10637.73
488.92	10661.14
489.10	10740.72
489.28	10724.33
489.46	11005.20
489.64	10705.61
489.81	11047.33
489.99	11124.57
490.17	10988.82
490.35	11309.47
490.53	11316.49
490.70	11400.75
490.88	11452.24
491.06	11435.86
491.24	11480.33
491.41	11737.79
491.59	11939.07
491.77	11791.62
491.95	11920.35
492.13	11889.92
492.30	12142.70
492.48	12437.61
492.66	12067.80
492.84	12229.30
493.01	12554.63
493.19	12507.82
493.37	12374.41
493.54	12528.89
493.72	12648.26
493.90	12556.97
494.08	12681.02
494.25	12975.93
494.43	13034.44
494.61	12936.14
494.79	13043.81
494.96	12828.48
495.14	13071.89
495.32	13207.64
495.49	13116.36
495.67	13385.52
495.85	13437.02
496.02	13385.52
496.20	13724.90
496.38	13476.80
496.55	13752.99
496.73	13703.84
496.91	13926.19
497.09	14061.94
497.26	14146.20
497.44	14265.57
497.62	14188.33
497.79	14274.93
497.97	14171.94
498.14	14417.70
498.32	14642.39
498.50	14628.35
498.67	14574.52
498.85	14534.73
499.03	14963.04
499.20	14862.40
499.38	14469.19
499.56	14977.09
499.73	15042.62
499.91	14951.34
500.08	15077.73
500.26	14998.15
500.44	15084.75
500.61	15257.95
500.79	15396.04
500.97	15667.55
501.14	15630.10
501.32	15548.18
501.49	15791.59
501.67	15548.18
501.84	15541.16
502.02	15644.14
502.20	16070.12
502.37	15843.09
502.55	15983.52
502.72	15882.88
502.90	15929.69
503.07	16166.08
503.25	15992.88
503.43	16105.23
503.60	16301.83
503.78	16194.17
503.95	16292.47
504.13	16102.89
504.30	16353.32
504.48	16208.21
504.65	16690.36
504.83	16713.77
505.01	16933.78
505.18	16421.20
505.36	16964.20
505.53	16704.40
505.71	16753.55
505.88	17064.85
506.06	16568.65
506.23	16856.54
506.41	16870.58
506.58	17404.22
506.76	17130.38
506.93	17163.15
507.11	17249.75
507.28	17254.43
507.46	17291.88
507.63	17385.50
507.81	17729.56
507.98	17579.76
508.16	17270.81
508.33	17589.13
508.50	17408.90
508.68	17713.17
508.85	17940.21
509.03	17701.47
509.20	17905.10
509.38	17804.46
509.55	17764.67
509.73	17994.04
509.90	17853.61
510.08	18263.20
510.25	17951.91
510.42	18106.38
510.60	18097.02
510.77	18548.75
510.95	18490.23
511.12	18256.18
511.30	18389.59
511.47	18438.74
511.64	18588.53
511.82	18740.67
511.99	18750.03
512.17	18855.36
512.34	18960.68
512.51	18607.26
512.69	19122.18
512.86	19007.49
513.04	19110.47
513.21	18993.45
513.38	18911.53
513.56	19426.45
513.73	19129.20
513.90	19105.79
514.08	19119.84
514.25	19541.13
514.43	19138.56
514.60	19396.02
514.77	19475.60
514.95	19667.52
515.12	19632.41
515.29	19300.06
515.47	19630.07
515.64	19819.66
515.81	19719.01
515.99	19976.47
516.16	20154.35
516.33	19807.95
516.51	20168.40
516.68	20161.37
516.85	19803.27
517.03	19955.41
517.20	20042.01
517.37	20236.27
517.54	20407.13
517.72	20311.17
517.89	20360.32
518.06	20072.43
518.24	20418.83
518.41	20592.03
518.58	20519.48
518.75	20407.13
518.93	20388.41
519.10	20723.10
519.27	20737.15
519.45	20657.57
519.62	20577.99
519.79	20713.74
519.96	20575.65
520.14	20816.72
520.31	20856.51
520.48	20959.50
520.65	20912.69
520.83	20769.91
521.00	21277.81
521.17	20908.01
521.34	21022.69
521.52	21102.27
521.69	21228.66
521.86	21001.63
522.03	21537.61
522.20	21406.54
522.38	21383.13
522.55	21518.89
522.72	21160.78
522.89	21596.12
523.07	22134.45
523.24	21596.12
523.41	21956.57
523.58	21542.29
523.75	21647.61
523.92	21577.40
524.10	21750.60
524.27	22075.93
524.44	21968.27
524.61	22190.62
524.78	22068.91
524.96	21638.25
525.13	22204.66
525.30	22274.88
525.47	22066.57
525.64	22045.51
525.81	22274.88
525.98	22436.38
526.16	22436.38
526.33	22558.08
526.50	22574.47
526.67	22335.73
526.84	22335.73
527.01	22427.01
527.18	22377.86
527.36	22895.12
527.53	22913.84
527.70	22972.36
527.87	22827.24
528.04	22789.80
528.21	22707.88
528.38	22693.83
528.55	22895.12
528.72	22801.50
528.89	22841.29
529.07	22838.95
529.24	23026.19
529.41	22995.76
529.58	23044.91
529.75	22836.61
529.92	23370.25
530.09	23168.96
530.26	23206.41
530.43	23166.62
530.60	23192.37
530.77	23194.71
530.94	23433.44
531.11	23267.27
531.28	23028.53
531.46	23407.70
531.63	23194.71
531.80	23599.62
531.97	23784.52
532.14	23805.59
532.31	23597.28
532.48	23742.39
532.65	23587.92
532.82	23461.53
532.99	23854.74
533.16	24037.30
533.33	23707.29
533.50	24290.08
533.67	23866.44
533.84	23583.24
534.01	23798.57
534.18	23857.08
534.35	24107.52
534.52	23791.55
534.69	24411.79
534.86	24051.34
535.03	24151.99
535.20	24276.04
535.37	24187.10
535.54	24538.18
535.71	24252.63
535.88	24308.80
536.05	24135.60
536.22	24634.14
536.38	24898.62
536.55	24276.04
536.72	24652.86
536.89	24533.50
537.06	24144.97
537.23	24421.15
537.40	24622.44
537.57	24816.70
537.74	24577.97
537.91	24692.65
538.08	24898.62
538.25	24856.49
538.42	24772.23
538.59	24922.02
538.75	24685.63
538.92	24833.08
539.09	24922.02
539.26	24959.47
539.43	25385.45
539.60	25198.21
539.77	24931.39
539.94	25088.20
540.11	25125.65
540.28	25057.78
540.44	24987.56
540.61	24891.60
540.78	25034.37
540.95	25280.13
541.12	25193.53
541.29	25209.91
541.46	25511.84
541.62	25172.46
541.79	25553.97
541.96	25083.52
542.13	24952.45
542.30	25359.70
542.47	25392.47
542.63	25558.65
542.80	25809.09
542.97	26080.59
543.14	25900.37
543.31	26085.27
543.48	25792.70
543.64	26096.97
543.81	26033.78
543.98	26061.87
544.15	25912.07
544.32	26309.96
544.48	25930.80
544.65	26211.66
544.82	26202.30
544.99	25881.64
545.16	26103.99
545.32	25757.60
545.49	26209.32
545.66	26066.55
545.83	26527.63
546.00	26576.78
546.16	26455.08
546.33	26338.05
546.50	26331.03
546.67	26434.01
546.83	26146.12
547.00	26485.50
547.17	26085.27
547.34	26228.04
547.50	26710.19
547.67	26665.72
547.84	26361.45
548.00	26450.39
548.17	27016.80
548.34	26541.68
548.51	26595.51
548.67	26939.57
548.84	26691.47
549.01	26469.12
549.18	26726.58
549.34	26815.52
549.51	26618.91
549.68	26597.85
549.84	26906.80
550.01	26766.37
550.18	26670.40
550.34	26848.29
550.51	26913.82
550.68	27288.31
550.84	27201.71
551.01	27056.59
551.18	26916.16
551.34	26785.09
551.51	26897.44
551.68	27077.66
551.84	27276.60
552.01	26918.50
552.18	27459.16
552.34	27026.17
552.51	27484.91
552.68	27552.79
552.84	27026.17
553.01	27278.94
553.18	27276.60
553.34	27428.74
553.51	27246.18
553.67	27372.57
553.84	27651.09
554.01	27723.65
554.17	27353.84
554.34	27744.71
554.51	27517.68
554.67	27721.30
554.84	27613.64
555.00	27515.34
555.17	27875.78
555.33	27573.85
555.50	27714.28
555.67	27197.02
555.83	27559.81
556.00	27407.67
556.16	27985.79
556.33	27777.48
556.50	27702.58
556.66	27824.29
556.83	27646.41
556.99	28268.99
557.16	28180.05
557.32	27548.11
557.49	28032.60
557.65	27800.88
557.82	28098.13
557.98	27833.65
558.15	28030.26
558.32	27887.48
558.48	27562.15
558.65	28044.30
558.81	27978.76
558.98	28116.86
559.14	27913.23
559.31	28004.51
559.47	27901.53
559.64	28315.80
559.80	28168.35
559.97	28240.90
560.13	27964.72
560.30	27981.10
560.46	28205.80
560.63	28397.72
560.79	28030.26
560.96	28570.92
561.12	28493.68
561.29	28166.01
561.45	28077.07
561.61	28362.61
561.78	28444.53
561.94	28168.35
562.11	28671.56
562.27	28519.43
562.44	28381.34
562.60	28407.08
562.77	28119.20
562.93	28261.97
563.10	28776.89
563.26	28411.76
563.42	28842.42
563.59	28704.33
563.75	28631.77
563.92	28655.18
564.08	28208.14
564.24	28580.28
564.41	28189.41
564.57	28332.18
564.74	28280.69
564.90	28816.68
565.07	28402.40
565.23	28620.07
565.39	28762.84
565.56	28842.42
565.72	28444.53
565.88	28804.97
566.05	28334.53
566.21	28346.23
566.38	28510.07
566.54	28601.35
566.70	28723.05
566.87	28989.88
567.03	29125.63
567.19	28779.23
567.36	28933.70
567.52	28701.99
567.68	29097.54
567.85	28821.36
568.01	28898.59
568.17	28847.10
568.34	28872.85
568.50	28720.71
568.66	29097.54
568.83	29373.72
568.99	28641.14
569.15	28706.67
569.32	28662.20
569.48	28720.71
569.64	28854.12
569.81	28933.70
569.97	28952.43
570.13	29380.74
570.30	28769.86
570.46	29270.74
570.62	29193.50
570.78	28638.80
570.95	28638.80
571.11	28929.02
571.27	28526.45
571.43	28481.98
571.60	29200.52
571.76	28903.28
571.92	29109.24
572.09	29057.75
572.25	29439.26
572.41	28940.72
572.57	28959.45
572.74	29247.33
572.90	28882.21
573.06	28959.45
573.22	29034.35
573.38	29123.29
573.55	28907.96
573.71	29799.70
573.87	29303.51
574.03	28863.49
574.20	28755.82
574.36	28893.91
574.52	29078.82
574.68	28748.80
574.84	29465.00
575.01	28804.97
575.17	29324.57
575.33	28931.36
575.49	29146.69
575.65	29474.37
575.82	29366.70
575.98	29235.63
576.14	29130.31
576.30	29158.39
576.46	29032.00
576.62	29109.24
576.79	28985.19
576.95	29165.42
577.11	28964.13
577.27	29067.11
577.43	29132.65
577.59	28982.85
577.75	29289.46
577.92	28961.79
578.08	29134.99
578.24	29216.91
578.40	29244.99
578.56	29071.79
578.72	29729.48
578.88	29434.58
579.04	29465.00
579.21	29252.02
579.37	29343.30
579.53	29083.50
579.69	29116.26
579.85	29186.48
580.01	29434.58
580.17	29209.89
580.33	29181.80
580.49	29053.07
580.65	29394.79
580.82	29675.65
580.98	29221.59
581.14	29256.70
581.30	28851.78
581.46	29450.96
581.62	29252.02
581.78	29111.58
581.94	29268.40
582.10	29170.10
582.26	29495.43
582.42	29567.99
582.58	29324.57
582.74	29287.12
582.90	29542.24
583.06	29034.35
583.22	29200.52
583.38	29369.04
583.54	29350.32
583.70	29261.38
583.86	29174.78
584.02	29366.70
584.18	29701.40
584.34	29193.50
584.50	29675.65
584.66	29413.51
584.82	29252.02
584.98	29401.81
585.14	29282.44
585.30	29446.28
585.46	29317.55
585.62	29200.52
585.78	29174.78
585.94	29392.45
586.10	29237.97
586.26	29748.21
586.42	29589.05
586.58	29605.44
586.74	29099.88
586.90	29326.91
587.06	28987.53
587.22	29228.61
587.38	29383.09
587.54	29947.15
587.70	29647.57
587.86	29780.98
588.02	29567.99
588.18	29633.52
588.34	29610.12
588.49	29364.36
588.65	29263.72
588.81	29589.05
588.97	29682.67
589.13	29366.70
589.29	29509.47
589.45	29490.75
589.61	29797.36
589.77	30190.57
589.93	29607.78
590.08	29998.65
590.24	29876.94
590.40	29502.45
590.56	29518.84
590.72	29638.20
590.88	29535.22
591.04	29692.04
591.20	30033.75
591.35	29727.14
591.51	29783.32
591.67	29727.14
591.83	30087.59
591.99	29685.01
592.15	29867.58
592.31	29830.13
592.46	29799.70
592.62	29619.48
592.78	29579.69
592.94	29184.14
593.10	29949.50
593.26	30118.01
593.41	29809.06
593.57	29895.66
593.73	30094.61
593.89	30335.68
594.05	29621.82
594.20	29586.71
594.36	29942.47
594.52	29766.93
594.68	29841.83
594.84	29420.53
594.99	29549.26
595.15	29755.23
595.31	30185.89
595.47	29951.84
595.62	29773.95
595.78	29853.53
595.94	29949.50
596.10	29745.87
596.25	29944.81
596.41	29420.53
596.57	29387.77
596.73	30022.05
596.88	29954.18
597.04	29759.91
597.20	30068.86
597.36	29715.44
597.51	30153.12
597.67	29565.65
597.83	29752.89
597.99	30349.73
598.14	30213.98
598.30	30171.85
598.46	29893.32
598.61	29645.23
598.77	29844.17
598.93	29813.74
599.09	30125.04
599.24	30045.46
599.40	30113.33
599.56	30237.38
599.71	30338.02
599.87	29937.79
600.03	29741.19
600.18	29839.49
600.34	29792.68
600.50	29741.19
600.65	30066.52
600.81	29902.68
600.97	30106.31
601.12	30335.68
601.28	30068.86
601.44	29984.60
601.59	29677.99
601.75	29944.81
601.91	29804.38
602.06	29785.66
602.22	29848.85
602.37	29912.05
602.53	29837.15
602.69	29937.79
602.84	29991.62
603.00	30057.16
603.16	30038.44
603.31	29841.83
603.47	29986.94
603.62	29703.74
603.78	29888.64
603.94	29706.08
604.09	30010.35
604.25	30190.57
604.40	29469.69
604.56	29907.37
604.71	30127.38
604.87	29979.92
605.03	30033.75
605.18	30401.22
605.34	29951.84
605.49	29879.28
605.65	30022.05
605.80	29652.25
605.96	29905.02
606.12	29715.44
606.27	30038.44
606.43	29642.88
606.58	29919.07
606.74	30038.44
606.89	29755.23
607.05	30003.33
607.20	30015.03
607.36	29890.98
607.51	29961.20
607.67	29848.85
607.82	29303.51
607.98	29912.05
608.13	29780.98
608.29	29649.91
608.44	29846.51
608.60	29666.29
608.75	29724.80
608.91	30099.29
609.06	29575.01
609.22	29675.65
609.37	29677.99
609.53	29577.35
609.68	29970.56
609.84	29549.26
609.99	29692.04
610.15	29237.97
610.30	29450.96
610.46	29673.31
610.61	29736.51
610.76	29984.60
610.92	29802.04
611.07	29909.71
611.23	29476.71
611.38	29230.95
611.54	29689.70
611.69	29310.53
611.84	29448.62
612.00	29443.94
612.15	29514.16
612.31	29319.89
612.46	29635.86
612.62	29577.35
612.77	29703.74
612.92	29514.16
613.08	29350.32
613.23	29703.74
613.39	29465.00
613.54	29528.20
613.69	29392.45
613.85	29303.51
614.00	29181.80
614.15	29481.39
614.31	29631.18
614.46	29530.54
614.62	29266.06
614.77	29282.44
614.92	29624.16
615.08	29291.80
615.23	29237.97
615.38	29263.72
615.54	29268.40
615.69	28865.83
615.84	29177.12
616.00	29268.40
616.15	29118.60
616.30	29277.76
616.46	29163.08
616.61	29193.50
616.76	29249.67
616.92	28851.78
617.07	29392.45
617.22	28809.65
617.37	28849.44
617.53	29298.83
617.68	28566.24
617.83	29249.67
617.99	28748.80
618.14	28608.37
618.29	28861.15
618.45	29273.08
618.60	28994.56
618.75	29191.16
618.90	29083.50
619.06	29050.73
619.21	29151.37
619.36	28938.38
619.51	28481.98
619.67	28783.91
619.82	28589.64
619.97	28662.20
620.12	28596.67
620.28	28613.05
620.43	28732.42
620.58	28989.88
620.73	29081.16
620.89	28758.16
621.04	28767.52
621.19	28589.64
621.34	28465.60
621.49	28788.59
621.65	28641.14
621.80	28748.80
621.95	28587.30
622.10	28563.90
622.25	28687.95
622.41	28776.89
622.56	28301.76
622.71	28907.96
622.86	28339.21
623.01	28514.75
623.16	28458.57
623.32	28149.62
623.47	28596.67
623.62	28545.17
623.77	28491.34
623.92	28470.28
624.07	28254.95
624.23	28435.17
624.38	28416.44
624.53	28498.36
624.68	28161.33
624.83	28823.70
624.98	28573.26
625.13	28379.00
625.29	28472.62
625.44	28098.13
625.59	28257.29
625.74	28163.67
625.89	27728.33
626.04	28184.73
626.19	28147.28
626.34	28149.62
626.49	28009.19
626.65	28156.64
626.80	28407.08
626.95	28166.01
627.10	27967.06
627.25	28091.11
627.40	28020.89
627.55	28086.43
627.70	27669.81
627.85	27737.69
628.00	27819.61
628.15	27730.67
628.30	27562.15
628.45	27831.31
628.60	27943.66
628.76	27772.80
628.91	28079.41
629.06	27653.43
629.21	27955.36
629.36	28208.14
629.51	27431.08
629.66	27522.36
629.81	27395.97
629.96	27775.14
630.11	27440.44
630.26	27585.55
630.41	27590.24
630.56	27744.71
630.71	27728.33
630.86	27454.48
631.01	27850.03
631.16	27964.72
631.31	27882.80
631.46	27637.05
631.61	27892.16
631.76	27505.98
631.91	27505.98
632.06	27292.99
632.21	27330.44
632.36	27419.38
632.51	27023.83
632.66	27623.00
632.81	27253.20
632.96	27510.66
633.10	27129.15
633.25	27402.99
633.40	27197.02
633.55	27473.21
633.70	27138.51
633.85	27058.93
634.00	27007.44
634.15	27054.25
634.30	27337.46
634.45	27346.82
634.60	27269.58
634.75	27061.27
634.90	27122.13
635.05	27129.15
635.19	27117.45
635.34	27428.74
635.49	27056.59
635.64	27227.45
635.79	26953.61
635.94	26962.97
636.09	26946.59
636.24	26773.39
636.39	26906.80
636.53	26742.96
636.68	26897.44
636.83	26644.66
636.98	26958.29
637.13	27009.78
637.28	26885.73
637.43	26740.62
637.57	26698.49
637.72	26658.70
637.87	26827.22
638.02	26728.92
638.17	27147.87
638.32	26691.47
638.46	26663.38
638.61	26754.66
638.76	26661.04
638.91	26572.10
639.06	26494.86
639.20	26342.73
639.35	26635.30
639.50	26464.44
639.65	27016.80
639.80	26464.44
639.94	26419.97
640.09	26391.88
640.24	26544.02
640.39	26225.70
640.54	26195.28
640.68	26272.51
640.83	26347.41
640.98	26249.11
641.13	26103.99
641.27	26691.47
641.42	26008.03
641.57	26214.00
641.72	26639.98
641.86	26408.26
642.01	26061.87
642.16	26448.05
642.31	25671.00
642.45	26534.65
642.60	26038.46
642.75	25851.22
642.90	26118.04
643.04	26096.97
643.19	26436.35
643.34	26361.45
643.48	26309.96
643.63	26087.61
643.78	25944.84
643.93	26354.43
644.07	26359.11
644.22	26419.97
644.37	26387.20
644.51	26153.15
644.66	25881.64
644.81	26082.93
644.95	26026.76
645.10	26164.85
645.25	25792.70
645.39	26101.65
645.54	26068.89
645.69	25982.29
645.83	25811.43
645.98	25858.24
646.13	26071.23
646.27	26050.16
646.42	25755.26
646.57	25769.30
646.71	25434.60
646.86	25893.35
647.00	26246.77
647.15	25701.42
647.30	25661.63
647.44	25357.36
647.59	25537.59
647.74	25270.76
647.88	25652.27
648.03	25839.51
648.17	25717.81
648.32	25806.75
648.47	25898.03
648.61	25790.36
648.76	25949.52
648.90	25773.98
649.05	25668.66
649.20	25415.88
649.34	25675.68
649.49	25584.40
649.63	25441.62
649.78	25355.02
649.92	25366.73
650.07	25713.13
650.21	25280.13
650.36	25214.59
650.51	25378.43
650.65	25219.27
650.80	25502.48
650.94	25296.51
651.09	25446.30
651.23	25170.12
651.38	25799.73
651.52	25340.98
651.67	25357.36
651.81	25488.43
651.96	25230.98
652.10	25156.08
652.25	25486.09
652.39	25458.01
652.54	25156.08
652.68	25488.43
652.83	24945.43
652.97	25418.22
653.12	25113.95
653.26	25109.27
653.41	25249.70
653.55	25289.49
653.70	24989.90
653.84	24952.45
653.99	24755.85
654.13	24889.26
654.27	25006.28
654.42	24650.52
654.56	24650.52
654.71	24858.83
654.85	24882.24
655.00	25022.67
655.14	25088.20
655.29	24723.08
655.43	24786.27
655.57	25067.14
655.72	24556.90
655.86	24676.27
656.01	24800.32
656.15	24851.81
656.30	24706.70
656.44	24648.18
656.58	24547.54
656.73	24704.35
656.87	24865.85
657.01	24327.53
657.16	24570.94
657.30	24790.95
657.45	24533.50
657.59	24709.04
657.73	24299.44
657.88	24493.71
658.02	24449.24
658.16	24318.17
658.31	24510.09
658.45	24500.73
658.60	24173.05
658.74	24159.01
658.88	24563.92
659.03	23658.14
659.17	24421.15
659.31	24474.98
659.46	24112.20
659.60	24482.00
659.74	24411.79
659.89	24056.03
660.03	24142.63
660.17	24299.44
660.32	24250.29
660.46	23803.25
660.60	23831.33
660.74	24105.18
660.89	23957.72
661.03	23498.98
661.17	23981.13
661.32	23756.44
661.46	24058.37
661.60	23939.00
661.74	23826.65
661.89	23922.62
662.03	23536.43
662.17	23850.06
662.31	23871.12
662.46	23915.59
662.60	23648.77
662.74	23360.89
662.88	23145.56
663.03	23215.77
663.17	23489.62
663.31	23234.50
663.45	23503.66
663.60	23269.61
663.74	23400.68
663.88	23187.69
664.02	23452.17
664.17	23627.71
664.31	23314.08
664.45	23246.20
664.59	23056.62
664.73	23255.56
664.88	23367.91
665.02	22960.66
665.16	23012.15
665.30	23332.80
665.44	22850.65
665.59	22754.69
665.73	22993.42
665.87	22600.21
666.01	23009.81
666.15	23103.43
666.29	22714.90
666.44	23222.80
666.58	22815.54
666.72	22829.59
666.86	22848.31
667.00	22635.32
667.14	22654.05
667.28	22501.91
667.43	22614.26
667.57	22541.70
667.71	22635.32
667.85	22448.08
667.99	22675.11
668.13	22436.38
668.27	22263.18
668.41	22602.55
668.56	22366.16
668.70	22504.25
668.84	22419.99
668.98	22258.49
669.12	22434.03
669.26	22188.28
669.40	21893.37
669.54	22441.06
669.68	22300.62
669.82	21933.16
669.96	21792.73
670.10	22082.95
670.25	21898.05
670.39	21736.56
670.53	21514.20
670.67	21647.61
670.81	21884.01
670.95	21933.16
671.09	21755.28
671.23	21598.46
671.37	21781.03
671.51	21846.56
671.65	21764.64
671.79	21549.31
671.93	21362.07
672.07	21460.37
672.21	21532.93
672.35	21333.98
672.49	21242.70
672.63	20886.94
672.77	21231.00
672.91	21383.13
673.05	21415.90
673.19	21123.33
673.33	21032.05
673.47	20830.77
673.61	21139.72
673.75	21170.15
673.89	21046.10
674.03	21008.65
674.17	21111.63
674.31	20903.32
674.45	21205.25
674.59	20954.82
674.73	20695.02
674.87	20669.27
675.01	20821.41
675.15	20205.84
675.29	20629.48
675.43	20589.69
675.56	20669.27
675.70	20524.16
675.84	20699.70
675.98	19880.51
676.12	20280.74
676.26	20453.94
676.40	20093.50
676.54	20360.32
676.68	20053.71
676.82	19843.06
676.96	19948.39
677.10	19819.66
677.23	19917.96
677.37	19859.45
677.51	19775.19
677.65	19803.27
677.79	19477.94
677.93	19482.62
678.07	19314.10
678.21	19424.11
678.34	19468.58
678.48	19267.29
678.62	19119.84
678.76	19232.18
678.90	19056.64
679.04	19250.91
679.18	19075.37
679.31	18930.25
679.45	18885.78
679.59	19002.81
679.73	18920.89
679.87	18625.98
680.00	18724.29
680.14	18740.67
680.28	18618.96
680.42	18794.50
680.56	18560.45
680.70	18649.39
680.83	18555.77
680.97	18586.19
681.11	18314.69
681.25	18476.19
681.39	18200.01
681.52	17956.59
681.66	18017.44
681.80	18059.57
681.94	18148.51
682.07	17987.02
682.21	17884.03
682.35	17839.56
682.49	17694.45
682.62	17638.28
682.76	17621.89
682.90	17848.93
683.04	17806.80
683.17	17818.50
683.31	17685.09
683.45	17647.64
683.59	17350.39
683.72	17345.71
683.86	17547.00
684.00	17352.73
684.13	17530.61
684.27	17174.85
684.41	16830.79
684.55	17071.87
684.68	16865.90
684.82	16863.56
684.96	16915.05
685.09	16556.95
685.23	16847.18
685.37	16669.30
685.50	16772.28
685.64	16659.93
685.78	16594.40
685.91	16578.01
686.05	16615.46
686.19	16547.59
686.32	16650.57
686.46	16430.56
686.60	16210.55
686.73	16107.57
686.87	16107.57
687.01	16056.08
687.14	15988.20
687.28	15782.23
687.42	16100.55
687.55	15875.85
687.69	16002.24
687.82	15807.98
687.96	15712.02
688.10	15571.58
688.23	15651.16
688.37	15637.12
688.50	15536.48
688.64	15496.69
688.78	15494.35
688.91	15309.44
689.05	15243.91
689.18	15236.89
689.32	14906.87
689.46	15229.87
689.59	15096.46
689.73	15026.24
689.86	15009.86
690.00	14995.81
690.13	15059.01
690.27	14871.76
690.41	14796.87
690.54	14642.39
690.68	14658.78
690.81	14862.40
690.95	14820.27
691.08	14654.09
691.22	14485.58
691.35	14799.21
691.49	14597.92
691.62	14366.21
691.76	14078.32
691.89	14101.73
692.03	14078.32
692.16	13940.23
692.30	13980.02
692.43	14008.11
692.57	14057.26
692.70	13745.97
692.84	13774.05
692.97	13736.60
693.11	13795.12
693.24	13554.04
693.38	13884.06
693.51	13664.05
693.65	13584.47
693.78	13577.45
693.92	13755.33
694.05	13444.04
694.19	13467.44
694.32	13228.71
694.45	13383.18
694.59	13064.87
694.72	13139.77
694.86	13057.85
694.99	12849.54
695.13	12856.56
695.26	12894.01
695.39	12795.71
695.53	12807.41
695.66	12973.59
695.80	12954.87
695.93	12915.08
696.07	12940.82
696.20	12713.79
696.33	12503.14
696.47	12446.97
696.60	12503.14
696.73	12278.45
696.87	12257.39
697.00	12245.68
697.14	12201.21
697.27	12159.08
697.40	12079.50
697.54	12109.93
697.67	11976.52
697.80	12044.40
697.94	11758.85
698.07	11843.11
698.21	11702.68
698.34	11946.09
698.47	11796.30
698.61	11908.65
698.74	11932.05
698.87	11742.47
699.01	11681.61
699.14	11552.88
699.27	11609.06
699.40	11548.20
699.54	11438.20
699.67	11157.33
699.80	11321.17
699.94	11133.93
700.07	11180.74
700.20	10965.41
700.34	10860.09
700.47	11056.69
700.60	10902.22
700.73	11063.71
700.87	10895.19
701.00	10967.75
701.13	11040.31
701.26	10848.38
701.40	10801.57
701.53	10803.91
701.66	10628.37
701.79	10881.15
701.93	10761.78
702.06	10408.36
702.19	10668.16
702.32	10310.06
702.46	10258.57
702.59	10356.87
702.72	10111.11
702.85	10293.68
702.99	10406.02
703.12	10054.94
703.25	10242.18
703.38	10164.95
703.51	10190.69
703.65	9926.21
703.78	9844.29
703.91	9839.61
704.04	10146.22
704.17	9874.72
704.31	9802.16
704.44	9717.90
704.57	9699.18
704.70	9692.16
704.83	9551.73
704.96	9423.00
705.10	9481.51
705.23	9446.40
>>>>>End Processed Spectral Data<<<<<
