SpectraSuite Data File
++++++++++++++++++++++++++++++++++++
Date: Fri Oct 18 13:58:18 GMT-05:00 2013
User: bianchi
Dark Spectrum Present: No
Reference Spectrum Present: No
Number of Sampled Component Spectra: 1
Spectrometers: USB2+H05261
Integration Time (usec): 50000 (USB2+H05261)
Spectra Averaged: 1 (USB2+H05261)
Boxcar Smoothing: 0 (USB2+H05261)
Correct for Electrical Dark: No (USB2+H05261)
Strobe/Lamp Enabled: No (USB2+H05261)
Correct for Detector Non-linearity: No (USB2+H05261)
Correct for Stray Light: No (USB2+H05261)
Number of Pixels in Processed Spectrum: 2048
>>>>>Begin Processed Spectral Data<<<<<
365.73	0.00
365.92	0.00
366.12	0.00
366.32	0.00
366.52	0.00
366.72	0.00
366.91	0.00
367.11	0.00
367.31	0.00
367.51	0.00
367.70	0.00
367.90	0.00
368.10	0.00
368.30	0.00
368.49	0.00
368.69	0.00
368.89	0.00
369.09	0.00
369.28	0.00
369.48	0.00
369.68	0.00
369.87	0.00
370.07	0.00
370.27	0.00
370.47	0.00
370.66	117.03
370.86	100.64
371.06	102.98
371.25	147.45
371.45	121.71
371.65	170.86
371.84	138.09
372.04	159.16
372.24	138.09
372.44	189.58
372.63	175.54
372.83	273.84
373.03	255.12
373.22	250.44
373.42	241.08
373.62	220.01
373.81	271.50
374.01	229.37
374.21	212.99
374.40	292.57
374.60	308.95
374.79	212.99
374.99	234.05
375.19	182.56
375.38	227.03
375.58	215.33
375.78	238.73
375.97	248.10
376.17	360.44
376.37	236.39
376.56	299.59
376.76	322.99
376.95	276.18
377.15	306.61
377.35	283.20
377.54	266.82
377.74	327.68
377.93	243.42
378.13	276.18
378.33	264.48
378.52	294.91
378.72	250.44
378.91	304.27
379.11	301.93
379.31	266.82
379.50	234.05
379.70	297.25
379.89	311.29
380.09	341.72
380.28	271.50
380.48	280.86
380.68	287.89
380.87	299.59
381.07	311.29
381.26	330.02
381.46	299.59
381.65	287.89
381.85	390.87
382.04	318.31
382.24	332.36
382.43	390.87
382.63	327.68
382.83	344.06
383.02	418.96
383.22	388.53
383.41	332.36
383.61	313.63
383.80	334.70
384.00	407.25
384.19	341.72
384.39	294.91
384.58	365.12
384.78	372.15
384.97	322.99
385.17	351.08
385.36	407.25
385.56	362.78
385.75	386.19
385.95	287.89
386.14	348.74
386.34	404.91
386.53	423.64
386.72	383.85
386.92	425.98
387.11	458.74
387.31	390.87
387.50	390.87
387.70	411.93
387.89	407.25
388.09	470.45
388.28	437.68
388.48	407.25
388.67	454.06
388.86	456.40
389.06	449.38
389.25	479.81
389.45	451.72
389.64	526.62
389.84	416.62
390.03	510.24
390.22	489.17
390.42	475.13
390.61	465.77
390.81	447.04
391.00	374.49
391.19	500.87
391.39	582.79
391.58	489.17
391.78	519.60
391.97	547.69
392.16	512.58
392.36	585.13
392.55	470.45
392.75	531.30
392.94	559.39
393.13	458.74
393.33	519.60
393.52	543.00
393.71	655.35
393.91	596.84
394.10	571.09
394.29	561.73
394.49	498.53
394.68	594.50
394.88	585.13
395.07	582.79
395.26	514.92
395.46	568.75
395.65	655.35
395.84	610.88
396.04	671.73
396.23	568.75
396.42	734.93
396.62	667.05
396.81	606.20
397.00	643.65
397.19	601.52
397.39	671.73
397.58	718.54
397.77	641.31
397.97	657.69
398.16	690.46
398.35	702.16
398.55	688.12
398.74	739.61
398.93	692.80
399.12	678.76
399.32	674.07
399.51	688.12
399.70	718.54
399.90	692.80
400.09	723.23
400.28	802.80
400.47	748.97
400.67	828.55
400.86	809.83
401.05	751.31
401.24	741.95
401.44	791.10
401.63	863.66
401.82	788.76
402.01	833.23
402.21	805.14
402.40	793.44
402.59	767.70
402.78	868.34
402.97	798.12
403.17	823.87
403.36	861.32
403.55	919.83
403.74	905.79
403.93	833.23
404.13	901.11
404.32	875.36
404.51	816.85
404.70	901.11
404.89	901.11
405.09	952.60
405.28	891.74
405.47	858.98
405.66	931.53
405.85	940.90
406.05	954.94
406.24	964.30
406.43	980.68
406.62	1027.50
406.81	1004.09
407.00	987.71
407.20	957.28
407.39	950.26
407.58	1067.28
407.77	1050.90
407.96	1018.13
408.15	1132.82
408.34	973.66
408.54	1055.58
408.73	957.28
408.92	1130.48
409.11	1121.12
409.30	1064.94
409.49	1060.26
409.68	1083.67
409.87	1036.86
410.07	1097.71
410.26	1144.52
410.45	1125.80
410.64	1200.69
410.83	1242.82
411.02	1240.48
411.21	1224.10
411.40	1273.25
411.59	1245.16
411.78	1376.24
411.98	1245.16
412.17	1315.38
412.36	1331.76
412.55	1350.49
412.74	1284.95
412.93	1355.17
413.12	1357.51
413.31	1355.17
413.50	1376.24
413.69	1359.85
413.88	1409.00
414.07	1380.92
414.26	1394.96
414.45	1453.47
414.64	1401.98
414.83	1451.13
415.02	1504.96
415.22	1413.68
415.41	1636.03
415.60	1439.43
415.79	1551.78
415.98	1561.14
416.17	1593.90
416.36	1462.83
416.55	1586.88
416.74	1640.72
416.93	1675.82
417.12	1614.97
417.31	1692.21
417.50	1699.23
417.69	1579.86
417.88	1607.95
418.07	1727.32
418.26	1619.65
418.45	1743.70
418.64	1849.02
418.83	1774.13
419.02	1710.93
419.21	1818.60
419.39	1879.45
419.58	1806.89
419.77	1776.47
419.96	1813.92
420.15	1865.41
420.34	1802.21
420.53	1788.17
420.72	1856.04
420.91	1907.54
421.10	1902.86
421.29	1968.39
421.48	1863.07
421.67	1874.77
421.86	1909.88
422.05	1923.92
422.24	1944.99
422.43	1870.09
422.61	2008.18
422.80	1956.69
422.99	1984.77
423.18	2038.61
423.37	1952.01
423.56	1966.05
423.75	1870.09
423.94	1994.14
424.13	1891.15
424.32	1989.46
424.50	2017.54
424.69	1975.41
424.88	2008.18
425.07	1947.33
425.26	1944.99
425.45	2143.93
425.64	2141.59
425.83	1977.75
426.01	2031.58
426.20	2043.29
426.39	1907.54
426.58	1982.43
426.77	2047.97
426.96	2043.29
427.15	2087.76
427.33	2113.50
427.52	2122.87
427.71	2125.21
427.90	2076.06
428.09	2115.84
428.28	2143.93
428.46	2214.15
428.65	2209.47
428.84	2108.82
429.03	2148.61
429.22	2076.06
429.40	2214.15
429.59	2214.15
429.78	2026.90
429.97	2113.50
430.16	2172.02
430.34	2228.19
430.53	2253.94
430.72	2253.94
430.91	2279.68
431.10	2286.70
431.28	2275.00
431.47	2279.68
431.66	2228.19
431.85	2424.80
432.03	2410.75
432.22	2459.90
432.41	2410.75
432.60	2403.73
432.79	2455.22
432.97	2452.88
433.16	2340.54
433.35	2459.90
433.54	2443.52
433.72	2523.10
433.91	2523.10
434.10	2420.11
434.28	2462.24
434.47	2441.18
434.66	2518.42
434.85	2527.78
435.03	2579.27
435.22	2546.50
435.41	2700.98
435.59	2562.89
435.78	2626.08
435.97	2548.84
436.16	2593.31
436.34	2605.02
436.53	2677.57
436.72	2679.91
436.90	2705.66
437.09	2806.30
437.28	2719.70
437.46	2642.46
437.65	2754.81
437.84	2834.39
438.02	2619.06
438.21	2736.09
438.40	2717.36
438.58	2846.09
438.77	2726.72
438.96	2885.88
439.14	2970.14
439.33	2864.82
439.52	2949.08
439.70	2813.32
439.89	3075.46
440.08	2944.39
440.26	2986.52
440.45	3091.85
440.63	2935.03
440.82	3087.17
441.01	3014.61
441.19	3148.02
441.38	2925.67
441.57	3124.62
441.75	3197.17
441.94	3183.13
442.12	3178.45
442.31	3218.24
442.50	3222.92
442.68	3232.28
442.87	3187.81
443.05	3201.85
443.24	3370.37
443.43	3311.86
443.61	3344.63
443.80	3407.82
443.98	3208.87
444.17	3241.64
444.35	3370.37
444.54	3412.50
444.73	3531.87
444.91	3377.39
445.10	3368.03
445.28	3440.59
445.47	3328.24
445.65	3391.44
445.84	3449.95
446.02	3396.12
446.21	3478.04
446.39	3414.84
446.58	3419.52
446.77	3442.93
446.95	3414.84
447.14	3363.35
447.32	3412.50
447.51	3445.27
447.69	3485.06
447.88	3379.73
448.06	3473.36
448.25	3363.35
448.43	3562.30
448.62	3602.08
448.80	3482.72
448.99	3637.19
449.17	3435.91
449.36	3536.55
449.54	3609.11
449.73	3543.57
449.91	3583.36
450.10	3733.15
450.28	3824.44
450.46	3583.36
450.65	3667.62
450.83	3662.94
451.02	3707.41
451.20	3871.25
451.39	3796.35
451.57	3625.49
451.76	3721.45
451.94	3632.51
452.13	3908.69
452.31	3850.18
452.49	3786.99
452.68	3723.79
452.86	3775.28
453.05	3854.86
453.23	3796.35
453.42	3775.28
453.60	3845.50
453.78	3833.80
453.97	3857.20
454.15	4007.00
454.34	3791.67
454.52	3936.78
454.70	3957.85
454.89	3953.16
455.07	3950.82
455.26	4053.81
455.44	4105.30
455.62	3978.91
455.81	4121.68
455.99	4049.13
456.17	4009.34
456.36	4198.92
456.54	4018.70
456.73	4170.83
456.91	4236.37
457.09	4306.59
457.28	4409.57
457.46	4229.35
457.64	4421.27
457.83	4341.69
458.01	4201.26
458.19	4301.90
458.38	4332.33
458.56	4304.25
458.74	4191.90
458.93	4283.18
459.11	4447.02
459.29	4428.29
459.48	4362.76
459.66	4285.52
459.84	4362.76
460.03	4311.27
460.21	4451.70
460.39	4477.44
460.57	4547.66
460.76	4575.75
460.94	4610.86
461.12	4589.79
461.31	4437.66
461.49	4484.47
461.67	4667.03
461.85	4587.45
462.04	4573.41
462.22	4800.44
462.40	4711.50
462.59	4713.84
462.77	4781.71
462.95	4779.37
463.13	4601.49
463.32	4596.81
463.50	4737.24
463.68	4856.61
463.86	4863.63
464.05	4692.77
464.23	4695.11
464.41	4898.74
464.59	4547.66
464.78	4851.93
464.96	4912.78
465.14	4795.76
465.32	4940.87
465.50	4950.23
465.69	5071.94
465.87	4978.32
466.05	4964.28
466.23	4896.40
466.41	5027.47
466.60	5146.84
466.78	4903.42
466.96	4873.00
467.14	5041.51
467.32	4961.94
467.51	5085.98
467.69	4870.65
467.87	5104.71
468.05	5195.99
468.23	5055.56
468.41	5128.11
468.60	5093.01
468.78	5195.99
468.96	5088.32
469.14	5015.77
469.32	5167.90
469.50	5219.39
469.69	5210.03
469.87	5327.06
470.05	5369.19
470.23	5341.10
470.41	5352.81
470.59	5448.77
470.77	5453.45
470.95	5366.85
471.14	5476.85
471.32	5298.97
471.50	5444.09
471.68	5638.35
471.86	5563.45
472.04	5420.68
472.22	5710.91
472.40	5582.18
472.58	5537.71
472.77	5771.76
472.95	5746.02
473.13	5844.32
473.31	5783.46
473.49	5785.80
473.67	5893.47
473.85	5944.96
474.03	5820.91
474.21	5820.91
474.39	6073.69
474.57	5947.30
474.75	6092.41
474.93	6108.80
475.12	6230.51
475.30	6272.64
475.48	5982.41
475.66	6188.38
475.84	6242.21
476.02	6328.81
476.20	6239.87
476.38	6373.28
476.56	6382.64
476.74	6490.31
476.92	6504.35
477.10	6434.13
477.28	6593.29
477.46	6604.99
477.64	6689.25
477.82	6932.67
478.00	6827.34
478.18	6717.34
478.36	6796.92
478.54	6855.43
478.72	6923.30
478.90	7108.21
479.08	7218.21
479.26	7276.73
479.44	7108.21
479.62	7229.91
479.80	7426.52
479.98	7311.83
480.16	7440.56
480.34	7318.86
480.52	7454.61
480.70	7641.85
480.88	7419.50
481.06	7726.11
481.24	7599.72
481.41	7620.78
481.59	7789.30
481.77	7995.27
481.95	7768.24
482.13	7969.52
482.31	8077.19
482.49	8198.90
482.67	8152.09
482.85	8243.37
483.03	8271.45
483.21	8531.25
483.39	8353.37
483.57	8421.25
483.74	8437.63
483.92	8741.90
484.10	8528.91
484.28	8980.64
484.46	8784.03
484.64	9158.52
484.82	8952.55
485.00	8938.51
485.18	9160.86
485.35	9387.89
485.53	9270.86
485.71	9238.09
485.89	9385.55
486.07	9312.99
486.25	9423.00
486.43	9530.66
486.61	9483.85
486.78	9635.99
486.96	9837.27
487.14	9942.60
487.32	9937.91
487.50	10010.47
487.68	9958.98
487.85	10221.12
488.03	10225.80
488.21	10342.83
488.39	10413.04
488.57	10293.68
488.75	10607.31
488.92	10806.25
489.10	10803.91
489.28	10918.60
489.46	11159.67
489.64	11073.07
489.81	11246.27
489.99	11204.14
490.17	11089.46
490.35	11375.00
490.53	11342.24
490.70	11630.12
490.88	11545.86
491.06	11632.46
491.24	11667.57
491.41	11613.74
491.59	11803.32
491.77	11726.08
491.95	12084.19
492.13	11910.99
492.30	12215.26
492.48	12011.63
492.66	12212.92
492.84	12159.08
493.01	12514.84
493.19	12510.16
493.37	12671.66
493.54	12603.78
493.72	12781.67
493.90	12601.44
494.08	12882.31
494.25	12905.71
494.43	13018.06
494.61	12889.33
494.79	13111.68
494.96	13303.60
495.14	13053.17
495.32	13334.03
495.49	13509.57
495.67	13593.83
495.85	13488.51
496.02	13710.86
496.20	13593.83
496.38	13549.36
496.55	13862.99
496.73	14068.96
496.91	14061.94
497.09	14272.59
497.26	14366.21
497.44	14054.92
497.62	14040.87
497.79	14478.55
497.97	14129.81
498.14	14820.27
498.32	14993.47
498.50	14469.19
498.67	14869.42
498.85	14920.92
499.03	14885.81
499.20	14717.29
499.38	14768.78
499.56	15007.52
499.73	14970.07
499.91	14841.34
500.08	15194.76
500.26	14970.07
500.44	15454.56
500.61	15204.12
500.79	15342.21
500.97	15566.90
501.14	15833.72
501.32	15819.68
501.49	15728.40
501.67	15632.44
501.84	15822.02
502.02	15875.85
502.20	15864.15
502.37	15969.48
502.55	15910.96
502.72	15995.22
502.90	16205.87
503.07	16154.38
503.25	15946.07
503.43	16222.25
503.60	16348.64
503.78	16327.58
503.95	16414.18
504.13	16336.94
504.30	16381.41
504.48	16292.47
504.65	16716.11
504.83	16610.78
505.01	16919.73
505.18	16678.66
505.36	17228.68
505.53	16814.41
505.71	16769.94
505.88	16622.48
506.06	16786.32
506.23	17186.55
506.41	17060.16
506.58	17078.89
506.76	17247.41
506.93	17123.36
507.11	17116.34
507.28	17069.53
507.46	17043.78
507.63	17453.37
507.81	17872.33
507.98	17596.15
508.16	17301.24
508.33	17369.12
508.50	17621.89
508.68	17795.09
508.85	17757.64
509.03	17954.25
509.20	18003.40
509.38	18064.25
509.55	18221.07
509.73	18104.04
509.90	18176.60
510.08	18015.10
510.25	18038.51
510.42	18139.15
510.60	18448.10
510.77	18487.89
510.95	18845.99
511.12	18260.86
511.30	18478.53
511.47	18422.36
511.64	18387.25
511.82	18764.07
511.99	18792.16
512.17	18625.98
512.34	18476.19
512.51	18581.51
512.69	18621.30
512.86	18941.96
513.04	19190.05
513.21	19131.54
513.38	19281.33
513.56	19276.65
513.73	19073.03
513.90	19269.63
514.08	19077.71
514.25	19470.92
514.43	19463.90
514.60	19353.89
514.77	19351.55
514.95	19756.46
515.12	19384.32
515.29	19372.61
515.47	19927.32
515.64	20133.29
515.81	19695.61
515.99	19885.19
516.16	20350.96
516.33	20072.43
516.51	19999.88
516.68	19992.86
516.85	20166.06
517.03	19847.74
517.20	20299.47
517.37	20114.56
517.54	20285.42
517.72	20362.66
517.89	20273.72
518.06	20194.14
518.24	20140.31
518.41	20519.48
518.58	20685.65
518.75	20521.82
518.93	20659.91
519.10	20538.20
519.27	20692.68
519.45	20599.05
519.62	20753.53
519.79	20814.38
519.96	20910.35
520.14	21174.83
520.31	20985.24
520.48	21092.91
520.65	21132.70
520.83	20992.26
521.00	21142.06
521.17	21163.12
521.34	21034.39
521.52	21310.58
521.69	21202.91
521.86	21694.43
522.03	21846.56
522.20	21282.49
522.38	21411.22
522.55	21600.80
522.72	21415.90
522.89	21502.50
523.07	22141.47
523.24	21769.32
523.41	21790.39
523.58	21778.68
523.75	21905.07
523.92	21656.98
524.10	21731.87
524.27	21891.03
524.44	22352.12
524.61	22340.41
524.78	22195.30
524.96	22204.66
525.13	22300.62
525.30	22497.23
525.47	22382.54
525.64	22361.48
525.81	22349.78
525.98	22738.30
526.16	22438.72
526.33	22438.72
526.50	22661.07
526.67	22382.54
526.84	22497.23
527.01	22635.32
527.18	22632.98
527.36	22785.12
527.53	22579.15
527.70	23105.77
527.87	23206.41
528.04	22750.01
528.21	22974.70
528.38	22366.16
528.55	23082.36
528.72	23040.23
528.89	23316.42
529.07	23344.50
529.24	22888.10
529.41	23173.64
529.58	23271.95
529.75	23126.83
529.92	23379.61
530.09	23061.30
530.26	23445.15
530.43	23054.28
530.60	23190.03
530.77	23400.68
530.94	23571.54
531.11	23627.71
531.28	23283.65
531.46	23175.98
531.63	23253.22
531.80	23784.52
531.97	24067.73
532.14	23772.82
532.31	23592.60
532.48	23559.83
532.65	23927.30
532.82	23756.44
532.99	23803.25
533.16	24013.90
533.33	23985.81
533.50	24397.74
533.67	24049.00
533.84	23943.68
534.01	23946.02
534.18	23749.42
534.35	24521.79
534.52	23978.79
534.69	24470.30
534.86	24596.69
535.03	24360.30
535.20	24460.94
535.37	24140.29
535.54	24620.10
535.71	24325.19
535.88	24163.69
536.05	24540.52
536.22	24812.02
536.38	24575.62
536.55	24624.78
536.72	24882.24
536.89	24957.13
537.06	24711.38
537.23	24772.23
537.40	24556.90
537.57	24879.89
537.74	24783.93
537.91	24964.15
538.08	25179.48
538.25	24730.10
538.42	24982.88
538.59	24926.71
538.75	24877.55
538.92	25057.78
539.09	24954.79
539.26	25158.42
539.43	25102.25
539.60	25242.68
539.77	25200.55
539.94	25436.94
540.11	25329.28
540.28	25443.96
540.44	25127.99
540.61	25099.90
540.78	25020.33
540.95	25518.86
541.12	25310.55
541.29	25738.87
541.46	25546.95
541.62	25411.20
541.79	25762.28
541.96	25294.17
542.13	25476.73
542.30	25654.61
542.47	25724.83
542.63	25762.28
542.80	25701.42
542.97	26017.40
543.14	26019.74
543.31	25905.05
543.48	25799.73
543.64	25979.95
543.81	26181.23
543.98	26064.21
544.15	26012.71
544.32	26178.89
544.48	26139.10
544.65	26345.07
544.82	26174.21
544.99	26078.25
545.16	26359.11
545.32	26052.50
545.49	26548.70
545.66	26459.76
545.83	26333.37
546.00	26443.37
546.16	26277.19
546.33	25986.97
546.50	26480.82
546.67	26457.42
546.83	26340.39
547.00	26394.22
547.17	26544.02
547.34	26462.10
547.50	26838.92
547.67	27007.44
547.84	26679.77
548.00	26965.31
548.17	26838.92
548.34	26703.17
548.51	26703.17
548.67	26834.24
548.84	26728.92
549.01	26902.12
549.18	26696.15
549.34	27208.73
549.51	26888.07
549.68	26677.43
549.84	27157.24
550.01	27056.59
550.18	27056.59
550.34	26836.58
550.51	27089.36
550.68	27346.82
550.84	26958.29
551.01	27129.15
551.18	27253.20
551.34	26841.26
551.51	26864.67
551.68	27236.81
551.84	27342.14
552.01	27400.65
552.18	27398.31
552.34	27257.88
552.51	27292.99
552.68	27356.18
552.84	27140.85
553.01	27316.39
553.18	27615.98
553.34	27630.02
553.51	27700.24
553.67	27491.93
553.84	27885.14
554.01	27901.53
554.17	27782.16
554.34	27559.81
554.51	27559.81
554.67	27960.04
554.84	27637.05
555.00	27957.70
555.17	27826.63
555.33	27831.31
555.50	27960.04
555.67	27812.59
555.83	28081.75
556.00	27868.76
556.16	28175.37
556.33	27821.95
556.50	27847.69
556.66	27859.40
556.83	27775.14
556.99	28247.93
557.16	28016.21
557.32	28329.84
557.49	28147.28
557.65	27662.79
557.82	28182.39
557.98	28252.61
558.15	28109.83
558.32	28182.39
558.48	28119.20
558.65	28610.71
558.81	28257.29
558.98	28299.42
559.14	28547.51
559.31	28088.77
559.47	28151.96
559.64	28257.29
559.80	28231.54
559.97	28095.79
560.13	28091.11
560.30	28634.11
560.46	28369.63
560.63	28065.36
560.79	28458.57
560.96	28706.67
561.12	28493.68
561.29	28236.22
561.45	28135.58
561.61	28451.55
561.78	28559.22
561.94	28903.28
562.11	28423.47
562.27	28198.77
562.44	28355.59
562.60	28673.90
562.77	28697.31
562.93	28491.34
563.10	28870.51
563.26	28648.16
563.42	28907.96
563.59	28421.13
563.75	28664.54
563.92	28706.67
564.08	28481.98
564.24	28629.43
564.41	28451.55
564.57	28343.89
564.74	28526.45
564.90	28842.42
565.07	28591.98
565.23	28877.53
565.39	28954.77
565.56	28701.99
565.72	28912.64
565.88	28737.10
566.05	28793.27
566.21	28489.00
566.38	28950.09
566.54	28797.95
566.70	29015.62
566.87	28795.61
567.03	29282.44
567.19	28968.81
567.36	29221.59
567.52	29139.67
567.68	28734.76
567.85	28959.45
568.01	28914.98
568.17	29256.70
568.34	29050.73
568.50	28954.77
568.66	29312.87
568.83	29399.47
568.99	29083.50
569.15	29099.88
569.32	28924.34
569.48	28816.68
569.64	29347.98
569.81	29127.97
569.97	29305.85
570.13	29188.82
570.30	29102.22
570.46	29099.88
570.62	29333.93
570.78	29116.26
570.95	28828.38
571.11	28875.19
571.27	28929.02
571.43	28786.25
571.60	28781.57
571.76	29244.99
571.92	29074.13
572.09	29420.53
572.25	29198.18
572.41	29039.03
572.57	29097.54
572.74	29282.44
572.90	29024.98
573.06	29331.59
573.22	28945.41
573.38	29235.63
573.55	28933.70
573.71	29586.71
573.87	29296.49
574.03	29130.31
574.20	29312.87
574.36	29254.36
574.52	29142.01
574.68	29120.95
574.84	28994.56
575.01	29216.91
575.17	29481.39
575.33	29170.10
575.49	29212.23
575.65	29376.06
575.82	29968.22
575.98	29462.66
576.14	29303.51
576.30	29132.65
576.46	29104.56
576.62	28999.24
576.79	29418.19
576.95	29310.53
577.11	29661.61
577.27	29268.40
577.43	29495.43
577.59	29420.53
577.75	29455.64
577.92	28987.53
578.08	29048.39
578.24	28776.89
578.40	29645.23
578.56	29502.45
578.72	29591.39
578.88	29722.46
579.04	29542.24
579.21	29472.03
579.37	29259.04
579.53	29303.51
579.69	29280.10
579.85	29532.88
580.01	29310.53
580.17	29252.02
580.33	29446.28
580.49	29376.06
580.65	29434.58
580.82	29139.67
580.98	29692.04
581.14	29701.40
581.30	29682.67
581.46	29369.04
581.62	29390.11
581.78	29174.78
581.94	29467.34
582.10	29078.82
582.26	29319.89
582.42	29462.66
582.58	29612.46
582.74	29326.91
582.90	29965.88
583.06	29689.70
583.22	29624.16
583.38	29610.12
583.54	29607.78
583.70	29558.63
583.86	29750.55
584.02	29188.82
584.18	29731.83
584.34	29558.63
584.50	29635.86
584.66	29598.41
584.82	29399.47
584.98	29755.23
585.14	29490.75
585.30	29565.65
585.46	29338.62
585.62	29310.53
585.78	29710.76
585.94	29741.19
586.10	29462.66
586.26	29652.25
586.42	29890.98
586.58	29605.44
586.74	29249.67
586.90	29371.38
587.06	29394.79
587.22	29340.96
587.38	29476.71
587.54	29783.32
587.70	29766.93
587.86	29858.21
588.02	29591.39
588.18	30010.35
588.34	29933.11
588.49	29579.69
588.65	29778.64
588.81	29614.80
588.97	30036.09
589.13	29626.50
589.29	29673.31
589.45	29645.23
589.61	29954.18
589.77	30302.92
589.93	29872.26
590.08	30176.53
590.24	29860.55
590.40	29715.44
590.56	29935.45
590.72	29874.60
590.88	29661.61
591.04	29642.88
591.20	30068.86
591.35	29926.09
591.51	30218.66
591.67	30314.62
591.83	30118.01
591.99	30096.95
592.15	29837.15
592.31	30134.40
592.46	29811.40
592.62	29909.71
592.78	30050.14
592.94	29886.30
593.10	29715.44
593.26	30202.27
593.41	30017.37
593.57	30087.59
593.73	30221.00
593.89	30291.21
594.05	29986.94
594.20	29996.31
594.36	29935.45
594.52	29949.50
594.68	30000.99
594.84	29778.64
594.99	29907.37
595.15	29958.86
595.31	30103.97
595.47	30043.12
595.62	30279.51
595.78	29640.54
595.94	30567.40
596.10	30171.85
596.25	30066.52
596.41	30228.02
596.57	29521.18
596.73	30073.54
596.88	29764.59
597.04	30279.51
597.20	30281.85
597.36	30047.80
597.51	30038.44
597.67	30071.20
597.83	29991.62
597.99	29956.52
598.14	30068.86
598.30	30010.35
598.46	30148.44
598.61	30270.15
598.77	29900.34
598.93	29745.87
599.09	30417.60
599.24	30761.66
599.40	30246.74
599.56	30513.56
599.71	30478.46
599.87	30323.98
600.03	30309.94
600.18	29860.55
600.34	30118.01
600.50	30338.02
600.65	30457.39
600.81	30300.58
600.97	30230.36
601.12	30232.70
601.28	30373.13
601.44	30712.51
601.59	30522.93
601.75	30010.35
601.91	29919.07
602.06	30326.32
602.22	29942.47
602.37	30031.41
602.53	30146.10
602.69	30473.78
602.84	29965.88
603.00	30370.79
603.16	30277.17
603.31	30232.70
603.47	30260.79
603.62	30024.39
603.78	30235.04
603.94	29956.52
604.09	29717.78
604.25	30082.91
604.40	29963.54
604.56	30075.88
604.71	30120.35
604.87	30061.84
605.03	30370.79
605.18	30422.28
605.34	30059.50
605.49	29876.94
605.65	29942.47
605.80	29921.41
605.96	29867.58
606.12	29804.38
606.27	30319.30
606.43	29846.51
606.58	30501.86
606.74	29956.52
606.89	30422.28
607.05	29893.32
607.20	30387.18
607.36	30115.67
607.51	29713.10
607.67	29799.70
607.82	29652.25
607.98	30036.09
608.13	30082.91
608.29	29778.64
608.44	29710.76
608.60	30256.11
608.75	30087.59
608.91	30038.44
609.06	29598.41
609.22	30106.31
609.37	29521.18
609.53	29825.45
609.68	29734.17
609.84	29645.23
609.99	29738.85
610.15	29521.18
610.30	29567.99
610.46	29811.40
610.61	29853.53
610.76	29872.26
610.92	30015.03
611.07	29731.83
611.23	29755.23
611.38	29972.90
611.54	29249.67
611.69	29373.72
611.84	29584.37
612.00	29738.85
612.15	29582.03
612.31	29909.71
612.46	29776.30
612.62	30370.79
612.77	29706.08
612.92	29984.60
613.08	29582.03
613.23	29060.09
613.39	29457.98
613.54	29528.20
613.69	29350.32
613.85	29347.98
614.00	29577.35
614.15	29764.59
614.31	29486.07
614.46	29631.18
614.62	29277.76
614.77	29612.46
614.92	29736.51
615.08	29741.19
615.23	29181.80
615.38	29305.85
615.54	29111.58
615.69	29621.82
615.84	29336.27
616.00	29511.81
616.15	29467.34
616.30	29497.77
616.46	29366.70
616.61	29589.05
616.76	29446.28
616.92	29610.12
617.07	29582.03
617.22	29181.80
617.37	29181.80
617.53	29273.08
617.68	28870.51
617.83	29188.82
617.99	28816.68
618.14	29315.21
618.29	29062.43
618.45	29240.31
618.60	29273.08
618.75	29378.40
618.90	29212.23
619.06	28826.04
619.21	29071.79
619.36	29027.32
619.51	28823.70
619.67	28793.27
619.82	28800.29
619.97	29223.93
620.12	28802.63
620.28	28858.81
620.43	28945.41
620.58	29156.05
620.73	28884.55
620.89	28802.63
621.04	28903.28
621.19	28987.53
621.34	28650.50
621.49	28882.21
621.65	28804.97
621.80	29174.78
621.95	28496.02
622.10	28325.16
622.25	28959.45
622.41	28886.89
622.56	28968.81
622.71	28762.84
622.86	28875.19
623.01	29144.35
623.16	28765.18
623.32	28980.51
623.47	28610.71
623.62	28524.11
623.77	28807.31
623.92	28404.74
624.07	28851.78
624.23	28554.54
624.38	28793.27
624.53	28723.05
624.68	28800.29
624.83	28737.10
624.98	28811.99
625.13	28442.19
625.29	28800.29
625.44	28500.70
625.59	28379.00
625.74	28697.31
625.89	28205.80
626.04	28453.89
626.19	28360.27
626.34	28290.06
626.49	28091.11
626.65	28463.25
626.80	28428.15
626.95	28320.48
627.10	28299.42
627.25	28048.98
627.40	27922.59
627.55	28013.87
627.70	27995.15
627.85	27833.65
628.00	28245.58
628.15	28039.62
628.30	27510.66
628.45	28100.47
628.60	28016.21
628.76	28079.41
628.91	28166.01
629.06	28095.79
629.21	28020.89
629.36	28168.35
629.51	27791.52
629.66	27828.97
629.81	27725.99
629.96	27953.02
630.11	28140.26
630.26	27714.28
630.41	27407.67
630.56	27400.65
630.71	28105.15
630.86	28018.55
631.01	27908.55
631.16	28060.68
631.31	27714.28
631.46	27718.96
631.61	27742.37
631.76	27786.84
631.91	27538.74
632.06	27395.97
632.21	27749.39
632.36	27594.92
632.51	27482.57
632.66	27566.83
632.81	27482.57
632.96	27995.15
633.10	27428.74
633.25	27768.12
633.40	27470.87
633.55	27580.87
633.70	27381.93
633.85	27421.72
634.00	27262.56
634.15	27281.28
634.30	27372.57
634.45	27323.41
634.60	27138.51
634.75	27323.41
634.90	27597.26
635.05	27604.28
635.19	27452.14
635.34	27693.22
635.49	27407.67
635.64	27356.18
635.79	27531.72
635.94	27084.68
636.09	27229.79
636.24	26902.12
636.39	27222.77
636.53	27260.22
636.68	27129.15
636.83	27276.60
636.98	26948.93
637.13	27091.70
637.28	27058.93
637.43	27398.31
637.57	27047.23
637.72	27117.45
637.87	26792.11
638.02	26707.85
638.17	26984.04
638.32	27126.81
638.46	27178.30
638.61	26888.07
638.76	27030.85
638.91	26576.78
639.06	26988.72
639.20	26607.21
639.35	26745.30
639.50	26661.04
639.65	26958.29
639.80	26691.47
639.94	26733.60
640.09	27115.11
640.24	26679.77
640.39	26555.72
640.54	26286.56
640.68	26639.98
640.83	26696.15
640.98	26466.78
641.13	26464.44
641.27	26387.20
641.42	26806.16
641.57	26829.56
641.72	26565.08
641.86	26553.38
642.01	26312.30
642.16	26452.73
642.31	26221.02
642.45	26576.78
642.60	26368.48
642.75	26167.19
642.90	26623.59
643.04	26471.46
643.19	26036.12
643.34	26410.60
643.48	26490.18
643.63	26394.22
643.78	26059.52
643.93	26480.82
644.07	26305.28
644.22	26506.57
644.37	26387.20
644.51	26263.15
644.66	26284.22
644.81	26221.02
644.95	25984.63
645.10	26001.01
645.25	26291.24
645.39	25731.85
645.54	26043.14
645.69	25708.44
645.83	26352.09
645.98	26047.82
646.13	26125.06
646.27	25996.33
646.42	26426.99
646.57	26132.08
646.71	26099.31
646.86	25972.92
647.00	26331.03
647.15	26366.13
647.30	25771.64
647.44	26082.93
647.59	25792.70
647.74	25654.61
647.88	25949.52
648.03	25638.23
648.17	25860.58
648.32	25731.85
648.47	25958.88
648.61	26015.05
648.76	25909.73
648.90	25928.45
649.05	25963.56
649.20	25589.08
649.34	25694.40
649.49	25816.11
649.63	25579.71
649.78	25722.49
649.92	25668.66
650.07	25647.59
650.21	25579.71
650.36	25940.16
650.51	25701.42
650.65	25558.65
650.80	25539.93
650.94	25741.21
651.09	25458.01
651.23	25242.68
651.38	25579.71
651.52	25532.90
651.67	25427.58
651.81	25528.22
651.96	25230.98
652.10	25642.91
652.25	25467.37
652.39	25514.18
652.54	25781.00
652.68	25469.71
652.83	25338.64
652.97	25757.60
653.12	25755.26
653.26	25340.98
653.41	25605.46
653.55	25142.03
653.70	25333.96
653.84	25193.53
653.99	25156.08
654.13	25254.38
654.27	24680.95
654.42	25252.04
654.56	25013.31
654.71	25163.10
654.85	25013.31
655.00	25240.34
655.14	25209.91
655.29	25191.19
655.43	25062.46
655.57	24868.19
655.72	24753.51
655.86	25221.61
656.01	24886.92
656.15	24893.94
656.30	25174.80
656.44	24905.64
656.58	25001.60
656.73	24896.28
656.87	24882.24
657.01	24959.47
657.16	24950.11
657.30	24996.92
657.45	25097.56
657.59	24655.20
657.73	24793.29
657.88	24893.94
658.02	24617.75
658.16	24510.09
658.31	24767.55
658.45	24472.64
658.60	24592.01
658.74	24350.93
658.88	24566.26
659.03	24496.05
659.17	24479.66
659.31	24446.90
659.46	24720.74
659.60	24830.74
659.74	24507.75
659.89	24091.13
660.03	24582.65
660.17	24149.65
660.32	24283.06
660.46	24170.71
660.60	24187.10
660.74	23910.91
660.89	24034.96
661.03	23946.02
661.17	24229.23
661.32	24137.94
661.46	24002.19
661.60	23805.59
661.74	23943.68
661.89	24383.70
662.03	24238.59
662.17	24030.28
662.31	23709.63
662.46	24201.14
662.60	24140.29
662.74	23962.40
662.88	23646.43
663.03	23740.05
663.17	23793.89
663.31	23672.18
663.45	23417.06
663.60	23477.91
663.74	23501.32
663.88	23688.56
664.02	23791.55
664.17	23821.97
664.31	23381.95
664.45	23662.82
664.59	23527.06
664.73	23608.98
664.88	23379.61
665.02	22998.10
665.16	23133.86
665.30	23262.58
665.44	23213.43
665.59	23276.63
665.73	23009.81
665.87	22869.37
666.01	23145.56
666.15	23173.64
666.29	23278.97
666.44	23487.28
666.58	22869.37
666.72	22981.72
666.86	23152.58
667.00	23112.79
667.14	22712.56
667.28	22806.18
667.43	22883.42
667.57	23021.51
667.71	22649.36
667.85	22417.65
667.99	22340.41
668.13	22644.68
668.27	22572.13
668.41	22857.67
668.56	22609.58
668.70	22780.43
668.84	22630.64
668.98	22799.16
669.12	22899.80
669.26	22565.10
669.40	22302.96
669.54	22279.56
669.68	21961.25
669.82	22071.25
669.96	22270.20
670.10	22150.83
670.25	22012.74
670.39	22082.95
670.53	22230.41
670.67	21551.65
670.81	22209.34
670.95	22022.10
671.09	21748.26
671.23	22097.00
671.37	21965.93
671.51	21757.62
671.65	21860.60
671.79	21963.59
671.93	21413.56
672.07	21577.40
672.21	21249.72
672.35	21717.83
672.49	21369.09
672.63	21596.12
672.77	21397.18
672.91	21231.00
673.05	21383.13
673.19	21504.84
673.33	21312.92
673.47	21018.01
673.61	21305.90
673.75	21455.69
673.89	21247.38
674.03	21170.15
674.17	21481.44
674.31	21212.28
674.45	20699.70
674.59	20905.66
674.73	20943.11
674.87	21120.99
675.01	20659.91
675.15	20596.71
675.29	20484.37
675.43	20531.18
675.56	20629.48
675.70	20762.89
675.84	20716.08
675.98	20051.37
676.12	20587.35
676.26	20528.84
676.40	20601.40
676.54	20444.58
676.68	20570.97
676.82	19784.55
676.96	20093.50
677.10	20102.86
677.23	20034.99
677.37	19627.73
677.51	19789.23
677.65	19936.68
677.79	19583.26
677.93	20009.24
678.07	19491.98
678.21	19372.61
678.34	19775.19
678.48	19220.48
678.62	19480.28
678.76	19267.29
678.90	19232.18
679.04	18998.13
679.18	19398.36
679.31	19154.94
679.45	19077.71
679.59	18998.13
679.73	18640.03
679.87	18855.36
680.00	18853.02
680.14	18857.70
680.28	18738.33
680.42	18803.86
680.56	18633.00
680.70	18569.81
680.83	18611.94
680.97	18824.93
681.11	18752.37
681.25	18677.48
681.39	18361.50
681.52	18457.46
681.66	18532.36
681.80	18122.77
681.94	18253.84
682.07	18272.56
682.21	18279.58
682.35	17762.33
682.49	18111.07
682.62	17755.30
682.76	17816.16
682.90	17951.91
683.04	17806.80
683.17	17912.12
683.31	17825.52
683.45	17961.27
683.59	17692.11
683.72	17736.58
683.86	17596.15
684.00	17453.37
684.13	17427.63
684.27	17209.96
684.41	17123.36
684.55	16950.16
684.68	16844.84
684.82	16737.17
684.96	16912.71
685.09	17057.82
685.23	16938.46
685.37	16807.39
685.50	16826.11
685.64	17125.70
685.78	16851.86
685.91	16875.26
686.05	16879.94
686.19	16683.34
686.32	16290.13
686.46	16439.92
686.60	16133.31
686.73	16402.47
686.87	16205.87
687.01	16521.84
687.14	15974.16
687.28	15679.25
687.42	16058.42
687.55	15726.06
687.69	16240.98
687.82	16013.95
687.96	15908.62
688.10	15599.67
688.23	15796.28
688.37	15955.43
688.50	15889.90
688.64	15910.96
688.78	15625.42
688.91	15386.68
689.05	15396.04
689.18	15274.34
689.32	15262.63
689.46	15344.55
689.59	15328.17
689.73	15087.09
689.86	14991.13
690.00	14925.60
690.13	15255.61
690.27	15070.71
690.41	15016.88
690.54	14787.50
690.68	14609.62
690.81	14916.23
690.95	14693.88
691.08	14876.44
691.22	14965.39
691.35	14726.65
691.49	14546.43
691.62	14743.03
691.76	14115.77
691.89	14544.09
692.03	14207.05
692.16	14071.30
692.30	14148.54
692.43	14115.77
692.57	14270.25
692.70	13968.32
692.84	13806.82
692.97	13958.96
693.11	14073.64
693.24	13778.73
693.38	13865.33
693.51	13963.64
693.65	13743.63
693.78	13682.77
693.92	13668.73
694.05	13621.92
694.19	13357.44
694.32	13446.38
694.45	13420.63
694.59	13095.30
694.72	13205.30
694.86	13142.11
694.99	12964.23
695.13	12982.95
695.26	12936.14
695.39	12973.59
695.53	13209.98
695.66	12840.18
695.80	12812.09
695.93	13053.17
696.07	12648.26
696.20	12704.43
696.33	12774.64
696.47	12582.72
696.60	12674.00
696.73	12334.62
696.87	12552.29
697.00	12671.66
697.14	12409.52
697.27	12074.82
697.40	12077.16
697.54	12011.63
697.67	12145.04
697.80	11990.56
697.94	12025.67
698.07	12049.08
698.21	11899.28
698.34	11903.96
698.47	11957.80
698.61	11943.75
698.74	12049.08
698.87	11939.07
699.01	11660.55
699.14	11700.34
699.27	11557.57
699.40	11564.59
699.54	11672.25
699.67	11400.75
699.80	11286.06
699.94	11272.02
700.07	11339.90
700.20	11248.61
700.34	11028.60
700.47	11192.44
700.60	11367.98
700.73	10995.84
700.87	10981.79
701.00	11084.78
701.13	10729.02
701.26	11201.80
701.40	11091.80
701.53	11033.29
701.66	10761.78
701.79	10600.29
701.93	10686.89
702.06	10565.18
702.19	10574.54
702.32	10640.08
702.46	10513.69
702.59	10523.05
702.72	10242.18
702.85	10326.44
702.99	10326.44
703.12	10274.95
703.25	9937.91
703.38	10328.78
703.51	10239.84
703.65	10094.73
703.78	10148.56
703.91	10036.22
704.04	10148.56
704.17	10080.69
704.31	9813.87
704.44	9717.90
704.57	9902.81
704.70	9722.59
704.83	9666.41
704.96	9682.80
705.10	9401.93
705.23	9476.83
>>>>>End Processed Spectral Data<<<<<
