SpectraSuite Data File
++++++++++++++++++++++++++++++++++++
Date: Fri Oct 18 13:58:15 GMT-05:00 2013
User: bianchi
Dark Spectrum Present: No
Reference Spectrum Present: No
Number of Sampled Component Spectra: 1
Spectrometers: USB2+H05261
Integration Time (usec): 50000 (USB2+H05261)
Spectra Averaged: 1 (USB2+H05261)
Boxcar Smoothing: 0 (USB2+H05261)
Correct for Electrical Dark: No (USB2+H05261)
Strobe/Lamp Enabled: No (USB2+H05261)
Correct for Detector Non-linearity: No (USB2+H05261)
Correct for Stray Light: No (USB2+H05261)
Number of Pixels in Processed Spectrum: 2048
>>>>>Begin Processed Spectral Data<<<<<
365.73	0.00
365.92	0.00
366.12	0.00
366.32	0.00
366.52	0.00
366.72	0.00
366.91	0.00
367.11	0.00
367.31	0.00
367.51	0.00
367.70	0.00
367.90	0.00
368.10	0.00
368.30	0.00
368.49	0.00
368.69	0.00
368.89	0.00
369.09	0.00
369.28	0.00
369.48	0.00
369.68	0.00
369.87	0.00
370.07	0.00
370.27	0.00
370.47	0.00
370.66	98.30
370.86	53.83
371.06	138.09
371.25	191.92
371.45	149.79
371.65	182.56
371.84	138.09
372.04	173.20
372.24	156.82
372.44	191.92
372.63	224.69
372.83	201.29
373.03	203.63
373.22	166.18
373.42	126.39
373.62	248.10
373.81	271.50
374.01	252.78
374.21	196.60
374.40	203.63
374.60	269.16
374.79	297.25
374.99	290.23
375.19	245.76
375.38	304.27
375.58	210.65
375.78	271.50
375.97	222.35
376.17	301.93
376.37	290.23
376.56	278.52
376.76	205.97
376.95	205.97
377.15	184.90
377.35	241.08
377.54	248.10
377.74	297.25
377.93	259.80
378.13	266.82
378.33	271.50
378.52	308.95
378.72	372.15
378.91	311.29
379.11	311.29
379.31	283.20
379.50	283.20
379.70	365.12
379.89	301.93
380.09	297.25
380.28	308.95
380.48	248.10
380.68	264.48
380.87	257.46
381.07	269.16
381.26	341.72
381.46	327.68
381.65	273.84
381.85	280.86
382.04	280.86
382.24	372.15
382.43	234.05
382.63	264.48
382.83	339.38
383.02	355.76
383.22	327.68
383.41	290.23
383.61	379.17
383.80	318.31
384.00	283.20
384.19	355.76
384.39	351.08
384.58	315.97
384.78	337.04
384.97	388.53
385.17	334.70
385.36	383.85
385.56	472.79
385.75	482.15
385.95	395.55
386.14	409.59
386.34	390.87
386.53	482.15
386.72	358.10
386.92	477.47
387.11	411.93
387.31	442.36
387.50	402.57
387.70	456.40
387.89	418.96
388.09	458.74
388.28	444.70
388.48	411.93
388.67	388.53
388.86	482.15
389.06	444.70
389.25	346.40
389.45	367.46
389.64	435.34
389.84	454.06
390.03	491.51
390.22	430.66
390.42	554.71
390.61	526.62
390.81	409.59
391.00	463.43
391.19	568.75
391.39	587.47
391.58	498.53
391.78	543.00
391.97	468.11
392.16	477.47
392.36	620.24
392.55	545.34
392.75	573.43
392.94	550.03
393.13	568.75
393.33	540.66
393.52	545.34
393.71	557.05
393.91	514.92
394.10	514.92
394.29	535.98
394.49	608.54
394.68	531.30
394.88	596.84
395.07	683.44
395.26	603.86
395.46	559.39
395.65	655.35
395.84	744.29
396.04	706.84
396.23	737.27
396.42	622.58
396.62	655.35
396.81	610.88
397.00	634.29
397.19	678.76
397.39	606.20
397.58	643.65
397.77	645.99
397.97	676.41
398.16	589.82
398.35	727.91
398.55	678.76
398.74	746.63
398.93	697.48
399.12	702.16
399.32	683.44
399.51	688.12
399.70	809.83
399.90	720.88
400.09	730.25
400.28	755.99
400.47	692.80
400.67	819.19
400.86	763.01
401.05	713.86
401.24	737.27
401.44	788.76
401.63	763.01
401.82	823.87
402.01	711.52
402.21	725.57
402.40	894.08
402.59	943.24
402.78	877.70
402.97	933.87
403.17	875.36
403.36	856.64
403.55	903.45
403.74	938.55
403.93	847.27
404.13	873.02
404.32	912.81
404.51	1001.75
404.70	1008.77
404.89	875.36
405.09	1046.22
405.28	936.21
405.47	950.26
405.66	990.05
405.85	929.19
406.05	880.04
406.24	1039.20
406.43	1015.79
406.62	1027.50
406.81	1095.37
407.00	957.28
407.20	901.11
407.39	1015.79
407.58	1041.54
407.77	957.28
407.96	1076.65
408.15	1011.11
408.34	1006.43
408.54	1011.11
408.73	1069.62
408.92	1093.03
409.11	1132.82
409.30	1107.07
409.49	1125.80
409.68	1132.82
409.87	1163.25
410.07	1153.88
410.26	1116.44
410.45	1130.48
410.64	1226.44
410.83	1322.40
411.02	1207.72
411.21	1254.53
411.40	1203.04
411.59	1287.29
411.78	1275.59
411.98	1324.74
412.17	1240.48
412.36	1217.08
412.55	1345.81
412.74	1345.81
412.93	1348.15
413.12	1380.92
413.31	1357.51
413.50	1383.26
413.69	1409.00
413.88	1448.79
414.07	1376.24
414.26	1474.54
414.45	1409.00
414.64	1500.28
414.83	1589.22
415.02	1465.18
415.22	1563.48
415.41	1596.25
415.60	1614.97
415.79	1600.93
415.98	1434.75
416.17	1535.39
416.36	1572.84
416.55	1631.35
416.74	1661.78
416.93	1699.23
417.12	1636.03
417.31	1547.09
417.50	1696.89
417.69	1837.32
417.88	1788.17
418.07	1675.82
418.26	1762.42
418.45	1680.50
418.64	1816.26
418.83	1720.29
419.02	1788.17
419.21	1797.53
419.39	1732.00
419.58	1804.55
419.77	1837.32
419.96	1839.66
420.15	1806.89
420.34	1790.51
420.53	1825.62
420.72	1961.37
420.91	1933.28
421.10	1963.71
421.29	2024.56
421.48	1846.68
421.67	1902.86
421.86	1975.41
422.05	1959.03
422.24	1926.26
422.43	1916.90
422.61	1984.77
422.80	1886.47
422.99	1961.37
423.18	2143.93
423.37	1961.37
423.56	2054.99
423.75	1928.60
423.94	2040.95
424.13	1839.66
424.32	1877.11
424.50	1968.39
424.69	2015.20
424.88	2108.82
425.07	2029.24
425.26	2005.84
425.45	2001.16
425.64	2031.58
425.83	1975.41
426.01	2094.78
426.20	2113.50
426.39	2097.12
426.58	2012.86
426.77	2099.46
426.96	2155.63
427.15	2064.35
427.33	2038.61
427.52	2174.36
427.71	2064.35
427.90	2043.29
428.09	2101.80
428.28	2172.02
428.46	2242.23
428.65	2256.28
428.84	2293.72
429.03	2176.70
429.22	2253.94
429.40	2239.89
429.59	2291.38
429.78	2085.42
429.97	2174.36
430.16	2225.85
430.34	2195.42
430.53	2392.03
430.72	2345.22
430.91	2232.87
431.10	2237.55
431.28	2312.45
431.47	2335.85
431.66	2382.67
431.85	2333.51
432.03	2466.92
432.22	2464.58
432.41	2389.69
432.60	2457.56
432.79	2366.28
432.97	2457.56
433.16	2520.76
433.35	2424.80
433.54	2560.55
433.72	2541.82
433.91	2602.68
434.10	2544.16
434.28	2427.14
434.47	2518.42
434.66	2530.12
434.85	2434.16
435.03	2693.96
435.22	2633.10
435.41	2677.57
435.59	2532.46
435.78	2553.52
435.97	2621.40
436.16	2607.36
436.34	2626.08
436.53	2574.59
436.72	2663.53
436.90	2619.06
437.09	2848.43
437.28	2813.32
437.46	2586.29
437.65	2649.49
437.84	2750.13
438.02	2668.21
438.21	2780.56
438.40	2633.10
438.58	2876.52
438.77	2794.60
438.96	2928.01
439.14	2883.54
439.33	2825.03
439.52	3009.93
439.70	2935.03
439.89	3068.44
440.08	3112.91
440.26	3035.67
440.45	3096.53
440.63	3026.31
440.82	2984.18
441.01	3098.87
441.19	3169.09
441.38	3138.66
441.57	3117.59
441.75	3236.96
441.94	3213.56
442.12	3199.51
442.31	3274.41
442.50	3297.81
442.68	3236.96
442.87	3232.28
443.05	3342.28
443.24	3314.20
443.43	3353.99
443.61	3351.65
443.80	3419.52
443.98	3386.76
444.17	3325.90
444.35	3452.29
444.54	3405.48
444.73	3370.37
444.91	3468.67
445.10	3454.63
445.28	3492.08
445.47	3368.03
445.65	3361.01
445.84	3449.95
446.02	3456.97
446.21	3398.46
446.39	3393.78
446.58	3433.57
446.77	3482.72
446.95	3478.04
447.14	3473.36
447.32	3534.21
447.51	3667.62
447.69	3466.33
447.88	3492.08
448.06	3417.18
448.25	3300.16
448.43	3557.61
448.62	3433.57
448.80	3426.54
448.99	3475.70
449.17	3566.98
449.36	3501.44
449.54	3611.45
449.73	3616.13
449.91	3747.20
450.10	3691.02
450.28	3653.58
450.46	3740.18
450.65	3784.65
450.83	3751.88
451.02	3625.49
451.20	3751.88
451.39	3824.44
451.57	3796.35
451.76	3712.09
451.94	3836.14
452.13	3983.59
452.31	3801.03
452.49	3726.13
452.68	3836.14
452.86	3875.93
453.05	3770.60
453.23	3936.78
453.42	3882.95
453.60	3789.33
453.78	3882.95
453.97	3796.35
454.15	3798.69
454.34	3754.22
454.52	3859.54
454.70	4028.06
454.89	3957.85
455.07	3967.21
455.26	3950.82
455.44	4056.15
455.62	4074.87
455.81	3967.21
455.99	4236.37
456.17	4102.96
456.36	4243.39
456.54	4131.05
456.73	4152.11
456.91	4217.65
457.09	4236.37
457.28	4337.01
457.46	4287.86
457.64	4313.61
457.83	4264.46
458.01	4241.05
458.19	4306.59
458.38	4355.74
458.56	4386.16
458.74	4299.56
458.93	4278.50
459.11	4339.35
459.29	4334.67
459.48	4280.84
459.66	4582.77
459.84	4617.88
460.03	4545.32
460.21	4531.28
460.39	4596.81
460.57	4535.96
460.76	4606.17
460.94	4498.51
461.12	4730.22
461.31	4594.47
461.49	4713.84
461.67	4582.77
461.85	4678.73
462.04	4741.93
462.22	4894.06
462.40	4777.03
462.59	4660.01
462.77	4664.69
462.95	4880.02
463.13	4910.44
463.32	4685.75
463.50	4786.40
463.68	4844.91
463.86	4758.31
464.05	4793.42
464.23	4830.87
464.41	4910.44
464.59	4833.21
464.78	4990.02
464.96	4940.87
465.14	4854.27
465.32	5006.41
465.50	4959.60
465.69	4873.00
465.87	4933.85
466.05	4968.96
466.23	5027.47
466.41	4964.28
466.60	5128.11
466.78	5029.81
466.96	5048.54
467.14	5151.52
467.32	4964.28
467.51	5111.73
467.69	4837.89
467.87	4915.12
468.05	5146.84
468.23	4889.38
468.41	4999.38
468.60	5130.45
468.78	5174.92
468.96	5224.08
469.14	5193.65
469.32	5310.68
469.50	5111.73
469.69	5282.59
469.87	5303.65
470.05	5329.40
470.23	5200.67
470.41	5376.21
470.59	5418.34
470.77	5495.58
470.95	5465.15
471.14	5544.73
471.32	5392.59
471.50	5521.32
471.68	5558.77
471.86	5586.86
472.04	5717.93
472.22	5767.08
472.40	5699.20
472.58	5668.78
472.77	5741.33
472.95	5771.76
473.13	6029.22
473.31	5846.66
473.49	5720.27
473.67	5760.06
473.85	5865.38
474.03	5996.45
474.21	5940.28
474.39	6005.81
474.57	5961.34
474.75	6050.28
474.93	6228.17
475.12	6221.14
475.30	5884.11
475.48	6033.90
475.66	6179.01
475.84	6260.93
476.02	6235.19
476.20	6197.74
476.38	6279.66
476.56	6539.46
476.74	6616.69
476.92	6417.75
477.10	6459.88
477.28	6497.33
477.46	6775.85
477.64	6722.02
477.82	6696.27
478.00	6949.05
478.18	6927.99
478.36	6855.43
478.54	7068.42
478.72	7180.76
478.90	7164.38
479.08	7019.27
479.26	7272.04
479.44	7267.36
479.62	7360.98
479.80	7314.17
479.98	7543.55
480.16	7485.03
480.34	7426.52
480.52	7627.81
480.70	7503.76
480.88	7620.78
481.06	7597.38
481.24	7616.10
481.41	7749.51
481.59	8002.29
481.77	7861.86
481.95	8119.32
482.13	8042.08
482.31	8044.42
482.49	8168.47
482.67	8156.77
482.85	8306.56
483.03	8446.99
483.21	8449.33
483.39	8662.32
483.57	8526.57
483.74	8500.83
483.92	8695.09
484.10	8461.04
484.28	8905.74
484.46	8975.95
484.64	8856.59
484.82	8912.76
485.00	9078.94
485.18	9057.87
485.35	9284.91
485.53	9305.97
485.71	9444.06
485.89	9762.37
486.07	9544.70
486.25	9645.35
486.43	9277.88
486.61	9605.56
486.78	9947.28
486.96	9930.89
487.14	10029.20
487.32	9956.64
487.50	9994.09
487.68	10265.59
487.85	10326.44
488.03	10368.57
488.21	10574.54
488.39	10527.73
488.57	10548.79
488.75	10703.27
488.92	10890.51
489.10	10881.15
489.28	10939.66
489.46	11225.21
489.64	10883.49
489.81	11276.70
489.99	11098.82
490.17	11286.06
490.35	11318.83
490.53	11459.26
490.70	11611.40
490.88	11618.42
491.06	11611.40
491.24	11580.97
491.41	11892.26
491.59	11957.80
491.77	11728.42
491.95	11932.05
492.13	12006.95
492.30	12285.47
492.48	12229.30
492.66	12100.57
492.84	12327.60
493.01	12449.31
493.19	12634.21
493.37	12505.48
493.54	12634.21
493.72	12805.07
493.90	12744.22
494.08	12868.27
494.25	13291.90
494.43	13240.41
494.61	13329.35
494.79	13397.23
494.96	13221.69
495.14	13209.98
495.32	13390.20
495.49	13565.74
495.67	13717.88
495.85	13834.91
496.02	13738.94
496.20	13635.96
496.38	13862.99
496.55	13659.37
496.73	14157.90
496.91	13841.93
497.09	14097.05
497.26	14188.33
497.44	14284.29
497.62	14295.99
497.79	14246.84
497.97	14464.51
498.14	14839.00
498.32	14946.66
498.50	14745.38
498.67	14927.94
498.85	14707.93
499.03	14710.27
499.20	14831.97
499.38	14958.36
499.56	15084.75
499.73	14974.75
499.91	15239.23
500.08	15314.13
500.26	15047.30
500.44	15473.28
500.61	15316.47
500.79	15473.28
500.97	15515.41
501.14	15798.62
501.32	15475.62
501.49	15611.37
501.67	15777.55
501.84	15906.28
502.02	15974.16
502.20	16201.19
502.37	16058.42
502.55	15803.30
502.72	16126.29
502.90	15899.26
503.07	16217.57
503.25	16121.61
503.43	16336.94
503.60	16505.46
503.78	16416.52
503.95	16477.37
504.13	16540.57
504.30	16512.48
504.48	16503.12
504.65	16538.23
504.83	16964.20
505.01	16966.54
505.18	17022.72
505.36	17088.25
505.53	16673.98
505.71	17071.87
505.88	16858.88
506.06	16872.92
506.23	16994.63
506.41	17034.42
506.58	17455.72
506.76	17085.91
506.93	17303.58
507.11	17296.56
507.28	17748.28
507.46	17404.22
507.63	17486.14
507.81	17769.35
507.98	17434.65
508.16	17776.37
508.33	17792.75
508.50	17284.86
508.68	17837.22
508.85	17907.44
509.03	17851.27
509.20	18239.79
509.38	18314.69
509.55	18274.90
509.73	18188.30
509.90	18157.88
510.08	18132.13
510.25	18047.87
510.42	18422.36
510.60	18733.65
510.77	18530.02
510.95	18530.02
511.12	18735.99
511.30	18576.83
511.47	18665.77
511.64	18640.03
511.82	18614.28
511.99	18764.07
512.17	18925.57
512.34	19075.37
512.51	19103.45
512.69	19058.98
512.86	19056.64
513.04	19360.91
513.21	19379.64
513.38	19428.79
513.56	19449.85
513.73	19374.95
513.90	19683.91
514.08	19527.09
514.25	19520.07
514.43	19887.53
514.60	19737.74
514.77	19833.70
514.95	19793.91
515.12	19854.76
515.29	19538.79
515.47	19772.85
515.64	20121.59
515.81	19637.09
515.99	20023.28
516.16	20329.89
516.33	20407.13
516.51	20166.06
516.68	20070.09
516.85	20018.60
517.03	20290.10
517.20	20437.56
517.37	20840.13
517.54	20676.29
517.72	20329.89
517.89	20655.23
518.06	20798.00
518.24	20444.58
518.41	20549.90
518.58	20769.91
518.75	20582.67
518.93	20856.51
519.10	20634.16
519.27	20961.84
519.45	20865.88
519.62	21039.08
519.79	21102.27
519.96	20886.94
520.14	21303.56
520.31	20982.90
520.48	21324.62
520.65	21275.47
520.83	21593.78
521.00	21212.28
521.17	21205.25
521.34	21081.21
521.52	21338.66
521.69	21373.77
521.86	21717.83
522.03	21605.49
522.20	21647.61
522.38	21544.63
522.55	21479.10
522.72	21654.64
522.89	21778.68
523.07	21984.65
523.24	21743.58
523.41	22340.41
523.58	21713.15
523.75	22312.33
523.92	22017.42
524.10	22066.57
524.27	22490.21
524.44	22078.27
524.61	22270.20
524.78	22438.72
524.96	22412.97
525.13	22651.70
525.30	22309.99
525.47	22572.13
525.64	22485.53
525.81	22829.59
525.98	22452.76
526.16	22600.21
526.33	22590.85
526.50	22883.42
526.67	22682.13
526.84	22654.05
527.01	22855.33
527.18	23133.86
527.36	22750.01
527.53	22911.50
527.70	23346.84
527.87	23161.94
528.04	23063.64
528.21	23019.17
528.38	22782.77
528.55	23466.21
528.72	23168.96
528.89	23260.24
529.07	23126.83
529.24	22838.95
529.41	23405.36
529.58	23145.56
529.75	23536.43
529.92	23386.63
530.09	23468.55
530.26	23552.81
530.43	23660.48
530.60	23351.52
530.77	23377.27
530.94	23400.68
531.11	23545.79
531.28	23765.80
531.46	23967.09
531.63	23906.23
531.80	23861.76
531.97	24128.58
532.14	23889.85
532.31	23770.48
532.48	23917.93
532.65	24098.16
532.82	23915.59
532.99	23889.85
533.16	23674.52
533.33	24329.87
533.50	24563.92
533.67	24343.91
533.84	24109.86
534.01	24400.08
534.18	24070.07
534.35	24542.86
534.52	24159.01
534.69	24383.70
534.86	24589.67
535.03	24638.82
535.20	24650.52
535.37	24592.01
535.54	24477.32
535.71	24388.38
535.88	24549.88
536.05	24620.10
536.22	24603.71
536.38	24891.60
536.55	24954.79
536.72	25020.33
536.89	24507.75
537.06	24840.11
537.23	24781.59
537.40	24727.76
537.57	24917.34
537.74	24929.05
537.91	25317.57
538.08	25106.93
538.25	24968.84
538.42	25120.97
538.59	25071.82
538.75	25120.97
538.92	25436.94
539.09	25263.74
539.26	25355.02
539.43	25212.25
539.60	25291.83
539.77	25219.27
539.94	25083.52
540.11	25668.66
540.28	25586.74
540.44	25350.34
540.61	25462.69
540.78	25376.09
540.95	25422.90
541.12	25652.27
541.29	25750.57
541.46	25865.26
541.62	25717.81
541.79	25467.37
541.96	25343.32
542.13	25397.15
542.30	25781.00
542.47	26132.08
542.63	25958.88
542.80	26017.40
542.97	26125.06
543.14	26328.69
543.31	26183.57
543.48	26368.48
543.64	26284.22
543.81	26043.14
543.98	26263.15
544.15	26244.43
544.32	26340.39
544.48	26522.95
544.65	26115.70
544.82	26024.42
544.99	26380.18
545.16	26539.33
545.32	26534.65
545.49	26845.94
545.66	26768.71
545.83	26689.13
546.00	26621.25
546.16	26635.30
546.33	26995.74
546.50	26218.68
546.67	26726.58
546.83	26574.44
547.00	26614.23
547.17	26757.00
547.34	26693.81
547.50	26991.06
547.67	27082.34
547.84	27021.48
548.00	27171.28
548.17	27037.87
548.34	27089.36
548.51	27513.00
548.67	27154.90
548.84	26948.93
549.01	27037.87
549.18	27236.81
549.34	27026.17
549.51	27388.95
549.68	27194.68
549.84	26991.06
550.01	26969.99
550.18	27246.18
550.34	27356.18
550.51	27201.71
550.68	27370.22
550.84	27653.43
551.01	27321.07
551.18	27138.51
551.34	27105.74
551.51	27019.14
551.68	27433.42
551.84	27529.38
552.01	27454.48
552.18	27644.07
552.34	27494.27
552.51	27634.71
552.68	27440.44
552.84	27566.83
553.01	27814.93
553.18	27747.05
553.34	27630.02
553.51	27702.58
553.67	28044.30
553.84	28032.60
554.01	28046.64
554.17	27938.97
554.34	28020.89
554.51	27562.15
554.67	28144.94
554.84	27899.19
555.00	27960.04
555.17	27723.65
555.33	28067.70
555.50	27800.88
555.67	28203.46
555.83	28013.87
556.00	27999.83
556.16	27999.83
556.33	28283.03
556.50	27859.40
556.66	28135.58
556.83	28245.58
556.99	28364.95
557.16	28144.94
557.32	28465.60
557.49	28659.86
557.65	28226.86
557.82	28137.92
557.98	28151.96
558.15	28168.35
558.32	28617.73
558.48	28599.01
558.65	28685.61
558.81	28369.63
558.98	28301.76
559.14	28390.70
559.31	28184.73
559.47	28568.58
559.64	28273.67
559.80	28603.69
559.97	28627.09
560.13	28917.32
560.30	28765.18
560.46	28893.91
560.63	28425.81
560.79	28631.77
560.96	28596.67
561.12	28582.62
561.29	28678.58
561.45	28744.12
561.61	28620.07
561.78	28627.09
561.94	28823.70
562.11	28893.91
562.27	28570.92
562.44	28561.56
562.60	28493.68
562.77	28788.59
562.93	28854.12
563.10	28774.55
563.26	28446.87
563.42	29010.94
563.59	29174.78
563.75	29130.31
563.92	29001.58
564.08	28533.47
564.24	28931.36
564.41	28840.08
564.57	28800.29
564.74	28762.84
564.90	28903.28
565.07	28905.62
565.23	29289.46
565.39	28879.87
565.56	28823.70
565.72	28758.16
565.88	29078.82
566.05	29113.92
566.21	29144.35
566.38	29097.54
566.54	29153.71
566.70	29516.50
566.87	29373.72
567.03	29139.67
567.19	29652.25
567.36	29125.63
567.52	29252.02
567.68	29565.65
567.85	29020.30
568.01	29048.39
568.17	28685.61
568.34	29057.75
568.50	29577.35
568.66	29015.62
568.83	29130.31
568.99	29317.55
569.15	29034.35
569.32	29032.00
569.48	29034.35
569.64	29085.84
569.81	29291.80
569.97	28910.30
570.13	29076.48
570.30	29235.63
570.46	29467.34
570.62	29174.78
570.78	29345.64
570.95	29043.71
571.11	29270.74
571.27	29289.46
571.43	29060.09
571.60	29191.16
571.76	29252.02
571.92	29397.13
572.09	29343.30
572.25	29434.58
572.41	29467.34
572.57	29481.39
572.74	29530.54
572.90	29123.29
573.06	29582.03
573.22	29476.71
573.38	29535.22
573.55	29392.45
573.71	29769.27
573.87	29577.35
574.03	29394.79
574.20	29621.82
574.36	29296.49
574.52	29228.61
574.68	29495.43
574.84	29226.27
575.01	29701.40
575.17	29841.83
575.33	29532.88
575.49	29333.93
575.65	29736.51
575.82	29710.76
575.98	29460.32
576.14	29450.96
576.30	29853.53
576.46	29006.26
576.62	29511.81
576.79	29273.08
576.95	29345.64
577.11	29963.54
577.27	29350.32
577.43	29921.41
577.59	29441.60
577.75	29692.04
577.92	29373.72
578.08	29509.47
578.24	29296.49
578.40	29567.99
578.56	29652.25
578.72	29738.85
578.88	29858.21
579.04	29647.57
579.21	29715.44
579.37	29764.59
579.53	30019.71
579.69	29872.26
579.85	29399.47
580.01	29710.76
580.17	29472.03
580.33	29521.18
580.49	29893.32
580.65	29860.55
580.82	29673.31
580.98	29654.59
581.14	29961.20
581.30	29687.36
581.46	29411.17
581.62	29556.28
581.78	29420.53
581.94	29666.29
582.10	29549.26
582.26	29624.16
582.42	29647.57
582.58	30087.59
582.74	29895.66
582.90	29764.59
583.06	29909.71
583.22	29600.76
583.38	29869.92
583.54	29586.71
583.70	29713.10
583.86	29755.23
584.02	29759.91
584.18	29729.48
584.34	29811.40
584.50	29649.91
584.66	29556.28
584.82	30078.22
584.98	29797.36
585.14	29556.28
585.30	29738.85
585.46	29923.75
585.62	29750.55
585.78	29472.03
585.94	29427.56
586.10	30134.40
586.26	29968.22
586.42	30300.58
586.58	29715.44
586.74	29795.02
586.90	29511.81
587.06	29642.88
587.22	29806.72
587.38	29610.12
587.54	29827.79
587.70	29895.66
587.86	30499.52
588.02	30015.03
588.18	30160.14
588.34	30066.52
588.49	29788.00
588.65	29783.32
588.81	30122.69
588.97	29675.65
589.13	29827.79
589.29	29933.11
589.45	29982.26
589.61	29795.02
589.77	30085.25
589.93	30118.01
590.08	30178.87
590.24	30092.27
590.40	30029.07
590.56	29926.09
590.72	29977.58
590.88	29963.54
591.04	30218.66
591.20	30129.72
591.35	30511.22
591.51	30513.56
591.67	30698.47
591.83	30338.02
591.99	30328.66
592.15	30293.55
592.31	29905.02
592.46	29806.72
592.62	29949.50
592.78	30155.46
592.94	30211.64
593.10	29937.79
593.26	30148.44
593.41	30326.32
593.57	30328.66
593.73	30064.18
593.89	30394.20
594.05	30068.86
594.20	30017.37
594.36	30366.11
594.52	30277.17
594.68	29919.07
594.84	30167.16
594.99	30686.76
595.15	29989.28
595.31	30438.67
595.47	30108.65
595.62	30424.62
595.78	30185.89
595.94	30260.79
596.10	30405.90
596.25	30459.73
596.41	30298.23
596.57	30323.98
596.73	29923.75
596.88	30033.75
597.04	30309.94
597.20	30551.01
597.36	30614.21
597.51	30377.81
597.67	30555.69
597.83	30405.90
597.99	30426.96
598.14	30249.08
598.30	30331.00
598.46	30375.47
598.61	30319.30
598.77	30036.09
598.93	30368.45
599.09	30525.27
599.24	30581.44
599.40	30401.22
599.56	30852.94
599.71	30125.04
599.87	30529.95
600.03	30082.91
600.18	30082.91
600.34	30396.54
600.50	30052.48
600.65	30401.22
600.81	30618.89
600.97	30209.29
601.12	30452.71
601.28	30630.59
601.44	30562.72
601.59	30410.58
601.75	30391.86
601.91	30216.32
602.06	30361.43
602.22	30401.22
602.37	30515.90
602.53	30511.22
602.69	30099.29
602.84	30295.89
603.00	30188.23
603.16	30398.88
603.31	30628.25
603.47	30398.88
603.62	30380.15
603.78	30295.89
603.94	29937.79
604.09	29876.94
604.25	30480.80
604.40	30019.71
604.56	29968.22
604.71	30773.36
604.87	30302.92
605.03	30565.06
605.18	30431.65
605.34	30656.34
605.49	30487.82
605.65	30082.91
605.80	29977.58
605.96	30328.66
606.12	29809.06
606.27	30593.14
606.43	30457.39
606.58	30459.73
606.74	30511.22
606.89	30441.01
607.05	30345.05
607.20	30532.29
607.36	30363.77
607.51	30347.39
607.67	30073.54
607.82	30118.01
607.98	30649.32
608.13	30319.30
608.29	30115.67
608.44	30277.17
608.60	30045.46
608.75	30693.79
608.91	30202.27
609.06	30132.06
609.22	30401.22
609.37	29816.08
609.53	29820.77
609.68	29991.62
609.84	29867.58
609.99	30005.67
610.15	30106.31
610.30	29958.86
610.46	29902.68
610.61	30291.21
610.76	30139.08
610.92	30354.41
611.07	30188.23
611.23	29933.11
611.38	29872.26
611.54	29846.51
611.69	29984.60
611.84	29570.33
612.00	29785.66
612.15	29907.37
612.31	30188.23
612.46	29771.61
612.62	30082.91
612.77	30085.25
612.92	30309.94
613.08	29720.12
613.23	30003.33
613.39	29963.54
613.54	29652.25
613.69	29853.53
613.85	29673.31
614.00	29923.75
614.15	30129.72
614.31	29511.81
614.46	30017.37
614.62	30031.41
614.77	29776.30
614.92	29542.24
615.08	29699.06
615.23	29837.15
615.38	29692.04
615.54	29287.12
615.69	29825.45
615.84	29160.73
616.00	29823.11
616.15	29839.49
616.30	29769.27
616.46	29556.28
616.61	29394.79
616.76	29390.11
616.92	29560.97
617.07	29415.85
617.22	29497.77
617.37	29418.19
617.53	29738.85
617.68	29228.61
617.83	29104.56
617.99	29490.75
618.14	29074.13
618.29	29607.78
618.45	29242.65
618.60	29474.37
618.75	29336.27
618.90	29497.77
619.06	29565.65
619.21	29181.80
619.36	29439.26
619.51	29385.43
619.67	28954.77
619.82	28730.08
619.97	29015.62
620.12	29151.37
620.28	29294.14
620.43	29113.92
620.58	29254.36
620.73	29371.38
620.89	29174.78
621.04	29575.01
621.19	29502.45
621.34	28809.65
621.49	28783.91
621.65	28795.61
621.80	29188.82
621.95	28999.24
622.10	29064.77
622.25	28821.36
622.41	29198.18
622.56	28968.81
622.71	29078.82
622.86	29191.16
623.01	29083.50
623.16	28922.00
623.32	28568.58
623.47	28716.03
623.62	28912.64
623.77	28858.81
623.92	29024.98
624.07	28931.36
624.23	28669.22
624.38	28615.39
624.53	28631.77
624.68	28898.59
624.83	29071.79
624.98	28755.82
625.13	28809.65
625.29	28793.27
625.44	28570.92
625.59	28320.48
625.74	28645.82
625.89	28552.20
626.04	28716.03
626.19	28741.78
626.34	28416.44
626.49	28697.31
626.65	28369.63
626.80	28615.39
626.95	28496.02
627.10	28444.53
627.25	28367.29
627.40	28332.18
627.55	28278.35
627.70	28355.59
627.85	28418.78
628.00	28032.60
628.15	28355.59
628.30	28285.37
628.45	28168.35
628.60	28170.69
628.76	28666.88
628.91	28025.57
629.06	28336.87
629.21	28414.10
629.36	28318.14
629.51	28219.84
629.66	28247.93
629.81	27931.95
629.96	27910.89
630.11	28116.86
630.26	27651.09
630.41	27835.99
630.56	27658.11
630.71	28180.05
630.86	28327.50
631.01	28093.45
631.16	28039.62
631.31	27889.82
631.46	27601.94
631.61	27906.21
631.76	27644.07
631.91	27749.39
632.06	27751.73
632.21	27566.83
632.36	27721.30
632.51	27737.69
632.66	27723.65
632.81	27604.28
632.96	27885.14
633.10	27831.31
633.25	27969.40
633.40	27702.58
633.55	27826.63
633.70	27639.39
633.85	27723.65
634.00	27545.76
634.15	27295.33
634.30	27377.25
634.45	27316.39
634.60	27318.73
634.75	27410.01
634.90	27417.04
635.05	27573.85
635.19	27515.34
635.34	27407.67
635.49	27775.14
635.64	27857.06
635.79	27754.07
635.94	27541.08
636.09	27166.60
636.24	27248.52
636.39	27288.31
636.53	27374.91
636.68	27227.45
636.83	27604.28
636.98	27597.26
637.13	27414.69
637.28	27527.04
637.43	27527.04
637.57	27199.37
637.72	27129.15
637.87	27136.17
638.02	27402.99
638.17	27225.11
638.32	26958.29
638.46	26993.40
638.61	26726.58
638.76	26754.66
638.91	27126.81
639.06	26955.95
639.20	27084.68
639.35	27063.61
639.50	27154.90
639.65	27379.59
639.80	26874.03
639.94	27058.93
640.09	27318.73
640.24	27124.47
640.39	26815.52
640.54	26712.53
640.68	26602.53
640.83	26588.49
640.98	26714.87
641.13	26661.04
641.27	26759.34
641.42	26759.34
641.57	27072.98
641.72	26670.40
641.86	26698.49
642.01	26696.15
642.16	26438.69
642.31	26576.78
642.45	26867.01
642.60	26452.73
642.75	26747.64
642.90	26403.58
643.04	26279.54
643.19	26190.59
643.34	26822.54
643.48	26607.21
643.63	26700.83
643.78	26757.00
643.93	26480.82
644.07	26551.04
644.22	26569.76
644.37	26565.08
644.51	26501.89
644.66	26522.95
644.81	26225.70
644.95	26529.97
645.10	26251.45
645.25	25958.88
645.39	26047.82
645.54	26396.56
645.69	26286.56
645.83	26349.75
645.98	26480.82
646.13	26125.06
646.27	26448.05
646.42	26244.43
646.57	26548.70
646.71	26026.76
646.86	26225.70
647.00	26361.45
647.15	25724.83
647.30	25764.62
647.44	26022.08
647.59	26401.24
647.74	26001.01
647.88	26094.63
648.03	26272.51
648.17	26305.28
648.32	26249.11
648.47	26347.41
648.61	25862.92
648.76	26115.70
648.90	26188.25
649.05	26192.94
649.20	25781.00
649.34	25919.09
649.49	25603.12
649.63	25766.96
649.78	25804.41
649.92	25858.24
650.07	25692.06
650.21	25504.82
650.36	25736.53
650.51	25497.80
650.65	25928.45
650.80	25659.29
650.94	25469.71
651.09	25759.94
651.23	25659.29
651.38	25680.36
651.52	25413.54
651.67	25495.46
651.81	25879.30
651.96	25722.49
652.10	25507.16
652.25	25876.96
652.39	25240.34
652.54	25659.29
652.68	25439.28
652.83	25860.58
652.97	25818.45
653.12	25738.87
653.26	25305.87
653.41	25448.64
653.55	25642.91
653.70	25385.45
653.84	25357.36
653.99	25645.25
654.13	25102.25
654.27	25069.48
654.42	25542.27
654.56	25785.68
654.71	25420.56
654.85	25245.02
655.00	25415.88
655.14	25427.58
655.29	25205.23
655.43	25572.69
655.57	25291.83
655.72	25135.01
655.86	25331.62
656.01	25001.60
656.15	25120.97
656.30	25027.35
656.44	25462.69
656.58	24746.48
656.73	24856.49
656.87	24854.15
657.01	24922.02
657.16	24692.65
657.30	25610.14
657.45	25097.56
657.59	25233.32
657.73	24727.76
657.88	24685.63
658.02	25130.33
658.16	25261.40
658.31	24769.89
658.45	24503.07
658.60	24500.73
658.74	24753.51
658.88	24692.65
659.03	24751.17
659.17	24917.34
659.31	24713.72
659.46	24821.38
659.60	24786.27
659.74	24444.56
659.89	24505.41
660.03	24465.62
660.17	24781.59
660.32	24407.11
660.46	24343.91
660.60	24285.40
660.74	24355.61
660.89	24510.09
661.03	24229.23
661.17	24196.46
661.32	24559.24
661.46	24664.57
661.60	23917.93
661.74	24400.08
661.89	24397.74
662.03	24400.08
662.17	23885.17
662.31	23948.36
662.46	23960.06
662.60	24086.45
662.74	23737.71
662.88	24187.10
663.03	23627.71
663.17	23889.85
663.31	23522.38
663.45	23833.68
663.60	23520.04
663.74	23667.50
663.88	23915.59
664.02	23960.06
664.17	23793.89
664.31	23693.24
664.45	23536.43
664.59	23807.93
664.73	23761.12
664.88	23700.26
665.02	23190.03
665.16	23552.81
665.30	23318.76
665.44	23608.98
665.59	23388.97
665.73	23290.67
665.87	23232.16
666.01	23122.15
666.15	23356.21
666.29	22923.21
666.44	23393.65
666.58	23321.10
666.72	23204.07
666.86	23431.10
667.00	23290.67
667.14	23084.70
667.28	22796.82
667.43	22979.38
667.57	22944.27
667.71	23021.51
667.85	22698.52
667.99	22478.50
668.13	22850.65
668.27	22740.64
668.41	22778.09
668.56	22270.20
668.70	22740.64
668.84	23005.13
668.98	22904.48
669.12	22394.25
669.26	22581.49
669.40	22670.43
669.54	22380.20
669.68	22539.36
669.82	22640.00
669.96	22492.55
670.10	22099.34
670.25	22270.20
670.39	22052.53
670.53	21865.28
670.67	22101.68
670.81	21977.63
670.95	22164.87
671.09	22106.36
671.23	22045.51
671.37	21788.05
671.51	22160.19
671.65	22132.11
671.79	22232.75
671.93	21933.16
672.07	22125.08
672.21	21958.91
672.35	21546.97
672.49	21544.63
672.63	21582.08
672.77	21535.27
672.91	21692.08
673.05	21537.61
673.19	21631.23
673.33	21493.14
673.47	21366.75
673.61	21427.60
673.75	21451.01
673.89	21305.90
674.03	21240.36
674.17	21312.92
674.31	21235.68
674.45	21149.08
674.59	21179.51
674.73	21167.80
674.87	21060.14
675.01	20975.88
675.15	20929.07
675.29	20732.47
675.43	20549.90
675.56	20690.34
675.70	20912.69
675.84	20840.13
675.98	20081.80
676.12	20758.21
676.26	20886.94
676.40	20786.30
676.54	20561.61
676.68	20233.93
676.82	19988.18
676.96	20404.79
677.10	20233.93
677.23	19922.64
677.37	20002.22
677.51	20058.39
677.65	19864.13
677.79	19679.22
677.93	19939.02
678.07	20063.07
678.21	19754.12
678.34	19576.24
678.48	19520.07
678.62	19438.15
678.76	19557.52
678.90	19548.15
679.04	19599.65
679.18	19344.53
679.31	19150.26
679.45	19321.12
679.59	19281.33
679.73	19215.80
679.87	19063.66
680.00	19063.66
680.14	18728.97
680.28	18885.78
680.42	18785.14
680.56	18953.66
680.70	18717.26
680.83	18906.85
680.97	18523.00
681.11	18904.51
681.25	18420.02
681.39	18480.87
681.52	18520.66
681.66	18366.18
681.80	18473.85
681.94	18501.93
682.07	18417.68
682.21	18373.21
682.35	17968.29
682.49	18071.28
682.62	17942.55
682.76	17947.23
682.90	17907.44
683.04	18059.57
683.17	18171.92
683.31	18043.19
683.45	17804.46
683.59	17921.48
683.72	17717.86
683.86	17673.39
684.00	17418.27
684.13	17509.55
684.27	17523.59
684.41	17554.02
684.55	17116.34
684.68	17076.55
684.82	17104.64
684.96	17085.91
685.09	16996.97
685.23	16964.20
685.37	16650.57
685.50	17055.48
685.64	17135.06
685.78	17055.48
685.91	17057.82
686.05	16599.08
686.19	16807.39
686.32	16678.66
686.46	16255.02
686.60	16191.83
686.73	16109.91
686.87	16304.17
687.01	16545.25
687.14	16175.44
687.28	16210.55
687.42	15971.82
687.55	15950.75
687.69	15960.11
687.82	16217.57
687.96	16161.40
688.10	15805.64
688.23	15866.49
688.37	16020.97
688.50	15662.86
688.64	15784.57
688.78	15538.82
688.91	15606.69
689.05	15751.81
689.18	15372.64
689.32	15056.67
689.46	15496.69
689.59	15414.77
689.73	15367.96
689.86	15218.16
690.00	15084.75
690.13	15452.22
690.27	15084.75
690.41	15302.42
690.54	15047.30
690.68	15049.64
690.81	14855.38
690.95	15026.24
691.08	14759.42
691.22	14665.80
691.35	14703.25
691.49	14532.39
691.62	14635.37
691.76	14644.73
691.89	14546.43
692.03	14188.33
692.16	14202.37
692.30	13996.40
692.43	14031.51
692.57	14420.04
692.70	14288.97
692.84	14010.45
692.97	13984.70
693.11	14026.83
693.24	13752.99
693.38	13907.46
693.51	13650.00
693.65	14087.68
693.78	13638.30
693.92	13818.52
694.05	13467.44
694.19	13788.10
694.32	13631.28
694.45	13366.80
694.59	13088.28
694.72	13315.31
694.86	13142.11
694.99	13032.10
695.13	13123.38
695.26	12971.25
695.39	13296.58
695.53	13015.72
695.66	13004.02
695.80	12875.29
695.93	13135.09
696.07	12994.65
696.20	13006.36
696.33	12823.80
696.47	12727.83
696.60	12823.80
696.73	12655.28
696.87	12613.15
697.00	12617.83
697.14	12603.78
697.27	12339.30
697.40	12430.59
697.54	12329.94
697.67	12196.53
697.80	12098.23
697.94	11847.79
698.07	12030.35
698.21	11934.39
698.34	12030.35
698.47	12182.49
698.61	12049.08
698.74	11784.60
698.87	11845.45
699.01	11557.57
699.14	11894.60
699.27	11793.96
699.40	11674.59
699.54	11609.06
699.67	11541.18
699.80	11473.31
699.94	11356.28
700.07	11604.38
700.20	11180.74
700.34	11372.66
700.47	11143.29
700.60	11286.06
700.73	11117.54
700.87	11220.53
701.00	10904.56
701.13	10986.47
701.26	11162.01
701.40	11089.46
701.53	10932.64
701.66	11033.29
701.79	10965.41
701.93	10993.50
702.06	10623.69
702.19	10509.01
702.32	10677.52
702.46	10445.81
702.59	10532.41
702.72	10167.29
702.85	10338.15
702.99	10361.55
703.12	10354.53
703.25	10127.50
703.38	10338.15
703.51	10384.96
703.65	9933.23
703.78	10153.24
703.91	10120.48
704.04	10251.55
704.17	10115.80
704.31	10230.48
704.44	10001.11
704.57	10024.51
704.70	9701.52
704.83	9720.24
704.96	9481.51
705.10	9645.35
705.23	9502.58
>>>>>End Processed Spectral Data<<<<<
