SpectraSuite Data File
++++++++++++++++++++++++++++++++++++
Date: Fri Oct 18 13:58:33 GMT-05:00 2013
User: bianchi
Dark Spectrum Present: No
Reference Spectrum Present: No
Number of Sampled Component Spectra: 1
Spectrometers: USB2+H05261
Integration Time (usec): 50000 (USB2+H05261)
Spectra Averaged: 1 (USB2+H05261)
Boxcar Smoothing: 0 (USB2+H05261)
Correct for Electrical Dark: No (USB2+H05261)
Strobe/Lamp Enabled: No (USB2+H05261)
Correct for Detector Non-linearity: No (USB2+H05261)
Correct for Stray Light: No (USB2+H05261)
Number of Pixels in Processed Spectrum: 2048
>>>>>Begin Processed Spectral Data<<<<<
365.73	0.00
365.92	0.00
366.12	0.00
366.32	0.00
366.52	0.00
366.72	0.00
366.91	0.00
367.11	0.00
367.31	0.00
367.51	0.00
367.70	0.00
367.90	0.00
368.10	0.00
368.30	0.00
368.49	0.00
368.69	0.00
368.89	0.00
369.09	0.00
369.28	0.00
369.48	0.00
369.68	0.00
369.87	0.00
370.07	0.00
370.27	0.00
370.47	0.00
370.66	65.54
370.86	51.49
371.06	147.45
371.25	163.84
371.45	81.92
371.65	191.92
371.84	159.16
372.04	117.03
372.24	227.03
372.44	138.09
372.63	283.20
372.83	201.29
373.03	184.90
373.22	234.05
373.42	238.73
373.62	159.16
373.81	229.37
374.01	264.48
374.21	290.23
374.40	227.03
374.60	250.44
374.79	210.65
374.99	290.23
375.19	234.05
375.38	241.08
375.58	245.76
375.78	229.37
375.97	234.05
376.17	276.18
376.37	304.27
376.56	332.36
376.76	203.63
376.95	311.29
377.15	304.27
377.35	301.93
377.54	255.12
377.74	215.33
377.93	271.50
378.13	308.95
378.33	294.91
378.52	250.44
378.72	252.78
378.91	348.74
379.11	241.08
379.31	255.12
379.50	184.90
379.70	285.55
379.89	369.80
380.09	276.18
380.28	264.48
380.48	262.14
380.68	301.93
380.87	306.61
381.07	222.35
381.26	341.72
381.46	409.59
381.65	327.68
381.85	360.44
382.04	290.23
382.24	325.33
382.43	341.72
382.63	290.23
382.83	360.44
383.02	313.63
383.22	315.97
383.41	374.49
383.61	344.06
383.80	365.12
384.00	322.99
384.19	379.17
384.39	304.27
384.58	344.06
384.78	330.02
384.97	388.53
385.17	341.72
385.36	325.33
385.56	362.78
385.75	454.06
385.95	355.76
386.14	461.09
386.34	411.93
386.53	390.87
386.72	388.53
386.92	421.30
387.11	367.46
387.31	400.23
387.50	451.72
387.70	430.66
387.89	454.06
388.09	388.53
388.28	369.80
388.48	400.23
388.67	599.18
388.86	456.40
389.06	449.38
389.25	477.47
389.45	477.47
389.64	519.60
389.84	456.40
390.03	526.62
390.22	454.06
390.42	442.36
390.61	477.47
390.81	503.22
391.00	416.62
391.19	514.92
391.39	440.02
391.58	550.03
391.78	475.13
391.97	507.90
392.16	561.73
392.36	477.47
392.55	615.56
392.75	566.41
392.94	550.03
393.13	543.00
393.33	545.34
393.52	543.00
393.71	615.56
393.91	603.86
394.10	514.92
394.29	531.30
394.49	521.94
394.68	594.50
394.88	568.75
395.07	585.13
395.26	627.26
395.46	606.20
395.65	524.28
395.84	681.10
396.04	678.76
396.23	641.31
396.42	636.63
396.62	608.54
396.81	617.90
397.00	683.44
397.19	692.80
397.39	690.46
397.58	638.97
397.77	650.67
397.97	725.57
398.16	676.41
398.35	685.78
398.55	648.33
398.74	620.24
398.93	835.57
399.12	758.33
399.32	706.84
399.51	702.16
399.70	734.93
399.90	730.25
400.09	772.38
400.28	709.18
400.47	720.88
400.67	809.83
400.86	741.95
401.05	833.23
401.24	760.67
401.44	821.53
401.63	802.80
401.82	763.01
402.01	809.83
402.21	840.25
402.40	901.11
402.59	877.70
402.78	758.33
402.97	826.21
403.17	809.83
403.36	779.40
403.55	854.30
403.74	901.11
403.93	877.70
404.13	905.79
404.32	812.17
404.51	896.43
404.70	866.00
404.89	777.06
405.09	924.51
405.28	891.74
405.47	887.06
405.66	983.02
405.85	1011.11
406.05	1004.09
406.24	1015.79
406.43	971.32
406.62	1062.60
406.81	1036.86
407.00	950.26
407.20	1027.50
407.39	1006.43
407.58	1078.99
407.77	1034.52
407.96	1078.99
408.15	985.37
408.34	1121.12
408.54	1135.16
408.73	1076.65
408.92	1069.62
409.11	1071.97
409.30	1111.75
409.49	1116.44
409.68	1083.67
409.87	1196.01
410.07	1165.59
410.26	1196.01
410.45	1156.22
410.64	1144.52
410.83	1165.59
411.02	1235.80
411.21	1196.01
411.40	1188.99
411.59	1324.74
411.78	1392.62
411.98	1233.46
412.17	1270.91
412.36	1329.42
412.55	1259.21
412.74	1418.36
412.93	1315.38
413.12	1331.76
413.31	1406.66
413.50	1441.77
413.69	1406.66
413.88	1373.89
414.07	1341.13
414.26	1516.67
414.45	1390.28
414.64	1432.41
414.83	1476.88
415.02	1528.37
415.22	1582.20
415.41	1554.12
415.60	1497.94
415.79	1535.39
415.98	1455.81
416.17	1575.18
416.36	1607.95
416.55	1647.74
416.74	1589.22
416.93	1526.03
417.12	1783.49
417.31	1645.40
417.50	1746.04
417.69	1720.29
417.88	1720.29
418.07	1664.12
418.26	1671.14
418.45	1870.09
418.64	1816.26
418.83	1755.40
419.02	1799.87
419.21	1842.00
419.39	1916.90
419.58	1851.36
419.77	1694.55
419.96	1849.02
420.15	1851.36
420.34	1879.45
420.53	1902.86
420.72	1930.94
420.91	1898.17
421.10	1825.62
421.29	1980.09
421.48	1839.66
421.67	1858.39
421.86	1900.52
422.05	1877.11
422.24	1921.58
422.43	1900.52
422.61	1949.67
422.80	1923.92
422.99	2003.50
423.18	2050.31
423.37	2026.90
423.56	1970.73
423.75	1933.28
423.94	1966.05
424.13	1952.01
424.32	1912.22
424.50	2047.97
424.69	2111.16
424.88	2062.01
425.07	1961.37
425.26	2122.87
425.45	2036.27
425.64	1959.03
425.83	2036.27
426.01	2045.63
426.20	2101.80
426.39	2122.87
426.58	2036.27
426.77	2092.44
426.96	2083.08
427.15	2059.67
427.33	2097.12
427.52	2162.66
427.71	2197.76
427.90	2017.54
428.09	2127.55
428.28	2153.29
428.46	2174.36
428.65	2169.68
428.84	2270.32
429.03	2129.89
429.22	2218.83
429.40	2207.13
429.59	2331.17
429.78	2207.13
429.97	2106.48
430.16	2221.17
430.34	2225.85
430.53	2422.45
430.72	2335.85
430.91	2310.11
431.10	2328.83
431.28	2319.47
431.47	2406.07
431.66	2455.22
431.85	2413.09
432.03	2450.54
432.22	2389.69
432.41	2363.94
432.60	2366.28
432.79	2441.18
432.97	2399.05
433.16	2450.54
433.35	2410.75
433.54	2560.55
433.72	2441.18
433.91	2483.31
434.10	2464.58
434.28	2530.12
434.47	2434.16
434.66	2427.14
434.85	2534.80
435.03	2555.86
435.22	2492.67
435.41	2787.58
435.59	2572.25
435.78	2658.85
435.97	2590.97
436.16	2527.78
436.34	2602.68
436.53	2705.66
436.72	2689.28
436.90	2595.65
437.09	2686.94
437.28	2623.74
437.46	2754.81
437.65	2710.34
437.84	2654.17
438.02	2675.23
438.21	2668.21
438.40	2815.66
438.58	2937.37
438.77	2862.48
438.96	2815.66
439.14	2932.69
439.33	2942.05
439.52	2834.39
439.70	2885.88
439.89	2951.42
440.08	2981.84
440.26	2967.80
440.45	3000.57
440.63	2979.50
440.82	3108.23
441.01	2937.37
441.19	3162.06
441.38	3274.41
441.57	3286.11
441.75	3180.79
441.94	3180.79
442.12	3197.17
442.31	3349.31
442.50	3318.88
442.68	3197.17
442.87	3346.97
443.05	3267.39
443.24	3393.78
443.43	3513.14
443.61	3300.16
443.80	3442.93
443.98	3232.28
444.17	3293.13
444.35	3377.39
444.54	3335.26
444.73	3466.33
444.91	3414.84
445.10	3520.17
445.28	3372.71
445.47	3283.77
445.65	3262.71
445.84	3438.25
446.02	3576.34
446.21	3513.14
446.39	3375.05
446.58	3461.65
446.77	3499.10
446.95	3524.85
447.14	3534.21
447.32	3534.21
447.51	3412.50
447.69	3403.14
447.88	3503.78
448.06	3459.31
448.25	3510.80
448.43	3552.93
448.62	3421.86
448.80	3459.31
448.99	3576.34
449.17	3646.55
449.36	3634.85
449.54	3733.15
449.73	3618.47
449.91	3742.52
450.10	3667.62
450.28	3616.13
450.46	3716.77
450.65	3684.00
450.83	3672.30
451.02	3714.43
451.20	3878.27
451.39	3637.19
451.57	3660.60
451.76	3688.68
451.94	3789.33
452.13	3819.75
452.31	3728.47
452.49	3803.37
452.68	3843.16
452.86	3833.80
453.05	3943.80
453.23	3871.25
453.42	3786.99
453.60	3819.75
453.78	3995.29
453.97	3868.91
454.15	3992.95
454.34	3936.78
454.52	4004.66
454.70	3999.98
454.89	4007.00
455.07	3929.76
455.26	3983.59
455.44	4079.55
455.62	4109.98
455.81	4117.00
455.99	4154.45
456.17	4014.02
456.36	4217.65
456.54	4152.11
456.73	4203.60
456.91	4341.69
457.09	4184.88
457.28	4248.07
457.46	4208.28
457.64	4337.01
457.83	4329.99
458.01	4222.33
458.19	4355.74
458.38	4205.94
458.56	4430.63
458.74	4393.19
458.93	4283.18
459.11	4386.16
459.29	4290.20
459.48	4535.96
459.66	4550.00
459.84	4510.21
460.03	4631.92
460.21	4538.30
460.39	4552.34
460.57	4386.16
460.76	4540.64
460.94	4779.37
461.12	4542.98
461.31	4667.03
461.49	4533.62
461.67	4484.47
461.85	4737.24
462.04	4559.36
462.22	4744.27
462.40	4767.67
462.59	4683.41
462.77	4788.74
462.95	4765.33
463.13	4730.22
463.32	4816.82
463.50	4828.53
463.68	4842.57
463.86	4587.45
464.05	4767.67
464.23	4807.46
464.41	4798.10
464.59	4676.39
464.78	4943.21
464.96	4896.40
465.14	4807.46
465.32	4856.61
465.50	4968.96
465.69	5172.58
465.87	4842.57
466.05	4873.00
466.23	4910.44
466.41	5027.47
466.60	5074.28
466.78	5076.62
466.96	5011.09
467.14	5107.05
467.32	5153.86
467.51	5186.63
467.69	5055.56
467.87	5146.84
468.05	5142.16
468.23	5100.03
468.41	5125.77
468.60	5380.89
468.78	5296.63
468.96	5067.26
469.14	5076.62
469.32	5371.53
469.50	5301.31
469.69	5284.93
469.87	5317.70
470.05	5401.96
470.23	5390.25
470.41	5331.74
470.59	5465.15
470.77	5317.70
470.95	5266.21
471.14	5610.26
471.32	5481.53
471.50	5472.17
471.68	5589.20
471.86	5607.92
472.04	5694.52
472.22	5851.34
472.40	5603.24
472.58	5680.48
472.77	5678.14
472.95	5966.03
473.13	6092.41
473.31	5856.02
473.49	5776.44
473.67	5748.36
473.85	5764.74
474.03	6097.10
474.21	5891.13
474.39	6017.52
474.57	5998.79
474.75	6022.20
474.93	6141.57
475.12	6071.35
475.30	6141.57
475.48	6113.48
475.66	6183.70
475.84	6242.21
476.02	6108.80
476.20	6307.74
476.38	6616.69
476.56	6469.24
476.74	6448.18
476.92	6471.58
477.10	6504.35
477.28	6630.74
477.46	6572.22
477.64	6525.41
477.82	6612.01
478.00	6888.20
478.18	6836.70
478.36	7063.74
478.54	6972.46
478.72	7080.12
478.90	7014.59
479.08	7227.57
479.26	7316.51
479.44	7218.21
479.62	7215.87
479.80	7283.75
479.98	7382.05
480.16	7356.30
480.34	7499.08
480.52	7740.15
480.70	7588.02
480.88	7473.33
481.06	7562.27
481.24	7683.98
481.41	7854.84
481.59	7709.72
481.77	7847.82
481.95	8161.45
482.13	7985.91
482.31	7985.91
482.49	8109.96
482.67	8341.67
482.85	8362.73
483.03	8315.92
483.21	8676.37
483.39	8479.76
483.57	8416.57
483.74	8678.71
483.92	8765.31
484.10	8706.79
484.28	8784.03
484.46	9055.53
484.64	9046.17
484.82	8945.53
485.00	9144.47
485.18	9287.25
485.35	9621.94
485.53	9301.29
485.71	9198.31
485.89	9673.43
486.07	9338.74
486.25	9514.28
486.43	9481.51
486.61	9708.54
486.78	9837.27
486.96	10005.79
487.14	10087.71
487.32	9781.10
487.50	10083.03
487.68	10284.31
487.85	10293.68
488.03	10338.15
488.21	10377.94
488.39	10499.64
488.57	10820.30
488.75	10492.62
488.92	10471.56
489.10	10775.83
489.28	10750.08
489.46	10787.53
489.64	10981.79
489.81	11405.43
489.99	11232.23
490.17	11220.53
490.35	11463.94
490.53	11477.99
490.70	11468.62
490.88	11403.09
491.06	11791.62
491.24	11580.97
491.41	11796.30
491.59	11859.49
491.77	11847.79
491.95	12138.02
492.13	12208.23
492.30	12283.13
492.48	12107.59
492.66	12205.89
492.84	12374.41
493.01	12301.86
493.19	12678.68
493.37	12489.10
493.54	12685.70
493.72	12723.15
493.90	12676.34
494.08	13018.06
494.25	12978.27
494.43	13102.32
494.61	13231.05
494.79	13275.52
494.96	13027.42
495.14	13095.30
495.32	13331.69
495.49	13249.77
495.67	13458.08
495.85	13547.02
496.02	13736.60
496.20	13755.33
496.38	13706.18
496.55	13769.37
496.73	14087.68
496.91	13928.53
497.09	14195.35
497.26	14368.55
497.44	14026.83
497.62	14436.42
497.79	14459.83
497.97	14441.11
498.14	14883.47
498.32	14743.03
498.50	14736.01
498.67	14820.27
498.85	14551.11
499.03	14939.64
499.20	14970.07
499.38	14941.98
499.56	15171.35
499.73	14941.98
499.91	15246.25
500.08	15417.11
500.26	15468.60
500.44	15147.95
500.61	15400.72
500.79	15159.65
500.97	15606.69
501.14	15730.74
501.32	15988.20
501.49	15721.38
501.67	15557.54
501.84	15789.25
502.02	15955.43
502.20	15943.73
502.37	16198.85
502.55	16191.83
502.72	15976.50
502.90	16334.60
503.07	16210.55
503.25	16201.19
503.43	16327.58
503.60	16238.64
503.78	16489.07
503.95	16669.30
504.13	16652.91
504.30	16449.28
504.48	16589.72
504.65	16528.86
504.83	16720.79
505.01	16905.69
505.18	16837.81
505.36	16901.01
505.53	16844.84
505.71	16940.80
505.88	17034.42
506.06	16996.97
506.23	17224.00
506.41	17177.19
506.58	17128.04
506.76	17238.05
506.93	17298.90
507.11	17280.18
507.28	17334.01
507.46	17539.97
507.63	17593.81
507.81	18022.12
507.98	17661.68
508.16	17771.69
508.33	17598.49
508.50	17914.46
508.68	17729.56
508.85	17951.91
509.03	17844.24
509.20	18022.12
509.38	18111.07
509.55	18073.62
509.73	17989.36
509.90	18377.89
510.08	18078.30
510.25	17989.36
510.42	18361.50
510.60	18401.29
510.77	18405.97
510.95	18569.81
511.12	18305.33
511.30	18462.15
511.47	18843.65
511.64	18714.92
511.82	19012.17
511.99	18682.16
512.17	18972.38
512.34	18883.44
512.51	19075.37
512.69	18963.02
512.86	19028.56
513.04	19089.41
513.21	19365.59
513.38	19330.48
513.56	19096.43
513.73	19197.07
513.90	19323.46
514.08	19297.72
514.25	19164.31
514.43	19704.97
514.60	19506.02
514.77	19716.67
514.95	19653.48
515.12	19857.10
515.29	19449.85
515.47	19878.17
515.64	19924.98
515.81	19637.09
515.99	20140.31
516.16	20154.35
516.33	20264.36
516.51	19946.05
516.68	19859.45
516.85	19864.13
517.03	20126.27
517.20	20524.16
517.37	20418.83
517.54	20470.33
517.72	20807.36
517.89	20357.98
518.06	20355.64
518.24	20304.15
518.41	20561.61
518.58	20521.82
518.75	20688.00
518.93	20798.00
519.10	20727.78
519.27	20610.76
519.45	20905.66
519.62	20739.49
519.79	20634.16
519.96	20645.87
520.14	20556.93
520.31	21027.37
520.48	21149.08
520.65	20819.07
520.83	21235.68
521.00	21298.88
521.17	21200.57
521.34	21221.64
521.52	21191.21
521.69	21427.60
521.86	21511.86
522.03	21734.21
522.20	21598.46
522.38	21546.97
522.55	21633.57
522.72	21947.20
522.89	21909.75
523.07	21766.98
523.24	21759.96
523.41	21825.50
523.58	21469.73
523.75	21813.79
523.92	21975.29
524.10	22167.21
524.27	21944.86
524.44	22207.00
524.61	22387.22
524.78	22214.02
524.96	22225.73
525.13	22150.83
525.30	22022.10
525.47	22279.56
525.64	22319.35
525.81	22352.12
525.98	22972.36
526.16	22824.90
526.33	22635.32
526.50	22628.30
526.67	22455.10
526.84	22796.82
527.01	22747.67
527.18	22857.67
527.36	22867.03
527.53	22789.80
527.70	23166.62
527.87	23030.87
528.04	23089.38
528.21	22993.42
528.38	22862.35
528.55	22970.02
528.72	23035.55
528.89	22965.34
529.07	23042.57
529.24	23335.14
529.41	23061.30
529.58	23185.35
529.75	23304.71
529.92	23190.03
530.09	23623.03
530.26	23435.78
530.43	23491.96
530.60	23608.98
530.77	23501.32
530.94	23470.89
531.11	23510.68
531.28	23550.47
531.46	23613.66
531.63	23655.79
531.80	23906.23
531.97	24107.52
532.14	24121.56
532.31	23920.28
532.48	23939.00
532.65	24189.44
532.82	23924.96
532.99	23798.57
533.16	23843.04
533.33	24102.84
533.50	24219.86
533.67	24044.32
533.84	23908.57
534.01	23953.04
534.18	24154.33
534.35	24233.91
534.52	24414.13
534.69	24173.05
534.86	24767.55
535.03	24458.60
535.20	24542.86
535.37	24528.81
535.54	24566.26
535.71	24510.09
535.88	24610.73
536.05	24404.77
536.22	24507.75
536.38	24615.41
536.55	24950.11
536.72	25076.50
536.89	24800.32
537.06	24893.94
537.23	25139.69
537.40	24802.66
537.57	24753.51
537.74	25092.88
537.91	25378.43
538.08	25209.91
538.25	24912.66
538.42	25242.68
538.59	25245.02
538.75	24706.70
538.92	25261.40
539.09	24910.32
539.26	25020.33
539.43	25420.56
539.60	25113.95
539.77	25249.70
539.94	25558.65
540.11	25373.75
540.28	25500.14
540.44	25348.00
540.61	25535.24
540.78	25549.29
540.95	25039.05
541.12	25668.66
541.29	25289.49
541.46	25642.91
541.62	25713.13
541.79	25385.45
541.96	25151.40
542.13	25788.02
542.30	25610.14
542.47	25659.29
542.63	25766.96
542.80	26136.76
542.97	26321.66
543.14	26087.61
543.31	25996.33
543.48	26099.31
543.64	26136.76
543.81	26045.48
543.98	26195.28
544.15	26347.41
544.32	26586.15
544.48	26579.12
544.65	26403.58
544.82	26111.02
544.99	26183.57
545.16	26431.67
545.32	26265.49
545.49	26527.63
545.66	26639.98
545.83	26794.45
546.00	26778.07
546.16	26258.47
546.33	26518.27
546.50	26223.36
546.67	26672.74
546.83	26324.01
547.00	26576.78
547.17	26878.71
547.34	26731.26
547.50	26977.01
547.67	27080.00
547.84	26895.10
548.00	26621.25
548.17	26815.52
548.34	27143.19
548.51	27213.41
548.67	27023.83
548.84	27075.32
549.01	27297.67
549.18	27030.85
549.34	27065.96
549.51	26920.84
549.68	26998.08
549.84	27014.46
550.01	27084.68
550.18	27175.96
550.34	26979.36
550.51	27077.66
550.68	27330.44
550.84	27175.96
551.01	27365.54
551.18	27395.97
551.34	27117.45
551.51	27126.81
551.68	27033.19
551.84	27447.46
552.01	27442.78
552.18	27424.06
552.34	27545.76
552.51	27913.23
552.68	27487.25
552.84	27557.47
553.01	27676.83
553.18	27538.74
553.34	27318.73
553.51	27894.50
553.67	27892.16
553.84	27885.14
554.01	28002.17
554.17	27587.89
554.34	27971.74
554.51	28266.65
554.67	27864.08
554.84	28149.62
555.00	27929.61
555.17	27941.32
555.33	27913.23
555.50	27632.36
555.67	27690.88
555.83	27892.16
556.00	28006.85
556.16	28400.06
556.33	27974.08
556.50	28065.36
556.66	28357.93
556.83	28072.39
556.99	28409.42
557.16	28453.89
557.32	28215.16
557.49	28517.09
557.65	27725.99
557.82	28095.79
557.98	28215.16
558.15	28030.26
558.32	28744.12
558.48	28325.16
558.65	28421.13
558.81	28318.14
558.98	28453.89
559.14	28704.33
559.31	28088.77
559.47	28191.75
559.64	28325.16
559.80	28793.27
559.97	28624.75
560.13	28364.95
560.30	28477.30
560.46	28521.77
560.63	28610.71
560.79	28856.46
560.96	28514.75
561.12	28505.38
561.29	28456.23
561.45	28474.96
561.61	28678.58
561.78	28622.41
561.94	28680.92
562.11	28938.38
562.27	28320.48
562.44	28205.80
562.60	28748.80
562.77	28620.07
562.93	28393.04
563.10	28945.41
563.26	28753.48
563.42	28804.97
563.59	28685.61
563.75	28643.48
563.92	29046.05
564.08	28582.62
564.24	28561.56
564.41	28823.70
564.57	28498.36
564.74	28978.17
564.90	28819.02
565.07	29123.29
565.23	28961.79
565.39	28835.40
565.56	28947.75
565.72	28519.43
565.88	28982.85
566.05	28573.26
566.21	28627.09
566.38	28505.38
566.54	29085.84
566.70	29032.00
566.87	28964.13
567.03	29329.25
567.19	29130.31
567.36	29078.82
567.52	29233.29
567.68	29006.26
567.85	28753.48
568.01	29104.56
568.17	28891.57
568.34	29163.08
568.50	28992.22
568.66	29364.36
568.83	29146.69
568.99	29326.91
569.15	28807.31
569.32	28980.51
569.48	28978.17
569.64	29102.22
569.81	29118.60
569.97	29156.05
570.13	29123.29
570.30	29322.23
570.46	29219.25
570.62	28973.49
570.78	28992.22
570.95	28800.29
571.11	29230.95
571.27	29062.43
571.43	29032.00
571.60	29090.52
571.76	29223.93
571.92	29310.53
572.09	29504.79
572.25	29408.83
572.41	29710.76
572.57	29277.76
572.74	29521.18
572.90	28912.64
573.06	29158.39
573.22	29392.45
573.38	29308.19
573.55	29181.80
573.71	29720.12
573.87	29465.00
574.03	29113.92
574.20	29273.08
574.36	29001.58
574.52	29198.18
574.68	29596.07
574.84	29476.71
575.01	29528.20
575.17	29261.38
575.33	29287.12
575.49	29366.70
575.65	29553.94
575.82	29673.31
575.98	29001.58
576.14	29427.56
576.30	29160.73
576.46	29291.80
576.62	29343.30
576.79	29237.97
576.95	29422.87
577.11	29483.73
577.27	29511.81
577.43	29692.04
577.59	29383.09
577.75	29495.43
577.92	29188.82
578.08	29303.51
578.24	29617.14
578.40	29612.46
578.56	29715.44
578.72	29778.64
578.88	29455.64
579.04	29694.38
579.21	29401.81
579.37	29502.45
579.53	29598.41
579.69	29364.36
579.85	29956.52
580.01	29415.85
580.17	29280.10
580.33	29694.38
580.49	29457.98
580.65	29802.04
580.82	29677.99
580.98	29996.31
581.14	29542.24
581.30	29556.28
581.46	29509.47
581.62	29532.88
581.78	29436.92
581.94	29685.01
582.10	29582.03
582.26	29582.03
582.42	29713.10
582.58	29591.39
582.74	29607.78
582.90	29560.97
583.06	30061.84
583.22	29418.19
583.38	29326.91
583.54	29879.28
583.70	29338.62
583.86	29420.53
584.02	29560.97
584.18	29841.83
584.34	29642.88
584.50	29638.20
584.66	29479.05
584.82	29275.42
584.98	29862.90
585.14	29329.25
585.30	29612.46
585.46	29724.80
585.62	29364.36
585.78	29677.99
585.94	29661.61
586.10	29867.58
586.26	29823.11
586.42	29853.53
586.58	29998.65
586.74	29806.72
586.90	29450.96
587.06	29589.05
587.22	29790.34
587.38	29544.58
587.54	29972.90
587.70	29834.81
587.86	29689.70
588.02	29670.97
588.18	29935.45
588.34	29993.97
588.49	29820.77
588.65	29455.64
588.81	29724.80
588.97	29886.30
589.13	29717.78
589.29	29799.70
589.45	29823.11
589.61	30073.54
589.77	30174.19
589.93	29935.45
590.08	30457.39
590.24	30096.95
590.40	30281.85
590.56	29958.86
590.72	30071.20
590.88	29619.48
591.04	29965.88
591.20	30293.55
591.35	30600.16
591.51	30499.52
591.67	30352.07
591.83	30565.06
591.99	30401.22
592.15	29944.81
592.31	30106.31
592.46	29876.94
592.62	30169.51
592.78	29624.16
592.94	29647.57
593.10	29890.98
593.26	30017.37
593.41	30333.34
593.57	29921.41
593.73	30288.87
593.89	30050.14
594.05	30239.72
594.20	29610.12
594.36	29848.85
594.52	30094.61
594.68	29642.88
594.84	29951.84
594.99	30424.62
595.15	29701.40
595.31	30546.33
595.47	30134.40
595.62	30305.26
595.78	30242.06
595.94	30059.50
596.10	30022.05
596.25	30094.61
596.41	29940.13
596.57	29975.24
596.73	29970.56
596.88	30230.36
597.04	30445.69
597.20	30225.68
597.36	30134.40
597.51	30689.10
597.67	30260.79
597.83	30244.40
597.99	30307.60
598.14	29984.60
598.30	30019.71
598.46	29883.96
598.61	30450.37
598.77	30260.79
598.93	30375.47
599.09	30110.99
599.24	30621.23
599.40	30433.99
599.56	30352.07
599.71	30202.27
599.87	30113.33
600.03	30059.50
600.18	30221.00
600.34	30003.33
600.50	29895.66
600.65	29804.38
600.81	30211.64
600.97	30593.14
601.12	30565.06
601.28	30221.00
601.44	30387.18
601.59	30120.35
601.75	30073.54
601.91	30366.11
602.06	30136.74
602.22	30366.11
602.37	30228.02
602.53	30237.38
602.69	30314.62
602.84	30225.68
603.00	30136.74
603.16	29977.58
603.31	30403.56
603.47	30242.06
603.62	30279.51
603.78	30082.91
603.94	29909.71
604.09	30380.15
604.25	30260.79
604.40	30244.40
604.56	30113.33
604.71	30513.56
604.87	30298.23
605.03	30291.21
605.18	30195.25
605.34	30057.16
605.49	29963.54
605.65	29858.21
605.80	29680.33
605.96	30256.11
606.12	29876.94
606.27	30125.04
606.43	30256.11
606.58	30373.13
606.74	30251.42
606.89	30309.94
607.05	30188.23
607.20	30185.89
607.36	30221.00
607.51	30244.40
607.67	30118.01
607.82	30033.75
607.98	30012.69
608.13	29855.87
608.29	29839.49
608.44	30228.02
608.60	30263.13
608.75	30260.79
608.91	29750.55
609.06	29776.30
609.22	30190.57
609.37	29383.09
609.53	29677.99
609.68	30017.37
609.84	29902.68
609.99	30026.73
610.15	29816.08
610.30	29874.60
610.46	30125.04
610.61	30047.80
610.76	29965.88
610.92	29759.91
611.07	29780.98
611.23	29539.90
611.38	29493.09
611.54	29603.10
611.69	29584.37
611.84	29633.52
612.00	29696.72
612.15	29677.99
612.31	29612.46
612.46	29841.83
612.62	29759.91
612.77	29895.66
612.92	29961.20
613.08	29352.66
613.23	30010.35
613.39	29731.83
613.54	29762.25
613.69	29656.93
613.85	29893.32
614.00	29745.87
614.15	29846.51
614.31	29546.92
614.46	29752.89
614.62	29362.02
614.77	29537.56
614.92	29537.56
615.08	29329.25
615.23	29668.63
615.38	29324.57
615.54	29312.87
615.69	29748.21
615.84	29366.70
616.00	29570.33
616.15	29448.62
616.30	29607.78
616.46	29357.34
616.61	29591.39
616.76	29799.70
616.92	29731.83
617.07	29575.01
617.22	29333.93
617.37	29207.55
617.53	29677.99
617.68	29256.70
617.83	28924.34
617.99	29247.33
618.14	29195.84
618.29	29399.47
618.45	29202.86
618.60	29436.92
618.75	29104.56
618.90	29041.37
619.06	29043.71
619.21	29338.62
619.36	29434.58
619.51	28823.70
619.67	29022.64
619.82	28912.64
619.97	29081.16
620.12	28842.42
620.28	28959.45
620.43	29411.17
620.58	29046.05
620.73	29111.58
620.89	28945.41
621.04	29340.96
621.19	28917.32
621.34	29118.60
621.49	28701.99
621.65	28769.86
621.80	29050.73
621.95	28706.67
622.10	28620.07
622.25	28912.64
622.41	28673.90
622.56	28994.56
622.71	28926.68
622.86	28657.52
623.01	29076.48
623.16	28514.75
623.32	28414.10
623.47	28685.61
623.62	28615.39
623.77	28821.36
623.92	28833.06
624.07	28439.85
624.23	28591.98
624.38	29022.64
624.53	28744.12
624.68	28830.72
624.83	28690.29
624.98	28449.21
625.13	28397.72
625.29	28261.97
625.44	28514.75
625.59	28383.68
625.74	28037.28
625.89	28304.10
626.04	28311.12
626.19	28322.82
626.34	28336.87
626.49	28421.13
626.65	28128.56
626.80	28315.80
626.95	28339.21
627.10	28489.00
627.25	28306.44
627.40	28467.94
627.55	27894.50
627.70	28081.75
627.85	27969.40
628.00	28020.89
628.15	28147.28
628.30	28166.01
628.45	28048.98
628.60	27957.70
628.76	28341.55
628.91	27810.25
629.06	28240.90
629.21	27960.04
629.36	28098.13
629.51	28189.41
629.66	27838.33
629.81	27983.44
629.96	27913.23
630.11	27655.77
630.26	27805.56
630.41	27398.31
630.56	27634.71
630.71	28318.14
630.86	27658.11
631.01	27756.41
631.16	28175.37
631.31	27868.76
631.46	27627.68
631.61	28231.54
631.76	27351.50
631.91	27611.30
632.06	27733.01
632.21	27665.13
632.36	27679.18
632.51	27513.00
632.66	27693.22
632.81	27051.91
632.96	27887.48
633.10	27431.08
633.25	27667.47
633.40	27913.23
633.55	27744.71
633.70	27236.81
633.85	27456.82
634.00	27405.33
634.15	27541.08
634.30	27381.93
634.45	27047.23
634.60	27206.39
634.75	27587.89
634.90	27452.14
635.05	27777.48
635.19	27285.97
635.34	27765.78
635.49	27379.59
635.64	27510.66
635.79	27477.89
635.94	27627.68
636.09	27421.72
636.24	27328.10
636.39	27199.37
636.53	26986.38
636.68	26939.57
636.83	27082.34
636.98	27222.77
637.13	27309.37
637.28	27051.91
637.43	27377.25
637.57	27419.38
637.72	27229.79
637.87	27098.72
638.02	26829.56
638.17	27152.55
638.32	26939.57
638.46	27042.55
638.61	26569.76
638.76	26726.58
638.91	26925.52
639.06	26663.38
639.20	26923.18
639.35	26845.94
639.50	27089.36
639.65	26874.03
639.80	27227.45
639.94	27000.42
640.09	26682.11
640.24	26859.99
640.39	27133.83
640.54	26932.54
640.68	26618.91
640.83	26768.71
640.98	26867.01
641.13	26529.97
641.27	26590.83
641.42	26813.18
641.57	26841.26
641.72	26822.54
641.86	26436.35
642.01	26558.06
642.16	26314.64
642.31	26338.05
642.45	26487.84
642.60	26223.36
642.75	26588.49
642.90	26068.89
643.04	26515.93
643.19	26270.17
643.34	26370.82
643.48	26363.79
643.63	26256.13
643.78	26476.14
643.93	26511.25
644.07	26448.05
644.22	26782.75
644.37	26532.31
644.51	26501.89
644.66	26324.01
644.81	26160.17
644.95	26209.32
645.10	26024.42
645.25	26150.81
645.39	26319.32
645.54	26078.25
645.69	25781.00
645.83	26272.51
645.98	26169.53
646.13	26096.97
646.27	25942.50
646.42	25851.22
646.57	26309.96
646.71	25479.07
646.86	26015.05
647.00	25766.96
647.15	25762.28
647.30	25935.48
647.44	25598.44
647.59	26141.44
647.74	25757.60
647.88	25876.96
648.03	26047.82
648.17	26136.76
648.32	26120.38
648.47	25872.28
648.61	25883.98
648.76	26134.42
648.90	26153.15
649.05	25874.62
649.20	25617.16
649.34	25556.31
649.49	25472.05
649.63	25802.07
649.78	25640.57
649.92	25563.33
650.07	25970.58
650.21	25685.04
650.36	25544.61
650.51	25715.47
650.65	25582.06
650.80	25453.33
650.94	25788.02
651.09	25472.05
651.23	25490.77
651.38	25624.18
651.52	25242.68
651.67	25762.28
651.81	25560.99
651.96	25521.20
652.10	25282.47
652.25	25305.87
652.39	25647.59
652.54	25556.31
652.68	25579.71
652.83	25713.13
652.97	25699.08
653.12	25565.67
653.26	25420.56
653.41	25722.49
653.55	24807.34
653.70	25245.02
653.84	25752.91
653.99	25132.67
654.13	25474.39
654.27	25149.06
654.42	25315.23
654.56	25137.35
654.71	25055.43
654.85	25029.69
655.00	24982.88
655.14	25254.38
655.29	25144.38
655.43	25364.39
655.57	25043.73
655.72	24924.36
655.86	24872.87
656.01	25022.67
656.15	24835.42
656.30	25050.75
656.44	24617.75
656.58	25326.94
656.73	24854.15
656.87	24793.29
657.01	24779.25
657.16	25139.69
657.30	25233.32
657.45	24903.30
657.59	24727.76
657.73	24379.02
657.88	24786.27
658.02	24856.49
658.16	24767.55
658.31	25219.27
658.45	24592.01
658.60	24601.37
658.74	24264.33
658.88	24582.65
659.03	24428.17
659.17	24924.36
659.31	24524.13
659.46	24599.03
659.60	24339.23
659.74	24847.13
659.89	24364.98
660.03	24201.14
660.17	24329.87
660.32	24343.91
660.46	24383.70
660.60	24161.35
660.74	24388.38
660.89	24278.38
661.03	24070.07
661.17	24287.74
661.32	24112.20
661.46	24514.77
661.60	24018.58
661.74	24308.80
661.89	24217.52
662.03	24135.60
662.17	24182.42
662.31	23669.84
662.46	24107.52
662.60	24135.60
662.74	24278.38
662.88	23995.17
663.03	23651.11
663.17	23763.46
663.31	23377.27
663.45	23517.70
663.60	23803.25
663.74	23346.84
663.88	23431.10
664.02	23393.65
664.17	23606.64
664.31	23524.72
664.45	23412.38
664.59	23836.02
664.73	23679.20
664.88	23225.14
665.02	23166.62
665.16	23239.18
665.30	23197.05
665.44	23370.25
665.59	23136.20
665.73	23175.98
665.87	23175.98
666.01	23077.68
666.15	23253.22
666.29	23122.15
666.44	23005.13
666.58	22752.35
666.72	22932.57
666.86	22810.86
667.00	22916.19
667.14	22888.10
667.28	23047.26
667.43	22733.62
667.57	23096.41
667.71	22794.48
667.85	22768.73
667.99	22274.88
668.13	22806.18
668.27	22424.67
668.41	22817.88
668.56	22572.13
668.70	22239.77
668.84	22377.86
668.98	22735.96
669.12	22515.95
669.26	22703.20
669.40	22551.06
669.54	22239.77
669.68	22382.54
669.82	22221.05
669.96	22003.38
670.10	22029.12
670.25	22057.21
670.39	22225.73
670.53	21649.96
670.67	22101.68
670.81	21846.56
670.95	22066.57
671.09	22078.27
671.23	22162.53
671.37	22064.23
671.51	22057.21
671.65	21991.67
671.79	22080.61
671.93	21743.58
672.07	21752.94
672.21	21624.21
672.35	21158.44
672.49	21652.30
672.63	21350.37
672.77	21359.73
672.91	21387.82
673.05	21198.23
673.19	21563.36
673.33	21188.87
673.47	21500.16
673.61	21123.33
673.75	21146.74
673.89	21078.86
674.03	21231.00
674.17	21142.06
674.31	20847.15
674.45	20893.96
674.59	20690.34
674.73	21177.17
674.87	21022.69
675.01	20554.58
675.15	20570.97
675.29	20739.49
675.43	20262.02
675.56	20542.88
675.70	20713.74
675.84	20538.20
675.98	19920.30
676.12	20840.13
676.26	20744.17
676.40	20650.55
676.54	20561.61
676.68	20290.10
676.82	19969.45
676.96	20278.40
677.10	20074.77
677.23	20196.48
677.37	19779.87
677.51	20086.48
677.65	19702.63
677.79	19824.34
677.93	19679.22
678.07	19550.49
678.21	19580.92
678.34	19386.66
678.48	19433.47
678.62	19625.39
678.76	19529.43
678.90	19412.40
679.04	19372.61
679.18	19246.23
679.31	18958.34
679.45	19007.49
679.59	18876.42
679.73	19030.90
679.87	19009.83
680.00	19143.24
680.14	18518.32
680.28	19033.24
680.42	18640.03
680.56	18916.21
680.70	18583.85
680.83	18808.54
680.97	18459.81
681.11	18635.35
681.25	18785.14
681.39	18368.52
681.52	18326.39
681.66	18478.53
681.80	18246.82
681.94	18291.29
682.07	18274.90
682.21	18139.15
682.35	18197.67
682.49	17816.16
682.62	17902.76
682.76	17825.52
682.90	17921.48
683.04	18047.87
683.17	17816.16
683.31	17825.52
683.45	17722.54
683.59	17591.47
683.72	17577.42
683.86	17500.19
684.00	17444.01
684.13	17404.22
684.27	17472.10
684.41	16980.59
684.55	16945.48
684.68	16936.12
684.82	16599.08
684.96	17247.41
685.09	16725.47
685.23	16730.15
685.37	16798.02
685.50	17135.06
685.64	16861.22
685.78	16863.56
685.91	16996.97
686.05	16554.61
686.19	16594.40
686.32	16292.47
686.46	16290.13
686.60	16180.12
686.73	16257.36
686.87	16098.20
687.01	16072.46
687.14	16102.89
687.28	16025.65
687.42	15969.48
687.55	16180.12
687.69	16135.65
687.82	15779.89
687.96	15763.51
688.10	15686.27
688.23	15756.49
688.37	15686.27
688.50	15840.75
688.64	15796.28
688.78	15587.97
688.91	15438.17
689.05	15393.70
689.18	15349.23
689.32	15171.35
689.46	15218.16
689.59	15147.95
689.73	15311.78
689.86	15145.61
690.00	15077.73
690.13	15169.01
690.27	14949.00
690.41	15274.34
690.54	14869.42
690.68	14679.84
690.81	14906.87
690.95	14998.15
691.08	14733.67
691.22	14796.87
691.35	14822.61
691.49	14703.25
691.62	14604.94
691.76	14476.21
691.89	14396.64
692.03	14256.20
692.16	13961.30
692.30	14150.88
692.43	13958.96
692.57	13942.57
692.70	13860.65
692.84	14317.06
692.97	13717.88
693.11	13783.41
693.24	13879.38
693.38	13813.84
693.51	13898.10
693.65	13734.26
693.78	13666.39
693.92	13734.26
694.05	13652.34
694.19	13483.83
694.32	13226.37
694.45	13324.67
694.59	13221.69
694.72	13322.33
694.86	13348.08
694.99	12943.16
695.13	13018.06
695.26	12975.93
695.39	12856.56
695.53	13083.59
695.66	13123.38
695.80	12882.31
695.93	12662.30
696.07	13130.41
696.20	13301.26
696.33	12561.66
696.47	12617.83
696.60	12741.88
696.73	12535.91
696.87	12243.34
697.00	12512.50
697.14	12131.00
697.27	12362.71
697.40	12252.70
697.54	12140.36
697.67	12187.17
697.80	11925.03
697.94	11969.50
698.07	11763.53
698.21	11943.75
698.34	11969.50
698.47	11976.52
698.61	11742.47
698.74	12098.23
698.87	11744.81
699.01	11761.19
699.14	11672.25
699.27	11639.48
699.40	11789.28
699.54	11721.40
699.67	11342.24
699.80	11262.66
699.94	11295.43
700.07	11332.87
700.20	11265.00
700.34	11037.97
700.47	10944.34
700.60	11274.36
700.73	11080.10
700.87	11049.67
701.00	10855.40
701.13	10944.34
701.26	10932.64
701.40	11066.05
701.53	11037.97
701.66	10677.52
701.79	10771.15
701.93	10757.10
702.06	10593.26
702.19	10537.09
702.32	10574.54
702.46	10544.11
702.59	10396.66
702.72	10296.02
702.85	10420.06
702.99	10279.63
703.12	10403.68
703.25	10139.20
703.38	10181.33
703.51	10340.49
703.65	10251.55
703.78	10193.03
703.91	9949.62
704.04	10155.58
704.17	9963.66
704.31	10068.98
704.44	9930.89
704.57	9961.32
704.70	9650.03
704.83	9638.33
704.96	9572.79
705.10	9919.19
705.23	9331.72
>>>>>End Processed Spectral Data<<<<<
