SpectraSuite Data File
++++++++++++++++++++++++++++++++++++
Date: Fri Oct 18 13:57:53 GMT-05:00 2013
User: bianchi
Dark Spectrum Present: No
Reference Spectrum Present: No
Number of Sampled Component Spectra: 1
Spectrometers: USB2+H05261
Integration Time (usec): 50000 (USB2+H05261)
Spectra Averaged: 1 (USB2+H05261)
Boxcar Smoothing: 0 (USB2+H05261)
Correct for Electrical Dark: No (USB2+H05261)
Strobe/Lamp Enabled: No (USB2+H05261)
Correct for Detector Non-linearity: No (USB2+H05261)
Correct for Stray Light: No (USB2+H05261)
Number of Pixels in Processed Spectrum: 2048
>>>>>Begin Processed Spectral Data<<<<<
365.73	0.00
365.92	0.00
366.12	0.00
366.32	0.00
366.52	0.00
366.72	0.00
366.91	0.00
367.11	0.00
367.31	0.00
367.51	0.00
367.70	0.00
367.90	0.00
368.10	0.00
368.30	0.00
368.49	0.00
368.69	0.00
368.89	0.00
369.09	0.00
369.28	0.00
369.48	0.00
369.68	0.00
369.87	0.00
370.07	0.00
370.27	0.00
370.47	11.70
370.66	74.90
370.86	86.60
371.06	147.45
371.25	126.39
371.45	95.96
371.65	110.01
371.84	124.05
372.04	166.18
372.24	156.82
372.44	142.77
372.63	259.80
372.83	175.54
373.03	189.58
373.22	147.45
373.42	110.01
373.62	152.13
373.81	227.03
374.01	273.84
374.21	217.67
374.40	351.08
374.60	238.73
374.79	283.20
374.99	269.16
375.19	273.84
375.38	290.23
375.58	248.10
375.78	245.76
375.97	227.03
376.17	318.31
376.37	241.08
376.56	269.16
376.76	344.06
376.95	250.44
377.15	276.18
377.35	245.76
377.54	271.50
377.74	278.52
377.93	273.84
378.13	238.73
378.33	222.35
378.52	334.70
378.72	337.04
378.91	306.61
379.11	208.31
379.31	320.65
379.50	283.20
379.70	304.27
379.89	266.82
380.09	327.68
380.28	327.68
380.48	262.14
380.68	262.14
380.87	252.78
381.07	290.23
381.26	365.12
381.46	337.04
381.65	341.72
381.85	266.82
382.04	351.08
382.24	344.06
382.43	229.37
382.63	334.70
382.83	311.29
383.02	388.53
383.22	367.46
383.41	334.70
383.61	390.87
383.80	360.44
384.00	351.08
384.19	362.78
384.39	402.57
384.58	383.85
384.78	320.65
384.97	484.49
385.17	386.19
385.36	383.85
385.56	390.87
385.75	325.33
385.95	393.21
386.14	456.40
386.34	299.59
386.53	372.15
386.72	409.59
386.92	346.40
387.11	365.12
387.31	458.74
387.50	437.68
387.70	414.27
387.89	395.55
388.09	397.89
388.28	386.19
388.48	514.92
388.67	479.81
388.86	491.51
389.06	416.62
389.25	440.02
389.45	447.04
389.64	393.21
389.84	465.77
390.03	510.24
390.22	578.11
390.42	491.51
390.61	528.96
390.81	479.81
391.00	482.15
391.19	472.79
391.39	498.53
391.58	489.17
391.78	535.98
391.97	500.87
392.16	505.56
392.36	568.75
392.55	573.43
392.75	538.32
392.94	594.50
393.13	535.98
393.33	500.87
393.52	592.16
393.71	519.60
393.91	514.92
394.10	608.54
394.29	578.11
394.49	585.13
394.68	601.52
394.88	606.20
395.07	688.12
395.26	629.60
395.46	550.03
395.65	606.20
395.84	671.73
396.04	713.86
396.23	683.44
396.42	540.66
396.62	624.92
396.81	664.71
397.00	706.84
397.19	709.18
397.39	744.29
397.58	737.27
397.77	688.12
397.97	650.67
398.16	695.14
398.35	702.16
398.55	697.48
398.74	622.58
398.93	793.44
399.12	615.56
399.32	741.95
399.51	758.33
399.70	774.72
399.90	676.41
400.09	718.54
400.28	779.40
400.47	781.74
400.67	814.51
400.86	725.57
401.05	805.14
401.24	770.04
401.44	812.17
401.63	741.95
401.82	812.17
402.01	842.59
402.21	763.01
402.40	873.02
402.59	814.51
402.78	835.57
402.97	819.19
403.17	926.85
403.36	826.21
403.55	826.21
403.74	943.24
403.93	866.00
404.13	940.90
404.32	870.68
404.51	957.28
404.70	976.00
404.89	908.13
405.09	1001.75
405.28	905.79
405.47	957.28
405.66	924.51
405.85	945.58
406.05	1001.75
406.24	922.17
406.43	990.05
406.62	971.32
406.81	1067.28
407.00	1004.09
407.20	950.26
407.39	943.24
407.58	990.05
407.77	1008.77
407.96	1039.20
408.15	1076.65
408.34	1050.90
408.54	1008.77
408.73	1050.90
408.92	1015.79
409.11	1102.39
409.30	1198.35
409.49	1100.05
409.68	1022.81
409.87	1128.14
410.07	1149.20
410.26	1123.46
410.45	1296.66
410.64	1181.97
410.83	1179.63
411.02	1256.87
411.21	1277.93
411.40	1198.35
411.59	1308.36
411.78	1261.55
411.98	1235.80
412.17	1336.45
412.36	1299.00
412.55	1268.57
412.74	1355.17
412.93	1231.12
413.12	1366.87
413.31	1411.34
413.50	1378.58
413.69	1404.32
413.88	1352.83
414.07	1465.18
414.26	1362.19
414.45	1401.98
414.64	1488.58
414.83	1476.88
415.02	1500.28
415.22	1462.83
415.41	1514.33
415.60	1593.90
415.79	1607.95
415.98	1561.14
416.17	1558.80
416.36	1636.03
416.55	1577.52
416.74	1652.42
416.93	1682.85
417.12	1575.18
417.31	1549.43
417.50	1689.87
417.69	1823.28
417.88	1795.19
418.07	1657.10
418.26	1741.36
418.45	1703.91
418.64	1832.64
418.83	1797.53
419.02	1884.13
419.21	1741.36
419.39	1708.59
419.58	1659.44
419.77	1774.13
419.96	1839.66
420.15	1935.62
420.34	1834.98
420.53	1816.26
420.72	1998.82
420.91	1956.69
421.10	1895.83
421.29	1994.14
421.48	1912.22
421.67	1952.01
421.86	2026.90
422.05	1961.37
422.24	1989.46
422.43	2040.95
422.61	1959.03
422.80	2019.88
422.99	1947.33
423.18	2106.48
423.37	2001.16
423.56	2062.01
423.75	2122.87
423.94	1989.46
424.13	1888.81
424.32	1975.41
424.50	2129.89
424.69	2022.22
424.88	2115.84
425.07	2038.61
425.26	2097.12
425.45	2029.24
425.64	2043.29
425.83	2054.99
426.01	2045.63
426.20	2029.24
426.39	1921.58
426.58	2080.74
426.77	2090.10
426.96	2228.19
427.15	2050.31
427.33	2141.59
427.52	2162.66
427.71	2200.10
427.90	2167.34
428.09	2195.42
428.28	2181.38
428.46	2200.10
428.65	2221.17
428.84	2209.47
429.03	2172.02
429.22	2008.18
429.40	2235.21
429.59	2225.85
429.78	2195.42
429.97	2265.64
430.16	2228.19
430.34	2286.70
430.53	2436.50
430.72	2326.49
430.91	2363.94
431.10	2328.83
431.28	2312.45
431.47	2420.11
431.66	2396.71
431.85	2293.72
432.03	2457.56
432.22	2523.10
432.41	2445.86
432.60	2445.86
432.79	2338.20
432.97	2530.12
433.16	2581.61
433.35	2387.35
433.54	2499.69
433.72	2665.87
433.91	2490.33
434.10	2455.22
434.28	2523.10
434.47	2560.55
434.66	2518.42
434.85	2672.89
435.03	2518.42
435.22	2541.82
435.41	2672.89
435.59	2682.25
435.78	2647.15
435.97	2626.08
436.16	2738.43
436.34	2640.12
436.53	2656.51
436.72	2794.60
436.90	2740.77
437.09	2780.56
437.28	2637.78
437.46	2768.85
437.65	2696.30
437.84	2888.22
438.02	2850.77
438.21	2869.50
438.40	2719.70
438.58	2808.64
438.77	2902.26
438.96	2818.00
439.14	2768.85
439.33	2895.24
439.52	2813.32
439.70	3026.31
439.89	3063.76
440.08	2939.71
440.26	2967.80
440.45	3133.98
440.63	3082.49
440.82	3126.96
441.01	3052.06
441.19	3103.55
441.38	3155.04
441.57	3103.55
441.75	3192.49
441.94	3272.07
442.12	3206.53
442.31	3361.01
442.50	3321.22
442.68	3328.24
442.87	3255.69
443.05	3309.52
443.24	3361.01
443.43	3339.94
443.61	3412.50
443.80	3461.65
443.98	3524.85
444.17	3316.54
444.35	3386.76
444.54	3456.97
444.73	3461.65
444.91	3389.10
445.10	3365.69
445.28	3386.76
445.47	3424.20
445.65	3365.69
445.84	3499.10
446.02	3384.41
446.21	3578.68
446.39	3496.76
446.58	3555.27
446.77	3471.01
446.95	3398.46
447.14	3489.74
447.32	3431.23
447.51	3632.51
447.69	3463.99
447.88	3503.78
448.06	3599.74
448.25	3590.38
448.43	3468.67
448.62	3538.89
448.80	3566.98
448.99	3660.60
449.17	3786.99
449.36	3639.53
449.54	3550.59
449.73	3634.85
449.91	3712.09
450.10	3712.09
450.28	3646.55
450.46	3700.39
450.65	3829.12
450.83	3632.51
451.02	3922.74
451.20	3772.94
451.39	3777.62
451.57	3707.41
451.76	3794.01
451.94	3871.25
452.13	3871.25
452.31	3850.18
452.49	3808.05
452.68	3859.54
452.86	3826.78
453.05	3988.27
453.23	4102.96
453.42	3915.72
453.60	3861.88
453.78	3995.29
453.97	3964.87
454.15	4079.55
454.34	3868.91
454.52	3943.80
454.70	4004.66
454.89	4084.23
455.07	4039.76
455.26	4102.96
455.44	4053.81
455.62	4119.34
455.81	4177.86
455.99	4166.15
456.17	4084.23
456.36	4170.83
456.54	4107.64
456.73	4238.71
456.91	4290.20
457.09	4107.64
457.28	4442.34
457.46	4311.27
457.64	4360.42
457.83	4262.12
458.01	4435.32
458.19	4329.99
458.38	4262.12
458.56	4468.08
458.74	4421.27
458.93	4568.73
459.11	4435.32
459.29	4458.72
459.48	4512.55
459.66	4528.94
459.84	4468.08
460.03	4702.14
460.21	4575.75
460.39	4472.76
460.57	4643.62
460.76	4603.83
460.94	4634.26
461.12	4484.47
461.31	4652.98
461.49	4662.35
461.67	4683.41
461.85	4870.65
462.04	4596.81
462.22	5144.50
462.40	4774.69
462.59	4681.07
462.77	4725.54
462.95	4858.95
463.13	4983.00
463.32	4784.06
463.50	4929.17
463.68	4765.33
463.86	4865.97
464.05	4854.27
464.23	4849.59
464.41	5090.67
464.59	4983.00
464.78	5121.09
464.96	5081.30
465.14	5013.43
465.32	4945.55
465.50	4990.02
465.69	5174.92
465.87	5118.75
466.05	5008.75
466.23	4978.32
466.41	4943.21
466.60	5032.15
466.78	5022.79
466.96	4947.89
467.14	5116.41
467.32	5100.03
467.51	5184.29
467.69	5233.44
467.87	5210.03
468.05	5338.76
468.23	5048.54
468.41	5160.88
468.60	5392.59
468.78	5231.10
468.96	5390.25
469.14	5259.18
469.32	5308.34
469.50	5212.37
469.69	5322.38
469.87	5423.02
470.05	5439.40
470.23	5376.21
470.41	5385.57
470.59	5593.88
470.77	5514.30
470.95	5446.43
471.14	5612.60
471.32	5544.73
471.50	5624.31
471.68	5689.84
471.86	5654.73
472.04	5685.16
472.22	5760.06
472.40	5537.71
472.58	5764.74
472.77	5893.47
472.95	5724.95
473.13	5933.26
473.31	5987.09
473.49	5982.41
473.67	5933.26
473.85	5926.24
474.03	6045.60
474.21	6005.81
474.39	6101.78
474.57	6139.23
474.75	6099.44
474.93	6104.12
475.12	6164.97
475.30	6204.76
475.48	6157.95
475.66	6066.67
475.84	6352.21
476.02	6487.96
476.20	6340.51
476.38	6422.43
476.56	6619.04
476.74	6658.82
476.92	6654.14
477.10	6438.81
477.28	6759.47
477.46	6813.30
477.64	6651.80
477.82	6967.77
478.00	6951.39
478.18	7087.14
478.36	7124.59
478.54	7077.78
478.72	7014.59
478.90	7208.85
479.08	7302.47
479.26	7316.51
479.44	7375.03
479.62	7225.23
479.80	7428.86
479.98	7276.73
480.16	7702.70
480.34	7791.64
480.52	7681.64
480.70	7555.25
480.88	7517.80
481.06	7620.78
481.24	7833.77
481.41	7976.55
481.59	7793.98
481.77	7922.71
481.95	7981.23
482.13	8189.53
482.31	8046.76
482.49	8280.82
482.67	8060.80
482.85	8449.33
483.03	8304.22
483.21	8465.72
483.39	8519.55
483.57	8566.36
483.74	8631.90
483.92	8837.86
484.10	8622.53
484.28	8819.14
484.46	9193.62
484.64	9078.94
484.82	9050.85
485.00	9020.42
485.18	9397.25
485.35	9383.21
485.53	9401.93
485.71	9394.91
485.89	9717.90
486.07	9415.98
486.25	9650.03
486.43	9568.11
486.61	9863.02
486.78	9790.46
486.96	10050.26
487.14	10092.39
487.32	10193.03
487.50	10150.90
487.68	10094.73
487.85	10146.22
488.03	10534.75
488.21	10443.47
488.39	10576.88
488.57	10614.33
488.75	10768.80
488.92	10841.36
489.10	10977.11
489.28	11012.22
489.46	11363.30
489.64	11126.91
489.81	11311.81
489.99	11255.64
490.17	11227.55
490.35	11719.06
490.53	11531.82
490.70	11705.02
490.88	11538.84
491.06	11864.18
491.24	11705.02
491.41	11810.34
491.59	11976.52
491.77	12025.67
491.95	12163.76
492.13	12336.96
492.30	12421.22
492.48	12334.62
492.66	12290.15
492.84	12217.60
493.01	12711.45
493.19	12353.35
493.37	12805.07
493.54	12748.90
493.72	12872.95
493.90	13081.25
494.08	12985.29
494.25	13132.75
494.43	13034.44
494.61	13310.63
494.79	13404.25
494.96	13451.06
495.14	13589.15
495.32	13619.58
495.49	13509.57
495.67	13900.44
495.85	13858.31
496.02	13900.44
496.20	13970.66
496.38	14242.16
496.55	14045.55
496.73	14118.11
496.91	13956.61
497.09	14375.57
497.26	14424.72
497.44	14427.06
497.62	14616.65
497.79	14511.32
497.97	14778.14
498.14	14668.14
498.32	15044.96
498.50	14970.07
498.67	15112.84
498.85	14871.76
499.03	15105.82
499.20	15108.16
499.38	15171.35
499.56	15300.08
499.73	15545.84
499.91	15878.19
500.08	15817.34
500.26	15353.91
500.44	15445.20
500.61	15688.61
500.79	15634.78
500.97	15704.99
501.14	15990.54
501.32	15934.37
501.49	15969.48
501.67	15700.31
501.84	15871.17
502.02	15887.56
502.20	16198.85
502.37	16409.50
502.55	16336.94
502.72	16271.40
502.90	16095.86
503.07	16311.19
503.25	16374.39
503.43	16346.30
503.60	16648.23
503.78	16786.32
503.95	16730.15
504.13	16636.53
504.30	16833.13
504.48	16505.46
504.65	16868.24
504.83	16964.20
505.01	17207.62
505.18	17186.55
505.36	17121.02
505.53	17102.29
505.71	17092.93
505.88	17128.04
506.06	17216.98
506.23	17589.13
506.41	17111.66
506.58	17270.81
506.76	17542.32
506.93	17645.30
507.11	17596.15
507.28	17539.97
507.46	17275.49
507.63	17366.78
507.81	17855.95
507.98	17633.60
508.16	17942.55
508.33	17872.33
508.50	17614.87
508.68	18078.30
508.85	18207.03
509.03	18239.79
509.20	18471.51
509.38	18417.68
509.55	18483.21
509.73	18427.04
509.90	18609.60
510.08	18623.64
510.25	18494.91
510.42	18761.73
510.60	18883.44
510.77	18724.29
510.95	19122.18
511.12	18860.04
511.30	18743.01
511.47	19080.05
511.64	18799.18
511.82	19054.30
511.99	18911.53
512.17	19206.44
512.34	19253.25
512.51	19283.67
512.69	19215.80
512.86	19260.27
513.04	19529.43
513.21	19176.01
513.38	19489.64
513.56	19740.08
513.73	19515.39
513.90	19405.38
514.08	19508.37
514.25	19833.70
514.43	19501.34
514.60	20067.75
514.77	20077.12
514.95	19737.74
515.12	19723.69
515.29	19721.35
515.47	19704.97
515.64	20252.66
515.81	19913.28
515.99	20271.38
516.16	20334.57
516.33	20341.60
516.51	20648.21
516.68	20346.28
516.85	20432.88
517.03	20512.46
517.20	20673.95
517.37	20318.19
517.54	20767.57
517.72	20655.23
517.89	20526.50
518.06	20573.31
518.24	20959.50
518.41	20596.71
518.58	20870.56
518.75	21008.65
518.93	20910.35
519.10	20879.92
519.27	21053.12
519.45	20905.66
519.62	21303.56
519.79	21458.03
519.96	21088.23
520.14	21371.43
520.31	21252.06
520.48	21603.14
520.65	21322.28
520.83	21446.33
521.00	21455.69
521.17	21575.06
521.34	21453.35
521.52	21846.56
521.69	21640.59
521.86	21900.39
522.03	22012.74
522.20	21975.29
522.38	22176.58
522.55	22019.76
522.72	21717.83
522.89	21970.61
523.07	22286.58
523.24	22235.09
523.41	22291.26
523.58	21940.18
523.75	22419.99
523.92	22274.88
524.10	22286.58
524.27	22373.18
524.44	22731.28
524.61	22761.71
524.78	22604.89
524.96	22684.47
525.13	22782.77
525.30	22724.26
525.47	22738.30
525.64	22651.70
525.81	22698.52
525.98	23087.04
526.16	23044.91
526.33	22937.25
526.50	23269.61
526.67	22738.30
526.84	23124.49
527.01	22930.23
527.18	23274.29
527.36	22869.37
527.53	23318.76
527.70	23452.17
527.87	23220.45
528.04	23260.24
528.21	23363.23
528.38	23496.64
528.55	23372.59
528.72	23597.28
528.89	23623.03
529.07	23831.33
529.24	23616.01
529.41	23742.39
529.58	23534.09
529.75	23658.14
529.92	23831.33
530.09	23936.66
530.26	23985.81
530.43	23800.91
530.60	23733.03
530.77	23836.02
530.94	24032.62
531.11	23632.39
531.28	23723.67
531.46	23707.29
531.63	24020.92
531.80	24189.44
531.97	24332.21
532.14	24091.13
532.31	24189.44
532.48	24407.11
532.65	24308.80
532.82	24379.02
532.99	24306.46
533.16	24002.19
533.33	24540.52
533.50	24528.81
533.67	24570.94
533.84	24278.38
534.01	24678.61
534.18	24233.91
534.35	24463.28
534.52	24706.70
534.69	24957.13
534.86	25039.05
535.03	24458.60
535.20	24723.08
535.37	24629.46
535.54	24697.33
535.71	24751.17
535.88	24807.34
536.05	24788.61
536.22	25132.67
536.38	25109.27
536.55	25205.23
536.72	25083.52
536.89	25575.03
537.06	25193.53
537.23	25123.31
537.40	25294.17
537.57	25238.00
537.74	25153.74
537.91	25254.38
538.08	25298.85
538.25	25612.48
538.42	25413.54
538.59	25706.10
538.75	25614.82
538.92	25338.64
539.09	25656.95
539.26	25507.16
539.43	25413.54
539.60	25392.47
539.77	25607.80
539.94	25872.28
540.11	25434.60
540.28	25673.34
540.44	25525.88
540.61	25530.56
540.78	25759.94
540.95	25678.02
541.12	25972.92
541.29	25577.37
541.46	26066.55
541.62	25752.91
541.79	25933.14
541.96	25699.08
542.13	26029.10
542.30	26202.30
542.47	26305.28
542.63	26312.30
542.80	26103.99
542.97	26146.12
543.14	26820.20
543.31	26256.13
543.48	26476.14
543.64	26331.03
543.81	26637.64
543.98	26775.73
544.15	26658.70
544.32	27091.70
544.48	26359.11
544.65	26508.91
544.82	26773.39
544.99	26672.74
545.16	26567.42
545.32	26361.45
545.49	26960.63
545.66	26904.46
545.83	27278.94
546.00	27545.76
546.16	26764.03
546.33	27033.19
546.50	26581.46
546.67	27131.49
546.83	26707.85
547.00	26742.96
547.17	27035.53
547.34	27063.61
547.50	27257.88
547.67	27449.80
547.84	27337.46
548.00	27302.35
548.17	27601.94
548.34	27297.67
548.51	27400.65
548.67	27585.55
548.84	27496.61
549.01	27281.28
549.18	26993.40
549.34	27190.00
549.51	27246.18
549.68	27335.12
549.84	27405.33
550.01	27178.30
550.18	27241.50
550.34	27931.95
550.51	27468.53
550.68	27995.15
550.84	27522.36
551.01	27906.21
551.18	27618.32
551.34	27639.39
551.51	27789.18
551.68	27894.50
551.84	27819.61
552.01	27632.36
552.18	28166.01
552.34	27943.66
552.51	27786.84
552.68	27981.10
552.84	27737.69
553.01	28032.60
553.18	28123.88
553.34	28060.68
553.51	27990.47
553.67	28294.74
553.84	28496.02
554.01	28144.94
554.17	28105.15
554.34	28030.26
554.51	27864.08
554.67	28622.41
554.84	28053.66
555.00	28397.72
555.17	28458.57
555.33	28407.08
555.50	28196.43
555.67	28453.89
555.83	28304.10
556.00	28053.66
556.16	28631.77
556.33	28140.26
556.50	28418.78
556.66	28758.16
556.83	28524.11
556.99	28697.31
557.16	28547.51
557.32	28580.28
557.49	28524.11
557.65	28615.39
557.82	28645.82
557.98	28257.29
558.15	28671.56
558.32	29191.16
558.48	28893.91
558.65	28968.81
558.81	28776.89
558.98	28891.57
559.14	28893.91
559.31	28835.40
559.47	28950.09
559.64	28772.21
559.80	28662.20
559.97	29165.42
560.13	28961.79
560.30	28809.65
560.46	28816.68
560.63	28868.17
560.79	29270.74
560.96	28896.25
561.12	28751.14
561.29	29195.84
561.45	29062.43
561.61	29083.50
561.78	29020.30
561.94	29116.26
562.11	29116.26
562.27	29303.51
562.44	28931.36
562.60	29221.59
562.77	29191.16
562.93	28968.81
563.10	29420.53
563.26	29270.74
563.42	29502.45
563.59	29081.16
563.75	29371.38
563.92	29216.91
564.08	29116.26
564.24	29277.76
564.41	29184.14
564.57	29359.68
564.74	29144.35
564.90	29380.74
565.07	29230.95
565.23	29207.55
565.39	29502.45
565.56	29336.27
565.72	29457.98
565.88	29362.02
566.05	29516.50
566.21	29137.33
566.38	29436.92
566.54	29266.06
566.70	29687.36
566.87	29387.77
567.03	29116.26
567.19	29743.53
567.36	29600.76
567.52	29652.25
567.68	29308.19
567.85	29429.90
568.01	29567.99
568.17	29591.39
568.34	29553.94
568.50	29729.48
568.66	29848.85
568.83	29729.48
568.99	29479.05
569.15	29385.43
569.32	29383.09
569.48	29338.62
569.64	29895.66
569.81	29780.98
569.97	29839.49
570.13	29743.53
570.30	29560.97
570.46	29415.85
570.62	29401.81
570.78	29352.66
570.95	29488.41
571.11	29563.31
571.27	29205.20
571.43	29846.51
571.60	29603.10
571.76	29528.20
571.92	29970.56
572.09	29521.18
572.25	29923.75
572.41	29982.26
572.57	29565.65
572.74	29692.04
572.90	29589.05
573.06	29778.64
573.22	29738.85
573.38	29970.56
573.55	29722.46
573.71	30085.25
573.87	30029.07
574.03	29905.02
574.20	29713.10
574.36	29890.98
574.52	29460.32
574.68	29766.93
574.84	29652.25
575.01	30059.50
575.17	29893.32
575.33	30019.71
575.49	29567.99
575.65	29986.94
575.82	30075.88
575.98	29996.31
576.14	30148.44
576.30	29696.72
576.46	29928.43
576.62	29560.97
576.79	29743.53
576.95	29825.45
577.11	29722.46
577.27	30132.06
577.43	29958.86
577.59	29759.91
577.75	29504.79
577.92	29935.45
578.08	29680.33
578.24	29654.59
578.40	29696.72
578.56	29876.94
578.72	29998.65
578.88	29998.65
579.04	30230.36
579.21	29905.02
579.37	30045.46
579.53	30167.16
579.69	29972.90
579.85	30015.03
580.01	29752.89
580.17	29359.68
580.33	30258.45
580.49	30433.99
580.65	30110.99
580.82	30096.95
580.98	30218.66
581.14	30129.72
581.30	30141.42
581.46	30225.68
581.62	30155.46
581.78	29963.54
581.94	30047.80
582.10	29862.90
582.26	29895.66
582.42	30185.89
582.58	30192.91
582.74	29715.44
582.90	30150.78
583.06	30160.14
583.22	30000.99
583.38	30174.19
583.54	30307.60
583.70	30075.88
583.86	30359.09
584.02	29645.23
584.18	30316.96
584.34	30253.76
584.50	30204.61
584.66	30342.70
584.82	29898.00
584.98	30422.28
585.14	30068.86
585.30	29921.41
585.46	29958.86
585.62	29792.68
585.78	30094.61
585.94	29638.20
586.10	29998.65
586.26	29888.64
586.42	30534.63
586.58	30476.12
586.74	30242.06
586.90	29539.90
587.06	29706.08
587.22	30010.35
587.38	30073.54
587.54	30525.27
587.70	30614.21
587.86	30607.19
588.02	30551.01
588.18	30513.56
588.34	30321.64
588.49	30476.12
588.65	30150.78
588.81	30235.04
588.97	30274.83
589.13	30029.07
589.29	30286.53
589.45	30338.02
589.61	30466.75
589.77	30558.03
589.93	30600.16
590.08	30836.56
590.24	30815.49
590.40	30518.25
590.56	30719.53
590.72	30333.34
590.88	30366.11
591.04	30529.95
591.20	31042.53
591.35	30766.34
591.51	30981.67
591.67	30838.90
591.83	31047.21
591.99	30504.20
592.15	30293.55
592.31	30623.57
592.46	30394.20
592.62	30221.00
592.78	30211.64
592.94	30366.11
593.10	30752.30
593.26	30684.42
593.41	30618.89
593.57	30574.42
593.73	30485.48
593.89	30663.36
594.05	30635.27
594.20	30466.75
594.36	30506.54
594.52	30347.39
594.68	30223.34
594.84	30403.56
594.99	30991.03
595.15	30588.46
595.31	30604.84
595.47	30618.89
595.62	30719.53
595.78	30452.71
595.94	30567.40
596.10	30946.56
596.25	30485.48
596.41	30249.08
596.57	30457.39
596.73	30813.15
596.88	30515.90
597.04	30771.02
597.20	31115.08
597.36	30735.92
597.51	31241.47
597.67	30607.19
597.83	30436.33
597.99	30995.71
598.14	30541.65
598.30	30689.10
598.46	30363.77
598.61	30553.35
598.77	30335.68
598.93	30621.23
599.09	30747.62
599.24	31449.78
599.40	30888.05
599.56	30728.89
599.71	30810.81
599.87	30909.11
600.03	30836.56
600.18	30628.25
600.34	30644.63
600.50	30593.14
600.65	30927.84
600.81	31035.50
600.97	30946.56
601.12	30829.54
601.28	31033.16
601.44	30677.40
601.59	31112.74
601.75	30546.33
601.91	30665.70
602.06	30852.94
602.22	30885.71
602.37	30429.30
602.53	30607.19
602.69	30874.01
602.84	31012.10
603.00	30960.61
603.16	31096.36
603.31	31159.55
603.47	30946.56
603.62	30984.01
603.78	30796.77
603.94	30712.51
604.09	30637.61
604.25	30511.22
604.40	30862.30
604.56	30677.40
604.71	31161.89
604.87	30984.01
605.03	31012.10
605.18	30565.06
605.34	30764.00
605.49	30668.04
605.65	30654.00
605.80	30661.02
605.96	30188.23
606.12	30731.23
606.27	30642.29
606.43	30448.03
606.58	30806.13
606.74	30569.74
606.89	31075.29
607.05	30679.74
607.20	30981.67
607.36	30831.88
607.51	30792.09
607.67	30726.55
607.82	30417.60
607.98	30419.94
608.13	30756.98
608.29	30426.96
608.44	30572.08
608.60	30291.21
608.75	31072.95
608.91	30761.66
609.06	30785.07
609.22	31061.25
609.37	30258.45
609.53	30272.49
609.68	30710.17
609.84	30668.04
609.99	30462.07
610.15	30831.88
610.30	30029.07
610.46	30646.97
610.61	30754.64
610.76	30572.08
610.92	30398.88
611.07	30672.72
611.23	30314.62
611.38	30721.87
611.54	30160.14
611.69	30164.82
611.84	30302.92
612.00	30108.65
612.15	30352.07
612.31	30450.37
612.46	30551.01
612.62	30796.77
612.77	30501.86
612.92	30787.41
613.08	29872.26
613.23	30155.46
613.39	30225.68
613.54	30122.69
613.69	30174.19
613.85	30199.93
614.00	30401.22
614.15	30384.83
614.31	30146.10
614.46	30473.78
614.62	30216.32
614.77	30354.41
614.92	30417.60
615.08	30441.01
615.23	30508.88
615.38	30204.61
615.54	29886.30
615.69	30000.99
615.84	29806.72
616.00	30127.38
616.15	30064.18
616.30	30216.32
616.46	30075.88
616.61	29872.26
616.76	30169.51
616.92	29935.45
617.07	30075.88
617.22	29961.20
617.37	29565.65
617.53	30333.34
617.68	29701.40
617.83	29523.52
617.99	29820.77
618.14	30038.44
618.29	29743.53
618.45	29687.36
618.60	29600.76
618.75	29893.32
618.90	29757.57
619.06	30122.69
619.21	29457.98
619.36	29837.15
619.51	29685.01
619.67	29551.60
619.82	29406.49
619.97	29542.24
620.12	29523.52
620.28	29575.01
620.43	29509.47
620.58	29663.95
620.73	29685.01
620.89	29516.50
621.04	29647.57
621.19	29343.30
621.34	29668.63
621.49	29252.02
621.65	29640.54
621.80	29589.05
621.95	29352.66
622.10	29322.23
622.25	29546.92
622.41	29172.44
622.56	29757.57
622.71	29546.92
622.86	29273.08
623.01	30136.74
623.16	29450.96
623.32	29303.51
623.47	29308.19
623.62	29429.90
623.77	29237.97
623.92	29280.10
624.07	29242.65
624.23	29390.11
624.38	29345.64
624.53	29001.58
624.68	29504.79
624.83	29490.75
624.98	29511.81
625.13	29247.33
625.29	28943.06
625.44	28989.88
625.59	29252.02
625.74	28807.31
625.89	28617.73
626.04	28666.88
626.19	28999.24
626.34	28589.64
626.49	28776.89
626.65	28762.84
626.80	29228.61
626.95	29113.92
627.10	28730.08
627.25	28793.27
627.40	29036.69
627.55	28713.69
627.70	28496.02
627.85	28657.52
628.00	28886.89
628.15	28687.95
628.30	28334.53
628.45	28912.64
628.60	28348.57
628.76	28931.36
628.91	28917.32
629.06	28507.72
629.21	28566.24
629.36	28652.84
629.51	29083.50
629.66	28701.99
629.81	28409.42
629.96	28446.87
630.11	28236.22
630.26	28458.57
630.41	28306.44
630.56	28379.00
630.71	28624.75
630.86	28479.64
631.01	28685.61
631.16	28472.62
631.31	28650.50
631.46	28369.63
631.61	28528.79
631.76	28442.19
631.91	28306.44
632.06	28212.82
632.21	28226.86
632.36	28294.74
632.51	28058.34
632.66	28393.04
632.81	28119.20
632.96	28414.10
633.10	28341.55
633.25	28257.29
633.40	28198.77
633.55	28231.54
633.70	27962.38
633.85	27882.80
634.00	27878.12
634.15	27962.38
634.30	28203.46
634.45	28002.17
634.60	27812.59
634.75	27950.68
634.90	27971.74
635.05	28297.08
635.19	28191.75
635.34	28367.29
635.49	27637.05
635.64	28079.41
635.79	27599.60
635.94	28077.07
636.09	28180.05
636.24	27826.63
636.39	27845.35
636.53	27402.99
636.68	27697.90
636.83	27653.43
636.98	28130.90
637.13	27868.76
637.28	27763.43
637.43	27922.59
637.57	27529.38
637.72	27381.93
637.87	27716.62
638.02	27651.09
638.17	27398.31
638.32	27484.91
638.46	27461.51
638.61	27204.05
638.76	27218.09
638.91	27133.83
639.06	27410.01
639.20	27302.35
639.35	27564.49
639.50	27641.73
639.65	27744.71
639.80	27182.98
639.94	27271.92
640.09	27648.75
640.24	27225.11
640.39	27730.67
640.54	27047.23
640.68	27096.38
640.83	27215.75
640.98	27096.38
641.13	27264.90
641.27	26988.72
641.42	27138.51
641.57	27241.50
641.72	26960.63
641.86	26876.37
642.01	26810.84
642.16	27098.72
642.31	27459.16
642.45	27218.09
642.60	26855.31
642.75	26696.15
642.90	27402.99
643.04	26782.75
643.19	26726.58
643.34	26775.73
643.48	26867.01
643.63	27192.34
643.78	26909.14
643.93	26700.83
644.07	27129.15
644.22	26981.70
644.37	26937.23
644.51	27229.79
644.66	27157.24
644.81	26658.70
644.95	26410.60
645.10	26728.92
645.25	26735.94
645.39	26616.57
645.54	26675.09
645.69	26609.55
645.83	27014.46
645.98	26792.11
646.13	26932.54
646.27	26939.57
646.42	26548.70
646.57	26857.65
646.71	26548.70
646.86	26876.37
647.00	26466.78
647.15	26534.65
647.30	26525.29
647.44	26689.13
647.59	26665.72
647.74	26291.24
647.88	26410.60
648.03	26616.57
648.17	26628.27
648.32	26593.17
648.47	26586.15
648.61	26593.17
648.76	26663.38
648.90	26733.60
649.05	26419.97
649.20	26195.28
649.34	26405.92
649.49	26129.74
649.63	25869.94
649.78	25928.45
649.92	26150.81
650.07	26689.13
650.21	25979.95
650.36	26471.46
650.51	25982.29
650.65	26197.62
650.80	26003.35
650.94	26103.99
651.09	25893.35
651.23	26094.63
651.38	25813.77
651.52	26101.65
651.67	25986.97
651.81	26265.49
651.96	26429.33
652.10	26061.87
652.25	26309.96
652.39	26438.69
652.54	26050.16
652.68	26246.77
652.83	25951.86
652.97	26115.70
653.12	26026.76
653.26	25860.58
653.41	26340.39
653.55	26178.89
653.70	26101.65
653.84	25764.62
653.99	25633.55
654.13	25448.64
654.27	25806.75
654.42	25661.63
654.56	25673.34
654.71	25642.91
654.85	25570.35
655.00	25949.52
655.14	25598.44
655.29	25689.72
655.43	26082.93
655.57	25177.14
655.72	25495.46
655.86	25296.51
656.01	25603.12
656.15	25628.87
656.30	25788.02
656.44	25432.26
656.58	25673.34
656.73	25628.87
656.87	25509.50
657.01	25326.94
657.16	25568.01
657.30	25724.83
657.45	25621.84
657.59	25846.54
657.73	25352.68
657.88	25556.31
658.02	24992.24
658.16	25184.16
658.31	25247.36
658.45	25301.19
658.60	24587.33
658.74	25221.61
658.88	25266.08
659.03	24709.04
659.17	25149.06
659.31	25528.22
659.46	24905.64
659.60	25273.10
659.74	25373.75
659.89	24830.74
660.03	24741.80
660.17	24875.21
660.32	24800.32
660.46	24840.11
660.60	24795.64
660.74	25022.67
660.89	24716.06
661.03	24414.13
661.17	24390.72
661.32	24278.38
661.46	24814.36
661.60	24503.07
661.74	24746.48
661.89	24613.07
662.03	24842.45
662.17	24758.19
662.31	24182.42
662.46	24414.13
662.60	24678.61
662.74	24528.81
662.88	24372.00
663.03	23990.49
663.17	23878.15
663.31	23971.77
663.45	23990.49
663.60	24144.97
663.74	24060.71
663.88	23988.15
664.02	24065.39
664.17	24343.91
664.31	24180.07
664.45	24041.98
664.59	24170.71
664.73	23709.63
664.88	23845.38
665.02	23543.45
665.16	23950.70
665.30	23824.31
665.44	23955.38
665.59	23482.59
665.73	23726.01
665.87	23147.90
666.01	23749.42
666.15	23419.40
666.29	23639.41
666.44	23882.83
666.58	23449.83
666.72	23510.68
666.86	23407.70
667.00	23480.25
667.14	23239.18
667.28	23403.02
667.43	23267.27
667.57	23477.91
667.71	23332.80
667.85	23152.58
667.99	23026.19
668.13	23211.09
668.27	23185.35
668.41	23042.57
668.56	23005.13
668.70	23082.36
668.84	23033.21
668.98	23073.00
669.12	22930.23
669.26	23042.57
669.40	22885.76
669.54	23094.07
669.68	22787.46
669.82	22944.27
669.96	22794.48
670.10	22403.61
670.25	22782.77
670.39	22483.19
670.53	22588.51
670.67	22342.75
670.81	22731.28
670.95	22658.73
671.09	22780.43
671.23	22190.62
671.37	22455.10
671.51	22551.06
671.65	22520.63
671.79	22359.14
671.93	22167.21
672.07	22593.19
672.21	22242.11
672.35	21706.13
672.49	21820.81
672.63	21841.88
672.77	21930.82
672.91	21752.94
673.05	21757.62
673.19	21809.11
673.33	21994.01
673.47	21759.96
673.61	21799.75
673.75	21647.61
673.89	21640.59
674.03	21453.35
674.17	21743.58
674.31	21907.41
674.45	21804.43
674.59	21509.52
674.73	21240.36
674.87	21474.42
675.01	21263.77
675.15	21102.27
675.29	21170.15
675.43	21362.07
675.56	21111.63
675.70	21184.19
675.84	21149.08
675.98	20734.81
676.12	20868.22
676.26	21029.71
676.40	20898.64
676.54	20702.04
676.68	20798.00
676.82	20329.89
676.96	20744.17
677.10	20709.06
677.23	20390.75
677.37	20250.32
677.51	20503.09
677.65	20463.30
677.79	20308.83
677.93	20322.87
678.07	19988.18
678.21	20240.95
678.34	19906.26
678.48	19896.89
678.62	19981.15
678.76	19681.56
678.90	19735.40
679.04	19695.61
679.18	19637.09
679.31	19384.32
679.45	19658.16
679.59	19360.91
679.73	19735.40
679.87	19449.85
680.00	19262.61
680.14	19407.72
680.28	19290.70
680.42	19328.14
680.56	19307.08
680.70	19204.10
680.83	18932.59
680.97	19337.51
681.11	19112.81
681.25	18658.75
681.39	18967.70
681.52	18806.20
681.66	19091.75
681.80	18593.22
681.94	18707.90
682.07	18457.46
682.21	18551.09
682.35	18265.54
682.49	18396.61
682.62	18207.03
682.76	18022.12
682.90	18071.28
683.04	18277.24
683.17	18232.77
683.31	18181.28
683.45	18164.90
683.59	18211.71
683.72	18118.09
683.86	17970.63
684.00	17816.16
684.13	17642.96
684.27	17614.87
684.41	17493.16
684.55	17556.36
684.68	17535.29
684.82	17263.79
684.96	17399.54
685.09	17331.67
685.23	16966.54
685.37	17149.11
685.50	17118.68
685.64	17336.35
685.78	17200.60
685.91	17233.36
686.05	17284.86
686.19	17160.81
686.32	17050.80
686.46	16882.28
686.60	16814.41
686.73	16592.06
686.87	16673.98
687.01	16685.68
687.14	16559.29
687.28	16514.82
687.42	16180.12
687.55	16592.06
687.69	16500.78
687.82	16053.73
687.96	16318.22
688.10	16322.90
688.23	16126.29
688.37	16063.10
688.50	16189.49
688.64	16079.48
688.78	16203.53
688.91	15873.51
689.05	15838.41
689.18	15892.24
689.32	15522.43
689.46	15524.77
689.59	15332.85
689.73	15590.31
689.86	15726.06
690.00	15454.56
690.13	15211.14
690.27	15534.14
690.41	15400.72
690.54	15592.65
690.68	15005.17
690.81	15183.06
690.95	15145.61
691.08	15236.89
691.22	15332.85
691.35	14927.94
691.49	14984.11
691.62	14848.36
691.76	14995.81
691.89	14855.38
692.03	14487.92
692.16	14551.11
692.30	14572.18
692.43	14553.45
692.57	14501.96
692.70	14389.61
692.84	14274.93
692.97	14221.10
693.11	14429.40
693.24	14190.67
693.38	14171.94
693.51	14005.77
693.65	14354.51
693.78	13755.33
693.92	13933.21
694.05	13975.34
694.19	13734.26
694.32	13811.50
694.45	13645.32
694.59	13652.34
694.72	13444.04
694.86	13556.38
694.99	13504.89
695.13	13551.70
695.26	13366.80
695.39	13181.90
695.53	13439.36
695.66	13334.03
695.80	13039.12
695.93	13348.08
696.07	12999.34
696.20	13156.15
696.33	13050.83
696.47	13036.78
696.60	12919.76
696.73	12823.80
696.87	12929.12
697.00	12730.17
697.14	12566.34
697.27	12325.26
697.40	12641.23
697.54	12444.63
697.67	12306.54
697.80	12252.70
697.94	12231.64
698.07	12166.10
698.21	12325.26
698.34	12023.33
698.47	12308.88
698.61	12006.95
698.74	12203.55
698.87	12313.56
699.01	11880.56
699.14	11763.53
699.27	11782.26
699.40	11756.51
699.54	11770.55
699.67	11569.27
699.80	11513.10
699.94	11456.92
700.07	11618.42
700.20	11571.61
700.34	11370.32
700.47	11316.49
700.60	11330.53
700.73	11232.23
700.87	11461.60
701.00	11213.51
701.13	11267.34
701.26	11344.58
701.40	11288.40
701.53	11290.74
701.66	11147.97
701.79	11002.86
701.93	11077.76
702.06	10906.90
702.19	10932.64
702.32	10747.74
702.46	10572.20
702.59	10607.31
702.72	10565.18
702.85	10623.69
702.99	10611.99
703.12	10415.38
703.25	10382.62
703.38	10368.57
703.51	10296.02
703.65	10356.87
703.78	10293.68
703.91	10326.44
704.04	10221.12
704.17	10462.19
704.31	10225.80
704.44	10251.55
704.57	10029.20
704.70	10047.92
704.83	9724.93
704.96	9678.12
705.10	9664.07
705.23	9659.39
>>>>>End Processed Spectral Data<<<<<
