SpectraSuite Data File
++++++++++++++++++++++++++++++++++++
Date: Fri Oct 18 13:58:25 GMT-05:00 2013
User: bianchi
Dark Spectrum Present: No
Reference Spectrum Present: No
Number of Sampled Component Spectra: 1
Spectrometers: USB2+H05261
Integration Time (usec): 50000 (USB2+H05261)
Spectra Averaged: 1 (USB2+H05261)
Boxcar Smoothing: 0 (USB2+H05261)
Correct for Electrical Dark: No (USB2+H05261)
Strobe/Lamp Enabled: No (USB2+H05261)
Correct for Detector Non-linearity: No (USB2+H05261)
Correct for Stray Light: No (USB2+H05261)
Number of Pixels in Processed Spectrum: 2048
>>>>>Begin Processed Spectral Data<<<<<
365.73	0.00
365.92	0.00
366.12	0.00
366.32	0.00
366.52	0.00
366.72	0.00
366.91	0.00
367.11	0.00
367.31	0.00
367.51	0.00
367.70	0.00
367.90	0.00
368.10	0.00
368.30	0.00
368.49	0.00
368.69	0.00
368.89	0.00
369.09	0.00
369.28	0.00
369.48	0.00
369.68	0.00
369.87	0.00
370.07	0.00
370.27	0.00
370.47	0.00
370.66	93.62
370.86	135.75
371.06	180.22
371.25	147.45
371.45	154.48
371.65	142.77
371.84	128.73
372.04	112.35
372.24	117.03
372.44	191.92
372.63	154.48
372.83	222.35
373.03	194.26
373.22	215.33
373.42	236.39
373.62	191.92
373.81	205.97
374.01	236.39
374.21	308.95
374.40	243.42
374.60	234.05
374.79	184.90
374.99	252.78
375.19	299.59
375.38	283.20
375.58	248.10
375.78	243.42
375.97	191.92
376.17	264.48
376.37	229.37
376.56	231.71
376.76	227.03
376.95	182.56
377.15	255.12
377.35	245.76
377.54	311.29
377.74	173.20
377.93	241.08
378.13	259.80
378.33	264.48
378.52	280.86
378.72	290.23
378.91	227.03
379.11	351.08
379.31	332.36
379.50	215.33
379.70	337.04
379.89	294.91
380.09	332.36
380.28	297.25
380.48	278.52
380.68	318.31
380.87	255.12
381.07	344.06
381.26	346.40
381.46	278.52
381.65	241.08
381.85	271.50
382.04	276.18
382.24	327.68
382.43	250.44
382.63	280.86
382.83	365.12
383.02	400.23
383.22	390.87
383.41	297.25
383.61	308.95
383.80	313.63
384.00	339.38
384.19	367.46
384.39	388.53
384.58	369.80
384.78	339.38
384.97	437.68
385.17	407.25
385.36	482.15
385.56	388.53
385.75	360.44
385.95	367.46
386.14	318.31
386.34	388.53
386.53	447.04
386.72	404.91
386.92	472.79
387.11	407.25
387.31	365.12
387.50	421.30
387.70	486.83
387.89	395.55
388.09	339.38
388.28	414.27
388.48	454.06
388.67	465.77
388.86	442.36
389.06	365.12
389.25	442.36
389.45	430.66
389.64	423.64
389.84	447.04
390.03	477.47
390.22	402.57
390.42	521.94
390.61	510.24
390.81	507.90
391.00	475.13
391.19	531.30
391.39	444.70
391.58	531.30
391.78	585.13
391.97	533.64
392.16	559.39
392.36	608.54
392.55	571.09
392.75	592.16
392.94	507.90
393.13	594.50
393.33	557.05
393.52	575.77
393.71	554.71
393.91	573.43
394.10	521.94
394.29	533.64
394.49	585.13
394.68	568.75
394.88	599.18
395.07	603.86
395.26	617.90
395.46	697.48
395.65	692.80
395.84	557.05
396.04	720.88
396.23	653.01
396.42	622.58
396.62	624.92
396.81	678.76
397.00	641.31
397.19	575.77
397.39	662.37
397.58	629.60
397.77	655.35
397.97	610.88
398.16	669.39
398.35	746.63
398.55	695.14
398.74	678.76
398.93	770.04
399.12	741.95
399.32	641.31
399.51	741.95
399.70	678.76
399.90	788.76
400.09	730.25
400.28	765.36
400.47	751.31
400.67	748.97
400.86	755.99
401.05	802.80
401.24	739.61
401.44	802.80
401.63	805.14
401.82	889.40
402.01	737.27
402.21	875.36
402.40	840.25
402.59	793.44
402.78	828.55
402.97	816.85
403.17	915.15
403.36	779.40
403.55	798.12
403.74	968.98
403.93	915.15
404.13	994.73
404.32	833.23
404.51	1022.81
404.70	971.32
404.89	983.02
405.09	943.24
405.28	952.60
405.47	980.68
405.66	971.32
405.85	936.21
406.05	947.92
406.24	947.92
406.43	947.92
406.62	1032.18
406.81	1071.97
407.00	999.41
407.20	912.81
407.39	978.34
407.58	1055.58
407.77	1029.84
407.96	1029.84
408.15	1086.01
408.34	1025.15
408.54	966.64
408.73	1139.84
408.92	1036.86
409.11	1207.72
409.30	1104.73
409.49	1015.79
409.68	1039.20
409.87	1102.39
410.07	1135.16
410.26	1167.93
410.45	1142.18
410.64	1226.44
410.83	1158.57
411.02	1177.29
411.21	1263.89
411.40	1181.97
411.59	1188.99
411.78	1254.53
411.98	1228.78
412.17	1284.95
412.36	1320.06
412.55	1334.11
412.74	1390.28
412.93	1291.98
413.12	1313.04
413.31	1291.98
413.50	1306.02
413.69	1437.09
413.88	1390.28
414.07	1373.89
414.26	1394.96
414.45	1341.13
414.64	1458.15
414.83	1547.09
415.02	1416.02
415.22	1537.73
415.41	1551.78
415.60	1542.41
415.79	1586.88
415.98	1486.24
416.17	1610.29
416.36	1652.42
416.55	1598.59
416.74	1535.39
416.93	1605.61
417.12	1589.22
417.31	1713.27
417.50	1849.02
417.69	1736.68
417.88	1673.48
418.07	1689.87
418.26	1776.47
418.45	1732.00
418.64	1832.64
418.83	1813.92
419.02	1678.16
419.21	1839.66
419.39	1783.49
419.58	1830.30
419.77	1715.61
419.96	1874.77
420.15	1827.96
420.34	1839.66
420.53	1776.47
420.72	1930.94
420.91	1846.68
421.10	1937.96
421.29	1980.09
421.48	1827.96
421.67	1874.77
421.86	1858.39
422.05	1977.75
422.24	1926.26
422.43	1900.52
422.61	1844.34
422.80	2005.84
422.99	1973.07
423.18	2047.97
423.37	2113.50
423.56	2143.93
423.75	1919.24
423.94	2008.18
424.13	1949.67
424.32	1916.90
424.50	2008.18
424.69	2019.88
424.88	2040.95
425.07	2015.20
425.26	1956.69
425.45	1989.46
425.64	2005.84
425.83	1998.82
426.01	2078.40
426.20	2059.67
426.39	2003.50
426.58	1980.09
426.77	2008.18
426.96	2036.27
427.15	2033.93
427.33	2038.61
427.52	2066.69
427.71	2195.42
427.90	2099.46
428.09	2101.80
428.28	2172.02
428.46	2223.51
428.65	2211.81
428.84	2282.02
429.03	2202.44
429.22	2181.38
429.40	2120.53
429.59	2282.02
429.78	2059.67
429.97	2160.31
430.16	2153.29
430.34	2270.32
430.53	2312.45
430.72	2303.09
430.91	2366.28
431.10	2368.62
431.28	2380.32
431.47	2429.48
431.66	2403.73
431.85	2333.51
432.03	2389.69
432.22	2527.78
432.41	2499.69
432.60	2527.78
432.79	2450.54
432.97	2445.86
433.16	2424.80
433.35	2478.63
433.54	2424.80
433.72	2504.37
433.91	2504.37
434.10	2548.84
434.28	2483.31
434.47	2588.63
434.66	2415.43
434.85	2490.33
435.03	2485.65
435.22	2677.57
435.41	2590.97
435.59	2644.81
435.78	2686.94
435.97	2736.09
436.16	2750.13
436.34	2693.96
436.53	2663.53
436.72	2708.00
436.90	2647.15
437.09	2818.00
437.28	2703.32
437.46	2778.22
437.65	2782.90
437.84	2820.35
438.02	2738.43
438.21	2724.38
438.40	2686.94
438.58	2806.30
438.77	2918.65
438.96	2808.64
439.14	3002.91
439.33	2862.48
439.52	3056.74
439.70	2991.20
439.89	2986.52
440.08	3073.12
440.26	3136.32
440.45	3030.99
440.63	3094.19
440.82	3000.57
441.01	2953.76
441.19	3119.93
441.38	3267.39
441.57	3185.47
441.75	3222.92
441.94	3183.13
442.12	3281.43
442.31	3375.05
442.50	3297.81
442.68	3239.30
442.87	3323.56
443.05	3389.10
443.24	3445.27
443.43	3353.99
443.61	3482.72
443.80	3510.80
443.98	3447.61
444.17	3272.07
444.35	3414.84
444.54	3578.68
444.73	3396.12
444.91	3351.65
445.10	3524.85
445.28	3548.25
445.47	3435.91
445.65	3431.23
445.84	3403.14
446.02	3400.80
446.21	3302.50
446.39	3323.56
446.58	3522.51
446.77	3461.65
446.95	3463.99
447.14	3452.29
447.32	3442.93
447.51	3372.71
447.69	3454.63
447.88	3559.95
448.06	3506.12
448.25	3489.74
448.43	3569.32
448.62	3489.74
448.80	3513.14
448.99	3545.91
449.17	3740.18
449.36	3475.70
449.54	3691.02
449.73	3653.58
449.91	3585.70
450.10	3658.26
450.28	3716.77
450.46	3768.26
450.65	3824.44
450.83	3805.71
451.02	3838.48
451.20	3815.07
451.39	3632.51
451.57	3639.53
451.76	3754.22
451.94	3754.22
452.13	3941.46
452.31	3789.33
452.49	3700.39
452.68	3882.95
452.86	3824.44
453.05	3896.99
453.23	3934.44
453.42	3882.95
453.60	3901.67
453.78	3939.12
453.97	3763.58
454.15	3880.61
454.34	3875.93
454.52	4018.70
454.70	4032.74
454.89	3847.84
455.07	3950.82
455.26	3971.89
455.44	4044.45
455.62	3999.98
455.81	4028.06
455.99	4077.21
456.17	4156.79
456.36	4016.36
456.54	4112.32
456.73	4166.15
456.91	4280.84
457.09	4189.56
457.28	4360.42
457.46	4318.29
457.64	4442.34
457.83	4355.74
458.01	4217.65
458.19	4320.63
458.38	4360.42
458.56	4355.74
458.74	4447.02
458.93	4383.82
459.11	4329.99
459.29	4170.83
459.48	4402.55
459.66	4489.15
459.84	4428.29
460.03	4524.26
460.21	4493.83
460.39	4660.01
460.57	4564.04
460.76	4440.00
460.94	4554.68
461.12	4538.30
461.31	4634.26
461.49	4697.46
461.67	4690.43
461.85	4692.77
462.04	4723.20
462.22	4812.14
462.40	4762.99
462.59	4716.18
462.77	4650.64
462.95	4760.65
463.13	4638.94
463.32	4617.88
463.50	4772.35
463.68	4706.82
463.86	4835.55
464.05	4758.31
464.23	4568.73
464.41	4770.01
464.59	4896.40
464.78	4802.78
464.96	5039.17
465.14	4807.46
465.32	4924.49
465.50	5011.09
465.69	4835.55
465.87	4926.83
466.05	5100.03
466.23	5067.26
466.41	4884.70
466.60	5013.43
466.78	4959.60
466.96	4905.76
467.14	4999.38
467.32	5029.81
467.51	5116.41
467.69	5027.47
467.87	5181.95
468.05	5046.20
468.23	5083.64
468.41	5153.86
468.60	5097.69
468.78	5137.48
468.96	5174.92
469.14	5193.65
469.32	5329.40
469.50	5235.78
469.69	5203.01
469.87	5390.25
470.05	5343.44
470.23	5558.77
470.41	5408.98
470.59	5348.12
470.77	5432.38
470.95	5528.35
471.14	5441.75
471.32	5331.74
471.50	5561.11
471.68	5486.22
471.86	5631.33
472.04	5734.31
472.22	5802.19
472.40	5607.92
472.58	5659.42
472.77	5823.25
472.95	5731.97
473.13	5996.45
473.31	5664.10
473.49	5703.89
473.67	5858.36
473.85	6033.90
474.03	5849.00
474.21	5982.41
474.39	6204.76
474.57	6174.33
474.75	6246.89
474.93	6057.31
475.12	6101.78
475.30	6073.69
475.48	6162.63
475.66	6282.00
475.84	6148.59
476.02	6382.64
476.20	6253.91
476.38	6251.57
476.56	6630.74
476.74	6401.37
476.92	6497.33
477.10	6530.09
477.28	6686.91
477.46	6633.08
477.64	6555.84
477.82	6689.25
478.00	6927.99
478.18	6939.69
478.36	6803.94
478.54	7009.90
478.72	7005.22
478.90	7014.59
479.08	7052.03
479.26	7040.33
479.44	7220.55
479.62	7300.13
479.80	7379.71
479.98	7445.24
480.16	7499.08
480.34	7721.43
480.52	7609.08
480.70	7627.81
480.88	7454.61
481.06	7503.76
481.24	7728.45
481.41	7768.24
481.59	8053.78
481.77	8067.83
481.95	7988.25
482.13	8009.31
482.31	7992.93
482.49	8241.03
482.67	8201.24
482.85	8353.37
483.03	8472.74
483.21	8376.78
483.39	8674.03
483.57	8580.40
483.74	8725.52
483.92	8894.04
484.10	8634.24
484.28	8767.65
484.46	8997.02
484.64	9102.34
484.82	8858.93
485.00	8779.35
485.18	9146.81
485.35	9350.44
485.53	9301.29
485.71	9401.93
485.89	9462.79
486.07	9605.56
486.25	9640.67
486.43	9621.94
486.61	9708.54
486.78	9678.12
486.96	9792.80
487.14	9921.53
487.32	10033.88
487.50	10146.22
487.68	10120.48
487.85	10441.13
488.03	10427.09
488.21	10532.41
488.39	10602.63
488.57	10747.74
488.75	10546.45
488.92	10995.84
489.10	10946.69
489.28	10675.18
489.46	11077.76
489.64	10920.94
489.81	11199.46
489.99	11218.19
490.17	11386.71
490.35	11611.40
490.53	11468.62
490.70	11480.33
490.88	11545.86
491.06	11719.06
491.24	11482.67
491.41	11798.64
491.59	11868.86
491.77	11918.01
491.95	12016.31
492.13	12056.10
492.30	12304.20
492.48	12131.00
492.66	12313.56
492.84	12166.10
493.01	12276.11
493.19	12496.12
493.37	12575.70
493.54	12685.70
493.72	12945.50
493.90	12699.75
494.08	12978.27
494.25	13107.00
494.43	12919.76
494.61	13357.44
494.79	13027.42
494.96	12889.33
495.14	13128.06
495.32	13219.35
495.49	13462.76
495.67	13427.65
495.85	13827.88
496.02	13710.86
496.20	13851.29
496.38	14078.32
496.55	14017.47
496.73	14352.16
496.91	14078.32
497.09	14291.31
497.26	14202.37
497.44	14345.14
497.62	14216.41
497.79	14417.70
497.97	14352.16
498.14	14497.28
498.32	14738.35
498.50	14740.69
498.67	14906.87
498.85	14913.89
499.03	14897.51
499.20	14813.25
499.38	14827.29
499.56	15014.54
499.73	15049.64
499.91	15349.23
500.08	15623.08
500.26	15257.95
500.44	15080.07
500.61	15431.15
500.79	15297.74
500.97	15658.18
501.14	15700.31
501.32	15730.74
501.49	15906.28
501.67	15688.61
501.84	15854.79
502.02	15838.41
502.20	15985.86
502.37	15981.18
502.55	16119.27
502.72	16152.04
502.90	15927.35
503.07	15946.07
503.25	16084.16
503.43	15995.22
503.60	16521.84
503.78	16587.38
503.95	16475.03
504.13	16482.05
504.30	16629.51
504.48	16421.20
504.65	16468.01
504.83	16915.05
505.01	17125.70
505.18	16905.69
505.36	17076.55
505.53	17181.87
505.71	16697.38
505.88	16947.82
506.06	17025.06
506.23	17324.65
506.41	17598.49
506.58	17238.05
506.76	17338.69
506.93	17032.08
507.11	17104.64
507.28	17504.87
507.46	17376.14
507.63	17654.66
507.81	17813.82
507.98	17497.84
508.16	17696.79
508.33	17626.57
508.50	17830.20
508.68	17724.88
508.85	17926.16
509.03	18139.15
509.20	17951.91
509.38	18319.37
509.55	18356.82
509.73	18090.00
509.90	18340.44
510.08	18195.32
510.25	18618.96
510.42	18476.19
510.60	18527.68
510.77	18396.61
510.95	18918.55
511.12	18565.13
511.30	18569.81
511.47	18925.57
511.64	18656.41
511.82	18672.79
511.99	18895.14
512.17	19026.21
512.34	19009.83
512.51	19061.32
512.69	18956.00
512.86	19227.50
513.04	19286.01
513.21	19309.42
513.38	19564.54
513.56	19536.45
513.73	19264.95
513.90	19248.57
514.08	19260.27
514.25	19370.27
514.43	19676.88
514.60	19737.74
514.77	19517.73
514.95	19810.29
515.12	19871.15
515.29	19758.80
515.47	19826.68
515.64	20004.56
515.81	19805.61
515.99	20159.03
516.16	20255.00
516.33	20397.77
516.51	20088.82
516.68	20060.73
516.85	20105.20
517.03	20180.10
517.20	20400.11
517.37	20465.64
517.54	20702.04
517.72	20238.61
517.89	20526.50
518.06	20535.86
518.24	20531.18
518.41	20531.18
518.58	20610.76
518.75	20552.24
518.93	20830.77
519.10	21057.80
519.27	20762.89
519.45	20912.69
519.62	21088.23
519.79	20793.32
519.96	20882.26
520.14	21165.46
520.31	21120.99
520.48	21483.78
520.65	21200.57
520.83	21235.68
521.00	21106.95
521.17	21174.83
521.34	21254.40
521.52	21439.31
521.69	21518.89
521.86	21776.34
522.03	21832.52
522.20	21497.82
522.38	21664.00
522.55	21685.06
522.72	21846.56
522.89	21783.37
523.07	21862.94
523.24	21893.37
523.41	22239.77
523.58	21797.41
523.75	21994.01
523.92	22017.42
524.10	21961.25
524.27	22164.87
524.44	22494.89
524.61	22309.99
524.78	22221.05
524.96	22272.54
525.13	22321.69
525.30	22260.84
525.47	22541.70
525.64	22588.51
525.81	22527.66
525.98	22637.66
526.16	22492.55
526.33	22724.26
526.50	22761.71
526.67	22544.04
526.84	22712.56
527.01	23016.83
527.18	23044.91
527.36	23175.98
527.53	23426.42
527.70	23173.64
527.87	22941.93
528.04	23386.63
528.21	22827.24
528.38	23161.94
528.55	22946.61
528.72	22923.21
528.89	23484.94
529.07	23421.74
529.24	22946.61
529.41	23342.16
529.58	23300.03
529.75	23360.89
529.92	23232.16
530.09	23440.47
530.26	23278.97
530.43	23527.06
530.60	23660.48
530.77	23379.61
530.94	23714.31
531.11	23714.31
531.28	23566.85
531.46	23613.66
531.63	23644.09
531.80	24081.77
531.97	24180.07
532.14	23751.76
532.31	23946.02
532.48	24112.20
532.65	23962.40
532.82	24093.47
532.99	24018.58
533.16	23934.32
533.33	24098.16
533.50	24414.13
533.67	24175.39
533.84	24077.09
534.01	24149.65
534.18	24163.69
534.35	24430.51
534.52	24177.73
534.69	24388.38
534.86	24444.56
535.03	24332.21
535.20	24521.79
535.37	24889.26
535.54	24758.19
535.71	24414.13
535.88	24514.77
536.05	24554.56
536.22	24711.38
536.38	24861.17
536.55	24702.01
536.72	24966.49
536.89	24582.65
537.06	24910.32
537.23	25132.67
537.40	24812.02
537.57	25057.78
537.74	24992.24
537.91	25275.45
538.08	24812.02
538.25	24727.76
538.42	24533.50
538.59	25195.87
538.75	24954.79
538.92	24973.52
539.09	25446.30
539.26	25221.61
539.43	25280.13
539.60	25359.70
539.77	25542.27
539.94	25380.77
540.11	25490.77
540.28	25284.81
540.44	25483.75
540.61	25385.45
540.78	25671.00
540.95	25226.29
541.12	25465.03
541.29	25858.24
541.46	25743.55
541.62	25448.64
541.79	25586.74
541.96	25486.09
542.13	25624.18
542.30	25867.60
542.47	25937.82
542.63	26089.95
542.80	25996.33
542.97	25888.67
543.14	26342.73
543.31	25839.51
543.48	26153.15
543.64	26487.84
543.81	26118.04
543.98	26593.17
544.15	26452.73
544.32	26401.24
544.48	26534.65
544.65	25909.73
544.82	26602.53
544.99	25783.34
545.16	26143.78
545.32	26480.82
545.49	26836.58
545.66	26590.83
545.83	26864.67
546.00	26742.96
546.16	26478.48
546.33	26230.38
546.50	26408.26
546.67	26249.11
546.83	26426.99
547.00	26738.28
547.17	26654.02
547.34	26689.13
547.50	27021.48
547.67	27250.86
547.84	27115.11
548.00	27192.34
548.17	27110.43
548.34	26789.77
548.51	26951.27
548.67	27028.51
548.84	27009.78
549.01	26785.09
549.18	26878.71
549.34	27084.68
549.51	26742.96
549.68	26958.29
549.84	27124.47
550.01	27309.37
550.18	27009.78
550.34	27054.25
550.51	27154.90
550.68	27428.74
550.84	27070.64
551.01	27608.96
551.18	27105.74
551.34	27061.27
551.51	27084.68
551.68	27548.11
551.84	27606.62
552.01	27625.34
552.18	27669.81
552.34	27363.20
552.51	27461.51
552.68	27356.18
552.84	27428.74
553.01	27529.38
553.18	27473.21
553.34	27967.06
553.51	27688.54
553.67	27854.72
553.84	28044.30
554.01	27892.16
554.17	27873.44
554.34	27583.21
554.51	27587.89
554.67	28266.65
554.84	27763.43
555.00	27747.05
555.17	27548.11
555.33	28039.62
555.50	27796.20
555.67	27917.91
555.83	28407.08
556.00	27843.01
556.16	28023.23
556.33	27793.86
556.50	27800.88
556.66	28217.50
556.83	28109.83
556.99	28114.52
557.16	28224.52
557.32	28306.44
557.49	28563.90
557.65	27950.68
557.82	27910.89
557.98	27962.38
558.15	28383.68
558.32	28353.25
558.48	28016.21
558.65	28631.77
558.81	28467.94
558.98	28444.53
559.14	28238.56
559.31	28313.46
559.47	28095.79
559.64	28720.71
559.80	28240.90
559.97	28545.17
560.13	28280.69
560.30	28444.53
560.46	29013.28
560.63	28519.43
560.79	28348.57
560.96	28676.24
561.12	28287.71
561.29	28673.90
561.45	28701.99
561.61	28692.63
561.78	28751.14
561.94	28416.44
562.11	28547.51
562.27	28947.75
562.44	28744.12
562.60	28524.11
562.77	28313.46
562.93	28215.16
563.10	28790.93
563.26	29181.80
563.42	29146.69
563.59	28830.72
563.75	28643.48
563.92	28877.53
564.08	29142.01
564.24	28821.36
564.41	28622.41
564.57	28898.59
564.74	28844.76
564.90	28748.80
565.07	29497.77
565.23	29216.91
565.39	28737.10
565.56	29305.85
565.72	28994.56
565.88	29055.41
566.05	29048.39
566.21	28966.47
566.38	28893.91
566.54	29039.03
566.70	29254.36
566.87	29406.49
567.03	28968.81
567.19	29319.89
567.36	29186.48
567.52	29364.36
567.68	29191.16
567.85	29364.36
568.01	29415.85
568.17	29268.40
568.34	29118.60
568.50	29401.81
568.66	29027.32
568.83	29350.32
568.99	29294.14
569.15	29198.18
569.32	29390.11
569.48	28617.73
569.64	28992.22
569.81	29017.96
569.97	29017.96
570.13	29111.58
570.30	28947.75
570.46	29296.49
570.62	29057.75
570.78	29156.05
570.95	29359.68
571.11	29345.64
571.27	29310.53
571.43	29186.48
571.60	29277.76
571.76	29263.72
571.92	29371.38
572.09	28971.15
572.25	29385.43
572.41	29415.85
572.57	29212.23
572.74	29127.97
572.90	29113.92
573.06	29273.08
573.22	29163.08
573.38	29310.53
573.55	29408.83
573.71	29734.17
573.87	29645.23
574.03	29212.23
574.20	29607.78
574.36	29371.38
574.52	29490.75
574.68	29214.57
574.84	29244.99
575.01	29287.12
575.17	29493.09
575.33	29282.44
575.49	29724.80
575.65	29689.70
575.82	29355.00
575.98	29493.09
576.14	29766.93
576.30	29500.11
576.46	29172.44
576.62	29418.19
576.79	29996.31
576.95	29296.49
577.11	29872.26
577.27	29305.85
577.43	29661.61
577.59	29380.74
577.75	29486.07
577.92	29151.37
578.08	29472.03
578.24	29090.52
578.40	29549.26
578.56	29507.13
578.72	29792.68
578.88	29584.37
579.04	29675.65
579.21	29380.74
579.37	29575.01
579.53	29729.48
579.69	29254.36
579.85	29331.59
580.01	29500.11
580.17	29626.50
580.33	29390.11
580.49	29628.84
580.65	29352.66
580.82	29429.90
580.98	29689.70
581.14	29837.15
581.30	30089.93
581.46	29769.27
581.62	29406.49
581.78	29593.73
581.94	29638.20
582.10	29652.25
582.26	29907.37
582.42	29333.93
582.58	29923.75
582.74	29940.13
582.90	29809.06
583.06	29603.10
583.22	29701.40
583.38	29577.35
583.54	29809.06
583.70	29350.32
583.86	29895.66
584.02	29404.15
584.18	29762.25
584.34	29425.22
584.50	29972.90
584.66	29830.13
584.82	29638.20
584.98	29820.77
585.14	29610.12
585.30	29685.01
585.46	29546.92
585.62	29537.56
585.78	29591.39
585.94	29567.99
586.10	29441.60
586.26	29975.24
586.42	29696.72
586.58	29839.49
586.74	29642.88
586.90	29291.80
587.06	29179.46
587.22	29378.40
587.38	29790.34
587.54	30202.27
587.70	30087.59
587.86	29802.04
588.02	29958.86
588.18	30101.63
588.34	29839.49
588.49	29621.82
588.65	29727.14
588.81	29631.18
588.97	29804.38
589.13	29738.85
589.29	29865.24
589.45	29769.27
589.61	29956.52
589.77	29982.26
589.93	30277.17
590.08	30033.75
590.24	29893.32
590.40	30031.41
590.56	30274.83
590.72	29759.91
590.88	29776.30
591.04	30057.16
591.20	30352.07
591.35	30253.76
591.51	30422.28
591.67	30099.29
591.83	30300.58
591.99	30110.99
592.15	29844.17
592.31	30080.56
592.46	30206.95
592.62	29802.04
592.78	29991.62
592.94	30043.12
593.10	29979.92
593.26	30164.82
593.41	29907.37
593.57	29900.34
593.73	30204.61
593.89	30129.72
594.05	30181.21
594.20	29914.39
594.36	30059.50
594.52	30099.29
594.68	29844.17
594.84	29881.62
594.99	30483.14
595.15	30197.59
595.31	30532.29
595.47	30433.99
595.62	30541.65
595.78	29961.20
595.94	30108.65
596.10	30253.76
596.25	30614.21
596.41	30499.52
596.57	29858.21
596.73	30082.91
596.88	30134.40
597.04	30141.42
597.20	30239.72
597.36	30082.91
597.51	30712.51
597.67	30682.08
597.83	30373.13
597.99	30412.92
598.14	30132.06
598.30	29825.45
598.46	30223.34
598.61	30326.32
598.77	30228.02
598.93	30391.86
599.09	30649.32
599.24	30866.98
599.40	30281.85
599.56	30132.06
599.71	30267.81
599.87	30363.77
600.03	30181.21
600.18	30204.61
600.34	30380.15
600.50	30155.46
600.65	30139.08
600.81	30019.71
600.97	30696.13
601.12	30316.96
601.28	30515.90
601.44	30298.23
601.59	30424.62
601.75	30164.82
601.91	30244.40
602.06	30155.46
602.22	29830.13
602.37	30277.17
602.53	30356.75
602.69	30221.00
602.84	30038.44
603.00	30361.43
603.16	30490.16
603.31	30244.40
603.47	30639.95
603.62	29954.18
603.78	30483.14
603.94	29919.07
604.09	30366.11
604.25	30045.46
604.40	30522.93
604.56	30253.76
604.71	30391.86
604.87	30270.15
605.03	30349.73
605.18	30354.41
605.34	30253.76
605.49	29965.88
605.65	30345.05
605.80	30066.52
605.96	30174.19
606.12	29907.37
606.27	30195.25
606.43	30195.25
606.58	30225.68
606.74	30057.16
606.89	30520.59
607.05	30277.17
607.20	30230.36
607.36	30050.14
607.51	30316.96
607.67	29640.54
607.82	29844.17
607.98	30253.76
608.13	29663.95
608.29	30026.73
608.44	30221.00
608.60	30190.57
608.75	29926.09
608.91	29912.05
609.06	29956.52
609.22	30239.72
609.37	29532.88
609.53	29954.18
609.68	30118.01
609.84	30078.22
609.99	30237.38
610.15	29535.22
610.30	29846.51
610.46	29685.01
610.61	29961.20
610.76	30043.12
610.92	29984.60
611.07	29516.50
611.23	30174.19
611.38	29469.69
611.54	29895.66
611.69	29474.37
611.84	29724.80
612.00	29223.93
612.15	29713.10
612.31	30094.61
612.46	29731.83
612.62	30258.45
612.77	29689.70
612.92	30031.41
613.08	29813.74
613.23	29666.29
613.39	30064.18
613.54	29495.43
613.69	29837.15
613.85	29776.30
614.00	29830.13
614.15	29961.20
614.31	29605.44
614.46	29701.40
614.62	29743.53
614.77	29680.33
614.92	29645.23
615.08	29970.56
615.23	29736.51
615.38	29495.43
615.54	29565.65
615.69	29427.56
615.84	29125.63
616.00	29586.71
616.15	29493.09
616.30	29764.59
616.46	29528.20
616.61	29345.64
616.76	29465.00
616.92	29563.31
617.07	29488.41
617.22	29404.15
617.37	29024.98
617.53	29986.94
617.68	29455.64
617.83	29429.90
617.99	29132.65
618.14	29118.60
618.29	29376.06
618.45	29256.70
618.60	29378.40
618.75	28994.56
618.90	29305.85
619.06	29696.72
619.21	29446.28
619.36	29394.79
619.51	28758.16
619.67	29167.76
619.82	28945.41
619.97	28922.00
620.12	28945.41
620.28	28954.77
620.43	29235.63
620.58	29200.52
620.73	28959.45
620.89	29160.73
621.04	29294.14
621.19	29069.45
621.34	29057.75
621.49	29069.45
621.65	28716.03
621.80	28645.82
621.95	28910.30
622.10	29006.26
622.25	28889.23
622.41	28919.66
622.56	28947.75
622.71	29060.09
622.86	28844.76
623.01	28458.57
623.16	28718.37
623.32	28966.47
623.47	29076.48
623.62	28608.37
623.77	28931.36
623.92	28943.06
624.07	28519.43
624.23	28645.82
624.38	28795.61
624.53	29024.98
624.68	28772.21
624.83	28755.82
624.98	28954.77
625.13	28613.05
625.29	28783.91
625.44	28723.05
625.59	28613.05
625.74	28215.16
625.89	28425.81
626.04	28339.21
626.19	28950.09
626.34	28397.72
626.49	28535.81
626.65	27812.59
626.80	28664.54
626.95	28287.71
627.10	28357.93
627.25	28189.41
627.40	28011.53
627.55	28198.77
627.70	28025.57
627.85	28130.90
628.00	28163.67
628.15	28449.21
628.30	28002.17
628.45	28371.97
628.60	28243.24
628.76	28294.74
628.91	28332.18
629.06	28077.07
629.21	28407.08
629.36	28243.24
629.51	28123.88
629.66	28184.73
629.81	27878.12
629.96	27793.86
630.11	27761.09
630.26	28173.03
630.41	27920.25
630.56	27744.71
630.71	27882.80
630.86	28009.19
631.01	27793.86
631.16	28074.73
631.31	27882.80
631.46	27295.33
631.61	27803.22
631.76	28135.58
631.91	27742.37
632.06	27922.59
632.21	27513.00
632.36	27672.15
632.51	27555.13
632.66	27234.47
632.81	27601.94
632.96	27840.67
633.10	27686.20
633.25	27672.15
633.40	27714.28
633.55	27480.23
633.70	27414.69
633.85	27173.62
634.00	27110.43
634.15	27866.42
634.30	27548.11
634.45	27440.44
634.60	27569.17
634.75	27641.73
634.90	27253.20
635.05	27672.15
635.19	27637.05
635.34	27716.62
635.49	27426.40
635.64	27707.26
635.79	27321.07
635.94	27365.54
636.09	27510.66
636.24	27227.45
636.39	27012.12
636.53	27229.79
636.68	27328.10
636.83	27091.70
636.98	27388.95
637.13	27089.36
637.28	27564.49
637.43	27271.92
637.57	27082.34
637.72	27494.27
637.87	26768.71
638.02	27119.79
638.17	26958.29
638.32	27159.58
638.46	26684.45
638.61	26916.16
638.76	26813.18
638.91	26902.12
639.06	27115.11
639.20	26927.86
639.35	26962.97
639.50	26838.92
639.65	27173.62
639.80	26864.67
639.94	27307.03
640.09	26773.39
640.24	26710.19
640.39	27150.21
640.54	26677.43
640.68	26855.31
640.83	26689.13
640.98	26834.24
641.13	26403.58
641.27	26588.49
641.42	26459.76
641.57	26618.91
641.72	26878.71
641.86	26597.85
642.01	26436.35
642.16	26326.35
642.31	26494.86
642.45	26609.55
642.60	26441.03
642.75	25830.15
642.90	26611.89
643.04	26356.77
643.19	26635.30
643.34	26607.21
643.48	26576.78
643.63	26560.40
643.78	26422.31
643.93	26850.63
644.07	26501.89
644.22	26492.52
644.37	26691.47
644.51	26710.19
644.66	26480.82
644.81	26038.46
644.95	26178.89
645.10	26080.59
645.25	26087.61
645.39	26375.50
645.54	26462.10
645.69	26305.28
645.83	26300.60
645.98	26192.94
646.13	26232.72
646.27	26279.54
646.42	26558.06
646.57	26225.70
646.71	26174.21
646.86	26272.51
647.00	25832.49
647.15	25984.63
647.30	26080.59
647.44	25855.90
647.59	26146.12
647.74	26061.87
647.88	25638.23
648.03	26148.46
648.17	26176.55
648.32	26237.41
648.47	26228.04
648.61	25956.54
648.76	26167.19
648.90	26094.63
649.05	25844.20
649.20	25558.65
649.34	25504.82
649.49	25736.53
649.63	25771.64
649.78	25989.31
649.92	25680.36
650.07	25851.22
650.21	25556.31
650.36	25689.72
650.51	25556.31
650.65	25970.58
650.80	25687.38
650.94	25813.77
651.09	25773.98
651.23	25841.85
651.38	25888.67
651.52	25301.19
651.67	25469.71
651.81	25640.57
651.96	25539.93
652.10	25586.74
652.25	25518.86
652.39	25607.80
652.54	25621.84
652.68	25439.28
652.83	25750.57
652.97	25514.18
653.12	25579.71
653.26	25371.41
653.41	25504.82
653.55	25392.47
653.70	25338.64
653.84	25544.61
653.99	25378.43
654.13	25392.47
654.27	25703.76
654.42	25284.81
654.56	25282.47
654.71	25450.99
654.85	25221.61
655.00	25333.96
655.14	25254.38
655.29	25025.01
655.43	25202.89
655.57	25125.65
655.72	25216.93
655.86	25008.62
656.01	25144.38
656.15	25191.19
656.30	24812.02
656.44	24877.55
656.58	24741.80
656.73	24875.21
656.87	24893.94
657.01	25078.84
657.16	25165.44
657.30	25130.33
657.45	25219.27
657.59	25043.73
657.73	24833.08
657.88	25064.80
658.02	25064.80
658.16	24716.06
658.31	24648.18
658.45	24910.32
658.60	24828.40
658.74	24793.29
658.88	24477.32
659.03	24547.54
659.17	24617.75
659.31	24774.57
659.46	24538.18
659.60	24844.79
659.74	24596.69
659.89	24545.20
660.03	24568.60
660.17	24432.85
660.32	24238.59
660.46	24114.54
660.60	24247.95
660.74	24222.20
660.89	24346.25
661.03	23974.11
661.17	24018.58
661.32	24364.98
661.46	24252.63
661.60	23934.32
661.74	24360.30
661.89	24362.64
662.03	24077.09
662.17	24020.92
662.31	23941.34
662.46	24013.90
662.60	23901.55
662.74	23847.72
662.88	23768.14
663.03	23737.71
663.17	24020.92
663.31	23728.35
663.45	23768.14
663.60	23906.23
663.74	23358.55
663.88	23686.22
664.02	23463.87
664.17	23964.75
664.31	23646.43
664.45	23466.21
664.59	23704.95
664.73	23566.85
664.88	23508.34
665.02	23293.01
665.16	23529.41
665.30	23300.03
665.44	23300.03
665.59	23241.52
665.73	23536.43
665.87	23119.81
666.01	23110.45
666.15	23484.94
666.29	22909.16
666.44	22977.04
666.58	22513.61
666.72	23171.30
666.86	23014.49
667.00	23229.82
667.14	22862.35
667.28	22857.67
667.43	22520.63
667.57	22794.48
667.71	22579.15
667.85	22546.38
667.99	22539.36
668.13	22658.73
668.27	22539.36
668.41	22476.16
668.56	22511.27
668.70	22635.32
668.84	22904.48
668.98	22494.89
669.12	22494.89
669.26	22712.56
669.40	22363.82
669.54	22368.50
669.68	22354.46
669.82	22324.03
669.96	22258.49
670.10	21888.69
670.25	22092.32
670.39	22192.96
670.53	22183.60
670.67	22216.36
670.81	21996.35
670.95	22136.79
671.09	22174.24
671.23	22012.74
671.37	22291.26
671.51	21858.26
671.65	21645.27
671.79	21523.57
671.93	21626.55
672.07	21818.47
672.21	21727.19
672.35	21113.97
672.49	21605.49
672.63	21385.47
672.77	21170.15
672.91	21694.43
673.05	21486.12
673.19	21467.39
673.33	21139.72
673.47	21401.86
673.61	21214.62
673.75	21216.96
673.89	21387.82
674.03	21022.69
674.17	21228.66
674.31	20945.45
674.45	21029.71
674.59	20886.94
674.73	20786.30
674.87	20929.07
675.01	20896.30
675.15	20650.55
675.29	20704.38
675.43	20769.91
675.56	20629.48
675.70	20594.37
675.84	20514.80
675.98	19988.18
676.12	21116.31
676.26	20449.26
676.40	20299.47
676.54	20388.41
676.68	20442.24
676.82	19946.05
676.96	20086.48
677.10	20350.96
677.23	19936.68
677.37	19740.08
677.51	19845.40
677.65	19810.29
677.79	19913.28
677.93	19948.39
678.07	19971.79
678.21	19690.93
678.34	19515.39
678.48	19438.15
678.62	19499.00
678.76	19400.70
678.90	19330.48
679.04	19304.74
679.18	19269.63
679.31	19204.10
679.45	19131.54
679.59	19073.03
679.73	18916.21
679.87	18616.62
680.00	19023.87
680.14	18691.52
680.28	18927.91
680.42	18785.14
680.56	19089.41
680.70	18920.89
680.83	19080.05
680.97	18558.11
681.11	18633.00
681.25	18485.55
681.39	18391.93
681.52	18270.22
681.66	18572.15
681.80	18473.85
681.94	18185.96
682.07	18190.64
682.21	18101.70
682.35	18111.07
682.49	17848.93
682.62	18038.51
682.76	17968.29
682.90	17778.71
683.04	17799.77
683.17	17928.50
683.31	17916.80
683.45	17591.47
683.59	17855.95
683.72	17827.86
683.86	17668.70
684.00	17610.19
684.13	17558.70
684.27	17231.02
684.41	17324.65
684.55	17259.11
684.68	16744.19
684.82	16868.24
684.96	17130.38
685.09	17099.95
685.23	17111.66
685.37	16842.50
685.50	17128.04
685.64	17104.64
685.78	16629.51
685.91	17041.44
686.05	16896.33
686.19	16407.16
686.32	16657.59
686.46	16477.37
686.60	16470.35
686.73	16432.90
686.87	16348.64
687.01	16187.14
687.14	16037.35
687.28	16102.89
687.42	16266.72
687.55	16252.68
687.69	15939.05
687.82	15840.75
687.96	15985.86
688.10	15988.20
688.23	15985.86
688.37	16009.26
688.50	15831.38
688.64	15796.28
688.78	15772.87
688.91	15424.13
689.05	15740.10
689.18	15616.05
689.32	15000.49
689.46	14937.30
689.59	15239.23
689.73	15087.09
689.86	15094.11
690.00	15171.35
690.13	15199.44
690.27	15091.77
690.41	14927.94
690.54	14806.23
690.68	14937.30
690.81	15124.54
690.95	14972.41
691.08	15030.92
691.22	14586.22
691.35	14743.03
691.49	14801.55
691.62	14576.86
691.76	14541.75
691.89	14345.14
692.03	14438.76
692.16	14197.69
692.30	14090.02
692.43	14363.87
692.57	14052.58
692.70	13973.00
692.84	14043.21
692.97	14057.26
693.11	13989.38
693.24	13963.64
693.38	13961.30
693.51	13907.46
693.65	13820.86
693.78	13530.64
693.92	13469.78
694.05	13635.96
694.19	13373.82
694.32	13530.64
694.45	13315.31
694.59	13359.78
694.72	13254.45
694.86	13179.56
694.99	13041.46
695.13	13095.30
695.26	12978.27
695.39	13064.87
695.53	12999.34
695.66	13116.36
695.80	13004.02
695.93	13043.81
696.07	13167.85
696.20	12957.21
696.33	12807.41
696.47	12589.74
696.60	12568.68
696.73	12594.42
696.87	12458.67
697.00	12566.34
697.14	12208.23
697.27	12170.79
697.40	12149.72
697.54	12322.92
697.67	12219.94
697.80	11971.84
697.94	12020.99
698.07	11887.58
698.21	12156.74
698.34	12095.89
698.47	11999.93
698.61	12194.19
698.74	11878.22
698.87	11756.51
699.01	11611.40
699.14	11665.23
699.27	11705.02
699.40	11667.57
699.54	11644.17
699.67	11562.25
699.80	11618.42
699.94	11473.31
700.07	11232.23
700.20	11325.85
700.34	11012.22
700.47	11220.53
700.60	11091.80
700.73	11201.80
700.87	10984.13
701.00	10942.00
701.13	10876.47
701.26	10986.47
701.40	11080.10
701.53	10822.64
701.66	10860.09
701.79	10661.14
701.93	10817.96
702.06	10693.91
702.19	10654.12
702.32	10462.19
702.46	10609.65
702.59	10483.26
702.72	10410.70
702.85	10338.15
702.99	10178.99
703.12	10221.12
703.25	10237.50
703.38	10272.61
703.51	10345.17
703.65	10204.74
703.78	9937.91
703.91	10101.75
704.04	10202.40
704.17	10111.11
704.31	9961.32
704.44	9944.94
704.57	9942.60
704.70	9507.26
704.83	9664.07
704.96	9572.79
705.10	9415.98
705.23	9561.09
>>>>>End Processed Spectral Data<<<<<
