SpectraSuite Data File
++++++++++++++++++++++++++++++++++++
Date: Fri Oct 18 13:58:40 GMT-05:00 2013
User: bianchi
Dark Spectrum Present: No
Reference Spectrum Present: No
Number of Sampled Component Spectra: 1
Spectrometers: USB2+H05261
Integration Time (usec): 50000 (USB2+H05261)
Spectra Averaged: 1 (USB2+H05261)
Boxcar Smoothing: 0 (USB2+H05261)
Correct for Electrical Dark: No (USB2+H05261)
Strobe/Lamp Enabled: No (USB2+H05261)
Correct for Detector Non-linearity: No (USB2+H05261)
Correct for Stray Light: No (USB2+H05261)
Number of Pixels in Processed Spectrum: 2048
>>>>>Begin Processed Spectral Data<<<<<
365.73	0.00
365.92	0.00
366.12	0.00
366.32	0.00
366.52	0.00
366.72	0.00
366.91	0.00
367.11	0.00
367.31	0.00
367.51	0.00
367.70	0.00
367.90	0.00
368.10	0.00
368.30	0.00
368.49	0.00
368.69	0.00
368.89	0.00
369.09	0.00
369.28	0.00
369.48	0.00
369.68	0.00
369.87	0.00
370.07	0.00
370.27	0.00
370.47	0.00
370.66	102.98
370.86	138.09
371.06	102.98
371.25	124.05
371.45	126.39
371.65	166.18
371.84	114.69
372.04	168.52
372.24	238.73
372.44	236.39
372.63	128.73
372.83	198.95
373.03	229.37
373.22	215.33
373.42	241.08
373.62	212.99
373.81	180.22
374.01	255.12
374.21	241.08
374.40	229.37
374.60	273.84
374.79	208.31
374.99	283.20
375.19	285.55
375.38	236.39
375.58	245.76
375.78	229.37
375.97	231.71
376.17	297.25
376.37	283.20
376.56	301.93
376.76	259.80
376.95	257.46
377.15	283.20
377.35	311.29
377.54	269.16
377.74	301.93
377.93	231.71
378.13	264.48
378.33	262.14
378.52	229.37
378.72	229.37
378.91	325.33
379.11	339.38
379.31	292.57
379.50	297.25
379.70	292.57
379.89	299.59
380.09	273.84
380.28	285.55
380.48	348.74
380.68	280.86
380.87	287.89
381.07	294.91
381.26	332.36
381.46	320.65
381.65	313.63
381.85	353.42
382.04	311.29
382.24	308.95
382.43	374.49
382.63	358.10
382.83	362.78
383.02	369.80
383.22	365.12
383.41	369.80
383.61	390.87
383.80	327.68
384.00	358.10
384.19	320.65
384.39	416.62
384.58	390.87
384.78	299.59
384.97	414.27
385.17	367.46
385.36	379.17
385.56	421.30
385.75	365.12
385.95	397.89
386.14	409.59
386.34	351.08
386.53	451.72
386.72	330.02
386.92	400.23
387.11	334.70
387.31	411.93
387.50	400.23
387.70	360.44
387.89	414.27
388.09	416.62
388.28	425.98
388.48	411.93
388.67	470.45
388.86	489.17
389.06	393.21
389.25	533.64
389.45	468.11
389.64	388.53
389.84	491.51
390.03	489.17
390.22	575.77
390.42	538.32
390.61	428.32
390.81	489.17
391.00	468.11
391.19	458.74
391.39	447.04
391.58	557.05
391.78	557.05
391.97	423.64
392.16	498.53
392.36	540.66
392.55	449.38
392.75	521.94
392.94	622.58
393.13	500.87
393.33	496.19
393.52	566.41
393.71	543.00
393.91	617.90
394.10	524.28
394.29	507.90
394.49	554.71
394.68	561.73
394.88	624.92
395.07	589.82
395.26	617.90
395.46	624.92
395.65	713.86
395.84	578.11
396.04	660.03
396.23	613.22
396.42	603.86
396.62	638.97
396.81	641.31
397.00	678.76
397.19	720.88
397.39	629.60
397.58	660.03
397.77	758.33
397.97	655.35
398.16	716.20
398.35	702.16
398.55	699.82
398.74	744.29
398.93	718.54
399.12	737.27
399.32	725.57
399.51	674.07
399.70	699.82
399.90	779.40
400.09	744.29
400.28	795.78
400.47	730.25
400.67	802.80
400.86	755.99
401.05	788.76
401.24	791.10
401.44	784.08
401.63	800.46
401.82	753.65
402.01	753.65
402.21	866.00
402.40	847.27
402.59	812.17
402.78	922.17
402.97	737.27
403.17	814.51
403.36	835.57
403.55	828.55
403.74	908.13
403.93	894.08
404.13	847.27
404.32	873.02
404.51	873.02
404.70	964.30
404.89	966.64
405.09	957.28
405.28	1025.15
405.47	936.21
405.66	926.85
405.85	1027.50
406.05	910.47
406.24	957.28
406.43	1032.18
406.62	945.58
406.81	1027.50
407.00	1025.15
407.20	1008.77
407.39	961.96
407.58	1032.18
407.77	1118.78
407.96	1121.12
408.15	978.34
408.34	1034.52
408.54	1170.27
408.73	1125.80
408.92	1086.01
409.11	1078.99
409.30	1146.86
409.49	1078.99
409.68	1196.01
409.87	1172.61
410.07	1135.16
410.26	1153.88
410.45	1214.74
410.64	1198.35
410.83	1252.19
411.02	1240.48
411.21	1212.40
411.40	1142.18
411.59	1263.89
411.78	1261.55
411.98	1270.91
412.17	1179.63
412.36	1252.19
412.55	1252.19
412.74	1390.28
412.93	1341.13
413.12	1427.73
413.31	1313.04
413.50	1350.49
413.69	1336.45
413.88	1378.58
414.07	1507.30
414.26	1444.11
414.45	1437.09
414.64	1357.51
414.83	1633.69
415.02	1474.54
415.22	1418.36
415.41	1497.94
415.60	1603.27
415.79	1647.74
415.98	1671.14
416.17	1582.20
416.36	1586.88
416.55	1633.69
416.74	1589.22
416.93	1640.72
417.12	1736.68
417.31	1673.48
417.50	1633.69
417.69	1720.29
417.88	1717.95
418.07	1624.33
418.26	1774.13
418.45	1713.27
418.64	1799.87
418.83	1795.19
419.02	1703.91
419.21	1753.06
419.39	1781.15
419.58	1739.02
419.77	1818.60
419.96	1827.96
420.15	1837.32
420.34	1863.07
420.53	1785.83
420.72	1781.15
420.91	1968.39
421.10	1888.81
421.29	1909.88
421.48	1898.17
421.67	1916.90
421.86	1846.68
422.05	1935.62
422.24	1963.71
422.43	1987.11
422.61	1907.54
422.80	1933.28
422.99	2076.06
423.18	2015.20
423.37	1949.67
423.56	1926.26
423.75	2033.93
423.94	2047.97
424.13	1795.19
424.32	1949.67
424.50	2031.58
424.69	2104.14
424.88	2045.63
425.07	2054.99
425.26	1944.99
425.45	1982.43
425.64	2019.88
425.83	1952.01
426.01	2101.80
426.20	2113.50
426.39	2069.03
426.58	2066.69
426.77	2092.44
426.96	2118.18
427.15	2076.06
427.33	2092.44
427.52	2139.25
427.71	2087.76
427.90	2228.19
428.09	2275.00
428.28	2277.34
428.46	2223.51
428.65	2275.00
428.84	2312.45
429.03	2263.30
429.22	2225.85
429.40	2300.75
429.59	2235.21
429.78	2150.95
429.97	2181.38
430.16	2258.62
430.34	2181.38
430.53	2328.83
430.72	2450.54
430.91	2300.75
431.10	2267.98
431.28	2277.34
431.47	2314.79
431.66	2464.58
431.85	2291.38
432.03	2368.62
432.22	2485.65
432.41	2459.90
432.60	2466.92
432.79	2420.11
432.97	2354.58
433.16	2438.84
433.35	2385.01
433.54	2579.27
433.72	2483.31
433.91	2450.54
434.10	2588.63
434.28	2436.50
434.47	2469.27
434.66	2626.08
434.85	2679.91
435.03	2497.35
435.22	2525.44
435.41	2729.06
435.59	2635.44
435.78	2677.57
435.97	2736.09
436.16	2668.21
436.34	2583.95
436.53	2717.36
436.72	2754.81
436.90	2696.30
437.09	2628.42
437.28	2649.49
437.46	2724.38
437.65	2747.79
437.84	2757.15
438.02	2722.04
438.21	2773.53
438.40	2860.13
438.58	2731.41
438.77	2878.86
438.96	2993.55
439.14	2942.05
439.33	3000.57
439.52	2949.08
439.70	2895.24
439.89	3112.91
440.08	3110.57
440.26	3040.36
440.45	3030.99
440.63	3066.10
440.82	3075.46
441.01	3073.12
441.19	3187.81
441.38	3089.51
441.57	3251.00
441.75	3194.83
441.94	3321.22
442.12	3246.32
442.31	3337.60
442.50	3276.75
442.68	3265.05
442.87	3323.56
443.05	3370.37
443.24	3300.16
443.43	3379.73
443.61	3365.69
443.80	3461.65
443.98	3496.76
444.17	3262.71
444.35	3389.10
444.54	3438.25
444.73	3377.39
444.91	3410.16
445.10	3398.46
445.28	3515.48
445.47	3417.18
445.65	3485.06
445.84	3452.29
446.02	3548.25
446.21	3410.16
446.39	3370.37
446.58	3363.35
446.77	3513.14
446.95	3578.68
447.14	3456.97
447.32	3571.66
447.51	3534.21
447.69	3522.51
447.88	3569.32
448.06	3520.17
448.25	3463.99
448.43	3627.83
448.62	3485.06
448.80	3473.36
448.99	3559.95
449.17	3499.10
449.36	3552.93
449.54	3676.98
449.73	3700.39
449.91	3742.52
450.10	3751.88
450.28	3641.87
450.46	3712.09
450.65	3634.85
450.83	3611.45
451.02	3756.56
451.20	3674.64
451.39	3803.37
451.57	3576.34
451.76	3782.31
451.94	3714.43
452.13	3824.44
452.31	3878.27
452.49	3709.75
452.68	3861.88
452.86	3784.65
453.05	3829.12
453.23	3831.46
453.42	3962.53
453.60	3826.78
453.78	3936.78
453.97	3852.52
454.15	3920.40
454.34	3908.69
454.52	4053.81
454.70	4042.11
454.89	3997.64
455.07	4002.32
455.26	3950.82
455.44	3960.19
455.62	4105.30
455.81	4014.02
455.99	4168.49
456.17	4152.11
456.36	4224.67
456.54	3946.14
456.73	4093.60
456.91	4332.33
457.09	4306.59
457.28	4376.80
457.46	4203.60
457.64	4390.84
457.83	4236.37
458.01	4189.56
458.19	4320.63
458.38	4327.65
458.56	4365.10
458.74	4425.95
458.93	4449.36
459.11	4449.36
459.29	4451.70
459.48	4402.55
459.66	4365.10
459.84	4489.15
460.03	4608.51
460.21	4507.87
460.39	4510.21
460.57	4575.75
460.76	4559.36
460.94	4517.23
461.12	4727.88
461.31	4554.68
461.49	4535.96
461.67	4540.64
461.85	4657.67
462.04	4741.93
462.22	4727.88
462.40	4746.61
462.59	4692.77
462.77	4692.77
462.95	4681.07
463.13	4809.80
463.32	4599.15
463.50	4835.55
463.68	4863.63
463.86	4725.54
464.05	4739.58
464.23	4643.62
464.41	4947.89
464.59	4730.22
464.78	4837.89
464.96	5039.17
465.14	4802.78
465.32	4903.42
465.50	4844.91
465.69	5095.35
465.87	5015.77
466.05	4952.57
466.23	4905.76
466.41	5088.32
466.60	5116.41
466.78	4873.00
466.96	5001.72
467.14	4954.91
467.32	5111.73
467.51	5025.13
467.69	5036.83
467.87	4992.36
468.05	5050.88
468.23	5153.86
468.41	5053.22
468.60	5177.26
468.78	5163.22
468.96	5261.52
469.14	5177.26
469.32	5280.25
469.50	5284.93
469.69	5224.08
469.87	5516.64
470.05	5490.90
470.23	5371.53
470.41	5320.04
470.59	5376.21
470.77	5268.55
470.95	5575.16
471.14	5418.34
471.32	5408.98
471.50	5664.10
471.68	5521.32
471.86	5661.76
472.04	5706.23
472.22	5727.29
472.40	5706.23
472.58	5476.85
472.77	5713.25
472.95	5809.21
473.13	5959.00
473.31	5689.84
473.49	5706.23
473.67	5837.30
473.85	5919.21
474.03	6136.88
474.21	6125.18
474.39	6132.20
474.57	6125.18
474.75	6179.01
474.93	6267.95
475.12	6071.35
475.30	6106.46
475.48	6211.78
475.66	6139.23
475.84	6410.73
476.02	6221.14
476.20	6345.19
476.38	6487.96
476.56	6712.66
476.74	6506.69
476.92	6614.35
477.10	6466.90
477.28	6635.42
477.46	6574.56
477.64	6558.18
477.82	6754.79
478.00	6939.69
478.18	6932.67
478.36	6937.35
478.54	7288.43
478.72	7091.82
478.90	7056.72
479.08	7108.21
479.26	7159.70
479.44	7262.68
479.62	7393.75
479.80	7473.33
479.98	7283.75
480.16	7433.54
480.34	7513.12
480.52	7669.94
480.70	7597.38
480.88	7632.49
481.06	7637.17
481.24	7695.68
481.41	7988.25
481.59	7999.95
481.77	7929.74
481.95	7988.25
482.13	7903.99
482.31	8004.63
482.49	8311.24
482.67	8196.56
482.85	8472.74
483.03	8379.12
483.21	8526.57
483.39	8493.80
483.57	8620.19
483.74	8723.18
483.92	8564.02
484.10	8575.72
484.28	9029.79
484.46	9001.70
484.64	9142.13
484.82	9090.64
485.00	9029.79
485.18	9242.78
485.35	9497.89
485.53	9324.69
485.71	9277.88
485.89	9549.39
486.07	9521.30
486.25	9661.73
486.43	9570.45
486.61	9685.14
486.78	9760.03
486.96	9720.24
487.14	10157.92
487.32	10171.97
487.50	10097.07
487.68	10218.78
487.85	10401.34
488.03	10434.11
488.21	10483.26
488.39	10661.14
488.57	10766.46
488.75	10611.99
488.92	10817.96
489.10	10775.83
489.28	10796.89
489.46	10918.60
489.64	11108.18
489.81	11419.47
489.99	11307.13
490.17	11220.53
490.35	11384.37
490.53	11613.74
490.70	11660.55
490.88	11372.66
491.06	11843.11
491.24	11793.96
491.41	11910.99
491.59	12161.42
491.77	12006.95
491.95	12327.60
492.13	11922.69
492.30	12287.81
492.48	12070.14
492.66	11974.18
492.84	12201.21
493.01	12386.12
493.19	12325.26
493.37	12856.56
493.54	12624.85
493.72	12666.98
493.90	12730.17
494.08	12999.34
494.25	13022.74
494.43	12966.57
494.61	13193.60
494.79	13118.70
494.96	13158.49
495.14	13315.31
495.32	13331.69
495.49	13621.92
495.67	13736.60
495.85	13818.52
496.02	13504.89
496.20	13734.26
496.38	13687.45
496.55	13921.51
496.73	14139.18
496.91	14057.26
497.09	14075.98
497.26	14174.28
497.44	14466.85
497.62	14363.87
497.79	14616.65
497.97	14391.95
498.14	14553.45
498.32	14923.26
498.50	14731.33
498.67	14930.28
498.85	14883.47
499.03	14897.51
499.20	15089.43
499.38	15342.21
499.56	15012.20
499.73	15068.37
499.91	15243.91
500.08	15360.94
500.26	15222.84
500.44	15522.43
500.61	15393.70
500.79	15562.22
500.97	15829.04
501.14	15688.61
501.32	15756.49
501.49	15962.45
501.67	16182.46
501.84	15887.56
502.02	15859.47
502.20	16367.37
502.37	16177.78
502.55	16159.06
502.72	16184.80
502.90	16159.06
503.07	16056.08
503.25	16175.44
503.43	16201.19
503.60	16613.12
503.78	16236.30
503.95	16451.63
504.13	16718.45
504.30	16783.98
504.48	16678.66
504.65	16585.04
504.83	16886.97
505.01	16931.44
505.18	17057.82
505.36	17146.76
505.53	16645.89
505.71	16884.62
505.88	17167.83
506.06	17128.04
506.23	17261.45
506.41	17125.70
506.58	17298.90
506.76	17228.68
506.93	17352.73
507.11	17280.18
507.28	17261.45
507.46	17549.34
507.63	17612.53
507.81	17708.49
507.98	17675.73
508.16	17776.37
508.33	17694.45
508.50	17961.27
508.68	17989.36
508.85	17774.03
509.03	18153.20
509.20	17926.16
509.38	18408.31
509.55	18277.24
509.73	18120.43
509.90	18162.56
510.08	18129.79
510.25	18111.07
510.42	18668.11
510.60	18565.13
510.77	18759.39
510.95	18710.24
511.12	18492.57
511.30	18766.42
511.47	18588.53
511.64	18726.63
511.82	18934.93
511.99	18998.13
512.17	18888.12
512.34	18831.95
512.51	19119.84
512.69	18991.11
512.86	19108.13
513.04	19510.71
513.21	19328.14
513.38	19679.22
513.56	19611.35
513.73	19276.65
513.90	19747.10
514.08	19449.85
514.25	19644.12
514.43	19496.66
514.60	19922.64
514.77	19960.09
514.95	19779.87
515.12	19604.33
515.29	19660.50
515.47	19868.81
515.64	20133.29
515.81	20056.05
515.99	20287.76
516.16	20542.88
516.33	20322.87
516.51	20142.65
516.68	19969.45
516.85	20243.29
517.03	19999.88
517.20	20255.00
517.37	20510.11
517.54	20341.60
517.72	20690.34
517.89	20622.46
518.06	20332.23
518.24	20524.16
518.41	20528.84
518.58	20870.56
518.75	20924.39
518.93	20828.43
519.10	20758.21
519.27	20999.29
519.45	20882.26
519.62	20861.19
519.79	21338.66
519.96	21085.89
520.14	21287.17
520.31	20910.35
520.48	21420.58
520.65	21057.80
520.83	21497.82
521.00	21678.04
521.17	21481.44
521.34	21364.41
521.52	21565.70
521.69	21415.90
521.86	21570.38
522.03	21350.37
522.20	21694.43
522.38	21551.65
522.55	21820.81
522.72	21912.10
522.89	21598.46
523.07	22073.59
523.24	21935.50
523.41	22050.19
523.58	21752.94
523.75	22324.03
523.92	22258.49
524.10	22293.60
524.27	22300.62
524.44	22455.10
524.61	22766.39
524.78	22260.84
524.96	22253.81
525.13	22525.32
525.30	22544.04
525.47	22274.88
525.64	22553.40
525.81	22539.36
525.98	22927.89
526.16	22963.00
526.33	22539.36
526.50	23133.86
526.67	22721.92
526.84	22813.20
527.01	22733.62
527.18	23150.24
527.36	22670.43
527.53	23005.13
527.70	23531.75
527.87	23332.80
528.04	23300.03
528.21	23241.52
528.38	23049.60
528.55	22941.93
528.72	23623.03
528.89	23627.71
529.07	23353.87
529.24	23232.16
529.41	23599.62
529.58	23328.12
529.75	23377.27
529.92	23187.69
530.09	23501.32
530.26	23559.83
530.43	23681.54
530.60	23323.44
530.77	23360.89
530.94	23681.54
531.11	23899.21
531.28	23576.22
531.46	23920.28
531.63	23709.63
531.80	24137.94
531.97	24159.01
532.14	24257.31
532.31	23576.22
532.48	23910.91
532.65	23927.30
532.82	24056.03
532.99	24194.12
533.16	23892.19
533.33	24456.26
533.50	24482.00
533.67	24507.75
533.84	23882.83
534.01	24030.28
534.18	23964.75
534.35	24489.03
534.52	24109.86
534.69	24837.76
534.86	24505.41
535.03	24882.24
535.20	24390.72
535.37	24496.05
535.54	24606.05
535.71	24519.45
535.88	24482.00
536.05	24690.31
536.22	24966.49
536.38	24854.15
536.55	25064.80
536.72	24896.28
536.89	24800.32
537.06	25039.05
537.23	25099.90
537.40	25170.12
537.57	24776.91
537.74	25050.75
537.91	25146.72
538.08	25221.61
538.25	25221.61
538.42	25205.23
538.59	25415.88
538.75	24879.89
538.92	25191.19
539.09	25230.98
539.26	25109.27
539.43	25282.47
539.60	25460.35
539.77	25364.39
539.94	25294.17
540.11	25305.87
540.28	25111.61
540.44	25390.13
540.61	25523.54
540.78	25387.79
540.95	25900.37
541.12	25579.71
541.29	25823.13
541.46	25755.26
541.62	25474.39
541.79	25600.78
541.96	25380.77
542.13	25844.20
542.30	25865.26
542.47	25769.30
542.63	26209.32
542.80	25886.32
542.97	26096.97
543.14	26178.89
543.31	26134.42
543.48	26204.64
543.64	26223.36
543.81	26513.59
543.98	26548.70
544.15	26525.29
544.32	26511.25
544.48	26551.04
544.65	26274.85
544.82	26228.04
544.99	26270.17
545.16	26609.55
545.32	26214.00
545.49	26717.22
545.66	27072.98
545.83	26703.17
546.00	26923.18
546.16	26817.86
546.33	26291.24
546.50	26635.30
546.67	26473.80
546.83	26424.65
547.00	26658.70
547.17	26419.97
547.34	26726.58
547.50	27019.14
547.67	27234.47
547.84	26829.56
548.00	27159.58
548.17	27065.96
548.34	26890.41
548.51	27161.92
548.67	27206.39
548.84	27246.18
549.01	26946.59
549.18	27194.68
549.34	27222.77
549.51	27131.49
549.68	27175.96
549.84	27000.42
550.01	27274.26
550.18	27101.06
550.34	27615.98
550.51	27473.21
550.68	27576.19
550.84	27000.42
551.01	27454.48
551.18	27316.39
551.34	27007.44
551.51	27669.81
551.68	26974.67
551.84	27489.59
552.01	27976.42
552.18	27447.46
552.34	28039.62
552.51	27817.27
552.68	27733.01
552.84	27431.08
553.01	27875.78
553.18	27487.25
553.34	27964.72
553.51	27463.85
553.67	27814.93
553.84	28339.21
554.01	28098.13
554.17	28196.43
554.34	27969.40
554.51	27667.47
554.67	27983.44
554.84	28081.75
555.00	27995.15
555.17	28109.83
555.33	27868.76
555.50	27950.68
555.67	28250.27
555.83	27941.32
556.00	27800.88
556.16	28025.57
556.33	28046.64
556.50	28222.18
556.66	28711.35
556.83	28212.82
556.99	28463.25
557.16	28472.62
557.32	28086.43
557.49	28577.94
557.65	27789.18
557.82	28280.69
557.98	28402.40
558.15	28322.82
558.32	28442.19
558.48	28357.93
558.65	28343.89
558.81	28446.87
558.98	28395.38
559.14	28706.67
559.31	28332.18
559.47	28481.98
559.64	28343.89
559.80	28561.56
559.97	28507.72
560.13	28591.98
560.30	28580.28
560.46	28709.01
560.63	28760.50
560.79	28627.09
560.96	28772.21
561.12	28603.69
561.29	28477.30
561.45	28512.41
561.61	28613.05
561.78	29015.62
561.94	28809.65
562.11	28879.87
562.27	28549.85
562.44	28519.43
562.60	28863.49
562.77	28577.94
562.93	28458.57
563.10	29296.49
563.26	28575.60
563.42	29469.69
563.59	28837.74
563.75	29252.02
563.92	29092.86
564.08	29034.35
564.24	28889.23
564.41	28673.90
564.57	29022.64
564.74	29221.59
564.90	29514.16
565.07	28699.65
565.23	28973.49
565.39	29268.40
565.56	28931.36
565.72	28996.90
565.88	28835.40
566.05	28929.02
566.21	28678.58
566.38	29139.67
566.54	29088.18
566.70	29486.07
566.87	29268.40
567.03	29191.16
567.19	29345.64
567.36	29436.92
567.52	28968.81
567.68	29418.19
567.85	29153.71
568.01	29263.72
568.17	29174.78
568.34	29071.79
568.50	29294.14
568.66	29294.14
568.83	28950.09
568.99	29270.74
569.15	29078.82
569.32	29230.95
569.48	29088.18
569.64	29476.71
569.81	29057.75
569.97	29369.04
570.13	29287.12
570.30	29081.16
570.46	29645.23
570.62	29099.88
570.78	29228.61
570.95	29074.13
571.11	29221.59
571.27	29083.50
571.43	29118.60
571.60	29516.50
571.76	29198.18
571.92	29151.37
572.09	29450.96
572.25	29624.16
572.41	29621.82
572.57	29294.14
572.74	29701.40
572.90	29226.27
573.06	29130.31
573.22	29333.93
573.38	29305.85
573.55	29689.70
573.71	30029.07
573.87	29546.92
574.03	29343.30
574.20	29387.77
574.36	29696.72
574.52	29191.16
574.68	29387.77
574.84	29766.93
575.01	29240.31
575.17	29331.59
575.33	29598.41
575.49	29422.87
575.65	29607.78
575.82	29795.02
575.98	29778.64
576.14	29715.44
576.30	29551.60
576.46	29633.52
576.62	29127.97
576.79	29645.23
576.95	29460.32
577.11	29516.50
577.27	29886.30
577.43	29883.96
577.59	29631.18
577.75	29631.18
577.92	29596.07
578.08	29582.03
578.24	29556.28
578.40	29635.86
578.56	29780.98
578.72	29591.39
578.88	29645.23
579.04	29972.90
579.21	29432.24
579.37	29757.57
579.53	29858.21
579.69	29729.48
579.85	29617.14
580.01	29195.84
580.17	29523.52
580.33	30003.33
580.49	30125.04
580.65	29647.57
580.82	29954.18
580.98	30015.03
581.14	29584.37
581.30	29874.60
581.46	29436.92
581.62	29570.33
581.78	29589.05
581.94	29823.11
582.10	29404.15
582.26	29572.67
582.42	29427.56
582.58	29879.28
582.74	29268.40
582.90	29869.92
583.06	29457.98
583.22	29933.11
583.38	29525.86
583.54	29764.59
583.70	29418.19
583.86	29469.69
584.02	29890.98
584.18	29631.18
584.34	29869.92
584.50	29631.18
584.66	29713.10
584.82	29490.75
584.98	29551.60
585.14	29743.53
585.30	29647.57
585.46	29582.03
585.62	29596.07
585.78	29769.27
585.94	29680.33
586.10	29638.20
586.26	30043.12
586.42	29841.83
586.58	30307.60
586.74	29881.62
586.90	29865.24
587.06	29483.73
587.22	30089.93
587.38	29865.24
587.54	29558.63
587.70	30061.84
587.86	29818.42
588.02	30122.69
588.18	29766.93
588.34	30043.12
588.49	30136.74
588.65	29741.19
588.81	29776.30
588.97	30218.66
589.13	29788.00
589.29	29923.75
589.45	30118.01
589.61	29752.89
589.77	30071.20
589.93	30047.80
590.08	29820.77
590.24	30115.67
590.40	30600.16
590.56	30017.37
590.72	29975.24
590.88	29858.21
591.04	30064.18
591.20	30162.48
591.35	30534.63
591.51	30541.65
591.67	29940.13
591.83	30120.35
591.99	30272.49
592.15	30279.51
592.31	30162.48
592.46	30155.46
592.62	30148.44
592.78	30085.25
592.94	30359.09
593.10	29993.97
593.26	30553.35
593.41	29858.21
593.57	30272.49
593.73	30206.95
593.89	30316.96
594.05	30410.58
594.20	30328.66
594.36	29951.84
594.52	30197.59
594.68	29874.60
594.84	29823.11
594.99	30614.21
595.15	30265.47
595.31	30485.48
595.47	30267.81
595.62	30436.33
595.78	30270.15
595.94	30164.82
596.10	30387.18
596.25	30230.36
596.41	30108.65
596.57	30085.25
596.73	30562.72
596.88	30239.72
597.04	30211.64
597.20	30096.95
597.36	30469.09
597.51	30752.30
597.67	30335.68
597.83	30213.98
597.99	30485.48
598.14	29975.24
598.30	30251.42
598.46	30398.88
598.61	30345.05
598.77	30139.08
598.93	31016.78
599.09	30340.36
599.24	30827.20
599.40	30195.25
599.56	30628.25
599.71	30443.35
599.87	30654.00
600.03	30368.45
600.18	30331.00
600.34	30499.52
600.50	30171.85
600.65	30492.50
600.81	30263.13
600.97	30487.82
601.12	30441.01
601.28	30525.27
601.44	30403.56
601.59	30967.63
601.75	30307.60
601.91	30639.95
602.06	30338.02
602.22	30302.92
602.37	30373.13
602.53	30511.22
602.69	30448.03
602.84	30424.62
603.00	30188.23
603.16	30398.88
603.31	30569.74
603.47	30256.11
603.62	30356.75
603.78	30284.19
603.94	29984.60
604.09	30515.90
604.25	30529.95
604.40	30490.16
604.56	30040.78
604.71	30471.43
604.87	30338.02
605.03	30394.20
605.18	30480.80
605.34	30436.33
605.49	30066.52
605.65	30401.22
605.80	29940.13
605.96	30162.48
606.12	30213.98
606.27	30560.37
606.43	29996.31
606.58	30511.22
606.74	30235.04
606.89	30129.72
607.05	30450.37
607.20	30466.75
607.36	30113.33
607.51	30281.85
607.67	29844.17
607.82	30270.15
607.98	30314.62
608.13	30291.21
608.29	30043.12
608.44	30108.65
608.60	29923.75
608.75	30539.31
608.91	30410.58
609.06	30260.79
609.22	30534.63
609.37	30038.44
609.53	30232.70
609.68	30354.41
609.84	29982.26
609.99	29823.11
610.15	29783.32
610.30	29715.44
610.46	29848.85
610.61	30380.15
610.76	30426.96
610.92	30352.07
611.07	30101.63
611.23	30047.80
611.38	30672.72
611.54	29898.00
611.69	30057.16
611.84	29811.40
612.00	29624.16
612.15	29790.34
612.31	30010.35
612.46	29951.84
612.62	30190.57
612.77	30064.18
612.92	29876.94
613.08	29902.68
613.23	29965.88
613.39	29975.24
613.54	29663.95
613.69	29750.55
613.85	30008.01
614.00	30059.50
614.15	30174.19
614.31	29883.96
614.46	29888.64
614.62	29804.38
614.77	29876.94
614.92	30043.12
615.08	29612.46
615.23	29687.36
615.38	29612.46
615.54	29497.77
615.69	29563.31
615.84	29553.94
616.00	29748.21
616.15	30026.73
616.30	29542.24
616.46	29577.35
616.61	29584.37
616.76	29986.94
616.92	29500.11
617.07	29780.98
617.22	29591.39
617.37	29610.12
617.53	29792.68
617.68	29502.45
617.83	29315.21
617.99	29425.22
618.14	29146.69
618.29	29624.16
618.45	29369.04
618.60	29495.43
618.75	29518.84
618.90	29350.32
619.06	29455.64
619.21	29497.77
619.36	29104.56
619.51	29259.04
619.67	29071.79
619.82	28891.57
619.97	29125.63
620.12	29125.63
620.28	29179.46
620.43	29064.77
620.58	29277.76
620.73	29518.84
620.89	28952.43
621.04	29582.03
621.19	29455.64
621.34	29298.83
621.49	28797.95
621.65	28926.68
621.80	28903.28
621.95	29118.60
622.10	28875.19
622.25	29160.73
622.41	29039.03
622.56	29015.62
622.71	29270.74
622.86	29170.10
623.01	29144.35
623.16	29074.13
623.32	28877.53
623.47	28943.06
623.62	29301.17
623.77	28795.61
623.92	29022.64
624.07	28779.23
624.23	28613.05
624.38	28905.62
624.53	28716.03
624.68	28910.30
624.83	29034.35
624.98	28903.28
625.13	29015.62
625.29	29060.09
625.44	28694.97
625.59	28699.65
625.74	28671.56
625.89	28573.26
626.04	28591.98
626.19	28594.32
626.34	28545.17
626.49	28496.02
626.65	28435.17
626.80	28744.12
626.95	28278.35
627.10	28105.15
627.25	28297.08
627.40	28414.10
627.55	28519.43
627.70	28692.63
627.85	28072.39
628.00	28112.17
628.15	28187.07
628.30	28114.52
628.45	27990.47
628.60	28091.11
628.76	28168.35
628.91	28198.77
629.06	28390.70
629.21	28215.16
629.36	28250.27
629.51	28236.22
629.66	28381.34
629.81	27981.10
629.96	27585.55
630.11	28051.32
630.26	28271.33
630.41	28329.84
630.56	27910.89
630.71	27707.26
630.86	28292.40
631.01	28130.90
631.16	27990.47
631.31	27857.06
631.46	27660.45
631.61	28582.62
631.76	28212.82
631.91	28027.92
632.06	28126.22
632.21	27601.94
632.36	27854.72
632.51	27438.10
632.66	27623.00
632.81	27910.89
632.96	27800.88
633.10	27864.08
633.25	27995.15
633.40	27960.04
633.55	27747.05
633.70	27601.94
633.85	27580.87
634.00	27342.14
634.15	27564.49
634.30	27438.10
634.45	27084.68
634.60	27515.34
634.75	27768.12
634.90	27566.83
635.05	27810.25
635.19	27843.01
635.34	27892.16
635.49	27711.94
635.64	27887.48
635.79	27941.32
635.94	27269.58
636.09	27344.48
636.24	27243.84
636.39	27185.32
636.53	27173.62
636.68	27030.85
636.83	26955.95
636.98	27262.56
637.13	27058.93
637.28	27234.47
637.43	27433.42
637.57	27206.39
637.72	27248.52
637.87	26838.92
638.02	27157.24
638.17	27180.64
638.32	27133.83
638.46	27129.15
638.61	27005.10
638.76	26799.13
638.91	27065.96
639.06	26684.45
639.20	27115.11
639.35	27089.36
639.50	27075.32
639.65	27285.97
639.80	26541.68
639.94	27178.30
640.09	26960.63
640.24	26885.73
640.39	26806.16
640.54	26892.76
640.68	26684.45
640.83	26553.38
640.98	26534.65
641.13	26604.87
641.27	26717.22
641.42	26590.83
641.57	26771.05
641.72	26878.71
641.86	26490.18
642.01	26953.61
642.16	26852.97
642.31	26546.36
642.45	26864.67
642.60	26391.88
642.75	26569.76
642.90	26410.60
643.04	26515.93
643.19	26532.31
643.34	26490.18
643.48	26410.60
643.63	26590.83
643.78	26443.37
643.93	26698.49
644.07	26216.34
644.22	26450.39
644.37	26480.82
644.51	26169.53
644.66	26347.41
644.81	26434.01
644.95	26457.42
645.10	26429.33
645.25	26377.84
645.39	26244.43
645.54	26642.32
645.69	26040.80
645.83	26349.75
645.98	26426.99
646.13	26445.71
646.27	26639.98
646.42	26562.74
646.57	26483.16
646.71	25996.33
646.86	26141.44
647.00	25975.27
647.15	26185.91
647.30	25944.84
647.44	26108.68
647.59	26188.25
647.74	26195.28
647.88	25951.86
648.03	25993.99
648.17	26242.09
648.32	26183.57
648.47	26204.64
648.61	26141.44
648.76	26169.53
648.90	25984.63
649.05	26480.82
649.20	26038.46
649.34	25935.48
649.49	25656.95
649.63	25806.75
649.78	25717.81
649.92	25851.22
650.07	25537.59
650.21	25635.89
650.36	25876.96
650.51	25319.92
650.65	25647.59
650.80	26008.03
650.94	25715.47
651.09	25757.60
651.23	25448.64
651.38	25605.46
651.52	25322.26
651.67	25795.04
651.81	25963.56
651.96	25598.44
652.10	25640.57
652.25	25792.70
652.39	25830.15
652.54	25692.06
652.68	25565.67
652.83	25792.70
652.97	25795.04
653.12	25717.81
653.26	25701.42
653.41	25577.37
653.55	25612.48
653.70	25317.57
653.84	25195.87
653.99	25329.28
654.13	25289.49
654.27	25144.38
654.42	25324.60
654.56	25305.87
654.71	25401.83
654.85	25504.82
655.00	25472.05
655.14	25249.70
655.29	25394.81
655.43	25408.86
655.57	25310.55
655.72	24863.51
655.86	24907.98
656.01	25156.08
656.15	25521.20
656.30	24975.86
656.44	24999.26
656.58	24814.36
656.73	24992.24
656.87	24840.11
657.01	24917.34
657.16	25167.78
657.30	25256.72
657.45	25195.87
657.59	24905.64
657.73	24716.06
657.88	25025.01
658.02	25099.90
658.16	24982.88
658.31	25039.05
658.45	24760.53
658.60	24634.14
658.74	24606.05
658.88	24603.71
659.03	24404.77
659.17	24601.37
659.31	24687.97
659.46	24575.62
659.60	24690.31
659.74	24776.91
659.89	24938.41
660.03	24297.10
660.17	24568.60
660.32	24526.47
660.46	25022.67
660.60	24205.82
660.74	24439.87
660.89	24297.10
661.03	24346.25
661.17	24243.27
661.32	24479.66
661.46	24222.20
661.60	24149.65
661.74	24205.82
661.89	24292.42
662.03	24269.01
662.17	24257.31
662.31	24114.54
662.46	24093.47
662.60	24128.58
662.74	23901.55
662.88	23779.84
663.03	24039.64
663.17	23803.25
663.31	23697.92
663.45	23896.87
663.60	24121.56
663.74	23721.33
663.88	23868.78
664.02	23618.35
664.17	23817.29
664.31	23754.10
664.45	23775.16
664.59	23857.08
664.73	23756.44
664.88	23658.14
665.02	23201.73
665.16	23199.39
665.30	23255.56
665.44	23351.52
665.59	23403.02
665.73	23168.96
665.87	23180.67
666.01	23330.46
666.15	23232.16
666.29	23119.81
666.44	23431.10
666.58	22834.27
666.72	22946.61
666.86	23281.31
667.00	23051.94
667.14	23246.20
667.28	22810.86
667.43	22977.04
667.57	22918.53
667.71	22452.76
667.85	22588.51
667.99	23019.17
668.13	22586.17
668.27	22565.10
668.41	22885.76
668.56	22705.54
668.70	22852.99
668.84	22733.62
668.98	22331.05
669.12	22462.12
669.26	22782.77
669.40	22321.69
669.54	22317.01
669.68	22335.73
669.82	22434.03
669.96	22211.68
670.10	22370.84
670.25	22202.32
670.39	22054.87
670.53	22562.76
670.67	21984.65
670.81	22073.59
670.95	22155.51
671.09	22127.42
671.23	22305.31
671.37	22127.42
671.51	22207.00
671.65	22129.77
671.79	21961.25
671.93	21881.67
672.07	21851.24
672.21	21818.47
672.35	21277.81
672.49	21432.29
672.63	21830.18
672.77	21434.63
672.91	21497.82
673.05	21701.45
673.19	21451.01
673.33	21467.39
673.47	21495.48
673.61	21563.36
673.75	21394.84
673.89	21249.72
674.03	21263.77
674.17	21245.04
674.31	21097.59
674.45	21111.63
674.59	21027.37
674.73	21310.58
674.87	20865.88
675.01	20938.43
675.15	20589.69
675.29	20826.09
675.43	21013.33
675.56	20786.30
675.70	21149.08
675.84	20802.68
675.98	20315.85
676.12	20835.45
676.26	20931.41
676.40	20716.08
676.54	20805.02
676.68	20425.86
676.82	20252.66
676.96	20400.11
677.10	20327.55
677.23	20365.00
677.37	20231.59
677.51	20159.03
677.65	20343.94
677.79	20077.12
677.93	19985.83
678.07	19740.08
678.21	19700.29
678.34	19852.42
678.48	19400.70
678.62	19484.96
678.76	19391.34
678.90	19283.67
679.04	19253.25
679.18	19309.42
679.31	18930.25
679.45	19304.74
679.59	18967.70
679.73	19311.76
679.87	18640.03
680.00	18885.78
680.14	18855.36
680.28	19007.49
680.42	19007.49
680.56	19197.07
680.70	18665.77
680.83	18850.67
680.97	18625.98
681.11	18731.31
681.25	18452.78
681.39	18609.60
681.52	18443.42
681.66	18408.31
681.80	18153.20
681.94	18469.17
682.07	18504.28
682.21	18368.52
682.35	17862.97
682.49	18036.17
682.62	18043.19
682.76	17989.36
682.90	17902.76
683.04	17781.05
683.17	18204.69
683.31	17523.59
683.45	17865.31
683.59	17572.74
683.72	17617.21
683.86	17359.75
684.00	17638.28
684.13	17481.46
684.27	17341.03
684.41	17422.95
684.55	17376.14
684.68	17078.89
684.82	16823.77
684.96	16908.03
685.09	16989.95
685.23	16601.42
685.37	17006.33
685.50	16879.94
685.64	17078.89
685.78	16877.60
685.91	16891.65
686.05	17036.76
686.19	16706.74
686.32	16812.07
686.46	16428.22
686.60	16299.49
686.73	16528.86
686.87	16519.50
687.01	16236.30
687.14	16360.34
687.28	15957.77
687.42	16114.59
687.55	16116.93
687.69	16128.63
687.82	16105.23
687.96	16175.44
688.10	15896.92
688.23	15707.34
688.37	15786.91
688.50	16175.44
688.64	15833.72
688.78	15754.15
688.91	15403.07
689.05	15513.07
689.18	15602.01
689.32	15059.01
689.46	15234.55
689.59	15159.65
689.73	15295.40
689.86	15264.97
690.00	15215.82
690.13	15459.24
690.27	14960.70
690.41	15115.18
690.54	15000.49
690.68	14970.07
690.81	15073.05
690.95	14916.23
691.08	14897.51
691.22	14918.57
691.35	14941.98
691.49	14806.23
691.62	14476.21
691.76	14562.81
691.89	14457.49
692.03	14352.16
692.16	14249.18
692.30	14169.60
692.43	14347.48
692.57	14185.99
692.70	14064.28
692.84	14122.79
692.97	14104.07
693.11	13982.36
693.24	14064.28
693.38	13944.91
693.51	14005.77
693.65	13973.00
693.78	13813.84
693.92	13633.62
694.05	13752.99
694.19	13661.71
694.32	13575.11
694.45	13266.16
694.59	12924.44
694.72	13078.91
694.86	13397.23
694.99	13151.47
695.13	13095.30
695.26	13338.71
695.39	13001.68
695.53	13036.78
695.66	13163.17
695.80	12915.08
695.93	13027.42
696.07	12961.89
696.20	13142.11
696.33	13076.57
696.47	12809.75
696.60	12774.64
696.73	12599.10
696.87	12542.93
697.00	12313.56
697.14	12442.29
697.27	12552.29
697.40	12257.39
697.54	12290.15
697.67	12154.40
697.80	12212.92
697.94	12116.95
698.07	12028.01
698.21	11908.65
698.34	12219.94
698.47	12067.80
698.61	11990.56
698.74	12196.53
698.87	11967.16
699.01	11709.70
699.14	11815.02
699.27	11810.34
699.40	11517.78
699.54	11466.28
699.67	11477.99
699.80	11721.40
699.94	11384.37
700.07	11082.44
700.20	11131.59
700.34	11133.93
700.47	11325.85
700.60	11246.27
700.73	11349.26
700.87	11370.32
701.00	11124.57
701.13	11140.95
701.26	11080.10
701.40	11016.90
701.53	10890.51
701.66	10864.77
701.79	10911.58
701.93	10733.70
702.06	10651.78
702.19	10768.80
702.32	10539.43
702.46	10370.91
702.59	10450.49
702.72	10279.63
702.85	10349.85
702.99	10537.09
703.12	10228.14
703.25	10274.95
703.38	10214.10
703.51	10235.16
703.65	10155.58
703.78	10026.86
703.91	10186.01
704.04	10186.01
704.17	9963.66
704.31	9958.98
704.44	9825.57
704.57	9783.44
704.70	9813.87
704.83	9839.61
704.96	9717.90
705.10	9570.45
705.23	9542.36
>>>>>End Processed Spectral Data<<<<<
