SpectraSuite Data File
++++++++++++++++++++++++++++++++++++
Date: Fri Oct 18 13:58:00 GMT-05:00 2013
User: bianchi
Dark Spectrum Present: No
Reference Spectrum Present: No
Number of Sampled Component Spectra: 1
Spectrometers: USB2+H05261
Integration Time (usec): 50000 (USB2+H05261)
Spectra Averaged: 1 (USB2+H05261)
Boxcar Smoothing: 0 (USB2+H05261)
Correct for Electrical Dark: No (USB2+H05261)
Strobe/Lamp Enabled: No (USB2+H05261)
Correct for Detector Non-linearity: No (USB2+H05261)
Correct for Stray Light: No (USB2+H05261)
Number of Pixels in Processed Spectrum: 2048
>>>>>Begin Processed Spectral Data<<<<<
365.73	0.00
365.92	0.00
366.12	0.00
366.32	0.00
366.52	0.00
366.72	0.00
366.91	0.00
367.11	0.00
367.31	0.00
367.51	0.00
367.70	0.00
367.90	0.00
368.10	0.00
368.30	0.00
368.49	0.00
368.69	0.00
368.89	0.00
369.09	0.00
369.28	0.00
369.48	0.00
369.68	0.00
369.87	0.00
370.07	0.00
370.27	0.00
370.47	0.00
370.66	4.68
370.86	93.62
371.06	131.07
371.25	93.62
371.45	28.09
371.65	175.54
371.84	119.37
372.04	135.75
372.24	194.26
372.44	220.01
372.63	117.03
372.83	236.39
373.03	227.03
373.22	166.18
373.42	170.86
373.62	210.65
373.81	273.84
374.01	194.26
374.21	220.01
374.40	198.95
374.60	271.50
374.79	203.63
374.99	234.05
375.19	229.37
375.38	280.86
375.58	196.60
375.78	234.05
375.97	245.76
376.17	330.02
376.37	231.71
376.56	229.37
376.76	245.76
376.95	381.51
377.15	227.03
377.35	278.52
377.54	273.84
377.74	187.24
377.93	236.39
378.13	266.82
378.33	283.20
378.52	259.80
378.72	280.86
378.91	344.06
379.11	308.95
379.31	271.50
379.50	257.46
379.70	318.31
379.89	381.51
380.09	297.25
380.28	360.44
380.48	346.40
380.68	332.36
380.87	304.27
381.07	299.59
381.26	297.25
381.46	304.27
381.65	330.02
381.85	386.19
382.04	325.33
382.24	353.42
382.43	367.46
382.63	304.27
382.83	390.87
383.02	334.70
383.22	287.89
383.41	355.76
383.61	278.52
383.80	365.12
384.00	330.02
384.19	425.98
384.39	374.49
384.58	372.15
384.78	346.40
384.97	306.61
385.17	362.78
385.36	369.80
385.56	421.30
385.75	383.85
385.95	423.64
386.14	383.85
386.34	393.21
386.53	358.10
386.72	360.44
386.92	430.66
387.11	402.57
387.31	388.53
387.50	409.59
387.70	489.17
387.89	475.13
388.09	372.15
388.28	461.09
388.48	456.40
388.67	386.19
388.86	381.51
389.06	451.72
389.25	493.85
389.45	418.96
389.64	397.89
389.84	517.26
390.03	437.68
390.22	425.98
390.42	433.00
390.61	594.50
390.81	456.40
391.00	458.74
391.19	477.47
391.39	470.45
391.58	573.43
391.78	507.90
391.97	538.32
392.16	437.68
392.36	589.82
392.55	566.41
392.75	491.51
392.94	571.09
393.13	510.24
393.33	557.05
393.52	498.53
393.71	610.88
393.91	575.77
394.10	571.09
394.29	531.30
394.49	613.22
394.68	702.16
394.88	615.56
395.07	603.86
395.26	627.26
395.46	622.58
395.65	603.86
395.84	615.56
396.04	683.44
396.23	624.92
396.42	709.18
396.62	699.82
396.81	758.33
397.00	643.65
397.19	627.26
397.39	545.34
397.58	732.59
397.77	702.16
397.97	737.27
398.16	716.20
398.35	671.73
398.55	720.88
398.74	746.63
398.93	737.27
399.12	737.27
399.32	662.37
399.51	690.46
399.70	774.72
399.90	664.71
400.09	695.14
400.28	732.59
400.47	739.61
400.67	830.89
400.86	847.27
401.05	802.80
401.24	823.87
401.44	816.85
401.63	840.25
401.82	835.57
402.01	793.44
402.21	767.70
402.40	718.54
402.59	795.78
402.78	898.77
402.97	938.55
403.17	837.91
403.36	812.17
403.55	828.55
403.74	884.72
403.93	959.62
404.13	945.58
404.32	877.70
404.51	898.77
404.70	851.96
404.89	917.49
405.09	1004.09
405.28	1053.24
405.47	908.13
405.66	992.39
405.85	961.96
406.05	1036.86
406.24	1001.75
406.43	978.34
406.62	1139.84
406.81	1022.81
407.00	976.00
407.20	1015.79
407.39	1069.62
407.58	1107.07
407.77	1001.75
407.96	1132.82
408.15	1114.10
408.34	1071.97
408.54	1100.05
408.73	1146.86
408.92	1123.46
409.11	1036.86
409.30	1151.54
409.49	1123.46
409.68	1191.33
409.87	1245.16
410.07	1184.31
410.26	1153.88
410.45	1277.93
410.64	1177.29
410.83	1174.95
411.02	1207.72
411.21	1184.31
411.40	1235.80
411.59	1280.27
411.78	1245.16
411.98	1200.69
412.17	1266.23
412.36	1301.34
412.55	1345.81
412.74	1306.02
412.93	1359.85
413.12	1378.58
413.31	1423.05
413.50	1329.42
413.69	1291.98
413.88	1420.71
414.07	1446.45
414.26	1364.53
414.45	1413.68
414.64	1474.54
414.83	1500.28
415.02	1451.13
415.22	1462.83
415.41	1558.80
415.60	1533.05
415.79	1451.13
415.98	1685.19
416.17	1626.67
416.36	1502.62
416.55	1668.80
416.74	1640.72
416.93	1696.89
417.12	1624.33
417.31	1680.50
417.50	1717.95
417.69	1795.19
417.88	1685.19
418.07	1701.57
418.26	1755.40
418.45	1769.44
418.64	1832.64
418.83	1863.07
419.02	1724.97
419.21	1902.86
419.39	1776.47
419.58	1743.70
419.77	1799.87
419.96	1870.09
420.15	1923.92
420.34	1912.22
420.53	1916.90
420.72	1886.47
420.91	1830.30
421.10	1968.39
421.29	1916.90
421.48	1975.41
421.67	2022.22
421.86	1898.17
422.05	1991.80
422.24	2059.67
422.43	1973.07
422.61	1977.75
422.80	2157.97
422.99	1989.46
423.18	2022.22
423.37	2094.78
423.56	1954.35
423.75	2073.71
423.94	1851.36
424.13	1851.36
424.32	1842.00
424.50	2001.16
424.69	2139.25
424.88	2108.82
425.07	1998.82
425.26	2022.22
425.45	2106.48
425.64	2099.46
425.83	2073.71
426.01	1989.46
426.20	1942.64
426.39	2120.53
426.58	2101.80
426.77	2062.01
426.96	2129.89
427.15	2150.95
427.33	2165.00
427.52	2148.61
427.71	2099.46
427.90	2115.84
428.09	2153.29
428.28	2176.70
428.46	2230.53
428.65	2214.15
428.84	2225.85
429.03	2242.23
429.22	2221.17
429.40	2289.04
429.59	2237.55
429.78	2216.49
429.97	2106.48
430.16	2284.36
430.34	2169.68
430.53	2326.49
430.72	2246.91
430.91	2359.26
431.10	2326.49
431.28	2356.92
431.47	2354.58
431.66	2338.20
431.85	2335.85
432.03	2267.98
432.22	2530.12
432.41	2349.90
432.60	2492.67
432.79	2490.33
432.97	2544.16
433.16	2513.74
433.35	2445.86
433.54	2455.22
433.72	2581.61
433.91	2410.75
434.10	2476.29
434.28	2424.80
434.47	2623.74
434.66	2518.42
434.85	2520.76
435.03	2441.18
435.22	2588.63
435.41	2609.70
435.59	2649.49
435.78	2590.97
435.97	2731.41
436.16	2597.99
436.34	2719.70
436.53	2700.98
436.72	2724.38
436.90	2654.17
437.09	2693.96
437.28	2649.49
437.46	2712.68
437.65	2719.70
437.84	2780.56
438.02	2726.72
438.21	2820.35
438.40	2729.06
438.58	2918.65
438.77	2972.48
438.96	2897.58
439.14	2757.15
439.33	3009.93
439.52	2935.03
439.70	2965.46
439.89	3005.25
440.08	2930.35
440.26	2939.71
440.45	3075.46
440.63	3173.77
440.82	3145.68
441.01	3206.53
441.19	3133.98
441.38	3133.98
441.57	3229.94
441.75	3138.66
441.94	3159.72
442.12	3227.60
442.31	3281.43
442.50	3206.53
442.68	3279.09
442.87	3335.26
443.05	3325.90
443.24	3288.45
443.43	3463.99
443.61	3391.44
443.80	3337.60
443.98	3358.67
444.17	3386.76
444.35	3555.27
444.54	3410.16
444.73	3379.73
444.91	3375.05
445.10	3391.44
445.28	3466.33
445.47	3396.12
445.65	3386.76
445.84	3510.80
446.02	3543.57
446.21	3412.50
446.39	3393.78
446.58	3555.27
446.77	3473.36
446.95	3534.21
447.14	3421.86
447.32	3445.27
447.51	3494.42
447.69	3543.57
447.88	3623.15
448.06	3428.88
448.25	3501.44
448.43	3623.15
448.62	3482.72
448.80	3623.15
448.99	3613.79
449.17	3672.30
449.36	3623.15
449.54	3634.85
449.73	3669.96
449.91	3672.30
450.10	3782.31
450.28	3674.64
450.46	3632.51
450.65	3637.19
450.83	3824.44
451.02	3660.60
451.20	3878.27
451.39	3873.59
451.57	3688.68
451.76	3714.43
451.94	3854.86
452.13	3871.25
452.31	3761.24
452.49	3880.61
452.68	3779.97
452.86	3719.11
453.05	3815.07
453.23	3922.74
453.42	3920.40
453.60	3868.91
453.78	3864.22
453.97	3861.88
454.15	3913.38
454.34	3838.48
454.52	4011.68
454.70	4046.79
454.89	4177.86
455.07	3960.19
455.26	4030.40
455.44	4121.68
455.62	4102.96
455.81	4067.85
455.99	4093.60
456.17	4175.52
456.36	4100.62
456.54	4147.43
456.73	4266.80
456.91	4299.56
457.09	4334.67
457.28	4210.62
457.46	4325.31
457.64	4255.09
457.83	4390.84
458.01	4447.02
458.19	4484.47
458.38	4416.59
458.56	4407.23
458.74	4449.36
458.93	4372.12
459.11	4418.93
459.29	4397.87
459.48	4500.85
459.66	4519.57
459.84	4458.72
460.03	4535.96
460.21	4542.98
460.39	4552.34
460.57	4606.17
460.76	4542.98
460.94	4631.92
461.12	4589.79
461.31	4554.68
461.49	4531.28
461.67	4526.60
461.85	4589.79
462.04	4732.56
462.22	4999.38
462.40	4713.84
462.59	4844.91
462.77	4725.54
462.95	4704.48
463.13	4770.01
463.32	4788.74
463.50	4849.59
463.68	4936.19
463.86	4741.93
464.05	4830.87
464.23	4828.53
464.41	4877.68
464.59	4718.52
464.78	4980.66
464.96	4800.44
465.14	4912.78
465.32	4875.34
465.50	4933.85
465.69	5046.20
465.87	4805.12
466.05	5022.79
466.23	4851.93
466.41	5006.41
466.60	5217.05
466.78	5104.71
466.96	5085.98
467.14	5111.73
467.32	5116.41
467.51	5064.92
467.69	5088.32
467.87	5188.97
468.05	5165.56
468.23	5109.39
468.41	5184.29
468.60	5296.63
468.78	5219.39
468.96	5067.26
469.14	5329.40
469.32	5191.31
469.50	5039.17
469.69	5268.55
469.87	5472.17
470.05	5310.68
470.23	5364.51
470.41	5549.41
470.59	5476.85
470.77	5437.06
470.95	5472.17
471.14	5563.45
471.32	5441.75
471.50	5624.31
471.68	5544.73
471.86	5624.31
472.04	5631.33
472.22	5795.17
472.40	5638.35
472.58	5722.61
472.77	5825.59
472.95	5841.98
473.13	5863.04
473.31	5914.53
473.49	5692.18
473.67	5860.70
473.85	5898.15
474.03	6012.84
474.21	5888.79
474.39	6052.63
474.57	6054.97
474.75	6115.82
474.93	6225.82
475.12	6183.70
475.30	6143.91
475.48	6010.50
475.66	6087.73
475.84	6235.19
476.02	6406.05
476.20	6356.90
476.38	6431.79
476.56	6572.22
476.74	6609.67
476.92	6628.40
477.10	6600.31
477.28	6757.13
477.46	6502.01
477.64	6476.26
477.82	6881.18
478.00	6834.36
478.18	6937.35
478.36	7012.24
478.54	6958.41
478.72	7070.76
478.90	7133.95
479.08	7286.09
479.26	7358.64
479.44	7372.69
479.62	7375.03
479.80	7405.46
479.98	7393.75
480.16	7506.10
480.34	7487.37
480.52	7581.00
480.70	7595.04
480.88	7597.38
481.06	7779.94
481.24	7829.09
481.41	7756.54
481.59	7885.26
481.77	7911.01
481.95	8105.28
482.13	8163.79
482.31	8053.78
482.49	8255.07
482.67	8114.64
482.85	8479.76
483.03	8421.25
483.21	8418.91
483.39	8418.91
483.57	8500.83
483.74	8554.66
483.92	8842.54
484.10	8624.87
484.28	8828.50
484.46	9071.92
484.64	8992.34
484.82	8812.12
485.00	9310.65
485.18	9308.31
485.35	9434.70
485.53	9284.91
485.71	9490.87
485.89	9619.60
486.07	9708.54
486.25	9579.81
486.43	9647.69
486.61	9799.82
486.78	9820.89
486.96	9984.73
487.14	9877.06
487.32	10118.14
487.50	10274.95
487.68	10064.30
487.85	10590.92
488.03	10621.35
488.21	10424.75
488.39	10808.59
488.57	10822.64
488.75	10705.61
488.92	10888.17
489.10	10759.44
489.28	11009.88
489.46	11082.44
489.64	11075.42
489.81	11089.46
489.99	11176.06
490.17	11187.76
490.35	11487.35
490.53	11480.33
490.70	11861.84
490.88	11529.48
491.06	11580.97
491.24	11627.78
491.41	11646.51
491.59	11953.12
491.77	11969.50
491.95	12149.72
492.13	12053.76
492.30	12334.62
492.48	12173.13
492.66	12152.06
492.84	12346.33
493.01	12547.61
493.19	12566.34
493.37	12795.71
493.54	13050.83
493.72	12945.50
493.90	13125.72
494.08	13144.45
494.25	13275.52
494.43	12901.03
494.61	13233.39
494.79	13373.82
494.96	13336.37
495.14	13245.09
495.32	13568.09
495.49	13652.34
495.67	13827.88
495.85	13317.65
496.02	13902.78
496.20	14052.58
496.38	13909.80
496.55	14080.66
496.73	14354.51
496.91	13935.55
497.09	14242.16
497.26	14202.37
497.44	14534.73
497.62	14523.02
497.79	14569.83
497.97	14422.38
498.14	14640.05
498.32	14827.29
498.50	14831.97
498.67	15021.56
498.85	14981.77
499.03	14953.68
499.20	14916.23
499.38	15082.41
499.56	15164.33
499.73	15314.13
499.91	15183.06
500.08	15372.64
500.26	15091.77
500.44	15585.63
500.61	15410.09
500.79	15599.67
500.97	15571.58
501.14	15824.36
501.32	15789.25
501.49	15826.70
501.67	15548.18
501.84	15990.54
502.02	15819.68
502.20	16236.30
502.37	16100.55
502.55	16079.48
502.72	15901.60
502.90	15969.48
503.07	16039.69
503.25	16159.06
503.43	15957.77
503.60	16582.70
503.78	16444.60
503.95	16465.67
504.13	16580.36
504.30	16475.03
504.48	16472.69
504.65	16781.64
504.83	16835.47
505.01	17011.01
505.18	17177.19
505.36	17334.01
505.53	16954.84
505.71	16924.41
505.88	17343.37
506.06	17088.25
506.23	17362.09
506.41	17287.20
506.58	17633.60
506.76	17235.70
506.93	17834.88
507.11	17561.04
507.28	17689.77
507.46	17895.74
507.63	17631.26
507.81	17947.23
507.98	17809.14
508.16	17989.36
508.33	17902.76
508.50	17867.65
508.68	17617.21
508.85	18246.82
509.03	18160.22
509.20	18314.69
509.38	18462.15
509.55	18153.20
509.73	18307.67
509.90	18602.58
510.08	18298.31
510.25	18494.91
510.42	18382.57
510.60	19082.39
510.77	18607.26
510.95	18766.42
511.12	18686.84
511.30	18560.45
511.47	18740.67
511.64	19094.09
511.82	19047.28
511.99	18984.09
512.17	18937.27
512.34	19028.56
512.51	19187.71
512.69	19227.50
512.86	19068.34
513.04	19440.49
513.21	19456.87
513.38	19452.19
513.56	19440.49
513.73	19321.12
513.90	19604.33
514.08	19573.90
514.25	19594.96
514.43	19723.69
514.60	19709.65
514.77	19693.27
514.95	19850.08
515.12	19866.47
515.29	19854.76
515.47	19864.13
515.64	20247.97
515.81	19995.20
515.99	20458.62
516.16	20273.72
516.33	20112.22
516.51	20208.19
516.68	20250.32
516.85	19955.41
517.03	20519.48
517.20	20685.65
517.37	20453.94
517.54	20538.20
517.72	20430.54
517.89	20769.91
518.06	20652.89
518.24	20767.57
518.41	20575.65
518.58	20739.49
518.75	20631.82
518.93	20879.92
519.10	20758.21
519.27	21048.44
519.45	21238.02
519.62	21184.19
519.79	20790.98
519.96	20982.90
520.14	21434.63
520.31	21422.92
520.48	21528.25
520.65	21233.34
520.83	21642.93
521.00	21607.83
521.17	21359.73
521.34	21312.92
521.52	21656.98
521.69	21944.86
521.86	21804.43
522.03	22153.17
522.20	21703.79
522.38	22026.78
522.55	21659.32
522.72	21921.46
522.89	21855.92
523.07	22160.19
523.24	22178.92
523.41	22373.18
523.58	21525.91
523.75	22572.13
523.92	22286.58
524.10	21914.44
524.27	22434.03
524.44	22377.86
524.61	22597.87
524.78	22614.26
524.96	22497.23
525.13	22480.85
525.30	22672.77
525.47	22735.96
525.64	22604.89
525.81	22766.39
525.98	23042.57
526.16	22820.22
526.33	22642.34
526.50	22661.07
526.67	23157.26
526.84	22981.72
527.01	22632.98
527.18	23119.81
527.36	23101.09
527.53	23161.94
527.70	23370.25
527.87	23506.00
528.04	23318.76
528.21	23232.16
528.38	23112.79
528.55	23161.94
528.72	23412.38
528.89	23349.18
529.07	23168.96
529.24	23417.06
529.41	23583.24
529.58	23508.34
529.75	23374.93
529.92	23424.08
530.09	23456.85
530.26	23550.47
530.43	23634.73
530.60	23590.26
530.77	23803.25
530.94	23899.21
531.11	24037.30
531.28	23913.25
531.46	23861.76
531.63	23866.44
531.80	23833.68
531.97	24159.01
532.14	24306.46
532.31	23929.64
532.48	24046.66
532.65	24339.23
532.82	24308.80
532.99	24334.55
533.16	24093.47
533.33	24369.66
533.50	24395.40
533.67	24662.22
533.84	24362.64
534.01	24489.03
534.18	24154.33
534.35	24435.19
534.52	24821.38
534.69	24685.63
534.86	24823.72
535.03	24751.17
535.20	24765.21
535.37	24608.39
535.54	24797.98
535.71	24486.68
535.88	24666.91
536.05	25032.03
536.22	24774.57
536.38	24797.98
536.55	25156.08
536.72	25034.37
536.89	24620.10
537.06	24898.62
537.23	24936.07
537.40	25036.71
537.57	24903.30
537.74	25174.80
537.91	25387.79
538.08	25284.81
538.25	25465.03
538.42	25406.52
538.59	25322.26
538.75	25109.27
538.92	25525.88
539.09	25366.73
539.26	25308.21
539.43	25816.11
539.60	25766.96
539.77	25465.03
539.94	25764.62
540.11	25556.31
540.28	25673.34
540.44	25675.68
540.61	25460.35
540.78	25544.61
540.95	25816.11
541.12	25626.53
541.29	25853.56
541.46	25834.83
541.62	25869.94
541.79	25991.65
541.96	25649.93
542.13	25668.66
542.30	25848.88
542.47	25902.71
542.63	26125.06
542.80	26260.81
542.97	26583.80
543.14	26398.90
543.31	26412.95
543.48	26237.41
543.64	26689.13
543.81	26370.82
543.98	26794.45
544.15	26766.37
544.32	26326.35
544.48	26710.19
544.65	26450.39
544.82	26199.96
544.99	26326.35
545.16	26768.71
545.32	26649.34
545.49	26579.12
545.66	26986.38
545.83	26731.26
546.00	27091.70
546.16	26911.48
546.33	26958.29
546.50	26553.38
546.67	26951.27
546.83	26597.85
547.00	26876.37
547.17	26813.18
547.34	27049.57
547.50	27538.74
547.67	27484.91
547.84	27164.26
548.00	27302.35
548.17	27108.08
548.34	27058.93
548.51	27140.85
548.67	27262.56
548.84	27220.43
549.01	27182.98
549.18	27285.97
549.34	26986.38
549.51	27438.10
549.68	27323.41
549.84	27239.15
550.01	27309.37
550.18	27185.32
550.34	27314.05
550.51	27711.94
550.68	27672.15
550.84	27440.44
551.01	27377.25
551.18	27716.62
551.34	27143.19
551.51	27838.33
551.68	27295.33
551.84	27845.35
552.01	27597.26
552.18	27927.27
552.34	27828.97
552.51	27887.48
552.68	27901.53
552.84	27775.14
553.01	27882.80
553.18	27737.69
553.34	28058.34
553.51	27737.69
553.67	28350.91
553.84	28081.75
554.01	28013.87
554.17	27723.65
554.34	27871.10
554.51	28266.65
554.67	28175.37
554.84	28219.84
555.00	28278.35
555.17	27728.33
555.33	28411.76
555.50	28161.33
555.67	27997.49
555.83	28243.24
556.00	28119.20
556.16	28767.52
556.33	28325.16
556.50	28624.75
556.66	28437.51
556.83	28048.98
556.99	28933.70
557.16	28807.31
557.32	28449.21
557.49	28444.53
557.65	28439.85
557.82	28650.50
557.98	28278.35
558.15	28292.40
558.32	28416.44
558.48	28507.72
558.65	28538.15
558.81	28751.14
558.98	28760.50
559.14	28737.10
559.31	28662.20
559.47	28741.78
559.64	28589.64
559.80	29029.66
559.97	28603.69
560.13	28999.24
560.30	28713.69
560.46	28720.71
560.63	28980.51
560.79	28989.88
560.96	28746.46
561.12	28486.66
561.29	28809.65
561.45	28809.65
561.61	28776.89
561.78	28802.63
561.94	28804.97
562.11	28893.91
562.27	29027.32
562.44	28926.68
562.60	28914.98
562.77	28865.83
562.93	28622.41
563.10	29270.74
563.26	29254.36
563.42	29441.60
563.59	29015.62
563.75	29067.11
563.92	29226.27
564.08	29106.90
564.24	29043.71
564.41	28685.61
564.57	29277.76
564.74	29120.95
564.90	29474.37
565.07	29111.58
565.23	29158.39
565.39	29404.15
565.56	29022.64
565.72	29226.27
565.88	29434.58
566.05	28999.24
566.21	29163.08
566.38	29085.84
566.54	29567.99
566.70	29385.43
566.87	29736.51
567.03	29434.58
567.19	29820.77
567.36	29624.16
567.52	29336.27
567.68	29249.67
567.85	29198.18
568.01	29502.45
568.17	29156.05
568.34	29252.02
568.50	29329.25
568.66	29263.72
568.83	29874.60
568.99	29457.98
569.15	29607.78
569.32	29226.27
569.48	29408.83
569.64	29806.72
569.81	29085.84
569.97	29500.11
570.13	29888.64
570.30	29277.76
570.46	29715.44
570.62	30043.12
570.78	29415.85
570.95	29156.05
571.11	29940.13
571.27	29589.05
571.43	29151.37
571.60	29624.16
571.76	29675.65
571.92	29530.54
572.09	29748.21
572.25	29703.74
572.41	29797.36
572.57	29607.78
572.74	29776.30
572.90	29537.56
573.06	29280.10
573.22	29163.08
573.38	29523.52
573.55	29750.55
573.71	29692.04
573.87	29844.17
574.03	29563.31
574.20	29621.82
574.36	29486.07
574.52	29436.92
574.68	29621.82
574.84	29699.06
575.01	29851.19
575.17	29481.39
575.33	29661.61
575.49	29895.66
575.65	29741.19
575.82	29628.84
575.98	29631.18
576.14	29755.23
576.30	29551.60
576.46	29680.33
576.62	29965.88
576.79	29780.98
576.95	29579.69
577.11	30000.99
577.27	29809.06
577.43	29776.30
577.59	29780.98
577.75	29792.68
577.92	29560.97
578.08	29837.15
578.24	29666.29
578.40	29556.28
578.56	29811.40
578.72	30132.06
578.88	30232.70
579.04	30043.12
579.21	29907.37
579.37	29900.34
579.53	30183.55
579.69	29752.89
579.85	29954.18
580.01	29890.98
580.17	29802.04
580.33	29799.70
580.49	29516.50
580.65	29652.25
580.82	29848.85
580.98	29869.92
581.14	29680.33
581.30	30122.69
581.46	29921.41
581.62	29799.70
581.78	29881.62
581.94	29659.27
582.10	29893.32
582.26	29813.74
582.42	29715.44
582.58	29928.43
582.74	29926.09
582.90	30043.12
583.06	29949.50
583.22	29802.04
583.38	29841.83
583.54	29846.51
583.70	30108.65
583.86	29977.58
584.02	29668.63
584.18	29928.43
584.34	30108.65
584.50	30256.11
584.66	30150.78
584.82	29986.94
584.98	30136.74
585.14	30190.57
585.30	30225.68
585.46	29926.09
585.62	29670.97
585.78	29984.60
585.94	29797.36
586.10	29666.29
586.26	30607.19
586.42	30405.90
586.58	30239.72
586.74	30113.33
586.90	30057.16
587.06	30122.69
587.22	29923.75
587.38	29635.86
587.54	30096.95
587.70	30354.41
587.86	30401.22
588.02	30295.89
588.18	30712.51
588.34	30075.88
588.49	30338.02
588.65	29912.05
588.81	30136.74
588.97	30019.71
589.13	30024.39
589.29	30031.41
589.45	30171.85
589.61	30228.02
589.77	30529.95
589.93	30061.84
590.08	30319.30
590.24	30611.87
590.40	30448.03
590.56	30614.21
590.72	30284.19
590.88	30174.19
591.04	30352.07
591.20	30497.18
591.35	30583.78
591.51	30787.41
591.67	30775.70
591.83	30726.55
591.99	30096.95
592.15	30115.67
592.31	30441.01
592.46	30464.41
592.62	30483.14
592.78	30260.79
592.94	30080.56
593.10	30281.85
593.26	30553.35
593.41	30597.82
593.57	30359.09
593.73	30546.33
593.89	30822.51
594.05	30707.83
594.20	30450.37
594.36	30604.84
594.52	30394.20
594.68	30309.94
594.84	30171.85
594.99	30560.37
595.15	30562.72
595.31	30822.51
595.47	30508.88
595.62	30656.34
595.78	30483.14
595.94	30122.69
596.10	30646.97
596.25	30560.37
596.41	30345.05
596.57	30246.74
596.73	30412.92
596.88	30469.09
597.04	30740.60
597.20	30967.63
597.36	30401.22
597.51	30979.33
597.67	30190.57
597.83	30588.46
597.99	30728.89
598.14	30319.30
598.30	30508.88
598.46	31056.57
598.61	30443.35
598.77	30417.60
598.93	31068.27
599.09	30567.40
599.24	30951.24
599.40	30780.39
599.56	30792.09
599.71	30452.71
599.87	30370.79
600.03	30560.37
600.18	30712.51
600.34	30279.51
600.50	30464.41
600.65	30642.29
600.81	30693.79
600.97	31096.36
601.12	31147.85
601.28	30490.16
601.44	30417.60
601.59	31173.60
601.75	30551.01
601.91	30651.66
602.06	30005.67
602.22	30663.36
602.37	30415.26
602.53	30197.59
602.69	30661.02
602.84	30644.63
603.00	30651.66
603.16	30948.90
603.31	30778.04
603.47	30567.40
603.62	30721.87
603.78	30597.82
603.94	30689.10
604.09	30492.50
604.25	30675.06
604.40	30597.82
604.56	30555.69
604.71	30789.75
604.87	30834.22
605.03	30759.32
605.18	30504.20
605.34	30436.33
605.49	30401.22
605.65	30579.10
605.80	30277.17
605.96	30539.31
606.12	30377.81
606.27	30618.89
606.43	30174.19
606.58	30565.06
606.74	30586.12
606.89	30691.44
607.05	30532.29
607.20	30761.66
607.36	30794.43
607.51	30696.13
607.67	30426.96
607.82	30094.61
607.98	30499.52
608.13	30471.43
608.29	30356.75
608.44	30955.93
608.60	30073.54
608.75	30988.69
608.91	30670.38
609.06	30429.30
609.22	30536.97
609.37	30024.39
609.53	30331.00
609.68	30206.95
609.84	29961.20
609.99	30050.14
610.15	30153.12
610.30	30316.96
610.46	30209.29
610.61	30036.09
610.76	30354.41
610.92	30106.31
611.07	30328.66
611.23	30511.22
611.38	30384.83
611.54	30242.06
611.69	30134.40
611.84	30127.38
612.00	30366.11
612.15	29701.40
612.31	30391.86
612.46	29888.64
612.62	30487.82
612.77	30017.37
612.92	30747.62
613.08	29919.07
613.23	30295.89
613.39	30221.00
613.54	30045.46
613.69	29914.39
613.85	30068.86
614.00	29993.97
614.15	30293.55
614.31	29851.19
614.46	30141.42
614.62	29865.24
614.77	30148.44
614.92	30061.84
615.08	30057.16
615.23	29916.73
615.38	30066.52
615.54	29809.06
615.69	29797.36
615.84	30026.73
616.00	29869.92
616.15	29876.94
616.30	29965.88
616.46	29748.21
616.61	29649.91
616.76	30132.06
616.92	29968.22
617.07	29937.79
617.22	29942.47
617.37	29539.90
617.53	29734.17
617.68	29567.99
617.83	29628.84
617.99	29638.20
618.14	29420.53
618.29	29567.99
618.45	29549.26
618.60	29731.83
618.75	29544.58
618.90	29612.46
619.06	29783.32
619.21	29507.13
619.36	29607.78
619.51	29675.65
619.67	29399.47
619.82	29160.73
619.97	29802.04
620.12	29544.58
620.28	29149.03
620.43	29460.32
620.58	29591.39
620.73	29905.02
620.89	29387.77
621.04	29666.29
621.19	29640.54
621.34	29596.07
621.49	29165.42
621.65	29230.95
621.80	29298.83
621.95	29163.08
622.10	29259.04
622.25	28975.83
622.41	29598.41
622.56	29057.75
622.71	29310.53
622.86	29259.04
623.01	29376.06
623.16	29312.87
623.32	29249.67
623.47	29034.35
623.62	29216.91
623.77	29123.29
623.92	29099.88
624.07	29195.84
624.23	28961.79
624.38	28861.15
624.53	29022.64
624.68	29237.97
624.83	29282.44
624.98	29120.95
625.13	28734.76
625.29	29177.12
625.44	29106.90
625.59	28844.76
625.74	29020.30
625.89	28833.06
626.04	28802.63
626.19	29027.32
626.34	28856.46
626.49	28678.58
626.65	28493.68
626.80	29015.62
626.95	28774.55
627.10	29024.98
627.25	28652.84
627.40	28589.64
627.55	28624.75
627.70	28409.42
627.85	28685.61
628.00	28739.44
628.15	28449.21
628.30	28360.27
628.45	28407.08
628.60	28486.66
628.76	28526.45
628.91	28678.58
629.06	28751.14
629.21	28666.88
629.36	28446.87
629.51	28512.41
629.66	28582.62
629.81	28051.32
629.96	28350.91
630.11	27903.87
630.26	28030.26
630.41	28259.63
630.56	27962.38
630.71	28299.42
630.86	28374.31
631.01	28135.58
631.16	28463.25
631.31	28231.54
631.46	28474.96
631.61	28381.34
631.76	28287.71
631.91	28133.24
632.06	27920.25
632.21	28077.07
632.36	27875.78
632.51	27733.01
632.66	28243.24
632.81	28077.07
632.96	27791.52
633.10	27924.93
633.25	28407.08
633.40	28039.62
633.55	28013.87
633.70	27789.18
633.85	27552.79
634.00	27988.13
634.15	27742.37
634.30	28212.82
634.45	27578.53
634.60	28072.39
634.75	27608.96
634.90	27529.38
635.05	27894.50
635.19	27843.01
635.34	27931.95
635.49	28161.33
635.64	27873.44
635.79	27648.75
635.94	27484.91
636.09	28128.56
636.24	27407.67
636.39	27571.51
636.53	27800.88
636.68	27524.70
636.83	27477.89
636.98	27716.62
637.13	27758.75
637.28	27704.92
637.43	27630.02
637.57	28098.13
637.72	27730.67
637.87	27372.57
638.02	27332.78
638.17	27381.93
638.32	27285.97
638.46	27267.24
638.61	27110.43
638.76	27009.78
638.91	27103.40
639.06	27136.17
639.20	27028.51
639.35	27644.07
639.50	27374.91
639.65	27087.02
639.80	27702.58
639.94	27505.98
640.09	27152.55
640.24	27000.42
640.39	27398.31
640.54	26930.20
640.68	27016.80
640.83	27161.92
640.98	27035.53
641.13	26815.52
641.27	27065.96
641.42	27208.73
641.57	27056.59
641.72	27241.50
641.86	26888.07
642.01	27084.68
642.16	27009.78
642.31	26789.77
642.45	26944.25
642.60	26747.64
642.75	26843.60
642.90	26717.22
643.04	26249.11
643.19	26363.79
643.34	26787.43
643.48	26740.62
643.63	26576.78
643.78	26654.02
643.93	26902.12
644.07	26988.72
644.22	27377.25
644.37	26597.85
644.51	26785.09
644.66	26897.44
644.81	26752.32
644.95	26747.64
645.10	26677.43
645.25	26782.75
645.39	26555.72
645.54	26698.49
645.69	26611.89
645.83	26375.50
645.98	26429.33
646.13	26714.87
646.27	26621.25
646.42	26806.16
646.57	26558.06
646.71	26738.28
646.86	26190.59
647.00	26298.26
647.15	26174.21
647.30	26532.31
647.44	26223.36
647.59	26541.68
647.74	26188.25
647.88	26094.63
648.03	26426.99
648.17	26260.81
648.32	26043.14
648.47	26551.04
648.61	26244.43
648.76	26808.50
648.90	26190.59
649.05	26286.56
649.20	26190.59
649.34	25977.61
649.49	26026.76
649.63	26176.55
649.78	26143.78
649.92	25551.63
650.07	26111.02
650.21	26253.79
650.36	25825.47
650.51	25907.39
650.65	26155.49
650.80	25898.03
650.94	26094.63
651.09	26164.85
651.23	26108.68
651.38	26054.84
651.52	26118.04
651.67	25846.54
651.81	25832.49
651.96	25846.54
652.10	25872.28
652.25	26129.74
652.39	26040.80
652.54	26026.76
652.68	26178.89
652.83	26258.47
652.97	25977.61
653.12	25921.43
653.26	25954.20
653.41	25853.56
653.55	25483.75
653.70	25944.84
653.84	25432.26
653.99	25589.08
654.13	25593.76
654.27	25652.27
654.42	25504.82
654.56	25645.25
654.71	25495.46
654.85	26010.37
655.00	25598.44
655.14	25399.49
655.29	25790.36
655.43	25462.69
655.57	25350.34
655.72	25387.79
655.86	25289.49
656.01	25120.97
656.15	25228.63
656.30	25376.09
656.44	25692.06
656.58	25305.87
656.73	25099.90
656.87	25593.76
657.01	25245.02
657.16	25448.64
657.30	25483.75
657.45	25385.45
657.59	25193.53
657.73	25146.72
657.88	25188.85
658.02	24926.71
658.16	25188.85
658.31	25212.25
658.45	24954.79
658.60	24790.95
658.74	24898.62
658.88	25029.69
659.03	25287.15
659.17	25247.36
659.31	24931.39
659.46	25310.55
659.60	24982.88
659.74	25123.31
659.89	24737.12
660.03	24610.73
660.17	24938.41
660.32	24702.01
660.46	24776.91
660.60	24657.54
660.74	24444.56
660.89	24648.18
661.03	24346.25
661.17	24442.21
661.32	24257.31
661.46	24739.46
661.60	24418.81
661.74	24491.37
661.89	24524.13
662.03	24460.94
662.17	24397.74
662.31	24332.21
662.46	24212.84
662.60	24472.64
662.74	23992.83
662.88	23946.02
663.03	23763.46
663.17	24086.45
663.31	23754.10
663.45	23941.34
663.60	23887.51
663.74	23812.61
663.88	24205.82
664.02	23690.90
664.17	23934.32
664.31	23915.59
664.45	24063.05
664.59	24217.52
664.73	23976.45
664.88	24032.62
665.02	23625.37
665.16	23803.25
665.30	23534.09
665.44	23372.59
665.59	23477.91
665.73	23185.35
665.87	23360.89
666.01	23428.76
666.15	23665.16
666.29	23470.89
666.44	23403.02
666.58	23541.11
666.72	23070.66
666.86	23215.77
667.00	23433.44
667.14	23136.20
667.28	23487.28
667.43	23239.18
667.57	23410.04
667.71	23257.90
667.85	23201.73
667.99	22923.21
668.13	22979.38
668.27	23070.66
668.41	22869.37
668.56	22738.30
668.70	22965.34
668.84	22930.23
668.98	22838.95
669.12	23103.43
669.26	22824.90
669.40	22738.30
669.54	23140.88
669.68	22829.59
669.82	22710.22
669.96	22347.44
670.10	22808.52
670.25	22541.70
670.39	22403.61
670.53	22424.67
670.67	22298.28
670.81	22558.08
670.95	22324.03
671.09	22345.09
671.23	22178.92
671.37	22188.28
671.51	22216.36
671.65	22309.99
671.79	22408.29
671.93	22061.89
672.07	21949.54
672.21	21907.41
672.35	21745.92
672.49	21902.73
672.63	21699.11
672.77	21759.96
672.91	21792.73
673.05	21703.79
673.19	21530.59
673.33	21546.97
673.47	21668.68
673.61	21790.39
673.75	21713.15
673.89	21926.14
674.03	21795.07
674.17	21352.71
674.31	21408.88
674.45	21369.09
674.59	21291.85
674.73	21542.29
674.87	20980.56
675.01	21472.07
675.15	20964.18
675.29	21191.21
675.43	21062.48
675.56	21010.99
675.70	20769.91
675.84	20858.85
675.98	20215.21
676.12	20793.32
676.26	20851.83
676.40	21088.23
676.54	20746.51
676.68	20641.18
676.82	20372.02
676.96	20409.47
677.10	20432.88
677.23	20301.81
677.37	20180.10
677.51	20395.43
677.65	20196.48
677.79	20166.06
677.93	20311.17
678.07	19962.43
678.21	19889.87
678.34	19946.05
678.48	19716.67
678.62	19669.86
678.76	19690.93
678.90	19524.75
679.04	19676.88
679.18	19503.68
679.31	19028.56
679.45	19220.48
679.59	19367.93
679.73	19339.85
679.87	19278.99
680.00	19463.90
680.14	19143.24
680.28	18918.55
680.42	19143.24
680.56	19068.34
680.70	19070.68
680.83	18902.17
680.97	18906.85
681.11	19000.47
681.25	18981.74
681.39	18754.71
681.52	18803.86
681.66	18810.89
681.80	18668.11
681.94	18473.85
682.07	18628.32
682.21	18464.49
682.35	18281.92
682.49	18242.14
682.62	17980.00
682.76	18242.14
682.90	18382.57
683.04	18244.48
683.17	18108.72
683.31	18162.56
683.45	18148.51
683.59	18118.09
683.72	17912.12
683.86	17888.71
684.00	17994.04
684.13	17668.70
684.27	17518.91
684.41	17525.93
684.55	17331.67
684.68	17242.73
684.82	17254.43
684.96	17275.49
685.09	17184.21
685.23	17308.26
685.37	17317.62
685.50	17088.25
685.64	17151.45
685.78	17366.78
685.91	17270.81
686.05	16950.16
686.19	17156.13
686.32	16865.90
686.46	16882.28
686.60	16615.46
686.73	16730.15
686.87	16720.79
687.01	16315.87
687.14	16339.28
687.28	16369.71
687.42	16339.28
687.55	16381.41
687.69	16161.40
687.82	16262.04
687.96	16086.50
688.10	16046.71
688.23	16217.57
688.37	16027.99
688.50	15992.88
688.64	15826.70
688.78	15548.18
688.91	15700.31
689.05	15831.38
689.18	15545.84
689.32	15211.14
689.46	15445.20
689.59	15632.44
689.73	15648.82
689.86	15384.34
690.00	15180.71
690.13	15358.60
690.27	15246.25
690.41	15428.81
690.54	15201.78
690.68	15274.34
690.81	15246.25
690.95	15143.27
691.08	14843.68
691.22	14925.60
691.35	15094.11
691.49	14843.68
691.62	15124.54
691.76	14808.57
691.89	14682.18
692.03	14398.98
692.16	14452.81
692.30	14541.75
692.43	14600.26
692.57	14298.33
692.70	14157.90
692.84	14286.63
692.97	14321.74
693.11	14389.61
693.24	14054.92
693.38	14101.73
693.51	13834.91
693.65	13888.74
693.78	13731.92
693.92	13977.68
694.05	13855.97
694.19	13891.08
694.32	13818.52
694.45	13455.74
694.59	13282.54
694.72	13392.55
694.86	13441.70
694.99	13462.76
695.13	13249.77
695.26	13294.24
695.39	13132.75
695.53	13366.80
695.66	13158.49
695.80	12774.64
695.93	13121.04
696.07	13125.72
696.20	13144.45
696.33	13039.12
696.47	13032.10
696.60	12847.20
696.73	13020.40
696.87	12826.14
697.00	12634.21
697.14	12561.66
697.27	12496.12
697.40	12500.80
697.54	12468.03
697.67	12245.68
697.80	12102.91
697.94	12453.99
698.07	12226.96
698.21	12013.97
698.34	12432.93
698.47	12177.81
698.61	12224.62
698.74	12086.53
698.87	12025.67
699.01	11983.54
699.14	11850.13
699.27	12046.74
699.40	11889.92
699.54	11679.27
699.67	11634.80
699.80	11913.33
699.94	11632.46
700.07	11534.16
700.20	11384.37
700.34	11365.64
700.47	11335.21
700.60	11452.24
700.73	11377.34
700.87	10988.82
701.00	11108.18
701.13	11173.72
701.26	11026.26
701.40	11365.64
701.53	11248.61
701.66	11012.22
701.79	11112.86
701.93	11000.52
702.06	10663.48
702.19	10611.99
702.32	10619.01
702.46	10731.36
702.59	10555.82
702.72	10555.82
702.85	10548.79
702.99	10532.41
703.12	10246.87
703.25	10499.64
703.38	10230.48
703.51	10319.42
703.65	10244.52
703.78	10251.55
703.91	10228.14
704.04	10424.75
704.17	10235.16
704.31	10333.47
704.44	10230.48
704.57	10005.79
704.70	9872.38
704.83	9795.14
704.96	9804.50
705.10	9633.64
705.23	9776.42
>>>>>End Processed Spectral Data<<<<<
