SpectraSuite Data File
++++++++++++++++++++++++++++++++++++
Date: Fri Oct 18 13:57:53 GMT-05:00 2013
User: bianchi
Dark Spectrum Present: No
Reference Spectrum Present: No
Number of Sampled Component Spectra: 1
Spectrometers: USB2+H05261
Integration Time (usec): 50000 (USB2+H05261)
Spectra Averaged: 1 (USB2+H05261)
Boxcar Smoothing: 0 (USB2+H05261)
Correct for Electrical Dark: No (USB2+H05261)
Strobe/Lamp Enabled: No (USB2+H05261)
Correct for Detector Non-linearity: No (USB2+H05261)
Correct for Stray Light: No (USB2+H05261)
Number of Pixels in Processed Spectrum: 2048
>>>>>Begin Processed Spectral Data<<<<<
365.73	0.00
365.92	0.00
366.12	0.00
366.32	0.00
366.52	0.00
366.72	0.00
366.91	0.00
367.11	0.00
367.31	0.00
367.51	0.00
367.70	0.00
367.90	0.00
368.10	0.00
368.30	0.00
368.49	0.00
368.69	0.00
368.89	0.00
369.09	0.00
369.28	0.00
369.48	0.00
369.68	0.00
369.87	0.00
370.07	0.00
370.27	0.00
370.47	0.00
370.66	102.98
370.86	133.41
371.06	138.09
371.25	217.67
371.45	133.41
371.65	81.92
371.84	184.90
372.04	112.35
372.24	107.66
372.44	194.26
372.63	210.65
372.83	184.90
373.03	264.48
373.22	201.29
373.42	212.99
373.62	285.55
373.81	198.95
374.01	269.16
374.21	203.63
374.40	255.12
374.60	292.57
374.79	248.10
374.99	283.20
375.19	259.80
375.38	283.20
375.58	196.60
375.78	255.12
375.97	271.50
376.17	367.46
376.37	170.86
376.56	241.08
376.76	273.84
376.95	271.50
377.15	325.33
377.35	203.63
377.54	248.10
377.74	280.86
377.93	234.05
378.13	220.01
378.33	243.42
378.52	287.89
378.72	250.44
378.91	262.14
379.11	301.93
379.31	262.14
379.50	212.99
379.70	330.02
379.89	301.93
380.09	313.63
380.28	348.74
380.48	212.99
380.68	287.89
380.87	262.14
381.07	278.52
381.26	402.57
381.46	386.19
381.65	318.31
381.85	315.97
382.04	315.97
382.24	299.59
382.43	320.65
382.63	365.12
382.83	341.72
383.02	344.06
383.22	362.78
383.41	311.29
383.61	360.44
383.80	400.23
384.00	311.29
384.19	330.02
384.39	416.62
384.58	297.25
384.78	411.93
384.97	360.44
385.17	304.27
385.36	503.22
385.56	423.64
385.75	379.17
385.95	351.08
386.14	397.89
386.34	411.93
386.53	383.85
386.72	376.83
386.92	407.25
387.11	386.19
387.31	437.68
387.50	421.30
387.70	334.70
387.89	428.32
388.09	418.96
388.28	402.57
388.48	454.06
388.67	451.72
388.86	505.56
389.06	433.00
389.25	486.83
389.45	468.11
389.64	369.80
389.84	540.66
390.03	381.51
390.22	510.24
390.42	416.62
390.61	437.68
390.81	442.36
391.00	514.92
391.19	538.32
391.39	461.09
391.58	496.19
391.78	538.32
391.97	500.87
392.16	521.94
392.36	610.88
392.55	545.34
392.75	554.71
392.94	580.45
393.13	606.20
393.33	538.32
393.52	507.90
393.71	594.50
393.91	531.30
394.10	606.20
394.29	561.73
394.49	592.16
394.68	606.20
394.88	571.09
395.07	547.69
395.26	610.88
395.46	582.79
395.65	634.29
395.84	613.22
396.04	601.52
396.23	657.69
396.42	624.92
396.62	594.50
396.81	624.92
397.00	617.90
397.19	669.39
397.39	688.12
397.58	645.99
397.77	683.44
397.97	643.65
398.16	678.76
398.35	681.10
398.55	699.82
398.74	741.95
398.93	699.82
399.12	664.71
399.32	786.42
399.51	798.12
399.70	741.95
399.90	755.99
400.09	781.74
400.28	702.16
400.47	849.61
400.67	758.33
400.86	798.12
401.05	774.72
401.24	713.86
401.44	821.53
401.63	809.83
401.82	816.85
402.01	814.51
402.21	805.14
402.40	777.06
402.59	866.00
402.78	823.87
402.97	788.76
403.17	901.11
403.36	856.64
403.55	898.77
403.74	896.43
403.93	891.74
404.13	823.87
404.32	908.13
404.51	952.60
404.70	903.45
404.89	971.32
405.09	1020.47
405.28	997.07
405.47	1057.92
405.66	1025.15
405.85	889.40
406.05	1015.79
406.24	1011.11
406.43	1004.09
406.62	1076.65
406.81	1125.80
407.00	1008.77
407.20	978.34
407.39	1086.01
407.58	1048.56
407.77	1039.20
407.96	1158.57
408.15	1086.01
408.34	1111.75
408.54	1036.86
408.73	1165.59
408.92	1188.99
409.11	1097.71
409.30	1165.59
409.49	1188.99
409.68	1172.61
409.87	1121.12
410.07	1086.01
410.26	1067.28
410.45	1109.41
410.64	1181.97
410.83	1277.93
411.02	1196.01
411.21	1359.85
411.40	1275.59
411.59	1280.27
411.78	1284.95
411.98	1327.08
412.17	1259.21
412.36	1287.29
412.55	1315.38
412.74	1287.29
412.93	1327.08
413.12	1282.61
413.31	1425.39
413.50	1350.49
413.69	1331.76
413.88	1364.53
414.07	1394.96
414.26	1387.94
414.45	1465.18
414.64	1413.68
414.83	1455.81
415.02	1430.07
415.22	1554.12
415.41	1575.18
415.60	1577.52
415.79	1643.06
415.98	1577.52
416.17	1514.33
416.36	1523.69
416.55	1633.69
416.74	1685.19
416.93	1682.85
417.12	1624.33
417.31	1678.16
417.50	1734.34
417.69	1732.00
417.88	1736.68
418.07	1673.48
418.26	1680.50
418.45	1710.93
418.64	1813.92
418.83	1781.15
419.02	1682.85
419.21	1895.83
419.39	1767.10
419.58	1830.30
419.77	1820.94
419.96	1825.62
420.15	1891.15
420.34	1853.70
420.53	1870.09
420.72	1935.62
420.91	1872.43
421.10	1973.07
421.29	2012.86
421.48	1825.62
421.67	1961.37
421.86	1937.96
422.05	2062.01
422.24	1961.37
422.43	1954.35
422.61	1996.48
422.80	2125.21
422.99	1919.24
423.18	1923.92
423.37	2031.58
423.56	1935.62
423.75	2019.88
423.94	2057.33
424.13	1898.17
424.32	2038.61
424.50	2022.22
424.69	2090.10
424.88	2193.08
425.07	2057.33
425.26	2010.52
425.45	2038.61
425.64	2092.44
425.83	2062.01
426.01	1930.94
426.20	2094.78
426.39	2090.10
426.58	2097.12
426.77	2047.97
426.96	2115.84
427.15	2066.69
427.33	2195.42
427.52	2104.14
427.71	2146.27
427.90	2008.18
428.09	2275.00
428.28	2139.25
428.46	2129.89
428.65	2270.32
428.84	2267.98
429.03	2153.29
429.22	2216.49
429.40	2167.34
429.59	2239.89
429.78	2092.44
429.97	2108.82
430.16	2291.38
430.34	2286.70
430.53	2408.41
430.72	2319.47
430.91	2345.22
431.10	2284.36
431.28	2396.71
431.47	2385.01
431.66	2368.62
431.85	2300.75
432.03	2417.77
432.22	2429.48
432.41	2424.80
432.60	2499.69
432.79	2335.85
432.97	2438.84
433.16	2478.63
433.35	2399.05
433.54	2544.16
433.72	2600.34
433.91	2553.52
434.10	2635.44
434.28	2464.58
434.47	2539.48
434.66	2513.74
434.85	2595.65
435.03	2597.99
435.22	2600.34
435.41	2628.42
435.59	2567.57
435.78	2670.55
435.97	2647.15
436.16	2782.90
436.34	2600.34
436.53	2670.55
436.72	2825.03
436.90	2696.30
437.09	2729.06
437.28	2782.90
437.46	2818.00
437.65	2752.47
437.84	2897.58
438.02	2792.26
438.21	2899.92
438.40	2916.31
438.58	2832.05
438.77	2963.12
438.96	2801.62
439.14	2928.01
439.33	2897.58
439.52	3009.93
439.70	3091.85
439.89	2935.03
440.08	2993.55
440.26	3084.83
440.45	2984.18
440.63	3126.96
440.82	3096.53
441.01	2977.16
441.19	3213.56
441.38	3145.68
441.57	3314.20
441.75	3190.15
441.94	3311.86
442.12	3302.50
442.31	3295.47
442.50	3136.32
442.68	3321.22
442.87	3236.96
443.05	3274.41
443.24	3302.50
443.43	3349.31
443.61	3368.03
443.80	3466.33
443.98	3260.37
444.17	3311.86
444.35	3356.33
444.54	3550.59
444.73	3440.59
444.91	3421.86
445.10	3351.65
445.28	3468.67
445.47	3501.44
445.65	3468.67
445.84	3361.01
446.02	3618.47
446.21	3445.27
446.39	3400.80
446.58	3541.23
446.77	3723.79
446.95	3503.78
447.14	3382.07
447.32	3489.74
447.51	3616.13
447.69	3456.97
447.88	3478.04
448.06	3529.53
448.25	3611.45
448.43	3609.11
448.62	3592.72
448.80	3592.72
448.99	3627.83
449.17	3588.04
449.36	3585.70
449.54	3730.81
449.73	3684.00
449.91	3885.29
450.10	3637.19
450.28	3667.62
450.46	3686.34
450.65	3634.85
450.83	3730.81
451.02	3840.82
451.20	3651.24
451.39	3784.65
451.57	3770.60
451.76	3672.30
451.94	3889.97
452.13	3868.91
452.31	3880.61
452.49	3817.41
452.68	4058.49
452.86	3868.91
453.05	3943.80
453.23	3782.31
453.42	3892.31
453.60	3920.40
453.78	3791.67
453.97	4037.42
454.15	3871.25
454.34	3955.51
454.52	4035.08
454.70	4044.45
454.89	3845.50
455.07	4030.40
455.26	4051.47
455.44	4145.09
455.62	4051.47
455.81	4269.14
455.99	4086.58
456.17	4079.55
456.36	4175.52
456.54	4322.97
456.73	4224.67
456.91	4355.74
457.09	4360.42
457.28	4383.82
457.46	4252.75
457.64	4292.54
457.83	4308.93
458.01	4358.08
458.19	4318.29
458.38	4386.16
458.56	4437.66
458.74	4362.76
458.93	4482.13
459.11	4395.53
459.29	4432.97
459.48	4451.70
459.66	4542.98
459.84	4524.26
460.03	4683.41
460.21	4540.64
460.39	4559.36
460.57	4465.74
460.76	4624.90
460.94	4638.94
461.12	4510.21
461.31	4711.50
461.49	4622.56
461.67	4575.75
461.85	4622.56
462.04	4727.88
462.22	4929.17
462.40	4915.12
462.59	4734.90
462.77	4772.35
462.95	4746.61
463.13	4821.50
463.32	4896.40
463.50	4903.42
463.68	4833.21
463.86	4854.27
464.05	4894.06
464.23	4854.27
464.41	4898.74
464.59	4844.91
464.78	4992.36
464.96	4840.23
465.14	4873.00
465.32	5083.64
465.50	4870.65
465.69	5041.51
465.87	4903.42
466.05	5132.79
466.23	5055.56
466.41	5055.56
466.60	5116.41
466.78	5104.71
466.96	5137.48
467.14	4964.28
467.32	5121.09
467.51	5226.42
467.69	5041.51
467.87	5205.35
468.05	5149.18
468.23	5041.51
468.41	5116.41
468.60	5238.12
468.78	5380.89
468.96	5170.24
469.14	5406.64
469.32	5259.18
469.50	5074.28
469.69	5203.01
469.87	5425.36
470.05	5516.64
470.23	5387.91
470.41	5502.60
470.59	5488.56
470.77	5336.42
470.95	5591.54
471.14	5678.14
471.32	5497.92
471.50	5699.20
471.68	5509.62
471.86	5720.27
472.04	5640.69
472.22	5809.21
472.40	5734.31
472.58	5844.32
472.77	5708.57
472.95	5937.94
473.13	5989.43
473.31	5746.02
473.49	5928.58
473.67	5757.72
473.85	5937.94
474.03	5900.49
474.21	6050.28
474.39	6118.16
474.57	6235.19
474.75	6164.97
474.93	6232.85
475.12	6171.99
475.30	6237.53
475.48	6090.07
475.66	6260.93
475.84	6108.80
476.02	6342.85
476.20	6469.24
476.38	6555.84
476.56	6675.21
476.74	6590.95
476.92	6581.59
477.10	6480.94
477.28	6614.35
477.46	6682.23
477.64	6665.85
477.82	6689.25
478.00	6864.79
478.18	6867.13
478.36	6897.56
478.54	6970.12
478.72	7183.10
478.90	7033.31
479.08	7117.57
479.26	7232.26
479.44	7283.75
479.62	7351.62
479.80	7456.95
479.98	7370.35
480.16	7609.08
480.34	7428.86
480.52	7672.28
480.70	7695.68
480.88	7613.76
481.06	7573.97
481.24	7763.56
481.41	7892.29
481.59	7943.78
481.77	7887.61
481.95	8131.02
482.13	8180.17
482.31	8105.28
482.49	8217.62
482.67	8301.88
482.85	8376.78
483.03	8662.32
483.21	8568.70
483.39	8601.47
483.57	8585.08
483.74	8580.40
483.92	8765.31
484.10	8713.81
484.28	8901.06
484.46	9057.87
484.64	9207.67
484.82	8863.61
485.00	9210.01
485.18	9275.54
485.35	9483.85
485.53	9495.55
485.71	9240.44
485.89	9540.02
486.07	9479.17
486.25	9411.29
486.43	9724.93
486.61	9825.57
486.78	10068.98
486.96	9846.63
487.14	10169.63
487.32	10178.99
487.50	10225.80
487.68	10279.63
487.85	10424.75
488.03	10640.08
488.21	10822.64
488.39	10551.14
488.57	10761.78
488.75	10785.19
488.92	10911.58
489.10	11007.54
489.28	10888.17
489.46	11150.31
489.64	11061.37
489.81	11400.75
489.99	11475.65
490.17	11309.47
490.35	11627.78
490.53	11386.71
490.70	11747.15
490.88	11396.07
491.06	11775.24
491.24	11948.43
491.41	11733.11
491.59	11899.28
491.77	12079.50
491.95	12046.74
492.13	12273.77
492.30	12444.63
492.48	12465.69
492.66	12269.09
492.84	12243.34
493.01	12641.23
493.19	12645.91
493.37	12774.64
493.54	12896.35
493.72	12877.63
493.90	12891.67
494.08	13090.62
494.25	13151.47
494.43	12989.97
494.61	13378.50
494.79	13422.97
494.96	13544.68
495.14	13315.31
495.32	13500.21
495.49	13570.43
495.67	13678.09
495.85	13699.16
496.02	13944.91
496.20	13830.23
496.38	14120.45
496.55	13855.97
496.73	14354.51
496.91	14174.28
497.09	14384.93
497.26	14534.73
497.44	14085.34
497.62	14743.03
497.79	14436.42
497.97	14593.24
498.14	14759.42
498.32	14705.59
498.50	14731.33
498.67	15056.67
498.85	14853.04
499.03	15030.92
499.20	15154.97
499.38	15187.74
499.56	15204.12
499.73	15124.54
499.91	15229.87
500.08	15566.90
500.26	15264.97
500.44	15412.43
500.61	15587.97
500.79	15786.91
500.97	15616.05
501.14	16053.73
501.32	15878.19
501.49	16004.58
501.67	15906.28
501.84	15829.04
502.02	16105.23
502.20	16294.81
502.37	16163.74
502.55	15997.56
502.72	16395.45
502.90	16332.26
503.07	16365.03
503.25	16140.33
503.43	16063.10
503.60	16500.78
503.78	16776.96
503.95	16549.93
504.13	16741.85
504.30	16538.23
504.48	16760.58
504.65	16620.14
504.83	16931.44
505.01	16819.09
505.18	17128.04
505.36	17224.00
505.53	16863.56
505.71	17235.70
505.88	17081.23
506.06	16992.29
506.23	17371.46
506.41	17476.78
506.58	17387.84
506.76	17322.30
506.93	17238.05
507.11	17383.16
507.28	17799.77
507.46	17722.54
507.63	17757.64
507.81	18082.98
507.98	17659.34
508.16	17879.35
508.33	17764.67
508.50	18178.94
508.68	17912.12
508.85	18141.49
509.03	17827.86
509.20	18249.16
509.38	18647.05
509.55	18389.59
509.73	18064.25
509.90	18427.04
510.08	18326.39
510.25	18574.49
510.42	18595.56
510.60	18810.89
510.77	18841.31
510.95	18913.87
511.12	18412.99
511.30	19007.49
511.47	18789.82
511.64	18934.93
511.82	19241.54
511.99	19180.69
512.17	19356.23
512.34	19012.17
512.51	19143.24
512.69	19250.91
512.86	19349.21
513.04	19414.74
513.21	19545.81
513.38	19751.78
513.56	19494.32
513.73	19367.93
513.90	19826.68
514.08	19550.49
514.25	19601.99
514.43	19920.30
514.60	19559.86
514.77	19999.88
514.95	19915.62
515.12	19829.02
515.29	19910.94
515.47	20013.92
515.64	20105.20
515.81	20360.32
515.99	20226.91
516.16	20430.54
516.33	20332.23
516.51	20376.70
516.68	20182.44
516.85	20269.04
517.03	20276.06
517.20	20648.21
517.37	20655.23
517.54	20582.67
517.72	20580.33
517.89	20311.17
518.06	20989.92
518.24	20758.21
518.41	20908.01
518.58	20741.83
518.75	20905.66
518.93	21113.97
519.10	20940.77
519.27	21010.99
519.45	21097.59
519.62	21170.15
519.79	21193.55
519.96	21202.91
520.14	21221.64
520.31	21322.28
520.48	21373.77
520.65	21418.24
520.83	21329.30
521.00	21289.51
521.17	21486.12
521.34	21479.10
521.52	21544.63
521.69	21523.57
521.86	21961.25
522.03	21844.22
522.20	21652.30
522.38	21895.71
522.55	22054.87
522.72	22001.04
522.89	22202.32
523.07	22263.18
523.24	22286.58
523.41	22097.00
523.58	21949.54
523.75	22263.18
523.92	22008.06
524.10	22092.32
524.27	22307.65
524.44	22469.14
524.61	22684.47
524.78	22427.01
524.96	22604.89
525.13	22548.72
525.30	22611.92
525.47	22684.47
525.64	22679.79
525.81	22881.08
525.98	22864.69
526.16	22567.45
526.33	23014.49
526.50	23267.27
526.67	22836.61
526.84	22820.22
527.01	22764.05
527.18	23117.47
527.36	23274.29
527.53	22892.78
527.70	23431.10
527.87	23627.71
528.04	23271.95
528.21	22970.02
528.38	23412.38
528.55	23384.29
528.72	23616.01
528.89	23494.30
529.07	23491.96
529.24	23524.72
529.41	23606.64
529.58	23545.79
529.75	23667.50
529.92	23908.57
530.09	23466.21
530.26	23985.81
530.43	23929.64
530.60	24098.16
530.77	23644.09
530.94	23854.74
531.11	23819.63
531.28	23828.99
531.46	23964.75
531.63	24077.09
531.80	24189.44
531.97	23765.80
532.14	24329.87
532.31	23679.20
532.48	24163.69
532.65	24219.86
532.82	24130.92
532.99	24301.78
533.16	24109.86
533.33	24489.03
533.50	24500.73
533.67	24631.80
533.84	24329.87
534.01	24376.68
534.18	24374.34
534.35	24919.68
534.52	24687.97
534.69	24863.51
534.86	24755.85
535.03	24954.79
535.20	24613.07
535.37	24709.04
535.54	24723.08
535.71	24835.42
535.88	24940.75
536.05	24786.27
536.22	25132.67
536.38	25649.93
536.55	24966.49
536.72	25174.80
536.89	25013.31
537.06	25223.95
537.23	25413.54
537.40	25074.16
537.57	25245.02
537.74	25153.74
537.91	25069.48
538.08	25373.75
538.25	25324.60
538.42	25282.47
538.59	25504.82
538.75	25139.69
538.92	25289.49
539.09	25448.64
539.26	25560.99
539.43	25589.08
539.60	25666.31
539.77	25558.65
539.94	25568.01
540.11	25659.29
540.28	25970.58
540.44	25678.02
540.61	25741.21
540.78	25572.69
540.95	25989.31
541.12	26024.42
541.29	26089.95
541.46	25816.11
541.62	25773.98
541.79	25923.77
541.96	25448.64
542.13	26066.55
542.30	26094.63
542.47	26316.98
542.63	25991.65
542.80	26036.12
542.97	26679.77
543.14	26705.51
543.31	26134.42
543.48	26679.77
543.64	26700.83
543.81	26618.91
543.98	26368.48
544.15	26382.52
544.32	26705.51
544.48	27087.02
544.65	26710.19
544.82	26749.98
544.99	26698.49
545.16	26679.77
545.32	26625.93
545.49	26780.41
545.66	26977.01
545.83	27026.17
546.00	26920.84
546.16	26972.33
546.33	26625.93
546.50	26410.60
546.67	27021.48
546.83	26532.31
547.00	26859.99
547.17	27400.65
547.34	27054.25
547.50	27618.32
547.67	27349.16
547.84	27126.81
548.00	27431.08
548.17	27435.76
548.34	27204.05
548.51	27648.75
548.67	27410.01
548.84	27239.15
549.01	27372.57
549.18	27154.90
549.34	27234.47
549.51	27117.45
549.68	27431.08
549.84	27197.02
550.01	27601.94
550.18	27550.45
550.34	27601.94
550.51	27550.45
550.68	27604.28
550.84	27241.50
551.01	27728.33
551.18	27693.22
551.34	27445.12
551.51	27505.98
551.68	27611.30
551.84	27583.21
552.01	27740.03
552.18	27814.93
552.34	27819.61
552.51	27693.22
552.68	27908.55
552.84	27505.98
553.01	28114.52
553.18	27693.22
553.34	28297.08
553.51	28034.94
553.67	28077.07
553.84	28481.98
554.01	28379.00
554.17	28512.41
554.34	28060.68
554.51	28147.28
554.67	28233.88
554.84	28194.09
555.00	28002.17
555.17	27985.79
555.33	28245.58
555.50	28088.77
555.67	28638.80
555.83	28304.10
556.00	28381.34
556.16	28727.74
556.33	28348.57
556.50	28606.03
556.66	28231.54
556.83	28231.54
556.99	28760.50
557.16	28559.22
557.32	28741.78
557.49	28437.51
557.65	28259.63
557.82	28472.62
557.98	28493.68
558.15	28582.62
558.32	28559.22
558.48	28671.56
558.65	28833.06
558.81	28900.94
558.98	28584.96
559.14	28910.30
559.31	28676.24
559.47	28519.43
559.64	28898.59
559.80	29099.88
559.97	28945.41
560.13	28287.71
560.30	29036.69
560.46	29277.76
560.63	29177.12
560.79	28634.11
560.96	29024.98
561.12	28968.81
561.29	28617.73
561.45	28940.72
561.61	29355.00
561.78	29369.04
561.94	29071.79
562.11	29027.32
562.27	28751.14
562.44	29509.47
562.60	29017.96
562.77	29053.07
562.93	29179.46
563.10	29111.58
563.26	29188.82
563.42	29113.92
563.59	28896.25
563.75	28973.49
563.92	29291.80
564.08	29015.62
564.24	29029.66
564.41	28994.56
564.57	28879.87
564.74	29158.39
564.90	29500.11
565.07	29523.52
565.23	29507.13
565.39	29546.92
565.56	29575.01
565.72	29149.03
565.88	29130.31
566.05	29106.90
566.21	29237.97
566.38	29207.55
566.54	29200.52
566.70	29532.88
566.87	29647.57
567.03	29706.08
567.19	29591.39
567.36	29605.44
567.52	29479.05
567.68	29242.65
567.85	29032.00
568.01	29434.58
568.17	29158.39
568.34	29766.93
568.50	29593.73
568.66	29607.78
568.83	29811.40
568.99	29762.25
569.15	29640.54
569.32	29472.03
569.48	29638.20
569.64	29818.42
569.81	29858.21
569.97	29935.45
570.13	29743.53
570.30	29640.54
570.46	29837.15
570.62	29638.20
570.78	29518.84
570.95	29668.63
571.11	29584.37
571.27	29542.24
571.43	29408.83
571.60	29668.63
571.76	29890.98
571.92	29853.53
572.09	29954.18
572.25	29907.37
572.41	29893.32
572.57	29771.61
572.74	29516.50
572.90	29839.49
573.06	29652.25
573.22	29556.28
573.38	29893.32
573.55	29846.51
573.71	30171.85
573.87	30272.49
574.03	29720.12
574.20	29869.92
574.36	29715.44
574.52	29965.88
574.68	29991.62
574.84	29670.97
575.01	29663.95
575.17	30110.99
575.33	29729.48
575.49	29390.11
575.65	29762.25
575.82	29972.90
575.98	29610.12
576.14	29806.72
576.30	29614.80
576.46	30040.78
576.62	29975.24
576.79	30232.70
576.95	29949.50
577.11	29972.90
577.27	29837.15
577.43	30092.27
577.59	30415.26
577.75	30162.48
577.92	29853.53
578.08	29418.19
578.24	30043.12
578.40	29993.97
578.56	30115.67
578.72	30043.12
578.88	30359.09
579.04	30256.11
579.21	30085.25
579.37	30239.72
579.53	29804.38
579.69	30015.03
579.85	29935.45
580.01	29883.96
580.17	29874.60
580.33	30153.12
580.49	29982.26
580.65	30015.03
580.82	30373.13
580.98	30171.85
581.14	30178.87
581.30	30597.82
581.46	29935.45
581.62	30082.91
581.78	30113.33
581.94	29883.96
582.10	30143.76
582.26	30195.25
582.42	29930.77
582.58	30235.04
582.74	30071.20
582.90	29879.28
583.06	30462.07
583.22	29869.92
583.38	30492.50
583.54	30331.00
583.70	30141.42
583.86	30377.81
584.02	29806.72
584.18	30494.84
584.34	30103.97
584.50	30305.26
584.66	30263.13
584.82	29902.68
584.98	30302.92
585.14	30426.96
585.30	30064.18
585.46	30108.65
585.62	30125.04
585.78	30258.45
585.94	29902.68
586.10	30412.92
586.26	29982.26
586.42	30513.56
586.58	30422.28
586.74	29706.08
586.90	29968.22
587.06	29940.13
587.22	30305.26
587.38	30345.05
587.54	30609.53
587.70	30448.03
587.86	30389.52
588.02	30651.66
588.18	30396.54
588.34	30333.34
588.49	30096.95
588.65	30443.35
588.81	30642.29
588.97	30253.76
589.13	30223.34
589.29	30230.36
589.45	30309.94
589.61	30221.00
589.77	30558.03
589.93	30410.58
590.08	30569.74
590.24	30443.35
590.40	30721.87
590.56	30405.90
590.72	30281.85
590.88	30141.42
591.04	30445.69
591.20	30462.07
591.35	30562.72
591.51	30972.31
591.67	30724.21
591.83	30747.62
591.99	30733.57
592.15	30731.23
592.31	30728.89
592.46	30457.39
592.62	30581.44
592.78	30190.57
592.94	30597.82
593.10	30541.65
593.26	30745.28
593.41	30478.46
593.57	30438.67
593.73	30780.39
593.89	30476.12
594.05	30817.83
594.20	30457.39
594.36	30600.16
594.52	30492.50
594.68	30284.19
594.84	30515.90
594.99	30277.17
595.15	30136.74
595.31	31197.00
595.47	31040.18
595.62	31019.12
595.78	30719.53
595.94	30553.35
596.10	30792.09
596.25	30831.88
596.41	30588.46
596.57	30019.71
596.73	30689.10
596.88	30483.14
597.04	30979.33
597.20	30831.88
597.36	30941.88
597.51	30824.86
597.67	30590.80
597.83	30852.94
597.99	30850.60
598.14	30347.39
598.30	30574.42
598.46	30558.03
598.61	30518.25
598.77	30600.16
598.93	30848.26
599.09	31236.79
599.24	30885.71
599.40	31136.15
599.56	30852.94
599.71	30789.75
599.87	31105.72
600.03	30958.27
600.18	31103.38
600.34	30462.07
600.50	30724.21
600.65	30803.79
600.81	30696.13
600.97	30979.33
601.12	31136.15
601.28	30902.09
601.44	30969.97
601.59	31386.58
601.75	30998.06
601.91	30778.04
602.06	30998.06
602.22	30759.32
602.37	30658.68
602.53	30981.67
602.69	30768.68
602.84	30834.22
603.00	30960.61
603.16	30735.92
603.31	30403.56
603.47	30756.98
603.62	30731.23
603.78	30581.44
603.94	30696.13
604.09	30852.94
604.25	30764.00
604.40	30441.01
604.56	30948.90
604.71	31281.26
604.87	31023.80
605.03	30560.37
605.18	30817.83
605.34	30354.41
605.49	30747.62
605.65	30710.17
605.80	30445.69
605.96	30916.14
606.12	30710.17
606.27	30764.00
606.43	30787.41
606.58	30698.47
606.74	30923.16
606.89	30733.57
607.05	31000.40
607.20	30876.35
607.36	30630.59
607.51	31056.57
607.67	30593.14
607.82	30349.73
607.98	30567.40
608.13	30742.94
608.29	30665.70
608.44	30600.16
608.60	30710.17
608.75	30822.51
608.91	30651.66
609.06	30405.90
609.22	30742.94
609.37	30263.13
609.53	30536.97
609.68	30487.82
609.84	30455.05
609.99	30583.78
610.15	30293.55
610.30	30499.52
610.46	30171.85
610.61	30192.91
610.76	30457.39
610.92	30661.02
611.07	30939.54
611.23	30382.49
611.38	30307.60
611.54	30045.46
611.69	29991.62
611.84	29970.56
612.00	30171.85
612.15	30195.25
612.31	30366.11
612.46	30000.99
612.62	30415.26
612.77	30583.78
612.92	30595.48
613.08	30328.66
613.23	30115.67
613.39	30054.82
613.54	30218.66
613.69	29816.08
613.85	30288.87
614.00	30321.64
614.15	30291.21
614.31	30031.41
614.46	30438.67
614.62	30478.46
614.77	30319.30
614.92	30026.73
615.08	29975.24
615.23	30108.65
615.38	30242.06
615.54	29654.59
615.69	29914.39
615.84	30148.44
616.00	30335.68
616.15	29757.57
616.30	30169.51
616.46	29949.50
616.61	30148.44
616.76	30157.80
616.92	30094.61
617.07	30022.05
617.22	29546.92
617.37	29865.24
617.53	29947.15
617.68	29759.91
617.83	29699.06
617.99	29649.91
618.14	29914.39
618.29	29998.65
618.45	30195.25
618.60	30127.38
618.75	29603.10
618.90	29968.22
619.06	29853.53
619.21	29429.90
619.36	29813.74
619.51	29322.23
619.67	29446.28
619.82	29378.40
619.97	29902.68
620.12	29490.75
620.28	29745.87
620.43	29663.95
620.58	29748.21
620.73	29825.45
620.89	29589.05
621.04	29603.10
621.19	29570.33
621.34	29336.27
621.49	29369.04
621.65	29273.08
621.80	29614.80
621.95	29504.79
622.10	29546.92
622.25	29280.10
622.41	29268.40
622.56	29455.64
622.71	29219.25
622.86	29319.89
623.01	29493.09
623.16	29467.34
623.32	29207.55
623.47	29591.39
623.62	29350.32
623.77	29600.76
623.92	29453.30
624.07	29013.28
624.23	29188.82
624.38	29287.12
624.53	29156.05
624.68	28964.13
624.83	29003.92
624.98	29497.77
625.13	28999.24
625.29	29371.38
625.44	29333.93
625.59	28865.83
625.74	29027.32
625.89	28690.29
626.04	29106.90
626.19	28781.57
626.34	29095.20
626.49	28716.03
626.65	28617.73
626.80	28793.27
626.95	28987.53
627.10	29104.56
627.25	29050.73
627.40	28879.87
627.55	28870.51
627.70	28371.97
627.85	28496.02
628.00	28709.01
628.15	28615.39
628.30	28533.47
628.45	29055.41
628.60	28224.52
628.76	28896.25
628.91	28535.81
629.06	28624.75
629.21	28648.16
629.36	28479.64
629.51	28500.70
629.66	28489.00
629.81	28444.53
629.96	28304.10
630.11	28327.50
630.26	28514.75
630.41	28582.62
630.56	28528.79
630.71	28610.71
630.86	28243.24
631.01	28460.91
631.16	28002.17
631.31	28229.20
631.46	28259.63
631.61	28507.72
631.76	28116.86
631.91	28119.20
632.06	28332.18
632.21	28093.45
632.36	27934.29
632.51	27910.89
632.66	28198.77
632.81	28002.17
632.96	28615.39
633.10	28348.57
633.25	28477.30
633.40	28285.37
633.55	28168.35
633.70	27917.91
633.85	27864.08
634.00	27917.91
634.15	27854.72
634.30	27857.06
634.45	27896.85
634.60	27791.52
634.75	28063.02
634.90	27924.93
635.05	27772.80
635.19	27910.89
635.34	28009.19
635.49	27995.15
635.64	27751.73
635.79	28196.43
635.94	27648.75
636.09	27960.04
636.24	27971.74
636.39	27826.63
636.53	27824.29
636.68	27686.20
636.83	27454.48
636.98	27587.89
637.13	27725.99
637.28	27718.96
637.43	27613.64
637.57	28102.81
637.72	27716.62
637.87	27660.45
638.02	27571.51
638.17	27969.40
638.32	27470.87
638.46	27524.70
638.61	27550.45
638.76	27332.78
638.91	27435.76
639.06	27592.58
639.20	27290.65
639.35	27599.60
639.50	27529.38
639.65	27374.91
639.80	27372.57
639.94	27456.82
640.09	27639.39
640.24	27358.52
640.39	27590.24
640.54	26904.46
640.68	27049.57
640.83	27096.38
640.98	26958.29
641.13	26902.12
641.27	26829.56
641.42	27058.93
641.57	27201.71
641.72	27550.45
641.86	27021.48
642.01	26951.27
642.16	26869.35
642.31	26824.88
642.45	26902.12
642.60	26808.50
642.75	26581.46
642.90	26972.33
643.04	26658.70
643.19	27023.83
643.34	27033.19
643.48	26738.28
643.63	27330.44
643.78	26712.53
643.93	27250.86
644.07	27206.39
644.22	26916.16
644.37	26948.93
644.51	26881.05
644.66	26600.19
644.81	26492.52
644.95	26499.55
645.10	26799.13
645.25	26611.89
645.39	26675.09
645.54	26803.82
645.69	26733.60
645.83	26642.32
645.98	26560.40
646.13	26909.14
646.27	26892.76
646.42	26728.92
646.57	26742.96
646.71	26647.00
646.86	26515.93
647.00	26354.43
647.15	26174.21
647.30	26555.72
647.44	26382.52
647.59	26637.64
647.74	26473.80
647.88	26506.57
648.03	26579.12
648.17	26787.43
648.32	26796.79
648.47	27026.17
648.61	26724.24
648.76	26532.31
648.90	26466.78
649.05	26457.42
649.20	26480.82
649.34	26539.33
649.49	25860.58
649.63	26122.72
649.78	26024.42
649.92	26246.77
650.07	26338.05
650.21	25923.77
650.36	25951.86
650.51	26033.78
650.65	26019.74
650.80	26111.02
650.94	25926.11
651.09	26309.96
651.23	26345.07
651.38	26038.46
651.52	25977.61
651.67	26089.95
651.81	26045.48
651.96	25806.75
652.10	26157.83
652.25	26155.49
652.39	26092.29
652.54	26260.81
652.68	26064.21
652.83	25881.64
652.97	26321.66
653.12	26113.36
653.26	25986.97
653.41	26202.30
653.55	26134.42
653.70	25584.40
653.84	25766.96
653.99	26043.14
654.13	25685.04
654.27	25930.80
654.42	25607.80
654.56	25783.34
654.71	25617.16
654.85	25769.30
655.00	25727.17
655.14	25432.26
655.29	25881.64
655.43	25771.64
655.57	25422.90
655.72	25535.24
655.86	25434.60
656.01	25755.26
656.15	25556.31
656.30	25301.19
656.44	25563.33
656.58	25233.32
656.73	25518.86
656.87	25542.27
657.01	25443.96
657.16	25565.67
657.30	25439.28
657.45	25275.45
657.59	25399.49
657.73	25305.87
657.88	25322.26
658.02	25214.59
658.16	25373.75
658.31	25296.51
658.45	25247.36
658.60	24856.49
658.74	25142.03
658.88	25158.42
659.03	25235.66
659.17	24966.49
659.31	25043.73
659.46	25111.61
659.60	25345.66
659.74	24975.86
659.89	25319.92
660.03	24917.34
660.17	24870.53
660.32	24741.80
660.46	24767.55
660.60	24744.14
660.74	24528.81
660.89	24816.70
661.03	24643.50
661.17	24566.26
661.32	24549.88
661.46	24716.06
661.60	24713.72
661.74	24805.00
661.89	24599.03
662.03	24610.73
662.17	24531.15
662.31	23875.80
662.46	24725.42
662.60	24299.44
662.74	24474.98
662.88	24114.54
663.03	24063.05
663.17	24423.49
663.31	23899.21
663.45	24294.76
663.60	24184.76
663.74	24088.79
663.88	24023.26
664.02	24044.32
664.17	24257.31
664.31	23864.10
664.45	23887.51
664.59	24046.66
664.73	24271.36
664.88	23782.18
665.02	23358.55
665.16	23817.29
665.30	24037.30
665.44	23920.28
665.59	23740.05
665.73	23772.82
665.87	23669.84
666.01	23800.91
666.15	23697.92
666.29	23527.06
666.44	23578.56
666.58	23517.70
666.72	23456.85
666.86	23475.57
667.00	23274.29
667.14	23744.73
667.28	23424.08
667.43	23131.51
667.57	23262.58
667.71	23154.92
667.85	23349.18
667.99	23278.97
668.13	23098.75
668.27	23379.61
668.41	23171.30
668.56	22932.57
668.70	23325.78
668.84	23185.35
668.98	23058.96
669.12	23398.34
669.26	23030.87
669.40	22981.72
669.54	22902.14
669.68	23026.19
669.82	22843.63
669.96	22852.99
670.10	22934.91
670.25	22590.85
670.39	22906.82
670.53	22586.17
670.67	22281.90
670.81	22389.56
670.95	22600.21
671.09	22663.41
671.23	22513.61
671.37	22616.60
671.51	22464.46
671.65	22438.72
671.79	21994.01
671.93	22223.39
672.07	22244.45
672.21	22286.58
672.35	22094.66
672.49	21818.47
672.63	21607.83
672.77	21685.06
672.91	21631.23
673.05	21958.91
673.19	21853.58
673.33	21661.66
673.47	22155.51
673.61	22054.87
673.75	21855.92
673.89	21706.13
674.03	21738.90
674.17	21406.54
674.31	21350.37
674.45	21689.74
674.59	21303.56
674.73	21369.09
674.87	21338.66
675.01	21231.00
675.15	21184.19
675.29	20968.86
675.43	21022.69
675.56	21362.07
675.70	21050.78
675.84	21015.67
675.98	20643.52
676.12	20966.52
676.26	20919.71
676.40	21027.37
676.54	20795.66
676.68	21013.33
676.82	20603.74
676.96	20802.68
677.10	20168.40
677.23	20549.90
677.37	20369.68
677.51	20386.07
677.65	20362.66
677.79	20229.25
677.93	20107.54
678.07	20137.97
678.21	20126.27
678.34	19873.49
678.48	19985.83
678.62	19857.10
678.76	19864.13
678.90	19527.09
679.04	19721.35
679.18	19428.79
679.31	19620.71
679.45	19613.69
679.59	19543.47
679.73	19477.94
679.87	19178.35
680.00	19044.94
680.14	19435.81
680.28	19145.58
680.42	19213.46
680.56	19536.45
680.70	19154.94
680.83	19321.12
680.97	19042.60
681.11	18750.03
681.25	18593.22
681.39	18988.77
681.52	19030.90
681.66	18579.17
681.80	18579.17
681.94	18628.32
682.07	18654.07
682.21	18391.93
682.35	18314.69
682.49	18508.96
682.62	18480.87
682.76	18225.75
682.90	18298.31
683.04	18307.67
683.17	18204.69
683.31	18260.86
683.45	18160.22
683.59	18024.47
683.72	18061.91
683.86	18010.42
684.00	17912.12
684.13	17689.77
684.27	18068.94
684.41	18094.68
684.55	17649.98
684.68	17502.53
684.82	17394.86
684.96	17308.26
685.09	17593.81
685.23	17226.34
685.37	17254.43
685.50	17359.75
685.64	17170.17
685.78	17439.33
685.91	17298.90
686.05	17362.09
686.19	17020.38
686.32	17221.66
686.46	16945.48
686.60	16439.92
686.73	16819.09
686.87	16706.74
687.01	16638.87
687.14	16294.81
687.28	16430.56
687.42	16369.71
687.55	16217.57
687.69	16449.28
687.82	16369.71
687.96	16285.45
688.10	16383.75
688.23	16156.72
688.37	16287.79
688.50	16093.52
688.64	15791.59
688.78	15887.56
688.91	15894.58
689.05	15744.78
689.18	15854.79
689.32	15353.91
689.46	15683.93
689.59	15569.24
689.73	15545.84
689.86	15625.42
690.00	15470.94
690.13	15494.35
690.27	15211.14
690.41	15318.81
690.54	15557.54
690.68	15356.25
690.81	15358.60
690.95	15234.55
691.08	15131.56
691.22	15016.88
691.35	14949.00
691.49	14984.11
691.62	15124.54
691.76	14700.90
691.89	14633.03
692.03	14658.78
692.16	14443.45
692.30	14335.78
692.43	14560.47
692.57	14590.90
692.70	14279.61
692.84	14281.95
692.97	14485.58
693.11	14338.12
693.24	14368.55
693.38	14040.87
693.51	14052.58
693.65	14221.10
693.78	14017.47
693.92	14001.08
694.05	14150.88
694.19	13804.48
694.32	13816.18
694.45	13544.68
694.59	13575.11
694.72	13535.32
694.86	13488.51
694.99	13397.23
695.13	13408.93
695.26	13481.49
695.39	13268.50
695.53	13331.69
695.66	13338.71
695.80	13240.41
695.93	13146.79
696.07	13221.69
696.20	13259.13
696.33	13125.72
696.47	12894.01
696.60	12769.96
696.73	12894.01
696.87	12872.95
697.00	12545.27
697.14	12287.81
697.27	12428.24
697.40	12634.21
697.54	12571.02
697.67	12430.59
697.80	12325.26
697.94	12248.02
698.07	12343.99
698.21	12149.72
698.34	12166.10
698.47	12196.53
698.61	12276.11
698.74	12060.78
698.87	12135.68
699.01	12116.95
699.14	12049.08
699.27	12107.59
699.40	12049.08
699.54	11808.00
699.67	11578.63
699.80	11740.13
699.94	11613.74
700.07	11515.44
700.20	11524.80
700.34	11363.30
700.47	11311.81
700.60	11201.80
700.73	11349.26
700.87	11192.44
701.00	11042.65
701.13	11232.23
701.26	11335.21
701.40	11236.91
701.53	11234.57
701.66	11276.70
701.79	10899.87
701.93	11199.46
702.06	10759.44
702.19	10761.78
702.32	10808.59
702.46	10574.54
702.59	10560.50
702.72	10565.18
702.85	10487.94
702.99	10391.98
703.12	10471.56
703.25	10429.43
703.38	10459.85
703.51	10487.94
703.65	10373.25
703.78	10242.18
703.91	10249.21
704.04	10197.71
704.17	10401.34
704.31	10076.01
704.44	10141.54
704.57	9994.09
704.70	10017.49
704.83	9774.08
704.96	9886.42
705.10	9811.53
705.23	9816.21
>>>>>End Processed Spectral Data<<<<<
