SpectraSuite Data File
++++++++++++++++++++++++++++++++++++
Date: Fri Oct 18 13:58:16 GMT-05:00 2013
User: bianchi
Dark Spectrum Present: No
Reference Spectrum Present: No
Number of Sampled Component Spectra: 1
Spectrometers: USB2+H05261
Integration Time (usec): 50000 (USB2+H05261)
Spectra Averaged: 1 (USB2+H05261)
Boxcar Smoothing: 0 (USB2+H05261)
Correct for Electrical Dark: No (USB2+H05261)
Strobe/Lamp Enabled: No (USB2+H05261)
Correct for Detector Non-linearity: No (USB2+H05261)
Correct for Stray Light: No (USB2+H05261)
Number of Pixels in Processed Spectrum: 2048
>>>>>Begin Processed Spectral Data<<<<<
365.73	0.00
365.92	0.00
366.12	0.00
366.32	0.00
366.52	0.00
366.72	0.00
366.91	0.00
367.11	0.00
367.31	0.00
367.51	0.00
367.70	0.00
367.90	0.00
368.10	0.00
368.30	0.00
368.49	0.00
368.69	0.00
368.89	0.00
369.09	0.00
369.28	0.00
369.48	0.00
369.68	0.00
369.87	0.00
370.07	0.00
370.27	0.00
370.47	0.00
370.66	152.13
370.86	140.43
371.06	102.98
371.25	173.20
371.45	135.75
371.65	140.43
371.84	166.18
372.04	173.20
372.24	177.88
372.44	168.52
372.63	177.88
372.83	220.01
373.03	210.65
373.22	208.31
373.42	154.48
373.62	154.48
373.81	142.77
374.01	234.05
374.21	217.67
374.40	224.69
374.60	278.52
374.79	243.42
374.99	241.08
375.19	266.82
375.38	241.08
375.58	322.99
375.78	269.16
375.97	224.69
376.17	271.50
376.37	227.03
376.56	189.58
376.76	266.82
376.95	318.31
377.15	255.12
377.35	276.18
377.54	283.20
377.74	280.86
377.93	271.50
378.13	257.46
378.33	290.23
378.52	353.42
378.72	252.78
378.91	215.33
379.11	360.44
379.31	269.16
379.50	278.52
379.70	290.23
379.89	266.82
380.09	287.89
380.28	250.44
380.48	257.46
380.68	318.31
380.87	304.27
381.07	299.59
381.26	278.52
381.46	311.29
381.65	362.78
381.85	262.14
382.04	365.12
382.24	311.29
382.43	252.78
382.63	301.93
382.83	318.31
383.02	283.20
383.22	433.00
383.41	369.80
383.61	325.33
383.80	374.49
384.00	397.89
384.19	379.17
384.39	386.19
384.58	379.17
384.78	355.76
384.97	330.02
385.17	360.44
385.36	433.00
385.56	390.87
385.75	404.91
385.95	430.66
386.14	437.68
386.34	414.27
386.53	411.93
386.72	402.57
386.92	458.74
387.11	421.30
387.31	411.93
387.50	407.25
387.70	418.96
387.89	407.25
388.09	447.04
388.28	416.62
388.48	367.46
388.67	402.57
388.86	517.26
389.06	402.57
389.25	456.40
389.45	454.06
389.64	440.02
389.84	418.96
390.03	461.09
390.22	517.26
390.42	477.47
390.61	461.09
390.81	505.56
391.00	507.90
391.19	503.22
391.39	507.90
391.58	582.79
391.78	489.17
391.97	440.02
392.16	543.00
392.36	528.96
392.55	589.82
392.75	489.17
392.94	477.47
393.13	582.79
393.33	587.47
393.52	545.34
393.71	507.90
393.91	582.79
394.10	561.73
394.29	566.41
394.49	557.05
394.68	636.63
394.88	564.07
395.07	657.69
395.26	564.07
395.46	660.03
395.65	678.76
395.84	608.54
396.04	627.26
396.23	629.60
396.42	713.86
396.62	592.16
396.81	589.82
397.00	606.20
397.19	631.94
397.39	674.07
397.58	613.22
397.77	599.18
397.97	601.52
398.16	748.97
398.35	711.52
398.55	718.54
398.74	767.70
398.93	718.54
399.12	718.54
399.32	718.54
399.51	706.84
399.70	702.16
399.90	753.65
400.09	692.80
400.28	786.42
400.47	788.76
400.67	823.87
400.86	795.78
401.05	765.36
401.24	683.44
401.44	858.98
401.63	777.06
401.82	763.01
402.01	730.25
402.21	793.44
402.40	802.80
402.59	828.55
402.78	833.23
402.97	898.77
403.17	926.85
403.36	903.45
403.55	877.70
403.74	880.04
403.93	896.43
404.13	950.26
404.32	905.79
404.51	868.34
404.70	997.07
404.89	943.24
405.09	884.72
405.28	940.90
405.47	966.64
405.66	992.39
405.85	980.68
406.05	947.92
406.24	922.17
406.43	973.66
406.62	971.32
406.81	1086.01
407.00	929.19
407.20	1008.77
407.39	1015.79
407.58	1057.92
407.77	1032.18
407.96	1071.97
408.15	1039.20
408.34	957.28
408.54	1074.31
408.73	1156.22
408.92	1083.67
409.11	1111.75
409.30	1036.86
409.49	1100.05
409.68	1050.90
409.87	1158.57
410.07	1181.97
410.26	1198.35
410.45	1196.01
410.64	1172.61
410.83	1221.76
411.02	1114.10
411.21	1247.51
411.40	1270.91
411.59	1331.76
411.78	1310.70
411.98	1259.21
412.17	1266.23
412.36	1287.29
412.55	1249.85
412.74	1310.70
412.93	1329.42
413.12	1315.38
413.31	1497.94
413.50	1425.39
413.69	1441.77
413.88	1486.24
414.07	1418.36
414.26	1362.19
414.45	1448.79
414.64	1469.86
414.83	1514.33
415.02	1523.69
415.22	1474.54
415.41	1483.90
415.60	1451.13
415.79	1511.99
415.98	1598.59
416.17	1617.31
416.36	1586.88
416.55	1563.48
416.74	1729.66
416.93	1591.56
417.12	1563.48
417.31	1640.72
417.50	1743.70
417.69	1668.80
417.88	1715.61
418.07	1776.47
418.26	1715.61
418.45	1753.06
418.64	1839.66
418.83	1792.85
419.02	1741.36
419.21	1778.81
419.39	1809.23
419.58	1834.98
419.77	1799.87
419.96	1792.85
420.15	1797.53
420.34	1881.79
420.53	2001.16
420.72	1863.07
420.91	1830.30
421.10	1970.73
421.29	2001.16
421.48	1865.41
421.67	1933.28
421.86	1968.39
422.05	1977.75
422.24	1872.43
422.43	1930.94
422.61	1933.28
422.80	2015.20
422.99	1963.71
423.18	2071.37
423.37	2073.71
423.56	1989.46
423.75	2026.90
423.94	2066.69
424.13	1834.98
424.32	1975.41
424.50	2031.58
424.69	2157.97
424.88	2127.55
425.07	2052.65
425.26	2015.20
425.45	2043.29
425.64	2069.03
425.83	2038.61
426.01	2176.70
426.20	2094.78
426.39	2054.99
426.58	1961.37
426.77	2001.16
426.96	1998.82
427.15	2249.25
427.33	2214.15
427.52	2134.57
427.71	1989.46
427.90	2094.78
428.09	2230.53
428.28	2136.91
428.46	2080.74
428.65	2246.91
428.84	2246.91
429.03	2347.56
429.22	2321.81
429.40	2265.64
429.59	2211.81
429.78	2066.69
429.97	2207.13
430.16	2253.94
430.34	2260.96
430.53	2420.11
430.72	2396.71
430.91	2265.64
431.10	2293.72
431.28	2392.03
431.47	2303.09
431.66	2385.01
431.85	2263.30
432.03	2356.92
432.22	2443.52
432.41	2443.52
432.60	2434.16
432.79	2380.32
432.97	2382.67
433.16	2473.95
433.35	2410.75
433.54	2635.44
433.72	2518.42
433.91	2497.35
434.10	2518.42
434.28	2443.52
434.47	2530.12
434.66	2562.89
434.85	2647.15
435.03	2576.93
435.22	2518.42
435.41	2539.48
435.59	2551.18
435.78	2717.36
435.97	2642.46
436.16	2710.34
436.34	2644.81
436.53	2738.43
436.72	2780.56
436.90	2581.61
437.09	2738.43
437.28	2700.98
437.46	2663.53
437.65	2710.34
437.84	2757.15
438.02	2818.00
438.21	2820.35
438.40	2864.82
438.58	2829.71
438.77	2810.98
438.96	2794.60
439.14	2885.88
439.33	2832.05
439.52	2939.71
439.70	2904.60
439.89	3080.14
440.08	2956.10
440.26	3087.17
440.45	3023.97
440.63	3063.76
440.82	3133.98
441.01	3108.23
441.19	3131.64
441.38	3141.00
441.57	3239.30
441.75	3225.26
441.94	3279.09
442.12	3260.37
442.31	3323.56
442.50	3307.18
442.68	3400.80
442.87	3318.88
443.05	3243.98
443.24	3400.80
443.43	3384.41
443.61	3421.86
443.80	3342.28
443.98	3384.41
444.17	3421.86
444.35	3361.01
444.54	3403.14
444.73	3435.91
444.91	3426.54
445.10	3435.91
445.28	3398.46
445.47	3339.94
445.65	3391.44
445.84	3433.57
446.02	3480.38
446.21	3536.55
446.39	3599.74
446.58	3527.19
446.77	3471.01
446.95	3424.20
447.14	3478.04
447.32	3541.23
447.51	3442.93
447.69	3424.20
447.88	3501.44
448.06	3552.93
448.25	3609.11
448.43	3407.82
448.62	3414.84
448.80	3475.70
448.99	3559.95
449.17	3700.39
449.36	3576.34
449.54	3684.00
449.73	3749.54
449.91	3714.43
450.10	3632.51
450.28	3770.60
450.46	3789.33
450.65	3667.62
450.83	3700.39
451.02	3798.69
451.20	3805.71
451.39	3840.82
451.57	3691.02
451.76	3803.37
451.94	3747.20
452.13	3941.46
452.31	3957.85
452.49	3829.12
452.68	3756.56
452.86	3906.35
453.05	3918.06
453.23	4028.06
453.42	3768.26
453.60	3763.58
453.78	3904.01
453.97	3899.33
454.15	3939.12
454.34	3763.58
454.52	3915.72
454.70	4074.87
454.89	4049.13
455.07	4016.36
455.26	3896.99
455.44	4072.53
455.62	3981.25
455.81	4046.79
455.99	4049.13
456.17	4287.86
456.36	4227.01
456.54	4107.64
456.73	4245.73
456.91	4219.99
457.09	4182.54
457.28	4301.90
457.46	4287.86
457.64	4297.22
457.83	4421.27
458.01	4322.97
458.19	4388.50
458.38	4397.87
458.56	4276.16
458.74	4503.19
458.93	4470.42
459.11	4435.32
459.29	4365.10
459.48	4435.32
459.66	4337.01
459.84	4519.57
460.03	4505.53
460.21	4498.51
460.39	4458.72
460.57	4620.22
460.76	4449.36
460.94	4514.89
461.12	4538.30
461.31	4564.04
461.49	4512.55
461.67	4652.98
461.85	4643.62
462.04	4603.83
462.22	5041.51
462.40	4793.42
462.59	4734.90
462.77	4674.05
462.95	4915.12
463.13	4741.93
463.32	4854.27
463.50	4823.84
463.68	4664.69
463.86	4816.82
464.05	4784.06
464.23	4748.95
464.41	4938.53
464.59	4887.04
464.78	4851.93
464.96	4882.36
465.14	4908.10
465.32	5107.05
465.50	5062.58
465.69	4994.70
465.87	5100.03
466.05	4968.96
466.23	4933.85
466.41	5083.64
466.60	5104.71
466.78	4915.12
466.96	4910.44
467.14	4931.51
467.32	5015.77
467.51	5093.01
467.69	5139.82
467.87	5015.77
468.05	5132.79
468.23	5036.83
468.41	5153.86
468.60	5078.96
468.78	5273.23
468.96	5165.56
469.14	5308.34
469.32	5404.30
469.50	5121.09
469.69	5383.23
469.87	5444.09
470.05	5423.02
470.23	5408.98
470.41	5313.02
470.59	5348.12
470.77	5448.77
470.95	5495.58
471.14	5509.62
471.32	5453.45
471.50	5528.35
471.68	5568.13
471.86	5748.36
472.04	5692.18
472.22	5694.52
472.40	5678.14
472.58	5783.46
472.77	5675.80
472.95	5715.59
473.13	5856.02
473.31	5769.42
473.49	5870.06
473.67	5654.73
473.85	5837.30
474.03	5921.56
474.21	5998.79
474.39	6155.61
474.57	6136.88
474.75	6307.74
474.93	6108.80
475.12	6120.50
475.30	6015.18
475.48	6113.48
475.66	6052.63
475.84	6104.12
476.02	6338.17
476.20	6457.54
476.38	6464.56
476.56	6490.31
476.74	6565.20
476.92	6408.39
477.10	6527.75
477.28	6717.34
477.46	6677.55
477.64	6766.49
477.82	6806.28
478.00	6956.07
478.18	6951.39
478.36	6939.69
478.54	7035.65
478.72	7197.15
478.90	7148.00
479.08	7279.07
479.26	7283.75
479.44	7300.13
479.62	7346.94
479.80	7382.05
479.98	7442.90
480.16	7581.00
480.34	7641.85
480.52	7744.83
480.70	7573.97
480.88	7545.89
481.06	7639.51
481.24	7662.91
481.41	7929.74
481.59	8002.29
481.77	7892.29
481.95	8138.04
482.13	8002.29
482.31	7953.14
482.49	8215.28
482.67	8194.22
482.85	8381.46
483.03	8461.04
483.21	8603.81
483.39	8671.68
483.57	8648.28
483.74	8627.21
483.92	8685.73
484.10	8772.33
484.28	8950.21
484.46	9118.73
484.64	9116.39
484.82	8980.64
485.00	9048.51
485.18	9139.79
485.35	9273.20
485.53	9444.06
485.71	9596.20
485.89	9666.41
486.07	9643.01
486.25	9706.20
486.43	9724.93
486.61	9872.38
486.78	10087.71
486.96	9991.75
487.14	10024.51
487.32	9951.96
487.50	10057.28
487.68	10298.36
487.85	10354.53
488.03	10211.76
488.21	10656.46
488.39	10635.39
488.57	10464.54
488.75	10413.04
488.92	10820.30
489.10	10958.39
489.28	10895.19
489.46	11082.44
489.64	10998.18
489.81	11419.47
489.99	11300.11
490.17	11154.99
490.35	11627.78
490.53	11637.14
490.70	11665.23
490.88	11377.34
491.06	11702.68
491.24	11815.02
491.41	11651.19
491.59	11885.24
491.77	12229.30
491.95	12177.81
492.13	12205.89
492.30	12329.94
492.48	12142.70
492.66	12290.15
492.84	12187.17
493.01	12465.69
493.19	12655.28
493.37	12542.93
493.54	12784.01
493.72	13025.08
493.90	12739.54
494.08	12945.50
494.25	13069.55
494.43	13179.56
494.61	13235.73
494.79	13336.37
494.96	13455.74
495.14	13420.63
495.32	13703.84
495.49	13247.43
495.67	13401.91
495.85	13715.54
496.02	13867.67
496.20	13870.01
496.38	13975.34
496.55	14024.49
496.73	14256.20
496.91	13998.74
497.09	14382.59
497.26	14427.06
497.44	14279.61
497.62	14253.86
497.79	14494.94
497.97	14590.90
498.14	14862.40
498.32	14827.29
498.50	14773.46
498.67	15066.03
498.85	14906.87
499.03	14841.34
499.20	14768.78
499.38	15180.71
499.56	15318.81
499.73	15136.24
499.91	15445.20
500.08	15419.45
500.26	15311.78
500.44	15435.83
500.61	15609.03
500.79	15520.09
500.97	15293.06
501.14	15889.90
501.32	15733.08
501.49	15833.72
501.67	15541.16
501.84	15969.48
502.02	16020.97
502.20	15920.32
502.37	16060.76
502.55	16322.90
502.72	16205.87
502.90	16229.27
503.07	16318.22
503.25	16255.02
503.43	16283.11
503.60	16320.56
503.78	16353.32
503.95	16439.92
504.13	16746.53
504.30	16685.68
504.48	16840.15
504.65	16414.18
504.83	16856.54
505.01	16863.56
505.18	16910.37
505.36	16971.22
505.53	17041.44
505.71	17074.21
505.88	17036.76
506.06	17071.87
506.23	17193.58
506.41	16971.22
506.58	17226.34
506.76	17390.18
506.93	17565.72
507.11	17331.67
507.28	17418.27
507.46	17266.13
507.63	17469.76
507.81	17884.03
507.98	17666.36
508.16	17731.90
508.33	17717.86
508.50	17937.87
508.68	17872.33
508.85	18253.84
509.03	18010.42
509.20	18001.06
509.38	18211.71
509.55	18670.45
509.73	18288.95
509.90	18389.59
510.08	18221.07
510.25	18288.95
510.42	18143.83
510.60	18537.04
510.77	18808.54
510.95	18621.30
511.12	18771.10
511.30	18862.38
511.47	18600.24
511.64	18754.71
511.82	19108.13
511.99	18951.32
512.17	19309.42
512.34	19023.87
512.51	19171.33
512.69	19274.31
512.86	19241.54
513.04	19101.11
513.21	19499.00
513.38	19421.77
513.56	19454.53
513.73	19463.90
513.90	19545.81
514.08	19304.74
514.25	19735.40
514.43	19704.97
514.60	19871.15
514.77	19669.86
514.95	20112.22
515.12	19683.91
515.29	19606.67
515.47	20016.26
515.64	20168.40
515.81	19829.02
515.99	20067.75
516.16	20184.78
516.33	20166.06
516.51	20514.80
516.68	20166.06
516.85	20327.55
517.03	20608.42
517.20	20357.98
517.37	20423.51
517.54	20524.16
517.72	20547.56
517.89	20725.44
518.06	20620.12
518.24	20751.19
518.41	20552.24
518.58	20821.41
518.75	20950.14
518.93	21046.10
519.10	21170.15
519.27	20989.92
519.45	20943.11
519.62	20790.98
519.79	21184.19
519.96	20898.64
520.14	21406.54
520.31	21097.59
520.48	21460.37
520.65	21003.97
520.83	21458.03
521.00	21329.30
521.17	21357.39
521.34	21539.95
521.52	21701.45
521.69	21429.94
521.86	21598.46
522.03	21507.18
522.20	21425.26
522.38	21867.63
522.55	21858.26
522.72	21748.26
522.89	21895.71
523.07	22080.61
523.24	22019.76
523.41	22054.87
523.58	21701.45
523.75	22300.62
523.92	21816.13
524.10	22064.23
524.27	22113.38
524.44	22593.19
524.61	22382.54
524.78	22544.04
524.96	22359.14
525.13	22530.00
525.30	22389.56
525.47	22487.87
525.64	22661.07
525.81	22965.34
525.98	22895.12
526.16	22731.28
526.33	22778.09
526.50	22796.82
526.67	22733.62
526.84	23068.32
527.01	22635.32
527.18	22717.24
527.36	23070.66
527.53	23304.71
527.70	23386.63
527.87	23480.25
528.04	23185.35
528.21	23077.68
528.38	23433.44
528.55	23733.03
528.72	23084.70
528.89	23438.12
529.07	23496.64
529.24	23377.27
529.41	23562.17
529.58	23396.00
529.75	23557.49
529.92	23431.10
530.09	23421.74
530.26	23733.03
530.43	23585.58
530.60	23585.58
530.77	23779.84
530.94	24091.13
531.11	23578.56
531.28	23648.77
531.46	23482.59
531.63	23604.30
531.80	23922.62
531.97	24114.54
532.14	24381.36
532.31	23793.89
532.48	24114.54
532.65	24212.84
532.82	24095.82
532.99	23997.51
533.16	24053.69
533.33	24278.38
533.50	24582.65
533.67	24582.65
533.84	24439.87
534.01	24116.88
534.18	24357.96
534.35	24507.75
534.52	24526.47
534.69	24601.37
534.86	24727.76
535.03	24645.84
535.20	24819.04
535.37	24655.20
535.54	24713.72
535.71	24470.30
535.88	24896.28
536.05	24381.36
536.22	25188.85
536.38	24943.09
536.55	25378.43
536.72	24957.13
536.89	24926.71
537.06	24910.32
537.23	25116.29
537.40	24847.13
537.57	24863.51
537.74	25340.98
537.91	25392.47
538.08	25195.87
538.25	25048.41
538.42	25296.51
538.59	25401.83
538.75	25067.14
538.92	25310.55
539.09	25209.91
539.26	25254.38
539.43	25415.88
539.60	25640.57
539.77	25245.02
539.94	25610.14
540.11	25525.88
540.28	25790.36
540.44	25584.40
540.61	25724.83
540.78	25544.61
540.95	25827.81
541.12	25628.87
541.29	25699.08
541.46	25579.71
541.62	25795.04
541.79	25844.20
541.96	25406.52
542.13	25722.49
542.30	25942.50
542.47	26146.12
542.63	26073.57
542.80	26036.12
542.97	26113.36
543.14	26218.68
543.31	25956.54
543.48	26106.34
543.64	26382.52
543.81	26321.66
543.98	26480.82
544.15	26745.30
544.32	26335.71
544.48	26487.84
544.65	26527.63
544.82	26590.83
544.99	26445.71
545.16	26595.51
545.32	26672.74
545.49	26735.94
545.66	26841.26
545.83	26998.08
546.00	26707.85
546.16	26700.83
546.33	26551.04
546.50	26298.26
546.67	26796.79
546.83	26815.52
547.00	26906.80
547.17	26977.01
547.34	27028.51
547.50	26567.42
547.67	26885.73
547.84	27302.35
548.00	27285.97
548.17	27206.39
548.34	27089.36
548.51	27295.33
548.67	27204.05
548.84	27435.76
549.01	27105.74
549.18	26719.56
549.34	26984.04
549.51	27239.15
549.68	27220.43
549.84	27239.15
550.01	27330.44
550.18	27152.55
550.34	27166.60
550.51	27587.89
550.68	27370.22
550.84	27452.14
551.01	27714.28
551.18	27381.93
551.34	27452.14
551.51	27229.79
551.68	27414.69
551.84	27938.97
552.01	27534.06
552.18	27910.89
552.34	27763.43
552.51	28027.92
552.68	27662.79
552.84	28093.45
553.01	28107.49
553.18	27615.98
553.34	27690.88
553.51	27922.59
553.67	28250.27
553.84	28280.69
554.01	28341.55
554.17	27988.13
554.34	28116.86
554.51	28254.95
554.67	28081.75
554.84	27835.99
555.00	28116.86
555.17	28261.97
555.33	28428.15
555.50	28273.67
555.67	28168.35
555.83	27899.19
556.00	28130.90
556.16	28315.80
556.33	28170.69
556.50	28107.49
556.66	28329.84
556.83	28418.78
556.99	28479.64
557.16	28348.57
557.32	28301.76
557.49	28524.11
557.65	28432.83
557.82	28243.24
557.98	28683.27
558.15	28491.34
558.32	28458.57
558.48	28613.05
558.65	28982.85
558.81	28496.02
558.98	28589.64
559.14	28741.78
559.31	28470.28
559.47	28521.77
559.64	28212.82
559.80	28589.64
559.97	28652.84
560.13	28610.71
560.30	28638.80
560.46	28809.65
560.63	28922.00
560.79	28587.30
560.96	28922.00
561.12	28751.14
561.29	28561.56
561.45	28666.88
561.61	28978.17
561.78	28730.08
561.94	28940.72
562.11	28936.04
562.27	28884.55
562.44	28858.81
562.60	28804.97
562.77	28842.42
562.93	28388.36
563.10	28945.41
563.26	29099.88
563.42	28973.49
563.59	29097.54
563.75	28584.96
563.92	29134.99
564.08	29130.31
564.24	28978.17
564.41	29338.62
564.57	28833.06
564.74	28893.91
564.90	29078.82
565.07	29104.56
565.23	29111.58
565.39	28957.11
565.56	29254.36
565.72	28947.75
565.88	28961.79
566.05	29118.60
566.21	29249.67
566.38	29046.05
566.54	29298.83
566.70	29635.86
566.87	29399.47
567.03	29315.21
567.19	29893.32
567.36	29228.61
567.52	29163.08
567.68	28856.46
567.85	29476.71
568.01	29600.76
568.17	29219.25
568.34	29551.60
568.50	29151.37
568.66	29766.93
568.83	29575.01
568.99	29237.97
569.15	29111.58
569.32	29069.45
569.48	29392.45
569.64	29802.04
569.81	29549.26
569.97	29621.82
570.13	29546.92
570.30	29167.76
570.46	29373.72
570.62	29404.15
570.78	29303.51
570.95	28975.83
571.11	29710.76
571.27	28842.42
571.43	29434.58
571.60	29378.40
571.76	29631.18
571.92	29062.43
572.09	29235.63
572.25	29600.76
572.41	29556.28
572.57	29469.69
572.74	29312.87
572.90	29422.87
573.06	29263.72
573.22	29205.20
573.38	29523.52
573.55	29230.95
573.71	29661.61
573.87	29951.84
574.03	29804.38
574.20	29446.28
574.36	28954.77
574.52	29757.57
574.68	29881.62
574.84	29392.45
575.01	30010.35
575.17	29806.72
575.33	29914.39
575.49	29853.53
575.65	29790.34
575.82	29441.60
575.98	29469.69
576.14	29766.93
576.30	29488.41
576.46	29570.33
576.62	29745.87
576.79	29902.68
576.95	29635.86
577.11	29331.59
577.27	29738.85
577.43	29883.96
577.59	30015.03
577.75	29282.44
577.92	29661.61
578.08	29497.77
578.24	29685.01
578.40	29855.87
578.56	29722.46
578.72	29619.48
578.88	30272.49
579.04	29982.26
579.21	29806.72
579.37	29874.60
579.53	29701.40
579.69	29652.25
579.85	29528.20
580.01	29762.25
580.17	29558.63
580.33	29874.60
580.49	29542.24
580.65	29951.84
580.82	30134.40
580.98	29944.81
581.14	29563.31
581.30	29982.26
581.46	29736.51
581.62	29930.77
581.78	29493.09
581.94	29668.63
582.10	29476.71
582.26	30087.59
582.42	29921.41
582.58	30148.44
582.74	29813.74
582.90	30010.35
583.06	30066.52
583.22	29902.68
583.38	29942.47
583.54	30103.97
583.70	29876.94
583.86	29862.90
584.02	29759.91
584.18	29975.24
584.34	29989.28
584.50	29900.34
584.66	29958.86
584.82	29762.25
584.98	29539.90
585.14	29928.43
585.30	29696.72
585.46	29605.44
585.62	30218.66
585.78	29790.34
585.94	29727.14
586.10	30099.29
586.26	29778.64
586.42	30068.86
586.58	30188.23
586.74	29890.98
586.90	29607.78
587.06	29907.37
587.22	30204.61
587.38	30040.78
587.54	30146.10
587.70	29846.51
587.86	29874.60
588.02	30000.99
588.18	30157.80
588.34	30054.82
588.49	30609.53
588.65	29797.36
588.81	30031.41
588.97	29680.33
589.13	30167.16
589.29	30040.78
589.45	30040.78
589.61	30057.16
589.77	30050.14
589.93	29996.31
590.08	30113.33
590.24	30457.39
590.40	30639.95
590.56	30419.94
590.72	30263.13
590.88	30181.21
591.04	30258.45
591.20	30508.88
591.35	30412.92
591.51	30497.18
591.67	30452.71
591.83	30525.27
591.99	30244.40
592.15	30267.81
592.31	30803.79
592.46	30314.62
592.62	30202.27
592.78	30216.32
592.94	30087.59
593.10	29949.50
593.26	30118.01
593.41	30352.07
593.57	30087.59
593.73	30515.90
593.89	30703.15
594.05	30611.87
594.20	30504.20
594.36	30466.75
594.52	30054.82
594.68	30143.76
594.84	30155.46
594.99	30141.42
595.15	30377.81
595.31	30803.79
595.47	30298.23
595.62	30574.42
595.78	30480.80
595.94	30075.88
596.10	30471.43
596.25	30349.73
596.41	30139.08
596.57	30223.34
596.73	30424.62
596.88	30356.75
597.04	30890.39
597.20	30764.00
597.36	30679.74
597.51	30675.06
597.67	30391.86
597.83	30417.60
597.99	30405.90
598.14	30146.10
598.30	30426.96
598.46	30471.43
598.61	30424.62
598.77	30675.06
598.93	30923.16
599.09	30471.43
599.24	30668.04
599.40	30864.64
599.56	30583.78
599.71	30546.33
599.87	30602.50
600.03	30433.99
600.18	30225.68
600.34	30408.24
600.50	30335.68
600.65	30455.05
600.81	30562.72
600.97	31056.57
601.12	30560.37
601.28	31054.23
601.44	30920.82
601.59	30670.38
601.75	30522.93
601.91	31023.80
602.06	30270.15
602.22	30352.07
602.37	30354.41
602.53	30361.43
602.69	30813.15
602.84	30628.25
603.00	30398.88
603.16	30780.39
603.31	30714.85
603.47	30335.68
603.62	30771.02
603.78	30450.37
603.94	30373.13
604.09	30639.95
604.25	30335.68
604.40	30485.48
604.56	30492.50
604.71	30658.68
604.87	30312.28
605.03	30670.38
605.18	30415.26
605.34	30600.16
605.49	30433.99
605.65	30581.44
605.80	30396.54
605.96	30312.28
606.12	30274.83
606.27	30761.66
606.43	30293.55
606.58	30728.89
606.74	30558.03
606.89	30469.09
607.05	30586.12
607.20	30618.89
607.36	30551.01
607.51	30848.26
607.67	30417.60
607.82	30293.55
607.98	30338.02
608.13	30359.09
608.29	30551.01
608.44	30228.02
608.60	30494.84
608.75	30415.26
608.91	30230.36
609.06	30331.00
609.22	30817.83
609.37	29970.56
609.53	30085.25
609.68	30408.24
609.84	30024.39
609.99	30113.33
610.15	30078.22
610.30	30438.67
610.46	29879.28
610.61	30323.98
610.76	30228.02
610.92	30277.17
611.07	30167.16
611.23	30246.74
611.38	29900.34
611.54	29982.26
611.69	29921.41
611.84	29841.83
612.00	29750.55
612.15	29745.87
612.31	30548.67
612.46	30103.97
612.62	30008.01
612.77	29977.58
612.92	30300.58
613.08	29633.52
613.23	30347.39
613.39	29890.98
613.54	29827.79
613.69	29680.33
613.85	29977.58
614.00	29944.81
614.15	29982.26
614.31	29986.94
614.46	30122.69
614.62	29975.24
614.77	30106.31
614.92	30129.72
615.08	29654.59
615.23	29837.15
615.38	29706.08
615.54	29235.63
615.69	29883.96
615.84	29614.80
616.00	29642.88
616.15	29926.09
616.30	29921.41
616.46	29827.79
616.61	29731.83
616.76	30136.74
616.92	29958.86
617.07	29642.88
617.22	29624.16
617.37	29493.09
617.53	29923.75
617.68	29748.21
617.83	29387.77
617.99	29692.04
618.14	29699.06
618.29	29369.04
618.45	29628.84
618.60	29544.58
618.75	29532.88
618.90	29832.47
619.06	29776.30
619.21	29408.83
619.36	29785.66
619.51	29380.74
619.67	28870.51
619.82	28900.94
619.97	29446.28
620.12	29219.25
620.28	29209.89
620.43	29467.34
620.58	29790.34
620.73	29544.58
620.89	29472.03
621.04	29441.60
621.19	29432.24
621.34	29333.93
621.49	29041.37
621.65	29277.76
621.80	29593.73
621.95	29118.60
622.10	28606.03
622.25	29111.58
622.41	28994.56
622.56	28996.90
622.71	29153.71
622.86	29291.80
623.01	29312.87
623.16	28744.12
623.32	29146.69
623.47	29097.54
623.62	29015.62
623.77	28678.58
623.92	28954.77
624.07	28685.61
624.23	28936.04
624.38	28900.94
624.53	29270.74
624.68	28795.61
624.83	29289.46
624.98	29097.54
625.13	29034.35
625.29	28613.05
625.44	28842.42
625.59	28343.89
625.74	28556.88
625.89	28231.54
626.04	28879.87
626.19	28718.37
626.34	28802.63
626.49	28669.22
626.65	28362.61
626.80	28816.68
626.95	28587.30
627.10	28645.82
627.25	28929.02
627.40	28411.76
627.55	28397.72
627.70	28177.71
627.85	28311.12
628.00	28332.18
628.15	28383.68
628.30	27985.79
628.45	28496.02
628.60	28332.18
628.76	28481.98
628.91	28128.56
629.06	28437.51
629.21	28292.40
629.36	28575.60
629.51	28018.55
629.66	27922.59
629.81	28130.90
629.96	28058.34
630.11	28233.88
630.26	27936.63
630.41	28053.66
630.56	28287.71
630.71	28002.17
630.86	28404.74
631.01	28224.52
631.16	28027.92
631.31	28112.17
631.46	28072.39
631.61	28290.06
631.76	28318.14
631.91	28030.26
632.06	28084.09
632.21	27803.22
632.36	27995.15
632.51	27473.21
632.66	28290.06
632.81	27459.16
632.96	27740.03
633.10	27866.42
633.25	28086.43
633.40	27826.63
633.55	27995.15
633.70	27931.95
633.85	27634.71
634.00	27410.01
634.15	28184.73
634.30	27978.76
634.45	28067.70
634.60	27419.38
634.75	27648.75
634.90	27651.09
635.05	28011.53
635.19	27473.21
635.34	27562.15
635.49	27747.05
635.64	27651.09
635.79	27555.13
635.94	27573.85
636.09	27641.73
636.24	27360.86
636.39	27517.68
636.53	27543.42
636.68	27234.47
636.83	27442.78
636.98	27613.64
637.13	27204.05
637.28	27400.65
637.43	27819.61
637.57	27725.99
637.72	27679.18
637.87	27505.98
638.02	27723.65
638.17	27325.75
638.32	27232.13
638.46	27138.51
638.61	27068.30
638.76	27150.21
638.91	26817.86
639.06	26948.93
639.20	27152.55
639.35	27571.51
639.50	27316.39
639.65	27433.42
639.80	27491.93
639.94	27180.64
640.09	27381.93
640.24	27136.17
640.39	26813.18
640.54	26991.06
640.68	26581.46
640.83	26696.15
640.98	26951.27
641.13	26733.60
641.27	27257.88
641.42	26890.41
641.57	26969.99
641.72	26899.78
641.86	26948.93
642.01	26588.49
642.16	26829.56
642.31	26991.06
642.45	26768.71
642.60	26485.50
642.75	26651.68
642.90	26693.81
643.04	26614.23
643.19	26581.46
643.34	26946.59
643.48	26759.34
643.63	26691.47
643.78	26487.84
643.93	26998.08
644.07	26448.05
644.22	26937.23
644.37	26574.44
644.51	26398.90
644.66	26630.62
644.81	26387.20
644.95	26424.65
645.10	26431.67
645.25	26707.85
645.39	26345.07
645.54	26206.98
645.69	26616.57
645.83	26415.29
645.98	26656.36
646.13	26890.41
646.27	26525.29
646.42	26712.53
646.57	26267.83
646.71	26679.77
646.86	26082.93
647.00	26408.26
647.15	26471.46
647.30	26209.32
647.44	26143.78
647.59	26300.60
647.74	26270.17
647.88	26221.02
648.03	26375.50
648.17	26314.64
648.32	26263.15
648.47	26111.02
648.61	26064.21
648.76	26167.19
648.90	26195.28
649.05	25916.75
649.20	26167.19
649.34	25846.54
649.49	25898.03
649.63	25937.82
649.78	26293.58
649.92	25954.20
650.07	26277.19
650.21	25979.95
650.36	25956.54
650.51	25802.07
650.65	26024.42
650.80	25907.39
650.94	26019.74
651.09	25748.23
651.23	25811.43
651.38	25460.35
651.52	25715.47
651.67	25465.03
651.81	25694.40
651.96	26036.12
652.10	25797.38
652.25	25528.22
652.39	26031.44
652.54	25879.30
652.68	25811.43
652.83	25661.63
652.97	26171.87
653.12	25935.48
653.26	25954.20
653.41	25813.77
653.55	25570.35
653.70	25663.97
653.84	25500.14
653.99	25619.50
654.13	25263.74
654.27	25575.03
654.42	25479.07
654.56	25568.01
654.71	25549.29
654.85	25570.35
655.00	25483.75
655.14	25483.75
655.29	25310.55
655.43	25680.36
655.57	25504.82
655.72	25167.78
655.86	25544.61
656.01	25230.98
656.15	25174.80
656.30	25434.60
656.44	25099.90
656.58	25481.41
656.73	25088.20
656.87	25326.94
657.01	25034.37
657.16	25277.79
657.30	25305.87
657.45	25238.00
657.59	25336.30
657.73	25212.25
657.88	25179.48
658.02	24826.06
658.16	25074.16
658.31	24917.34
658.45	25057.78
658.60	24828.40
658.74	24746.48
658.88	24704.35
659.03	24922.02
659.17	24673.93
659.31	25081.18
659.46	25036.71
659.60	25015.65
659.74	25013.31
659.89	24814.36
660.03	24821.38
660.17	24774.57
660.32	24526.47
660.46	24687.97
660.60	24805.00
660.74	24535.84
660.89	24678.61
661.03	24322.85
661.17	24301.78
661.32	24379.02
661.46	24390.72
661.60	24531.15
661.74	24648.18
661.89	24552.22
662.03	24336.89
662.17	24489.03
662.31	24329.87
662.46	24236.25
662.60	24074.75
662.74	23915.59
662.88	23733.03
663.03	23931.98
663.17	23866.44
663.31	23915.59
663.45	24006.87
663.60	23903.89
663.74	24058.37
663.88	23828.99
664.02	24063.05
664.17	24119.22
664.31	24133.26
664.45	23716.65
664.59	23758.78
664.73	23644.09
664.88	23658.14
665.02	23335.14
665.16	23545.79
665.30	23651.11
665.44	23599.62
665.59	23433.44
665.73	23297.69
665.87	23094.07
666.01	23447.49
666.15	23105.77
666.29	23388.97
666.44	23019.17
666.58	23140.88
666.72	23161.94
666.86	23110.45
667.00	23356.21
667.14	23435.78
667.28	23197.05
667.43	23035.55
667.57	23009.81
667.71	22916.19
667.85	23110.45
667.99	22724.26
668.13	22822.56
668.27	22759.37
668.41	22953.63
668.56	22817.88
668.70	22792.14
668.84	22920.87
668.98	22766.39
669.12	22857.67
669.26	22597.87
669.40	22492.55
669.54	22668.09
669.68	22387.22
669.82	22403.61
669.96	22473.82
670.10	22352.12
670.25	22759.37
670.39	22384.88
670.53	22525.32
670.67	22354.46
670.81	22178.92
670.95	22349.78
671.09	22286.58
671.23	22078.27
671.37	22235.09
671.51	22068.91
671.65	21921.46
671.79	22321.69
671.93	22188.28
672.07	21989.33
672.21	22026.78
672.35	21795.07
672.49	21855.92
672.63	21858.26
672.77	21867.63
672.91	21717.83
673.05	21724.85
673.19	21603.14
673.33	21640.59
673.47	21614.85
673.61	21563.36
673.75	21291.85
673.89	21523.57
674.03	21523.57
674.17	21584.42
674.31	21415.90
674.45	21277.81
674.59	21443.99
674.73	21364.41
674.87	20980.56
675.01	20982.90
675.15	20992.26
675.29	20919.71
675.43	20830.77
675.56	21085.89
675.70	21092.91
675.84	20659.91
675.98	20311.17
676.12	20961.84
676.26	20793.32
676.40	20781.62
676.54	20697.36
676.68	20641.18
676.82	20222.23
676.96	20402.45
677.10	20680.97
677.23	20236.27
677.37	20074.77
677.51	20140.31
677.65	20070.09
677.79	19737.74
677.93	19924.98
678.07	20049.03
678.21	19981.15
678.34	19857.10
678.48	19873.49
678.62	19749.44
678.76	19873.49
678.90	19613.69
679.04	19314.10
679.18	19697.95
679.31	19398.36
679.45	19250.91
679.59	19548.15
679.73	19192.39
679.87	19318.78
680.00	19126.86
680.14	18841.31
680.28	19211.12
680.42	19243.88
680.56	18995.79
680.70	18967.70
680.83	19176.01
680.97	18806.20
681.11	19028.56
681.25	18747.69
681.39	18871.74
681.52	18412.99
681.66	18445.76
681.80	18581.51
681.94	18501.93
682.07	18490.23
682.21	18305.33
682.35	18085.32
682.49	17982.34
682.62	18113.41
682.76	18082.98
682.90	18148.51
683.04	18078.30
683.17	18129.79
683.31	17954.25
683.45	18029.15
683.59	17717.86
683.72	17837.22
683.86	17759.98
684.00	17865.31
684.13	17666.36
684.27	17504.87
684.41	17172.51
684.55	17088.25
684.68	17071.87
684.82	17434.65
684.96	17109.32
685.09	16989.95
685.23	17294.22
685.37	16856.54
685.50	17280.18
685.64	17144.42
685.78	17221.66
685.91	16912.71
686.05	16945.48
686.19	16664.61
686.32	16971.22
686.46	16645.89
686.60	16409.50
686.73	16566.31
686.87	16320.56
687.01	16348.64
687.14	16475.03
687.28	16212.89
687.42	16163.74
687.55	16168.42
687.69	16196.51
687.82	16060.76
687.96	16414.18
688.10	16231.62
688.23	16035.01
688.37	16032.67
688.50	15857.13
688.64	16149.70
688.78	15789.25
688.91	15742.44
689.05	15513.07
689.18	15730.74
689.32	15515.41
689.46	15229.87
689.59	15449.88
689.73	15290.72
689.86	15176.03
690.00	15321.15
690.13	15253.27
690.27	15253.27
690.41	15213.48
690.54	15171.35
690.68	15197.10
690.81	14771.12
690.95	15199.44
691.08	15096.46
691.22	14658.78
691.35	14743.03
691.49	15183.06
691.62	14944.32
691.76	14754.74
691.89	14506.64
692.03	14469.19
692.16	14324.08
692.30	14497.28
692.43	14375.57
692.57	14141.52
692.70	14160.24
692.84	14057.26
692.97	14036.19
693.11	14178.97
693.24	13963.64
693.38	14043.21
693.51	14029.17
693.65	13879.38
693.78	13650.00
693.92	13912.14
694.05	13703.84
694.19	13647.66
694.32	13568.09
694.45	13610.22
694.59	13554.04
694.72	13392.55
694.86	13139.77
694.99	13378.50
695.13	13509.57
695.26	13390.20
695.39	12879.97
695.53	13217.01
695.66	13163.17
695.80	13055.51
695.93	13179.56
696.07	12905.71
696.20	13022.74
696.33	13053.17
696.47	12898.69
696.60	12807.41
696.73	12641.23
696.87	12652.94
697.00	12814.43
697.14	12542.93
697.27	12229.30
697.40	12594.42
697.54	12421.22
697.67	12037.38
697.80	12301.86
697.94	12037.38
698.07	12154.40
698.21	12032.69
698.34	12126.32
698.47	12121.63
698.61	12121.63
698.74	11934.39
698.87	11880.56
699.01	11997.59
699.14	12023.33
699.27	11815.02
699.40	11777.58
699.54	11634.80
699.67	11609.06
699.80	11655.87
699.94	11440.54
700.07	11440.54
700.20	11227.55
700.34	11328.19
700.47	11431.18
700.60	11059.03
700.73	11377.34
700.87	11229.89
701.00	11101.16
701.13	11129.25
701.26	11138.61
701.40	11215.85
701.53	11073.07
701.66	10988.82
701.79	10906.90
701.93	10995.84
702.06	10810.93
702.19	10806.25
702.32	10602.63
702.46	10413.04
702.59	10520.71
702.72	10452.83
702.85	10298.36
702.99	10574.54
703.12	10478.58
703.25	10314.74
703.38	10270.27
703.51	10408.36
703.65	10338.15
703.78	10300.70
703.91	10270.27
704.04	10242.18
704.17	10188.35
704.31	9996.43
704.44	10115.80
704.57	9900.47
704.70	9867.70
704.83	9717.90
704.96	9558.75
705.10	9659.39
705.23	9736.63
>>>>>End Processed Spectral Data<<<<<
