SpectraSuite Data File
++++++++++++++++++++++++++++++++++++
Date: Fri Oct 18 13:58:03 GMT-05:00 2013
User: bianchi
Dark Spectrum Present: No
Reference Spectrum Present: No
Number of Sampled Component Spectra: 1
Spectrometers: USB2+H05261
Integration Time (usec): 50000 (USB2+H05261)
Spectra Averaged: 1 (USB2+H05261)
Boxcar Smoothing: 0 (USB2+H05261)
Correct for Electrical Dark: No (USB2+H05261)
Strobe/Lamp Enabled: No (USB2+H05261)
Correct for Detector Non-linearity: No (USB2+H05261)
Correct for Stray Light: No (USB2+H05261)
Number of Pixels in Processed Spectrum: 2048
>>>>>Begin Processed Spectral Data<<<<<
365.73	4.68
365.92	4.68
366.12	4.68
366.32	0.00
366.52	0.00
366.72	0.00
366.91	0.00
367.11	0.00
367.31	0.00
367.51	0.00
367.70	0.00
367.90	0.00
368.10	0.00
368.30	0.00
368.49	0.00
368.69	0.00
368.89	0.00
369.09	0.00
369.28	0.00
369.48	0.00
369.68	0.00
369.87	0.00
370.07	0.00
370.27	0.00
370.47	0.00
370.66	77.24
370.86	140.43
371.06	145.11
371.25	205.97
371.45	131.07
371.65	175.54
371.84	187.24
372.04	110.01
372.24	208.31
372.44	234.05
372.63	215.33
372.83	177.88
373.03	257.46
373.22	175.54
373.42	166.18
373.62	257.46
373.81	231.71
374.01	184.90
374.21	248.10
374.40	205.97
374.60	250.44
374.79	196.60
374.99	264.48
375.19	208.31
375.38	224.69
375.58	280.86
375.78	245.76
375.97	372.15
376.17	327.68
376.37	241.08
376.56	252.78
376.76	262.14
376.95	276.18
377.15	287.89
377.35	236.39
377.54	266.82
377.74	315.97
377.93	325.33
378.13	264.48
378.33	264.48
378.52	194.26
378.72	290.23
378.91	255.12
379.11	327.68
379.31	304.27
379.50	262.14
379.70	299.59
379.89	294.91
380.09	243.42
380.28	280.86
380.48	339.38
380.68	292.57
380.87	325.33
381.07	327.68
381.26	301.93
381.46	318.31
381.65	351.08
381.85	297.25
382.04	355.76
382.24	393.21
382.43	308.95
382.63	395.55
382.83	278.52
383.02	374.49
383.22	407.25
383.41	435.34
383.61	280.86
383.80	416.62
384.00	344.06
384.19	367.46
384.39	395.55
384.58	393.21
384.78	447.04
384.97	397.89
385.17	362.78
385.36	397.89
385.56	402.57
385.75	437.68
385.95	381.51
386.14	407.25
386.34	425.98
386.53	444.70
386.72	425.98
386.92	393.21
387.11	395.55
387.31	533.64
387.50	390.87
387.70	461.09
387.89	496.19
388.09	444.70
388.28	409.59
388.48	470.45
388.67	407.25
388.86	400.23
389.06	423.64
389.25	477.47
389.45	423.64
389.64	510.24
389.84	470.45
390.03	533.64
390.22	496.19
390.42	442.36
390.61	486.83
390.81	442.36
391.00	479.81
391.19	533.64
391.39	442.36
391.58	491.51
391.78	505.56
391.97	517.26
392.16	531.30
392.36	547.69
392.55	437.68
392.75	594.50
392.94	645.99
393.13	578.11
393.33	545.34
393.52	526.62
393.71	573.43
393.91	582.79
394.10	631.94
394.29	641.31
394.49	550.03
394.68	580.45
394.88	608.54
395.07	578.11
395.26	552.37
395.46	603.86
395.65	620.24
395.84	603.86
396.04	636.63
396.23	620.24
396.42	716.20
396.62	622.58
396.81	716.20
397.00	624.92
397.19	634.29
397.39	582.79
397.58	657.69
397.77	634.29
397.97	657.69
398.16	655.35
398.35	751.31
398.55	709.18
398.74	674.07
398.93	667.05
399.12	758.33
399.32	669.39
399.51	695.14
399.70	767.70
399.90	713.86
400.09	727.91
400.28	837.91
400.47	748.97
400.67	901.11
400.86	741.95
401.05	763.01
401.24	882.38
401.44	770.04
401.63	753.65
401.82	835.57
402.01	746.63
402.21	835.57
402.40	863.66
402.59	788.76
402.78	788.76
402.97	854.30
403.17	709.18
403.36	821.53
403.55	851.96
403.74	952.60
403.93	968.98
404.13	992.39
404.32	987.71
404.51	884.72
404.70	922.17
404.89	908.13
405.09	945.58
405.28	945.58
405.47	901.11
405.66	983.02
405.85	1004.09
406.05	1032.18
406.24	973.66
406.43	1046.22
406.62	1020.47
406.81	973.66
407.00	922.17
407.20	1018.13
407.39	1020.47
407.58	1114.10
407.77	1039.20
407.96	1078.99
408.15	1083.67
408.34	1048.56
408.54	1069.62
408.73	1203.04
408.92	1008.77
409.11	1102.39
409.30	1163.25
409.49	1062.60
409.68	1186.65
409.87	1076.65
410.07	1160.91
410.26	1128.14
410.45	1252.19
410.64	1158.57
410.83	1205.38
411.02	1212.40
411.21	1249.85
411.40	1315.38
411.59	1289.64
411.78	1252.19
411.98	1249.85
412.17	1345.81
412.36	1320.06
412.55	1254.53
412.74	1338.79
412.93	1406.66
413.12	1352.83
413.31	1469.86
413.50	1392.62
413.69	1420.71
413.88	1465.18
414.07	1474.54
414.26	1425.39
414.45	1397.30
414.64	1392.62
414.83	1448.79
415.02	1507.30
415.22	1605.61
415.41	1610.29
415.60	1629.01
415.79	1570.50
415.98	1687.53
416.17	1537.73
416.36	1570.50
416.55	1589.22
416.74	1603.27
416.93	1582.20
417.12	1732.00
417.31	1638.38
417.50	1645.40
417.69	1727.32
417.88	1572.84
418.07	1767.10
418.26	1727.32
418.45	1722.63
418.64	1820.94
418.83	1842.00
419.02	1682.85
419.21	1849.02
419.39	1879.45
419.58	1823.28
419.77	1865.41
419.96	1834.98
420.15	1802.21
420.34	1900.52
420.53	1888.81
420.72	1921.58
420.91	1816.26
421.10	1849.02
421.29	1942.64
421.48	1905.20
421.67	1963.71
421.86	1846.68
422.05	1849.02
422.24	1937.96
422.43	1982.43
422.61	1968.39
422.80	2024.56
422.99	1989.46
423.18	2010.52
423.37	2078.40
423.56	2022.22
423.75	2040.95
423.94	2073.71
424.13	1865.41
424.32	2015.20
424.50	2179.04
424.69	2005.84
424.88	2019.88
425.07	2085.42
425.26	2052.65
425.45	2066.69
425.64	2019.88
425.83	1968.39
426.01	2120.53
426.20	2141.59
426.39	2162.66
426.58	2101.80
426.77	2090.10
426.96	2113.50
427.15	1996.48
427.33	2127.55
427.52	2062.01
427.71	2181.38
427.90	2165.00
428.09	2139.25
428.28	2209.47
428.46	2179.04
428.65	2246.91
428.84	2331.17
429.03	2385.01
429.22	2249.25
429.40	2244.57
429.59	2305.43
429.78	2045.63
429.97	2179.04
430.16	2263.30
430.34	2324.15
430.53	2270.32
430.72	2413.09
430.91	2277.34
431.10	2277.34
431.28	2389.69
431.47	2422.45
431.66	2469.27
431.85	2284.36
432.03	2487.99
432.22	2370.96
432.41	2403.73
432.60	2361.60
432.79	2431.82
432.97	2504.37
433.16	2502.03
433.35	2385.01
433.54	2614.38
433.72	2525.44
433.91	2539.48
434.10	2438.84
434.28	2457.56
434.47	2492.67
434.66	2574.59
434.85	2612.04
435.03	2633.10
435.22	2593.31
435.41	2670.55
435.59	2656.51
435.78	2572.25
435.97	2583.95
436.16	2656.51
436.34	2635.44
436.53	2661.19
436.72	2759.49
436.90	2649.49
437.09	2619.06
437.28	2700.98
437.46	2661.19
437.65	2796.94
437.84	2818.00
438.02	2731.41
438.21	2715.02
438.40	2761.83
438.58	2876.52
438.77	2733.75
438.96	2827.37
439.14	2942.05
439.33	2946.73
439.52	2909.29
439.70	3021.63
439.89	3059.08
440.08	3101.21
440.26	2995.89
440.45	3131.64
440.63	3059.08
440.82	3038.02
441.01	3110.57
441.19	3199.51
441.38	3124.62
441.57	3178.45
441.75	3159.72
441.94	3361.01
442.12	3358.67
442.31	3274.41
442.50	3393.78
442.68	3332.92
442.87	3386.76
443.05	3332.92
443.24	3318.88
443.43	3400.80
443.61	3471.01
443.80	3379.73
443.98	3288.45
444.17	3316.54
444.35	3461.65
444.54	3454.63
444.73	3468.67
444.91	3375.05
445.10	3440.59
445.28	3412.50
445.47	3363.35
445.65	3353.99
445.84	3349.31
446.02	3583.36
446.21	3447.61
446.39	3559.95
446.58	3520.17
446.77	3548.25
446.95	3478.04
447.14	3442.93
447.32	3508.46
447.51	3466.33
447.69	3435.91
447.88	3627.83
448.06	3569.32
448.25	3569.32
448.43	3463.99
448.62	3564.64
448.80	3487.40
448.99	3508.46
449.17	3599.74
449.36	3597.40
449.54	3637.19
449.73	3735.50
449.91	3684.00
450.10	3768.26
450.28	3747.20
450.46	3770.60
450.65	3786.99
450.83	3822.09
451.02	3768.26
451.20	3758.90
451.39	3826.78
451.57	3836.14
451.76	3770.60
451.94	3765.92
452.13	3667.62
452.31	3826.78
452.49	3831.46
452.68	3960.19
452.86	3868.91
453.05	4009.34
453.23	3992.95
453.42	3784.65
453.60	3880.61
453.78	3950.82
453.97	3798.69
454.15	3992.95
454.34	3836.14
454.52	4007.00
454.70	3992.95
454.89	4046.79
455.07	4051.47
455.26	4147.43
455.44	4058.49
455.62	4234.03
455.81	4032.74
455.99	4114.66
456.17	4032.74
456.36	3999.98
456.54	4212.96
456.73	4257.43
456.91	4367.44
457.09	4351.06
457.28	4411.91
457.46	4231.69
457.64	4337.01
457.83	4400.21
458.01	4444.68
458.19	4561.70
458.38	4304.25
458.56	4477.44
458.74	4411.91
458.93	4353.40
459.11	4470.42
459.29	4526.60
459.48	4535.96
459.66	4489.15
459.84	4454.04
460.03	4505.53
460.21	4603.83
460.39	4496.17
460.57	4622.56
460.76	4545.32
460.94	4636.60
461.12	4486.81
461.31	4734.90
461.49	4779.37
461.67	4702.14
461.85	4786.40
462.04	4674.05
462.22	4997.04
462.40	4716.18
462.59	4770.01
462.77	4786.40
462.95	4753.63
463.13	4641.28
463.32	4711.50
463.50	4882.36
463.68	4765.33
463.86	4868.31
464.05	4793.42
464.23	4865.97
464.41	4856.61
464.59	4856.61
464.78	5004.07
464.96	4919.81
465.14	4938.53
465.32	4999.38
465.50	4968.96
465.69	5163.22
465.87	4954.91
466.05	4933.85
466.23	4791.08
466.41	4978.32
466.60	5135.14
466.78	5032.15
466.96	5043.85
467.14	5284.93
467.32	5137.48
467.51	5252.16
467.69	5055.56
467.87	5245.14
468.05	5130.45
468.23	5104.71
468.41	5282.59
468.60	5214.71
468.78	5287.27
468.96	5163.22
469.14	5219.39
469.32	5270.89
469.50	5116.41
469.69	5364.51
469.87	5371.53
470.05	5411.32
470.23	5441.75
470.41	5439.40
470.59	5369.19
470.77	5437.06
470.95	5277.91
471.14	5593.88
471.32	5413.66
471.50	5458.13
471.68	5804.53
471.86	5692.18
472.04	5717.93
472.22	5806.87
472.40	5650.05
472.58	5778.78
472.77	5741.33
472.95	5827.93
473.13	6010.50
473.31	5675.80
473.49	5895.81
473.67	5970.71
473.85	5830.27
474.03	5891.13
474.21	6010.50
474.39	6054.97
474.57	6111.14
474.75	6251.57
474.93	6216.46
475.12	6097.10
475.30	6193.06
475.48	6319.45
475.66	6134.54
475.84	6368.60
476.02	6244.55
476.20	6354.55
476.38	6457.54
476.56	6581.59
476.74	6640.10
476.92	6480.94
477.10	6600.31
477.28	6785.21
477.46	6712.66
477.64	6780.53
477.82	6867.13
478.00	7108.21
478.18	6993.52
478.36	6913.94
478.54	7007.56
478.72	6970.12
478.90	7169.06
479.08	7272.04
479.26	7215.87
479.44	7351.62
479.62	7272.04
479.80	7424.18
479.98	7513.12
480.16	7599.72
480.34	7433.54
480.52	7723.77
480.70	7503.76
480.88	7772.92
481.06	7763.56
481.24	7709.72
481.41	7793.98
481.59	8046.76
481.77	8009.31
481.95	7894.63
482.13	8255.07
482.31	8243.37
482.49	8294.86
482.67	8152.09
482.85	8245.71
483.03	8362.73
483.21	8566.36
483.39	8465.72
483.57	8587.43
483.74	8695.09
483.92	8699.77
484.10	8723.18
484.28	8865.95
484.46	8915.10
484.64	9247.46
484.82	9231.07
485.00	9043.83
485.18	9212.35
485.35	9383.21
485.53	9432.36
485.71	9404.27
485.89	9598.54
486.07	9797.48
486.25	9607.90
486.43	9659.39
486.61	9694.50
486.78	9839.61
486.96	9895.78
487.14	10242.18
487.32	10150.90
487.50	10394.32
487.68	10228.14
487.85	10249.21
488.03	10429.43
488.21	10328.78
488.39	10600.29
488.57	10759.44
488.75	10843.70
488.92	10904.56
489.10	10768.80
489.28	11002.86
489.46	11262.66
489.64	11089.46
489.81	11274.36
489.99	11405.43
490.17	11311.81
490.35	11400.75
490.53	11751.83
490.70	11623.10
490.88	11641.82
491.06	11604.38
491.24	11758.85
491.41	11927.37
491.59	12241.00
491.77	11939.07
491.95	12372.07
492.13	12121.63
492.30	12222.28
492.48	12262.07
492.66	12519.53
492.84	12409.52
493.01	12564.00
493.19	12706.77
493.37	12912.74
493.54	12709.11
493.72	12755.92
493.90	13193.60
494.08	12821.45
494.25	13156.15
494.43	13319.99
494.61	13186.58
494.79	13172.54
494.96	13109.34
495.14	13650.00
495.32	13743.63
495.49	13570.43
495.67	13825.54
495.85	13958.96
496.02	13745.97
496.20	14073.64
496.38	13710.86
496.55	14071.30
496.73	13907.46
496.91	14211.73
497.09	14209.39
497.26	14558.13
497.44	14160.24
497.62	14377.91
497.79	14796.87
497.97	14876.44
498.14	14696.22
498.32	14918.57
498.50	14878.79
498.67	15243.91
498.85	15023.90
499.03	15028.58
499.20	14984.11
499.38	15068.37
499.56	15164.33
499.73	15344.55
499.91	15484.98
500.08	15279.02
500.26	15206.46
500.44	15559.88
500.61	15831.38
500.79	15510.73
500.97	15740.10
501.14	15964.79
501.32	15920.32
501.49	15910.96
501.67	16088.84
501.84	15960.11
502.02	15969.48
502.20	16255.02
502.37	16376.73
502.55	16058.42
502.72	16285.45
502.90	16294.81
503.07	16315.87
503.25	16390.77
503.43	16428.22
503.60	16358.00
503.78	16524.18
503.95	16627.17
504.13	16627.17
504.30	16343.96
504.48	16622.48
504.65	16783.98
504.83	16919.73
505.01	16952.50
505.18	17013.35
505.36	17181.87
505.53	17137.40
505.71	17137.40
505.88	17563.38
506.06	16730.15
506.23	17097.61
506.41	17378.48
506.58	17448.69
506.76	17495.50
506.93	17860.63
507.11	17539.97
507.28	17642.96
507.46	17465.08
507.63	17635.94
507.81	17806.80
507.98	18031.49
508.16	18162.56
508.33	17673.39
508.50	18085.32
508.68	18087.66
508.85	18405.97
509.03	18279.58
509.20	18197.67
509.38	18492.57
509.55	18668.11
509.73	18609.60
509.90	18373.21
510.08	18263.20
510.25	18230.43
510.42	18375.55
510.60	19012.17
510.77	18775.78
510.95	19023.87
511.12	18675.13
511.30	18855.36
511.47	18998.13
511.64	19002.81
511.82	18958.34
511.99	19161.97
512.17	19084.73
512.34	19021.53
512.51	19133.88
512.69	19211.12
512.86	19061.32
513.04	19585.60
513.21	19454.53
513.38	19676.88
513.56	19559.86
513.73	19538.79
513.90	19545.81
514.08	19419.42
514.25	19669.86
514.43	19777.53
514.60	19847.74
514.77	19847.74
514.95	19997.54
515.12	19882.85
515.29	20262.02
515.47	20100.52
515.64	20135.63
515.81	20257.34
515.99	20479.69
516.16	20135.63
516.33	20152.01
516.51	20561.61
516.68	20280.74
516.85	20226.91
517.03	20353.30
517.20	20365.00
517.37	20830.77
517.54	20631.82
517.72	20636.50
517.89	20634.16
518.06	20875.24
518.24	21010.99
518.41	20769.91
518.58	20657.57
518.75	20774.60
518.93	21233.34
519.10	20905.66
519.27	20835.45
519.45	21212.28
519.62	20996.95
519.79	21118.65
519.96	21090.57
520.14	21493.14
520.31	21387.82
520.48	21221.64
520.65	21380.79
520.83	21460.37
521.00	21792.73
521.17	21603.14
521.34	21579.74
521.52	21750.60
521.69	21642.93
521.86	21558.67
522.03	22148.49
522.20	21745.92
522.38	21928.48
522.55	22146.15
522.72	22115.72
522.89	21958.91
523.07	22141.47
523.24	22097.00
523.41	22211.68
523.58	21799.75
523.75	22508.93
523.92	22394.25
524.10	22532.34
524.27	22537.02
524.44	22735.96
524.61	22867.03
524.78	22331.05
524.96	22487.87
525.13	22752.35
525.30	22654.05
525.47	22728.94
525.64	22705.54
525.81	22998.10
525.98	22817.88
526.16	22623.62
526.33	22721.92
526.50	23075.34
526.67	22920.87
526.84	22885.76
527.01	22745.33
527.18	23147.90
527.36	22958.31
527.53	23197.05
527.70	23293.01
527.87	23484.94
528.04	23206.41
528.21	23262.58
528.38	23360.89
528.55	23396.00
528.72	23213.43
528.89	23974.11
529.07	23330.46
529.24	23428.76
529.41	23484.94
529.58	23672.18
529.75	23491.96
529.92	23655.79
530.09	23796.23
530.26	23857.08
530.43	23857.08
530.60	23950.70
530.77	23866.44
530.94	23807.93
531.11	23756.44
531.28	24182.42
531.46	23824.31
531.63	24194.12
531.80	24357.96
531.97	24077.09
532.14	24542.86
532.31	23939.00
532.48	24121.56
532.65	24409.45
532.82	24386.04
532.99	24425.83
533.16	24116.88
533.33	24458.60
533.50	24664.57
533.67	24472.64
533.84	24400.08
534.01	24325.19
534.18	24315.83
534.35	24889.26
534.52	24816.70
534.69	24573.28
534.86	24994.58
535.03	24730.10
535.20	24730.10
535.37	24788.61
535.54	24931.39
535.71	24664.57
535.88	24842.45
536.05	24819.04
536.22	25083.52
536.38	25275.45
536.55	24982.88
536.72	24919.68
536.89	25151.40
537.06	24945.43
537.23	25249.70
537.40	25369.07
537.57	25177.14
537.74	25102.25
537.91	25598.44
538.08	25776.32
538.25	25448.64
538.42	25167.78
538.59	25532.90
538.75	25139.69
538.92	25146.72
539.09	25163.10
539.26	25743.55
539.43	25589.08
539.60	25813.77
539.77	25766.96
539.94	25635.89
540.11	25472.05
540.28	25769.30
540.44	25727.17
540.61	25647.59
540.78	25736.53
540.95	25720.15
541.12	25937.82
541.29	26092.29
541.46	25954.20
541.62	25638.23
541.79	26281.88
541.96	25752.91
542.13	25675.68
542.30	26036.12
542.47	26073.57
542.63	26178.89
542.80	26190.59
542.97	26469.12
543.14	26616.57
543.31	26647.00
543.48	26487.84
543.64	26359.11
543.81	26735.94
543.98	26602.53
544.15	26782.75
544.32	26862.33
544.48	26890.41
544.65	26455.08
544.82	26735.94
544.99	26555.72
545.16	26483.16
545.32	26749.98
545.49	27117.45
545.66	27014.46
545.83	27077.66
546.00	26548.70
546.16	26707.85
546.33	26986.38
546.50	26682.11
546.67	26953.61
546.83	26492.52
547.00	27185.32
547.17	27122.13
547.34	27173.62
547.50	27051.91
547.67	27555.13
547.84	27180.64
548.00	26995.74
548.17	27168.94
548.34	27316.39
548.51	27494.27
548.67	27367.88
548.84	27295.33
549.01	27428.74
549.18	27370.22
549.34	27662.79
549.51	27353.84
549.68	27704.92
549.84	27337.46
550.01	27473.21
550.18	27548.11
550.34	27585.55
550.51	27924.93
550.68	27693.22
550.84	27356.18
551.01	27711.94
551.18	27302.35
551.34	27157.24
551.51	27569.17
551.68	27674.49
551.84	28072.39
552.01	27690.88
552.18	28173.03
552.34	27955.36
552.51	27976.42
552.68	27716.62
552.84	27875.78
553.01	28121.54
553.18	28238.56
553.34	27985.79
553.51	28203.46
553.67	28308.78
553.84	28376.66
554.01	28599.01
554.17	27971.74
554.34	28238.56
554.51	28371.97
554.67	28325.16
554.84	28313.46
555.00	28456.23
555.17	28460.91
555.33	28290.06
555.50	28379.00
555.67	28166.01
555.83	28283.03
556.00	28437.51
556.16	28453.89
556.33	28498.36
556.50	28292.40
556.66	28659.86
556.83	28339.21
556.99	28835.40
557.16	28800.29
557.32	28762.84
557.49	28367.29
557.65	28072.39
557.82	28140.26
557.98	28802.63
558.15	28680.92
558.32	28669.22
558.48	29137.33
558.65	28477.30
558.81	28538.15
558.98	28676.24
559.14	29055.41
559.31	28856.46
559.47	28781.57
559.64	28830.72
559.80	29020.30
559.97	29188.82
560.13	28699.65
560.30	29053.07
560.46	29046.05
560.63	29064.77
560.79	29247.33
560.96	29020.30
561.12	28870.51
561.29	29270.74
561.45	28861.15
561.61	29062.43
561.78	29172.44
561.94	29036.69
562.11	29350.32
562.27	29315.21
562.44	28732.42
562.60	29226.27
562.77	29130.31
562.93	28872.85
563.10	29303.51
563.26	28926.68
563.42	29165.42
563.59	29032.00
563.75	29312.87
563.92	29132.65
564.08	29081.16
564.24	29425.22
564.41	29249.67
564.57	29191.16
564.74	29127.97
564.90	29823.11
565.07	29212.23
565.23	29507.13
565.39	29598.41
565.56	29427.56
565.72	29137.33
565.88	29500.11
566.05	29165.42
566.21	28985.19
566.38	29127.97
566.54	29404.15
566.70	29502.45
566.87	29509.47
567.03	29193.50
567.19	29495.43
567.36	29797.36
567.52	29516.50
567.68	29549.26
567.85	29277.76
568.01	29617.14
568.17	29495.43
568.34	29432.24
568.50	29692.04
568.66	29722.46
568.83	29769.27
568.99	29638.20
569.15	29280.10
569.32	29539.90
569.48	29476.71
569.64	29813.74
569.81	29483.73
569.97	29399.47
570.13	29474.37
570.30	29750.55
570.46	29486.07
570.62	29905.02
570.78	29668.63
570.95	29617.14
571.11	29619.48
571.27	29504.79
571.43	29565.65
571.60	29628.84
571.76	29773.95
571.92	29865.24
572.09	29893.32
572.25	29795.02
572.41	29626.50
572.57	29816.08
572.74	29998.65
572.90	29362.02
573.06	29883.96
573.22	29415.85
573.38	29872.26
573.55	29951.84
573.71	30082.91
573.87	29685.01
574.03	30143.76
574.20	29696.72
574.36	30153.12
574.52	29986.94
574.68	29577.35
574.84	30068.86
575.01	30008.01
575.17	29867.58
575.33	29851.19
575.49	29752.89
575.65	29694.38
575.82	29806.72
575.98	29947.15
576.14	29773.95
576.30	29780.98
576.46	29879.28
576.62	29886.30
576.79	29722.46
576.95	29813.74
577.11	29982.26
577.27	30022.05
577.43	30038.44
577.59	29846.51
577.75	29919.07
577.92	29837.15
578.08	30066.52
578.24	29638.20
578.40	29497.77
578.56	30338.02
578.72	30115.67
578.88	30529.95
579.04	30279.51
579.21	29886.30
579.37	30389.52
579.53	30345.05
579.69	30092.27
579.85	30017.37
580.01	30078.22
580.17	30040.78
580.33	30263.13
580.49	29677.99
580.65	30232.70
580.82	29881.62
580.98	30171.85
581.14	30043.12
581.30	30419.94
581.46	30118.01
581.62	30136.74
581.78	30061.84
581.94	30160.14
582.10	29905.02
582.26	29958.86
582.42	30099.29
582.58	30043.12
582.74	30221.00
582.90	30075.88
583.06	30038.44
583.22	30368.45
583.38	30256.11
583.54	30183.55
583.70	30038.44
583.86	30073.54
584.02	29745.87
584.18	30204.61
584.34	30298.23
584.50	30246.74
584.66	29947.15
584.82	29907.37
584.98	30401.22
585.14	30064.18
585.30	30251.42
585.46	29935.45
585.62	29970.56
585.78	30202.27
585.94	30106.31
586.10	30494.84
586.26	30522.93
586.42	30127.38
586.58	30277.17
586.74	30085.25
586.90	30148.44
587.06	29656.93
587.22	30228.02
587.38	29977.58
587.54	30319.30
587.70	30356.75
587.86	30216.32
588.02	30738.26
588.18	30639.95
588.34	30417.60
588.49	30174.19
588.65	30059.50
588.81	30504.20
588.97	30331.00
589.13	30518.25
589.29	30321.64
589.45	30157.80
589.61	30567.40
589.77	30539.31
589.93	30438.67
590.08	30380.15
590.24	30410.58
590.40	30431.65
590.56	30579.10
590.72	30441.01
590.88	30359.09
591.04	30354.41
591.20	30759.32
591.35	30539.31
591.51	30712.51
591.67	30686.76
591.83	30906.77
591.99	30448.03
592.15	30607.19
592.31	30607.19
592.46	30162.48
592.62	30408.24
592.78	30462.07
592.94	30445.69
593.10	30499.52
593.26	30572.08
593.41	30761.66
593.57	30492.50
593.73	30707.83
593.89	30628.25
594.05	30405.90
594.20	30628.25
594.36	30197.59
594.52	30419.94
594.68	30588.46
594.84	30085.25
594.99	30431.65
595.15	30459.73
595.31	31175.94
595.47	30471.43
595.62	30663.36
595.78	30967.63
595.94	30806.13
596.10	30714.85
596.25	30576.76
596.41	30558.03
596.57	30494.84
596.73	30588.46
596.88	30630.59
597.04	30525.27
597.20	30801.45
597.36	30672.72
597.51	31026.14
597.67	30415.26
597.83	30679.74
597.99	30398.88
598.14	30799.11
598.30	30499.52
598.46	30356.75
598.61	30536.97
598.77	30841.24
598.93	30771.02
599.09	30866.98
599.24	30986.35
599.40	30897.41
599.56	30595.48
599.71	30639.95
599.87	30529.95
600.03	31208.70
600.18	30810.81
600.34	30403.56
600.50	30595.48
600.65	30855.28
600.81	30871.67
600.97	30759.32
601.12	30902.09
601.28	30988.69
601.44	30672.72
601.59	30897.41
601.75	30661.02
601.91	30485.48
602.06	30558.03
602.22	30551.01
602.37	30611.87
602.53	31030.82
602.69	30548.67
602.84	30752.30
603.00	30911.46
603.16	31283.60
603.31	30876.35
603.47	30838.90
603.62	30916.14
603.78	30356.75
603.94	30735.92
604.09	31030.82
604.25	30735.92
604.40	30328.66
604.56	30988.69
604.71	30902.09
604.87	30906.77
605.03	31056.57
605.18	30829.54
605.34	30553.35
605.49	30541.65
605.65	30551.01
605.80	30637.61
605.96	30277.17
606.12	30684.42
606.27	30597.82
606.43	30656.34
606.58	30721.87
606.74	30911.46
606.89	30888.05
607.05	30888.05
607.20	30911.46
607.36	30646.97
607.51	30403.56
607.67	30312.28
607.82	30387.18
607.98	30323.98
608.13	30572.08
608.29	30466.75
608.44	30705.49
608.60	30866.98
608.75	30745.28
608.91	30663.36
609.06	30258.45
609.22	30555.69
609.37	29907.37
609.53	30272.49
609.68	30321.64
609.84	30487.82
609.99	30506.54
610.15	30441.01
610.30	30459.73
610.46	30527.61
610.61	30433.99
610.76	30841.24
610.92	30611.87
611.07	30394.20
611.23	30693.79
611.38	30340.36
611.54	30043.12
611.69	30064.18
611.84	29996.31
612.00	30066.52
612.15	30059.50
612.31	30703.15
612.46	30529.95
612.62	30429.30
612.77	30274.83
612.92	30682.08
613.08	30157.80
613.23	30569.74
613.39	30008.01
613.54	30108.65
613.69	30307.60
613.85	30162.48
614.00	29919.07
614.15	30272.49
614.31	30181.21
614.46	30611.87
614.62	30176.53
614.77	30429.30
614.92	30132.06
615.08	29881.62
615.23	30291.21
615.38	29890.98
615.54	30199.93
615.69	30162.48
615.84	30167.16
616.00	30167.16
616.15	29799.70
616.30	30071.20
616.46	30059.50
616.61	30118.01
616.76	30080.56
616.92	30127.38
617.07	29993.97
617.22	29640.54
617.37	29603.10
617.53	30113.33
617.68	30185.89
617.83	29984.60
617.99	29582.03
618.14	29839.49
618.29	29617.14
618.45	29942.47
618.60	29677.99
618.75	29769.27
618.90	29750.55
619.06	29635.86
619.21	29633.52
619.36	29806.72
619.51	29439.26
619.67	29495.43
619.82	29738.85
619.97	29579.69
620.12	29717.78
620.28	29514.16
620.43	29710.76
620.58	29825.45
620.73	29528.20
620.89	29764.59
621.04	30155.46
621.19	29813.74
621.34	29436.92
621.49	29422.87
621.65	29355.00
621.80	29516.50
621.95	29350.32
622.10	29509.47
622.25	29385.43
622.41	29254.36
622.56	29502.45
622.71	29453.30
622.86	29511.81
623.01	29727.14
623.16	29282.44
623.32	29202.86
623.47	29186.48
623.62	29270.74
623.77	29163.08
623.92	28980.51
624.07	29062.43
624.23	29516.50
624.38	29415.85
624.53	29156.05
624.68	29184.14
624.83	29041.37
624.98	29186.48
625.13	29205.20
625.29	29195.84
625.44	29352.66
625.59	28774.55
625.74	28933.70
625.89	28505.38
626.04	28685.61
626.19	28903.28
626.34	28608.37
626.49	28486.66
626.65	28582.62
626.80	28830.72
626.95	28819.02
627.10	28919.66
627.25	29308.19
627.40	28606.03
627.55	28903.28
627.70	28531.13
627.85	28776.89
628.00	28704.33
628.15	28783.91
628.30	28173.03
628.45	28854.12
628.60	28711.35
628.76	28744.12
628.91	29118.60
629.06	28762.84
629.21	28854.12
629.36	28535.81
629.51	28456.23
629.66	28563.90
629.81	28481.98
629.96	28704.33
630.11	28680.92
630.26	28421.13
630.41	28439.85
630.56	28348.57
630.71	28247.93
630.86	28285.37
631.01	28470.28
631.16	28404.74
631.31	28493.68
631.46	28395.38
631.61	28231.54
631.76	27941.32
631.91	28364.95
632.06	28044.30
632.21	27854.72
632.36	28304.10
632.51	28332.18
632.66	28088.77
632.81	28077.07
632.96	28219.84
633.10	28659.86
633.25	28203.46
633.40	27957.70
633.55	27880.46
633.70	27725.99
633.85	27892.16
634.00	27997.49
634.15	27824.29
634.30	27854.72
634.45	27840.67
634.60	27704.92
634.75	28025.57
634.90	28044.30
635.05	27910.89
635.19	27861.74
635.34	27868.76
635.49	28126.22
635.64	27658.11
635.79	27452.14
635.94	27419.38
636.09	27964.72
636.24	27683.86
636.39	27508.32
636.53	27723.65
636.68	27728.33
636.83	27751.73
636.98	27796.20
637.13	27749.39
637.28	27826.63
637.43	27648.75
637.57	27747.05
637.72	27611.30
637.87	27398.31
638.02	27821.95
638.17	27517.68
638.32	27761.09
638.46	27129.15
638.61	27346.82
638.76	27260.22
638.91	27281.28
639.06	27644.07
639.20	27211.07
639.35	27618.32
639.50	27536.40
639.65	27618.32
639.80	27461.51
639.94	27564.49
640.09	27630.02
640.24	27501.29
640.39	27283.62
640.54	27030.85
640.68	26974.67
640.83	27337.46
640.98	27063.61
641.13	26974.67
641.27	27391.29
641.42	27241.50
641.57	27475.55
641.72	27351.50
641.86	26759.34
642.01	27194.68
642.16	27084.68
642.31	26827.22
642.45	26991.06
642.60	26895.10
642.75	26925.52
642.90	26960.63
643.04	27023.83
643.19	26904.46
643.34	26991.06
643.48	26707.85
643.63	26728.92
643.78	26766.37
643.93	27164.26
644.07	26909.14
644.22	26977.01
644.37	26579.12
644.51	26843.60
644.66	26677.43
644.81	26499.55
644.95	26693.81
645.10	26771.05
645.25	26511.25
645.39	26684.45
645.54	26675.09
645.69	26597.85
645.83	26806.16
645.98	26654.02
646.13	26686.79
646.27	26607.21
646.42	26548.70
646.57	26740.62
646.71	26558.06
646.86	26785.09
647.00	26717.22
647.15	26492.52
647.30	26534.65
647.44	26134.42
647.59	26675.09
647.74	26492.52
647.88	26478.48
648.03	26623.59
648.17	26487.84
648.32	26682.11
648.47	26588.49
648.61	26319.32
648.76	26448.05
648.90	26326.35
649.05	26391.88
649.20	26319.32
649.34	25986.97
649.49	26047.82
649.63	26246.77
649.78	26251.45
649.92	26352.09
650.07	26693.81
650.21	26256.13
650.36	26298.26
650.51	26132.08
650.65	26029.10
650.80	26450.39
650.94	26368.48
651.09	26017.40
651.23	25963.56
651.38	26389.54
651.52	26047.82
651.67	26192.94
651.81	26096.97
651.96	26094.63
652.10	26089.95
652.25	25860.58
652.39	25846.54
652.54	26185.91
652.68	25872.28
652.83	26239.75
652.97	26216.34
653.12	26008.03
653.26	26139.10
653.41	25888.67
653.55	25898.03
653.70	25886.32
653.84	25837.17
653.99	25633.55
654.13	25766.96
654.27	25462.69
654.42	25872.28
654.56	25553.97
654.71	25694.40
654.85	25568.01
655.00	25795.04
655.14	25790.36
655.29	25621.84
655.43	25614.82
655.57	25692.06
655.72	25640.57
655.86	25312.89
656.01	25443.96
656.15	25493.12
656.30	25076.50
656.44	25645.25
656.58	25722.49
656.73	25481.41
656.87	25172.46
657.01	25455.67
657.16	25429.92
657.30	25752.91
657.45	25352.68
657.59	25766.96
657.73	25537.59
657.88	25172.46
658.02	25039.05
658.16	25032.03
658.31	25036.71
658.45	25249.70
658.60	24896.28
658.74	25259.06
658.88	24922.02
659.03	25146.72
659.17	25064.80
659.31	25186.50
659.46	25027.35
659.60	25160.76
659.74	25015.65
659.89	25055.43
660.03	24561.58
660.17	25205.23
660.32	24727.76
660.46	25081.18
660.60	24561.58
660.74	24559.24
660.89	24940.75
661.03	24208.16
661.17	24872.87
661.32	24304.12
661.46	24762.87
661.60	24549.88
661.74	24507.75
661.89	24882.24
662.03	24470.30
662.17	24718.40
662.31	24524.13
662.46	24662.22
662.60	24451.58
662.74	24357.96
662.88	24084.11
663.03	23894.53
663.17	24074.75
663.31	24238.59
663.45	24109.86
663.60	24142.63
663.74	23941.34
663.88	24041.98
664.02	23983.47
664.17	24102.84
664.31	24276.04
664.45	23765.80
664.59	24175.39
664.73	23920.28
664.88	23969.43
665.02	23545.79
665.16	23594.94
665.30	23536.43
665.44	23611.32
665.59	23452.17
665.73	23831.33
665.87	23564.51
666.01	23513.02
666.15	23875.80
666.29	23784.52
666.44	23623.03
666.58	23330.46
666.72	23531.75
666.86	23386.63
667.00	23435.78
667.14	23201.73
667.28	23283.65
667.43	23386.63
667.57	23332.80
667.71	23201.73
667.85	23075.34
667.99	23075.34
668.13	23023.85
668.27	23234.50
668.41	23154.92
668.56	23489.62
668.70	23159.60
668.84	23353.87
668.98	23222.80
669.12	22707.88
669.26	22916.19
669.40	23087.04
669.54	22621.28
669.68	23035.55
669.82	22724.26
669.96	22356.80
670.10	22778.09
670.25	22553.40
670.39	22843.63
670.53	22298.28
670.67	22244.45
670.81	22237.43
670.95	22714.90
671.09	22654.05
671.23	22572.13
671.37	22537.02
671.51	22635.32
671.65	22560.42
671.79	22441.06
671.93	22202.32
672.07	22122.74
672.21	22286.58
672.35	22066.57
672.49	21673.36
672.63	22019.76
672.77	21532.93
672.91	22111.04
673.05	22125.08
673.19	21954.22
673.33	21778.68
673.47	21837.20
673.61	21649.96
673.75	21720.17
673.89	21813.79
674.03	21678.04
674.17	21509.52
674.31	21525.91
674.45	21546.97
674.59	21364.41
674.73	21350.37
674.87	21188.87
675.01	21439.31
675.15	21352.71
675.29	21130.36
675.43	21085.89
675.56	21123.33
675.70	20844.81
675.84	21090.57
675.98	20655.23
676.12	20950.14
676.26	20793.32
676.40	20912.69
676.54	20783.96
676.68	20772.25
676.82	20482.03
676.96	20456.28
677.10	20416.49
677.23	20582.67
677.37	20348.62
677.51	20336.91
677.65	20226.91
677.79	19946.05
677.93	20308.83
678.07	19964.77
678.21	19749.44
678.34	19943.70
678.48	19847.74
678.62	19758.80
678.76	19833.70
678.90	19906.26
679.04	19894.55
679.18	19641.78
679.31	19590.28
679.45	19510.71
679.59	19431.13
679.73	19154.94
679.87	19136.22
680.00	19318.78
680.14	19267.29
680.28	19007.49
680.42	18974.72
680.56	19178.35
680.70	19484.96
680.83	19358.57
680.97	18817.91
681.11	18991.11
681.25	18672.79
681.39	18775.78
681.52	18778.12
681.66	18850.67
681.80	18429.38
681.94	18394.27
682.07	18597.90
682.21	18855.36
682.35	18457.46
682.49	18380.23
682.62	18216.39
682.76	18038.51
682.90	18298.31
683.04	18143.83
683.17	18279.58
683.31	18242.14
683.45	18106.38
683.59	18087.66
683.72	18101.70
683.86	17998.72
684.00	18040.85
684.13	17762.33
684.27	17877.01
684.41	17397.20
684.55	17378.48
684.68	17380.82
684.82	17266.13
684.96	17205.28
685.09	17280.18
685.23	17331.67
685.37	17352.73
685.50	17305.92
685.64	17256.77
685.78	17214.64
685.91	17114.00
686.05	16847.18
686.19	17036.76
686.32	17118.68
686.46	16709.08
686.60	16840.15
686.73	16741.85
686.87	16477.37
687.01	16472.69
687.14	16634.19
687.28	16475.03
687.42	16566.31
687.55	16334.60
687.69	16292.47
687.82	16355.66
687.96	16224.59
688.10	16203.53
688.23	16477.37
688.37	15852.45
688.50	15920.32
688.64	16210.55
688.78	16432.90
688.91	15864.15
689.05	15915.64
689.18	15702.65
689.32	15438.17
689.46	15531.80
689.59	15482.64
689.73	15538.82
689.86	15302.42
690.00	15323.49
690.13	15564.56
690.27	15555.20
690.41	15260.29
690.54	15192.42
690.68	15190.08
690.81	15393.70
690.95	15087.09
691.08	15133.90
691.22	15082.41
691.35	14897.51
691.49	14846.02
691.62	15110.50
691.76	14820.27
691.89	14565.15
692.03	14455.15
692.16	14656.43
692.30	14525.36
692.43	14434.08
692.57	14553.45
692.70	14387.27
692.84	14265.57
692.97	14099.39
693.11	14333.44
693.24	14075.98
693.38	14162.58
693.51	14359.19
693.65	14022.15
693.78	14092.37
693.92	14120.45
694.05	13987.04
694.19	13902.78
694.32	13668.73
694.45	13860.65
694.59	13785.76
694.72	13312.97
694.86	13509.57
694.99	13502.55
695.13	13343.39
695.26	13444.04
695.39	13219.35
695.53	13413.61
695.66	13130.41
695.80	13404.25
695.93	13343.39
696.07	13235.73
696.20	13137.43
696.33	13149.13
696.47	12917.42
696.60	13142.11
696.73	12992.31
696.87	12812.09
697.00	12978.27
697.14	12730.17
697.27	12528.89
697.40	12503.14
697.54	12809.75
697.67	12360.37
697.80	12299.52
697.94	12313.56
698.07	12437.61
698.21	12035.03
698.34	12351.01
698.47	12421.22
698.61	12091.21
698.74	12402.50
698.87	12119.29
699.01	12219.94
699.14	11765.87
699.27	11676.93
699.40	11939.07
699.54	11859.49
699.67	11754.17
699.80	11707.36
699.94	11707.36
700.07	11576.29
700.20	11531.82
700.34	11412.45
700.47	11531.82
700.60	11353.94
700.73	11461.60
700.87	11335.21
701.00	10888.17
701.13	11407.77
701.26	11066.05
701.40	11075.42
701.53	11028.60
701.66	11173.72
701.79	11044.99
701.93	10827.32
702.06	10925.62
702.19	10860.09
702.32	10785.19
702.46	10775.83
702.59	10525.39
702.72	10534.75
702.85	10452.83
702.99	10621.35
703.12	10499.64
703.25	10544.11
703.38	10347.51
703.51	10415.38
703.65	10394.32
703.78	10319.42
703.91	10272.61
704.04	10120.48
704.17	10375.59
704.31	9998.77
704.44	9961.32
704.57	10099.41
704.70	9900.47
704.83	9818.55
704.96	9774.08
705.10	9963.66
705.23	9778.76
>>>>>End Processed Spectral Data<<<<<
