SpectraSuite Data File
++++++++++++++++++++++++++++++++++++
Date: Fri Oct 18 13:58:26 GMT-05:00 2013
User: bianchi
Dark Spectrum Present: No
Reference Spectrum Present: No
Number of Sampled Component Spectra: 1
Spectrometers: USB2+H05261
Integration Time (usec): 50000 (USB2+H05261)
Spectra Averaged: 1 (USB2+H05261)
Boxcar Smoothing: 0 (USB2+H05261)
Correct for Electrical Dark: No (USB2+H05261)
Strobe/Lamp Enabled: No (USB2+H05261)
Correct for Detector Non-linearity: No (USB2+H05261)
Correct for Stray Light: No (USB2+H05261)
Number of Pixels in Processed Spectrum: 2048
>>>>>Begin Processed Spectral Data<<<<<
365.73	0.00
365.92	0.00
366.12	0.00
366.32	0.00
366.52	0.00
366.72	0.00
366.91	0.00
367.11	0.00
367.31	0.00
367.51	0.00
367.70	0.00
367.90	0.00
368.10	0.00
368.30	0.00
368.49	0.00
368.69	0.00
368.89	0.00
369.09	0.00
369.28	0.00
369.48	0.00
369.68	0.00
369.87	0.00
370.07	0.00
370.27	0.00
370.47	0.00
370.66	58.51
370.86	119.37
371.06	72.56
371.25	95.96
371.45	138.09
371.65	88.94
371.84	142.77
372.04	135.75
372.24	163.84
372.44	180.22
372.63	210.65
372.83	175.54
373.03	163.84
373.22	264.48
373.42	175.54
373.62	231.71
373.81	196.60
374.01	255.12
374.21	203.63
374.40	205.97
374.60	259.80
374.79	187.24
374.99	292.57
375.19	241.08
375.38	283.20
375.58	250.44
375.78	299.59
375.97	318.31
376.17	287.89
376.37	362.78
376.56	306.61
376.76	250.44
376.95	290.23
377.15	259.80
377.35	166.18
377.54	259.80
377.74	224.69
377.93	243.42
378.13	266.82
378.33	287.89
378.52	238.73
378.72	283.20
378.91	269.16
379.11	334.70
379.31	322.99
379.50	297.25
379.70	320.65
379.89	292.57
380.09	339.38
380.28	358.10
380.48	269.16
380.68	283.20
380.87	290.23
381.07	292.57
381.26	285.55
381.46	355.76
381.65	308.95
381.85	320.65
382.04	337.04
382.24	255.12
382.43	231.71
382.63	292.57
382.83	325.33
383.02	444.70
383.22	355.76
383.41	341.72
383.61	383.85
383.80	346.40
384.00	344.06
384.19	381.51
384.39	346.40
384.58	374.49
384.78	346.40
384.97	395.55
385.17	388.53
385.36	402.57
385.56	334.70
385.75	339.38
385.95	388.53
386.14	407.25
386.34	404.91
386.53	442.36
386.72	416.62
386.92	442.36
387.11	447.04
387.31	437.68
387.50	397.89
387.70	454.06
387.89	498.53
388.09	484.49
388.28	444.70
388.48	442.36
388.67	538.32
388.86	435.34
389.06	465.77
389.25	456.40
389.45	484.49
389.64	435.34
389.84	510.24
390.03	409.59
390.22	479.81
390.42	496.19
390.61	505.56
390.81	503.22
391.00	456.40
391.19	561.73
391.39	538.32
391.58	573.43
391.78	477.47
391.97	517.26
392.16	498.53
392.36	484.49
392.55	486.83
392.75	510.24
392.94	545.34
393.13	557.05
393.33	540.66
393.52	507.90
393.71	571.09
393.91	575.77
394.10	580.45
394.29	559.39
394.49	631.94
394.68	657.69
394.88	575.77
395.07	592.16
395.26	634.29
395.46	601.52
395.65	589.82
395.84	657.69
396.04	629.60
396.23	653.01
396.42	564.07
396.62	603.86
396.81	561.73
397.00	697.48
397.19	645.99
397.39	713.86
397.58	592.16
397.77	624.92
397.97	627.26
398.16	634.29
398.35	676.41
398.55	781.74
398.74	638.97
398.93	706.84
399.12	641.31
399.32	695.14
399.51	732.59
399.70	650.67
399.90	753.65
400.09	723.23
400.28	706.84
400.47	737.27
400.67	718.54
400.86	748.97
401.05	751.31
401.24	751.31
401.44	723.23
401.63	788.76
401.82	809.83
402.01	763.01
402.21	805.14
402.40	809.83
402.59	880.04
402.78	868.34
402.97	847.27
403.17	788.76
403.36	786.42
403.55	849.61
403.74	866.00
403.93	863.66
404.13	966.64
404.32	884.72
404.51	943.24
404.70	966.64
404.89	959.62
405.09	968.98
405.28	966.64
405.47	973.66
405.66	1053.24
405.85	961.96
406.05	894.08
406.24	938.55
406.43	1025.15
406.62	929.19
406.81	1022.81
407.00	1074.31
407.20	1053.24
407.39	997.07
407.58	952.60
407.77	1081.33
407.96	990.05
408.15	1090.69
408.34	1004.09
408.54	1039.20
408.73	1060.26
408.92	1086.01
409.11	1144.52
409.30	1198.35
409.49	1132.82
409.68	1116.44
409.87	1114.10
410.07	1158.57
410.26	1191.33
410.45	1095.37
410.64	1203.04
410.83	1240.48
411.02	1193.67
411.21	1231.12
411.40	1125.80
411.59	1160.91
411.78	1289.64
411.98	1259.21
412.17	1282.61
412.36	1235.80
412.55	1231.12
412.74	1280.27
412.93	1275.59
413.12	1308.36
413.31	1483.90
413.50	1345.81
413.69	1287.29
413.88	1444.11
414.07	1369.21
414.26	1373.89
414.45	1394.96
414.64	1394.96
414.83	1551.78
415.02	1551.78
415.22	1568.16
415.41	1526.03
415.60	1657.10
415.79	1488.58
415.98	1577.52
416.17	1528.37
416.36	1715.61
416.55	1631.35
416.74	1607.95
416.93	1650.08
417.12	1682.85
417.31	1668.80
417.50	1685.19
417.69	1776.47
417.88	1724.97
418.07	1722.63
418.26	1762.42
418.45	1760.08
418.64	1732.00
418.83	1813.92
419.02	1774.13
419.21	1755.40
419.39	1722.63
419.58	1895.83
419.77	1820.94
419.96	1781.15
420.15	1973.07
420.34	1830.30
420.53	1842.00
420.72	1909.88
420.91	1867.75
421.10	1952.01
421.29	2069.03
421.48	1865.41
421.67	1937.96
421.86	1984.77
422.05	1956.69
422.24	1944.99
422.43	1902.86
422.61	1919.24
422.80	2083.08
422.99	1961.37
423.18	1959.03
423.37	2059.67
423.56	1952.01
423.75	2015.20
423.94	1989.46
424.13	1879.45
424.32	1870.09
424.50	2001.16
424.69	1959.03
424.88	2113.50
425.07	1944.99
425.26	2125.21
425.45	2012.86
425.64	2132.23
425.83	2017.54
426.01	2062.01
426.20	2022.22
426.39	2033.93
426.58	1996.48
426.77	2122.87
426.96	2141.59
427.15	2115.84
427.33	2120.53
427.52	2118.18
427.71	2108.82
427.90	2113.50
428.09	2218.83
428.28	2106.48
428.46	2286.70
428.65	2165.00
428.84	2305.43
429.03	2396.71
429.22	2195.42
429.40	2179.04
429.59	2296.07
429.78	2022.22
429.97	2092.44
430.16	2162.66
430.34	2314.79
430.53	2359.26
430.72	2317.13
430.91	2396.71
431.10	2394.37
431.28	2324.15
431.47	2431.82
431.66	2413.09
431.85	2401.39
432.03	2469.27
432.22	2504.37
432.41	2354.58
432.60	2422.45
432.79	2424.80
432.97	2553.52
433.16	2483.31
433.35	2438.84
433.54	2511.39
433.72	2565.23
433.91	2534.80
434.10	2509.05
434.28	2504.37
434.47	2520.76
434.66	2567.57
434.85	2555.86
435.03	2677.57
435.22	2612.04
435.41	2644.81
435.59	2635.44
435.78	2654.17
435.97	2600.34
436.16	2771.19
436.34	2597.99
436.53	2920.99
436.72	2846.09
436.90	2619.06
437.09	2787.58
437.28	2642.46
437.46	2745.45
437.65	2658.85
437.84	2677.57
438.02	2799.28
438.21	2731.41
438.40	2785.24
438.58	2869.50
438.77	2874.18
438.96	2822.69
439.14	2867.16
439.33	2841.41
439.52	3019.29
439.70	2949.08
439.89	2981.84
440.08	3038.02
440.26	2974.82
440.45	2988.86
440.63	3204.19
440.82	3063.76
441.01	3087.17
441.19	3126.96
441.38	3248.66
441.57	3302.50
441.75	3304.84
441.94	3316.54
442.12	3220.58
442.31	3286.11
442.50	3375.05
442.68	3192.49
442.87	3368.03
443.05	3286.11
443.24	3403.14
443.43	3396.12
443.61	3288.45
443.80	3487.40
443.98	3321.22
444.17	3288.45
444.35	3552.93
444.54	3466.33
444.73	3473.36
444.91	3445.27
445.10	3506.12
445.28	3506.12
445.47	3431.23
445.65	3365.69
445.84	3520.17
446.02	3569.32
446.21	3466.33
446.39	3543.57
446.58	3592.72
446.77	3536.55
446.95	3536.55
447.14	3480.38
447.32	3566.98
447.51	3382.07
447.69	3461.65
447.88	3431.23
448.06	3489.74
448.25	3541.23
448.43	3508.46
448.62	3545.91
448.80	3548.25
448.99	3513.14
449.17	3651.24
449.36	3588.04
449.54	3595.06
449.73	3758.90
449.91	3700.39
450.10	3672.30
450.28	3847.84
450.46	3763.58
450.65	3829.12
450.83	3796.35
451.02	3843.16
451.20	3838.48
451.39	3758.90
451.57	3742.52
451.76	3822.09
451.94	3838.48
452.13	3826.78
452.31	3920.40
452.49	3850.18
452.68	3906.35
452.86	3805.71
453.05	3911.04
453.23	3833.80
453.42	3749.54
453.60	3892.31
453.78	3911.04
453.97	3882.95
454.15	3939.12
454.34	3779.97
454.52	3868.91
454.70	4030.40
454.89	4208.28
455.07	3969.55
455.26	4084.23
455.44	4308.93
455.62	4070.19
455.81	4252.75
455.99	4049.13
456.17	3988.27
456.36	4170.83
456.54	4212.96
456.73	4114.66
456.91	4208.28
457.09	4339.35
457.28	4217.65
457.46	4124.02
457.64	4372.12
457.83	4297.22
458.01	4301.90
458.19	4365.10
458.38	4430.63
458.56	4379.14
458.74	4294.88
458.93	4498.51
459.11	4542.98
459.29	4355.74
459.48	4510.21
459.66	4442.34
459.84	4554.68
460.03	4631.92
460.21	4610.86
460.39	4568.73
460.57	4542.98
460.76	4542.98
460.94	4622.56
461.12	4636.60
461.31	4685.75
461.49	4540.64
461.67	4559.36
461.85	4660.01
462.04	4709.16
462.22	4805.12
462.40	4730.22
462.59	4828.53
462.77	4828.53
462.95	4812.14
463.13	4624.90
463.32	4737.24
463.50	4901.08
463.68	4765.33
463.86	4865.97
464.05	4795.76
464.23	4802.78
464.41	4908.10
464.59	4777.03
464.78	4938.53
464.96	4922.15
465.14	4870.65
465.32	4999.38
465.50	5025.13
465.69	5095.35
465.87	4971.30
466.05	4933.85
466.23	4961.94
466.41	4987.68
466.60	5142.16
466.78	5015.77
466.96	5053.22
467.14	5118.75
467.32	5109.39
467.51	5071.94
467.69	5170.24
467.87	5036.83
468.05	5181.95
468.23	5062.58
468.41	5191.31
468.60	5083.64
468.78	5088.32
468.96	5205.35
469.14	5050.88
469.32	5242.80
469.50	5259.18
469.69	5420.68
469.87	5483.88
470.05	5357.49
470.23	5352.81
470.41	5535.37
470.59	5544.73
470.77	5294.29
470.95	5451.11
471.14	5472.17
471.32	5526.00
471.50	5731.97
471.68	5673.46
471.86	5678.14
472.04	5614.95
472.22	5797.51
472.40	5596.22
472.58	5652.39
472.77	5788.14
472.95	5872.40
473.13	5996.45
473.31	5844.32
473.49	5661.76
473.67	5923.90
473.85	5921.56
474.03	6033.90
474.21	6031.56
474.39	5947.30
474.57	6040.92
474.75	6200.08
474.93	6052.63
475.12	6129.86
475.30	6059.65
475.48	6115.82
475.66	6230.51
475.84	6286.68
476.02	6537.12
476.20	6394.34
476.38	6466.90
476.56	6616.69
476.74	6541.80
476.92	6541.80
477.10	6480.94
477.28	6700.95
477.46	6771.17
477.64	6588.61
477.82	6839.05
478.00	7045.01
478.18	7002.88
478.36	7084.80
478.54	7117.57
478.72	7094.16
478.90	7023.95
479.08	7124.59
479.26	7150.34
479.44	7328.22
479.62	7433.54
479.80	7468.65
479.98	7531.84
480.16	7531.84
480.34	7609.08
480.52	7625.47
480.70	7473.33
480.88	7761.22
481.06	7903.99
481.24	7817.39
481.41	7943.78
481.59	8107.62
481.77	7892.29
481.95	7878.24
482.13	8049.10
482.31	7967.18
482.49	8201.24
482.67	8205.92
482.85	8360.39
483.03	8402.52
483.21	8439.97
483.39	8648.28
483.57	8500.83
483.74	8812.12
483.92	8706.79
484.10	8690.41
484.28	8999.36
484.46	9268.52
484.64	9132.77
484.82	8879.99
485.00	9380.87
485.18	9195.96
485.35	9631.30
485.53	9247.46
485.71	9334.06
485.89	9554.07
486.07	9544.70
486.25	9577.47
486.43	9493.21
486.61	9783.44
486.78	9994.09
486.96	10026.86
487.14	10033.88
487.32	10132.18
487.50	10200.05
487.68	10263.25
487.85	10361.55
488.03	10483.26
488.21	10370.91
488.39	10420.06
488.57	10459.85
488.75	10548.79
488.92	10817.96
489.10	10747.74
489.28	10757.10
489.46	11080.10
489.64	11040.31
489.81	11269.68
489.99	11267.34
490.17	11262.66
490.35	11564.59
490.53	11573.95
490.70	11707.36
490.88	11557.57
491.06	11634.80
491.24	11712.04
491.41	11847.79
491.59	11695.66
491.77	12006.95
491.95	12163.76
492.13	12224.62
492.30	12351.01
492.48	12760.60
492.66	12606.13
492.84	12500.80
493.01	12365.05
493.19	12582.72
493.37	12688.04
493.54	12835.50
493.72	13020.40
493.90	12856.56
494.08	12858.90
494.25	13043.81
494.43	13050.83
494.61	13249.77
494.79	13238.07
494.96	13298.92
495.14	13582.13
495.32	13614.90
495.49	13872.36
495.67	13547.02
495.85	13743.63
496.02	13785.76
496.20	13942.57
496.38	13783.41
496.55	13830.23
496.73	14043.21
496.91	14267.91
497.09	14310.04
497.26	14139.18
497.44	14457.49
497.62	14431.74
497.79	14331.10
497.97	14340.46
498.14	14719.63
498.32	14806.23
498.50	14696.22
498.67	14913.89
498.85	14899.85
499.03	14721.97
499.20	14824.95
499.38	14946.66
499.56	15208.80
499.73	15328.17
499.91	15501.37
500.08	15550.52
500.26	15080.07
500.44	15356.25
500.61	15393.70
500.79	15351.57
500.97	15686.27
501.14	15925.00
501.32	15917.98
501.49	15665.21
501.67	15824.36
501.84	16039.69
502.02	16191.83
502.20	15896.92
502.37	16077.14
502.55	15999.90
502.72	16222.25
502.90	16194.17
503.07	16285.45
503.25	15939.05
503.43	16233.96
503.60	16592.06
503.78	16381.41
503.95	16430.56
504.13	16573.33
504.30	16477.37
504.48	16673.98
504.65	16676.32
504.83	16793.34
505.01	17209.96
505.18	16751.21
505.36	17355.07
505.53	17032.08
505.71	17099.95
505.88	17158.47
506.06	17046.12
506.23	17209.96
506.41	17355.07
506.58	17364.43
506.76	17436.99
506.93	17427.63
507.11	17408.90
507.28	17441.67
507.46	17582.10
507.63	17642.96
507.81	17806.80
507.98	17429.97
508.16	17612.53
508.33	17748.28
508.50	17579.76
508.68	17799.77
508.85	18108.72
509.03	18108.72
509.20	18066.60
509.38	18623.64
509.55	18111.07
509.73	18504.28
509.90	18317.03
510.08	18354.48
510.25	18429.38
510.42	18506.62
510.60	18501.93
510.77	18951.32
510.95	18448.10
511.12	18499.59
511.30	18771.10
511.47	18539.38
511.64	18565.13
511.82	18857.70
511.99	19136.22
512.17	19016.85
512.34	19058.98
512.51	19543.47
512.69	19049.62
512.86	19421.77
513.04	19477.94
513.21	19367.93
513.38	19513.05
513.56	19288.35
513.73	19587.94
513.90	19585.60
514.08	19616.03
514.25	19325.80
514.43	19901.58
514.60	19910.94
514.77	19887.53
514.95	19339.85
515.12	19733.06
515.29	19601.99
515.47	19704.97
515.64	20140.31
515.81	19995.20
515.99	20308.83
516.16	20304.15
516.33	20072.43
516.51	20430.54
516.68	20013.92
516.85	20219.89
517.03	20259.68
517.20	20608.42
517.37	20517.14
517.54	20456.28
517.72	20702.04
517.89	20627.14
518.06	20524.16
518.24	20561.61
518.41	20617.78
518.58	20774.60
518.75	20900.98
518.93	20816.72
519.10	20950.14
519.27	21186.53
519.45	21146.74
519.62	21015.67
519.79	21179.51
519.96	21090.57
520.14	21214.62
520.31	21153.76
520.48	21462.71
520.65	21198.23
520.83	21434.63
521.00	21483.78
521.17	21111.63
521.34	21495.48
521.52	21223.98
521.69	21462.71
521.86	21923.80
522.03	21928.48
522.20	21820.81
522.38	21759.96
522.55	22036.14
522.72	21738.90
522.89	21731.87
523.07	22045.51
523.24	22328.71
523.41	21900.39
523.58	22101.68
523.75	22221.05
523.92	22300.62
524.10	22052.53
524.27	22089.98
524.44	22375.52
524.61	22490.21
524.78	22363.82
524.96	22375.52
525.13	22794.48
525.30	22750.01
525.47	22693.83
525.64	22738.30
525.81	22628.30
525.98	22628.30
526.16	22604.89
526.33	22675.11
526.50	23110.45
526.67	22717.24
526.84	22609.58
527.01	23005.13
527.18	22810.86
527.36	22672.77
527.53	23459.19
527.70	23484.94
527.87	23187.69
528.04	22890.44
528.21	23129.17
528.38	22911.50
528.55	23098.75
528.72	23241.52
528.89	23325.78
529.07	23424.08
529.24	23482.59
529.41	23688.56
529.58	23297.69
529.75	23222.80
529.92	23491.96
530.09	23597.28
530.26	23843.04
530.43	23756.44
530.60	23543.45
530.77	23585.58
530.94	23599.62
531.11	24053.69
531.28	23477.91
531.46	23793.89
531.63	24123.90
531.80	24109.86
531.97	24245.61
532.14	24093.47
532.31	24250.29
532.48	24149.65
532.65	24114.54
532.82	23906.23
532.99	24156.67
533.16	24549.88
533.33	24163.69
533.50	24367.32
533.67	24652.86
533.84	24479.66
534.01	24308.80
534.18	24070.07
534.35	24716.06
534.52	24517.11
534.69	24634.14
534.86	24905.64
535.03	24173.05
535.20	24683.29
535.37	24702.01
535.54	24730.10
535.71	24615.41
535.88	24882.24
536.05	24692.65
536.22	24812.02
536.38	25006.28
536.55	24828.40
536.72	25027.35
536.89	24514.77
537.06	25158.42
537.23	25060.12
537.40	24709.04
537.57	24772.23
537.74	24945.43
537.91	25359.70
538.08	25415.88
538.25	24915.00
538.42	25238.00
538.59	25200.55
538.75	25174.80
538.92	25238.00
539.09	25493.12
539.26	25205.23
539.43	25481.41
539.60	25504.82
539.77	25336.30
539.94	25687.38
540.11	25458.01
540.28	25518.86
540.44	25717.81
540.61	25301.19
540.78	25598.44
540.95	25303.53
541.12	26096.97
541.29	26008.03
541.46	25811.43
541.62	25556.31
541.79	25855.90
541.96	25713.13
542.13	25876.96
542.30	25626.53
542.47	25860.58
542.63	25998.67
542.80	26244.43
542.97	26480.82
543.14	26544.02
543.31	26272.51
543.48	26373.16
543.64	26639.98
543.81	26738.28
543.98	26492.52
544.15	26604.87
544.32	26548.70
544.48	27012.12
544.65	26466.78
544.82	26331.03
544.99	26286.56
545.16	26518.27
545.32	26639.98
545.49	26916.16
545.66	26831.90
545.83	26845.94
546.00	26934.88
546.16	26712.53
546.33	26670.40
546.50	26108.68
546.67	26771.05
546.83	26480.82
547.00	26450.39
547.17	26801.47
547.34	26867.01
547.50	26988.72
547.67	27070.64
547.84	27061.27
548.00	27126.81
548.17	27103.40
548.34	26993.40
548.51	27262.56
548.67	27459.16
548.84	26974.67
549.01	27154.90
549.18	27124.47
549.34	27393.63
549.51	27353.84
549.68	27316.39
549.84	27147.87
550.01	27473.21
550.18	27426.40
550.34	27545.76
550.51	27534.06
550.68	27765.78
550.84	27173.62
551.01	27733.01
551.18	27424.06
551.34	27517.68
551.51	27545.76
551.68	27695.56
551.84	27655.77
552.01	27489.59
552.18	27931.95
552.34	27723.65
552.51	27623.00
552.68	28016.21
552.84	27456.82
553.01	27665.13
553.18	27653.43
553.34	28168.35
553.51	27630.02
553.67	28112.17
553.84	28053.66
554.01	28280.69
554.17	27714.28
554.34	27915.57
554.51	28273.67
554.67	28116.86
554.84	27768.12
555.00	27828.97
555.17	28177.71
555.33	27613.64
555.50	27950.68
555.67	28240.90
555.83	28283.03
556.00	28020.89
556.16	28711.35
556.33	28177.71
556.50	27929.61
556.66	28474.96
556.83	28219.84
556.99	28423.47
557.16	28762.84
557.32	28299.42
557.49	28449.21
557.65	28191.75
557.82	28362.61
557.98	28079.41
558.15	28320.48
558.32	28622.41
558.48	28449.21
558.65	28615.39
558.81	28498.36
558.98	28484.32
559.14	28943.06
559.31	28470.28
559.47	28112.17
559.64	28811.99
559.80	28872.85
559.97	28526.45
560.13	28407.08
560.30	28472.62
560.46	28479.64
560.63	28601.35
560.79	28945.41
560.96	28723.05
561.12	28655.18
561.29	28521.77
561.45	28451.55
561.61	28631.77
561.78	28835.40
561.94	29205.20
562.11	28847.10
562.27	28917.32
562.44	28847.10
562.60	29181.80
562.77	28472.62
562.93	28545.17
563.10	29090.52
563.26	29020.30
563.42	29270.74
563.59	29020.30
563.75	28971.15
563.92	29113.92
564.08	28655.18
564.24	29244.99
564.41	28837.74
564.57	29502.45
564.74	29032.00
564.90	28905.62
565.07	29390.11
565.23	29069.45
565.39	29020.30
565.56	29083.50
565.72	29127.97
565.88	29078.82
566.05	29205.20
566.21	29380.74
566.38	28978.17
566.54	29490.75
566.70	29142.01
566.87	29420.53
567.03	29275.42
567.19	29376.06
567.36	29434.58
567.52	29249.67
567.68	29099.88
567.85	29350.32
568.01	29083.50
568.17	29240.31
568.34	29418.19
568.50	29572.67
568.66	29537.56
568.83	29436.92
568.99	29228.61
569.15	29317.55
569.32	29303.51
569.48	28985.19
569.64	29591.39
569.81	29312.87
569.97	29347.98
570.13	29394.79
570.30	29481.39
570.46	29296.49
570.62	29584.37
570.78	29586.71
570.95	29315.21
571.11	29373.72
571.27	29273.08
571.43	29514.16
571.60	29336.27
571.76	29553.94
571.92	28959.45
572.09	29647.57
572.25	29722.46
572.41	29539.90
572.57	29645.23
572.74	29759.91
572.90	29064.77
573.06	29635.86
573.22	29153.71
573.38	29546.92
573.55	29539.90
573.71	29895.66
573.87	30146.10
574.03	30038.44
574.20	29701.40
574.36	29343.30
574.52	29537.56
574.68	29525.86
574.84	29827.79
575.01	29731.83
575.17	29502.45
575.33	29404.15
575.49	29883.96
575.65	29799.70
575.82	29549.26
575.98	29523.52
576.14	29898.00
576.30	29345.64
576.46	29511.81
576.62	29144.35
576.79	29706.08
576.95	29530.54
577.11	29624.16
577.27	30118.01
577.43	29584.37
577.59	29933.11
577.75	29755.23
577.92	29633.52
578.08	29448.62
578.24	29575.01
578.40	29436.92
578.56	29455.64
578.72	29769.27
578.88	29879.28
579.04	29823.11
579.21	29727.14
579.37	29867.58
579.53	29886.30
579.69	29617.14
579.85	29558.63
580.01	29352.66
580.17	29324.57
580.33	29692.04
580.49	29762.25
580.65	29846.51
580.82	29584.37
580.98	30064.18
581.14	29685.01
581.30	29802.04
581.46	29479.05
581.62	29902.68
581.78	29715.44
581.94	29986.94
582.10	29687.36
582.26	29558.63
582.42	30075.88
582.58	30094.61
582.74	29614.80
582.90	30045.46
583.06	29703.74
583.22	29930.77
583.38	29888.64
583.54	29584.37
583.70	29460.32
583.86	29638.20
584.02	30101.63
584.18	29792.68
584.34	30183.55
584.50	29975.24
584.66	29757.57
584.82	29483.73
584.98	29432.24
585.14	29682.67
585.30	29425.22
585.46	30033.75
585.62	29876.94
585.78	29881.62
585.94	29565.65
586.10	30099.29
586.26	30003.33
586.42	30078.22
586.58	30031.41
586.74	29968.22
586.90	29516.50
587.06	29514.16
587.22	29790.34
587.38	30033.75
587.54	29888.64
587.70	29893.32
587.86	30132.06
588.02	30237.38
588.18	29965.88
588.34	30015.03
588.49	29954.18
588.65	30164.82
588.81	29951.84
588.97	29979.92
589.13	29989.28
589.29	29979.92
589.45	30148.44
589.61	29989.28
589.77	30232.70
589.93	30377.81
590.08	30199.93
590.24	30038.44
590.40	30113.33
590.56	30209.29
590.72	30492.50
590.88	30099.29
591.04	30148.44
591.20	30679.74
591.35	30445.69
591.51	30799.11
591.67	30368.45
591.83	30543.99
591.99	30403.56
592.15	30340.36
592.31	30059.50
592.46	30239.72
592.62	30265.47
592.78	29621.82
592.94	30635.27
593.10	30225.68
593.26	30096.95
593.41	30494.84
593.57	30185.89
593.73	30122.69
593.89	30457.39
594.05	30349.73
594.20	29961.20
594.36	30445.69
594.52	29844.17
594.68	29977.58
594.84	29970.56
594.99	30824.86
595.15	30642.29
595.31	30237.38
595.47	30270.15
595.62	30543.99
595.78	30295.89
595.94	30693.79
596.10	30206.95
596.25	30082.91
596.41	30785.07
596.57	30155.46
596.73	30279.51
596.88	30316.96
597.04	30347.39
597.20	30787.41
597.36	30008.01
597.51	30522.93
597.67	30471.43
597.83	30443.35
597.99	30775.70
598.14	30480.80
598.30	30382.49
598.46	30436.33
598.61	30803.79
598.77	30178.87
598.93	30426.96
599.09	30483.14
599.24	30661.02
599.40	30511.22
599.56	30747.62
599.71	30209.29
599.87	30349.73
600.03	30508.88
600.18	30480.80
600.34	30335.68
600.50	30314.62
600.65	30635.27
600.81	30792.09
600.97	30504.20
601.12	30829.54
601.28	30799.11
601.44	30469.09
601.59	30749.96
601.75	30288.87
601.91	30499.52
602.06	30078.22
602.22	30253.76
602.37	30501.86
602.53	30597.82
602.69	30455.05
602.84	30883.37
603.00	30043.12
603.16	30441.01
603.31	30452.71
603.47	30380.15
603.62	30433.99
603.78	30075.88
603.94	30096.95
604.09	30384.83
604.25	30391.86
604.40	30492.50
604.56	29846.51
604.71	30417.60
604.87	30235.04
605.03	30232.70
605.18	30565.06
605.34	29949.50
605.49	30298.23
605.65	30677.40
605.80	30174.19
605.96	30003.33
606.12	30553.35
606.27	30525.27
606.43	30384.83
606.58	30845.92
606.74	30651.66
606.89	30705.49
607.05	30295.89
607.20	30490.16
607.36	30536.97
607.51	30043.12
607.67	30113.33
607.82	30199.93
607.98	30464.41
608.13	30232.70
608.29	30389.52
608.44	30675.06
608.60	29923.75
608.75	30422.28
608.91	30464.41
609.06	30008.01
609.22	30085.25
609.37	29755.23
609.53	30295.89
609.68	29762.25
609.84	30127.38
609.99	30445.69
610.15	29928.43
610.30	29823.11
610.46	30155.46
610.61	29996.31
610.76	30190.57
610.92	29989.28
611.07	30057.16
611.23	30249.08
611.38	30277.17
611.54	30036.09
611.69	29825.45
611.84	29633.52
612.00	30026.73
612.15	29799.70
612.31	30230.36
612.46	29874.60
612.62	30052.48
612.77	29956.52
612.92	30005.67
613.08	29867.58
613.23	30127.38
613.39	29708.42
613.54	29656.93
613.69	29607.78
613.85	29656.93
614.00	29790.34
614.15	30103.97
614.31	29607.78
614.46	30029.07
614.62	30059.50
614.77	29968.22
614.92	29783.32
615.08	30024.39
615.23	29701.40
615.38	29890.98
615.54	29443.94
615.69	29687.36
615.84	29563.31
616.00	29366.70
616.15	29542.24
616.30	30031.41
616.46	29902.68
616.61	29928.43
616.76	29935.45
616.92	29729.48
617.07	29549.26
617.22	29546.92
617.37	29373.72
617.53	29853.53
617.68	29376.06
617.83	29448.62
617.99	29645.23
618.14	29315.21
618.29	29336.27
618.45	29460.32
618.60	29797.36
618.75	29832.47
618.90	29511.81
619.06	29539.90
619.21	29329.25
619.36	29165.42
619.51	29266.06
619.67	28826.04
619.82	29415.85
619.97	29509.47
620.12	29230.95
620.28	29275.42
620.43	29448.62
620.58	29090.52
620.73	29439.26
620.89	29277.76
621.04	29399.47
621.19	29860.55
621.34	29294.14
621.49	29001.58
621.65	29008.60
621.80	29310.53
621.95	28844.76
622.10	29088.18
622.25	29092.86
622.41	28748.80
622.56	29277.76
622.71	29563.31
622.86	29259.04
623.01	29247.33
623.16	29242.65
623.32	29102.22
623.47	29280.10
623.62	28683.27
623.77	29104.56
623.92	28910.30
624.07	28835.40
624.23	28994.56
624.38	28999.24
624.53	29003.92
624.68	28903.28
624.83	29317.55
624.98	28800.29
625.13	28484.32
625.29	29195.84
625.44	28741.78
625.59	28627.09
625.74	28709.01
625.89	28397.72
626.04	28489.00
626.19	28739.44
626.34	28524.11
626.49	28547.51
626.65	28891.57
626.80	28435.17
626.95	28638.80
627.10	28484.32
627.25	28587.30
627.40	28446.87
627.55	28173.03
627.70	28215.16
627.85	27983.44
628.00	28215.16
628.15	28528.79
628.30	28250.27
628.45	28397.72
628.60	28517.09
628.76	28617.73
628.91	28467.94
629.06	28301.76
629.21	28367.29
629.36	28341.55
629.51	28205.80
629.66	28238.56
629.81	28151.96
629.96	28051.32
630.11	27744.71
630.26	28025.57
630.41	28114.52
630.56	27861.74
630.71	28205.80
630.86	28168.35
631.01	28077.07
631.16	28257.29
631.31	27934.29
631.46	27981.10
631.61	28091.11
631.76	28020.89
631.91	27850.03
632.06	27484.91
632.21	27957.70
632.36	27955.36
632.51	27658.11
632.66	27763.43
632.81	27763.43
632.96	27667.47
633.10	27634.71
633.25	27850.03
633.40	28376.66
633.55	27873.44
633.70	27690.88
633.85	27513.00
634.00	27644.07
634.15	27473.21
634.30	27564.49
634.45	27274.26
634.60	27456.82
634.75	27779.82
634.90	27384.27
635.05	27613.64
635.19	27498.95
635.34	27927.27
635.49	27999.83
635.64	28144.94
635.79	27648.75
635.94	27508.32
636.09	27515.34
636.24	27431.08
636.39	27641.73
636.53	27718.96
636.68	27187.66
636.83	27683.86
636.98	26969.99
637.13	27637.05
637.28	27615.98
637.43	27372.57
637.57	27814.93
637.72	27330.44
637.87	27412.35
638.02	27206.39
638.17	27442.78
638.32	27021.48
638.46	26977.01
638.61	26822.54
638.76	26888.07
638.91	27194.68
639.06	27096.38
639.20	27321.07
639.35	27424.06
639.50	27119.79
639.65	27601.94
639.80	27515.34
639.94	27356.18
640.09	27407.67
640.24	27215.75
640.39	27070.64
640.54	26911.48
640.68	26972.33
640.83	26714.87
640.98	26583.80
641.13	27014.46
641.27	27349.16
641.42	26761.69
641.57	26881.05
641.72	27105.74
641.86	26529.97
642.01	26569.76
642.16	26799.13
642.31	27049.57
642.45	26939.57
642.60	26520.61
642.75	26429.33
642.90	26857.65
643.04	26258.47
643.19	26529.97
643.34	26677.43
643.48	26450.39
643.63	26506.57
643.78	26324.01
643.93	26675.09
644.07	26621.25
644.22	26663.38
644.37	26654.02
644.51	26628.27
644.66	26487.84
644.81	26162.51
644.95	26312.30
645.10	26583.80
645.25	26001.01
645.39	26412.95
645.54	26338.05
645.69	26089.95
645.83	26452.73
645.98	26504.23
646.13	26588.49
646.27	26375.50
646.42	26391.88
646.57	26354.43
646.71	26375.50
646.86	26141.44
647.00	26160.17
647.15	26300.60
647.30	26476.14
647.44	26057.18
647.59	26174.21
647.74	26464.44
647.88	26302.94
648.03	26319.32
648.17	26267.83
648.32	26401.24
648.47	26394.22
648.61	26113.36
648.76	25975.27
648.90	26604.87
649.05	26480.82
649.20	26246.77
649.34	25816.11
649.49	25862.92
649.63	26078.25
649.78	26204.64
649.92	25827.81
650.07	25912.07
650.21	26024.42
650.36	26052.50
650.51	25970.58
650.65	26019.74
650.80	25546.95
650.94	25572.69
651.09	26036.12
651.23	25778.66
651.38	25537.59
651.52	25703.76
651.67	25759.94
651.81	25858.24
651.96	25663.97
652.10	25729.51
652.25	25638.23
652.39	26160.17
652.54	25862.92
652.68	25827.81
652.83	25813.77
652.97	26005.69
653.12	25811.43
653.26	25862.92
653.41	25575.03
653.55	25715.47
653.70	25507.16
653.84	25888.67
653.99	25336.30
654.13	25336.30
654.27	25273.10
654.42	25912.07
654.56	25415.88
654.71	25092.88
654.85	25593.76
655.00	25429.92
655.14	25773.98
655.29	25500.14
655.43	25422.90
655.57	25383.11
655.72	25514.18
655.86	25490.77
656.01	25202.89
656.15	25280.13
656.30	25032.03
656.44	25034.37
656.58	24996.92
656.73	24765.21
656.87	25060.12
657.01	24907.98
657.16	25118.63
657.30	25116.29
657.45	25034.37
657.59	25191.19
657.73	25127.99
657.88	25336.30
658.02	25032.03
658.16	24844.79
658.31	24510.09
658.45	24987.56
658.60	24903.30
658.74	24800.32
658.88	24767.55
659.03	24573.28
659.17	25013.31
659.31	24872.87
659.46	24732.44
659.60	25116.29
659.74	24673.93
659.89	24783.93
660.03	24395.40
660.17	24683.29
660.32	24587.33
660.46	24418.81
660.60	24257.31
660.74	24205.82
660.89	24397.74
661.03	24589.67
661.17	24400.08
661.32	24491.37
661.46	24343.91
661.60	24063.05
661.74	24381.36
661.89	24140.29
662.03	24243.27
662.17	23971.77
662.31	24259.65
662.46	24278.38
662.60	24013.90
662.74	24297.10
662.88	23861.76
663.03	23466.21
663.17	23857.08
663.31	23632.39
663.45	23803.25
663.60	23723.67
663.74	23421.74
663.88	23997.51
664.02	23522.38
664.17	23857.08
664.31	23964.75
664.45	23557.49
664.59	23704.95
664.73	23868.78
664.88	23885.17
665.02	23260.24
665.16	23433.44
665.30	23234.50
665.44	23398.34
665.59	23311.74
665.73	23599.62
665.87	23129.17
666.01	23318.76
666.15	23405.36
666.29	23501.32
666.44	23318.76
666.58	22892.78
666.72	22986.40
666.86	23115.13
667.00	23283.65
667.14	22974.70
667.28	22883.42
667.43	22885.76
667.57	23271.95
667.71	22998.10
667.85	23157.26
667.99	23040.23
668.13	22581.49
668.27	22654.05
668.41	22958.31
668.56	22609.58
668.70	22876.40
668.84	22640.00
668.98	22787.46
669.12	22340.41
669.26	22780.43
669.40	22537.02
669.54	22419.99
669.68	22604.89
669.82	22356.80
669.96	22359.14
670.10	22279.56
670.25	22242.11
670.39	22279.56
670.53	22410.63
670.67	22061.89
670.81	22389.56
670.95	22237.43
671.09	22162.53
671.23	22094.66
671.37	22462.12
671.51	21984.65
671.65	22181.26
671.79	21998.70
671.93	21874.65
672.07	22082.95
672.21	21905.07
672.35	21654.64
672.49	21699.11
672.63	21207.59
672.77	21474.42
672.91	21722.51
673.05	21341.00
673.19	21708.47
673.33	21270.79
673.47	21469.73
673.61	21537.61
673.75	21312.92
673.89	21443.99
674.03	21233.34
674.17	21252.06
674.31	20898.64
674.45	21001.63
674.59	21254.40
674.73	20971.20
674.87	21022.69
675.01	20893.96
675.15	20877.58
675.29	21078.86
675.43	20690.34
675.56	20805.02
675.70	20826.09
675.84	20835.45
675.98	20606.08
676.12	20704.38
676.26	20676.29
676.40	20500.75
676.54	20655.23
676.68	20449.26
676.82	20102.86
676.96	20203.50
677.10	20177.76
677.23	19908.60
677.37	20369.68
677.51	20152.01
677.65	20168.40
677.79	19775.19
677.93	19218.14
678.07	20072.43
678.21	19915.62
678.34	19613.69
678.48	19578.58
678.62	19822.00
678.76	19271.97
678.90	19447.51
679.04	19468.58
679.18	19496.66
679.31	19190.05
679.45	19068.34
679.59	19159.63
679.73	19290.70
679.87	18963.02
680.00	19084.73
680.14	18834.29
680.28	19164.31
680.42	18490.23
680.56	18974.72
680.70	18927.91
680.83	19049.62
680.97	18422.36
681.11	18508.96
681.25	18808.54
681.39	18450.44
681.52	18810.89
681.66	18494.91
681.80	18342.78
681.94	18211.71
682.07	18317.03
682.21	18225.75
682.35	18104.04
682.49	17902.76
682.62	18104.04
682.76	17708.49
682.90	17965.95
683.04	17996.38
683.17	17858.29
683.31	17975.31
683.45	17771.69
683.59	17495.50
683.72	17570.40
683.86	17671.04
684.00	17647.64
684.13	17802.11
684.27	17446.35
684.41	17181.87
684.55	17261.45
684.68	17078.89
684.82	16893.99
684.96	17336.35
685.09	17043.78
685.23	17142.08
685.37	16910.37
685.50	16936.12
685.64	16973.56
685.78	16786.32
685.91	17151.45
686.05	16931.44
686.19	16755.90
686.32	16833.13
686.46	16671.64
686.60	16514.82
686.73	16070.12
686.87	16287.79
687.01	16489.07
687.14	16100.55
687.28	16278.43
687.42	16168.42
687.55	15864.15
687.69	16039.69
687.82	15943.73
687.96	16248.00
688.10	15906.28
688.23	15833.72
688.37	15906.28
688.50	15658.18
688.64	15847.77
688.78	15805.64
688.91	15611.37
689.05	15712.02
689.18	15424.13
689.32	15178.37
689.46	15365.62
689.59	15185.40
689.73	15337.53
689.86	15159.65
690.00	15126.88
690.13	15492.01
690.27	15250.93
690.41	15143.27
690.54	14963.04
690.68	15030.92
690.81	14918.57
690.95	15023.90
691.08	14986.45
691.22	14757.08
691.35	14635.37
691.49	14984.11
691.62	14813.25
691.76	14455.15
691.89	14670.48
692.03	14307.69
692.16	14256.20
692.30	14317.06
692.43	14221.10
692.57	14052.58
692.70	14157.90
692.84	14139.18
692.97	13823.20
693.11	14284.29
693.24	13961.30
693.38	14071.30
693.51	13994.06
693.65	13977.68
693.78	13603.19
693.92	14008.11
694.05	13713.20
694.19	13926.19
694.32	13544.68
694.45	13514.25
694.59	13303.60
694.72	13483.83
694.86	13565.74
694.99	13078.91
695.13	13111.68
695.26	13254.45
695.39	13022.74
695.53	13352.76
695.66	12924.44
695.80	13179.56
695.93	13139.77
696.07	12931.46
696.20	12943.16
696.33	12940.82
696.47	12816.77
696.60	12760.60
696.73	12741.88
696.87	12542.93
697.00	12622.51
697.14	12358.03
697.27	12037.38
697.40	12358.03
697.54	12322.92
697.67	12238.66
697.80	11983.54
697.94	12159.08
698.07	12100.57
698.21	11988.22
698.34	11964.82
698.47	12252.70
698.61	11791.62
698.74	12013.97
698.87	12039.72
699.01	11840.77
699.14	11974.18
699.27	11585.65
699.40	11543.52
699.54	11672.25
699.67	11482.67
699.80	11517.78
699.94	11602.04
700.07	11426.50
700.20	11037.97
700.34	11267.34
700.47	11204.14
700.60	11213.51
700.73	11311.81
700.87	11131.59
701.00	11164.36
701.13	11328.19
701.26	11009.88
701.40	11052.01
701.53	10878.81
701.66	10979.45
701.79	10740.72
701.93	10822.64
702.06	10796.89
702.19	10817.96
702.32	10558.16
702.46	10401.34
702.59	10270.27
702.72	10389.64
702.85	10513.69
702.99	10424.75
703.12	10483.26
703.25	10101.75
703.38	10253.89
703.51	10186.01
703.65	10256.23
703.78	10150.90
703.91	10106.43
704.04	10083.03
704.17	10176.65
704.31	9989.41
704.44	10003.45
704.57	9919.19
704.70	9785.78
704.83	9729.61
704.96	9785.78
705.10	9680.46
705.23	9490.87
>>>>>End Processed Spectral Data<<<<<
