SpectraSuite Data File
++++++++++++++++++++++++++++++++++++
Date: Fri Oct 18 13:57:56 GMT-05:00 2013
User: bianchi
Dark Spectrum Present: No
Reference Spectrum Present: No
Number of Sampled Component Spectra: 1
Spectrometers: USB2+H05261
Integration Time (usec): 50000 (USB2+H05261)
Spectra Averaged: 1 (USB2+H05261)
Boxcar Smoothing: 0 (USB2+H05261)
Correct for Electrical Dark: No (USB2+H05261)
Strobe/Lamp Enabled: No (USB2+H05261)
Correct for Detector Non-linearity: No (USB2+H05261)
Correct for Stray Light: No (USB2+H05261)
Number of Pixels in Processed Spectrum: 2048
>>>>>Begin Processed Spectral Data<<<<<
365.73	0.00
365.92	0.00
366.12	0.00
366.32	0.00
366.52	0.00
366.72	0.00
366.91	0.00
367.11	0.00
367.31	0.00
367.51	0.00
367.70	0.00
367.90	0.00
368.10	0.00
368.30	0.00
368.49	0.00
368.69	0.00
368.89	0.00
369.09	0.00
369.28	0.00
369.48	0.00
369.68	0.00
369.87	0.00
370.07	0.00
370.27	0.00
370.47	0.00
370.66	98.30
370.86	205.97
371.06	110.01
371.25	210.65
371.45	138.09
371.65	154.48
371.84	135.75
372.04	145.11
372.24	180.22
372.44	224.69
372.63	231.71
372.83	196.60
373.03	198.95
373.22	252.78
373.42	257.46
373.62	210.65
373.81	203.63
374.01	322.99
374.21	287.89
374.40	215.33
374.60	241.08
374.79	266.82
374.99	271.50
375.19	252.78
375.38	280.86
375.58	259.80
375.78	250.44
375.97	337.04
376.17	297.25
376.37	301.93
376.56	245.76
376.76	220.01
376.95	273.84
377.15	299.59
377.35	304.27
377.54	287.89
377.74	248.10
377.93	276.18
378.13	276.18
378.33	320.65
378.52	299.59
378.72	273.84
378.91	369.80
379.11	322.99
379.31	280.86
379.50	290.23
379.70	290.23
379.89	365.12
380.09	287.89
380.28	353.42
380.48	322.99
380.68	362.78
380.87	257.46
381.07	369.80
381.26	341.72
381.46	330.02
381.65	376.83
381.85	285.55
382.04	428.32
382.24	360.44
382.43	341.72
382.63	374.49
382.83	325.33
383.02	358.10
383.22	430.66
383.41	395.55
383.61	372.15
383.80	400.23
384.00	402.57
384.19	381.51
384.39	353.42
384.58	428.32
384.78	383.85
384.97	435.34
385.17	402.57
385.36	397.89
385.56	346.40
385.75	437.68
385.95	428.32
386.14	390.87
386.34	388.53
386.53	414.27
386.72	416.62
386.92	390.87
387.11	456.40
387.31	355.76
387.50	489.17
387.70	418.96
387.89	369.80
388.09	496.19
388.28	461.09
388.48	400.23
388.67	505.56
388.86	449.38
389.06	433.00
389.25	526.62
389.45	395.55
389.64	472.79
389.84	554.71
390.03	531.30
390.22	407.25
390.42	477.47
390.61	533.64
390.81	435.34
391.00	599.18
391.19	503.22
391.39	596.84
391.58	547.69
391.78	545.34
391.97	592.16
392.16	582.79
392.36	594.50
392.55	622.58
392.75	552.37
392.94	561.73
393.13	535.98
393.33	592.16
393.52	566.41
393.71	564.07
393.91	603.86
394.10	517.26
394.29	578.11
394.49	641.31
394.68	631.94
394.88	575.77
395.07	608.54
395.26	634.29
395.46	685.78
395.65	779.40
395.84	690.46
396.04	667.05
396.23	674.07
396.42	655.35
396.62	730.25
396.81	683.44
397.00	648.33
397.19	641.31
397.39	629.60
397.58	713.86
397.77	688.12
397.97	725.57
398.16	681.10
398.35	718.54
398.55	688.12
398.74	746.63
398.93	737.27
399.12	753.65
399.32	765.36
399.51	709.18
399.70	821.53
399.90	748.97
400.09	763.01
400.28	905.79
400.47	713.86
400.67	837.91
400.86	798.12
401.05	828.55
401.24	727.91
401.44	727.91
401.63	779.40
401.82	898.77
402.01	877.70
402.21	894.08
402.40	821.53
402.59	863.66
402.78	875.36
402.97	828.55
403.17	828.55
403.36	858.98
403.55	968.98
403.74	842.59
403.93	924.51
404.13	901.11
404.32	973.66
404.51	908.13
404.70	964.30
404.89	903.45
405.09	1043.88
405.28	929.19
405.47	1015.79
405.66	1006.43
405.85	971.32
406.05	990.05
406.24	1046.22
406.43	992.39
406.62	1020.47
406.81	1118.78
407.00	1039.20
407.20	1069.62
407.39	926.85
407.58	1032.18
407.77	1029.84
407.96	1139.84
408.15	1097.71
408.34	1149.20
408.54	1121.12
408.73	1067.28
408.92	1207.72
409.11	1118.78
409.30	1233.46
409.49	1205.38
409.68	1188.99
409.87	1205.38
410.07	1205.38
410.26	1151.54
410.45	1226.44
410.64	1217.08
410.83	1371.55
411.02	1301.34
411.21	1324.74
411.40	1256.87
411.59	1315.38
411.78	1277.93
411.98	1151.54
412.17	1352.83
412.36	1268.57
412.55	1380.92
412.74	1338.79
412.93	1387.94
413.12	1366.87
413.31	1497.94
413.50	1390.28
413.69	1406.66
413.88	1371.55
414.07	1572.84
414.26	1493.26
414.45	1509.65
414.64	1519.01
414.83	1511.99
415.02	1479.22
415.22	1490.92
415.41	1675.82
415.60	1633.69
415.79	1638.38
415.98	1722.63
416.17	1706.25
416.36	1720.29
416.55	1750.72
416.74	1671.14
416.93	1619.65
417.12	1617.31
417.31	1699.23
417.50	1736.68
417.69	1727.32
417.88	1886.47
418.07	1781.15
418.26	1710.93
418.45	1760.08
418.64	1755.40
418.83	1870.09
419.02	1853.70
419.21	1832.64
419.39	1891.15
419.58	1830.30
419.77	1874.77
419.96	1966.05
420.15	1863.07
420.34	1844.34
420.53	1954.35
420.72	1982.43
420.91	2029.24
421.10	1987.11
421.29	2059.67
421.48	2017.54
421.67	2090.10
421.86	2026.90
422.05	2019.88
422.24	1994.14
422.43	2052.65
422.61	2069.03
422.80	2001.16
422.99	2120.53
423.18	2057.33
423.37	2176.70
423.56	2118.18
423.75	2073.71
423.94	2003.50
424.13	1984.77
424.32	1937.96
424.50	2062.01
424.69	2223.51
424.88	2106.48
425.07	2071.37
425.26	2064.35
425.45	2064.35
425.64	2085.42
425.83	2031.58
426.01	2047.97
426.20	2139.25
426.39	2153.29
426.58	2085.42
426.77	2153.29
426.96	2209.47
427.15	2214.15
427.33	2092.44
427.52	2150.95
427.71	2167.34
427.90	2195.42
428.09	2263.30
428.28	2186.06
428.46	2275.00
428.65	2307.77
428.84	2237.55
429.03	2324.15
429.22	2221.17
429.40	2244.57
429.59	2300.75
429.78	2209.47
429.97	2162.66
430.16	2293.72
430.34	2310.11
430.53	2394.37
430.72	2370.96
430.91	2385.01
431.10	2284.36
431.28	2438.84
431.47	2450.54
431.66	2497.35
431.85	2363.94
432.03	2499.69
432.22	2473.95
432.41	2382.67
432.60	2588.63
432.79	2469.27
432.97	2747.79
433.16	2544.16
433.35	2532.46
433.54	2593.31
433.72	2642.46
433.91	2614.38
434.10	2691.62
434.28	2586.29
434.47	2689.28
434.66	2647.15
434.85	2600.34
435.03	2663.53
435.22	2761.83
435.41	2794.60
435.59	2722.04
435.78	2689.28
435.97	2827.37
436.16	2789.92
436.34	2799.28
436.53	2703.32
436.72	2729.06
436.90	2708.00
437.09	2848.43
437.28	2867.16
437.46	2801.62
437.65	2829.71
437.84	2782.90
438.02	2785.24
438.21	2974.82
438.40	2904.60
438.58	2888.22
438.77	2944.39
438.96	2937.37
439.14	3194.83
439.33	3073.12
439.52	3098.87
439.70	3080.14
439.89	3152.70
440.08	3070.78
440.26	3215.90
440.45	3056.74
440.63	3222.92
440.82	3180.79
441.01	3122.27
441.19	3124.62
441.38	3246.32
441.57	3208.87
441.75	3344.63
441.94	3328.24
442.12	3433.57
442.31	3372.71
442.50	3452.29
442.68	3627.83
442.87	3410.16
443.05	3471.01
443.24	3499.10
443.43	3527.19
443.61	3473.36
443.80	3693.37
443.98	3421.86
444.17	3452.29
444.35	3564.64
444.54	3707.41
444.73	3648.90
444.91	3578.68
445.10	3426.54
445.28	3538.89
445.47	3499.10
445.65	3517.83
445.84	3555.27
446.02	3578.68
446.21	3501.44
446.39	3545.91
446.58	3552.93
446.77	3861.88
446.95	3489.74
447.14	3630.17
447.32	3726.13
447.51	3531.87
447.69	3482.72
447.88	3517.83
448.06	3702.73
448.25	3620.81
448.43	3630.17
448.62	3655.92
448.80	3625.49
448.99	3824.44
449.17	3698.05
449.36	3756.56
449.54	3721.45
449.73	3796.35
449.91	3824.44
450.10	3765.92
450.28	3969.55
450.46	3829.12
450.65	3889.97
450.83	3875.93
451.02	3843.16
451.20	3906.35
451.39	3955.51
451.57	3850.18
451.76	4014.02
451.94	3861.88
452.13	3943.80
452.31	3974.23
452.49	3915.72
452.68	3941.46
452.86	4095.94
453.05	3920.40
453.23	3990.61
453.42	3911.04
453.60	3889.97
453.78	4011.68
453.97	3934.44
454.15	4023.38
454.34	4028.06
454.52	4170.83
454.70	4109.98
454.89	4322.97
455.07	4007.00
455.26	4107.64
455.44	4222.33
455.62	4124.02
455.81	4252.75
455.99	4266.80
456.17	4224.67
456.36	4271.48
456.54	4400.21
456.73	4369.78
456.91	4496.17
457.09	4486.81
457.28	4615.54
457.46	4372.12
457.64	4379.14
457.83	4585.11
458.01	4414.25
458.19	4519.57
458.38	4519.57
458.56	4531.28
458.74	4376.80
458.93	4535.96
459.11	4723.20
459.29	4575.75
459.48	4671.71
459.66	4669.37
459.84	4603.83
460.03	4823.84
460.21	4704.48
460.39	4770.01
460.57	4585.11
460.76	4648.30
460.94	4758.31
461.12	4851.93
461.31	4767.67
461.49	4805.12
461.67	4755.97
461.85	4856.61
462.04	4826.18
462.22	5088.32
462.40	4814.48
462.59	4863.63
462.77	4952.57
462.95	4999.38
463.13	4983.00
463.32	5029.81
463.50	5100.03
463.68	5071.94
463.86	5043.85
464.05	4915.12
464.23	4978.32
464.41	5137.48
464.59	5041.51
464.78	5116.41
464.96	4940.87
465.14	5006.41
465.32	5132.79
465.50	5195.99
465.69	5139.82
465.87	5149.18
466.05	5291.95
466.23	5228.76
466.41	5331.74
466.60	5352.81
466.78	5284.93
466.96	5188.97
467.14	5102.37
467.32	5266.21
467.51	5507.28
467.69	5198.33
467.87	5460.47
468.05	5460.47
468.23	5273.23
468.41	5280.25
468.60	5350.46
468.78	5387.91
468.96	5387.91
469.14	5509.62
469.32	5500.26
469.50	5430.04
469.69	5547.07
469.87	5589.20
470.05	5526.00
470.23	5509.62
470.41	5673.46
470.59	5598.56
470.77	5561.11
470.95	5734.31
471.14	5834.96
471.32	5678.14
471.50	5928.58
471.68	5820.91
471.86	5769.42
472.04	5734.31
472.22	6003.47
472.40	5816.23
472.58	5881.77
472.77	5886.45
472.95	6125.18
473.13	6162.63
473.31	5881.77
473.49	5825.59
473.67	5944.96
473.85	5989.43
474.03	6279.66
474.21	6317.11
474.39	6221.14
474.57	6424.77
474.75	6286.68
474.93	6499.67
475.12	6349.87
475.30	6502.01
475.48	6169.65
475.66	6328.81
475.84	6354.55
476.02	6520.73
476.20	6658.82
476.38	6703.29
476.56	6883.52
476.74	6778.19
476.92	6906.92
477.10	6712.66
477.28	6754.79
477.46	6925.65
477.64	6930.33
477.82	6927.99
478.00	7110.55
478.18	7225.23
478.36	7243.96
478.54	7250.98
478.72	7461.63
478.90	7438.22
479.08	7665.25
479.26	7414.82
479.44	7508.44
479.62	7604.40
479.80	7691.00
479.98	7627.81
480.16	7873.56
480.34	7681.64
480.52	7932.08
480.70	7882.92
480.88	7854.84
481.06	7791.64
481.24	7936.76
481.41	8135.70
481.59	8119.32
481.77	8067.83
481.95	8306.56
482.13	8444.65
482.31	8269.11
482.49	8575.72
482.67	8671.68
482.85	8695.09
483.03	9083.62
483.21	8786.37
483.39	8961.91
483.57	8945.53
483.74	8968.93
483.92	9092.98
484.10	8915.10
484.28	9137.45
484.46	9488.53
484.64	9493.21
484.82	9114.05
485.00	9413.63
485.18	9355.12
485.35	9638.33
485.53	9628.96
485.71	9748.33
485.89	9841.95
486.07	9839.61
486.25	9942.60
486.43	9928.55
486.61	10141.54
486.78	10359.21
486.96	10368.57
487.14	10373.25
487.32	10532.41
487.50	10333.47
487.68	10579.22
487.85	10476.24
488.03	10843.70
488.21	10834.34
488.39	10923.28
488.57	11101.16
488.75	11171.38
488.92	11070.73
489.10	11372.66
489.28	11503.73
489.46	11744.81
489.64	11363.30
489.81	11714.38
489.99	11637.14
490.17	11779.92
490.35	12046.74
490.53	12039.72
490.70	11964.82
490.88	12084.19
491.06	12301.86
491.24	12119.29
491.41	12023.33
491.59	12346.33
491.77	12322.92
491.95	12762.94
492.13	12526.55
492.30	12702.09
492.48	12755.92
492.66	12627.19
492.84	12608.47
493.01	12891.67
493.19	12950.18
493.37	13008.70
493.54	13123.38
493.72	13312.97
493.90	13240.41
494.08	13378.50
494.25	13743.63
494.43	13607.87
494.61	13858.31
494.79	13907.46
494.96	14001.08
495.14	13881.72
495.32	13820.86
495.49	14104.07
495.67	14157.90
495.85	14260.88
496.02	14501.96
496.20	14361.53
496.38	14328.76
496.55	14466.85
496.73	14906.87
496.91	14941.98
497.09	14902.19
497.26	14871.76
497.44	14677.50
497.62	14743.03
497.79	15201.78
497.97	15192.42
498.14	15274.34
498.32	15569.24
498.50	15789.25
498.67	15637.12
498.85	15426.47
499.03	15859.47
499.20	15534.14
499.38	15782.23
499.56	15431.15
499.73	15714.36
499.91	15880.53
500.08	16081.82
500.26	15630.10
500.44	15770.53
500.61	15997.56
500.79	15983.52
500.97	16257.36
501.14	16402.47
501.32	16400.13
501.49	16458.65
501.67	16343.96
501.84	16465.67
502.02	16872.92
502.20	16690.36
502.37	16889.31
502.55	16898.67
502.72	16908.03
502.90	16716.11
503.07	16751.21
503.25	17018.04
503.43	16971.22
503.60	17085.91
503.78	17193.58
503.95	17156.13
504.13	17259.11
504.30	17137.40
504.48	17158.47
504.65	17390.18
504.83	17689.77
505.01	17649.98
505.18	17834.88
505.36	17881.69
505.53	17584.44
505.71	17490.82
505.88	17853.61
506.06	17638.28
506.23	18195.32
506.41	17956.59
506.58	18073.62
506.76	18001.06
506.93	18214.05
507.11	18115.75
507.28	18190.64
507.46	18209.37
507.63	18342.78
507.81	18576.83
507.98	18249.16
508.16	18391.93
508.33	18494.91
508.50	18200.01
508.68	18705.56
508.85	18904.51
509.03	18808.54
509.20	18796.84
509.38	19197.07
509.55	19068.34
509.73	19117.50
509.90	18958.34
510.08	18836.63
510.25	19147.92
510.42	19276.65
510.60	19360.91
510.77	19365.59
510.95	19653.48
511.12	19527.09
511.30	19257.93
511.47	19335.17
511.64	19557.52
511.82	19482.62
511.99	19737.74
512.17	19992.86
512.34	19906.26
512.51	19831.36
512.69	19885.19
512.86	20020.94
513.04	19953.07
513.21	20343.94
513.38	20250.32
513.56	20013.92
513.73	19922.64
513.90	19957.75
514.08	19985.83
514.25	20320.53
514.43	20273.72
514.60	20493.73
514.77	20676.29
514.95	20505.43
515.12	20362.66
515.29	20442.24
515.47	20952.48
515.64	20961.84
515.81	20720.76
515.99	20961.84
516.16	21156.10
516.33	20975.88
516.51	21120.99
516.68	21039.08
516.85	21298.88
517.03	21298.88
517.20	21422.92
517.37	21408.88
517.54	21209.93
517.72	21584.42
517.89	21769.32
518.06	21598.46
518.24	21673.36
518.41	21509.52
518.58	21516.54
518.75	21781.03
518.93	21682.72
519.10	21668.68
519.27	21972.95
519.45	21921.46
519.62	21413.56
519.79	21542.29
519.96	21813.79
520.14	22071.25
520.31	21991.67
520.48	22129.77
520.65	21989.33
520.83	22298.28
521.00	22064.23
521.17	21996.35
521.34	22101.68
521.52	22471.48
521.69	22618.94
521.86	22621.28
522.03	22483.19
522.20	22607.23
522.38	22867.03
522.55	22459.78
522.72	22485.53
522.89	22761.71
523.07	23110.45
523.24	22906.82
523.41	23145.56
523.58	22927.89
523.75	23168.96
523.92	22572.13
524.10	22691.49
524.27	23044.91
524.44	23356.21
524.61	23166.62
524.78	23571.54
524.96	23653.45
525.13	23206.41
525.30	23452.17
525.47	23522.38
525.64	23283.65
525.81	23498.98
525.98	23311.74
526.16	23845.38
526.33	23665.16
526.50	23941.34
526.67	23637.07
526.84	23737.71
527.01	23496.64
527.18	23899.21
527.36	23901.55
527.53	24168.37
527.70	24245.61
527.87	24266.67
528.04	24041.98
528.21	24100.50
528.38	24254.97
528.55	23934.32
528.72	24130.92
528.89	24205.82
529.07	24231.57
529.24	24189.44
529.41	24657.54
529.58	24357.96
529.75	24592.01
529.92	24545.20
530.09	24444.56
530.26	24259.65
530.43	24884.58
530.60	24573.28
530.77	24706.70
530.94	24788.61
531.11	24486.68
531.28	24601.37
531.46	24622.44
531.63	24896.28
531.80	24858.83
531.97	24762.87
532.14	24882.24
532.31	25046.07
532.48	25067.14
532.65	25184.16
532.82	24992.24
532.99	25071.82
533.16	24975.86
533.33	25715.47
533.50	25235.66
533.67	25469.71
533.84	25331.62
534.01	25401.83
534.18	25127.99
534.35	25530.56
534.52	25399.49
534.69	25399.49
534.86	25537.59
535.03	25357.36
535.20	25530.56
535.37	25598.44
535.54	25750.57
535.71	25333.96
535.88	25675.68
536.05	26082.93
536.22	26139.10
536.38	25912.07
536.55	25935.48
536.72	25589.08
536.89	25872.28
537.06	26015.05
537.23	26370.82
537.40	25605.46
537.57	25795.04
537.74	26015.05
537.91	26356.77
538.08	26253.79
538.25	26253.79
538.42	26260.81
538.59	26190.59
538.75	26335.71
538.92	26436.35
539.09	26258.47
539.26	26436.35
539.43	26661.04
539.60	26665.72
539.77	26661.04
539.94	26621.25
540.11	26342.73
540.28	26738.28
540.44	26487.84
540.61	26443.37
540.78	26485.50
540.95	26675.09
541.12	26892.76
541.29	26534.65
541.46	27096.38
541.62	26522.95
541.79	26843.60
541.96	26625.93
542.13	26764.03
542.30	26757.00
542.47	26911.48
542.63	26925.52
542.80	27353.84
542.97	27257.88
543.14	27501.29
543.31	27625.34
543.48	27248.52
543.64	27784.50
543.81	27498.95
543.98	27349.16
544.15	27637.05
544.32	27971.74
544.48	27768.12
544.65	27756.41
544.82	27627.68
544.99	27578.53
545.16	27796.20
545.32	27264.90
545.49	27470.87
545.66	27969.40
545.83	27910.89
546.00	28074.73
546.16	27700.24
546.33	27321.07
546.50	27648.75
546.67	27749.39
546.83	27658.11
547.00	27981.10
547.17	27840.67
547.34	28067.70
547.50	28081.75
547.67	28268.99
547.84	28039.62
548.00	28091.11
548.17	27999.83
548.34	28023.23
548.51	28491.34
548.67	28446.87
548.84	28264.31
549.01	28409.42
549.18	28339.21
549.34	28407.08
549.51	28308.78
549.68	28278.35
549.84	28224.52
550.01	28498.36
550.18	28367.29
550.34	28648.16
550.51	28940.72
550.68	28519.43
550.84	28531.13
551.01	28936.04
551.18	28575.60
551.34	28191.75
551.51	28884.55
551.68	28978.17
551.84	28510.07
552.01	28816.68
552.18	28882.21
552.34	28664.54
552.51	28804.97
552.68	28790.93
552.84	28833.06
553.01	28982.85
553.18	28847.10
553.34	29184.14
553.51	29120.95
553.67	29029.66
553.84	28828.38
554.01	29322.23
554.17	29486.07
554.34	28905.62
554.51	29263.72
554.67	29191.16
554.84	29205.20
555.00	29308.19
555.17	28957.11
555.33	28924.34
555.50	29408.83
555.67	28994.56
555.83	29310.53
556.00	29029.66
556.16	29546.92
556.33	29689.70
556.50	29378.40
556.66	29757.57
556.83	29509.47
556.99	29385.43
557.16	29677.99
557.32	29755.23
557.49	29809.06
557.65	29535.22
557.82	29481.39
557.98	29195.84
558.15	29560.97
558.32	29682.67
558.48	29722.46
558.65	29977.58
558.81	30038.44
558.98	29511.81
559.14	29603.10
559.31	29764.59
559.47	29855.87
559.64	29907.37
559.80	30139.08
559.97	29614.80
560.13	30160.14
560.30	30251.42
560.46	30094.61
560.63	29930.77
560.79	30139.08
560.96	29991.62
561.12	29689.70
561.29	30082.91
561.45	29975.24
561.61	30129.72
561.78	30188.23
561.94	29977.58
562.11	30132.06
562.27	30089.93
562.44	30167.16
562.60	30103.97
562.77	30263.13
562.93	30249.08
563.10	30038.44
563.26	30462.07
563.42	30349.73
563.59	30211.64
563.75	30087.59
563.92	30422.28
564.08	29996.31
564.24	30639.95
564.41	30054.82
564.57	30242.06
564.74	30560.37
564.90	30597.82
565.07	30213.98
565.23	30462.07
565.39	30363.77
565.56	30419.94
565.72	30225.68
565.88	30263.13
566.05	30527.61
566.21	30361.43
566.38	30345.05
566.54	30422.28
566.70	30691.44
566.87	30972.31
567.03	30616.55
567.19	30930.18
567.36	30609.53
567.52	30298.23
567.68	30787.41
567.85	30518.25
568.01	30534.63
568.17	30293.55
568.34	30445.69
568.50	30803.79
568.66	30731.23
568.83	31035.50
568.99	30703.15
569.15	30412.92
569.32	31040.18
569.48	30661.02
569.64	30522.93
569.81	30944.22
569.97	30581.44
570.13	30789.75
570.30	30593.14
570.46	31054.23
570.62	30817.83
570.78	30520.59
570.95	30724.21
571.11	30572.08
571.27	30656.34
571.43	30632.93
571.60	30953.58
571.76	30611.87
571.92	30869.33
572.09	30754.64
572.25	31222.75
572.41	30761.66
572.57	30642.29
572.74	31143.17
572.90	30593.14
573.06	30693.79
573.22	30768.68
573.38	30953.58
573.55	30466.75
573.71	30813.15
573.87	31260.20
574.03	30747.62
574.20	30850.60
574.36	31033.16
574.52	31131.47
574.68	30857.62
574.84	31197.00
575.01	30792.09
575.17	30857.62
575.33	30478.46
575.49	30714.85
575.65	31201.68
575.82	30752.30
575.98	31297.64
576.14	31065.93
576.30	30836.56
576.46	30991.03
576.62	30902.09
576.79	30916.14
576.95	30703.15
577.11	31325.73
577.27	31005.08
577.43	31016.78
577.59	31084.65
577.75	31267.22
577.92	30808.47
578.08	30646.97
578.24	30747.62
578.40	30817.83
578.56	31283.60
578.72	31260.20
578.88	31173.60
579.04	31365.52
579.21	31519.99
579.37	31047.21
579.53	31136.15
579.69	30939.54
579.85	31159.55
580.01	30834.22
580.17	30902.09
580.33	31283.60
580.49	31292.96
580.65	31082.31
580.82	31178.28
580.98	31204.02
581.14	31295.30
581.30	31489.57
581.46	31519.99
581.62	31229.77
581.78	30513.56
581.94	31033.16
582.10	31115.08
582.26	31402.97
582.42	31459.14
582.58	31505.95
582.74	31068.27
582.90	30895.07
583.06	31454.46
583.22	31342.11
583.38	31161.89
583.54	30806.13
583.70	31208.70
583.86	31152.53
584.02	30974.65
584.18	31494.25
584.34	31241.47
584.50	31342.11
584.66	31299.98
584.82	31264.88
584.98	30806.13
585.14	31255.51
585.30	30756.98
585.46	31409.99
585.62	31175.94
585.78	31180.62
585.94	31110.40
586.10	31489.57
586.26	31508.29
586.42	31206.36
586.58	31372.54
586.74	31157.21
586.90	31021.46
587.06	31096.36
587.22	31498.93
587.38	31152.53
587.54	31433.39
587.70	31318.71
587.86	31089.34
588.02	31768.09
588.18	31604.25
588.34	31482.55
588.49	31372.54
588.65	31342.11
588.81	31440.42
588.97	31065.93
589.13	31309.35
589.29	31534.04
589.45	31697.88
589.61	31639.36
589.77	31676.81
589.93	31349.14
590.08	31885.12
590.24	31683.83
590.40	31630.00
590.56	31646.38
590.72	31810.22
590.88	31438.08
591.04	31276.58
591.20	31482.55
591.35	31840.65
591.51	31943.63
591.67	31852.35
591.83	31775.11
591.99	31761.07
592.15	31931.93
592.31	31529.36
592.46	31409.99
592.62	31353.82
592.78	31740.00
592.94	31683.83
593.10	31442.76
593.26	31536.38
593.41	31842.99
593.57	31990.44
593.73	32093.43
593.89	31868.73
594.05	31749.37
594.20	31751.71
594.36	31644.04
594.52	31693.19
594.68	31857.03
594.84	31646.38
594.99	32072.36
595.15	31700.22
595.31	31964.70
595.47	31903.84
595.62	31491.91
595.78	31625.32
595.94	31833.63
596.10	31477.86
596.25	31634.68
596.41	31489.57
596.57	31150.19
596.73	31854.69
596.88	31606.59
597.04	32053.64
597.20	32133.21
597.36	31941.29
597.51	32081.72
597.67	31835.97
597.83	31819.58
597.99	32259.60
598.14	31878.10
598.30	31917.89
598.46	31796.18
598.61	32020.87
598.77	31943.63
598.93	32065.34
599.09	31800.86
599.24	32231.52
599.40	32397.70
599.56	31552.76
599.71	31768.09
599.87	31868.73
600.03	32128.53
600.18	31679.15
600.34	32023.21
600.50	32037.25
600.65	31866.39
600.81	32175.34
600.97	31978.74
601.12	32287.69
601.28	32002.14
601.44	31751.71
601.59	31931.93
601.75	32030.23
601.91	31768.09
602.06	31332.75
602.22	32055.98
602.37	31564.46
602.53	32140.24
602.69	31824.26
602.84	32002.14
603.00	32283.01
603.16	32275.99
603.31	32018.53
603.47	32004.49
603.62	31456.80
603.78	31887.46
603.94	31470.84
604.09	31833.63
604.25	32048.96
604.40	31800.86
604.56	32023.21
604.71	32290.03
604.87	31770.43
605.03	32048.96
605.18	31955.33
605.34	32063.00
605.49	32144.92
605.65	31681.49
605.80	31316.37
605.96	31707.24
606.12	32198.75
606.27	32158.96
606.43	31641.70
606.58	32004.49
606.74	31913.20
606.89	31894.48
607.05	32109.81
607.20	31960.02
607.36	32030.23
607.51	31831.29
607.67	31826.60
607.82	31754.05
607.98	31658.09
608.13	31899.16
608.29	31798.52
608.44	32020.87
608.60	32173.00
608.75	32112.15
608.91	32201.09
609.06	31723.62
609.22	31821.92
609.37	31367.86
609.53	31501.27
609.68	31527.02
609.84	31512.97
609.99	31758.73
610.15	31686.17
610.30	31431.05
610.46	31501.27
610.61	31527.02
610.76	31873.42
610.92	31917.89
611.07	31910.86
611.23	31667.45
611.38	31594.89
611.54	31016.78
611.69	31157.21
611.84	31550.42
612.00	32034.91
612.15	31278.92
612.31	31468.50
612.46	31412.33
612.62	31491.91
612.77	31517.65
612.92	31655.75
613.08	31255.51
613.23	31473.18
613.39	30951.24
613.54	30890.39
613.69	30939.54
613.85	31349.14
614.00	31384.24
614.15	31538.72
614.31	31314.03
614.46	31517.65
614.62	31344.45
614.77	31360.84
614.92	31342.11
615.08	30981.67
615.23	31405.31
615.38	31349.14
615.54	31096.36
615.69	30808.47
615.84	31110.40
616.00	31339.77
616.15	31068.27
616.30	30909.11
616.46	31220.41
616.61	31248.49
616.76	31452.12
616.92	30937.20
617.07	31201.68
617.22	30710.17
617.37	30932.52
617.53	30771.02
617.68	31028.48
617.83	30855.28
617.99	30918.48
618.14	31012.10
618.29	31187.64
618.45	31044.87
618.60	30829.54
618.75	30923.16
618.90	31171.25
619.06	30859.96
619.21	30878.69
619.36	31110.40
619.51	31005.08
619.67	30984.01
619.82	30771.02
619.97	30621.23
620.12	30457.39
620.28	30419.94
620.43	30899.75
620.58	31072.95
620.73	30663.36
620.89	30551.01
621.04	30876.35
621.19	30600.16
621.34	30710.17
621.49	30178.87
621.65	30422.28
621.80	30513.56
621.95	30635.27
622.10	30658.68
622.25	30609.53
622.41	30426.96
622.56	30522.93
622.71	31117.42
622.86	30724.21
623.01	31117.42
623.16	30469.09
623.32	30546.33
623.47	30630.59
623.62	30522.93
623.77	30202.27
623.92	30349.73
624.07	30136.74
624.23	30129.72
624.38	30216.32
624.53	30347.39
624.68	30345.05
624.83	30394.20
624.98	30731.23
625.13	30017.37
625.29	30441.01
625.44	30206.95
625.59	29720.12
625.74	29860.55
625.89	30003.33
626.04	30213.98
626.19	30209.29
626.34	29902.68
626.49	29996.31
626.65	30110.99
626.80	30129.72
626.95	30466.75
627.10	30253.76
627.25	29804.38
627.40	30256.11
627.55	29614.80
627.70	29912.05
627.85	29521.18
628.00	29720.12
628.15	29804.38
628.30	29380.74
628.45	29680.33
628.60	29523.52
628.76	29689.70
628.91	29921.41
629.06	30038.44
629.21	29631.18
629.36	29766.93
629.51	29816.08
629.66	29715.44
629.81	29589.05
629.96	29081.16
630.11	29504.79
630.26	29455.64
630.41	29469.69
630.56	29202.86
630.71	29507.13
630.86	29589.05
631.01	29579.69
631.16	29827.79
631.31	29207.55
631.46	29142.01
631.61	29715.44
631.76	29668.63
631.91	29242.65
632.06	29212.23
632.21	29139.67
632.36	29200.52
632.51	29397.13
632.66	29500.11
632.81	29411.17
632.96	29455.64
633.10	29247.33
633.25	29523.52
633.40	29649.91
633.55	29450.96
633.70	28821.36
633.85	28493.68
634.00	28886.89
634.15	28933.70
634.30	29069.45
634.45	29088.18
634.60	28755.82
634.75	28751.14
634.90	28872.85
635.05	29392.45
635.19	29039.03
635.34	29207.55
635.49	29242.65
635.64	29013.28
635.79	28922.00
635.94	28870.51
636.09	28802.63
636.24	29064.77
636.39	28755.82
636.53	29228.61
636.68	28671.56
636.83	28400.06
636.98	28837.74
637.13	28826.04
637.28	28701.99
637.43	28898.59
637.57	29191.16
637.72	28577.94
637.87	28631.77
638.02	28481.98
638.17	28748.80
638.32	28615.39
638.46	28334.53
638.61	28226.86
638.76	28194.09
638.91	28535.81
639.06	28407.08
639.20	28428.15
639.35	28666.88
639.50	28467.94
639.65	28987.53
639.80	28788.59
639.94	28287.71
640.09	28903.28
640.24	28545.17
640.39	28137.92
640.54	27910.89
640.68	28187.07
640.83	28168.35
640.98	28259.63
641.13	28266.65
641.27	28568.58
641.42	28467.94
641.57	28439.85
641.72	28119.20
641.86	28236.22
642.01	27978.76
642.16	28119.20
642.31	27936.63
642.45	28205.80
642.60	27824.29
642.75	27878.12
642.90	27707.26
643.04	27955.36
643.19	27929.61
643.34	28044.30
643.48	28025.57
643.63	28355.59
643.78	28060.68
643.93	28126.22
644.07	27873.44
644.22	28004.51
644.37	28013.87
644.51	28470.28
644.66	27754.07
644.81	27896.85
644.95	27578.53
645.10	27772.80
645.25	27697.90
645.39	27922.59
645.54	27672.15
645.69	27606.62
645.83	28297.08
645.98	27686.20
646.13	27690.88
646.27	27777.48
646.42	27791.52
646.57	27398.31
646.71	27569.17
646.86	27587.89
647.00	27379.59
647.15	27234.47
647.30	27697.90
647.44	27510.66
647.59	27496.61
647.74	27278.94
647.88	27793.86
648.03	27709.60
648.17	27161.92
648.32	27812.59
648.47	27484.91
648.61	27613.64
648.76	27721.30
648.90	27651.09
649.05	27768.12
649.20	27637.05
649.34	27335.12
649.49	27199.37
649.63	27105.74
649.78	27489.59
649.92	27122.13
650.07	27402.99
650.21	26991.06
650.36	27292.99
650.51	26881.05
650.65	27063.61
650.80	27246.18
650.94	27096.38
651.09	27192.34
651.23	27044.89
651.38	27033.19
651.52	26799.13
651.67	27122.13
651.81	27150.21
651.96	26820.20
652.10	26909.14
652.25	26972.33
652.39	27489.59
652.54	27386.61
652.68	26878.71
652.83	27171.28
652.97	27220.43
653.12	26927.86
653.26	27124.47
653.41	27194.68
653.55	26771.05
653.70	26888.07
653.84	27047.23
653.99	26899.78
654.13	26923.18
654.27	26836.58
654.42	26815.52
654.56	26501.89
654.71	26848.29
654.85	26705.51
655.00	26649.34
655.14	26927.86
655.29	26607.21
655.43	26838.92
655.57	26457.42
655.72	26328.69
655.86	26689.13
656.01	26408.26
656.15	26405.92
656.30	26281.88
656.44	26387.20
656.58	26703.17
656.73	26305.28
656.87	26108.68
657.01	26366.13
657.16	26429.33
657.30	26607.21
657.45	26319.32
657.59	26391.88
657.73	26473.80
657.88	26415.29
658.02	26326.35
658.16	26221.02
658.31	26244.43
658.45	26291.24
658.60	25944.84
658.74	25923.77
658.88	26075.91
659.03	26118.04
659.17	25954.20
659.31	26192.94
659.46	26139.10
659.60	26139.10
659.74	26422.31
659.89	25834.83
660.03	26136.76
660.17	25507.16
660.32	25668.66
660.46	25750.57
660.60	25294.17
660.74	25509.50
660.89	25851.22
661.03	25221.61
661.17	25340.98
661.32	25898.03
661.46	25874.62
661.60	25453.33
661.74	25940.16
661.89	25734.19
662.03	25617.16
662.17	25621.84
662.31	25427.58
662.46	25556.31
662.60	25422.90
662.74	25589.08
662.88	25465.03
663.03	25006.28
663.17	25380.77
663.31	24821.38
663.45	25188.85
663.60	25333.96
663.74	25046.07
663.88	25139.69
664.02	24847.13
664.17	25252.04
664.31	25415.88
664.45	24858.83
664.59	24889.26
664.73	24788.61
664.88	25340.98
665.02	24762.87
665.16	24664.57
665.30	24821.38
665.44	24807.34
665.59	24718.40
665.73	24283.06
665.87	24210.50
666.01	24467.96
666.15	24582.65
666.29	24563.92
666.44	24278.38
666.58	24474.98
666.72	24418.81
666.86	24746.48
667.00	24662.22
667.14	24182.42
667.28	24414.13
667.43	24395.40
667.57	24259.65
667.71	24449.24
667.85	24151.99
667.99	24025.60
668.13	24105.18
668.27	24159.01
668.41	24116.88
668.56	23929.64
668.70	24109.86
668.84	24194.12
668.98	23913.25
669.12	23917.93
669.26	24086.45
669.40	24023.26
669.54	23988.15
669.68	23721.33
669.82	23585.58
669.96	23632.39
670.10	23417.06
670.25	23733.03
670.39	23335.14
670.53	23576.22
670.67	23566.85
670.81	23302.37
670.95	23208.75
671.09	23403.02
671.23	23487.28
671.37	23260.24
671.51	23403.02
671.65	23550.47
671.79	23513.02
671.93	23363.23
672.07	23110.45
672.21	23061.30
672.35	22724.26
672.49	23030.87
672.63	22970.02
672.77	22747.67
672.91	22541.70
673.05	22916.19
673.19	22520.63
673.33	22677.45
673.47	22469.14
673.61	22682.13
673.75	22885.76
673.89	22588.51
674.03	22422.33
674.17	22625.96
674.31	22562.76
674.45	22515.95
674.59	22101.68
674.73	22370.84
674.87	22377.86
675.01	22185.94
675.15	22134.45
675.29	22586.17
675.43	22068.91
675.56	21605.49
675.70	21851.24
675.84	21935.50
675.98	21109.29
676.12	21968.27
676.26	22036.14
676.40	21619.53
676.54	22010.40
676.68	21837.20
676.82	20973.54
676.96	21664.00
677.10	21654.64
677.23	21401.86
677.37	21455.69
677.51	21062.48
677.65	21317.60
677.79	21362.07
677.93	21095.25
678.07	20636.50
678.21	20987.58
678.34	20830.77
678.48	21078.86
678.62	20833.11
678.76	20837.79
678.90	20329.89
679.04	20683.31
679.18	20601.40
679.31	20320.53
679.45	20283.08
679.59	19976.47
679.73	20037.33
679.87	19840.72
680.00	19974.13
680.14	20283.08
680.28	19611.35
680.42	20341.60
680.56	20266.70
680.70	19988.18
680.83	19906.26
680.97	19901.58
681.11	19850.08
681.25	19515.39
681.39	19836.04
681.52	19538.79
681.66	19594.96
681.80	19419.42
681.94	19328.14
682.07	19297.72
682.21	19447.51
682.35	19143.24
682.49	19342.19
682.62	18951.32
682.76	18923.23
682.90	19168.99
683.04	18888.12
683.17	18888.12
683.31	19091.75
683.45	19054.30
683.59	18745.35
683.72	18586.19
683.86	19012.17
684.00	18649.39
684.13	18902.17
684.27	18265.54
684.41	18396.61
684.55	18380.23
684.68	17860.63
684.82	18029.15
684.96	18265.54
685.09	18068.94
685.23	17848.93
685.37	18092.34
685.50	17860.63
685.64	17975.31
685.78	18057.23
685.91	18120.43
686.05	17877.01
686.19	17788.07
686.32	17706.15
686.46	17935.53
686.60	17249.75
686.73	17483.80
686.87	17390.18
687.01	17434.65
687.14	17179.53
687.28	16908.03
687.42	17132.72
687.55	16833.13
687.69	16891.65
687.82	16751.21
687.96	16905.69
688.10	16746.53
688.23	17055.48
688.37	16865.90
688.50	16725.47
688.64	16634.19
688.78	16751.21
688.91	16510.14
689.05	16449.28
689.18	16482.05
689.32	16093.52
689.46	16217.57
689.59	16320.56
689.73	16477.37
689.86	16163.74
690.00	16114.59
690.13	15920.32
690.27	15761.17
690.41	16203.53
690.54	16006.92
690.68	15882.88
690.81	15859.47
690.95	15662.86
691.08	15777.55
691.22	15819.68
691.35	15704.99
691.49	15927.35
691.62	15566.90
691.76	15286.04
691.89	15470.94
692.03	15243.91
692.16	14918.57
692.30	14941.98
692.43	14934.96
692.57	14946.66
692.70	14768.78
692.84	14815.59
692.97	14754.74
693.11	14888.15
693.24	14766.44
693.38	15124.54
693.51	14473.87
693.65	14888.15
693.78	14644.73
693.92	14506.64
694.05	14373.23
694.19	14464.51
694.32	14473.87
694.45	14272.59
694.59	14183.65
694.72	14061.94
694.86	14015.13
694.99	14047.90
695.13	14075.98
695.26	13877.04
695.39	13886.40
695.53	14012.79
695.66	14003.43
695.80	14010.45
695.93	13905.12
696.07	13734.26
696.20	13481.49
696.33	13507.23
696.47	13717.88
696.60	13671.07
696.73	13312.97
696.87	13465.10
697.00	13432.33
697.14	12957.21
697.27	12994.65
697.40	12973.59
697.54	13029.76
697.67	12861.24
697.80	12943.16
697.94	12704.43
698.07	12744.22
698.21	12739.54
698.34	12842.52
698.47	12828.48
698.61	12695.07
698.74	12587.40
698.87	12805.07
699.01	12535.91
699.14	12624.85
699.27	12484.42
699.40	12566.34
699.54	12292.49
699.67	12128.66
699.80	12287.81
699.94	12011.63
700.07	12098.23
700.20	12112.27
700.34	11644.17
700.47	11826.73
700.60	12114.61
700.73	12053.76
700.87	11847.79
701.00	11777.58
701.13	11932.05
701.26	11845.45
701.40	11733.11
701.53	11698.00
701.66	11819.71
701.79	11433.52
701.93	11564.59
702.06	11358.62
702.19	11424.15
702.32	11218.19
702.46	11307.13
702.59	11021.58
702.72	10937.32
702.85	11094.14
702.99	11236.91
703.12	10876.47
703.25	11009.88
703.38	10808.59
703.51	10808.59
703.65	10799.23
703.78	10672.84
703.91	10637.73
704.04	10841.36
704.17	10799.23
704.31	10675.18
704.44	10410.70
704.57	10480.92
704.70	10324.10
704.83	10326.44
704.96	10235.16
705.10	10211.76
705.23	10094.73
>>>>>End Processed Spectral Data<<<<<
