SpectraSuite Data File
++++++++++++++++++++++++++++++++++++
Date: Fri Oct 18 13:58:19 GMT-05:00 2013
User: bianchi
Dark Spectrum Present: No
Reference Spectrum Present: No
Number of Sampled Component Spectra: 1
Spectrometers: USB2+H05261
Integration Time (usec): 50000 (USB2+H05261)
Spectra Averaged: 1 (USB2+H05261)
Boxcar Smoothing: 0 (USB2+H05261)
Correct for Electrical Dark: No (USB2+H05261)
Strobe/Lamp Enabled: No (USB2+H05261)
Correct for Detector Non-linearity: No (USB2+H05261)
Correct for Stray Light: No (USB2+H05261)
Number of Pixels in Processed Spectrum: 2048
>>>>>Begin Processed Spectral Data<<<<<
365.73	0.00
365.92	0.00
366.12	0.00
366.32	0.00
366.52	0.00
366.72	0.00
366.91	0.00
367.11	0.00
367.31	0.00
367.51	0.00
367.70	0.00
367.90	0.00
368.10	0.00
368.30	0.00
368.49	0.00
368.69	0.00
368.89	0.00
369.09	0.00
369.28	0.00
369.48	0.00
369.68	0.00
369.87	0.00
370.07	0.00
370.27	0.00
370.47	0.00
370.66	95.96
370.86	84.26
371.06	70.22
371.25	110.01
371.45	112.35
371.65	79.58
371.84	147.45
372.04	124.05
372.24	180.22
372.44	205.97
372.63	220.01
372.83	318.31
373.03	152.13
373.22	147.45
373.42	222.35
373.62	205.97
373.81	238.73
374.01	259.80
374.21	187.24
374.40	189.58
374.60	252.78
374.79	308.95
374.99	257.46
375.19	290.23
375.38	248.10
375.58	184.90
375.78	259.80
375.97	294.91
376.17	285.55
376.37	227.03
376.56	332.36
376.76	290.23
376.95	224.69
377.15	325.33
377.35	313.63
377.54	348.74
377.74	234.05
377.93	236.39
378.13	187.24
378.33	297.25
378.52	311.29
378.72	304.27
378.91	278.52
379.11	259.80
379.31	250.44
379.50	278.52
379.70	290.23
379.89	245.76
380.09	252.78
380.28	334.70
380.48	381.51
380.68	285.55
380.87	341.72
381.07	332.36
381.26	308.95
381.46	311.29
381.65	278.52
381.85	353.42
382.04	243.42
382.24	376.83
382.43	383.85
382.63	327.68
382.83	367.46
383.02	330.02
383.22	468.11
383.41	334.70
383.61	313.63
383.80	334.70
384.00	327.68
384.19	306.61
384.39	339.38
384.58	409.59
384.78	346.40
384.97	346.40
385.17	400.23
385.36	348.74
385.56	393.21
385.75	346.40
385.95	365.12
386.14	374.49
386.34	372.15
386.53	414.27
386.72	311.29
386.92	365.12
387.11	374.49
387.31	416.62
387.50	444.70
387.70	374.49
387.89	468.11
388.09	447.04
388.28	409.59
388.48	449.38
388.67	409.59
388.86	430.66
389.06	512.58
389.25	465.77
389.45	470.45
389.64	416.62
389.84	428.32
390.03	430.66
390.22	514.92
390.42	435.34
390.61	444.70
390.81	388.53
391.00	503.22
391.19	472.79
391.39	550.03
391.58	498.53
391.78	561.73
391.97	484.49
392.16	519.60
392.36	547.69
392.55	500.87
392.75	458.74
392.94	592.16
393.13	531.30
393.33	512.58
393.52	535.98
393.71	578.11
393.91	596.84
394.10	561.73
394.29	580.45
394.49	547.69
394.68	575.77
394.88	643.65
395.07	657.69
395.26	589.82
395.46	582.79
395.65	638.97
395.84	641.31
396.04	706.84
396.23	683.44
396.42	638.97
396.62	543.00
396.81	629.60
397.00	622.58
397.19	678.76
397.39	763.01
397.58	669.39
397.77	711.52
397.97	748.97
398.16	692.80
398.35	720.88
398.55	660.03
398.74	692.80
398.93	763.01
399.12	692.80
399.32	713.86
399.51	671.73
399.70	713.86
399.90	744.29
400.09	748.97
400.28	737.27
400.47	758.33
400.67	826.21
400.86	674.07
401.05	760.67
401.24	833.23
401.44	786.42
401.63	800.46
401.82	793.44
402.01	781.74
402.21	772.38
402.40	826.21
402.59	889.40
402.78	938.55
402.97	929.19
403.17	760.67
403.36	837.91
403.55	863.66
403.74	917.49
403.93	882.38
404.13	898.77
404.32	903.45
404.51	898.77
404.70	1011.11
404.89	912.81
405.09	924.51
405.28	961.96
405.47	954.94
405.66	938.55
405.85	1022.81
406.05	964.30
406.24	910.47
406.43	945.58
406.62	1130.48
406.81	1076.65
407.00	1039.20
407.20	1043.88
407.39	983.02
407.58	1001.75
407.77	1036.86
407.96	1034.52
408.15	1001.75
408.34	1036.86
408.54	1121.12
408.73	1076.65
408.92	1076.65
409.11	1118.78
409.30	1137.50
409.49	1055.58
409.68	1095.37
409.87	1153.88
410.07	1144.52
410.26	1256.87
410.45	1167.93
410.64	1282.61
410.83	1219.42
411.02	1198.35
411.21	1320.06
411.40	1254.53
411.59	1188.99
411.78	1263.89
411.98	1245.16
412.17	1219.42
412.36	1338.79
412.55	1324.74
412.74	1348.15
412.93	1289.64
413.12	1226.44
413.31	1341.13
413.50	1406.66
413.69	1331.76
413.88	1502.62
414.07	1357.51
414.26	1504.96
414.45	1483.90
414.64	1519.01
414.83	1493.26
415.02	1399.64
415.22	1409.00
415.41	1579.86
415.60	1521.35
415.79	1619.65
415.98	1526.03
416.17	1636.03
416.36	1549.43
416.55	1596.25
416.74	1654.76
416.93	1631.35
417.12	1689.87
417.31	1664.12
417.50	1715.61
417.69	1771.79
417.88	1671.14
418.07	1732.00
418.26	1680.50
418.45	1919.24
418.64	1760.08
418.83	1825.62
419.02	1860.73
419.21	1858.39
419.39	1909.88
419.58	1736.68
419.77	1781.15
419.96	1844.34
420.15	1930.94
420.34	1928.60
420.53	1863.07
420.72	1930.94
420.91	1834.98
421.10	1930.94
421.29	2066.69
421.48	1930.94
421.67	1891.15
421.86	1980.09
422.05	1970.73
422.24	1952.01
422.43	1982.43
422.61	1949.67
422.80	2045.63
422.99	2005.84
423.18	2015.20
423.37	2080.74
423.56	2017.54
423.75	2076.06
423.94	1968.39
424.13	1937.96
424.32	1959.03
424.50	2036.27
424.69	2043.29
424.88	2057.33
425.07	2106.48
425.26	1989.46
425.45	2026.90
425.64	1937.96
425.83	1989.46
426.01	2073.71
426.20	2141.59
426.39	2045.63
426.58	1989.46
426.77	2069.03
426.96	2040.95
427.15	2064.35
427.33	2071.37
427.52	2104.14
427.71	2073.71
427.90	2232.87
428.09	2108.82
428.28	2132.23
428.46	2162.66
428.65	2207.13
428.84	2190.74
429.03	2286.70
429.22	2113.50
429.40	2317.13
429.59	2253.94
429.78	2204.78
429.97	2230.53
430.16	2263.30
430.34	2284.36
430.53	2495.01
430.72	2380.32
430.91	2228.19
431.10	2246.91
431.28	2300.75
431.47	2511.39
431.66	2516.08
431.85	2331.17
432.03	2429.48
432.22	2487.99
432.41	2485.65
432.60	2509.05
432.79	2392.03
432.97	2539.48
433.16	2539.48
433.35	2473.95
433.54	2445.86
433.72	2377.98
433.91	2504.37
434.10	2590.97
434.28	2520.76
434.47	2532.46
434.66	2640.12
434.85	2520.76
435.03	2621.40
435.22	2586.29
435.41	2640.12
435.59	2532.46
435.78	2654.17
435.97	2588.63
436.16	2574.59
436.34	2705.66
436.53	2609.70
436.72	2668.21
436.90	2686.94
437.09	2724.38
437.28	2658.85
437.46	2759.49
437.65	2686.94
437.84	2843.75
438.02	2778.22
438.21	2778.22
438.40	2792.26
438.58	2923.33
438.77	2850.77
438.96	2888.22
439.14	2991.20
439.33	2998.23
439.52	3059.08
439.70	2942.05
439.89	3101.21
440.08	2991.20
440.26	3014.61
440.45	3119.93
440.63	3016.95
440.82	3225.26
441.01	3124.62
441.19	3234.62
441.38	3077.80
441.57	3267.39
441.75	3183.13
441.94	3311.86
442.12	3159.72
442.31	3372.71
442.50	3295.47
442.68	3243.98
442.87	3304.84
443.05	3426.54
443.24	3410.16
443.43	3531.87
443.61	3337.60
443.80	3522.51
443.98	3407.82
444.17	3201.85
444.35	3372.71
444.54	3520.17
444.73	3447.61
444.91	3597.40
445.10	3471.01
445.28	3459.31
445.47	3548.25
445.65	3400.80
445.84	3456.97
446.02	3529.53
446.21	3529.53
446.39	3672.30
446.58	3574.00
446.77	3578.68
446.95	3375.05
447.14	3522.51
447.32	3510.80
447.51	3534.21
447.69	3501.44
447.88	3522.51
448.06	3463.99
448.25	3384.41
448.43	3574.00
448.62	3515.48
448.80	3428.88
448.99	3627.83
449.17	3662.94
449.36	3592.72
449.54	3641.87
449.73	3679.32
449.91	3655.92
450.10	3819.75
450.28	3819.75
450.46	3791.67
450.65	3735.50
450.83	3658.26
451.02	3756.56
451.20	3894.65
451.39	3941.46
451.57	3836.14
451.76	3934.44
451.94	3850.18
452.13	4028.06
452.31	3878.27
452.49	3894.65
452.68	3934.44
452.86	3934.44
453.05	3880.61
453.23	3927.42
453.42	3932.10
453.60	3791.67
453.78	3906.35
453.97	3880.61
454.15	3936.78
454.34	4014.02
454.52	4060.83
454.70	4109.98
454.89	4030.40
455.07	4147.43
455.26	3885.29
455.44	4121.68
455.62	4093.60
455.81	4100.62
455.99	4173.18
456.17	4175.52
456.36	4294.88
456.54	4250.41
456.73	4280.84
456.91	4505.53
457.09	4327.65
457.28	4351.06
457.46	4423.61
457.64	4194.24
457.83	4329.99
458.01	4372.12
458.19	4535.96
458.38	4493.83
458.56	4582.77
458.74	4496.17
458.93	4606.17
459.11	4503.19
459.29	4458.72
459.48	4512.55
459.66	4538.30
459.84	4411.91
460.03	4423.61
460.21	4521.92
460.39	4648.30
460.57	4681.07
460.76	4643.62
460.94	4730.22
461.12	4751.29
461.31	4585.11
461.49	4688.09
461.67	4643.62
461.85	4674.05
462.04	4755.97
462.22	4917.47
462.40	4870.65
462.59	4720.86
462.77	4770.01
462.95	4910.44
463.13	4777.03
463.32	4779.37
463.50	4929.17
463.68	4842.57
463.86	4877.68
464.05	4961.94
464.23	4734.90
464.41	4887.04
464.59	4994.70
464.78	4947.89
464.96	4908.10
465.14	4903.42
465.32	5048.54
465.50	5083.64
465.69	5163.22
465.87	4947.89
466.05	4971.30
466.23	4884.70
466.41	5172.58
466.60	5170.24
466.78	5015.77
466.96	5107.05
467.14	4952.57
467.32	5200.67
467.51	5242.80
467.69	5062.58
467.87	5151.52
468.05	5214.71
468.23	5039.17
468.41	5210.03
468.60	5334.08
468.78	5291.95
468.96	5200.67
469.14	5341.10
469.32	5352.81
469.50	5345.78
469.69	5493.24
469.87	5411.32
470.05	5479.19
470.23	5579.84
470.41	5495.58
470.59	5603.24
470.77	5364.51
470.95	5486.22
471.14	5551.75
471.32	5444.09
471.50	5626.65
471.68	5521.32
471.86	5593.88
472.04	5731.97
472.22	5935.60
472.40	5624.31
472.58	5750.70
472.77	5762.40
472.95	5785.80
473.13	6141.57
473.31	5846.66
473.49	6066.67
473.67	5872.40
473.85	5905.17
474.03	5968.37
474.21	6012.84
474.39	6108.80
474.57	6143.91
474.75	6209.44
474.93	6282.00
475.12	6190.72
475.30	6127.52
475.48	6157.95
475.66	6368.60
475.84	6406.05
476.02	6307.74
476.20	6502.01
476.38	6616.69
476.56	6567.54
476.74	6427.11
476.92	6619.04
477.10	6635.42
477.28	6700.95
477.46	6506.69
477.64	6661.16
477.82	6860.11
478.00	6960.75
478.18	7009.90
478.36	6967.77
478.54	7094.16
478.72	7199.49
478.90	7171.40
479.08	7061.40
479.26	7358.64
479.44	7384.39
479.62	7405.46
479.80	7349.28
479.98	7445.24
480.16	7356.30
480.34	7573.97
480.52	7445.24
480.70	7648.87
480.88	7573.97
481.06	7730.79
481.24	7817.39
481.41	7857.18
481.59	7974.21
481.77	8374.44
481.95	8140.38
482.13	8035.06
482.31	8079.53
482.49	8290.18
482.67	8332.31
482.85	8402.52
483.03	8685.73
483.21	8519.55
483.39	8720.84
483.57	8517.21
483.74	8741.90
483.92	8613.17
484.10	8655.30
484.28	8919.78
484.46	9036.81
484.64	9144.47
484.82	9179.58
485.00	9224.05
485.18	9486.19
485.35	9614.92
485.53	9626.62
485.71	9518.96
485.89	9832.59
486.07	9460.45
486.25	9659.39
486.43	9614.92
486.61	9809.19
486.78	10125.16
486.96	9755.35
487.14	10045.58
487.32	10153.24
487.50	10267.93
487.68	10251.55
487.85	10422.41
488.03	10251.55
488.21	10937.32
488.39	10595.61
488.57	10602.63
488.75	10860.09
488.92	10733.70
489.10	11012.22
489.28	11033.29
489.46	11257.98
489.64	11021.58
489.81	11538.84
489.99	11440.54
490.17	11302.45
490.35	11485.01
490.53	11672.25
490.70	11550.54
490.88	11693.32
491.06	11826.73
491.24	11723.74
491.41	11960.14
491.59	12107.59
491.77	11915.67
491.95	12215.26
492.13	12142.70
492.30	12315.90
492.48	12149.72
492.66	12379.09
492.84	12369.73
493.01	12678.68
493.19	12730.17
493.37	12571.02
493.54	12816.77
493.72	13095.30
493.90	12908.05
494.08	13261.48
494.25	13242.75
494.43	12758.26
494.61	13331.69
494.79	13589.15
494.96	13324.67
495.14	13497.87
495.32	13724.90
495.49	13891.08
495.67	13596.17
495.85	13870.01
496.02	14043.21
496.20	14052.58
496.38	14050.24
496.55	13975.34
496.73	14272.59
496.91	14136.84
497.09	14277.27
497.26	14260.88
497.44	14359.19
497.62	14354.51
497.79	14520.68
497.97	14640.05
498.14	14850.70
498.32	14890.49
498.50	14958.36
498.67	15044.96
498.85	14946.66
499.03	15136.24
499.20	14988.79
499.38	15066.03
499.56	15501.37
499.73	15379.66
499.91	15377.32
500.08	15325.83
500.26	15267.31
500.44	15571.58
500.61	15571.58
500.79	15428.81
500.97	15967.13
501.14	15857.13
501.32	15791.59
501.49	15892.24
501.67	15974.16
501.84	15845.43
502.02	15925.00
502.20	16231.62
502.37	16308.85
502.55	16088.84
502.72	16184.80
502.90	16313.53
503.07	16142.67
503.25	16255.02
503.43	16294.81
503.60	16468.01
503.78	16695.04
503.95	16669.30
504.13	16582.70
504.30	16783.98
504.48	16936.12
504.65	16903.35
504.83	16727.81
505.01	17287.20
505.18	17029.74
505.36	17170.17
505.53	17088.25
505.71	17076.55
505.88	17649.98
506.06	17345.71
506.23	17642.96
506.41	17170.17
506.58	16989.95
506.76	17619.55
506.93	17923.82
507.11	17628.92
507.28	17551.68
507.46	17336.35
507.63	17703.81
507.81	17649.98
507.98	17970.63
508.16	17767.01
508.33	17954.25
508.50	17877.01
508.68	17776.37
508.85	18377.89
509.03	18352.14
509.20	18279.58
509.38	18391.93
509.55	18651.73
509.73	18363.84
509.90	18279.58
510.08	18394.27
510.25	18361.50
510.42	18799.18
510.60	18796.84
510.77	18604.92
510.95	19096.43
511.12	18939.62
511.30	18590.88
511.47	18827.27
511.64	18932.59
511.82	19201.76
511.99	19126.86
512.17	19122.18
512.34	19108.13
512.51	19286.01
512.69	19400.70
512.86	19061.32
513.04	19690.93
513.21	19609.01
513.38	19557.52
513.56	19723.69
513.73	19529.43
513.90	19576.24
514.08	19524.75
514.25	19623.05
514.43	20255.00
514.60	19810.29
514.77	19728.38
514.95	20245.63
515.12	19885.19
515.29	19693.27
515.47	20119.24
515.64	20013.92
515.81	20023.28
515.99	20292.44
516.16	20472.67
516.33	20755.87
516.51	20465.64
516.68	20556.93
516.85	20290.10
517.03	20840.13
517.20	20622.46
517.37	20837.79
517.54	20699.70
517.72	20573.31
517.89	20807.36
518.06	20589.69
518.24	20748.85
518.41	20498.41
518.58	20774.60
518.75	20762.89
518.93	21142.06
519.10	21057.80
519.27	21289.51
519.45	20830.77
519.62	21345.69
519.79	20975.88
519.96	21219.30
520.14	21745.92
520.31	21579.74
520.48	21558.67
520.65	21429.94
520.83	21394.84
521.00	21612.51
521.17	21465.05
521.34	21497.82
521.52	21774.00
521.69	21827.84
521.86	21572.72
522.03	21869.97
522.20	21900.39
522.38	21923.80
522.55	22024.44
522.72	21841.88
522.89	21879.33
523.07	22405.95
523.24	22368.50
523.41	22150.83
523.58	22239.77
523.75	22396.59
523.92	22405.95
524.10	22104.02
524.27	22207.00
524.44	22565.10
524.61	22757.03
524.78	22738.30
524.96	22113.38
525.13	22637.66
525.30	23061.30
525.47	22630.64
525.64	22410.63
525.81	22618.94
525.98	22867.03
526.16	22696.17
526.33	22759.37
526.50	23578.56
526.67	22902.14
526.84	22955.97
527.01	22672.77
527.18	22909.16
527.36	23119.81
527.53	23304.71
527.70	23634.73
527.87	23616.01
528.04	23112.79
528.21	23384.29
528.38	23115.13
528.55	23358.55
528.72	23356.21
528.89	23674.52
529.07	23438.12
529.24	23281.31
529.41	23517.70
529.58	23613.66
529.75	23613.66
529.92	23782.18
530.09	23857.08
530.26	23660.48
530.43	23789.20
530.60	23683.88
530.77	23931.98
530.94	24123.90
531.11	23974.11
531.28	23871.12
531.46	23709.63
531.63	23964.75
531.80	24273.70
531.97	24603.71
532.14	24222.20
532.31	24159.01
532.48	24163.69
532.65	24514.77
532.82	23824.31
532.99	24386.04
533.16	24240.93
533.33	24343.91
533.50	24687.97
533.67	24730.10
533.84	24620.10
534.01	24407.11
534.18	24402.43
534.35	24634.14
534.52	24615.41
534.69	24730.10
534.86	24842.45
535.03	24629.46
535.20	25317.57
535.37	25060.12
535.54	24767.55
535.71	24748.82
535.88	24739.46
536.05	24584.99
536.22	25048.41
536.38	25090.54
536.55	25186.50
536.72	25151.40
536.89	25050.75
537.06	25233.32
537.23	25450.99
537.40	25064.80
537.57	25156.08
537.74	25752.91
537.91	25273.10
538.08	25640.57
538.25	25481.41
538.42	25619.50
538.59	25689.72
538.75	25378.43
538.92	25397.15
539.09	25649.93
539.26	26080.59
539.43	25476.73
539.60	25642.91
539.77	25399.49
539.94	25734.19
540.11	25565.67
540.28	25666.31
540.44	25649.93
540.61	25432.26
540.78	25858.24
540.95	25832.49
541.12	25996.33
541.29	25921.43
541.46	25715.47
541.62	25591.42
541.79	25902.71
541.96	25692.06
542.13	25666.31
542.30	25848.88
542.47	26387.20
542.63	26059.52
542.80	26504.23
542.97	26637.64
543.14	26094.63
543.31	26192.94
543.48	26094.63
543.64	26644.66
543.81	26679.77
543.98	26836.58
544.15	26401.24
544.32	26909.14
544.48	26714.87
544.65	26628.27
544.82	26331.03
544.99	26391.88
545.16	26792.11
545.32	26810.84
545.49	27255.54
545.66	26941.91
545.83	26766.37
546.00	27082.34
546.16	26962.97
546.33	26738.28
546.50	26536.99
546.67	27159.58
546.83	26867.01
547.00	27061.27
547.17	27337.46
547.34	26906.80
547.50	27377.25
547.67	27353.84
547.84	27049.57
548.00	27515.34
548.17	27346.82
548.34	27513.00
548.51	27604.28
548.67	27365.54
548.84	27693.22
549.01	27555.13
549.18	27215.75
549.34	27548.11
549.51	27449.80
549.68	27510.66
549.84	27683.86
550.01	27564.49
550.18	27454.48
550.34	27496.61
550.51	27955.36
550.68	27793.86
550.84	27566.83
551.01	27503.64
551.18	27367.88
551.34	27049.57
551.51	27878.12
551.68	27754.07
551.84	27807.90
552.01	27693.22
552.18	27796.20
552.34	27941.32
552.51	27784.50
552.68	27983.44
552.84	27866.42
553.01	28011.53
553.18	27828.97
553.34	28065.36
553.51	28173.03
553.67	28329.84
553.84	28355.59
554.01	28163.67
554.17	28283.03
554.34	28519.43
554.51	28079.41
554.67	28322.82
554.84	28151.96
555.00	28315.80
555.17	28018.55
555.33	28559.22
555.50	28643.48
555.67	28257.29
555.83	28032.60
556.00	28390.70
556.16	28613.05
556.33	28418.78
556.50	28584.96
556.66	28470.28
556.83	28629.43
556.99	28758.16
557.16	28613.05
557.32	28868.17
557.49	28641.14
557.65	28341.55
557.82	28786.25
557.98	28655.18
558.15	28900.94
558.32	28896.25
558.48	28748.80
558.65	29106.90
558.81	29043.71
558.98	28648.16
559.14	28444.53
559.31	28870.51
559.47	28655.18
559.64	28503.04
559.80	29167.76
559.97	28872.85
560.13	28685.61
560.30	29214.57
560.46	29205.20
560.63	29333.93
560.79	29172.44
560.96	29090.52
561.12	29036.69
561.29	28898.59
561.45	29102.22
561.61	28943.06
561.78	29132.65
561.94	29230.95
562.11	29244.99
562.27	28931.36
562.44	28996.90
562.60	29008.60
562.77	29057.75
562.93	29163.08
563.10	29371.38
563.26	29441.60
563.42	29371.38
563.59	29434.58
563.75	29380.74
563.92	29172.44
564.08	29008.60
564.24	29221.59
564.41	28776.89
564.57	29460.32
564.74	29123.29
564.90	29504.79
565.07	29411.17
565.23	29797.36
565.39	29371.38
565.56	29677.99
565.72	29282.44
565.88	29212.23
566.05	28940.72
566.21	29378.40
566.38	29235.63
566.54	29457.98
566.70	29656.93
566.87	29357.34
567.03	29329.25
567.19	29528.20
567.36	29570.33
567.52	29570.33
567.68	29612.46
567.85	29301.17
568.01	29593.73
568.17	29469.69
568.34	29912.05
568.50	29455.64
568.66	29329.25
568.83	29729.48
568.99	29446.28
569.15	29137.33
569.32	29425.22
569.48	29151.37
569.64	29736.51
569.81	29397.13
569.97	29455.64
570.13	30022.05
570.30	29249.67
570.46	29762.25
570.62	29804.38
570.78	29399.47
570.95	29200.52
571.11	29701.40
571.27	29577.35
571.43	29174.78
571.60	29762.25
571.76	29867.58
571.92	29921.41
572.09	29715.44
572.25	30101.63
572.41	29778.64
572.57	29692.04
572.74	29923.75
572.90	29507.13
573.06	29738.85
573.22	29406.49
573.38	30052.48
573.55	29825.45
573.71	30073.54
573.87	29890.98
574.03	29982.26
574.20	29853.53
574.36	29603.10
574.52	29687.36
574.68	29825.45
574.84	29839.49
575.01	29795.02
575.17	29874.60
575.33	29902.68
575.49	29851.19
575.65	29991.62
575.82	29961.20
575.98	30059.50
576.14	30183.55
576.30	29898.00
576.46	29481.39
576.62	30022.05
576.79	30012.69
576.95	29687.36
577.11	30185.89
577.27	29954.18
577.43	29727.14
577.59	29900.34
577.75	29986.94
577.92	29659.27
578.08	29446.28
578.24	29930.77
578.40	30143.76
578.56	29993.97
578.72	30094.61
578.88	30284.19
579.04	30221.00
579.21	29935.45
579.37	30338.02
579.53	29701.40
579.69	29631.18
579.85	29535.22
580.01	30029.07
580.17	30045.46
580.33	30078.22
580.49	30150.78
580.65	30251.42
580.82	30150.78
580.98	30403.56
581.14	29970.56
581.30	29830.13
581.46	29511.81
581.62	30019.71
581.78	29855.87
581.94	29890.98
582.10	29783.32
582.26	30256.11
582.42	30157.80
582.58	30216.32
582.74	30164.82
582.90	30258.45
583.06	30319.30
583.22	30272.49
583.38	30113.33
583.54	29635.86
583.70	30031.41
583.86	30291.21
584.02	30026.73
584.18	30707.83
584.34	30302.92
584.50	30354.41
584.66	30003.33
584.82	29837.15
584.98	29986.94
585.14	29968.22
585.30	30036.09
585.46	30401.22
585.62	29893.32
585.78	30024.39
585.94	30005.67
586.10	30270.15
586.26	30462.07
586.42	30293.55
586.58	30323.98
586.74	29940.13
586.90	29816.08
587.06	29926.09
587.22	30508.88
587.38	29820.77
587.54	30431.65
587.70	30567.40
587.86	30382.49
588.02	30323.98
588.18	30661.02
588.34	30127.38
588.49	30686.76
588.65	30218.66
588.81	30335.68
588.97	30178.87
589.13	30284.19
589.29	30235.04
589.45	30452.71
589.61	30691.44
589.77	30623.57
589.93	30803.79
590.08	30677.40
590.24	30719.53
590.40	30745.28
590.56	30775.70
590.72	30169.51
590.88	30078.22
591.04	30359.09
591.20	30555.69
591.35	30646.97
591.51	30462.07
591.67	30909.11
591.83	30520.59
591.99	30316.96
592.15	30300.58
592.31	30621.23
592.46	30228.02
592.62	30668.04
592.78	30291.21
592.94	30326.32
593.10	30394.20
593.26	30848.26
593.41	30349.73
593.57	30558.03
593.73	30326.32
593.89	30506.54
594.05	30625.91
594.20	30677.40
594.36	30286.53
594.52	30382.49
594.68	30572.08
594.84	30478.46
594.99	30691.44
595.15	30476.12
595.31	31030.82
595.47	30827.20
595.62	30951.24
595.78	30639.95
595.94	30707.83
596.10	30569.74
596.25	30778.04
596.41	30455.05
596.57	30478.46
596.73	30562.72
596.88	30405.90
597.04	30742.94
597.20	30998.06
597.36	30733.57
597.51	30675.06
597.67	30871.67
597.83	30487.82
597.99	30991.03
598.14	30670.38
598.30	30450.37
598.46	30583.78
598.61	30728.89
598.77	30462.07
598.93	30635.27
599.09	30733.57
599.24	30932.52
599.40	31028.48
599.56	30579.10
599.71	30747.62
599.87	30944.22
600.03	30696.13
600.18	30859.96
600.34	30700.81
600.50	30661.02
600.65	30698.47
600.81	30541.65
600.97	30820.17
601.12	30852.94
601.28	31110.40
601.44	31105.72
601.59	31117.42
601.75	30448.03
601.91	30733.57
602.06	30338.02
602.22	30366.11
602.37	30572.08
602.53	30679.74
602.69	30724.21
602.84	30841.24
603.00	30665.70
603.16	31108.06
603.31	30794.43
603.47	31353.82
603.62	30689.10
603.78	30899.75
603.94	30541.65
604.09	30742.94
604.25	30541.65
604.40	30735.92
604.56	30890.39
604.71	31035.50
604.87	30747.62
605.03	30738.26
605.18	31049.55
605.34	30621.23
605.49	30295.89
605.65	30698.47
605.80	30841.24
605.96	30572.08
606.12	30747.62
606.27	30637.61
606.43	30529.95
606.58	30906.77
606.74	30995.71
606.89	30759.32
607.05	30728.89
607.20	30618.89
607.36	30572.08
607.51	30738.26
607.67	30410.58
607.82	30338.02
607.98	30370.79
608.13	30703.15
608.29	30445.69
608.44	30429.30
608.60	30501.86
608.75	30911.46
608.91	30934.86
609.06	30459.73
609.22	30654.00
609.37	30621.23
609.53	30522.93
609.68	30433.99
609.84	30441.01
609.99	30366.11
610.15	30394.20
610.30	30417.60
610.46	30345.05
610.61	30668.04
610.76	30501.86
610.92	30518.25
611.07	30244.40
611.23	30621.23
611.38	30572.08
611.54	30164.82
611.69	30024.39
611.84	30307.60
612.00	30085.25
612.15	30328.66
612.31	30675.06
612.46	30169.51
612.62	30235.04
612.77	30630.59
612.92	30286.53
613.08	29603.10
613.23	30518.25
613.39	29954.18
613.54	30312.28
613.69	30103.97
613.85	30316.96
614.00	30160.14
614.15	30258.45
614.31	30167.16
614.46	30082.91
614.62	30122.69
614.77	30061.84
614.92	30394.20
615.08	30410.58
615.23	30045.46
615.38	30354.41
615.54	30103.97
615.69	29738.85
615.84	29675.65
616.00	30333.34
616.15	29933.11
616.30	30073.54
616.46	30087.59
616.61	30033.75
616.76	30225.68
616.92	29670.97
617.07	30127.38
617.22	29912.05
617.37	29666.29
617.53	30141.42
617.68	29914.39
617.83	29689.70
617.99	29851.19
618.14	29869.92
618.29	30052.48
618.45	30026.73
618.60	29593.73
618.75	29420.53
618.90	29446.28
619.06	29825.45
619.21	29579.69
619.36	29502.45
619.51	29474.37
619.67	29422.87
619.82	29039.03
619.97	29563.31
620.12	29331.59
620.28	29275.42
620.43	29752.89
620.58	29912.05
620.73	29352.66
620.89	29717.78
621.04	29572.67
621.19	29624.16
621.34	29680.33
621.49	29563.31
621.65	29465.00
621.80	29493.09
621.95	29453.30
622.10	29593.73
622.25	29387.77
622.41	28917.32
622.56	29628.84
622.71	29448.62
622.86	29605.44
623.01	29472.03
623.16	29352.66
623.32	29233.29
623.47	29036.69
623.62	29146.69
623.77	29057.75
623.92	28980.51
624.07	29303.51
624.23	29776.30
624.38	29188.82
624.53	29355.00
624.68	29186.48
624.83	29170.10
624.98	29287.12
625.13	29120.95
625.29	29446.28
625.44	29156.05
625.59	28809.65
625.74	28510.07
625.89	28971.15
626.04	28748.80
626.19	28542.83
626.34	28535.81
626.49	28907.96
626.65	28765.18
626.80	29039.03
626.95	28961.79
627.10	28910.30
627.25	29261.38
627.40	28709.01
627.55	28449.21
627.70	28648.16
627.85	28753.48
628.00	28505.38
628.15	28428.15
628.30	28758.16
628.45	28823.70
628.60	28271.33
628.76	28758.16
628.91	28730.08
629.06	28650.50
629.21	28320.48
629.36	28371.97
629.51	28545.17
629.66	28446.87
629.81	28393.04
629.96	28381.34
630.11	28400.06
630.26	28732.42
630.41	28402.40
630.56	28126.22
630.71	28453.89
630.86	28409.42
631.01	28175.37
631.16	28418.78
631.31	28531.13
631.46	28093.45
631.61	28388.36
631.76	28357.93
631.91	28002.17
632.06	28135.58
632.21	27927.27
632.36	28231.54
632.51	28009.19
632.66	28189.41
632.81	27744.71
632.96	27948.34
633.10	28458.57
633.25	27906.21
633.40	28079.41
633.55	27779.82
633.70	27754.07
633.85	27796.20
634.00	28081.75
634.15	27838.33
634.30	27892.16
634.45	28144.94
634.60	27775.14
634.75	28044.30
634.90	27847.69
635.05	27868.76
635.19	28109.83
635.34	27922.59
635.49	28369.63
635.64	27896.85
635.79	27772.80
635.94	27978.76
636.09	28142.60
636.24	27456.82
636.39	27915.57
636.53	27515.34
636.68	27704.92
636.83	27620.66
636.98	27770.46
637.13	27395.97
637.28	27601.94
637.43	27826.63
637.57	27503.64
637.72	27311.71
637.87	27524.70
638.02	27456.82
638.17	27854.72
638.32	27447.46
638.46	27206.39
638.61	27339.80
638.76	27351.50
638.91	27239.15
639.06	27571.51
639.20	27599.60
639.35	27466.19
639.50	27304.69
639.65	27974.08
639.80	27550.45
639.94	27356.18
640.09	27367.88
640.24	27260.22
640.39	27335.12
640.54	27075.32
640.68	27225.11
640.83	27192.34
640.98	27470.87
641.13	27000.42
641.27	27077.66
641.42	26984.04
641.57	27428.74
641.72	27269.58
641.86	26700.83
642.01	26897.44
642.16	27061.27
642.31	27227.45
642.45	26962.97
642.60	26850.63
642.75	26726.58
642.90	26829.56
643.04	26546.36
643.19	26951.27
643.34	26998.08
643.48	26749.98
643.63	27136.17
643.78	26630.62
643.93	26848.29
644.07	26906.80
644.22	26890.41
644.37	26827.22
644.51	26981.70
644.66	26749.98
644.81	26803.82
644.95	26588.49
645.10	26429.33
645.25	26955.95
645.39	26684.45
645.54	26874.03
645.69	26588.49
645.83	26726.58
645.98	26658.70
646.13	26754.66
646.27	27019.14
646.42	26525.29
646.57	26228.04
646.71	26490.18
646.86	26768.71
647.00	26464.44
647.15	26658.70
647.30	26600.19
647.44	26188.25
647.59	26611.89
647.74	26478.48
647.88	26373.16
648.03	26536.99
648.17	26342.73
648.32	26288.90
648.47	26663.38
648.61	26771.05
648.76	26724.24
648.90	26293.58
649.05	26494.86
649.20	26602.53
649.34	26335.71
649.49	26277.19
649.63	26108.68
649.78	26099.31
649.92	25603.12
650.07	26143.78
650.21	26356.77
650.36	26160.17
650.51	26281.88
650.65	26120.38
650.80	26197.62
650.94	26089.95
651.09	26419.97
651.23	25893.35
651.38	26029.10
651.52	26078.25
651.67	25820.79
651.81	26169.53
651.96	25823.13
652.10	26146.12
652.25	25900.37
652.39	25979.95
652.54	25944.84
652.68	25879.30
652.83	25949.52
652.97	26169.53
653.12	25998.67
653.26	25535.24
653.41	25982.29
653.55	25708.44
653.70	25827.81
653.84	25701.42
653.99	25439.28
654.13	25546.95
654.27	25303.53
654.42	25443.96
654.56	25879.30
654.71	25633.55
654.85	25418.22
655.00	26246.77
655.14	25715.47
655.29	25680.36
655.43	25366.73
655.57	25598.44
655.72	25287.15
655.86	25563.33
656.01	25467.37
656.15	25350.34
656.30	25432.26
656.44	25338.64
656.58	25209.91
656.73	25397.15
656.87	25720.15
657.01	25523.54
657.16	25469.71
657.30	25535.24
657.45	25488.43
657.59	25539.93
657.73	25462.69
657.88	25219.27
658.02	25097.56
658.16	24968.84
658.31	25158.42
658.45	25118.63
658.60	24924.36
658.74	25090.54
658.88	25357.36
659.03	24945.43
659.17	25123.31
659.31	25179.48
659.46	25032.03
659.60	24905.64
659.74	24617.75
659.89	24549.88
660.03	24875.21
660.17	24947.77
660.32	24748.82
660.46	24629.46
660.60	24514.77
660.74	24915.00
660.89	24702.01
661.03	24533.50
661.17	24692.65
661.32	24491.37
661.46	24769.89
661.60	24606.05
661.74	24744.14
661.89	24783.93
662.03	24411.79
662.17	24409.45
662.31	24112.20
662.46	24617.75
662.60	24465.62
662.74	24217.52
662.88	24140.29
663.03	24252.63
663.17	24446.90
663.31	23803.25
663.45	24011.56
663.60	24121.56
663.74	23817.29
663.88	23927.30
664.02	24032.62
664.17	24163.69
664.31	23868.78
664.45	23667.50
664.59	24093.47
664.73	23999.85
664.88	23789.20
665.02	23604.30
665.16	23580.90
665.30	23480.25
665.44	23740.05
665.59	23777.50
665.73	23695.58
665.87	23323.44
666.01	23648.77
666.15	23484.94
666.29	23522.38
666.44	23419.40
666.58	23501.32
666.72	23620.69
666.86	23770.48
667.00	23569.19
667.14	23531.75
667.28	23117.47
667.43	23215.77
667.57	23082.36
667.71	23138.54
667.85	23154.92
667.99	22860.01
668.13	22974.70
668.27	22775.75
668.41	23215.77
668.56	22693.83
668.70	22876.40
668.84	22979.38
668.98	22871.72
669.12	22988.74
669.26	23000.44
669.40	23058.96
669.54	22902.14
669.68	22998.10
669.82	22611.92
669.96	22703.20
670.10	22590.85
670.25	22604.89
670.39	22356.80
670.53	22377.86
670.67	22361.48
670.81	22726.60
670.95	22141.47
671.09	22616.60
671.23	22434.03
671.37	22469.14
671.51	22380.20
671.65	22272.54
671.79	22408.29
671.93	21654.64
672.07	22361.48
672.21	21860.60
672.35	22040.82
672.49	21607.83
672.63	22134.45
672.77	21666.34
672.91	21867.63
673.05	21947.20
673.19	21841.88
673.33	21827.84
673.47	21703.79
673.61	21703.79
673.75	21610.17
673.89	21671.02
674.03	21867.63
674.17	21453.35
674.31	21551.65
674.45	21458.03
674.59	21432.29
674.73	21415.90
674.87	21235.68
675.01	21289.51
675.15	21259.09
675.29	20919.71
675.43	20999.29
675.56	20732.47
675.70	21252.06
675.84	21284.83
675.98	20372.02
676.12	21128.02
676.26	21383.13
676.40	21067.16
676.54	20762.89
676.68	20535.86
676.82	20498.41
676.96	20732.47
677.10	20685.65
677.23	20210.53
677.37	20353.30
677.51	20329.89
677.65	20563.95
677.79	20233.93
677.93	19735.40
678.07	19932.00
678.21	19960.09
678.34	20011.58
678.48	20058.39
678.62	19681.56
678.76	19702.63
678.90	19777.53
679.04	19714.33
679.18	19697.95
679.31	19426.45
679.45	19339.85
679.59	19122.18
679.73	19353.89
679.87	19199.41
680.00	19023.87
680.14	19138.56
680.28	19016.85
680.42	19157.28
680.56	19365.59
680.70	19257.93
680.83	19047.28
680.97	18904.51
681.11	19007.49
681.25	18958.34
681.39	18707.90
681.52	18684.50
681.66	18916.21
681.80	18658.75
681.94	18558.11
682.07	18490.23
682.21	18548.75
682.35	18171.92
682.49	18136.81
682.62	18249.16
682.76	18359.16
682.90	18228.09
683.04	18291.29
683.17	18050.21
683.31	17909.78
683.45	18148.51
683.59	17736.58
683.72	17867.65
683.86	18003.40
684.00	17788.07
684.13	17806.80
684.27	17792.75
684.41	17294.22
684.55	17617.21
684.68	17289.54
684.82	17642.96
684.96	17214.64
685.09	17006.33
685.23	17252.09
685.37	17280.18
685.50	17350.39
685.64	17064.85
685.78	17317.62
685.91	17132.72
686.05	17139.74
686.19	16915.05
686.32	17167.83
686.46	16915.05
686.60	16568.65
686.73	16556.95
686.87	16353.32
687.01	16648.23
687.14	16453.97
687.28	16369.71
687.42	16112.25
687.55	16468.01
687.69	16201.19
687.82	16212.89
687.96	16500.78
688.10	15967.13
688.23	16184.80
688.37	16105.23
688.50	15885.22
688.64	15995.22
688.78	15822.02
688.91	15602.01
689.05	15566.90
689.18	15620.74
689.32	15578.61
689.46	15510.73
689.59	15468.60
689.73	15679.25
689.86	15314.13
690.00	15419.45
690.13	15349.23
690.27	15101.14
690.41	15571.58
690.54	15276.68
690.68	15194.76
690.81	15197.10
690.95	15192.42
691.08	15236.89
691.22	15009.86
691.35	14733.67
691.49	14988.79
691.62	15023.90
691.76	14710.27
691.89	14642.39
692.03	14480.89
692.16	14689.20
692.30	14307.69
692.43	14705.59
692.57	14417.70
692.70	14281.95
692.84	14394.29
692.97	14127.47
693.11	13989.38
693.24	14310.04
693.38	14125.13
693.51	14136.84
693.65	14120.45
693.78	13937.89
693.92	14064.28
694.05	13741.29
694.19	13781.07
694.32	13687.45
694.45	13614.90
694.59	13462.76
694.72	13406.59
694.86	13486.17
694.99	13369.14
695.13	13294.24
695.26	13392.55
695.39	13233.39
695.53	13303.60
695.66	13399.57
695.80	12947.84
695.93	13233.39
696.07	13193.60
696.20	13050.83
696.33	13025.08
696.47	12865.92
696.60	12725.49
696.73	12699.75
696.87	13099.98
697.00	12739.54
697.14	12549.95
697.27	12510.16
697.40	12498.46
697.54	12217.60
697.67	12348.67
697.80	12503.14
697.94	12241.00
698.07	12166.10
698.21	12138.02
698.34	12088.87
698.47	12135.68
698.61	12105.25
698.74	12198.87
698.87	12173.13
699.01	12238.66
699.14	12004.61
699.27	11927.37
699.40	12020.99
699.54	11817.36
699.67	11604.38
699.80	11693.32
699.94	11377.34
700.07	11655.87
700.20	11386.71
700.34	11309.47
700.47	11157.33
700.60	11646.51
700.73	11414.79
700.87	11342.24
701.00	11021.58
701.13	11262.66
701.26	11274.36
701.40	11304.79
701.53	11030.94
701.66	11094.14
701.79	10827.32
701.93	10829.66
702.06	10916.26
702.19	10759.44
702.32	10864.77
702.46	10707.95
702.59	10436.45
702.72	10485.60
702.85	10471.56
702.99	10408.36
703.12	10303.04
703.25	10345.17
703.38	10279.63
703.51	10281.97
703.65	10314.74
703.78	10319.42
703.91	10410.70
704.04	10293.68
704.17	10265.59
704.31	10321.76
704.44	10160.27
704.57	10108.77
704.70	10015.15
704.83	9685.14
704.96	9750.67
705.10	9628.96
705.23	9713.22
>>>>>End Processed Spectral Data<<<<<
