SpectraSuite Data File
++++++++++++++++++++++++++++++++++++
Date: Fri Oct 18 13:58:03 GMT-05:00 2013
User: bianchi
Dark Spectrum Present: No
Reference Spectrum Present: No
Number of Sampled Component Spectra: 1
Spectrometers: USB2+H05261
Integration Time (usec): 50000 (USB2+H05261)
Spectra Averaged: 1 (USB2+H05261)
Boxcar Smoothing: 0 (USB2+H05261)
Correct for Electrical Dark: No (USB2+H05261)
Strobe/Lamp Enabled: No (USB2+H05261)
Correct for Detector Non-linearity: No (USB2+H05261)
Correct for Stray Light: No (USB2+H05261)
Number of Pixels in Processed Spectrum: 2048
>>>>>Begin Processed Spectral Data<<<<<
365.73	0.00
365.92	0.00
366.12	0.00
366.32	0.00
366.52	0.00
366.72	0.00
366.91	0.00
367.11	0.00
367.31	0.00
367.51	0.00
367.70	0.00
367.90	0.00
368.10	0.00
368.30	0.00
368.49	0.00
368.69	0.00
368.89	0.00
369.09	0.00
369.28	0.00
369.48	0.00
369.68	0.00
369.87	0.00
370.07	0.00
370.27	0.00
370.47	0.00
370.66	67.88
370.86	184.90
371.06	154.48
371.25	166.18
371.45	154.48
371.65	56.17
371.84	91.28
372.04	203.63
372.24	152.13
372.44	196.60
372.63	248.10
372.83	227.03
373.03	234.05
373.22	184.90
373.42	161.50
373.62	112.35
373.81	306.61
374.01	238.73
374.21	220.01
374.40	236.39
374.60	287.89
374.79	229.37
374.99	278.52
375.19	245.76
375.38	266.82
375.58	266.82
375.78	290.23
375.97	285.55
376.17	243.42
376.37	222.35
376.56	236.39
376.76	224.69
376.95	255.12
377.15	198.95
377.35	259.80
377.54	191.92
377.74	262.14
377.93	271.50
378.13	285.55
378.33	304.27
378.52	255.12
378.72	273.84
378.91	339.38
379.11	294.91
379.31	351.08
379.50	276.18
379.70	285.55
379.89	283.20
380.09	325.33
380.28	334.70
380.48	264.48
380.68	304.27
380.87	311.29
381.07	229.37
381.26	374.49
381.46	407.25
381.65	259.80
381.85	379.17
382.04	360.44
382.24	283.20
382.43	376.83
382.63	308.95
382.83	376.83
383.02	285.55
383.22	428.32
383.41	372.15
383.61	332.36
383.80	351.08
384.00	383.85
384.19	372.15
384.39	390.87
384.58	374.49
384.78	397.89
384.97	381.51
385.17	358.10
385.36	355.76
385.56	379.17
385.75	400.23
385.95	409.59
386.14	416.62
386.34	400.23
386.53	451.72
386.72	447.04
386.92	444.70
387.11	430.66
387.31	414.27
387.50	510.24
387.70	402.57
387.89	425.98
388.09	451.72
388.28	383.85
388.48	470.45
388.67	458.74
388.86	498.53
389.06	477.47
389.25	491.51
389.45	440.02
389.64	423.64
389.84	524.28
390.03	519.60
390.22	468.11
390.42	411.93
390.61	484.49
390.81	489.17
391.00	477.47
391.19	505.56
391.39	456.40
391.58	517.26
391.78	580.45
391.97	496.19
392.16	510.24
392.36	493.85
392.55	463.43
392.75	561.73
392.94	550.03
393.13	519.60
393.33	533.64
393.52	550.03
393.71	587.47
393.91	461.09
394.10	557.05
394.29	629.60
394.49	552.37
394.68	653.01
394.88	582.79
395.07	545.34
395.26	528.96
395.46	629.60
395.65	648.33
395.84	610.88
396.04	699.82
396.23	617.90
396.42	582.79
396.62	667.05
396.81	575.77
397.00	653.01
397.19	725.57
397.39	622.58
397.58	737.27
397.77	585.13
397.97	732.59
398.16	638.97
398.35	667.05
398.55	667.05
398.74	730.25
398.93	781.74
399.12	650.67
399.32	702.16
399.51	727.91
399.70	723.23
399.90	739.61
400.09	844.93
400.28	828.55
400.47	800.46
400.67	760.67
400.86	840.25
401.05	844.93
401.24	870.68
401.44	788.76
401.63	767.70
401.82	781.74
402.01	770.04
402.21	765.36
402.40	889.40
402.59	884.72
402.78	898.77
402.97	821.53
403.17	922.17
403.36	896.43
403.55	847.27
403.74	976.00
403.93	961.96
404.13	973.66
404.32	821.53
404.51	873.02
404.70	837.91
404.89	912.81
405.09	854.30
405.28	819.19
405.47	894.08
405.66	936.21
405.85	957.28
406.05	931.53
406.24	931.53
406.43	992.39
406.62	1011.11
406.81	1097.71
407.00	1025.15
407.20	978.34
407.39	1029.84
407.58	999.41
407.77	1088.35
407.96	1172.61
408.15	1109.41
408.34	1060.26
408.54	1121.12
408.73	1046.22
408.92	1055.58
409.11	1027.50
409.30	1130.48
409.49	1277.93
409.68	1160.91
409.87	1146.86
410.07	1167.93
410.26	1219.42
410.45	1238.14
410.64	1249.85
410.83	1125.80
411.02	1207.72
411.21	1287.29
411.40	1277.93
411.59	1172.61
411.78	1331.76
411.98	1301.34
412.17	1296.66
412.36	1261.55
412.55	1352.83
412.74	1371.55
412.93	1336.45
413.12	1411.34
413.31	1411.34
413.50	1469.86
413.69	1416.02
413.88	1472.20
414.07	1397.30
414.26	1500.28
414.45	1540.07
414.64	1331.76
414.83	1563.48
415.02	1568.16
415.22	1556.46
415.41	1593.90
415.60	1551.78
415.79	1596.25
415.98	1584.54
416.17	1629.01
416.36	1603.27
416.55	1624.33
416.74	1528.37
416.93	1671.14
417.12	1643.06
417.31	1675.82
417.50	1629.01
417.69	1781.15
417.88	1732.00
418.07	1764.76
418.26	1755.40
418.45	1727.32
418.64	1865.41
418.83	1771.79
419.02	1767.10
419.21	1926.26
419.39	1856.04
419.58	1832.64
419.77	1816.26
419.96	1832.64
420.15	1858.39
420.34	1825.62
420.53	2022.22
420.72	1912.22
420.91	1912.22
421.10	1935.62
421.29	1968.39
421.48	1834.98
421.67	1942.64
421.86	2029.24
422.05	1991.80
422.24	2099.46
422.43	1912.22
422.61	2078.40
422.80	1886.47
422.99	1959.03
423.18	1994.14
423.37	2008.18
423.56	1984.77
423.75	2113.50
423.94	2129.89
424.13	1928.60
424.32	1825.62
424.50	2165.00
424.69	2001.16
424.88	2134.57
425.07	1977.75
425.26	2057.33
425.45	1947.33
425.64	1949.67
425.83	2001.16
426.01	2146.27
426.20	2108.82
426.39	2136.91
426.58	2193.08
426.77	2083.08
426.96	2157.97
427.15	2106.48
427.33	2125.21
427.52	2125.21
427.71	2125.21
427.90	2176.70
428.09	2165.00
428.28	2270.32
428.46	2132.23
428.65	2230.53
428.84	2298.41
429.03	2246.91
429.22	2225.85
429.40	2307.77
429.59	2265.64
429.78	2244.57
429.97	2059.67
430.16	2237.55
430.34	2239.89
430.53	2438.84
430.72	2363.94
430.91	2246.91
431.10	2406.07
431.28	2312.45
431.47	2314.79
431.66	2406.07
431.85	2368.62
432.03	2499.69
432.22	2499.69
432.41	2438.84
432.60	2497.35
432.79	2455.22
432.97	2513.74
433.16	2401.39
433.35	2356.92
433.54	2511.39
433.72	2689.28
433.91	2513.74
434.10	2628.42
434.28	2553.52
434.47	2633.10
434.66	2520.76
434.85	2635.44
435.03	2597.99
435.22	2649.49
435.41	2644.81
435.59	2635.44
435.78	2637.78
435.97	2628.42
436.16	2647.15
436.34	2693.96
436.53	2612.04
436.72	2778.22
436.90	2649.49
437.09	2822.69
437.28	2729.06
437.46	2661.19
437.65	2803.96
437.84	2752.47
438.02	2759.49
438.21	2913.97
438.40	2733.75
438.58	2801.62
438.77	2860.13
438.96	2834.39
439.14	3023.97
439.33	3028.65
439.52	2928.01
439.70	3007.59
439.89	3096.53
440.08	3021.63
440.26	3068.44
440.45	3066.10
440.63	3105.89
440.82	3145.68
441.01	3080.14
441.19	3225.26
441.38	3300.16
441.57	3211.22
441.75	3290.79
441.94	3267.39
442.12	3239.30
442.31	3311.86
442.50	3204.19
442.68	3351.65
442.87	3377.39
443.05	3372.71
443.24	3428.88
443.43	3513.14
443.61	3417.18
443.80	3529.53
443.98	3302.50
444.17	3173.77
444.35	3473.36
444.54	3492.08
444.73	3344.63
444.91	3389.10
445.10	3361.01
445.28	3466.33
445.47	3370.37
445.65	3356.33
445.84	3620.81
446.02	3438.25
446.21	3501.44
446.39	3447.61
446.58	3566.98
446.77	3569.32
446.95	3468.67
447.14	3492.08
447.32	3569.32
447.51	3534.21
447.69	3548.25
447.88	3566.98
448.06	3506.12
448.25	3562.30
448.43	3604.42
448.62	3534.21
448.80	3609.11
448.99	3548.25
449.17	3646.55
449.36	3449.95
449.54	3623.15
449.73	3625.49
449.91	3719.11
450.10	3620.81
450.28	3779.97
450.46	3681.66
450.65	3810.39
450.83	3765.92
451.02	3744.86
451.20	3644.21
451.39	3709.75
451.57	3770.60
451.76	3871.25
451.94	3927.42
452.13	3946.14
452.31	3840.82
452.49	3829.12
452.68	3955.51
452.86	3981.25
453.05	4002.32
453.23	3950.82
453.42	3896.99
453.60	3798.69
453.78	4025.72
453.97	3688.68
454.15	4081.89
454.34	4004.66
454.52	4077.21
454.70	3915.72
454.89	3899.33
455.07	4121.68
455.26	4084.23
455.44	4166.15
455.62	4065.51
455.81	4070.19
455.99	4142.75
456.17	4210.62
456.36	4184.88
456.54	4299.56
456.73	4292.54
456.91	4322.97
457.09	4393.19
457.28	4322.97
457.46	4320.63
457.64	4339.35
457.83	4447.02
458.01	4255.09
458.19	4634.26
458.38	4428.29
458.56	4463.40
458.74	4550.00
458.93	4430.63
459.11	4451.70
459.29	4365.10
459.48	4608.51
459.66	4456.38
459.84	4634.26
460.03	4767.67
460.21	4550.00
460.39	4648.30
460.57	4484.47
460.76	4561.70
460.94	4716.18
461.12	4739.58
461.31	4704.48
461.49	4664.69
461.67	4608.51
461.85	4821.50
462.04	4795.76
462.22	5046.20
462.40	4774.69
462.59	4884.70
462.77	4723.20
462.95	4667.03
463.13	4739.58
463.32	4795.76
463.50	4903.42
463.68	4858.95
463.86	4840.23
464.05	4781.71
464.23	4882.36
464.41	4947.89
464.59	4851.93
464.78	5130.45
464.96	5001.72
465.14	4884.70
465.32	4985.34
465.50	5071.94
465.69	5104.71
465.87	5008.75
466.05	4922.15
466.23	4957.25
466.41	4880.02
466.60	5320.04
466.78	5022.79
466.96	5144.50
467.14	5090.67
467.32	5320.04
467.51	5142.16
467.69	5085.98
467.87	5144.50
468.05	5305.99
468.23	5200.67
468.41	5123.43
468.60	5256.84
468.78	5254.50
468.96	5184.29
469.14	5359.83
469.32	5376.21
469.50	5191.31
469.69	5289.61
469.87	5568.13
470.05	5481.53
470.23	5514.30
470.41	5502.60
470.59	5586.86
470.77	5458.13
470.95	5479.19
471.14	5624.31
471.32	5359.83
471.50	5806.87
471.68	5575.16
471.86	5724.95
472.04	5610.26
472.22	5884.11
472.40	5701.54
472.58	5731.97
472.77	5661.76
472.95	5881.77
473.13	5926.24
473.31	5856.02
473.49	5792.83
473.67	5963.68
473.85	6029.22
474.03	6090.07
474.21	6003.47
474.39	6118.16
474.57	6232.85
474.75	6197.74
474.93	6026.88
475.12	6204.76
475.30	6279.66
475.48	5989.43
475.66	6242.21
475.84	6328.81
476.02	6207.10
476.20	6417.75
476.38	6502.01
476.56	6567.54
476.74	6532.44
476.92	6658.82
477.10	6593.29
477.28	6661.16
477.46	6654.14
477.64	6754.79
477.82	6782.87
478.00	7014.59
478.18	7084.80
478.36	6932.67
478.54	7185.44
478.72	7199.49
478.90	7162.04
479.08	7236.94
479.26	7082.46
479.44	7225.23
479.62	7461.63
479.80	7599.72
479.98	7651.21
480.16	7660.57
480.34	7496.74
480.52	7761.22
480.70	7695.68
480.88	7541.21
481.06	7613.76
481.24	7672.28
481.41	7976.55
481.59	8088.89
481.77	8070.17
481.95	7995.27
482.13	8035.06
482.31	8287.84
482.49	8395.50
482.67	8383.80
482.85	8147.40
483.03	8400.18
483.21	8582.74
483.39	8699.77
483.57	8482.10
483.74	8741.90
483.92	8807.44
484.10	8737.22
484.28	9006.38
484.46	9114.05
484.64	9345.76
484.82	9146.81
485.00	9174.90
485.18	9111.71
485.35	9399.59
485.53	9654.71
485.71	9446.40
485.89	9598.54
486.07	9617.26
486.25	9895.78
486.43	9626.62
486.61	9797.48
486.78	9970.68
486.96	10043.24
487.14	10113.45
487.32	10188.35
487.50	10298.36
487.68	10328.78
487.85	10417.72
488.03	10391.98
488.21	10869.45
488.39	10490.28
488.57	10700.93
488.75	10778.17
488.92	10981.79
489.10	10951.37
489.28	10937.32
489.46	10913.92
489.64	11234.57
489.81	11482.67
489.99	11274.36
490.17	11452.24
490.35	11665.23
490.53	11646.51
490.70	11641.82
490.88	11798.64
491.06	12028.01
491.24	11681.61
491.41	11962.48
491.59	12028.01
491.77	11894.60
491.95	12051.42
492.13	12341.64
492.30	12238.66
492.48	12442.29
492.66	12538.25
492.84	12615.49
493.01	12638.89
493.19	12650.60
493.37	13032.10
493.54	12842.52
493.72	13200.62
493.90	12805.07
494.08	12926.78
494.25	13296.58
494.43	13231.05
494.61	13366.80
494.79	13458.08
494.96	13521.27
495.14	13371.48
495.32	13532.98
495.49	13621.92
495.67	13642.98
495.85	13848.95
496.02	13783.41
496.20	14153.22
496.38	14054.92
496.55	14104.07
496.73	14293.65
496.91	14188.33
497.09	14541.75
497.26	14438.76
497.44	14394.29
497.62	14724.31
497.79	14780.48
497.97	14867.08
498.14	14665.80
498.32	15037.94
498.50	15150.29
498.67	15318.81
498.85	15091.77
499.03	15033.26
499.20	15248.59
499.38	15044.96
499.56	15178.37
499.73	15283.70
499.91	15316.47
500.08	15770.53
500.26	15342.21
500.44	15492.01
500.61	15658.18
500.79	15330.51
500.97	15917.98
501.14	16091.18
501.32	16182.46
501.49	15920.32
501.67	15997.56
501.84	16163.74
502.02	16343.96
502.20	16332.26
502.37	16086.50
502.55	16276.09
502.72	16545.25
502.90	16109.91
503.07	16332.26
503.25	16350.98
503.43	16451.63
503.60	16793.34
503.78	16767.60
503.95	16615.46
504.13	16952.50
504.30	16940.80
504.48	16847.18
504.65	16868.24
504.83	16987.61
505.01	17432.31
505.18	17172.51
505.36	17231.02
505.53	17111.66
505.71	17132.72
505.88	17259.11
506.06	17350.39
506.23	17439.33
506.41	17324.65
506.58	17626.57
506.76	17635.94
506.93	17390.18
507.11	17462.74
507.28	17823.18
507.46	17642.96
507.63	18047.87
507.81	17912.12
507.98	17879.35
508.16	17921.48
508.33	17891.06
508.50	17778.71
508.68	17989.36
508.85	17921.48
509.03	18342.78
509.20	18356.82
509.38	18544.06
509.55	18450.44
509.73	18515.98
509.90	18448.10
510.08	18324.05
510.25	18518.32
510.42	18698.54
510.60	18771.10
510.77	18869.40
510.95	18939.62
511.12	18726.63
511.30	18621.30
511.47	19187.71
511.64	18892.80
511.82	19136.22
511.99	19030.90
512.17	19194.73
512.34	18916.21
512.51	19386.66
512.69	19463.90
512.86	19506.02
513.04	19866.47
513.21	19314.10
513.38	19889.87
513.56	19639.44
513.73	19592.62
513.90	19728.38
514.08	19604.33
514.25	20203.50
514.43	19697.95
514.60	20156.69
514.77	19737.74
514.95	19969.45
515.12	20086.48
515.29	20002.22
515.47	20170.74
515.64	20418.83
515.81	20467.98
515.99	20236.27
516.16	20130.95
516.33	20549.90
516.51	20805.02
516.68	20374.36
516.85	20297.13
517.03	20233.93
517.20	20711.40
517.37	20606.08
517.54	20683.31
517.72	20585.01
517.89	20767.57
518.06	21146.74
518.24	20936.09
518.41	20814.38
518.58	20688.00
518.75	20833.11
518.93	21458.03
519.10	20816.72
519.27	21074.18
519.45	21029.71
519.62	21216.96
519.79	21467.39
519.96	21177.17
520.14	21647.61
520.31	21345.69
520.48	21647.61
520.65	21495.48
520.83	21678.04
521.00	21656.98
521.17	21425.26
521.34	21778.68
521.52	21804.43
521.69	22052.53
521.86	21785.71
522.03	22054.87
522.20	22115.72
522.38	22185.94
522.55	22022.10
522.72	21926.14
522.89	21977.63
523.07	22331.05
523.24	22178.92
523.41	22122.74
523.58	22015.08
523.75	22733.62
523.92	22239.77
524.10	22412.97
524.27	22218.71
524.44	22520.63
524.61	22525.32
524.78	22302.96
524.96	23000.44
525.13	22565.10
525.30	22869.37
525.47	22874.06
525.64	22424.67
525.81	23023.85
525.98	22860.01
526.16	22946.61
526.33	23005.13
526.50	23318.76
526.67	23096.41
526.84	22747.67
527.01	23288.33
527.18	23381.95
527.36	23269.61
527.53	23356.21
527.70	23424.08
527.87	23587.92
528.04	23269.61
528.21	23199.39
528.38	23501.32
528.55	23613.66
528.72	23463.87
528.89	23435.78
529.07	23527.06
529.24	23503.66
529.41	23639.41
529.58	23836.02
529.75	23662.82
529.92	23730.69
530.09	23946.02
530.26	23990.49
530.43	23718.99
530.60	23569.19
530.77	24163.69
530.94	24025.60
531.11	24004.53
531.28	23882.83
531.46	23754.10
531.63	24212.84
531.80	24706.70
531.97	24453.92
532.14	24493.71
532.31	23985.81
532.48	24194.12
532.65	24189.44
532.82	24208.16
532.99	24669.25
533.16	24140.29
533.33	24486.68
533.50	24821.38
533.67	24898.62
533.84	24238.59
534.01	24423.49
534.18	24474.98
534.35	24505.41
534.52	24676.27
534.69	25280.13
534.86	24971.18
535.03	24720.74
535.20	24893.94
535.37	24903.30
535.54	24805.00
535.71	24854.15
535.88	24671.59
536.05	24915.00
536.22	24989.90
536.38	25626.53
536.55	25254.38
536.72	25319.92
536.89	25015.65
537.06	25062.46
537.23	25326.94
537.40	25069.48
537.57	25415.88
537.74	25125.65
537.91	25879.30
538.08	25851.22
538.25	25256.72
538.42	25687.38
538.59	25745.89
538.75	25397.15
538.92	25701.42
539.09	25263.74
539.26	25818.45
539.43	25785.68
539.60	25553.97
539.77	25813.77
539.94	25900.37
540.11	25710.78
540.28	25846.54
540.44	25781.00
540.61	25724.83
540.78	25874.62
540.95	25909.73
541.12	25968.24
541.29	26089.95
541.46	26038.46
541.62	25916.75
541.79	25703.76
541.96	25642.91
542.13	25996.33
542.30	25965.90
542.47	26326.35
542.63	26272.51
542.80	26459.76
542.97	26651.68
543.14	26279.54
543.31	26260.81
543.48	26288.90
543.64	26654.02
543.81	26815.52
543.98	26635.30
544.15	26700.83
544.32	26719.56
544.48	26925.52
544.65	26855.31
544.82	26895.10
544.99	26749.98
545.16	26918.50
545.32	26794.45
545.49	27112.77
545.66	26948.93
545.83	27012.12
546.00	27538.74
546.16	27028.51
546.33	27047.23
546.50	26962.97
546.67	26920.84
546.83	26993.40
547.00	27346.82
547.17	27283.62
547.34	27026.17
547.50	27194.68
547.67	27295.33
547.84	27349.16
548.00	27124.47
548.17	27473.21
548.34	26972.33
548.51	27981.10
548.67	27346.82
548.84	27648.75
549.01	27236.81
549.18	27480.23
549.34	27384.27
549.51	27576.19
549.68	27505.98
549.84	27793.86
550.01	27697.90
550.18	27669.81
550.34	28039.62
550.51	27744.71
550.68	27761.09
550.84	27704.92
551.01	27550.45
551.18	27431.08
551.34	27445.12
551.51	27683.86
551.68	27784.50
551.84	28004.51
552.01	27669.81
552.18	27908.55
552.34	27913.23
552.51	27950.68
552.68	28140.26
552.84	28020.89
553.01	27964.72
553.18	27777.48
553.34	28147.28
553.51	28191.75
553.67	28519.43
553.84	28774.55
554.01	28634.11
554.17	27861.74
554.34	28147.28
554.51	27924.93
554.67	28341.55
554.84	28355.59
555.00	28149.62
555.17	28425.81
555.33	28327.50
555.50	28348.57
555.67	28175.37
555.83	28531.13
556.00	28362.61
556.16	28594.32
556.33	28753.48
556.50	28577.94
556.66	28683.27
556.83	28287.71
556.99	29017.96
557.16	28758.16
557.32	28910.30
557.49	29291.80
557.65	28606.03
557.82	28655.18
557.98	28685.61
558.15	28697.31
558.32	29142.01
558.48	28737.10
558.65	29158.39
558.81	28922.00
558.98	28856.46
559.14	29151.37
559.31	28856.46
559.47	28400.06
559.64	28936.04
559.80	29062.43
559.97	29036.69
560.13	29247.33
560.30	29172.44
560.46	29130.31
560.63	29062.43
560.79	29076.48
560.96	29301.17
561.12	29170.10
561.29	28945.41
561.45	28769.86
561.61	29422.87
561.78	28985.19
561.94	29261.38
562.11	29223.93
562.27	28912.64
562.44	29610.12
562.60	29301.17
562.77	29095.20
562.93	29343.30
563.10	29006.26
563.26	29390.11
563.42	29614.80
563.59	29448.62
563.75	29443.94
563.92	29436.92
564.08	28694.97
564.24	29324.57
564.41	29027.32
564.57	29043.71
564.74	29476.71
564.90	29654.59
565.07	29474.37
565.23	29736.51
565.39	29516.50
565.56	29600.76
565.72	29518.84
565.88	29717.78
566.05	28912.64
566.21	29682.67
566.38	29724.80
566.54	29481.39
566.70	29420.53
566.87	29895.66
567.03	29621.82
567.19	29958.86
567.36	29333.93
567.52	29525.86
567.68	29532.88
567.85	29624.16
568.01	29954.18
568.17	29411.17
568.34	30040.78
568.50	29745.87
568.66	29502.45
568.83	29713.10
568.99	29350.32
569.15	29689.70
569.32	29701.40
569.48	29294.14
569.64	29958.86
569.81	29935.45
569.97	29860.55
570.13	29839.49
570.30	29558.63
570.46	29736.51
570.62	29436.92
570.78	29488.41
570.95	29923.75
571.11	29734.17
571.27	29378.40
571.43	29867.58
571.60	29965.88
571.76	30033.75
571.92	29813.74
572.09	29769.27
572.25	30052.48
572.41	29942.47
572.57	30017.37
572.74	30211.64
572.90	30022.05
573.06	29811.40
573.22	29991.62
573.38	29837.15
573.55	29607.78
573.71	30054.82
573.87	30242.06
574.03	29848.85
574.20	30085.25
574.36	29965.88
574.52	29848.85
574.68	29495.43
574.84	29954.18
575.01	29968.22
575.17	30312.28
575.33	29818.42
575.49	30029.07
575.65	29984.60
575.82	30331.00
575.98	29935.45
576.14	30197.59
576.30	29944.81
576.46	29958.86
576.62	29661.61
576.79	30197.59
576.95	30190.57
577.11	29909.71
577.27	30260.79
577.43	30176.53
577.59	30209.29
577.75	29872.26
577.92	29830.13
578.08	29916.73
578.24	29825.45
578.40	29888.64
578.56	30197.59
578.72	30157.80
578.88	30066.52
579.04	30277.17
579.21	30281.85
579.37	30270.15
579.53	30377.81
579.69	29888.64
579.85	30017.37
580.01	29940.13
580.17	29759.91
580.33	29865.24
580.49	30061.84
580.65	30625.91
580.82	30066.52
580.98	30415.26
581.14	30101.63
581.30	30305.26
581.46	29811.40
581.62	30185.89
581.78	29914.39
581.94	29839.49
582.10	29745.87
582.26	29958.86
582.42	30209.29
582.58	30061.84
582.74	29963.54
582.90	30710.17
583.06	30424.62
583.22	30373.13
583.38	30410.58
583.54	30127.38
583.70	30661.02
583.86	30349.73
584.02	29816.08
584.18	30253.76
584.34	29890.98
584.50	30157.80
584.66	30328.66
584.82	30078.22
584.98	30178.87
585.14	30101.63
585.30	29879.28
585.46	29610.12
585.62	29921.41
585.78	30382.49
585.94	30204.61
586.10	30490.16
586.26	30059.50
586.42	30541.65
586.58	30707.83
586.74	30707.83
586.90	30249.08
587.06	30202.27
587.22	30260.79
587.38	30017.37
587.54	30462.07
587.70	30958.27
587.86	30586.12
588.02	30316.96
588.18	30539.31
588.34	30529.95
588.49	30068.86
588.65	30506.54
588.81	30136.74
588.97	30319.30
589.13	30185.89
589.29	30511.22
589.45	30756.98
589.61	30778.04
589.77	30611.87
589.93	30632.93
590.08	30710.17
590.24	30686.76
590.40	30670.38
590.56	30239.72
590.72	30728.89
590.88	30075.88
591.04	30349.73
591.20	30773.36
591.35	31257.85
591.51	30874.01
591.67	30658.68
591.83	30527.61
591.99	30452.71
592.15	30621.23
592.31	30307.60
592.46	30682.08
592.62	30646.97
592.78	30675.06
592.94	29921.41
593.10	30529.95
593.26	30941.88
593.41	30785.07
593.57	30724.21
593.73	30878.69
593.89	31395.95
594.05	30787.41
594.20	30394.20
594.36	30572.08
594.52	30658.68
594.68	30684.42
594.84	30408.24
594.99	30843.58
595.15	31000.40
595.31	30782.73
595.47	30937.20
595.62	30756.98
595.78	30742.94
595.94	30881.03
596.10	30625.91
596.25	30487.82
596.41	30394.20
596.57	30576.76
596.73	30663.36
596.88	30771.02
597.04	30749.96
597.20	30398.88
597.36	31054.23
597.51	31171.25
597.67	30445.69
597.83	30728.89
597.99	30808.47
598.14	30668.04
598.30	30771.02
598.46	30698.47
598.61	30871.67
598.77	30644.63
598.93	31271.90
599.09	30831.88
599.24	31260.20
599.40	30717.19
599.56	30801.45
599.71	31101.04
599.87	30782.73
600.03	30490.16
600.18	30534.63
600.34	30700.81
600.50	30836.56
600.65	30803.79
600.81	31110.40
600.97	30780.39
601.12	30862.30
601.28	30803.79
601.44	30897.41
601.59	31077.63
601.75	30960.61
601.91	30909.11
602.06	30976.99
602.22	30658.68
602.37	30834.22
602.53	30810.81
602.69	30951.24
602.84	30904.43
603.00	30696.13
603.16	31264.88
603.31	31206.36
603.47	31070.61
603.62	30841.24
603.78	30204.61
603.94	30787.41
604.09	30710.17
604.25	30682.08
604.40	30855.28
604.56	30972.31
604.71	31040.18
604.87	30946.56
605.03	30698.47
605.18	31061.25
605.34	30646.97
605.49	30394.20
605.65	30857.62
605.80	30539.31
605.96	30639.95
606.12	30654.00
606.27	31068.27
606.43	30738.26
606.58	30960.61
606.74	30955.93
606.89	31051.89
607.05	30782.73
607.20	31035.50
607.36	30621.23
607.51	30513.56
607.67	30668.04
607.82	30391.86
607.98	30192.91
608.13	30658.68
608.29	30714.85
608.44	30459.73
608.60	30820.17
608.75	31204.02
608.91	30991.03
609.06	30689.10
609.22	31089.34
609.37	30281.85
609.53	30391.86
609.68	30845.92
609.84	30731.23
609.99	30438.67
610.15	30272.49
610.30	30597.82
610.46	30682.08
610.61	30677.40
610.76	30972.31
610.92	30272.49
611.07	30583.78
611.23	30555.69
611.38	30696.13
611.54	30546.33
611.69	30614.21
611.84	30551.01
612.00	30206.95
612.15	30415.26
612.31	30363.77
612.46	30466.75
612.62	30663.36
612.77	30443.35
612.92	30511.22
613.08	29998.65
613.23	30331.00
613.39	29984.60
613.54	30108.65
613.69	29855.87
613.85	30162.48
614.00	30391.86
614.15	30600.16
614.31	30375.47
614.46	30263.13
614.62	30586.12
614.77	30504.20
614.92	30433.99
615.08	30260.79
615.23	30195.25
615.38	30408.24
615.54	30141.42
615.69	30064.18
615.84	29930.77
616.00	30307.60
616.15	29989.28
616.30	30277.17
616.46	30068.86
616.61	30157.80
616.76	30204.61
616.92	30253.76
617.07	30192.91
617.22	29895.66
617.37	29818.42
617.53	30244.40
617.68	29944.81
617.83	29916.73
617.99	29738.85
618.14	30199.93
618.29	29706.08
618.45	30239.72
618.60	29912.05
618.75	29972.90
618.90	30197.59
619.06	30008.01
619.21	29848.85
619.36	29968.22
619.51	29727.14
619.67	29689.70
619.82	29783.32
619.97	29710.76
620.12	29483.73
620.28	29483.73
620.43	29408.83
620.58	29462.66
620.73	29947.15
620.89	29717.78
621.04	29853.53
621.19	29797.36
621.34	29226.27
621.49	29163.08
621.65	29612.46
621.80	29542.24
621.95	29582.03
622.10	29696.72
622.25	29404.15
622.41	29579.69
622.56	29551.60
622.71	29748.21
622.86	29266.06
623.01	30078.22
623.16	29596.07
623.32	29137.33
623.47	29139.67
623.62	29266.06
623.77	29326.91
623.92	29509.47
624.07	28982.85
624.23	29553.94
624.38	29326.91
624.53	29486.07
624.68	29064.77
624.83	29556.28
624.98	29752.89
625.13	29296.49
625.29	29282.44
625.44	29050.73
625.59	29193.50
625.74	29113.92
625.89	28772.21
626.04	28870.51
626.19	28922.00
626.34	28821.36
626.49	29195.84
626.65	28875.19
626.80	29006.26
626.95	28725.39
627.10	29188.82
627.25	28634.11
627.40	29076.48
627.55	28741.78
627.70	28697.31
627.85	28900.94
628.00	28917.32
628.15	28493.68
628.30	28500.70
628.45	28746.46
628.60	28809.65
628.76	28634.11
628.91	28584.96
629.06	28432.83
629.21	28765.18
629.36	28861.15
629.51	28245.58
629.66	28720.71
629.81	28203.46
629.96	28533.47
630.11	28425.81
630.26	28252.61
630.41	28615.39
630.56	28348.57
630.71	28229.20
630.86	28734.76
631.01	28683.27
631.16	28641.14
631.31	28283.03
631.46	28187.07
631.61	28297.08
631.76	28474.96
631.91	28107.49
632.06	28158.99
632.21	28229.20
632.36	28601.35
632.51	27566.83
632.66	28430.49
632.81	28208.14
632.96	28369.63
633.10	28189.41
633.25	28879.87
633.40	28432.83
633.55	28191.75
633.70	27929.61
633.85	27957.70
634.00	28144.94
634.15	27697.90
634.30	27906.21
634.45	27967.06
634.60	28032.60
634.75	27618.32
634.90	27873.44
635.05	27960.04
635.19	28257.29
635.34	28278.35
635.49	28119.20
635.64	28175.37
635.79	27910.89
635.94	27941.32
636.09	28006.85
636.24	27648.75
636.39	27704.92
636.53	27882.80
636.68	27859.40
636.83	27880.46
636.98	28058.34
637.13	27927.27
637.28	27615.98
637.43	28034.94
637.57	27915.57
637.72	27271.92
637.87	27777.48
638.02	27716.62
638.17	27718.96
638.32	27402.99
638.46	27278.94
638.61	27065.96
638.76	26960.63
638.91	27414.69
639.06	27786.84
639.20	27342.14
639.35	27583.21
639.50	27342.14
639.65	27424.06
639.80	27501.29
639.94	27550.45
640.09	27473.21
640.24	27620.66
640.39	27402.99
640.54	27028.51
640.68	27424.06
640.83	26843.60
640.98	27159.58
641.13	27028.51
641.27	27283.62
641.42	27548.11
641.57	27051.91
641.72	27473.21
641.86	27316.39
642.01	26852.97
642.16	27346.82
642.31	26916.16
642.45	27260.22
642.60	26558.06
642.75	26801.47
642.90	27061.27
643.04	26958.29
643.19	27239.15
643.34	27330.44
643.48	27103.40
643.63	26902.12
643.78	26967.65
643.93	27016.80
644.07	26972.33
644.22	27400.65
644.37	27021.48
644.51	27344.48
644.66	26735.94
644.81	26867.01
644.95	26904.46
645.10	26822.54
645.25	27089.36
645.39	26883.39
645.54	27164.26
645.69	27101.06
645.83	26572.10
645.98	26841.26
646.13	27080.00
646.27	26806.16
646.42	26881.05
646.57	26848.29
646.71	26803.82
646.86	26661.04
647.00	26525.29
647.15	26628.27
647.30	26700.83
647.44	26354.43
647.59	26747.64
647.74	26108.68
647.88	26396.56
648.03	26370.82
648.17	26794.45
648.32	26909.14
648.47	26813.18
648.61	26745.30
648.76	26625.93
648.90	26497.20
649.05	26527.63
649.20	26316.98
649.34	26480.82
649.49	25858.24
649.63	26064.21
649.78	26328.69
649.92	26148.46
650.07	26539.33
650.21	26312.30
650.36	25956.54
650.51	26096.97
650.65	26380.18
650.80	26188.25
650.94	26394.22
651.09	26249.11
651.23	26342.73
651.38	25912.07
651.52	25788.02
651.67	26221.02
651.81	26010.37
651.96	25851.22
652.10	26111.02
652.25	26061.87
652.39	26019.74
652.54	26387.20
652.68	25909.73
652.83	25862.92
652.97	26328.69
653.12	26441.03
653.26	26054.84
653.41	25895.69
653.55	26003.35
653.70	25951.86
653.84	25785.68
653.99	25792.70
654.13	25769.30
654.27	25387.79
654.42	25647.59
654.56	25935.48
654.71	25692.06
654.85	25839.51
655.00	26171.87
655.14	25479.07
655.29	25537.59
655.43	25881.64
655.57	25528.22
655.72	25202.89
655.86	25532.90
656.01	25881.64
656.15	25563.33
656.30	25610.14
656.44	25577.37
656.58	25118.63
656.73	25671.00
656.87	25731.85
657.01	25731.85
657.16	25465.03
657.30	25539.93
657.45	25448.64
657.59	25600.78
657.73	25399.49
657.88	25544.61
658.02	25362.04
658.16	25266.08
658.31	25359.70
658.45	25380.77
658.60	25343.32
658.74	25434.60
658.88	25238.00
659.03	25036.71
659.17	25055.43
659.31	25153.74
659.46	24931.39
659.60	25001.60
659.74	25109.27
659.89	24556.90
660.03	24610.73
660.17	25017.99
660.32	24861.17
660.46	25046.07
660.60	24711.38
660.74	24833.08
660.89	24332.21
661.03	24732.44
661.17	24339.23
661.32	24622.44
661.46	25081.18
661.60	24816.70
661.74	24446.90
661.89	24596.69
662.03	24987.56
662.17	24718.40
662.31	24306.46
662.46	24322.85
662.60	24463.28
662.74	24369.66
662.88	24247.95
663.03	24039.64
663.17	24266.67
663.31	24079.43
663.45	24142.63
663.60	23887.51
663.74	24229.23
663.88	24177.73
664.02	24175.39
664.17	24119.22
664.31	24479.66
664.45	23910.91
664.59	23939.00
664.73	24177.73
664.88	24046.66
665.02	23669.84
665.16	23831.33
665.30	23854.74
665.44	23637.07
665.59	23531.75
665.73	23782.18
665.87	23616.01
666.01	23662.82
666.15	23728.35
666.29	23508.34
666.44	23871.12
666.58	23381.95
666.72	23826.65
666.86	23789.20
667.00	23899.21
667.14	23690.90
667.28	23321.10
667.43	23161.94
667.57	23571.54
667.71	23028.53
667.85	23117.47
667.99	23267.27
668.13	23161.94
668.27	23044.91
668.41	23236.84
668.56	23009.81
668.70	23068.32
668.84	23168.96
668.98	22948.95
669.12	23260.24
669.26	23138.54
669.40	23094.07
669.54	23070.66
669.68	22857.67
669.82	22663.41
669.96	22696.17
670.10	22764.05
670.25	22450.42
670.39	22878.74
670.53	22487.87
670.67	22373.18
670.81	22349.78
670.95	22382.54
671.09	22630.64
671.23	22338.07
671.37	22515.95
671.51	22581.49
671.65	22525.32
671.79	22487.87
671.93	21979.97
672.07	22010.40
672.21	22171.89
672.35	21947.20
672.49	21776.34
672.63	22082.95
672.77	22115.72
672.91	22078.27
673.05	21933.16
673.19	21884.01
673.33	21715.49
673.47	21891.03
673.61	21907.41
673.75	21738.90
673.89	21963.59
674.03	21874.65
674.17	21813.79
674.31	21516.54
674.45	21593.78
674.59	21523.57
674.73	21556.33
674.87	21238.02
675.01	21591.44
675.15	20996.95
675.29	21266.11
675.43	21099.93
675.56	21291.85
675.70	21139.72
675.84	20922.05
675.98	20875.24
676.12	21039.08
676.26	21385.47
676.40	21151.42
676.54	21106.95
676.68	21294.19
676.82	20217.55
676.96	20280.74
677.10	20800.34
677.23	20599.05
677.37	20479.69
677.51	20285.42
677.65	20449.26
677.79	19887.53
677.93	20187.12
678.07	20137.97
678.21	19740.08
678.34	20060.73
678.48	19796.25
678.62	19896.89
678.76	19807.95
678.90	19658.16
679.04	19716.67
679.18	19814.98
679.31	19384.32
679.45	19398.36
679.59	19707.31
679.73	19410.06
679.87	19239.20
680.00	19286.01
680.14	19157.28
680.28	19297.72
680.42	19222.82
680.56	19311.76
680.70	19044.94
680.83	19435.81
680.97	18948.98
681.11	18981.74
681.25	19021.53
681.39	18937.27
681.52	19161.97
681.66	18808.54
681.80	18466.83
681.94	18860.04
682.07	18537.04
682.21	18558.11
682.35	18298.31
682.49	18508.96
682.62	18120.43
682.76	18401.29
682.90	18237.45
683.04	18265.54
683.17	18195.32
683.31	18300.65
683.45	18625.98
683.59	17965.95
683.72	18075.96
683.86	18017.44
684.00	18003.40
684.13	17685.09
684.27	17649.98
684.41	17778.71
684.55	17441.67
684.68	17554.02
684.82	17392.52
684.96	17502.53
685.09	17385.50
685.23	17261.45
685.37	17160.81
685.50	17301.24
685.64	17284.86
685.78	17497.84
685.91	17371.46
686.05	16978.25
686.19	17064.85
686.32	17209.96
686.46	16753.55
686.60	16798.02
686.73	16973.56
686.87	16805.05
687.01	16512.48
687.14	16383.75
687.28	16229.27
687.42	16669.30
687.55	16187.14
687.69	16458.65
687.82	16374.39
687.96	16678.66
688.10	16168.42
688.23	16273.74
688.37	16479.71
688.50	16128.63
688.64	16119.27
688.78	16102.89
688.91	15791.59
689.05	15822.02
689.18	15695.63
689.32	15466.26
689.46	15566.90
689.59	15646.48
689.73	15499.03
689.86	15463.92
690.00	15470.94
690.13	15480.30
690.27	15501.37
690.41	15232.21
690.54	15351.57
690.68	15103.48
690.81	15377.32
690.95	15534.14
691.08	15309.44
691.22	15187.74
691.35	14972.41
691.49	15094.11
691.62	15049.64
691.76	14927.94
691.89	14864.74
692.03	14604.94
692.16	14471.53
692.30	14553.45
692.43	14590.90
692.57	14394.29
692.70	14391.95
692.84	14345.14
692.97	14132.15
693.11	14267.91
693.24	14359.19
693.38	14298.33
693.51	14047.90
693.65	14125.13
693.78	13715.54
693.92	13975.34
694.05	14188.33
694.19	13797.46
694.32	13895.76
694.45	13626.60
694.59	13586.81
694.72	13586.81
694.86	13708.52
694.99	13373.82
695.13	13282.54
695.26	13458.08
695.39	13570.43
695.53	13420.63
695.66	13252.11
695.80	13240.41
695.93	13371.48
696.07	12966.57
696.20	13191.26
696.33	12943.16
696.47	13095.30
696.60	13319.99
696.73	12889.33
696.87	12950.18
697.00	12910.40
697.14	12711.45
697.27	12636.55
697.40	12463.35
697.54	12521.87
697.67	12458.67
697.80	12301.86
697.94	12196.53
698.07	12173.13
698.21	12079.50
698.34	12173.13
698.47	12191.85
698.61	12128.66
698.74	12159.08
698.87	12346.33
699.01	11978.86
699.14	11964.82
699.27	11854.81
699.40	11817.36
699.54	11667.57
699.67	11702.68
699.80	11763.53
699.94	11786.94
700.07	11506.07
700.20	11536.50
700.34	11454.58
700.47	11456.92
700.60	11342.24
700.73	11534.16
700.87	11286.06
701.00	11438.20
701.13	11119.89
701.26	11328.19
701.40	11274.36
701.53	11199.46
701.66	11077.76
701.79	11016.90
701.93	11122.23
702.06	10729.02
702.19	10881.15
702.32	10780.51
702.46	10743.06
702.59	10511.35
702.72	10499.64
702.85	10518.37
702.99	10504.32
703.12	10576.88
703.25	10583.90
703.38	10499.64
703.51	10436.45
703.65	10487.94
703.78	10298.36
703.91	10293.68
704.04	10340.49
704.17	10260.91
704.31	10359.21
704.44	10012.81
704.57	10141.54
704.70	9858.34
704.83	9893.44
704.96	9823.23
705.10	9905.15
705.23	9776.42
>>>>>End Processed Spectral Data<<<<<
