SpectraSuite Data File
++++++++++++++++++++++++++++++++++++
Date: Fri Oct 18 13:58:21 GMT-05:00 2013
User: bianchi
Dark Spectrum Present: No
Reference Spectrum Present: No
Number of Sampled Component Spectra: 1
Spectrometers: USB2+H05261
Integration Time (usec): 50000 (USB2+H05261)
Spectra Averaged: 1 (USB2+H05261)
Boxcar Smoothing: 0 (USB2+H05261)
Correct for Electrical Dark: No (USB2+H05261)
Strobe/Lamp Enabled: No (USB2+H05261)
Correct for Detector Non-linearity: No (USB2+H05261)
Correct for Stray Light: No (USB2+H05261)
Number of Pixels in Processed Spectrum: 2048
>>>>>Begin Processed Spectral Data<<<<<
365.73	0.00
365.92	0.00
366.12	0.00
366.32	0.00
366.52	0.00
366.72	0.00
366.91	0.00
367.11	0.00
367.31	0.00
367.51	0.00
367.70	0.00
367.90	0.00
368.10	0.00
368.30	0.00
368.49	0.00
368.69	0.00
368.89	0.00
369.09	0.00
369.28	0.00
369.48	0.00
369.68	0.00
369.87	0.00
370.07	0.00
370.27	0.00
370.47	0.00
370.66	51.49
370.86	81.92
371.06	70.22
371.25	140.43
371.45	35.11
371.65	173.20
371.84	140.43
372.04	56.17
372.24	119.37
372.44	173.20
372.63	152.13
372.83	238.73
373.03	227.03
373.22	161.50
373.42	170.86
373.62	173.20
373.81	269.16
374.01	220.01
374.21	241.08
374.40	236.39
374.60	262.14
374.79	229.37
374.99	280.86
375.19	276.18
375.38	283.20
375.58	182.56
375.78	241.08
375.97	266.82
376.17	341.72
376.37	283.20
376.56	220.01
376.76	180.22
376.95	294.91
377.15	234.05
377.35	208.31
377.54	294.91
377.74	257.46
377.93	215.33
378.13	297.25
378.33	320.65
378.52	273.84
378.72	271.50
378.91	362.78
379.11	320.65
379.31	255.12
379.50	231.71
379.70	355.76
379.89	327.68
380.09	271.50
380.28	299.59
380.48	327.68
380.68	201.29
380.87	287.89
381.07	311.29
381.26	332.36
381.46	360.44
381.65	351.08
381.85	351.08
382.04	304.27
382.24	360.44
382.43	304.27
382.63	269.16
382.83	264.48
383.02	404.91
383.22	344.06
383.41	322.99
383.61	276.18
383.80	355.76
384.00	273.84
384.19	423.64
384.39	388.53
384.58	320.65
384.78	334.70
384.97	430.66
385.17	365.12
385.36	365.12
385.56	454.06
385.75	287.89
385.95	376.83
386.14	411.93
386.34	393.21
386.53	318.31
386.72	402.57
386.92	444.70
387.11	461.09
387.31	449.38
387.50	360.44
387.70	400.23
387.89	372.15
388.09	440.02
388.28	400.23
388.48	423.64
388.67	421.30
388.86	503.22
389.06	400.23
389.25	510.24
389.45	470.45
389.64	407.25
389.84	395.55
390.03	498.53
390.22	456.40
390.42	414.27
390.61	461.09
390.81	407.25
391.00	510.24
391.19	479.81
391.39	463.43
391.58	517.26
391.78	514.92
391.97	575.77
392.16	580.45
392.36	610.88
392.55	535.98
392.75	554.71
392.94	489.17
393.13	531.30
393.33	517.26
393.52	603.86
393.71	592.16
393.91	615.56
394.10	568.75
394.29	533.64
394.49	547.69
394.68	610.88
394.88	552.37
395.07	587.47
395.26	631.94
395.46	543.00
395.65	545.34
395.84	657.69
396.04	667.05
396.23	711.52
396.42	526.62
396.62	592.16
396.81	620.24
397.00	620.24
397.19	688.12
397.39	634.29
397.58	589.82
397.77	671.73
397.97	634.29
398.16	678.76
398.35	692.80
398.55	702.16
398.74	737.27
398.93	709.18
399.12	734.93
399.32	758.33
399.51	645.99
399.70	807.48
399.90	730.25
400.09	763.01
400.28	795.78
400.47	826.21
400.67	718.54
400.86	814.51
401.05	812.17
401.24	835.57
401.44	793.44
401.63	779.40
401.82	760.67
402.01	741.95
402.21	807.48
402.40	844.93
402.59	894.08
402.78	812.17
402.97	873.02
403.17	863.66
403.36	791.10
403.55	854.30
403.74	819.19
403.93	833.23
404.13	999.41
404.32	819.19
404.51	919.83
404.70	908.13
404.89	968.98
405.09	938.55
405.28	947.92
405.47	968.98
405.66	959.62
405.85	978.34
406.05	978.34
406.24	1048.56
406.43	1057.92
406.62	973.66
406.81	1057.92
407.00	933.87
407.20	966.64
407.39	924.51
407.58	1053.24
407.77	1053.24
407.96	1062.60
408.15	1149.20
408.34	1074.31
408.54	1121.12
408.73	1130.48
408.92	1142.18
409.11	1158.57
409.30	1102.39
409.49	1067.28
409.68	1102.39
409.87	1090.69
410.07	1097.71
410.26	1174.95
410.45	1158.57
410.64	1132.82
410.83	1144.52
411.02	1170.27
411.21	1156.22
411.40	1212.40
411.59	1268.57
411.78	1268.57
411.98	1224.10
412.17	1270.91
412.36	1273.25
412.55	1273.25
412.74	1371.55
412.93	1345.81
413.12	1359.85
413.31	1324.74
413.50	1268.57
413.69	1324.74
413.88	1432.41
414.07	1399.64
414.26	1474.54
414.45	1364.53
414.64	1523.69
414.83	1434.75
415.02	1448.79
415.22	1423.05
415.41	1561.14
415.60	1425.39
415.79	1603.27
415.98	1607.95
416.17	1579.86
416.36	1570.50
416.55	1605.61
416.74	1591.56
416.93	1652.42
417.12	1650.08
417.31	1593.90
417.50	1638.38
417.69	1671.14
417.88	1708.59
418.07	1736.68
418.26	1736.68
418.45	1802.21
418.64	1916.90
418.83	1767.10
419.02	1797.53
419.21	1778.81
419.39	1820.94
419.58	1806.89
419.77	1825.62
419.96	1842.00
420.15	1900.52
420.34	1849.02
420.53	1781.15
420.72	1877.11
420.91	1863.07
421.10	1856.04
421.29	1912.22
421.48	1764.76
421.67	1973.07
421.86	1989.46
422.05	1937.96
422.24	1994.14
422.43	1888.81
422.61	1898.17
422.80	2094.78
422.99	1987.11
423.18	1909.88
423.37	1921.58
423.56	1998.82
423.75	2022.22
423.94	2008.18
424.13	1902.86
424.32	1935.62
424.50	2054.99
424.69	2069.03
424.88	2083.08
425.07	1930.94
425.26	1909.88
425.45	1984.77
425.64	2031.58
425.83	1879.45
426.01	2062.01
426.20	2012.86
426.39	2010.52
426.58	2097.12
426.77	2019.88
426.96	2069.03
427.15	2017.54
427.33	2134.57
427.52	1968.39
427.71	2125.21
427.90	2188.40
428.09	2059.67
428.28	2169.68
428.46	2352.24
428.65	2150.95
428.84	2225.85
429.03	2256.28
429.22	2115.84
429.40	2239.89
429.59	2307.77
429.78	2118.18
429.97	2169.68
430.16	2190.74
430.34	2284.36
430.53	2396.71
430.72	2256.28
430.91	2225.85
431.10	2385.01
431.28	2335.85
431.47	2396.71
431.66	2298.41
431.85	2260.96
432.03	2328.83
432.22	2366.28
432.41	2427.14
432.60	2408.41
432.79	2450.54
432.97	2534.80
433.16	2506.71
433.35	2464.58
433.54	2532.46
433.72	2513.74
433.91	2480.97
434.10	2457.56
434.28	2590.97
434.47	2532.46
434.66	2525.44
434.85	2487.99
435.03	2572.25
435.22	2551.18
435.41	2691.62
435.59	2684.59
435.78	2672.89
435.97	2654.17
436.16	2686.94
436.34	2583.95
436.53	2684.59
436.72	2700.98
436.90	2675.23
437.09	2698.64
437.28	2670.55
437.46	2649.49
437.65	2773.53
437.84	2731.41
438.02	2733.75
438.21	2836.73
438.40	2885.88
438.58	2895.24
438.77	2862.48
438.96	2939.71
439.14	2984.18
439.33	2970.14
439.52	2904.60
439.70	2988.86
439.89	2862.48
440.08	2946.73
440.26	3033.33
440.45	2977.16
440.63	2972.48
440.82	3080.14
441.01	2974.82
441.19	3225.26
441.38	3248.66
441.57	3243.98
441.75	3241.64
441.94	3262.71
442.12	3260.37
442.31	3342.28
442.50	3297.81
442.68	3222.92
442.87	3201.85
443.05	3377.39
443.24	3300.16
443.43	3438.25
443.61	3290.79
443.80	3466.33
443.98	3321.22
444.17	3253.34
444.35	3398.46
444.54	3431.23
444.73	3396.12
444.91	3407.82
445.10	3421.86
445.28	3337.60
445.47	3311.86
445.65	3459.31
445.84	3346.97
446.02	3489.74
446.21	3478.04
446.39	3438.25
446.58	3543.57
446.77	3482.72
446.95	3431.23
447.14	3501.44
447.32	3489.74
447.51	3365.69
447.69	3351.65
447.88	3508.46
448.06	3471.01
448.25	3506.12
448.43	3569.32
448.62	3520.17
448.80	3522.51
448.99	3510.80
449.17	3632.51
449.36	3583.36
449.54	3611.45
449.73	3625.49
449.91	3548.25
450.10	3599.74
450.28	3794.01
450.46	3604.42
450.65	3674.64
450.83	3566.98
451.02	3742.52
451.20	3857.20
451.39	3660.60
451.57	3733.15
451.76	3590.38
451.94	3852.52
452.13	3889.97
452.31	3868.91
452.49	3758.90
452.68	3887.63
452.86	3761.24
453.05	3758.90
453.23	3817.41
453.42	3957.85
453.60	3988.27
453.78	3918.06
453.97	3742.52
454.15	3744.86
454.34	3941.46
454.52	4004.66
454.70	3964.87
454.89	4093.60
455.07	3941.46
455.26	4074.87
455.44	4072.53
455.62	3999.98
455.81	3995.29
455.99	3971.89
456.17	4259.78
456.36	4149.77
456.54	4138.07
456.73	4088.92
456.91	4365.10
457.09	4189.56
457.28	4287.86
457.46	4245.73
457.64	4245.73
457.83	4126.36
458.01	4320.63
458.19	4238.71
458.38	4184.88
458.56	4374.46
458.74	4264.46
458.93	4346.37
459.11	4449.36
459.29	4294.88
459.48	4437.66
459.66	4514.89
459.84	4550.00
460.03	4482.13
460.21	4510.21
460.39	4503.19
460.57	4528.94
460.76	4634.26
460.94	4645.96
461.12	4706.82
461.31	4662.35
461.49	4608.51
461.67	4638.94
461.85	4594.47
462.04	4620.22
462.22	4912.78
462.40	4791.08
462.59	4648.30
462.77	4770.01
462.95	4800.44
463.13	4732.56
463.32	4758.31
463.50	4781.71
463.68	4669.37
463.86	4833.21
464.05	4678.73
464.23	4737.24
464.41	4765.33
464.59	4709.16
464.78	4772.35
464.96	4800.44
465.14	4753.63
465.32	4882.36
465.50	4905.76
465.69	4957.25
465.87	5060.24
466.05	5074.28
466.23	4912.78
466.41	4959.60
466.60	5043.85
466.78	4938.53
466.96	5041.51
467.14	5069.60
467.32	5081.30
467.51	5158.54
467.69	4952.57
467.87	5139.82
468.05	5071.94
468.23	5081.30
468.41	5200.67
468.60	5109.39
468.78	5289.61
468.96	5195.99
469.14	5430.04
469.32	5139.82
469.50	5043.85
469.69	5303.65
469.87	5397.28
470.05	5385.57
470.23	5500.26
470.41	5327.06
470.59	5626.65
470.77	5434.72
470.95	5378.55
471.14	5568.13
471.32	5425.36
471.50	5565.79
471.68	5565.79
471.86	5500.26
472.04	5549.41
472.22	5755.38
472.40	5582.18
472.58	5860.70
472.77	5657.07
472.95	5647.71
473.13	5956.66
473.31	5809.21
473.49	5757.72
473.67	5877.09
473.85	5923.90
474.03	5937.94
474.21	5951.98
474.39	6059.65
474.57	6132.20
474.75	6108.80
474.93	6237.53
475.12	6050.28
475.30	6029.22
475.48	6127.52
475.66	6242.21
475.84	6256.25
476.02	6228.17
476.20	6155.61
476.38	6516.05
476.56	6574.56
476.74	6511.37
476.92	6445.84
477.10	6478.60
477.28	6672.87
477.46	6420.09
477.64	6459.88
477.82	6888.20
478.00	6904.58
478.18	6881.18
478.36	6984.16
478.54	7108.21
478.72	6904.58
478.90	7119.91
479.08	7171.40
479.26	7297.79
479.44	7176.08
479.62	7136.29
479.80	7297.79
479.98	7335.24
480.16	7480.35
480.34	7417.16
480.52	7541.21
480.70	7688.66
480.88	7447.58
481.06	7419.50
481.24	7449.93
481.41	7765.90
481.59	7967.18
481.77	7985.91
481.95	7866.54
482.13	8051.44
482.31	8170.81
482.49	8210.60
482.67	7908.67
482.85	8278.47
483.03	8547.64
483.21	8505.51
483.39	8582.74
483.57	8664.66
483.74	8486.78
483.92	8732.54
484.10	8702.11
484.28	8922.12
484.46	8861.27
484.64	8961.91
484.82	8800.41
485.00	8945.53
485.18	9139.79
485.35	9273.20
485.53	9172.56
485.71	9451.08
485.89	9537.68
486.07	9451.08
486.25	9315.33
486.43	9598.54
486.61	9802.16
486.78	9781.10
486.96	9973.02
487.14	9968.34
487.32	10005.79
487.50	10258.57
487.68	10010.47
487.85	10319.42
488.03	10338.15
488.21	10499.64
488.39	10494.96
488.57	10422.41
488.75	10546.45
488.92	10918.60
489.10	10700.93
489.28	10782.85
489.46	10974.77
489.64	10897.53
489.81	11239.25
489.99	11154.99
490.17	11080.10
490.35	11470.97
490.53	11393.73
490.70	11517.78
490.88	11356.28
491.06	11964.82
491.24	11627.78
491.41	11730.76
491.59	11822.05
491.77	11620.76
491.95	12166.10
492.13	11936.73
492.30	12217.60
492.48	12297.17
492.66	12053.76
492.84	11964.82
493.01	12439.95
493.19	12531.23
493.37	12645.91
493.54	12648.26
493.72	12613.15
493.90	12776.98
494.08	12875.29
494.25	13062.53
494.43	12891.67
494.61	13240.41
494.79	13121.04
494.96	13355.10
495.14	13270.84
495.32	13518.93
495.49	13614.90
495.67	13635.96
495.85	13547.02
496.02	13769.37
496.20	13668.73
496.38	13696.82
496.55	13886.40
496.73	14104.07
496.91	13816.18
497.09	14169.60
497.26	14328.76
497.44	14153.22
497.62	14001.08
497.79	14345.14
497.97	14539.41
498.14	14785.16
498.32	14658.78
498.50	14710.27
498.67	14773.46
498.85	14724.31
499.03	14883.47
499.20	14665.80
499.38	14963.04
499.56	15164.33
499.73	15220.50
499.91	15372.64
500.08	15377.32
500.26	15143.27
500.44	15300.08
500.61	14963.04
500.79	15379.66
500.97	15562.22
501.14	15564.56
501.32	15777.55
501.49	15709.68
501.67	15637.12
501.84	15639.46
502.02	15777.55
502.20	16046.71
502.37	16013.95
502.55	15822.02
502.72	15920.32
502.90	16002.24
503.07	16095.86
503.25	16233.96
503.43	16208.21
503.60	16643.55
503.78	16362.69
503.95	16535.88
504.13	16224.59
504.30	16578.01
504.48	16681.00
504.65	16262.04
504.83	16652.91
505.01	16910.37
505.18	16893.99
505.36	17001.65
505.53	16919.73
505.71	16723.13
505.88	16924.41
506.06	16884.62
506.23	17219.32
506.41	17130.38
506.58	17270.81
506.76	16903.35
506.93	17383.16
507.11	17205.28
507.28	17399.54
507.46	17387.84
507.63	17741.26
507.81	17855.95
507.98	17291.88
508.16	17589.13
508.33	17589.13
508.50	17769.35
508.68	18232.77
508.85	17909.78
509.03	17865.31
509.20	18176.60
509.38	18249.16
509.55	18506.62
509.73	18375.55
509.90	18403.63
510.08	18246.82
510.25	18120.43
510.42	18380.23
510.60	18672.79
510.77	18782.80
510.95	18661.09
511.12	18420.02
511.30	18232.77
511.47	18485.55
511.64	18731.31
511.82	18831.95
511.99	18815.57
512.17	18970.04
512.34	18937.27
512.51	18953.66
512.69	19087.07
512.86	19051.96
513.04	19508.37
513.21	19281.33
513.38	19276.65
513.56	19166.65
513.73	19351.55
513.90	19234.52
514.08	19466.24
514.25	19094.09
514.43	19894.55
514.60	19749.44
514.77	19793.91
514.95	19697.95
515.12	19569.22
515.29	19707.31
515.47	20233.93
515.64	19969.45
515.81	19854.76
515.99	19971.79
516.16	20018.60
516.33	20081.80
516.51	20161.37
516.68	19960.09
516.85	20233.93
517.03	20355.64
517.20	20510.11
517.37	20446.92
517.54	20365.00
517.72	20348.62
517.89	20252.66
518.06	20226.91
518.24	20266.70
518.41	20720.76
518.58	20615.44
518.75	20695.02
518.93	20917.37
519.10	20659.91
519.27	20734.81
519.45	20996.95
519.62	20893.96
519.79	20893.96
519.96	20910.35
520.14	20985.24
520.31	21055.46
520.48	20947.79
520.65	20966.52
520.83	20989.92
521.00	21282.49
521.17	21062.48
521.34	21366.75
521.52	21420.58
521.69	21275.47
521.86	21336.32
522.03	21816.13
522.20	21664.00
522.38	21891.03
522.55	21577.40
522.72	21511.86
522.89	21495.48
523.07	21748.26
523.24	21986.99
523.41	22216.36
523.58	22141.47
523.75	22024.44
523.92	21766.98
524.10	22003.38
524.27	22164.87
524.44	22141.47
524.61	22115.72
524.78	22066.57
524.96	22361.48
525.13	22309.99
525.30	22380.20
525.47	22389.56
525.64	22265.52
525.81	22352.12
525.98	22932.57
526.16	22628.30
526.33	22462.12
526.50	22948.95
526.67	22249.13
526.84	22703.20
527.01	22441.06
527.18	22852.99
527.36	23023.85
527.53	23077.68
527.70	23082.36
527.87	23007.47
528.04	23070.66
528.21	23206.41
528.38	23035.55
528.55	23388.97
528.72	22965.34
528.89	23274.29
529.07	23171.30
529.24	23201.73
529.41	23351.52
529.58	22965.34
529.75	23468.55
529.92	23295.35
530.09	23229.82
530.26	23789.20
530.43	23763.46
530.60	23276.63
530.77	23817.29
530.94	23730.69
531.11	23358.55
531.28	23557.49
531.46	23676.86
531.63	23653.45
531.80	23868.78
531.97	23971.77
532.14	24105.18
532.31	23864.10
532.48	23744.73
532.65	24084.11
532.82	23906.23
532.99	24123.90
533.16	24049.00
533.33	24013.90
533.50	24308.80
533.67	24306.46
533.84	24180.07
534.01	24374.34
534.18	23894.53
534.35	24264.33
534.52	24301.78
534.69	24563.92
534.86	24411.79
535.03	24425.83
535.20	24554.56
535.37	24276.04
535.54	24386.04
535.71	24517.11
535.88	24662.22
536.05	24535.84
536.22	24601.37
536.38	24767.55
536.55	24559.24
536.72	24809.68
536.89	24702.01
537.06	25158.42
537.23	24933.73
537.40	24746.48
537.57	24797.98
537.74	24999.26
537.91	25106.93
538.08	25067.14
538.25	25369.07
538.42	25017.99
538.59	24987.56
538.75	24669.25
538.92	25160.76
539.09	25282.47
539.26	25413.54
539.43	25146.72
539.60	25116.29
539.77	25582.06
539.94	25493.12
540.11	25460.35
540.28	25598.44
540.44	25111.61
540.61	25238.00
540.78	25626.53
540.95	25528.22
541.12	25500.14
541.29	25427.58
541.46	25474.39
541.62	25427.58
541.79	25296.51
541.96	25317.57
542.13	25523.54
542.30	25926.11
542.47	26225.70
542.63	25713.13
542.80	25891.01
542.97	26316.98
543.14	25965.90
543.31	26017.40
543.48	25975.27
543.64	26003.35
543.81	26199.96
543.98	26216.34
544.15	26532.31
544.32	26628.27
544.48	26782.75
544.65	26225.70
544.82	25982.29
544.99	26244.43
545.16	26171.87
545.32	26204.64
545.49	26604.87
545.66	26843.60
545.83	26953.61
546.00	26654.02
546.16	26710.19
546.33	26497.20
546.50	26312.30
546.67	26277.19
546.83	26022.08
547.00	26436.35
547.17	26569.76
547.34	26609.55
547.50	26965.31
547.67	26934.88
547.84	26609.55
548.00	27171.28
548.17	26778.07
548.34	26829.56
548.51	26885.73
548.67	26916.16
548.84	26742.96
549.01	27335.12
549.18	26930.20
549.34	27019.14
549.51	27220.43
549.68	27150.21
549.84	26988.72
550.01	26937.23
550.18	26686.79
550.34	27075.32
550.51	27253.20
550.68	26984.04
550.84	26874.03
551.01	27470.87
551.18	27227.45
551.34	27140.85
551.51	27491.93
551.68	27587.89
551.84	27513.00
552.01	27302.35
552.18	27515.34
552.34	27468.53
552.51	27367.88
552.68	27463.85
552.84	27461.51
553.01	27728.33
553.18	27625.34
553.34	27950.68
553.51	27800.88
553.67	27527.04
553.84	27978.76
554.01	27634.71
554.17	27456.82
554.34	27828.97
554.51	27384.27
554.67	27639.39
554.84	27934.29
555.00	27964.72
555.17	27864.08
555.33	27648.75
555.50	28140.26
555.67	27913.23
555.83	27950.68
556.00	28018.55
556.16	28027.92
556.33	27770.46
556.50	28074.73
556.66	28390.70
556.83	27758.75
556.99	28418.78
557.16	28341.55
557.32	28404.74
557.49	28135.58
557.65	28027.92
557.82	28032.60
557.98	27934.29
558.15	28226.86
558.32	28006.85
558.48	28173.03
558.65	28343.89
558.81	28376.66
558.98	28362.61
559.14	28463.25
559.31	28514.75
559.47	28362.61
559.64	28308.78
559.80	28383.68
559.97	28432.83
560.13	28355.59
560.30	28542.83
560.46	28276.01
560.63	28460.91
560.79	28212.82
560.96	28835.40
561.12	28758.16
561.29	28790.93
561.45	28648.16
561.61	28481.98
561.78	28819.02
561.94	28706.67
562.11	28568.58
562.27	28561.56
562.44	28814.34
562.60	28521.77
562.77	28795.61
562.93	28552.20
563.10	28790.93
563.26	28615.39
563.42	28795.61
563.59	28603.69
563.75	28577.94
563.92	28980.51
564.08	28437.51
564.24	28664.54
564.41	28877.53
564.57	28575.60
564.74	28322.82
564.90	28720.71
565.07	28964.13
565.23	28931.36
565.39	28727.74
565.56	29146.69
565.72	28774.55
565.88	28851.78
566.05	29273.08
566.21	28954.77
566.38	28833.06
566.54	29130.31
566.70	28819.02
566.87	29350.32
567.03	28685.61
567.19	29097.54
567.36	29230.95
567.52	29036.69
567.68	28989.88
567.85	28968.81
568.01	29411.17
568.17	29036.69
568.34	29106.90
568.50	29221.59
568.66	29387.77
568.83	29277.76
568.99	29188.82
569.15	28924.34
569.32	29184.14
569.48	28734.76
569.64	28912.64
569.81	29315.21
569.97	29174.78
570.13	29280.10
570.30	28802.63
570.46	29347.98
570.62	29305.85
570.78	29336.27
570.95	29085.84
571.11	29303.51
571.27	29015.62
571.43	28975.83
571.60	29069.45
571.76	29132.65
571.92	29062.43
572.09	29074.13
572.25	29333.93
572.41	29558.63
572.57	29469.69
572.74	29289.46
572.90	29167.76
573.06	29500.11
573.22	29202.86
573.38	29479.05
573.55	29397.13
573.71	29575.01
573.87	29659.27
574.03	29481.39
574.20	29507.13
574.36	29301.17
574.52	29181.80
574.68	29263.72
574.84	29425.22
575.01	29392.45
575.17	29315.21
575.33	29392.45
575.49	29603.10
575.65	29446.28
575.82	29153.71
575.98	29235.63
576.14	29479.05
576.30	29130.31
576.46	29200.52
576.62	29022.64
576.79	29439.26
576.95	29144.35
577.11	29509.47
577.27	29575.01
577.43	29813.74
577.59	29333.93
577.75	29317.55
577.92	29319.89
578.08	29020.30
578.24	29631.18
578.40	29549.26
578.56	29493.09
578.72	29165.42
578.88	29764.59
579.04	29455.64
579.21	29329.25
579.37	29738.85
579.53	29670.97
579.69	29209.89
579.85	29556.28
580.01	29401.81
580.17	29472.03
580.33	29411.17
580.49	29275.42
580.65	29589.05
580.82	29771.61
580.98	29928.43
581.14	29663.95
581.30	29811.40
581.46	29923.75
581.62	29153.71
581.78	29291.80
581.94	29642.88
582.10	29626.50
582.26	29647.57
582.42	29766.93
582.58	29923.75
582.74	29605.44
582.90	29500.11
583.06	29806.72
583.22	29457.98
583.38	29624.16
583.54	29493.09
583.70	29734.17
583.86	29479.05
584.02	29682.67
584.18	29689.70
584.34	29773.95
584.50	29420.53
584.66	29755.23
584.82	29399.47
584.98	29593.73
585.14	29647.57
585.30	29270.74
585.46	29500.11
585.62	29598.41
585.78	29252.02
585.94	29413.51
586.10	29598.41
586.26	29626.50
586.42	29572.67
586.58	29998.65
586.74	29411.17
586.90	29865.24
587.06	29450.96
587.22	29457.98
587.38	29565.65
587.54	29865.24
587.70	29970.56
587.86	29722.46
588.02	29937.79
588.18	29965.88
588.34	29745.87
588.49	29682.67
588.65	29895.66
588.81	29474.37
588.97	29717.78
589.13	29764.59
589.29	30052.48
589.45	29811.40
589.61	30040.78
589.77	30167.16
589.93	30127.38
590.08	29926.09
590.24	30078.22
590.40	30307.60
590.56	29860.55
590.72	29851.19
590.88	29996.31
591.04	29935.45
591.20	30057.16
591.35	30237.38
591.51	30476.12
591.67	30068.86
591.83	30356.75
591.99	30256.11
592.15	30113.33
592.31	29486.07
592.46	29858.21
592.62	30101.63
592.78	29656.93
592.94	29708.42
593.10	29926.09
593.26	30300.58
593.41	30246.74
593.57	29855.87
593.73	29806.72
593.89	30192.91
594.05	30331.00
594.20	30066.52
594.36	30274.83
594.52	29968.22
594.68	30038.44
594.84	29832.47
594.99	30078.22
595.15	29933.11
595.31	30546.33
595.47	30101.63
595.62	30162.48
595.78	30323.98
595.94	30223.34
596.10	30185.89
596.25	30536.97
596.41	29912.05
596.57	29809.06
596.73	30298.23
596.88	30064.18
597.04	29832.47
597.20	30356.75
597.36	30164.82
597.51	30616.55
597.67	30249.08
597.83	30370.79
597.99	30260.79
598.14	30132.06
598.30	30197.59
598.46	30033.75
598.61	30642.29
598.77	30080.56
598.93	30155.46
599.09	30628.25
599.24	30506.54
599.40	30335.68
599.56	30291.21
599.71	30221.00
599.87	30246.74
600.03	30181.21
600.18	30129.72
600.34	30005.67
600.50	30457.39
600.65	30139.08
600.81	30543.99
600.97	30408.24
601.12	30616.55
601.28	30031.41
601.44	30424.62
601.59	30480.80
601.75	30197.59
601.91	30305.26
602.06	29993.97
602.22	30206.95
602.37	30031.41
602.53	30192.91
602.69	30300.58
602.84	30412.92
603.00	30415.26
603.16	30249.08
603.31	30202.27
603.47	30281.85
603.62	30277.17
603.78	29823.11
603.94	30171.85
604.09	30110.99
604.25	30092.27
604.40	30293.55
604.56	30464.41
604.71	30054.82
604.87	30239.72
605.03	30422.28
605.18	30419.94
605.34	30085.25
605.49	29788.00
605.65	30017.37
605.80	29839.49
605.96	30164.82
606.12	30202.27
606.27	30169.51
606.43	30015.03
606.58	29968.22
606.74	30258.45
606.89	30015.03
607.05	30010.35
607.20	30368.45
607.36	30017.37
607.51	30312.28
607.67	29865.24
607.82	29560.97
607.98	30033.75
608.13	29961.20
608.29	29998.65
608.44	30417.60
608.60	30251.42
608.75	30389.52
608.91	29996.31
609.06	30080.56
609.22	29996.31
609.37	29659.27
609.53	30036.09
609.68	29795.02
609.84	29989.28
609.99	29710.76
610.15	30024.39
610.30	30024.39
610.46	29689.70
610.61	29846.51
610.76	29731.83
610.92	30003.33
611.07	29773.95
611.23	29963.54
611.38	29640.54
611.54	29551.60
611.69	29649.91
611.84	29628.84
612.00	29638.20
612.15	29766.93
612.31	29855.87
612.46	29500.11
612.62	30019.71
612.77	29839.49
612.92	30136.74
613.08	29837.15
613.23	29474.37
613.39	29661.61
613.54	29455.64
613.69	29247.33
613.85	29778.64
614.00	29598.41
614.15	29668.63
614.31	29371.38
614.46	29687.36
614.62	29567.99
614.77	29453.30
614.92	29790.34
615.08	29652.25
615.23	29610.12
615.38	29722.46
615.54	29088.18
615.69	29280.10
615.84	29184.14
616.00	29654.59
616.15	29263.72
616.30	29710.76
616.46	29905.02
616.61	29343.30
616.76	29724.80
616.92	29429.90
617.07	29504.79
617.22	29317.55
617.37	29167.76
617.53	29699.06
617.68	29216.91
617.83	29291.80
617.99	28954.77
618.14	29221.59
618.29	29631.18
618.45	29387.77
618.60	29273.08
618.75	29179.46
618.90	29345.64
619.06	29649.91
619.21	28926.68
619.36	29184.14
619.51	29167.76
619.67	28746.46
619.82	29085.84
619.97	29111.58
620.12	28659.86
620.28	28671.56
620.43	29134.99
620.58	29223.93
620.73	29174.78
620.89	29373.72
621.04	28877.53
621.19	29254.36
621.34	28938.38
621.49	28638.80
621.65	28636.45
621.80	28992.22
621.95	28854.12
622.10	28929.02
622.25	28521.77
622.41	28561.56
622.56	29036.69
622.71	28706.67
622.86	28744.12
623.01	28868.17
623.16	28842.42
623.32	28804.97
623.47	28687.95
623.62	28446.87
623.77	28123.88
623.92	28900.94
624.07	28765.18
624.23	28493.68
624.38	29017.96
624.53	28453.89
624.68	28877.53
624.83	28435.17
624.98	28802.63
625.13	28379.00
625.29	28854.12
625.44	28561.56
625.59	28669.22
625.74	28648.16
625.89	28215.16
626.04	28514.75
626.19	28285.37
626.34	28231.54
626.49	28320.48
626.65	28259.63
626.80	28751.14
626.95	28519.43
627.10	28432.83
627.25	28350.91
627.40	28212.82
627.55	28060.68
627.70	27889.82
627.85	28357.93
628.00	28020.89
628.15	28329.84
628.30	27938.97
628.45	28123.88
628.60	28268.99
628.76	28212.82
628.91	28334.53
629.06	28180.05
629.21	28432.83
629.36	28416.44
629.51	28100.47
629.66	28070.04
629.81	27725.99
629.96	27728.33
630.11	27641.73
630.26	28081.75
630.41	27590.24
630.56	27889.82
630.71	28201.11
630.86	28264.31
631.01	27941.32
631.16	27871.10
631.31	27735.35
631.46	27833.65
631.61	28095.79
631.76	28063.02
631.91	27625.34
632.06	27529.38
632.21	27599.60
632.36	27482.57
632.51	27211.07
632.66	27545.76
632.81	27730.67
632.96	27716.62
633.10	27723.65
633.25	28070.04
633.40	27501.29
633.55	27821.95
633.70	27145.53
633.85	27601.94
634.00	27503.64
634.15	27316.39
634.30	27126.81
634.45	27456.82
634.60	27428.74
634.75	27117.45
634.90	27164.26
635.05	27634.71
635.19	27606.62
635.34	27452.14
635.49	27332.78
635.64	27515.34
635.79	27246.18
635.94	27222.77
636.09	27487.25
636.24	27133.83
636.39	27323.41
636.53	27049.57
636.68	27166.60
636.83	27234.47
636.98	27232.13
637.13	26979.36
637.28	27080.00
637.43	27573.85
637.57	26977.01
637.72	27178.30
637.87	27199.37
638.02	26796.79
638.17	27133.83
638.32	26841.26
638.46	26705.51
638.61	26326.35
638.76	27056.59
638.91	26801.47
639.06	26885.73
639.20	26672.74
639.35	26960.63
639.50	27168.94
639.65	27077.66
639.80	27466.19
639.94	26843.60
640.09	27129.15
640.24	26932.54
640.39	26857.65
640.54	26508.91
640.68	26476.14
640.83	26586.15
640.98	26391.88
641.13	26295.92
641.27	26733.60
641.42	26789.77
641.57	26817.86
641.72	26583.80
641.86	26635.30
642.01	26328.69
642.16	26274.85
642.31	26347.41
642.45	26492.52
642.60	26214.00
642.75	26085.27
642.90	26136.76
643.04	26434.01
643.19	26593.17
643.34	26792.11
643.48	26120.38
643.63	26457.42
643.78	26431.67
643.93	26623.59
644.07	26286.56
644.22	26745.30
644.37	26408.26
644.51	26174.21
644.66	26115.70
644.81	26284.22
644.95	26047.82
645.10	25993.99
645.25	26265.49
645.39	26080.59
645.54	26288.90
645.69	26045.48
645.83	26281.88
645.98	26366.13
646.13	26192.94
646.27	26199.96
646.42	26029.10
646.57	26064.21
646.71	26192.94
646.86	26153.15
647.00	26003.35
647.15	26022.08
647.30	26085.27
647.44	25685.04
647.59	25832.49
647.74	26211.66
647.88	25696.74
648.03	26031.44
648.17	26078.25
648.32	25919.09
648.47	26122.72
648.61	25923.77
648.76	26136.76
648.90	25682.70
649.05	26209.32
649.20	25839.51
649.34	25326.94
649.49	25443.96
649.63	25476.73
649.78	25556.31
649.92	25401.83
650.07	25867.60
650.21	25544.61
650.36	25511.84
650.51	25504.82
650.65	25577.37
650.80	25954.20
650.94	25483.75
651.09	25504.82
651.23	25549.29
651.38	25441.62
651.52	25214.59
651.67	25263.74
651.81	25682.70
651.96	25666.31
652.10	25565.67
652.25	25748.23
652.39	25495.46
652.54	25359.70
652.68	25352.68
652.83	25776.32
652.97	25539.93
653.12	25741.21
653.26	25039.05
653.41	25212.25
653.55	25380.77
653.70	25034.37
653.84	25479.07
653.99	24980.54
654.13	25612.48
654.27	24957.13
654.42	25207.57
654.56	24929.05
654.71	25523.54
654.85	25359.70
655.00	25205.23
655.14	24999.26
655.29	25275.45
655.43	25401.83
655.57	24833.08
655.72	24926.71
655.86	24966.49
656.01	24973.52
656.15	24989.90
656.30	24926.71
656.44	24975.86
656.58	24828.40
656.73	24673.93
656.87	24943.09
657.01	24835.42
657.16	25029.69
657.30	25310.55
657.45	24865.85
657.59	24959.47
657.73	24521.79
657.88	24697.33
658.02	24657.54
658.16	24500.73
658.31	24851.81
658.45	24793.29
658.60	24467.96
658.74	24589.67
658.88	24762.87
659.03	24596.69
659.17	24592.01
659.31	24678.61
659.46	24547.54
659.60	24718.40
659.74	24217.52
659.89	24423.49
660.03	24430.51
660.17	24226.89
660.32	23967.09
660.46	24144.97
660.60	24074.75
660.74	24294.76
660.89	24208.16
661.03	24016.24
661.17	24034.96
661.32	24229.23
661.46	24519.45
661.60	24173.05
661.74	24226.89
661.89	24041.98
662.03	24346.25
662.17	23953.04
662.31	23814.95
662.46	24049.00
662.60	23948.36
662.74	23749.42
662.88	23775.16
663.03	23704.95
663.17	23796.23
663.31	23358.55
663.45	23452.17
663.60	23410.04
663.74	23325.78
663.88	23873.46
664.02	23995.17
664.17	23791.55
664.31	23676.86
664.45	23831.33
664.59	23489.62
664.73	23611.32
664.88	23058.96
665.02	23248.54
665.16	23248.54
665.30	23241.52
665.44	23185.35
665.59	22974.70
665.73	23133.86
665.87	23012.15
666.01	23386.63
666.15	23417.06
666.29	23321.10
666.44	22888.10
666.58	23033.21
666.72	22710.22
666.86	23019.17
667.00	23103.43
667.14	22520.63
667.28	22567.45
667.43	22693.83
667.57	22984.06
667.71	22829.59
667.85	22347.44
667.99	22513.61
668.13	22621.28
668.27	22572.13
668.41	22691.49
668.56	22450.42
668.70	22724.26
668.84	22562.76
668.98	22361.48
669.12	22431.69
669.26	22548.72
669.40	22560.42
669.54	22515.95
669.68	22771.07
669.82	22015.08
669.96	22150.83
670.10	21874.65
670.25	22272.54
670.39	22057.21
670.53	22003.38
670.67	21823.16
670.81	22141.47
670.95	22024.44
671.09	22223.39
671.23	21898.05
671.37	22174.24
671.51	21996.35
671.65	21933.16
671.79	21408.88
671.93	21743.58
672.07	21406.54
672.21	21443.99
672.35	21411.22
672.49	21610.17
672.63	21661.66
672.77	21193.55
672.91	21631.23
673.05	21359.73
673.19	21345.69
673.33	21406.54
673.47	21233.34
673.61	21497.82
673.75	21200.57
673.89	21331.64
674.03	21184.19
674.17	21336.32
674.31	21343.35
674.45	20996.95
674.59	21200.57
674.73	21013.33
674.87	20812.04
675.01	20989.92
675.15	20772.25
675.29	20716.08
675.43	20680.97
675.56	20774.60
675.70	20655.23
675.84	20470.33
675.98	19887.53
676.12	20563.95
676.26	20734.81
676.40	20547.56
676.54	20475.01
676.68	20442.24
676.82	19873.49
676.96	20144.99
677.10	20311.17
677.23	19899.23
677.37	19969.45
677.51	20058.39
677.65	20308.83
677.79	19571.56
677.93	19934.34
678.07	19356.23
678.21	19662.84
678.34	19428.79
678.48	19499.00
678.62	19552.84
678.76	19407.72
678.90	19253.25
679.04	19389.00
679.18	19365.59
679.31	18967.70
679.45	19157.28
679.59	18686.84
679.73	19028.56
679.87	18981.74
680.00	18843.65
680.14	18822.59
680.28	18504.28
680.42	18719.60
680.56	18853.02
680.70	18551.09
680.83	18602.58
680.97	18462.15
681.11	18661.09
681.25	18291.29
681.39	18759.39
681.52	18759.39
681.66	18256.18
681.80	17975.31
681.94	18036.17
682.07	18494.91
682.21	18104.04
682.35	18106.38
682.49	17958.93
682.62	17963.61
682.76	17769.35
682.90	18033.83
683.04	17865.31
683.17	17535.29
683.31	17872.33
683.45	17638.28
683.59	17488.48
683.72	17577.42
683.86	17551.68
684.00	17603.17
684.13	17273.15
684.27	17364.43
684.41	17277.83
684.55	16884.62
684.68	17088.25
684.82	16854.20
684.96	16980.59
685.09	16837.81
685.23	16645.89
685.37	16739.51
685.50	16910.37
685.64	16891.65
685.78	16945.48
685.91	17092.93
686.05	16828.45
686.19	16659.93
686.32	16751.21
686.46	16531.20
686.60	16264.38
686.73	16119.27
686.87	16383.75
687.01	16411.84
687.14	16229.27
687.28	16032.67
687.42	16025.65
687.55	15950.75
687.69	15850.11
687.82	15882.88
687.96	16107.57
688.10	15913.30
688.23	15861.81
688.37	15955.43
688.50	15899.26
688.64	15714.36
688.78	15875.85
688.91	15487.32
689.05	15316.47
689.18	15466.26
689.32	15215.82
689.46	15197.10
689.59	15161.99
689.73	15309.44
689.86	15311.78
690.00	15309.44
690.13	15070.71
690.27	14906.87
690.41	15068.37
690.54	14881.13
690.68	14953.68
690.81	14820.27
690.95	14752.40
691.08	14785.16
691.22	14738.35
691.35	14682.18
691.49	14651.75
691.62	14579.20
691.76	14228.12
691.89	14607.28
692.03	14148.54
692.16	14012.79
692.30	14115.77
692.43	13914.48
692.57	13926.19
692.70	13998.74
692.84	14045.55
692.97	13736.60
693.11	13973.00
693.24	13862.99
693.38	13898.10
693.51	14033.85
693.65	13364.46
693.78	13703.84
693.92	13598.51
694.05	13561.06
694.19	13476.80
694.32	13605.53
694.45	13490.85
694.59	13338.71
694.72	13437.02
694.86	13268.50
694.99	13029.76
695.13	13205.30
695.26	13048.49
695.39	12875.29
695.53	13011.04
695.66	13088.28
695.80	12692.73
695.93	12849.54
696.07	12812.09
696.20	12982.95
696.33	12917.42
696.47	12769.96
696.60	12421.22
696.73	12617.83
696.87	12552.29
697.00	12444.63
697.14	12585.06
697.27	12400.16
697.40	11976.52
697.54	12086.53
697.67	12109.93
697.80	12278.45
697.94	11953.12
698.07	12028.01
698.21	12184.83
698.34	11990.56
698.47	11740.13
698.61	11756.51
698.74	11955.46
698.87	11948.43
699.01	11749.49
699.14	11796.30
699.27	11726.08
699.40	11808.00
699.54	11520.12
699.67	11344.58
699.80	11438.20
699.94	11470.97
700.07	11393.73
700.20	11417.13
700.34	11143.29
700.47	11056.69
700.60	11232.23
700.73	11040.31
700.87	11082.44
701.00	11073.07
701.13	10843.70
701.26	10988.82
701.40	11000.52
701.53	11042.65
701.66	10902.22
701.79	10621.35
701.93	10895.19
702.06	10595.61
702.19	10452.83
702.32	10466.88
702.46	10389.64
702.59	10228.14
702.72	10413.04
702.85	10277.29
702.99	10523.05
703.12	10347.51
703.25	10211.76
703.38	10246.87
703.51	10223.46
703.65	10167.29
703.78	10019.83
703.91	9996.43
704.04	10101.75
704.17	10064.30
704.31	9774.08
704.44	9886.42
704.57	9764.72
704.70	9788.12
704.83	9437.04
704.96	9645.35
705.10	9565.77
705.23	9664.07
>>>>>End Processed Spectral Data<<<<<
