SpectraSuite Data File
++++++++++++++++++++++++++++++++++++
Date: Fri Oct 18 13:58:37 GMT-05:00 2013
User: bianchi
Dark Spectrum Present: No
Reference Spectrum Present: No
Number of Sampled Component Spectra: 1
Spectrometers: USB2+H05261
Integration Time (usec): 50000 (USB2+H05261)
Spectra Averaged: 1 (USB2+H05261)
Boxcar Smoothing: 0 (USB2+H05261)
Correct for Electrical Dark: No (USB2+H05261)
Strobe/Lamp Enabled: No (USB2+H05261)
Correct for Detector Non-linearity: No (USB2+H05261)
Correct for Stray Light: No (USB2+H05261)
Number of Pixels in Processed Spectrum: 2048
>>>>>Begin Processed Spectral Data<<<<<
365.73	0.00
365.92	0.00
366.12	0.00
366.32	0.00
366.52	0.00
366.72	0.00
366.91	0.00
367.11	0.00
367.31	0.00
367.51	0.00
367.70	0.00
367.90	0.00
368.10	0.00
368.30	0.00
368.49	0.00
368.69	0.00
368.89	0.00
369.09	0.00
369.28	0.00
369.48	0.00
369.68	0.00
369.87	0.00
370.07	0.00
370.27	0.00
370.47	0.00
370.66	25.75
370.86	117.03
371.06	208.31
371.25	163.84
371.45	112.35
371.65	217.67
371.84	102.98
372.04	124.05
372.24	131.07
372.44	168.52
372.63	119.37
372.83	191.92
373.03	304.27
373.22	241.08
373.42	212.99
373.62	269.16
373.81	262.14
374.01	259.80
374.21	194.26
374.40	250.44
374.60	283.20
374.79	287.89
374.99	140.43
375.19	248.10
375.38	220.01
375.58	259.80
375.78	278.52
375.97	238.73
376.17	227.03
376.37	194.26
376.56	311.29
376.76	234.05
376.95	212.99
377.15	283.20
377.35	231.71
377.54	250.44
377.74	252.78
377.93	283.20
378.13	212.99
378.33	243.42
378.52	266.82
378.72	276.18
378.91	304.27
379.11	299.59
379.31	285.55
379.50	250.44
379.70	278.52
379.89	369.80
380.09	278.52
380.28	332.36
380.48	325.33
380.68	290.23
380.87	285.55
381.07	327.68
381.26	353.42
381.46	304.27
381.65	381.51
381.85	367.46
382.04	388.53
382.24	346.40
382.43	397.89
382.63	346.40
382.83	292.57
383.02	409.59
383.22	351.08
383.41	390.87
383.61	355.76
383.80	369.80
384.00	383.85
384.19	299.59
384.39	280.86
384.58	353.42
384.78	306.61
384.97	421.30
385.17	386.19
385.36	397.89
385.56	381.51
385.75	376.83
385.95	337.04
386.14	365.12
386.34	425.98
386.53	369.80
386.72	348.74
386.92	435.34
387.11	397.89
387.31	358.10
387.50	458.74
387.70	433.00
387.89	395.55
388.09	320.65
388.28	423.64
388.48	468.11
388.67	468.11
388.86	472.79
389.06	531.30
389.25	512.58
389.45	393.21
389.64	498.53
389.84	468.11
390.03	397.89
390.22	519.60
390.42	444.70
390.61	458.74
390.81	500.87
391.00	592.16
391.19	566.41
391.39	458.74
391.58	477.47
391.78	582.79
391.97	545.34
392.16	507.90
392.36	582.79
392.55	507.90
392.75	545.34
392.94	496.19
393.13	440.02
393.33	594.50
393.52	566.41
393.71	568.75
393.91	519.60
394.10	498.53
394.29	517.26
394.49	678.76
394.68	575.77
394.88	599.18
395.07	603.86
395.26	554.71
395.46	578.11
395.65	606.20
395.84	575.77
396.04	669.39
396.23	594.50
396.42	678.76
396.62	650.67
396.81	660.03
397.00	688.12
397.19	690.46
397.39	692.80
397.58	594.50
397.77	702.16
397.97	631.94
398.16	699.82
398.35	720.88
398.55	751.31
398.74	732.59
398.93	648.33
399.12	760.67
399.32	816.85
399.51	781.74
399.70	777.06
399.90	751.31
400.09	730.25
400.28	751.31
400.47	774.72
400.67	814.51
400.86	744.29
401.05	748.97
401.24	828.55
401.44	767.70
401.63	763.01
401.82	840.25
402.01	833.23
402.21	772.38
402.40	807.48
402.59	819.19
402.78	830.89
402.97	844.93
403.17	798.12
403.36	903.45
403.55	950.26
403.74	905.79
403.93	870.68
404.13	910.47
404.32	851.96
404.51	954.94
404.70	983.02
404.89	1020.47
405.09	924.51
405.28	882.38
405.47	997.07
405.66	910.47
405.85	992.39
406.05	889.40
406.24	961.96
406.43	999.41
406.62	1036.86
406.81	1029.84
407.00	1011.11
407.20	957.28
407.39	1025.15
407.58	1057.92
407.77	1055.58
407.96	1081.33
408.15	1076.65
408.34	1088.35
408.54	1029.84
408.73	1137.50
408.92	1104.73
409.11	1107.07
409.30	1128.14
409.49	1193.67
409.68	1104.73
409.87	1107.07
410.07	1224.10
410.26	1160.91
410.45	1174.95
410.64	1167.93
410.83	1153.88
411.02	1174.95
411.21	1254.53
411.40	1284.95
411.59	1322.40
411.78	1249.85
411.98	1247.51
412.17	1383.26
412.36	1242.82
412.55	1357.51
412.74	1488.58
412.93	1329.42
413.12	1401.98
413.31	1420.71
413.50	1284.95
413.69	1378.58
413.88	1385.60
414.07	1378.58
414.26	1465.18
414.45	1458.15
414.64	1605.61
414.83	1493.26
415.02	1472.20
415.22	1519.01
415.41	1614.97
415.60	1551.78
415.79	1643.06
415.98	1621.99
416.17	1657.10
416.36	1554.12
416.55	1549.43
416.74	1521.35
416.93	1575.18
417.12	1603.27
417.31	1708.59
417.50	1736.68
417.69	1675.82
417.88	1788.17
418.07	1748.38
418.26	1696.89
418.45	1781.15
418.64	1823.28
418.83	1778.81
419.02	1816.26
419.21	1799.87
419.39	1905.20
419.58	1806.89
419.77	1806.89
419.96	1820.94
420.15	1893.49
420.34	1900.52
420.53	1790.51
420.72	1952.01
420.91	1935.62
421.10	1991.80
421.29	2001.16
421.48	1968.39
421.67	1970.73
421.86	2047.97
422.05	1961.37
422.24	1898.17
422.43	2010.52
422.61	2076.06
422.80	2012.86
422.99	2003.50
423.18	2031.58
423.37	2026.90
423.56	1984.77
423.75	1989.46
423.94	2024.56
424.13	1928.60
424.32	2029.24
424.50	2005.84
424.69	2113.50
424.88	2174.36
425.07	1980.09
425.26	1907.54
425.45	2073.71
425.64	1977.75
425.83	2047.97
426.01	2092.44
426.20	2008.18
426.39	2064.35
426.58	2038.61
426.77	2071.37
426.96	2120.53
427.15	2115.84
427.33	2136.91
427.52	2125.21
427.71	2207.13
427.90	2221.17
428.09	2150.95
428.28	2141.59
428.46	2207.13
428.65	2349.90
428.84	2258.62
429.03	2328.83
429.22	2101.80
429.40	2333.51
429.59	2211.81
429.78	2136.91
429.97	2169.68
430.16	2232.87
430.34	2303.09
430.53	2263.30
430.72	2296.07
430.91	2326.49
431.10	2286.70
431.28	2314.79
431.47	2256.28
431.66	2441.18
431.85	2424.80
432.03	2349.90
432.22	2267.98
432.41	2417.77
432.60	2469.27
432.79	2335.85
432.97	2471.61
433.16	2509.05
433.35	2389.69
433.54	2422.45
433.72	2569.91
433.91	2429.48
434.10	2516.08
434.28	2551.18
434.47	2621.40
434.66	2429.48
434.85	2553.52
435.03	2525.44
435.22	2677.57
435.41	2506.71
435.59	2553.52
435.78	2541.82
435.97	2546.50
436.16	2541.82
436.34	2740.77
436.53	2532.46
436.72	2801.62
436.90	2675.23
437.09	2691.62
437.28	2675.23
437.46	2705.66
437.65	2722.04
437.84	2710.34
438.02	2743.11
438.21	2722.04
438.40	2766.51
438.58	2986.52
438.77	3033.33
438.96	2864.82
439.14	2803.96
439.33	2963.12
439.52	3049.72
439.70	2944.39
439.89	3035.67
440.08	3012.27
440.26	3108.23
440.45	3056.74
440.63	3133.98
440.82	3152.70
441.01	3061.42
441.19	3227.60
441.38	3110.57
441.57	3307.18
441.75	3094.19
441.94	3276.75
442.12	3236.96
442.31	3389.10
442.50	3290.79
442.68	3199.51
442.87	3211.22
443.05	3344.63
443.24	3375.05
443.43	3321.22
443.61	3403.14
443.80	3463.99
443.98	3391.44
444.17	3185.47
444.35	3274.41
444.54	3536.55
444.73	3501.44
444.91	3407.82
445.10	3407.82
445.28	3492.08
445.47	3487.40
445.65	3344.63
445.84	3421.86
446.02	3480.38
446.21	3403.14
446.39	3463.99
446.58	3566.98
446.77	3492.08
446.95	3407.82
447.14	3478.04
447.32	3393.78
447.51	3349.31
447.69	3583.36
447.88	3672.30
448.06	3510.80
448.25	3454.63
448.43	3588.04
448.62	3578.68
448.80	3501.44
448.99	3581.02
449.17	3740.18
449.36	3468.67
449.54	3653.58
449.73	3590.38
449.91	3695.71
450.10	3712.09
450.28	3756.56
450.46	3728.47
450.65	3772.94
450.83	3651.24
451.02	3798.69
451.20	3810.39
451.39	3789.33
451.57	3618.47
451.76	3866.56
451.94	3859.54
452.13	3948.48
452.31	3840.82
452.49	3772.94
452.68	3840.82
452.86	3808.05
453.05	3878.27
453.23	3840.82
453.42	3815.07
453.60	3861.88
453.78	3873.59
453.97	3744.86
454.15	3925.08
454.34	4014.02
454.52	4067.85
454.70	4077.21
454.89	4035.08
455.07	4025.72
455.26	3962.53
455.44	4109.98
455.62	4095.94
455.81	4060.83
455.99	4131.05
456.17	4135.73
456.36	4081.89
456.54	4227.01
456.73	4231.69
456.91	4264.46
457.09	4276.16
457.28	4360.42
457.46	4217.65
457.64	4313.61
457.83	4292.54
458.01	4145.09
458.19	4358.08
458.38	4311.27
458.56	4507.87
458.74	4477.44
458.93	4325.31
459.11	4297.22
459.29	4205.94
459.48	4514.89
459.66	4472.76
459.84	4599.15
460.03	4575.75
460.21	4550.00
460.39	4447.02
460.57	4484.47
460.76	4566.39
460.94	4634.26
461.12	4596.81
461.31	4582.77
461.49	4531.28
461.67	4592.13
461.85	4821.50
462.04	4664.69
462.22	4788.74
462.40	4725.54
462.59	4697.46
462.77	4610.86
462.95	4809.80
463.13	4634.26
463.32	4744.27
463.50	4762.99
463.68	4816.82
463.86	4870.65
464.05	4688.09
464.23	4854.27
464.41	4856.61
464.59	4713.84
464.78	4833.21
464.96	5008.75
465.14	4819.16
465.32	4957.25
465.50	5039.17
465.69	5020.45
465.87	5041.51
466.05	5043.85
466.23	4964.28
466.41	4990.02
466.60	5022.79
466.78	5057.90
466.96	5020.45
467.14	4964.28
467.32	4973.64
467.51	5172.58
467.69	4987.68
467.87	5081.30
468.05	5078.96
468.23	5090.67
468.41	5179.61
468.60	5018.11
468.78	5238.12
468.96	5085.98
469.14	5231.10
469.32	5247.48
469.50	5114.07
469.69	5298.97
469.87	5329.40
470.05	5418.34
470.23	5315.36
470.41	5448.77
470.59	5619.63
470.77	5399.62
470.95	5540.05
471.14	5479.19
471.32	5434.72
471.50	5713.25
471.68	5507.28
471.86	5673.46
472.04	5671.12
472.22	5661.76
472.40	5533.03
472.58	5783.46
472.77	5636.01
472.95	5633.67
473.13	5944.96
473.31	5816.23
473.49	5888.79
473.67	5818.57
473.85	5888.79
474.03	5909.85
474.21	5959.00
474.39	6064.33
474.57	6122.84
474.75	6054.97
474.93	6202.42
475.12	6157.95
475.30	6211.78
475.48	5989.43
475.66	6080.71
475.84	6230.51
476.02	6136.88
476.20	6256.25
476.38	6429.45
476.56	6581.59
476.74	6263.27
476.92	6583.93
477.10	6523.07
477.28	6504.35
477.46	6406.05
477.64	6822.66
477.82	6867.13
478.00	7101.19
478.18	6789.89
478.36	7133.95
478.54	7070.76
478.72	7094.16
478.90	7145.66
479.08	7194.81
479.26	7138.63
479.44	7349.28
479.62	7337.58
479.80	7309.49
479.98	7253.32
480.16	7384.39
480.34	7279.07
480.52	7623.12
480.70	7655.89
480.88	7588.02
481.06	7749.51
481.24	7688.66
481.41	7824.41
481.59	7885.26
481.77	7995.27
481.95	7927.39
482.13	8051.44
482.31	7915.69
482.49	8173.15
482.67	8109.96
482.85	8505.51
483.03	8484.44
483.21	8667.00
483.39	8421.25
483.57	8432.95
483.74	8643.60
483.92	8798.07
484.10	8599.13
484.28	8786.37
484.46	8957.23
484.64	9074.26
484.82	8898.72
485.00	9050.85
485.18	9277.88
485.35	9528.32
485.53	9315.33
485.71	9327.03
485.89	9467.47
486.07	9785.78
486.25	9696.84
486.43	9748.33
486.61	9980.04
486.78	9818.55
486.96	9973.02
487.14	9987.07
487.32	9832.59
487.50	10202.40
487.68	10047.92
487.85	10415.38
488.03	10380.28
488.21	10637.73
488.39	10651.78
488.57	10537.09
488.75	10558.16
488.92	10789.87
489.10	10862.43
489.28	10731.36
489.46	11213.51
489.64	11152.65
489.81	11190.10
489.99	11279.04
490.17	11255.64
490.35	11363.30
490.53	11618.42
490.70	11672.25
490.88	11557.57
491.06	11674.59
491.24	11461.60
491.41	11843.11
491.59	11854.81
491.77	11630.12
491.95	12051.42
492.13	12318.24
492.30	12360.37
492.48	12283.13
492.66	12201.21
492.84	12503.14
493.01	12528.89
493.19	12788.69
493.37	12786.35
493.54	12903.37
493.72	12760.60
493.90	12657.62
494.08	12798.05
494.25	12947.84
494.43	13195.94
494.61	13282.54
494.79	13406.59
494.96	13448.72
495.14	13383.18
495.32	13305.95
495.49	13427.65
495.67	13483.83
495.85	13802.14
496.02	13736.60
496.20	13893.42
496.38	13713.20
496.55	13940.23
496.73	14167.26
496.91	13977.68
497.09	14328.76
497.26	14218.75
497.44	14167.26
497.62	14403.66
497.79	14476.21
497.97	14668.14
498.14	14576.86
498.32	14689.20
498.50	14672.82
498.67	14853.04
498.85	14726.65
499.03	14831.97
499.20	14895.17
499.38	14836.66
499.56	14834.32
499.73	15213.48
499.91	15344.55
500.08	15389.02
500.26	15243.91
500.44	15255.61
500.61	15477.96
500.79	15503.71
500.97	15826.70
501.14	15435.83
501.32	15857.13
501.49	15688.61
501.67	15585.63
501.84	15791.59
502.02	15754.15
502.20	16203.53
502.37	16123.95
502.55	16299.49
502.72	16287.79
502.90	16250.34
503.07	16058.42
503.25	16280.77
503.43	16369.71
503.60	16449.28
503.78	16304.17
503.95	16442.26
504.13	16299.49
504.30	16482.05
504.48	16723.13
504.65	16554.61
504.83	16704.40
505.01	17001.65
505.18	16791.00
505.36	16968.88
505.53	16950.16
505.71	17137.40
505.88	16959.52
506.06	17123.36
506.23	17029.74
506.41	17013.35
506.58	17392.52
506.76	16922.07
506.93	17598.49
507.11	17312.94
507.28	17376.14
507.46	17462.74
507.63	17605.51
507.81	17715.51
507.98	17905.10
508.16	17823.18
508.33	17921.48
508.50	17958.93
508.68	17855.95
508.85	18010.42
509.03	18185.96
509.20	18136.81
509.38	18284.26
509.55	18291.29
509.73	18342.78
509.90	18382.57
510.08	18270.22
510.25	18508.96
510.42	18420.02
510.60	18665.77
510.77	18750.03
510.95	18640.03
511.12	18429.38
511.30	18537.04
511.47	18820.25
511.64	18595.56
511.82	18750.03
511.99	18808.54
512.17	19206.44
512.34	18857.70
512.51	19194.73
512.69	19250.91
512.86	19229.84
513.04	19358.57
513.21	19391.34
513.38	19269.63
513.56	19398.36
513.73	19342.19
513.90	19473.26
514.08	19515.39
514.25	19580.92
514.43	19555.18
514.60	20009.24
514.77	19758.80
514.95	19800.93
515.12	19648.80
515.29	19901.58
515.47	20018.60
515.64	20023.28
515.81	19920.30
515.99	20018.60
516.16	20587.35
516.33	20322.87
516.51	20388.41
516.68	20168.40
516.85	20189.46
517.03	20180.10
517.20	20580.33
517.37	20271.38
517.54	20484.37
517.72	20634.16
517.89	20217.55
518.06	20470.33
518.24	20451.60
518.41	20622.46
518.58	20861.19
518.75	20952.48
518.93	20961.84
519.10	20601.40
519.27	20910.35
519.45	20798.00
519.62	21289.51
519.79	20833.11
519.96	20919.71
520.14	21413.56
520.31	21083.55
520.48	21296.53
520.65	21383.13
520.83	21352.71
521.00	21282.49
521.17	21530.59
521.34	21465.05
521.52	21509.52
521.69	21624.21
521.86	21984.65
522.03	21816.13
522.20	21678.04
522.38	21680.38
522.55	21783.37
522.72	21689.74
522.89	21846.56
523.07	22235.09
523.24	22043.17
523.41	22061.89
523.58	22221.05
523.75	21858.26
523.92	22022.10
524.10	22045.51
524.27	22544.04
524.44	22333.39
524.61	22508.93
524.78	22483.19
524.96	22354.46
525.13	22530.00
525.30	22424.67
525.47	22326.37
525.64	22609.58
525.81	22860.01
525.98	23070.66
526.16	22794.48
526.33	22668.09
526.50	23236.84
526.67	22450.42
526.84	22717.24
527.01	22705.54
527.18	22948.95
527.36	22895.12
527.53	23346.84
527.70	23089.38
527.87	23318.76
528.04	23115.13
528.21	23281.31
528.38	23108.11
528.55	23253.22
528.72	22789.80
528.89	23545.79
529.07	23328.12
529.24	23321.10
529.41	23531.75
529.58	23601.96
529.75	23683.88
529.92	23445.15
530.09	23452.17
530.26	23676.86
530.43	23723.67
530.60	23442.81
530.77	23728.35
530.94	23417.06
531.11	23810.27
531.28	23679.20
531.46	23648.77
531.63	23924.96
531.80	24053.69
531.97	24350.93
532.14	24119.22
532.31	23917.93
532.48	24161.35
532.65	23901.55
532.82	23969.43
532.99	24231.57
533.16	24065.39
533.33	24123.90
533.50	24327.53
533.67	24397.74
533.84	24261.99
534.01	24381.36
534.18	24205.82
534.35	24364.98
534.52	24510.09
534.69	24748.82
534.86	24582.65
535.03	24673.93
535.20	24652.86
535.37	24643.50
535.54	24849.47
535.71	24517.11
535.88	24444.56
536.05	24973.52
536.22	24648.18
536.38	24709.04
536.55	24650.52
536.72	24870.53
536.89	24793.29
537.06	24966.49
537.23	24863.51
537.40	24900.96
537.57	24849.47
537.74	24790.95
537.91	25458.01
538.08	25266.08
538.25	25495.46
538.42	25483.75
538.59	25537.59
538.75	25212.25
538.92	25289.49
539.09	25188.85
539.26	25706.10
539.43	25357.36
539.60	25156.08
539.77	25619.50
539.94	25640.57
540.11	25502.48
540.28	25614.82
540.44	25378.43
540.61	25422.90
540.78	25488.43
540.95	25813.77
541.12	25511.84
541.29	25647.59
541.46	25802.07
541.62	25781.00
541.79	25998.67
541.96	25392.47
542.13	25853.56
542.30	25813.77
542.47	26087.61
542.63	26253.79
542.80	26581.46
542.97	26307.62
543.14	26286.56
543.31	26417.63
543.48	25970.58
543.64	26462.10
543.81	26565.08
543.98	26462.10
544.15	26331.03
544.32	26419.97
544.48	26773.39
544.65	26464.44
544.82	26553.38
544.99	26146.12
545.16	26373.16
545.32	26473.80
545.49	26464.44
545.66	26845.94
545.83	26658.70
546.00	26625.93
546.16	26902.12
546.33	26759.34
546.50	26544.02
546.67	26759.34
546.83	26616.57
547.00	26576.78
547.17	26937.23
547.34	27094.04
547.50	27253.20
547.67	27147.87
547.84	26920.84
548.00	27007.44
548.17	27201.71
548.34	27281.28
548.51	27248.52
548.67	27332.78
548.84	27353.84
549.01	27033.19
549.18	27239.15
549.34	27468.53
549.51	27318.73
549.68	27227.45
549.84	27300.01
550.01	27204.05
550.18	26998.08
550.34	27206.39
550.51	27590.24
550.68	27573.85
550.84	27152.55
551.01	27604.28
551.18	27323.41
551.34	27559.81
551.51	27548.11
551.68	27590.24
551.84	27323.41
552.01	27459.16
552.18	27880.46
552.34	27454.48
552.51	27910.89
552.68	27243.84
552.84	27412.35
553.01	27744.71
553.18	27772.80
553.34	27571.51
553.51	28002.17
553.67	28121.54
553.84	28336.87
554.01	28240.90
554.17	27714.28
554.34	28006.85
554.51	27852.38
554.67	27688.54
554.84	28051.32
555.00	28004.51
555.17	28037.28
555.33	28198.77
555.50	27768.12
555.67	28158.99
555.83	28161.33
556.00	27999.83
556.16	28416.44
556.33	27950.68
556.50	27655.77
556.66	28575.60
556.83	28219.84
556.99	28308.78
557.16	28713.69
557.32	28470.28
557.49	28299.42
557.65	28400.06
557.82	28226.86
557.98	28339.21
558.15	28306.44
558.32	28505.38
558.48	28601.35
558.65	28765.18
558.81	28545.17
558.98	28549.85
559.14	28231.54
559.31	28240.90
559.47	28540.49
559.64	28657.52
559.80	28491.34
559.97	28786.25
560.13	28765.18
560.30	28512.41
560.46	28636.45
560.63	28276.01
560.79	28554.54
560.96	28933.70
561.12	28737.10
561.29	28840.08
561.45	28975.83
561.61	28634.11
561.78	28580.28
561.94	28727.74
562.11	29074.13
562.27	28858.81
562.44	28573.26
562.60	28907.96
562.77	28680.92
562.93	28301.76
563.10	28769.86
563.26	28868.17
563.42	29179.46
563.59	28929.02
563.75	28940.72
563.92	29312.87
564.08	28889.23
564.24	29113.92
564.41	28828.38
564.57	28739.44
564.74	29123.29
564.90	29207.55
565.07	29153.71
565.23	29357.34
565.39	29376.06
565.56	29261.38
565.72	29020.30
565.88	29270.74
566.05	29233.29
566.21	28985.19
566.38	29315.21
566.54	29181.80
566.70	29284.78
566.87	29404.15
567.03	29252.02
567.19	29663.95
567.36	29759.91
567.52	29090.52
567.68	29734.17
567.85	29333.93
568.01	29504.79
568.17	29083.50
568.34	29350.32
568.50	29511.81
568.66	29591.39
568.83	29696.72
568.99	29560.97
569.15	29385.43
569.32	29305.85
569.48	29116.26
569.64	29291.80
569.81	29809.06
569.97	29123.29
570.13	29385.43
570.30	29469.69
570.46	29343.30
570.62	29387.77
570.78	29294.14
570.95	28952.43
571.11	29364.36
571.27	29146.69
571.43	28957.11
571.60	29944.81
571.76	29422.87
571.92	29621.82
572.09	29340.96
572.25	29504.79
572.41	29575.01
572.57	29549.26
572.74	29816.08
572.90	29252.02
573.06	29429.90
573.22	29460.32
573.38	29668.63
573.55	29296.49
573.71	29511.81
573.87	29553.94
574.03	29757.57
574.20	29500.11
574.36	29923.75
574.52	29469.69
574.68	29626.50
574.84	29689.70
575.01	29914.39
575.17	29701.40
575.33	29649.91
575.49	29809.06
575.65	29748.21
575.82	29677.99
575.98	29369.04
576.14	29647.57
576.30	29853.53
576.46	29769.27
576.62	29898.00
576.79	29493.09
576.95	29844.17
577.11	29593.73
577.27	29624.16
577.43	29509.47
577.59	29474.37
577.75	29631.18
577.92	29333.93
578.08	29867.58
578.24	29652.25
578.40	29701.40
578.56	29720.12
578.72	29886.30
578.88	29874.60
579.04	29991.62
579.21	29689.70
579.37	29380.74
579.53	29741.19
579.69	29734.17
579.85	29544.58
580.01	29795.02
580.17	29546.92
580.33	29942.47
580.49	29586.71
580.65	29830.13
580.82	29764.59
580.98	30092.27
581.14	29624.16
581.30	29940.13
581.46	29958.86
581.62	29663.95
581.78	29874.60
581.94	30059.50
582.10	29446.28
582.26	29816.08
582.42	29397.13
582.58	29553.94
582.74	29771.61
582.90	29837.15
583.06	30071.20
583.22	30005.67
583.38	29663.95
583.54	29811.40
583.70	29755.23
583.86	29785.66
584.02	29614.80
584.18	30015.03
584.34	30005.67
584.50	29895.66
584.66	29839.49
584.82	29542.24
584.98	29626.50
585.14	29408.83
585.30	29916.73
585.46	29855.87
585.62	29972.90
585.78	29986.94
585.94	29591.39
586.10	29811.40
586.26	30031.41
586.42	30232.70
586.58	30209.29
586.74	29687.36
586.90	29673.31
587.06	29734.17
587.22	30223.34
587.38	29713.10
587.54	30043.12
587.70	30251.42
587.86	30162.48
588.02	30008.01
588.18	30412.92
588.34	30384.83
588.49	30078.22
588.65	30054.82
588.81	29502.45
588.97	30183.55
589.13	29762.25
589.29	29750.55
589.45	29729.48
589.61	30368.45
589.77	30316.96
589.93	30515.90
590.08	30328.66
590.24	30307.60
590.40	30253.76
590.56	30235.04
590.72	30232.70
590.88	29771.61
591.04	30218.66
591.20	30408.24
591.35	30221.00
591.51	30469.09
591.67	30230.36
591.83	30284.19
591.99	30485.48
592.15	30417.60
592.31	30403.56
592.46	30305.26
592.62	29666.29
592.78	29837.15
592.94	30082.91
593.10	30206.95
593.26	30665.70
593.41	30417.60
593.57	30286.53
593.73	30532.29
593.89	30363.77
594.05	30436.33
594.20	30293.55
594.36	30026.73
594.52	29860.55
594.68	30356.75
594.84	30366.11
594.99	30181.21
595.15	29865.24
595.31	30464.41
595.47	30522.93
595.62	30492.50
595.78	30197.59
595.94	30263.13
596.10	30277.17
596.25	30665.70
596.41	29961.20
596.57	30171.85
596.73	30279.51
596.88	30309.94
597.04	30321.64
597.20	30431.65
597.36	30644.63
597.51	30412.92
597.67	30099.29
597.83	30188.23
597.99	30775.70
598.14	30621.23
598.30	30485.48
598.46	30164.82
598.61	30534.63
598.77	30288.87
598.93	30646.97
599.09	30682.08
599.24	31220.41
599.40	30986.35
599.56	30836.56
599.71	30249.08
599.87	30567.40
600.03	30513.56
600.18	30623.57
600.34	29858.21
600.50	30286.53
600.65	30485.48
600.81	30799.11
600.97	30569.74
601.12	30539.31
601.28	30387.18
601.44	30499.52
601.59	30663.36
601.75	30543.99
601.91	30590.80
602.06	30548.67
602.22	30609.53
602.37	30394.20
602.53	30726.55
602.69	30988.69
602.84	30504.20
603.00	30693.79
603.16	30813.15
603.31	30525.27
603.47	30621.23
603.62	30309.94
603.78	30258.45
603.94	30272.49
604.09	30387.18
604.25	30656.34
604.40	30705.49
604.56	30506.54
604.71	30625.91
604.87	30586.12
605.03	30635.27
605.18	30574.42
605.34	30363.77
605.49	29905.02
605.65	30136.74
605.80	30319.30
605.96	30244.40
606.12	30405.90
606.27	30817.83
606.43	30258.45
606.58	30506.54
606.74	30483.14
606.89	30272.49
607.05	30433.99
607.20	30380.15
607.36	30370.79
607.51	30293.55
607.67	30125.04
607.82	30033.75
607.98	30169.51
608.13	30211.64
608.29	30485.48
608.44	30354.41
608.60	30225.68
608.75	30323.98
608.91	30323.98
609.06	30239.72
609.22	30333.34
609.37	29947.15
609.53	30167.16
609.68	30342.70
609.84	30010.35
609.99	30043.12
610.15	29862.90
610.30	30422.28
610.46	30316.96
610.61	30565.06
610.76	30684.42
610.92	30038.44
611.07	29968.22
611.23	29640.54
611.38	29827.79
611.54	29769.27
611.69	29947.15
611.84	29998.65
612.00	29940.13
612.15	30024.39
612.31	30333.34
612.46	30075.88
612.62	29900.34
612.77	30003.33
612.92	30181.21
613.08	29820.77
613.23	30108.65
613.39	29865.24
613.54	29834.81
613.69	29806.72
613.85	29446.28
614.00	29675.65
614.15	29921.41
614.31	29795.02
614.46	30157.80
614.62	29661.61
614.77	30244.40
614.92	29947.15
615.08	29600.76
615.23	29560.97
615.38	29818.42
615.54	29694.38
615.69	29727.14
615.84	29706.08
616.00	29706.08
616.15	29682.67
616.30	29923.75
616.46	29415.85
616.61	29736.51
616.76	30176.53
616.92	29986.94
617.07	29979.92
617.22	29841.83
617.37	29490.75
617.53	29654.59
617.68	29579.69
617.83	29343.30
617.99	29448.62
618.14	29453.30
618.29	29682.67
618.45	29610.12
618.60	29668.63
618.75	29542.24
618.90	29652.25
619.06	29495.43
619.21	29476.71
619.36	29331.59
619.51	29357.34
619.67	29191.16
619.82	29322.23
619.97	29530.54
620.12	29418.19
620.28	29675.65
620.43	29582.03
620.58	29656.93
620.73	29521.18
620.89	29067.11
621.04	29523.52
621.19	29408.83
621.34	29280.10
621.49	29202.86
621.65	29132.65
621.80	29303.51
621.95	28779.23
622.10	29015.62
622.25	29144.35
622.41	29184.14
622.56	29247.33
622.71	29331.59
622.86	28917.32
623.01	29046.05
623.16	29191.16
623.32	29216.91
623.47	28936.04
623.62	29034.35
623.77	28622.41
623.92	29097.54
624.07	29235.63
624.23	28723.05
624.38	28905.62
624.53	29170.10
624.68	28966.47
624.83	28940.72
624.98	29003.92
625.13	28727.74
625.29	29102.22
625.44	28776.89
625.59	28680.92
625.74	28863.49
625.89	28638.80
626.04	28671.56
626.19	28606.03
626.34	28643.48
626.49	28371.97
626.65	28545.17
626.80	28563.90
626.95	28685.61
627.10	28425.81
627.25	28559.22
627.40	28416.44
627.55	28477.30
627.70	28322.82
627.85	28283.03
628.00	28126.22
628.15	28381.34
628.30	27814.93
628.45	28395.38
628.60	28481.98
628.76	28224.52
628.91	28308.78
629.06	28313.46
629.21	28591.98
629.36	28283.03
629.51	28397.72
629.66	28217.50
629.81	27718.96
629.96	28154.30
630.11	28556.88
630.26	27910.89
630.41	28079.41
630.56	27971.74
630.71	27754.07
630.86	28247.93
631.01	27894.50
631.16	28224.52
631.31	28350.91
631.46	27953.02
631.61	28154.30
631.76	28325.16
631.91	27749.39
632.06	27892.16
632.21	27700.24
632.36	27688.54
632.51	27913.23
632.66	28084.09
632.81	27686.20
632.96	27744.71
633.10	28011.53
633.25	27882.80
633.40	27934.29
633.55	27817.27
633.70	27772.80
633.85	27613.64
634.00	27494.27
634.15	27407.67
634.30	27620.66
634.45	27623.00
634.60	27290.65
634.75	27756.41
634.90	27852.38
635.05	27737.69
635.19	27756.41
635.34	27667.47
635.49	27838.33
635.64	27742.37
635.79	27035.53
635.94	27332.78
636.09	27510.66
636.24	27676.83
636.39	27599.60
636.53	27470.87
636.68	27384.27
636.83	27576.19
636.98	27487.25
637.13	27248.52
637.28	27267.24
637.43	27498.95
637.57	27337.46
637.72	27262.56
637.87	27182.98
638.02	27288.31
638.17	27346.82
638.32	27213.41
638.46	27178.30
638.61	26834.24
638.76	26993.40
638.91	27077.66
639.06	26815.52
639.20	27208.73
639.35	26909.14
639.50	27143.19
639.65	27349.16
639.80	27126.81
639.94	27227.45
640.09	27047.23
640.24	27009.78
640.39	26850.63
640.54	26621.25
640.68	27215.75
640.83	26710.19
640.98	26693.81
641.13	26632.96
641.27	27131.49
641.42	26827.22
641.57	26637.64
641.72	27028.51
641.86	26815.52
642.01	26504.23
642.16	26728.92
642.31	26647.00
642.45	26881.05
642.60	26773.39
642.75	26520.61
642.90	26548.70
643.04	26576.78
643.19	26164.85
643.34	26820.20
643.48	26574.44
643.63	26726.58
643.78	26967.65
643.93	26689.13
644.07	26632.96
644.22	26932.54
644.37	26270.17
644.51	26525.29
644.66	26579.12
644.81	26679.77
644.95	26480.82
645.10	25972.92
645.25	26417.63
645.39	26251.45
645.54	26349.75
645.69	26572.10
645.83	26766.37
645.98	26356.77
646.13	26272.51
646.27	26572.10
646.42	26389.54
646.57	26492.52
646.71	26211.66
646.86	26338.05
647.00	26218.68
647.15	26267.83
647.30	26651.68
647.44	26253.79
647.59	26171.87
647.74	26115.70
647.88	26452.73
648.03	26164.85
648.17	26214.00
648.32	26153.15
648.47	26424.65
648.61	26263.15
648.76	26356.77
648.90	26380.18
649.05	26419.97
649.20	26125.06
649.34	26164.85
649.49	25436.94
649.63	26019.74
649.78	25589.08
649.92	25905.05
650.07	26089.95
650.21	25858.24
650.36	25982.29
650.51	25661.63
650.65	26214.00
650.80	26209.32
650.94	25827.81
651.09	25717.81
651.23	25600.78
651.38	25898.03
651.52	25799.73
651.67	25797.38
651.81	25706.10
651.96	25916.75
652.10	25392.47
652.25	25434.60
652.39	25769.30
652.54	25745.89
652.68	25642.91
652.83	25605.46
652.97	25984.63
653.12	25729.51
653.26	25656.95
653.41	25575.03
653.55	25322.26
653.70	25443.96
653.84	25841.85
653.99	25715.47
654.13	25348.00
654.27	25214.59
654.42	25675.68
654.56	25638.23
654.71	25769.30
654.85	25469.71
655.00	25736.53
655.14	25149.06
655.29	25165.44
655.43	25041.39
655.57	25518.86
655.72	25369.07
655.86	25144.38
656.01	25158.42
656.15	25273.10
656.30	24938.41
656.44	25069.48
656.58	25308.21
656.73	24971.18
656.87	25284.81
657.01	25055.43
657.16	25280.13
657.30	25390.13
657.45	24847.13
657.59	24781.59
657.73	24966.49
657.88	24868.19
658.02	24762.87
658.16	25280.13
658.31	24957.13
658.45	24910.32
658.60	24730.10
658.74	24723.08
658.88	25102.25
659.03	24706.70
659.17	24826.06
659.31	24912.66
659.46	25027.35
659.60	24922.02
659.74	24807.34
659.89	24837.76
660.03	24489.03
660.17	24730.10
660.32	24491.37
660.46	24814.36
660.60	24414.13
660.74	24608.39
660.89	24896.28
661.03	23927.30
661.17	24376.68
661.32	24411.79
661.46	24301.78
661.60	24418.81
661.74	24407.11
661.89	24713.72
662.03	24446.90
662.17	24343.91
662.31	24144.97
662.46	24404.77
662.60	23920.28
662.74	24067.73
662.88	23854.74
663.03	23969.43
663.17	23747.08
663.31	23988.15
663.45	23541.11
663.60	23850.06
663.74	24093.47
663.88	24238.59
664.02	23894.53
664.17	24140.29
664.31	23592.60
664.45	23735.37
664.59	23805.59
664.73	23597.28
664.88	23328.12
665.02	23323.44
665.16	23185.35
665.30	23449.83
665.44	23435.78
665.59	23283.65
665.73	23290.67
665.87	23211.09
666.01	23587.92
666.15	23260.24
666.29	23484.94
666.44	23510.68
666.58	23295.35
666.72	23087.04
666.86	23007.47
667.00	23576.22
667.14	23068.32
667.28	23117.47
667.43	23042.57
667.57	23147.90
667.71	22717.24
667.85	23077.68
667.99	23070.66
668.13	22979.38
668.27	22794.48
668.41	23023.85
668.56	22703.20
668.70	22747.67
668.84	22731.28
668.98	22787.46
669.12	22588.51
669.26	22970.02
669.40	22806.18
669.54	22625.96
669.68	22597.87
669.82	22363.82
669.96	22246.79
670.10	22162.53
670.25	22171.89
670.39	22221.05
670.53	22377.86
670.67	21666.34
670.81	22122.74
670.95	22324.03
671.09	22438.72
671.23	22111.04
671.37	22443.40
671.51	21958.91
671.65	22230.41
671.79	21855.92
671.93	22089.98
672.07	22136.79
672.21	21664.00
672.35	21722.51
672.49	21736.56
672.63	21589.10
672.77	21495.48
672.91	21596.12
673.05	21621.87
673.19	21797.41
673.33	21603.14
673.47	21570.38
673.61	21827.84
673.75	21535.27
673.89	21455.69
674.03	21785.71
674.17	21336.32
674.31	21156.10
674.45	21085.89
674.59	21324.62
674.73	21322.28
674.87	21158.44
675.01	20959.50
675.15	21027.37
675.29	20793.32
675.43	20690.34
675.56	20996.95
675.70	20957.16
675.84	20816.72
675.98	20346.28
676.12	20875.24
676.26	20851.83
676.40	20531.18
676.54	20882.26
676.68	20596.71
676.82	20049.03
676.96	20348.62
677.10	20306.49
677.23	20109.88
677.37	20238.61
677.51	19981.15
677.65	19955.41
677.79	19873.49
677.93	19917.96
678.07	19939.02
678.21	19730.72
678.34	19632.41
678.48	19721.35
678.62	19702.63
678.76	19648.80
678.90	19473.26
679.04	19250.91
679.18	19477.94
679.31	19459.21
679.45	19229.84
679.59	19236.86
679.73	18991.11
679.87	19047.28
680.00	19066.00
680.14	19131.54
680.28	19033.24
680.42	18930.25
680.56	18895.14
680.70	18895.14
680.83	19131.54
680.97	18670.45
681.11	18876.42
681.25	18778.12
681.39	18455.12
681.52	18574.49
681.66	18558.11
681.80	18359.16
681.94	18511.30
682.07	18473.85
682.21	18036.17
682.35	17958.93
682.49	17961.27
682.62	18075.96
682.76	17958.93
682.90	18104.04
683.04	18129.79
683.17	17930.84
683.31	17970.63
683.45	17984.68
683.59	17872.33
683.72	17671.04
683.86	18003.40
684.00	17568.06
684.13	17453.37
684.27	17305.92
684.41	17633.60
684.55	17149.11
684.68	17301.24
684.82	16905.69
684.96	17039.10
685.09	17291.88
685.23	16854.20
685.37	17310.60
685.50	17102.29
685.64	17050.80
685.78	16940.80
685.91	16982.93
686.05	16812.07
686.19	16917.39
686.32	16884.62
686.46	16744.19
686.60	16723.13
686.73	16477.37
686.87	16306.51
687.01	16554.61
687.14	16372.05
687.28	16016.29
687.42	16116.93
687.55	16156.72
687.69	16285.45
687.82	16053.73
687.96	16020.97
688.10	16023.31
688.23	15899.26
688.37	15833.72
688.50	15637.12
688.64	15969.48
688.78	16056.08
688.91	15737.76
689.05	15562.22
689.18	15611.37
689.32	15353.91
689.46	15541.16
689.59	15403.07
689.73	15405.41
689.86	15152.63
690.00	15248.59
690.13	15204.12
690.27	15222.84
690.41	15290.72
690.54	14803.89
690.68	15030.92
690.81	14993.47
690.95	14963.04
691.08	15061.35
691.22	14644.73
691.35	14892.83
691.49	14611.96
691.62	14764.10
691.76	14546.43
691.89	14583.88
692.03	14403.66
692.16	14293.65
692.30	14193.01
692.43	14221.10
692.57	14150.88
692.70	14228.12
692.84	14008.11
692.97	13919.17
693.11	14366.21
693.24	13961.30
693.38	13984.70
693.51	13741.29
693.65	14295.99
693.78	13694.47
693.92	13874.70
694.05	13877.04
694.19	13855.97
694.32	13661.71
694.45	13270.84
694.59	13153.81
694.72	13308.29
694.86	13366.80
694.99	13465.10
695.13	13142.11
695.26	13263.82
695.39	12945.50
695.53	13242.75
695.66	12978.27
695.80	13097.64
695.93	13191.26
696.07	13114.02
696.20	13011.04
696.33	12980.61
696.47	12868.27
696.60	12849.54
696.73	12816.77
696.87	12725.49
697.00	12585.06
697.14	12645.91
697.27	12341.64
697.40	12313.56
697.54	12180.15
697.67	12276.11
697.80	12622.51
697.94	12205.89
698.07	12147.38
698.21	11880.56
698.34	12098.23
698.47	12081.85
698.61	12042.06
698.74	12037.38
698.87	11925.03
699.01	11791.62
699.14	11644.17
699.27	11618.42
699.40	11548.20
699.54	11695.66
699.67	11445.22
699.80	11475.65
699.94	11531.82
700.07	11456.92
700.20	11398.41
700.34	11304.79
700.47	11332.87
700.60	11468.62
700.73	11332.87
700.87	11063.71
701.00	11000.52
701.13	11143.29
701.26	11110.52
701.40	10993.50
701.53	11049.67
701.66	10949.03
701.79	10874.13
701.93	10792.21
702.06	10672.84
702.19	10686.89
702.32	10766.46
702.46	10534.75
702.59	10455.17
702.72	10551.14
702.85	10204.74
702.99	10415.38
703.12	10190.69
703.25	10197.71
703.38	10377.94
703.51	10277.29
703.65	10101.75
703.78	10162.61
703.91	10286.65
704.04	9926.21
704.17	10181.33
704.31	10003.45
704.44	9928.55
704.57	9991.75
704.70	9778.76
704.83	9933.23
704.96	9790.46
705.10	9530.66
705.23	9542.36
>>>>>End Processed Spectral Data<<<<<
