SpectraSuite Data File
++++++++++++++++++++++++++++++++++++
Date: Fri Oct 18 13:58:05 GMT-05:00 2013
User: bianchi
Dark Spectrum Present: No
Reference Spectrum Present: No
Number of Sampled Component Spectra: 1
Spectrometers: USB2+H05261
Integration Time (usec): 50000 (USB2+H05261)
Spectra Averaged: 1 (USB2+H05261)
Boxcar Smoothing: 0 (USB2+H05261)
Correct for Electrical Dark: No (USB2+H05261)
Strobe/Lamp Enabled: No (USB2+H05261)
Correct for Detector Non-linearity: No (USB2+H05261)
Correct for Stray Light: No (USB2+H05261)
Number of Pixels in Processed Spectrum: 2048
>>>>>Begin Processed Spectral Data<<<<<
365.73	0.00
365.92	0.00
366.12	0.00
366.32	0.00
366.52	0.00
366.72	0.00
366.91	0.00
367.11	0.00
367.31	0.00
367.51	0.00
367.70	0.00
367.90	0.00
368.10	0.00
368.30	0.00
368.49	0.00
368.69	0.00
368.89	0.00
369.09	0.00
369.28	0.00
369.48	0.00
369.68	0.00
369.87	0.00
370.07	0.00
370.27	0.00
370.47	0.00
370.66	23.41
370.86	98.30
371.06	147.45
371.25	196.60
371.45	117.03
371.65	135.75
371.84	102.98
372.04	180.22
372.24	215.33
372.44	166.18
372.63	212.99
372.83	243.42
373.03	161.50
373.22	252.78
373.42	145.11
373.62	196.60
373.81	262.14
374.01	297.25
374.21	215.33
374.40	234.05
374.60	287.89
374.79	259.80
374.99	229.37
375.19	262.14
375.38	292.57
375.58	236.39
375.78	273.84
375.97	236.39
376.17	297.25
376.37	212.99
376.56	334.70
376.76	257.46
376.95	320.65
377.15	271.50
377.35	255.12
377.54	259.80
377.74	271.50
377.93	330.02
378.13	283.20
378.33	330.02
378.52	301.93
378.72	287.89
378.91	255.12
379.11	297.25
379.31	287.89
379.50	259.80
379.70	276.18
379.89	367.46
380.09	306.61
380.28	330.02
380.48	325.33
380.68	304.27
380.87	266.82
381.07	304.27
381.26	318.31
381.46	327.68
381.65	271.50
381.85	262.14
382.04	322.99
382.24	292.57
382.43	376.83
382.63	297.25
382.83	280.86
383.02	337.04
383.22	322.99
383.41	327.68
383.61	393.21
383.80	423.64
384.00	388.53
384.19	402.57
384.39	447.04
384.58	433.00
384.78	374.49
384.97	332.36
385.17	388.53
385.36	416.62
385.56	386.19
385.75	449.38
385.95	418.96
386.14	468.11
386.34	458.74
386.53	414.27
386.72	437.68
386.92	383.85
387.11	425.98
387.31	531.30
387.50	376.83
387.70	463.43
387.89	500.87
388.09	442.36
388.28	411.93
388.48	505.56
388.67	435.34
388.86	507.90
389.06	472.79
389.25	468.11
389.45	456.40
389.64	475.13
389.84	503.22
390.03	507.90
390.22	435.34
390.42	500.87
390.61	543.00
390.81	444.70
391.00	561.73
391.19	545.34
391.39	538.32
391.58	496.19
391.78	496.19
391.97	517.26
392.16	564.07
392.36	535.98
392.55	531.30
392.75	550.03
392.94	543.00
393.13	638.97
393.33	615.56
393.52	592.16
393.71	631.94
393.91	575.77
394.10	554.71
394.29	636.63
394.49	575.77
394.68	634.29
394.88	538.32
395.07	657.69
395.26	580.45
395.46	568.75
395.65	613.22
395.84	599.18
396.04	692.80
396.23	655.35
396.42	599.18
396.62	592.16
396.81	688.12
397.00	734.93
397.19	840.25
397.39	697.48
397.58	720.88
397.77	662.37
397.97	706.84
398.16	678.76
398.35	674.07
398.55	734.93
398.74	669.39
398.93	765.36
399.12	723.23
399.32	753.65
399.51	713.86
399.70	699.82
399.90	681.10
400.09	861.32
400.28	770.04
400.47	873.02
400.67	795.78
400.86	772.38
401.05	830.89
401.24	784.08
401.44	851.96
401.63	851.96
401.82	866.00
402.01	763.01
402.21	823.87
402.40	936.21
402.59	858.98
402.78	887.06
402.97	903.45
403.17	875.36
403.36	842.59
403.55	863.66
403.74	910.47
403.93	1013.45
404.13	933.87
404.32	945.58
404.51	938.55
404.70	903.45
404.89	922.17
405.09	1004.09
405.28	926.85
405.47	1041.54
405.66	926.85
405.85	997.07
406.05	917.49
406.24	1057.92
406.43	1027.50
406.62	964.30
406.81	1149.20
407.00	1027.50
407.20	1041.54
407.39	1032.18
407.58	1088.35
407.77	1004.09
407.96	1149.20
408.15	1205.38
408.34	1090.69
408.54	1235.80
408.73	1153.88
408.92	1067.28
409.11	1088.35
409.30	1160.91
409.49	1160.91
409.68	1163.25
409.87	1116.44
410.07	1242.82
410.26	1226.44
410.45	1137.50
410.64	1324.74
410.83	1280.27
411.02	1174.95
411.21	1341.13
411.40	1275.59
411.59	1329.42
411.78	1270.91
411.98	1310.70
412.17	1348.15
412.36	1327.08
412.55	1371.55
412.74	1373.89
412.93	1444.11
413.12	1338.79
413.31	1497.94
413.50	1439.43
413.69	1488.58
413.88	1416.02
414.07	1493.26
414.26	1509.65
414.45	1437.09
414.64	1544.75
414.83	1521.35
415.02	1614.97
415.22	1535.39
415.41	1584.54
415.60	1511.99
415.79	1671.14
415.98	1593.90
416.17	1654.76
416.36	1533.05
416.55	1675.82
416.74	1703.91
416.93	1736.68
417.12	1764.76
417.31	1804.55
417.50	1680.50
417.69	1788.17
417.88	1746.04
418.07	1710.93
418.26	1755.40
418.45	1715.61
418.64	1944.99
418.83	1935.62
419.02	1795.19
419.21	1788.17
419.39	1942.64
419.58	1881.79
419.77	1844.34
419.96	1863.07
420.15	1884.13
420.34	1907.54
420.53	1907.54
420.72	1926.26
420.91	1975.41
421.10	2033.93
421.29	2008.18
421.48	1916.90
421.67	1909.88
421.86	2012.86
422.05	1970.73
422.24	1991.80
422.43	2008.18
422.61	2017.54
422.80	2026.90
422.99	2026.90
423.18	2176.70
423.37	2017.54
423.56	1968.39
423.75	1982.43
423.94	2134.57
424.13	1902.86
424.32	2005.84
424.50	2099.46
424.69	2221.17
424.88	2162.66
425.07	2019.88
425.26	1952.01
425.45	2019.88
425.64	2150.95
425.83	2064.35
426.01	2190.74
426.20	2172.02
426.39	2078.40
426.58	2076.06
426.77	2169.68
426.96	2111.16
427.15	2167.34
427.33	2153.29
427.52	2197.76
427.71	2169.68
427.90	2186.06
428.09	2218.83
428.28	2310.11
428.46	2176.70
428.65	2174.36
428.84	2326.49
429.03	2401.39
429.22	2331.17
429.40	2310.11
429.59	2305.43
429.78	2195.42
429.97	2265.64
430.16	2307.77
430.34	2307.77
430.53	2480.97
430.72	2413.09
430.91	2399.05
431.10	2354.58
431.28	2403.73
431.47	2349.90
431.66	2403.73
431.85	2387.35
432.03	2560.55
432.22	2469.27
432.41	2532.46
432.60	2396.71
432.79	2450.54
432.97	2562.89
433.16	2495.01
433.35	2527.78
433.54	2506.71
433.72	2537.14
433.91	2576.93
434.10	2581.61
434.28	2567.57
434.47	2635.44
434.66	2633.10
434.85	2626.08
435.03	2574.59
435.22	2623.74
435.41	2731.41
435.59	2813.32
435.78	2761.83
435.97	2705.66
436.16	2736.09
436.34	2780.56
436.53	2740.77
436.72	2787.58
436.90	2822.69
437.09	2794.60
437.28	2780.56
437.46	2899.92
437.65	2747.79
437.84	2958.44
438.02	2785.24
438.21	2876.52
438.40	2862.48
438.58	2911.63
438.77	2967.80
438.96	2930.35
439.14	3021.63
439.33	3047.38
439.52	2869.50
439.70	2946.73
439.89	3126.96
440.08	3155.04
440.26	3122.27
440.45	3124.62
440.63	3148.02
440.82	3253.34
441.01	3194.83
441.19	3211.22
441.38	3255.69
441.57	3276.75
441.75	3227.60
441.94	3428.88
442.12	3368.03
442.31	3358.67
442.50	3328.24
442.68	3239.30
442.87	3379.73
443.05	3506.12
443.24	3461.65
443.43	3475.70
443.61	3513.14
443.80	3543.57
443.98	3433.57
444.17	3396.12
444.35	3438.25
444.54	3634.85
444.73	3623.15
444.91	3473.36
445.10	3435.91
445.28	3386.76
445.47	3506.12
445.65	3494.42
445.84	3676.98
446.02	3550.59
446.21	3403.14
446.39	3592.72
446.58	3564.64
446.77	3592.72
446.95	3412.50
447.14	3538.89
447.32	3609.11
447.51	3606.77
447.69	3508.46
447.88	3588.04
448.06	3602.08
448.25	3482.72
448.43	3768.26
448.62	3751.88
448.80	3686.34
448.99	3662.94
449.17	3627.83
449.36	3719.11
449.54	3726.13
449.73	3716.77
449.91	3852.52
450.10	3693.37
450.28	3899.33
450.46	3819.75
450.65	3962.53
450.83	3920.40
451.02	3840.82
451.20	3864.22
451.39	3911.04
451.57	3826.78
451.76	3913.38
451.94	3854.86
452.13	3976.57
452.31	4077.21
452.49	3992.95
452.68	4058.49
452.86	4021.04
453.05	4030.40
453.23	3946.14
453.42	3794.01
453.60	3974.23
453.78	4058.49
453.97	3946.14
454.15	4049.13
454.34	4042.11
454.52	4154.45
454.70	4060.83
454.89	4077.21
455.07	4166.15
455.26	4014.02
455.44	4114.66
455.62	4231.69
455.81	4231.69
455.99	4156.79
456.17	4217.65
456.36	4355.74
456.54	4369.78
456.73	4198.92
456.91	4442.34
457.09	4329.99
457.28	4430.63
457.46	4329.99
457.64	4482.13
457.83	4435.32
458.01	4318.29
458.19	4486.81
458.38	4437.66
458.56	4472.76
458.74	4521.92
458.93	4564.04
459.11	4472.76
459.29	4505.53
459.48	4545.32
459.66	4542.98
459.84	4580.43
460.03	4741.93
460.21	4685.75
460.39	4592.13
460.57	4664.69
460.76	4688.09
460.94	4699.80
461.12	4704.48
461.31	4706.82
461.49	4582.77
461.67	4624.90
461.85	4910.44
462.04	4814.48
462.22	5100.03
462.40	4856.61
462.59	4844.91
462.77	4844.91
462.95	4964.28
463.13	4854.27
463.32	4929.17
463.50	4922.15
463.68	4992.36
463.86	4973.64
464.05	4924.49
464.23	4901.08
464.41	5200.67
464.59	5020.45
464.78	5083.64
464.96	5018.11
465.14	4980.66
465.32	5064.92
465.50	4971.30
465.69	5137.48
465.87	5109.39
466.05	4992.36
466.23	4987.68
466.41	5191.31
466.60	5181.95
466.78	5060.24
466.96	5203.01
467.14	5198.33
467.32	5139.82
467.51	5280.25
467.69	5242.80
467.87	5263.86
468.05	5427.70
468.23	5273.23
468.41	5315.36
468.60	5193.65
468.78	5336.42
468.96	5305.99
469.14	5453.45
469.32	5432.38
469.50	5315.36
469.69	5420.68
469.87	5493.24
470.05	5652.39
470.23	5650.05
470.41	5575.16
470.59	5598.56
470.77	5523.66
470.95	5542.39
471.14	5556.43
471.32	5731.97
471.50	5825.59
471.68	5816.23
471.86	5792.83
472.04	5900.49
472.22	5998.79
472.40	5823.25
472.58	5792.83
472.77	5834.96
472.95	6157.95
473.13	6061.99
473.31	5968.37
473.49	6024.54
473.67	6012.84
473.85	6017.52
474.03	6026.88
474.21	6230.51
474.39	6200.08
474.57	6132.20
474.75	6265.61
474.93	6193.06
475.12	6377.96
475.30	6413.07
475.48	6345.19
475.66	6333.49
475.84	6473.92
476.02	6691.59
476.20	6675.21
476.38	6565.20
476.56	6661.16
476.74	6642.44
476.92	6836.70
477.10	6740.74
477.28	6764.15
477.46	6871.81
477.64	6853.09
477.82	6958.41
478.00	6991.18
478.18	7037.99
478.36	7009.90
478.54	7274.38
478.72	7297.79
478.90	7534.18
479.08	7428.86
479.26	7363.33
479.44	7581.00
479.62	7468.65
479.80	7634.83
479.98	7590.36
480.16	7763.56
480.34	7669.94
480.52	7868.88
480.70	7789.30
480.88	7948.46
481.06	7903.99
481.24	7969.52
481.41	7927.39
481.59	8013.99
481.77	8287.84
481.95	8304.22
482.13	8248.05
482.31	8236.35
482.49	8491.46
482.67	8482.10
482.85	8557.00
483.03	8620.19
483.21	8643.60
483.39	8713.81
483.57	8915.10
483.74	8774.67
483.92	9282.56
484.10	9130.43
484.28	9163.20
484.46	9146.81
484.64	9383.21
484.82	9336.40
485.00	9284.91
485.18	9586.83
485.35	9626.62
485.53	9500.23
485.71	9865.36
485.89	9987.07
486.07	9743.65
486.25	9921.53
486.43	9893.44
486.61	9778.76
486.78	10146.22
486.96	10286.65
487.14	10321.76
487.32	10230.48
487.50	10277.29
487.68	10544.11
487.85	10452.83
488.03	10827.32
488.21	10897.53
488.39	10614.33
488.57	10771.15
488.75	11049.67
488.92	11019.24
489.10	11335.21
489.28	11346.92
489.46	11428.84
489.64	11101.16
489.81	11543.52
489.99	11438.20
490.17	11747.15
490.35	12023.33
490.53	11796.30
490.70	12100.57
490.88	12004.61
491.06	12133.34
491.24	12133.34
491.41	11929.71
491.59	12367.39
491.77	12180.15
491.95	12514.84
492.13	12400.16
492.30	12617.83
492.48	12650.60
492.66	12917.42
492.84	12891.67
493.01	12578.04
493.19	13013.38
493.37	13142.11
493.54	13415.95
493.72	13193.60
493.90	13212.32
494.08	13427.65
494.25	13497.87
494.43	13607.87
494.61	13642.98
494.79	13916.83
494.96	13891.08
495.14	13762.35
495.32	13853.63
495.49	14010.45
495.67	14059.60
495.85	14246.84
496.02	14211.73
496.20	14136.84
496.38	14221.10
496.55	14464.51
496.73	14686.86
496.91	14736.01
497.09	14684.52
497.26	14757.08
497.44	14958.36
497.62	14834.32
497.79	15054.33
497.97	15042.62
498.14	15382.00
498.32	15487.32
498.50	15199.44
498.67	15267.31
498.85	15204.12
499.03	15550.52
499.20	15412.43
499.38	15594.99
499.56	15779.89
499.73	15742.44
499.91	15676.91
500.08	15999.90
500.26	15676.91
500.44	15690.95
500.61	16369.71
500.79	15925.00
500.97	16250.34
501.14	16346.30
501.32	16381.41
501.49	16421.20
501.67	16215.23
501.84	16615.46
502.02	16416.52
502.20	16776.96
502.37	16783.98
502.55	16381.41
502.72	16643.55
502.90	16566.31
503.07	16821.43
503.25	16788.66
503.43	16716.11
503.60	17076.55
503.78	17156.13
503.95	17268.47
504.13	17062.51
504.30	17252.09
504.48	17146.76
504.65	17247.41
504.83	17235.70
505.01	17469.76
505.18	17408.90
505.36	17668.70
505.53	17759.98
505.71	17757.64
505.88	17474.44
506.06	17554.02
506.23	18244.48
506.41	17980.00
506.58	18155.54
506.76	17832.54
506.93	17788.07
507.11	18061.91
507.28	17919.14
507.46	18136.81
507.63	17977.65
507.81	18211.71
507.98	18157.88
508.16	18324.05
508.33	18443.42
508.50	18939.62
508.68	18466.83
508.85	18731.31
509.03	18677.48
509.20	18759.39
509.38	18801.52
509.55	19126.86
509.73	18813.23
509.90	18829.61
510.08	18937.27
510.25	18892.80
510.42	18965.36
510.60	19096.43
510.77	19204.10
510.95	19356.23
511.12	19136.22
511.30	19094.09
511.47	19255.59
511.64	19541.13
511.82	19578.58
511.99	19653.48
512.17	19604.33
512.34	19669.86
512.51	19953.07
512.69	19660.50
512.86	19653.48
513.04	19894.55
513.21	19927.32
513.38	20056.05
513.56	20496.07
513.73	20081.80
513.90	20439.90
514.08	20144.99
514.25	20095.84
514.43	20088.82
514.60	20559.27
514.77	20463.30
514.95	20252.66
515.12	20205.84
515.29	20425.86
515.47	20783.96
515.64	20442.24
515.81	20636.50
515.99	20915.03
516.16	20886.94
516.33	20964.18
516.51	21013.33
516.68	20851.83
516.85	20585.01
517.03	21118.65
517.20	21235.68
517.37	20978.22
517.54	21231.00
517.72	21287.17
517.89	21160.78
518.06	21532.93
518.24	21420.58
518.41	21165.46
518.58	21432.29
518.75	21266.11
518.93	21628.89
519.10	21458.03
519.27	22078.27
519.45	21563.36
519.62	21692.08
519.79	21579.74
519.96	21827.84
520.14	22052.53
520.31	21921.46
520.48	21518.89
520.65	21984.65
520.83	21972.95
521.00	21996.35
521.17	22078.27
521.34	22284.24
521.52	22024.44
521.69	22527.66
521.86	22424.67
522.03	22391.91
522.20	22476.16
522.38	22625.96
522.55	22553.40
522.72	22342.75
522.89	22544.04
523.07	23293.01
523.24	22785.12
523.41	22771.07
523.58	22548.72
523.75	23005.13
523.92	22991.08
524.10	22787.46
524.27	22780.43
524.44	23075.34
524.61	23241.52
524.78	23283.65
524.96	23234.50
525.13	23213.43
525.30	23264.92
525.47	23201.73
525.64	22998.10
525.81	23477.91
525.98	23351.52
526.16	23161.94
526.33	23590.26
526.50	23737.71
526.67	23145.56
526.84	23484.94
527.01	23545.79
527.18	23992.83
527.36	23793.89
527.53	24037.30
527.70	23887.51
527.87	23744.73
528.04	24027.94
528.21	24327.53
528.38	23564.51
528.55	24072.41
528.72	24280.72
528.89	24210.50
529.07	24320.51
529.24	24341.57
529.41	24297.10
529.58	24584.99
529.75	24219.86
529.92	24098.16
530.09	24376.68
530.26	24744.14
530.43	24610.73
530.60	24315.83
530.77	24325.19
530.94	24891.60
531.11	24451.58
531.28	24577.97
531.46	24477.32
531.63	24575.62
531.80	24587.33
531.97	25003.94
532.14	25186.50
532.31	24692.65
532.48	24772.23
532.65	25081.18
532.82	24711.38
532.99	25069.48
533.16	25055.43
533.33	25418.22
533.50	25802.07
533.67	25291.83
533.84	24812.02
534.01	24870.53
534.18	25277.79
534.35	25324.60
534.52	25156.08
534.69	25598.44
534.86	26106.34
535.03	25102.25
535.20	25188.85
535.37	25591.42
535.54	25598.44
535.71	25642.91
535.88	25446.30
536.05	25596.10
536.22	25642.91
536.38	25841.85
536.55	25710.78
536.72	25855.90
536.89	25895.69
537.06	25656.95
537.23	25876.96
537.40	25474.39
537.57	25905.05
537.74	26045.48
537.91	26312.30
538.08	25914.41
538.25	26003.35
538.42	25888.67
538.59	25909.73
538.75	26012.71
538.92	26359.11
539.09	26216.34
539.26	26326.35
539.43	26459.76
539.60	26466.78
539.77	26197.62
539.94	26480.82
540.11	26293.58
540.28	26567.42
540.44	26382.52
540.61	26263.15
540.78	26333.37
540.95	26625.93
541.12	26506.57
541.29	26429.33
541.46	26349.75
541.62	26609.55
541.79	26480.82
541.96	26529.97
542.13	26583.80
542.30	26902.12
542.47	26623.59
542.63	26771.05
542.80	26977.01
542.97	27260.22
543.14	27187.66
543.31	27009.78
543.48	27131.49
543.64	27468.53
543.81	27407.67
543.98	27281.28
544.15	27452.14
544.32	27740.03
544.48	27594.92
544.65	27543.42
544.82	27515.34
544.99	27356.18
545.16	27089.36
545.32	27328.10
545.49	27800.88
545.66	27861.74
545.83	27615.98
546.00	28287.71
546.16	27957.70
546.33	27740.03
546.50	27515.34
546.67	27683.86
546.83	27398.31
547.00	27946.00
547.17	27744.71
547.34	27473.21
547.50	27927.27
547.67	27906.21
547.84	27735.35
548.00	27913.23
548.17	28268.99
548.34	28011.53
548.51	28191.75
548.67	28086.43
548.84	27948.34
549.01	28463.25
549.18	28222.18
549.34	28151.96
549.51	28308.78
549.68	28166.01
549.84	28163.67
550.01	28034.94
550.18	28093.45
550.34	28617.73
550.51	28645.82
550.68	28500.70
550.84	28299.42
551.01	28568.58
551.18	28559.22
551.34	28311.12
551.51	28407.08
551.68	28854.12
551.84	28680.92
552.01	28280.69
552.18	29057.75
552.34	28467.94
552.51	28936.04
552.68	29027.32
552.84	28718.37
553.01	28591.98
553.18	28568.58
553.34	29069.45
553.51	28919.66
553.67	29144.35
553.84	29181.80
554.01	29170.10
554.17	29090.52
554.34	29036.69
554.51	29034.35
554.67	29160.73
554.84	29092.86
555.00	29146.69
555.17	29146.69
555.33	29191.16
555.50	28886.89
555.67	29277.76
555.83	29390.11
556.00	29111.58
556.16	29123.29
556.33	29469.69
556.50	29495.43
556.66	29315.21
556.83	29315.21
556.99	29336.27
557.16	29862.90
557.32	29614.80
557.49	29544.58
557.65	29383.09
557.82	29294.14
557.98	29081.16
558.15	29624.16
558.32	29469.69
558.48	29443.94
558.65	29558.63
558.81	29621.82
558.98	29411.17
559.14	29741.19
559.31	29689.70
559.47	29645.23
559.64	29394.79
559.80	29640.54
559.97	30089.93
560.13	29961.20
560.30	29783.32
560.46	29954.18
560.63	30190.57
560.79	29731.83
560.96	30092.27
561.12	29467.34
561.29	29401.81
561.45	29682.67
561.61	29907.37
561.78	30068.86
561.94	29937.79
562.11	29921.41
562.27	29919.07
562.44	30143.76
562.60	30052.48
562.77	29944.81
562.93	29589.05
563.10	29947.15
563.26	30209.29
563.42	30235.04
563.59	30281.85
563.75	30279.51
563.92	30082.91
564.08	30115.67
564.24	29806.72
564.41	30005.67
564.57	30277.17
564.74	30108.65
564.90	30258.45
565.07	30099.29
565.23	30419.94
565.39	30110.99
565.56	29937.79
565.72	30279.51
565.88	29937.79
566.05	29947.15
566.21	30387.18
566.38	30267.81
566.54	30293.55
566.70	30459.73
566.87	30548.67
567.03	30071.20
567.19	30766.34
567.36	30532.29
567.52	30120.35
567.68	30562.72
567.85	30347.39
568.01	30759.32
568.17	30445.69
568.34	30391.86
568.50	30576.76
568.66	30291.21
568.83	30665.70
568.99	30747.62
569.15	30279.51
569.32	30370.79
569.48	30082.91
569.64	30429.30
569.81	30733.57
569.97	30618.89
570.13	30401.22
570.30	30436.33
570.46	30672.72
570.62	30651.66
570.78	30466.75
570.95	30515.90
571.11	30574.42
571.27	30319.30
571.43	30408.24
571.60	30611.87
571.76	30295.89
571.92	30543.99
572.09	30656.34
572.25	30881.03
572.41	30377.81
572.57	30513.56
572.74	30778.04
572.90	30473.78
573.06	30480.80
573.22	30965.29
573.38	30621.23
573.55	30525.27
573.71	31192.32
573.87	30981.67
574.03	30462.07
574.20	30595.48
574.36	30536.97
574.52	30717.19
574.68	30637.61
574.84	30401.22
575.01	30780.39
575.17	30878.69
575.33	30801.45
575.49	30408.24
575.65	30771.02
575.82	30792.09
575.98	30656.34
576.14	30782.73
576.30	30808.47
576.46	30817.83
576.62	30607.19
576.79	30504.20
576.95	30534.63
577.11	31047.21
577.27	31012.10
577.43	30916.14
577.59	30969.97
577.75	30780.39
577.92	30562.72
578.08	30443.35
578.24	30651.66
578.40	31215.72
578.56	30874.01
578.72	31253.17
578.88	30993.37
579.04	30869.33
579.21	30911.46
579.37	31016.78
579.53	31049.55
579.69	30412.92
579.85	30665.70
580.01	30885.71
580.17	30347.39
580.33	30955.93
580.49	30995.71
580.65	31014.44
580.82	30726.55
580.98	30888.05
581.14	30775.70
581.30	31124.44
581.46	31021.46
581.62	30764.00
581.78	30668.04
581.94	31131.47
582.10	30974.65
582.26	30780.39
582.42	30993.37
582.58	31096.36
582.74	31225.09
582.90	30984.01
583.06	31058.91
583.22	31026.14
583.38	31335.09
583.54	31016.78
583.70	30787.41
583.86	30822.51
584.02	30930.18
584.18	30944.22
584.34	31227.43
584.50	31035.50
584.66	30995.71
584.82	31194.66
584.98	30911.46
585.14	31087.00
585.30	30576.76
585.46	30869.33
585.62	31117.42
585.78	30883.37
585.94	31236.79
586.10	31126.78
586.26	31211.04
586.42	31211.04
586.58	31182.96
586.74	31042.53
586.90	30838.90
587.06	30941.88
587.22	31105.72
587.38	31126.78
587.54	31145.51
587.70	31566.81
587.86	31683.83
588.02	31417.01
588.18	31309.35
588.34	31037.84
588.49	31349.14
588.65	31276.58
588.81	31318.71
588.97	31234.45
589.13	31409.99
589.29	31115.08
589.45	31274.24
589.61	31264.88
589.77	31697.88
589.93	31344.45
590.08	31236.79
590.24	31662.77
590.40	31587.87
590.56	31438.08
590.72	31473.18
590.88	31040.18
591.04	31388.92
591.20	31674.47
591.35	31660.43
591.51	31452.12
591.67	31505.95
591.83	31791.50
591.99	31587.87
592.15	31274.24
592.31	31386.58
592.46	31323.39
592.62	31262.54
592.78	31056.57
592.94	31559.78
593.10	31419.35
593.26	31945.97
593.41	31597.23
593.57	31475.52
593.73	31372.54
593.89	31592.55
594.05	31864.05
594.20	31536.38
594.36	31414.67
594.52	31498.93
594.68	31339.77
594.84	31428.71
594.99	31503.61
595.15	31391.26
595.31	32074.70
595.47	31641.70
595.62	31557.44
595.78	31695.53
595.94	31679.15
596.10	31627.66
596.25	31541.06
596.41	31466.16
596.57	31110.40
596.73	31887.46
596.88	31379.56
597.04	31761.07
597.20	31948.31
597.36	32168.32
597.51	31810.22
597.67	31683.83
597.83	31337.43
597.99	31590.21
598.14	31648.72
598.30	31749.37
598.46	31428.71
598.61	31847.67
598.77	31711.92
598.93	31660.43
599.09	32072.36
599.24	32130.87
599.40	31613.62
599.56	31873.42
599.71	31550.42
599.87	31679.15
600.03	31592.55
600.18	31824.26
600.34	31704.90
600.50	31775.11
600.65	31737.66
600.81	31796.18
600.97	31906.18
601.12	32268.97
601.28	31903.84
601.44	31882.78
601.59	31777.45
601.75	31510.63
601.91	31704.90
602.06	31924.91
602.22	31875.76
602.37	31728.30
602.53	31505.95
602.69	31920.23
602.84	31641.70
603.00	31543.40
603.16	31740.00
603.31	31871.07
603.47	31566.81
603.62	32257.26
603.78	31424.03
603.94	31370.20
604.09	31665.11
604.25	31398.29
604.40	31592.55
604.56	31562.12
604.71	32165.98
604.87	31723.62
605.03	31807.88
605.18	32032.57
605.34	31585.53
605.49	31700.22
605.65	31278.92
605.80	31461.48
605.96	31601.91
606.12	31618.30
606.27	31695.53
606.43	31601.91
606.58	31913.20
606.74	31882.78
606.89	31512.97
607.05	32121.51
607.20	31655.75
607.36	31721.28
607.51	31578.51
607.67	31412.33
607.82	31414.67
607.98	31407.65
608.13	31840.65
608.29	31438.08
608.44	31728.30
608.60	31763.41
608.75	32039.59
608.91	31639.36
609.06	31697.88
609.22	31606.59
609.37	30955.93
609.53	31363.18
609.68	31536.38
609.84	31321.05
609.99	31234.45
610.15	31421.69
610.30	31468.50
610.46	31468.50
610.61	31550.42
610.76	31527.02
610.92	31784.48
611.07	31524.68
611.23	31290.62
611.38	31365.52
611.54	31131.47
611.69	31007.42
611.84	31154.87
612.00	31126.78
612.15	30984.01
612.31	31644.04
612.46	31393.61
612.62	31082.31
612.77	31276.58
612.92	31051.89
613.08	31716.60
613.23	31089.34
613.39	31693.19
613.54	31325.73
613.69	31433.39
613.85	31105.72
614.00	31087.00
614.15	31079.97
614.31	31332.75
614.46	31611.28
614.62	30848.26
614.77	31328.07
614.92	31009.76
615.08	31021.46
615.23	30972.31
615.38	30974.65
615.54	30864.64
615.69	31028.48
615.84	30705.49
616.00	30766.34
616.15	30916.14
616.30	31372.54
616.46	30883.37
616.61	30937.20
616.76	31124.44
616.92	31075.29
617.07	31115.08
617.22	30712.51
617.37	30621.23
617.53	31110.40
617.68	30529.95
617.83	30429.30
617.99	30937.20
618.14	30541.65
618.29	31070.61
618.45	30885.71
618.60	30602.50
618.75	30960.61
618.90	30862.30
619.06	30967.63
619.21	30637.61
619.36	30768.68
619.51	30319.30
619.67	30431.65
619.82	30394.20
619.97	31000.40
620.12	30387.18
620.28	30134.40
620.43	30604.84
620.58	30731.23
620.73	30555.69
620.89	30490.16
621.04	31042.53
621.19	30536.97
621.34	30455.05
621.49	30419.94
621.65	29813.74
621.80	30319.30
621.95	30370.79
622.10	30209.29
622.25	30160.14
622.41	30251.42
622.56	30300.58
622.71	30387.18
622.86	30464.41
623.01	30433.99
623.16	30202.27
623.32	29965.88
623.47	30141.42
623.62	30682.08
623.77	29680.33
623.92	30263.13
624.07	30101.63
624.23	30171.85
624.38	30153.12
624.53	30258.45
624.68	30342.70
624.83	30445.69
624.98	30359.09
625.13	30239.72
625.29	30281.85
625.44	30293.55
625.59	29890.98
625.74	30073.54
625.89	29806.72
626.04	29572.67
626.19	29738.85
626.34	30050.14
626.49	29322.23
626.65	29649.91
626.80	30017.37
626.95	29773.95
627.10	29783.32
627.25	29507.13
627.40	29680.33
627.55	29776.30
627.70	29418.19
627.85	29668.63
628.00	29413.51
628.15	29680.33
628.30	29415.85
628.45	29869.92
628.60	29205.20
628.76	29734.17
628.91	29488.41
629.06	29369.04
629.21	29469.69
629.36	29818.42
629.51	29900.34
629.66	29497.77
629.81	29404.15
629.96	29467.34
630.11	29425.22
630.26	29399.47
630.41	29092.86
630.56	28940.72
630.71	29053.07
630.86	29132.65
631.01	29132.65
631.16	29460.32
631.31	29364.36
631.46	29179.46
631.61	29343.30
631.76	29287.12
631.91	29677.99
632.06	28734.76
632.21	29350.32
632.36	29387.77
632.51	28694.97
632.66	29673.31
632.81	29137.33
632.96	29322.23
633.10	29404.15
633.25	29156.05
633.40	28891.57
633.55	29226.27
633.70	29193.50
633.85	28884.55
634.00	29013.28
634.15	28893.91
634.30	28886.89
634.45	29097.54
634.60	28905.62
634.75	28587.30
634.90	28959.45
635.05	28982.85
635.19	28699.65
635.34	29214.57
635.49	28823.70
635.64	28964.13
635.79	28994.56
635.94	28936.04
636.09	28556.88
636.24	28608.37
636.39	28634.11
636.53	28837.74
636.68	29064.77
636.83	28727.74
636.98	28723.05
637.13	28629.43
637.28	28526.45
637.43	28697.31
637.57	28896.25
637.72	28444.53
637.87	28615.39
638.02	28435.17
638.17	28414.10
638.32	28301.76
638.46	28189.41
638.61	28327.50
638.76	28268.99
638.91	28287.71
639.06	28170.69
639.20	28711.35
639.35	28400.06
639.50	28238.56
639.65	28936.04
639.80	28484.32
639.94	28362.61
640.09	28638.80
640.24	28025.57
640.39	28177.71
640.54	28158.99
640.68	28301.76
640.83	28287.71
640.98	27686.20
641.13	28215.16
641.27	28528.79
641.42	27840.67
641.57	28386.02
641.72	28226.86
641.86	28130.90
642.01	28236.22
642.16	28128.56
642.31	28039.62
642.45	28173.03
642.60	27847.69
642.75	27594.92
642.90	27798.54
643.04	27665.13
643.19	27515.34
643.34	27693.22
643.48	27908.55
643.63	27688.54
643.78	27707.26
643.93	27620.66
644.07	27651.09
644.22	27831.31
644.37	27475.55
644.51	28226.86
644.66	27967.06
644.81	27627.68
644.95	27395.97
645.10	27693.22
645.25	28034.94
645.39	27725.99
645.54	27725.99
645.69	27878.12
645.83	27585.55
645.98	27508.32
646.13	27449.80
646.27	27288.31
646.42	27475.55
646.57	27548.11
646.71	27456.82
646.86	27658.11
647.00	27274.26
647.15	27470.87
647.30	27295.33
647.44	27384.27
647.59	27524.70
647.74	27115.11
647.88	27056.59
648.03	27126.81
648.17	27524.70
648.32	27498.95
648.47	27599.60
648.61	27250.86
648.76	27445.12
648.90	27431.08
649.05	27227.45
649.20	27190.00
649.34	26909.14
649.49	26841.26
649.63	27115.11
649.78	27138.51
649.92	26820.20
650.07	27157.24
650.21	27054.25
650.36	27129.15
650.51	27239.15
650.65	26925.52
650.80	27332.78
650.94	27061.27
651.09	26852.97
651.23	26984.04
651.38	27030.85
651.52	26932.54
651.67	26710.19
651.81	27250.86
651.96	26600.19
652.10	26827.22
652.25	26871.69
652.39	27096.38
652.54	26895.10
652.68	27028.51
652.83	27002.76
652.97	26852.97
653.12	26969.99
653.26	26888.07
653.41	26909.14
653.55	26450.39
653.70	26504.23
653.84	26515.93
653.99	26600.19
654.13	26639.98
654.27	26581.46
654.42	26225.70
654.56	26422.31
654.71	26691.47
654.85	26775.73
655.00	26808.50
655.14	26684.45
655.29	26902.12
655.43	26249.11
655.57	26419.97
655.72	26574.44
655.86	26590.83
656.01	26347.41
656.15	26382.52
656.30	26345.07
656.44	26403.58
656.58	26300.60
656.73	26455.08
656.87	26281.88
657.01	26377.84
657.16	26487.84
657.30	26181.23
657.45	26611.89
657.59	26525.29
657.73	26001.01
657.88	26122.72
658.02	26188.25
658.16	26265.49
658.31	26078.25
658.45	25731.85
658.60	26015.05
658.74	26188.25
658.88	25926.11
659.03	26132.08
659.17	25841.85
659.31	26080.59
659.46	26019.74
659.60	26150.81
659.74	25942.50
659.89	25846.54
660.03	25813.77
660.17	25394.81
660.32	25551.63
660.46	25687.38
660.60	25490.77
660.74	25638.23
660.89	25633.55
661.03	25270.76
661.17	25387.79
661.32	25551.63
661.46	25942.50
661.60	25710.78
661.74	25944.84
661.89	25539.93
662.03	25333.96
662.17	25312.89
662.31	25525.88
662.46	25678.02
662.60	25509.50
662.74	25020.33
662.88	24978.20
663.03	25071.82
663.17	24924.36
663.31	24610.73
663.45	24847.13
663.60	24868.19
663.74	24599.03
663.88	25233.32
664.02	24910.32
664.17	25149.06
664.31	24718.40
664.45	24514.77
664.59	25071.82
664.73	24725.42
664.88	24879.89
665.02	24439.87
665.16	24313.48
665.30	24554.56
665.44	24837.76
665.59	24276.04
665.73	24247.95
665.87	24451.58
666.01	24233.91
666.15	24570.94
666.29	24570.94
666.44	24084.11
666.58	24135.60
666.72	24077.09
666.86	24601.37
667.00	24627.12
667.14	24060.71
667.28	24135.60
667.43	23955.38
667.57	24098.16
667.71	24002.19
667.85	23840.70
667.99	23777.50
668.13	23704.95
668.27	24194.12
668.41	23852.40
668.56	23831.33
668.70	23948.36
668.84	23690.90
668.98	23868.78
669.12	24261.99
669.26	23878.15
669.40	23494.30
669.54	23744.73
669.68	23726.01
669.82	23503.66
669.96	23218.11
670.10	23365.57
670.25	23424.08
670.39	23023.85
670.53	23445.15
670.67	23400.68
670.81	23316.42
670.95	23454.51
671.09	23335.14
671.23	23009.81
671.37	23466.21
671.51	22885.76
671.65	23461.53
671.79	23138.54
671.93	23075.34
672.07	22625.96
672.21	23185.35
672.35	22590.85
672.49	22579.15
672.63	22466.80
672.77	22782.77
672.91	22614.26
673.05	22710.22
673.19	22677.45
673.33	22714.90
673.47	22382.54
673.61	22876.40
673.75	22361.48
673.89	22279.56
674.03	22487.87
674.17	22230.41
674.31	21989.33
674.45	22162.53
674.59	21813.79
674.73	22214.02
674.87	21951.88
675.01	21956.57
675.15	21631.23
675.29	21556.33
675.43	22157.85
675.56	21979.97
675.70	21898.05
675.84	22038.48
675.98	21146.74
676.12	21928.48
676.26	22178.92
676.40	21628.89
676.54	21928.48
676.68	21610.17
676.82	21179.51
676.96	21357.39
677.10	21434.63
677.23	21350.37
677.37	21008.65
677.51	21113.97
677.65	21130.36
677.79	20954.82
677.93	20713.74
678.07	21050.78
678.21	20505.43
678.34	20695.02
678.48	20723.10
678.62	20493.73
678.76	20659.91
678.90	20484.37
679.04	20561.61
679.18	20411.81
679.31	20414.15
679.45	20077.12
679.59	20421.17
679.73	20201.16
679.87	19974.13
680.00	19735.40
680.14	20004.56
680.28	20203.50
680.42	19941.36
680.56	19924.98
680.70	19943.70
680.83	19885.19
680.97	19578.58
681.11	20002.22
681.25	19564.54
681.39	19730.72
681.52	19470.92
681.66	19253.25
681.80	19508.37
681.94	19286.01
682.07	19288.35
682.21	19066.00
682.35	19035.58
682.49	19075.37
682.62	19007.49
682.76	18724.29
682.90	19007.49
683.04	18993.45
683.17	18782.80
683.31	18733.65
683.45	18633.00
683.59	18452.78
683.72	18389.59
683.86	18731.31
684.00	18279.58
684.13	18654.07
684.27	18342.78
684.41	18445.76
684.55	18078.30
684.68	18167.24
684.82	17785.73
684.96	17944.89
685.09	18153.20
685.23	17511.89
685.37	17825.52
685.50	17881.69
685.64	17902.76
685.78	17935.53
685.91	17689.77
686.05	17968.29
686.19	17549.34
686.32	17589.13
686.46	17345.71
686.60	17467.42
686.73	17338.69
686.87	17146.76
687.01	17259.11
687.14	17242.73
687.28	17095.27
687.42	16973.56
687.55	17177.19
687.69	17046.12
687.82	16886.97
687.96	17039.10
688.10	17029.74
688.23	16805.05
688.37	16578.01
688.50	16589.72
688.64	16594.40
688.78	16304.17
688.91	16393.11
689.05	16545.25
689.18	16383.75
689.32	16013.95
689.46	16077.14
689.59	15976.50
689.73	16231.62
689.86	16130.97
690.00	15894.58
690.13	15925.00
690.27	15962.45
690.41	16072.46
690.54	15747.12
690.68	15637.12
690.81	15768.19
690.95	15988.20
691.08	15913.30
691.22	15587.97
691.35	15461.58
691.49	15641.80
691.62	15531.80
691.76	15272.00
691.89	15213.48
692.03	14927.94
692.16	14810.91
692.30	15101.14
692.43	15009.86
692.57	14927.94
692.70	14820.27
692.84	14967.73
692.97	14813.25
693.11	14738.35
693.24	14588.56
693.38	14523.02
693.51	14618.99
693.65	14766.44
693.78	14466.85
693.92	14726.65
694.05	14607.28
694.19	14263.22
694.32	14356.85
694.45	14249.18
694.59	13947.25
694.72	14047.90
694.86	13900.44
694.99	13820.86
695.13	13762.35
695.26	14162.58
695.39	13731.92
695.53	13804.48
695.66	13844.27
695.80	13617.24
695.93	13687.45
696.07	13415.95
696.20	13701.50
696.33	13734.26
696.47	13610.22
696.60	13540.00
696.73	13582.13
696.87	13263.82
697.00	13270.84
697.14	12975.93
697.27	13048.49
697.40	12844.86
697.54	12891.67
697.67	12875.29
697.80	12779.32
697.94	12669.32
698.07	12671.66
698.21	12580.38
698.34	12704.43
698.47	12650.60
698.61	12830.82
698.74	12821.45
698.87	12549.95
699.01	12397.82
699.14	12236.32
699.27	12138.02
699.40	12140.36
699.54	12475.06
699.67	12217.60
699.80	11992.90
699.94	11953.12
700.07	11859.49
700.20	11859.49
700.34	11782.26
700.47	11875.88
700.60	11838.43
700.73	11819.71
700.87	11566.93
701.00	11578.63
701.13	11510.75
701.26	11473.31
701.40	11616.08
701.53	11410.11
701.66	11763.53
701.79	11365.64
701.93	11307.13
702.06	11431.18
702.19	11206.48
702.32	11178.40
702.46	11297.77
702.59	10920.94
702.72	10867.11
702.85	10972.43
702.99	10850.72
703.12	10904.56
703.25	10876.47
703.38	10949.03
703.51	10775.83
703.65	10558.16
703.78	10738.38
703.91	10661.14
704.04	10803.91
704.17	10752.42
704.31	10726.68
704.44	10586.24
704.57	10740.72
704.70	10314.74
704.83	10228.14
704.96	10038.56
705.10	10047.92
705.23	10111.11
>>>>>End Processed Spectral Data<<<<<
