SpectraSuite Data File
++++++++++++++++++++++++++++++++++++
Date: Fri Oct 18 13:58:20 GMT-05:00 2013
User: bianchi
Dark Spectrum Present: No
Reference Spectrum Present: No
Number of Sampled Component Spectra: 1
Spectrometers: USB2+H05261
Integration Time (usec): 50000 (USB2+H05261)
Spectra Averaged: 1 (USB2+H05261)
Boxcar Smoothing: 0 (USB2+H05261)
Correct for Electrical Dark: No (USB2+H05261)
Strobe/Lamp Enabled: No (USB2+H05261)
Correct for Detector Non-linearity: No (USB2+H05261)
Correct for Stray Light: No (USB2+H05261)
Number of Pixels in Processed Spectrum: 2048
>>>>>Begin Processed Spectral Data<<<<<
365.73	0.00
365.92	0.00
366.12	0.00
366.32	0.00
366.52	0.00
366.72	0.00
366.91	0.00
367.11	0.00
367.31	0.00
367.51	0.00
367.70	0.00
367.90	0.00
368.10	0.00
368.30	0.00
368.49	0.00
368.69	0.00
368.89	0.00
369.09	0.00
369.28	0.00
369.48	0.00
369.68	0.00
369.87	0.00
370.07	0.00
370.27	0.00
370.47	0.00
370.66	35.11
370.86	163.84
371.06	173.20
371.25	140.43
371.45	135.75
371.65	177.88
371.84	100.64
372.04	133.41
372.24	140.43
372.44	182.56
372.63	194.26
372.83	201.29
373.03	201.29
373.22	234.05
373.42	234.05
373.62	212.99
373.81	217.67
374.01	184.90
374.21	243.42
374.40	182.56
374.60	229.37
374.79	208.31
374.99	203.63
375.19	255.12
375.38	257.46
375.58	269.16
375.78	283.20
375.97	245.76
376.17	280.86
376.37	222.35
376.56	306.61
376.76	217.67
376.95	250.44
377.15	304.27
377.35	276.18
377.54	325.33
377.74	243.42
377.93	269.16
378.13	156.82
378.33	266.82
378.52	248.10
378.72	292.57
378.91	320.65
379.11	243.42
379.31	215.33
379.50	259.80
379.70	280.86
379.89	325.33
380.09	278.52
380.28	248.10
380.48	308.95
380.68	266.82
380.87	278.52
381.07	325.33
381.26	381.51
381.46	362.78
381.65	358.10
381.85	339.38
382.04	351.08
382.24	325.33
382.43	383.85
382.63	187.24
382.83	287.89
383.02	294.91
383.22	355.76
383.41	311.29
383.61	395.55
383.80	360.44
384.00	339.38
384.19	348.74
384.39	383.85
384.58	337.04
384.78	393.21
384.97	365.12
385.17	334.70
385.36	402.57
385.56	416.62
385.75	376.83
385.95	404.91
386.14	414.27
386.34	353.42
386.53	327.68
386.72	395.55
386.92	421.30
387.11	374.49
387.31	400.23
387.50	397.89
387.70	367.46
387.89	400.23
388.09	421.30
388.28	332.36
388.48	404.91
388.67	404.91
388.86	447.04
389.06	372.15
389.25	390.87
389.45	425.98
389.64	451.72
389.84	475.13
390.03	451.72
390.22	437.68
390.42	503.22
390.61	451.72
390.81	449.38
391.00	475.13
391.19	496.19
391.39	503.22
391.58	498.53
391.78	498.53
391.97	489.17
392.16	543.00
392.36	517.26
392.55	550.03
392.75	463.43
392.94	547.69
393.13	545.34
393.33	524.28
393.52	454.06
393.71	540.66
393.91	571.09
394.10	559.39
394.29	543.00
394.49	571.09
394.68	629.60
394.88	526.62
395.07	596.84
395.26	566.41
395.46	587.47
395.65	638.97
395.84	580.45
396.04	648.33
396.23	681.10
396.42	709.18
396.62	615.56
396.81	606.20
397.00	653.01
397.19	678.76
397.39	685.78
397.58	683.44
397.77	653.01
397.97	599.18
398.16	690.46
398.35	739.61
398.55	683.44
398.74	720.88
398.93	739.61
399.12	739.61
399.32	685.78
399.51	713.86
399.70	774.72
399.90	720.88
400.09	821.53
400.28	800.46
400.47	774.72
400.67	697.48
400.86	880.04
401.05	823.87
401.24	798.12
401.44	767.70
401.63	772.38
401.82	772.38
402.01	781.74
402.21	901.11
402.40	856.64
402.59	842.59
402.78	781.74
402.97	854.30
403.17	823.87
403.36	863.66
403.55	786.42
403.74	896.43
403.93	866.00
404.13	915.15
404.32	940.90
404.51	938.55
404.70	898.77
404.89	912.81
405.09	873.02
405.28	976.00
405.47	870.68
405.66	842.59
405.85	1043.88
406.05	952.60
406.24	1008.77
406.43	968.98
406.62	978.34
406.81	1067.28
407.00	1048.56
407.20	917.49
407.39	905.79
407.58	1130.48
407.77	1018.13
407.96	1125.80
408.15	1107.07
408.34	1039.20
408.54	1111.75
408.73	1163.25
408.92	1149.20
409.11	1086.01
409.30	1144.52
409.49	1088.35
409.68	1167.93
409.87	1193.67
410.07	1181.97
410.26	1172.61
410.45	1174.95
410.64	1109.41
410.83	1217.08
411.02	1191.33
411.21	1259.21
411.40	1299.00
411.59	1249.85
411.78	1275.59
411.98	1217.08
412.17	1348.15
412.36	1224.10
412.55	1219.42
412.74	1261.55
412.93	1313.04
413.12	1341.13
413.31	1350.49
413.50	1418.36
413.69	1341.13
413.88	1387.94
414.07	1535.39
414.26	1507.30
414.45	1437.09
414.64	1514.33
414.83	1561.14
415.02	1551.78
415.22	1572.84
415.41	1621.99
415.60	1579.86
415.79	1605.61
415.98	1507.30
416.17	1509.65
416.36	1619.65
416.55	1631.35
416.74	1626.67
416.93	1666.46
417.12	1645.40
417.31	1668.80
417.50	1682.85
417.69	1727.32
417.88	1783.49
418.07	1776.47
418.26	1771.79
418.45	1785.83
418.64	1816.26
418.83	1827.96
419.02	1790.51
419.21	1753.06
419.39	1865.41
419.58	1825.62
419.77	1741.36
419.96	1767.10
420.15	1900.52
420.34	1942.64
420.53	1998.82
420.72	1944.99
420.91	1898.17
421.10	1914.56
421.29	2010.52
421.48	1930.94
421.67	1952.01
421.86	1963.71
422.05	1987.11
422.24	2003.50
422.43	1975.41
422.61	2022.22
422.80	2057.33
422.99	1963.71
423.18	2029.24
423.37	1949.67
423.56	2071.37
423.75	1842.00
423.94	1916.90
424.13	1877.11
424.32	1970.73
424.50	2097.12
424.69	2026.90
424.88	2069.03
425.07	2165.00
425.26	1984.77
425.45	2003.50
425.64	1975.41
425.83	2195.42
426.01	2057.33
426.20	2108.82
426.39	1952.01
426.58	2050.31
426.77	2115.84
426.96	2078.40
427.15	2090.10
427.33	2157.97
427.52	2186.06
427.71	2197.76
427.90	2045.63
428.09	2242.23
428.28	2188.40
428.46	2296.07
428.65	2162.66
428.84	2300.75
429.03	2207.13
429.22	2115.84
429.40	2347.56
429.59	2312.45
429.78	2167.34
429.97	2256.28
430.16	2279.68
430.34	2382.67
430.53	2443.52
430.72	2385.01
430.91	2307.77
431.10	2413.09
431.28	2385.01
431.47	2483.31
431.66	2354.58
431.85	2452.88
432.03	2495.01
432.22	2396.71
432.41	2509.05
432.60	2349.90
432.79	2473.95
432.97	2532.46
433.16	2483.31
433.35	2473.95
433.54	2511.39
433.72	2506.71
433.91	2537.14
434.10	2628.42
434.28	2581.61
434.47	2495.01
434.66	2546.50
434.85	2516.08
435.03	2651.83
435.22	2581.61
435.41	2562.89
435.59	2590.97
435.78	2621.40
435.97	2712.68
436.16	2619.06
436.34	2773.53
436.53	2607.36
436.72	2759.49
436.90	2635.44
437.09	2637.78
437.28	2766.51
437.46	2724.38
437.65	2768.85
437.84	2740.77
438.02	2719.70
438.21	2754.81
438.40	2836.73
438.58	2857.79
438.77	3002.91
438.96	2827.37
439.14	2944.39
439.33	3035.67
439.52	3042.70
439.70	2937.37
439.89	2986.52
440.08	3091.85
440.26	3103.55
440.45	3033.33
440.63	2965.46
440.82	3110.57
441.01	3063.76
441.19	3236.96
441.38	3110.57
441.57	3283.77
441.75	3157.38
441.94	3185.47
442.12	3314.20
442.31	3435.91
442.50	3342.28
442.68	3283.77
442.87	3279.09
443.05	3466.33
443.24	3412.50
443.43	3307.18
443.61	3428.88
443.80	3536.55
443.98	3335.26
444.17	3281.43
444.35	3379.73
444.54	3463.99
444.73	3583.36
444.91	3368.03
445.10	3515.48
445.28	3438.25
445.47	3468.67
445.65	3396.12
445.84	3520.17
446.02	3478.04
446.21	3665.28
446.39	3421.86
446.58	3557.61
446.77	3508.46
446.95	3403.14
447.14	3382.07
447.32	3555.27
447.51	3620.81
447.69	3538.89
447.88	3655.92
448.06	3639.53
448.25	3475.70
448.43	3728.47
448.62	3576.34
448.80	3581.02
448.99	3515.48
449.17	3681.66
449.36	3536.55
449.54	3585.70
449.73	3625.49
449.91	3918.06
450.10	3754.22
450.28	3768.26
450.46	3784.65
450.65	3662.94
450.83	3789.33
451.02	3789.33
451.20	3941.46
451.39	3922.74
451.57	3714.43
451.76	3840.82
451.94	3803.37
452.13	4004.66
452.31	3974.23
452.49	3892.31
452.68	3932.10
452.86	3852.52
453.05	3995.29
453.23	3899.33
453.42	3946.14
453.60	3845.50
453.78	4016.36
453.97	3775.28
454.15	3948.48
454.34	3985.93
454.52	4147.43
454.70	3915.72
454.89	4028.06
455.07	3955.51
455.26	4070.19
455.44	4126.36
455.62	4283.18
455.81	4088.92
455.99	4126.36
456.17	4266.80
456.36	4145.09
456.54	4241.05
456.73	4276.16
456.91	4386.16
457.09	4341.69
457.28	4535.96
457.46	4222.33
457.64	4484.47
457.83	4468.08
458.01	4243.39
458.19	4505.53
458.38	4503.19
458.56	4479.79
458.74	4505.53
458.93	4458.72
459.11	4498.51
459.29	4528.94
459.48	4538.30
459.66	4505.53
459.84	4601.49
460.03	4573.41
460.21	4449.36
460.39	4442.34
460.57	4660.01
460.76	4669.37
460.94	4634.26
461.12	4779.37
461.31	4709.16
461.49	4542.98
461.67	4503.19
461.85	4753.63
462.04	4667.03
462.22	4973.64
462.40	4784.06
462.59	4809.80
462.77	4884.70
462.95	4772.35
463.13	4830.87
463.32	4809.80
463.50	4753.63
463.68	4961.94
463.86	4880.02
464.05	4685.75
464.23	4777.03
464.41	4929.17
464.59	4865.97
464.78	4987.68
464.96	4992.36
465.14	4802.78
465.32	4954.91
465.50	5008.75
465.69	4985.34
465.87	5146.84
466.05	5088.32
466.23	4968.96
466.41	5125.77
466.60	5144.50
466.78	5090.67
466.96	5238.12
467.14	5097.69
467.32	5287.27
467.51	5200.67
467.69	4985.34
467.87	5114.07
468.05	5100.03
468.23	5233.44
468.41	5214.71
468.60	5273.23
468.78	5334.08
468.96	5221.74
469.14	5317.70
469.32	5254.50
469.50	5432.38
469.69	5362.17
469.87	5465.15
470.05	5397.28
470.23	5523.66
470.41	5334.08
470.59	5453.45
470.77	5355.15
470.95	5682.82
471.14	5561.11
471.32	5411.32
471.50	5699.20
471.68	5696.86
471.86	5643.03
472.04	5806.87
472.22	5891.13
472.40	5600.90
472.58	5982.41
472.77	5717.93
472.95	5788.14
473.13	6024.54
473.31	5589.20
473.49	5799.85
473.67	5926.24
473.85	5987.09
474.03	6003.47
474.21	5947.30
474.39	6069.01
474.57	6052.63
474.75	6136.88
474.93	6179.01
475.12	6120.50
475.30	6202.42
475.48	6296.04
475.66	6387.32
475.84	6188.38
476.02	6300.72
476.20	6450.52
476.38	6494.99
476.56	6392.00
476.74	6736.06
476.92	6494.99
477.10	6597.97
477.28	6644.78
477.46	6558.18
477.64	6707.98
477.82	6773.51
478.00	7040.33
478.18	6977.14
478.36	7068.42
478.54	6881.18
478.72	7119.91
478.90	7220.55
479.08	7206.51
479.26	7201.83
479.44	7337.58
479.62	7316.51
479.80	7318.86
479.98	7534.18
480.16	7627.81
480.34	7449.93
480.52	7611.42
480.70	7625.47
480.88	7566.95
481.06	7826.75
481.24	7709.72
481.41	7719.09
481.59	7861.86
481.77	7992.93
481.95	8234.00
482.13	7896.97
482.31	8348.69
482.49	8102.93
482.67	8365.07
482.85	8339.33
483.03	8521.89
483.21	8498.49
483.39	8814.46
483.57	8554.66
483.74	8739.56
483.92	8746.58
484.10	8908.08
484.28	8952.55
484.46	8889.35
484.64	9179.58
484.82	9181.92
485.00	9170.22
485.18	9350.44
485.35	9432.36
485.53	9439.38
485.71	9444.06
485.89	9554.07
486.07	9692.16
486.25	9680.46
486.43	9818.55
486.61	9788.12
486.78	10052.60
486.96	9886.42
487.14	10260.91
487.32	10017.49
487.50	10230.48
487.68	10333.47
487.85	10265.59
488.03	10771.15
488.21	10565.18
488.39	10796.89
488.57	10714.97
488.75	10792.21
488.92	10801.57
489.10	10920.94
489.28	10963.07
489.46	11147.97
489.64	11206.48
489.81	11225.21
489.99	11215.85
490.17	11302.45
490.35	11559.91
490.53	11770.55
490.70	11852.47
490.88	11826.73
491.06	11829.07
491.24	11768.21
491.41	12004.61
491.59	11999.93
491.77	11789.28
491.95	12042.06
492.13	12219.94
492.30	12313.56
492.48	12468.03
492.66	12564.00
492.84	12203.55
493.01	12470.37
493.19	12554.63
493.37	12800.39
493.54	12961.89
493.72	13102.32
493.90	12840.18
494.08	12950.18
494.25	13020.40
494.43	13266.16
494.61	13268.50
494.79	13598.51
494.96	13282.54
495.14	13692.13
495.32	13720.22
495.49	13437.02
495.67	13713.20
495.85	13858.31
496.02	13987.04
496.20	14099.39
496.38	13933.21
496.55	14155.56
496.73	14347.48
496.91	14291.31
497.09	14532.39
497.26	14471.53
497.44	14445.79
497.62	14347.48
497.79	14586.22
497.97	14726.65
498.14	14635.37
498.32	15002.83
498.50	14602.60
498.67	15084.75
498.85	15129.22
499.03	15061.35
499.20	15124.54
499.38	15082.41
499.56	15169.01
499.73	15386.68
499.91	15414.77
500.08	15489.67
500.26	15302.42
500.44	15712.02
500.61	15517.75
500.79	15901.60
500.97	15679.25
501.14	15803.30
501.32	16018.63
501.49	15964.79
501.67	16058.42
501.84	15950.75
502.02	15908.62
502.20	16355.66
502.37	16327.58
502.55	16210.55
502.72	16159.06
502.90	16276.09
503.07	16259.70
503.25	16540.57
503.43	16475.03
503.60	16411.84
503.78	16788.66
503.95	16690.36
504.13	16819.09
504.30	16599.08
504.48	16751.21
504.65	17022.72
504.83	17046.12
505.01	16938.46
505.18	17500.19
505.36	17310.60
505.53	17158.47
505.71	17254.43
505.88	17298.90
506.06	17497.84
506.23	17413.59
506.41	17659.34
506.58	17549.34
506.76	17462.74
506.93	17577.42
507.11	17345.71
507.28	17703.81
507.46	17867.65
507.63	17813.82
507.81	17984.68
507.98	17991.70
508.16	18010.42
508.33	17884.03
508.50	17994.04
508.68	18022.12
508.85	18651.73
509.03	18202.35
509.20	18321.71
509.38	18279.58
509.55	18518.32
509.73	18518.32
509.90	18745.35
510.08	18366.18
510.25	18523.00
510.42	18647.05
510.60	18597.90
510.77	18490.23
510.95	18757.05
511.12	18787.48
511.30	18850.67
511.47	18984.09
511.64	19000.47
511.82	19351.55
511.99	19260.27
512.17	19243.88
512.34	19150.26
512.51	19271.97
512.69	19641.78
512.86	19548.15
513.04	19807.95
513.21	19688.59
513.38	19543.47
513.56	19686.25
513.73	19398.36
513.90	19496.66
514.08	19494.32
514.25	19955.41
514.43	20091.16
514.60	20018.60
514.77	20119.24
514.95	20088.82
515.12	19836.04
515.29	20011.58
515.47	20002.22
515.64	20107.54
515.81	20121.59
515.99	20400.11
516.16	20613.10
516.33	20568.63
516.51	20734.81
516.68	20299.47
516.85	20648.21
517.03	20460.96
517.20	20753.53
517.37	20624.80
517.54	20706.72
517.72	20603.74
517.89	20739.49
518.06	20814.38
518.24	20926.73
518.41	20807.36
518.58	21057.80
518.75	20767.57
518.93	21181.85
519.10	21109.29
519.27	21280.15
519.45	21062.48
519.62	21120.99
519.79	21055.46
519.96	21099.93
520.14	21364.41
520.31	21432.29
520.48	21376.11
520.65	21654.64
520.83	21649.96
521.00	21451.01
521.17	21619.53
521.34	21359.73
521.52	21858.26
521.69	21631.23
521.86	21762.30
522.03	21905.07
522.20	21986.99
522.38	22246.79
522.55	21916.78
522.72	21823.16
522.89	22150.83
523.07	22157.85
523.24	22127.42
523.41	22340.41
523.58	22204.66
523.75	22635.32
523.92	21970.61
524.10	22118.06
524.27	22209.34
524.44	22658.73
524.61	22422.33
524.78	22623.62
524.96	22497.23
525.13	22869.37
525.30	22953.63
525.47	22478.50
525.64	22724.26
525.81	22464.46
525.98	22892.78
526.16	22817.88
526.33	22829.59
526.50	23211.09
526.67	22834.27
526.84	22955.97
527.01	22761.71
527.18	23117.47
527.36	23084.70
527.53	23316.42
527.70	23351.52
527.87	23594.94
528.04	23175.98
528.21	23285.99
528.38	23288.33
528.55	23770.48
528.72	23356.21
528.89	23625.37
529.07	23969.43
529.24	23510.68
529.41	23730.69
529.58	23613.66
529.75	23356.21
529.92	23648.77
530.09	23658.14
530.26	23726.01
530.43	23707.29
530.60	23707.29
530.77	23995.17
530.94	24205.82
531.11	23960.06
531.28	23941.34
531.46	24067.73
531.63	24004.53
531.80	24208.16
531.97	24364.98
532.14	24367.32
532.31	24566.26
532.48	24224.54
532.65	24425.83
532.82	24369.66
532.99	24416.47
533.16	24662.22
533.33	24510.09
533.50	24788.61
533.67	24783.93
533.84	24526.47
534.01	24383.70
534.18	24453.92
534.35	24470.30
534.52	24849.47
534.69	24872.87
534.86	25029.69
535.03	24643.50
535.20	24556.90
535.37	24610.73
535.54	25294.17
535.71	24950.11
535.88	24622.44
536.05	24858.83
536.22	24886.92
536.38	25263.74
536.55	25486.09
536.72	25118.63
536.89	25090.54
537.06	25392.47
537.23	25214.59
537.40	25324.60
537.57	24926.71
537.74	25291.83
537.91	25474.39
538.08	25589.08
538.25	25759.94
538.42	25373.75
538.59	25350.34
538.75	25369.07
538.92	25266.08
539.09	25757.60
539.26	25584.40
539.43	25462.69
539.60	25404.17
539.77	25685.04
539.94	25839.51
540.11	25649.93
540.28	25722.49
540.44	25979.95
540.61	25535.24
540.78	25568.01
540.95	25490.77
541.12	25860.58
541.29	26031.44
541.46	26094.63
541.62	25666.31
541.79	25965.90
541.96	25645.25
542.13	25968.24
542.30	26333.37
542.47	26164.85
542.63	26178.89
542.80	26441.03
542.97	26352.09
543.14	26665.72
543.31	26567.42
543.48	26302.94
543.64	27021.48
543.81	26733.60
543.98	27094.04
544.15	27119.79
544.32	26476.14
544.48	26859.99
544.65	26595.51
544.82	26661.04
544.99	26370.82
545.16	26270.17
545.32	26614.23
545.49	26658.70
545.66	26932.54
545.83	27215.75
546.00	27384.27
546.16	26913.82
546.33	26691.47
546.50	26572.10
546.67	26867.01
546.83	27051.91
547.00	26909.14
547.17	27091.70
547.34	27264.90
547.50	27304.69
547.67	27513.00
547.84	27178.30
548.00	27321.07
548.17	27742.37
548.34	27288.31
548.51	27410.01
548.67	27480.23
548.84	27395.97
549.01	27262.56
549.18	27681.52
549.34	27257.88
549.51	27421.72
549.68	27360.86
549.84	27651.09
550.01	27166.60
550.18	27997.49
550.34	27817.27
550.51	27840.67
550.68	28051.32
550.84	27569.17
551.01	27810.25
551.18	27543.42
551.34	27592.58
551.51	27505.98
551.68	28002.17
551.84	27798.54
552.01	27777.48
552.18	27903.87
552.34	27960.04
552.51	27805.56
552.68	27950.68
552.84	28065.36
553.01	28334.53
553.18	27934.29
553.34	28517.09
553.51	28245.58
553.67	28376.66
553.84	28465.60
554.01	28517.09
554.17	28311.12
554.34	28102.81
554.51	28030.26
554.67	28388.36
554.84	28456.23
555.00	28292.40
555.17	27922.59
555.33	28746.46
555.50	28247.93
555.67	28292.40
555.83	28517.09
556.00	28077.07
556.16	28746.46
556.33	28896.25
556.50	28451.55
556.66	28381.34
556.83	28533.47
556.99	28884.55
557.16	28765.18
557.32	28507.72
557.49	28680.92
557.65	28458.57
557.82	28774.55
557.98	28432.83
558.15	28622.41
558.32	28746.46
558.48	28816.68
558.65	28994.56
558.81	28484.32
558.98	29151.37
559.14	28936.04
559.31	28924.34
559.47	28662.20
559.64	29029.66
559.80	29156.05
559.97	28980.51
560.13	28718.37
560.30	29088.18
560.46	28954.77
560.63	29097.54
560.79	28582.62
560.96	29291.80
561.12	29064.77
561.29	28943.06
561.45	29193.50
561.61	29336.27
561.78	28903.28
561.94	29078.82
562.11	28795.61
562.27	29081.16
562.44	29163.08
562.60	28968.81
562.77	29237.97
562.93	28964.13
563.10	29289.46
563.26	29315.21
563.42	29532.88
563.59	29315.21
563.75	29235.63
563.92	29591.39
564.08	29170.10
564.24	29102.22
564.41	29455.64
564.57	29172.44
564.74	29074.13
564.90	29640.54
565.07	29542.24
565.23	29692.04
565.39	29457.98
565.56	29411.17
565.72	29511.81
565.88	29301.17
566.05	29308.19
566.21	29207.55
566.38	29476.71
566.54	29455.64
566.70	29848.85
566.87	29575.01
567.03	29858.21
567.19	29986.94
567.36	29694.38
567.52	29677.99
567.68	29589.05
567.85	29549.26
568.01	29570.33
568.17	29670.97
568.34	29556.28
568.50	29504.79
568.66	29869.92
568.83	29818.42
568.99	29619.48
569.15	29479.05
569.32	29558.63
569.48	29542.24
569.64	29631.18
569.81	29785.66
569.97	29455.64
570.13	29778.64
570.30	29490.75
570.46	29895.66
570.62	29724.80
570.78	29668.63
570.95	29776.30
571.11	29893.32
571.27	29305.85
571.43	29582.03
571.60	29546.92
571.76	29525.86
571.92	30000.99
572.09	29975.24
572.25	30005.67
572.41	29804.38
572.57	30122.69
572.74	30054.82
572.90	29748.21
573.06	29469.69
573.22	29572.67
573.38	29825.45
573.55	29502.45
573.71	30431.65
573.87	30169.51
574.03	29851.19
574.20	29544.58
574.36	29823.11
574.52	29848.85
574.68	30038.44
574.84	29872.26
575.01	30209.29
575.17	29764.59
575.33	29771.61
575.49	29858.21
575.65	30298.23
575.82	29958.86
575.98	30038.44
576.14	29869.92
576.30	29919.07
576.46	30040.78
576.62	29745.87
576.79	30012.69
576.95	29886.30
577.11	30146.10
577.27	30099.29
577.43	30068.86
577.59	29947.15
577.75	29881.62
577.92	29809.06
578.08	29715.44
578.24	29696.72
578.40	30045.46
578.56	30031.41
578.72	30141.42
578.88	30160.14
579.04	30426.96
579.21	30026.73
579.37	30167.16
579.53	29921.41
579.69	29811.40
579.85	29832.47
580.01	29448.62
580.17	30185.89
580.33	29834.81
580.49	30223.34
580.65	30171.85
580.82	30403.56
580.98	30057.16
581.14	29788.00
581.30	30192.91
581.46	30288.87
581.62	29961.20
581.78	29750.55
581.94	30150.78
582.10	29937.79
582.26	30452.71
582.42	30132.06
582.58	30190.57
582.74	30213.98
582.90	30136.74
583.06	30319.30
583.22	29968.22
583.38	30136.74
583.54	30228.02
583.70	30036.09
583.86	30188.23
584.02	30122.69
584.18	30576.76
584.34	30045.46
584.50	30331.00
584.66	29996.31
584.82	29883.96
584.98	30335.68
585.14	30391.86
585.30	30375.47
585.46	29961.20
585.62	30246.74
585.78	30230.36
585.94	30202.27
586.10	30022.05
586.26	30251.42
586.42	30244.40
586.58	30625.91
586.74	30054.82
586.90	29977.58
587.06	29839.49
587.22	30263.13
587.38	29905.02
587.54	30373.13
587.70	30408.24
587.86	30473.78
588.02	30366.11
588.18	30728.89
588.34	30256.11
588.49	30359.09
588.65	30118.01
588.81	29991.62
588.97	30438.67
589.13	30462.07
589.29	30555.69
589.45	30452.71
589.61	30396.54
589.77	30888.05
589.93	30600.16
590.08	30487.82
590.24	30703.15
590.40	30251.42
590.56	30745.28
590.72	30331.00
590.88	30160.14
591.04	30270.15
591.20	30738.26
591.35	30663.36
591.51	30520.59
591.67	30885.71
591.83	30810.81
591.99	30567.40
592.15	30600.16
592.31	30469.09
592.46	30604.84
592.62	30422.28
592.78	30403.56
592.94	30433.99
593.10	30675.06
593.26	30295.89
593.41	30637.61
593.57	30565.06
593.73	30417.60
593.89	30972.31
594.05	30712.51
594.20	30731.23
594.36	30326.32
594.52	30433.99
594.68	30581.44
594.84	30480.80
594.99	30771.02
595.15	30803.79
595.31	30742.94
595.47	30829.54
595.62	31307.01
595.78	30768.68
595.94	30707.83
596.10	30712.51
596.25	30335.68
596.41	30555.69
596.57	30602.50
596.73	30789.75
596.88	31002.74
597.04	30913.80
597.20	30761.66
597.36	30480.80
597.51	30920.82
597.67	30768.68
597.83	30881.03
597.99	30754.64
598.14	30874.01
598.30	30675.06
598.46	30363.77
598.61	30668.04
598.77	30515.90
598.93	30951.24
599.09	30742.94
599.24	30899.75
599.40	31131.47
599.56	30866.98
599.71	30773.36
599.87	30944.22
600.03	30834.22
600.18	30801.45
600.34	30693.79
600.50	30546.33
600.65	30960.61
600.81	30904.43
600.97	30972.31
601.12	31103.38
601.28	31030.82
601.44	31405.31
601.59	30892.73
601.75	30691.44
601.91	31035.50
602.06	30892.73
602.22	30565.06
602.37	30696.13
602.53	30962.95
602.69	30740.60
602.84	30724.21
603.00	30707.83
603.16	30909.11
603.31	30628.25
603.47	30422.28
603.62	30740.60
603.78	30618.89
603.94	30625.91
604.09	30319.30
604.25	30565.06
604.40	30646.97
604.56	30841.24
604.71	30733.57
604.87	30607.19
605.03	31136.15
605.18	30796.77
605.34	30967.63
605.49	30581.44
605.65	30672.72
605.80	30167.16
605.96	30515.90
606.12	30698.47
606.27	30679.74
606.43	30897.41
606.58	30703.15
606.74	31145.51
606.89	30677.40
607.05	30455.05
607.20	30951.24
607.36	30792.09
607.51	30862.30
607.67	30412.92
607.82	30361.43
607.98	30651.66
608.13	30658.68
608.29	30576.76
608.44	30728.89
608.60	30731.23
608.75	31016.78
608.91	30300.58
609.06	30576.76
609.22	30607.19
609.37	30813.15
609.53	30356.75
609.68	30129.72
609.84	30934.86
609.99	30331.00
610.15	30487.82
610.30	30384.83
610.46	30469.09
610.61	30401.22
610.76	30670.38
610.92	30960.61
611.07	30658.68
611.23	30658.68
611.38	30583.78
611.54	30288.87
611.69	30204.61
611.84	30059.50
612.00	30312.28
612.15	30010.35
612.31	30899.75
612.46	30167.16
612.62	30494.84
612.77	30534.63
612.92	30487.82
613.08	30600.16
613.23	30644.63
613.39	30202.27
613.54	30316.96
613.69	29961.20
613.85	30087.59
614.00	30122.69
614.15	30228.02
614.31	30155.46
614.46	30232.70
614.62	30265.47
614.77	29986.94
614.92	30230.36
615.08	30139.08
615.23	30520.59
615.38	30080.56
615.54	30284.19
615.69	29551.60
615.84	29729.48
616.00	30115.67
616.15	30293.55
616.30	29956.52
616.46	29645.23
616.61	30085.25
616.76	30206.95
616.92	29991.62
617.07	30129.72
617.22	29816.08
617.37	29755.23
617.53	29935.45
617.68	29762.25
617.83	29799.70
617.99	30068.86
618.14	29523.52
618.29	30094.61
618.45	29771.61
618.60	29778.64
618.75	29654.59
618.90	30099.29
619.06	30213.98
619.21	29701.40
619.36	29687.36
619.51	29743.53
619.67	29535.22
619.82	29350.32
619.97	29413.51
620.12	29429.90
620.28	29448.62
620.43	29525.86
620.58	29783.32
620.73	30132.06
620.89	30080.56
621.04	29635.86
621.19	29429.90
621.34	29900.34
621.49	29420.53
621.65	29586.71
621.80	29699.06
621.95	29411.17
622.10	29235.63
622.25	29397.13
622.41	29158.39
622.56	29326.91
622.71	29642.88
622.86	29156.05
623.01	29504.79
623.16	29420.53
623.32	29301.17
623.47	29099.88
623.62	29376.06
623.77	29415.85
623.92	29364.36
624.07	29064.77
624.23	29029.66
624.38	28961.79
624.53	28966.47
624.68	29390.11
624.83	29537.56
624.98	29102.22
625.13	29331.59
625.29	29486.07
625.44	29312.87
625.59	29064.77
625.74	29146.69
625.89	28713.69
626.04	28905.62
626.19	29041.37
626.34	29151.37
626.49	28851.78
626.65	28973.49
626.80	28795.61
626.95	28886.89
627.10	29282.44
627.25	28889.23
627.40	28861.15
627.55	28732.42
627.70	28802.63
627.85	28690.29
628.00	28439.85
628.15	28753.48
628.30	28540.49
628.45	28926.68
628.60	28568.58
628.76	28591.98
628.91	28856.46
629.06	28559.22
629.21	28737.10
629.36	28851.78
629.51	28634.11
629.66	28657.52
629.81	28662.20
629.96	28343.89
630.11	28519.43
630.26	28395.38
630.41	28217.50
630.56	28449.21
630.71	28470.28
630.86	28278.35
631.01	28624.75
631.16	28535.81
631.31	28535.81
631.46	28376.66
631.61	28692.63
631.76	28121.54
631.91	28381.34
632.06	28020.89
632.21	28259.63
632.36	28318.14
632.51	27838.33
632.66	28109.83
632.81	28046.64
632.96	28491.34
633.10	28123.88
633.25	28327.50
633.40	28507.72
633.55	28484.32
633.70	28032.60
633.85	27697.90
634.00	28058.34
634.15	27978.76
634.30	27861.74
634.45	27992.81
634.60	28016.21
634.75	28166.01
634.90	28032.60
635.05	27934.29
635.19	27899.19
635.34	28533.47
635.49	28119.20
635.64	28208.14
635.79	27882.80
635.94	27894.50
636.09	27983.44
636.24	27557.47
636.39	27566.83
636.53	27814.93
636.68	27594.92
636.83	27351.50
636.98	27840.67
637.13	27693.22
637.28	27545.76
637.43	27718.96
637.57	28063.02
637.72	27604.28
637.87	27740.03
638.02	27531.72
638.17	27557.47
638.32	27651.09
638.46	27489.59
638.61	27529.38
638.76	27147.87
638.91	26958.29
639.06	27440.44
639.20	27728.33
639.35	27620.66
639.50	27496.61
639.65	28063.02
639.80	27431.08
639.94	27623.00
640.09	27262.56
640.24	27229.79
640.39	27131.49
640.54	27084.68
640.68	27505.98
640.83	27475.55
640.98	27000.42
641.13	27040.21
641.27	27300.01
641.42	27260.22
641.57	27302.35
641.72	27101.06
641.86	26829.56
642.01	26874.03
642.16	27318.73
642.31	26925.52
642.45	26813.18
642.60	27000.42
642.75	27185.32
642.90	26867.01
643.04	26766.37
643.19	26607.21
643.34	26977.01
643.48	26991.06
643.63	27175.96
643.78	27143.19
643.93	26998.08
644.07	27262.56
644.22	27037.87
644.37	26892.76
644.51	27021.48
644.66	26815.52
644.81	26768.71
644.95	26813.18
645.10	26607.21
645.25	26604.87
645.39	26661.04
645.54	26623.59
645.69	26773.39
645.83	26988.72
645.98	26738.28
646.13	27119.79
646.27	27009.78
646.42	26951.27
646.57	26616.57
646.71	26796.79
646.86	26595.51
647.00	26466.78
647.15	26567.42
647.30	26600.19
647.44	26239.75
647.59	26705.51
647.74	26546.36
647.88	26511.25
648.03	26373.16
648.17	26459.76
648.32	26504.23
648.47	26375.50
648.61	26492.52
648.76	26469.12
648.90	26614.23
649.05	26518.27
649.20	26579.12
649.34	26288.90
649.49	26396.56
649.63	26209.32
649.78	26155.49
649.92	25937.82
650.07	26073.57
650.21	26153.15
650.36	25832.49
650.51	25844.20
650.65	26167.19
650.80	26085.27
650.94	26251.45
651.09	26026.76
651.23	25769.30
651.38	25886.32
651.52	25795.04
651.67	26574.44
651.81	26192.94
651.96	25916.75
652.10	26345.07
652.25	26125.06
652.39	26132.08
652.54	25905.05
652.68	26426.99
652.83	26071.23
652.97	26295.92
653.12	26008.03
653.26	25989.31
653.41	25790.36
653.55	25797.38
653.70	25862.92
653.84	25909.73
653.99	25460.35
654.13	26073.57
654.27	25481.41
654.42	25909.73
654.56	25809.09
654.71	25818.45
654.85	25668.66
655.00	25710.78
655.14	25762.28
655.29	25713.13
655.43	25785.68
655.57	25455.67
655.72	25443.96
655.86	25474.39
656.01	25392.47
656.15	25563.33
656.30	25483.75
656.44	25420.56
656.58	25207.57
656.73	25343.32
656.87	25649.93
657.01	26012.71
657.16	25432.26
657.30	25195.87
657.45	25563.33
657.59	25345.66
657.73	25298.85
657.88	25458.01
658.02	25273.10
658.16	25256.72
658.31	25226.29
658.45	25312.89
658.60	24821.38
658.74	24982.88
658.88	25039.05
659.03	25130.33
659.17	25095.22
659.31	25081.18
659.46	25067.14
659.60	25406.52
659.74	24713.72
659.89	24725.42
660.03	24797.98
660.17	24868.19
660.32	24877.55
660.46	24882.24
660.60	24613.07
660.74	24795.64
660.89	24847.13
661.03	24386.04
661.17	24924.36
661.32	24629.46
661.46	24601.37
661.60	24821.38
661.74	24844.79
661.89	24879.89
662.03	24563.92
662.17	24683.29
662.31	24692.65
662.46	24184.76
662.60	24226.89
662.74	24479.66
662.88	24273.70
663.03	24056.03
663.17	24212.84
663.31	24159.01
663.45	23852.40
663.60	24252.63
663.74	24290.08
663.88	24177.73
664.02	23983.47
664.17	24208.16
664.31	24084.11
664.45	24100.50
664.59	24276.04
664.73	23882.83
664.88	23962.40
665.02	23571.54
665.16	23627.71
665.30	23651.11
665.44	23667.50
665.59	23463.87
665.73	23679.20
665.87	23508.34
666.01	23623.03
666.15	24088.79
666.29	23590.26
666.44	23646.43
666.58	23480.25
666.72	23264.92
666.86	23807.93
667.00	23583.24
667.14	23396.00
667.28	23349.18
667.43	23173.64
667.57	23304.71
667.71	23264.92
667.85	23075.34
667.99	22981.72
668.13	23192.37
668.27	23157.26
668.41	23009.81
668.56	22860.01
668.70	23133.86
668.84	23087.04
668.98	23023.85
669.12	23002.78
669.26	22860.01
669.40	22951.29
669.54	23044.91
669.68	22775.75
669.82	22822.56
669.96	22431.69
670.10	22670.43
670.25	22597.87
670.39	22773.41
670.53	22544.04
670.67	22284.24
670.81	22742.99
670.95	22569.79
671.09	22511.27
671.23	22427.01
671.37	22384.88
671.51	22689.15
671.65	22522.98
671.79	22338.07
671.93	22188.28
672.07	22192.96
672.21	22326.37
672.35	22005.72
672.49	21818.47
672.63	22008.06
672.77	22197.64
672.91	21462.71
673.05	22122.74
673.19	22038.48
673.33	21614.85
673.47	22043.17
673.61	21649.96
673.75	21701.45
673.89	21642.93
674.03	21275.47
674.17	21509.52
674.31	21511.86
674.45	21518.89
674.59	21460.37
674.73	21380.79
674.87	21195.89
675.01	21249.72
675.15	21486.12
675.29	21172.49
675.43	21090.57
675.56	21118.65
675.70	21331.64
675.84	21109.29
675.98	20563.95
676.12	21322.28
676.26	21273.13
676.40	20910.35
676.54	21015.67
676.68	20765.23
676.82	20456.28
676.96	20552.24
677.10	20435.22
677.23	20978.22
677.37	20451.60
677.51	20704.38
677.65	20318.19
677.79	19953.07
677.93	20280.74
678.07	20215.21
678.21	20039.67
678.34	20067.75
678.48	19934.34
678.62	19569.22
678.76	19957.75
678.90	19791.57
679.04	19840.72
679.18	20023.28
679.31	19601.99
679.45	19468.58
679.59	19625.39
679.73	19412.40
679.87	19199.41
680.00	19278.99
680.14	19339.85
680.28	19236.86
680.42	19192.39
680.56	19508.37
680.70	18963.02
680.83	19295.38
680.97	18813.23
681.11	19075.37
681.25	18754.71
681.39	18820.25
681.52	18876.42
681.66	18625.98
681.80	18815.57
681.94	18717.26
682.07	18675.13
682.21	18359.16
682.35	17987.02
682.49	18190.64
682.62	18197.67
682.76	18061.91
682.90	18068.94
683.04	18272.56
683.17	18434.06
683.31	18143.83
683.45	17855.95
683.59	18148.51
683.72	17898.08
683.86	17895.74
684.00	17909.78
684.13	17783.39
684.27	17619.55
684.41	17689.77
684.55	17465.08
684.68	17345.71
684.82	17481.46
684.96	17233.36
685.09	16882.28
685.23	17139.74
685.37	17224.00
685.50	17181.87
685.64	17359.75
685.78	17486.14
685.91	16957.18
686.05	17022.72
686.19	17032.08
686.32	17179.53
686.46	16947.82
686.60	16741.85
686.73	16587.38
686.87	16681.00
687.01	16430.56
687.14	16730.15
687.28	16453.97
687.42	16430.56
687.55	16425.88
687.69	16262.04
687.82	16505.46
687.96	16283.11
688.10	16114.59
688.23	16023.31
688.37	16149.70
688.50	16217.57
688.64	16044.37
688.78	15939.05
688.91	15843.09
689.05	15714.36
689.18	15651.16
689.32	15119.86
689.46	15571.58
689.59	15751.81
689.73	15410.09
689.86	15365.62
690.00	15295.40
690.13	15531.80
690.27	15314.13
690.41	15489.67
690.54	15260.29
690.68	15229.87
690.81	15461.58
690.95	15370.30
691.08	15059.01
691.22	15091.77
691.35	14782.82
691.49	15126.88
691.62	15021.56
691.76	14562.81
691.89	14906.87
692.03	14555.79
692.16	14452.81
692.30	14527.71
692.43	14555.79
692.57	14415.36
692.70	14574.52
692.84	14312.38
692.97	14073.64
693.11	14139.18
693.24	14129.81
693.38	14253.86
693.51	14272.59
693.65	14122.79
693.78	13860.65
693.92	14012.79
694.05	13951.93
694.19	13895.76
694.32	13858.31
694.45	13631.28
694.59	13420.63
694.72	13329.35
694.86	13664.05
694.99	13336.37
695.13	13153.81
695.26	13476.80
695.39	13284.88
695.53	13128.06
695.66	13308.29
695.80	13193.60
695.93	13261.48
696.07	13207.64
696.20	12877.63
696.33	13256.79
696.47	12879.97
696.60	12879.97
696.73	13029.76
696.87	12943.16
697.00	12526.55
697.14	12596.76
697.27	12542.93
697.40	12659.96
697.54	12241.00
697.67	12535.91
697.80	12582.72
697.94	12446.97
698.07	12416.54
698.21	12224.62
698.34	12339.30
698.47	12306.54
698.61	12074.82
698.74	12257.39
698.87	12215.26
699.01	12145.04
699.14	11686.29
699.27	11910.99
699.40	11964.82
699.54	12042.06
699.67	11712.04
699.80	11482.67
699.94	11585.65
700.07	11616.08
700.20	11510.75
700.34	11314.15
700.47	11529.48
700.60	11335.21
700.73	11311.81
700.87	11396.07
701.00	11426.50
701.13	11047.33
701.26	11197.12
701.40	11290.74
701.53	11206.48
701.66	11087.12
701.79	10972.43
701.93	10878.81
702.06	11023.92
702.19	11096.48
702.32	10897.53
702.46	10651.78
702.59	10501.98
702.72	10649.44
702.85	10562.84
702.99	10361.55
703.12	10490.28
703.25	10410.70
703.38	10490.28
703.51	10396.66
703.65	10235.16
703.78	10281.97
703.91	10251.55
704.04	10310.06
704.17	10157.92
704.31	10026.86
704.44	10178.99
704.57	10099.41
704.70	10202.40
704.83	9790.46
704.96	9949.62
705.10	9694.50
705.23	9825.57
>>>>>End Processed Spectral Data<<<<<
