SpectraSuite Data File
++++++++++++++++++++++++++++++++++++
Date: Fri Oct 18 13:58:25 GMT-05:00 2013
User: bianchi
Dark Spectrum Present: No
Reference Spectrum Present: No
Number of Sampled Component Spectra: 1
Spectrometers: USB2+H05261
Integration Time (usec): 50000 (USB2+H05261)
Spectra Averaged: 1 (USB2+H05261)
Boxcar Smoothing: 0 (USB2+H05261)
Correct for Electrical Dark: No (USB2+H05261)
Strobe/Lamp Enabled: No (USB2+H05261)
Correct for Detector Non-linearity: No (USB2+H05261)
Correct for Stray Light: No (USB2+H05261)
Number of Pixels in Processed Spectrum: 2048
>>>>>Begin Processed Spectral Data<<<<<
365.73	0.00
365.92	0.00
366.12	0.00
366.32	0.00
366.52	0.00
366.72	0.00
366.91	0.00
367.11	0.00
367.31	0.00
367.51	0.00
367.70	0.00
367.90	0.00
368.10	0.00
368.30	0.00
368.49	0.00
368.69	0.00
368.89	0.00
369.09	0.00
369.28	0.00
369.48	0.00
369.68	0.00
369.87	0.00
370.07	0.00
370.27	0.00
370.47	0.00
370.66	112.35
370.86	67.88
371.06	187.24
371.25	177.88
371.45	182.56
371.65	152.13
371.84	135.75
372.04	159.16
372.24	177.88
372.44	220.01
372.63	187.24
372.83	215.33
373.03	215.33
373.22	220.01
373.42	201.29
373.62	142.77
373.81	252.78
374.01	184.90
374.21	208.31
374.40	248.10
374.60	330.02
374.79	264.48
374.99	271.50
375.19	205.97
375.38	217.67
375.58	210.65
375.78	346.40
375.97	222.35
376.17	318.31
376.37	266.82
376.56	215.33
376.76	217.67
376.95	273.84
377.15	234.05
377.35	292.57
377.54	290.23
377.74	220.01
377.93	301.93
378.13	327.68
378.33	205.97
378.52	332.36
378.72	294.91
378.91	306.61
379.11	262.14
379.31	320.65
379.50	294.91
379.70	353.42
379.89	262.14
380.09	308.95
380.28	264.48
380.48	273.84
380.68	332.36
380.87	273.84
381.07	308.95
381.26	301.93
381.46	337.04
381.65	379.17
381.85	273.84
382.04	337.04
382.24	376.83
382.43	315.97
382.63	360.44
382.83	322.99
383.02	339.38
383.22	348.74
383.41	362.78
383.61	351.08
383.80	463.43
384.00	306.61
384.19	421.30
384.39	374.49
384.58	360.44
384.78	416.62
384.97	362.78
385.17	379.17
385.36	376.83
385.56	360.44
385.75	341.72
385.95	372.15
386.14	433.00
386.34	430.66
386.53	376.83
386.72	404.91
386.92	390.87
387.11	435.34
387.31	437.68
387.50	435.34
387.70	517.26
387.89	423.64
388.09	430.66
388.28	461.09
388.48	372.15
388.67	393.21
388.86	393.21
389.06	444.70
389.25	468.11
389.45	400.23
389.64	519.60
389.84	519.60
390.03	433.00
390.22	543.00
390.42	428.32
390.61	440.02
390.81	514.92
391.00	528.96
391.19	594.50
391.39	444.70
391.58	510.24
391.78	507.90
391.97	528.96
392.16	465.77
392.36	507.90
392.55	407.25
392.75	454.06
392.94	493.85
393.13	575.77
393.33	568.75
393.52	552.37
393.71	603.86
393.91	552.37
394.10	585.13
394.29	606.20
394.49	531.30
394.68	596.84
394.88	573.43
395.07	568.75
395.26	585.13
395.46	589.82
395.65	681.10
395.84	622.58
396.04	683.44
396.23	685.78
396.42	699.82
396.62	592.16
396.81	653.01
397.00	716.20
397.19	592.16
397.39	660.03
397.58	634.29
397.77	674.07
397.97	692.80
398.16	634.29
398.35	727.91
398.55	739.61
398.74	657.69
398.93	645.99
399.12	692.80
399.32	702.16
399.51	669.39
399.70	809.83
399.90	753.65
400.09	760.67
400.28	770.04
400.47	678.76
400.67	854.30
400.86	781.74
401.05	690.46
401.24	758.33
401.44	889.40
401.63	774.72
401.82	751.31
402.01	816.85
402.21	723.23
402.40	894.08
402.59	830.89
402.78	870.68
402.97	837.91
403.17	767.70
403.36	847.27
403.55	896.43
403.74	964.30
403.93	763.01
404.13	910.47
404.32	929.19
404.51	863.66
404.70	1039.20
404.89	961.96
405.09	882.38
405.28	889.40
405.47	922.17
405.66	957.28
405.85	966.64
406.05	1022.81
406.24	1027.50
406.43	997.07
406.62	1006.43
406.81	1123.46
407.00	1011.11
407.20	1004.09
407.39	983.02
407.58	1128.14
407.77	1048.56
407.96	1121.12
408.15	1188.99
408.34	1100.05
408.54	1125.80
408.73	1086.01
408.92	1067.28
409.11	1062.60
409.30	1130.48
409.49	1006.43
409.68	1186.65
409.87	1130.48
410.07	1151.54
410.26	1144.52
410.45	1191.33
410.64	1221.76
410.83	1174.95
411.02	1170.27
411.21	1315.38
411.40	1245.16
411.59	1174.95
411.78	1273.25
411.98	1207.72
412.17	1242.82
412.36	1273.25
412.55	1275.59
412.74	1308.36
412.93	1376.24
413.12	1310.70
413.31	1390.28
413.50	1423.05
413.69	1451.13
413.88	1469.86
414.07	1465.18
414.26	1462.83
414.45	1481.56
414.64	1413.68
414.83	1380.92
415.02	1509.65
415.22	1509.65
415.41	1514.33
415.60	1523.69
415.79	1565.82
415.98	1724.97
416.17	1689.87
416.36	1533.05
416.55	1561.14
416.74	1640.72
416.93	1699.23
417.12	1673.48
417.31	1724.97
417.50	1668.80
417.69	1654.76
417.88	1764.76
418.07	1827.96
418.26	1722.63
418.45	1783.49
418.64	1778.81
418.83	1748.38
419.02	1671.14
419.21	1757.74
419.39	1708.59
419.58	1818.60
419.77	1884.13
419.96	1811.57
420.15	1895.83
420.34	1891.15
420.53	1863.07
420.72	1902.86
420.91	1865.41
421.10	1942.64
421.29	1954.35
421.48	1930.94
421.67	1881.79
421.86	1907.54
422.05	1956.69
422.24	1994.14
422.43	1975.41
422.61	1933.28
422.80	2005.84
422.99	1942.64
423.18	2134.57
423.37	1959.03
423.56	1968.39
423.75	1996.48
423.94	1914.56
424.13	1860.73
424.32	2019.88
424.50	1975.41
424.69	2113.50
424.88	1987.11
425.07	1991.80
425.26	1980.09
425.45	1961.37
425.64	2101.80
425.83	1940.30
426.01	2026.90
426.20	2139.25
426.39	2087.76
426.58	2001.16
426.77	2024.56
426.96	2115.84
427.15	2104.14
427.33	2221.17
427.52	2141.59
427.71	2078.40
427.90	2115.84
428.09	2162.66
428.28	2279.68
428.46	2188.40
428.65	2293.72
428.84	2251.60
429.03	2251.60
429.22	2181.38
429.40	2289.04
429.59	2303.09
429.78	2246.91
429.97	2136.91
430.16	2242.23
430.34	2293.72
430.53	2275.00
430.72	2347.56
430.91	2284.36
431.10	2450.54
431.28	2422.45
431.47	2345.22
431.66	2356.92
431.85	2459.90
432.03	2541.82
432.22	2452.88
432.41	2441.18
432.60	2399.05
432.79	2373.30
432.97	2457.56
433.16	2471.61
433.35	2485.65
433.54	2417.77
433.72	2600.34
433.91	2342.88
434.10	2471.61
434.28	2518.42
434.47	2595.65
434.66	2654.17
434.85	2572.25
435.03	2544.16
435.22	2712.68
435.41	2715.02
435.59	2656.51
435.78	2532.46
435.97	2663.53
436.16	2715.02
436.34	2612.04
436.53	2759.49
436.72	2834.39
436.90	2612.04
437.09	2733.75
437.28	2656.51
437.46	2712.68
437.65	2750.13
437.84	2745.45
438.02	2780.56
438.21	2839.07
438.40	2733.75
438.58	2860.13
438.77	2974.82
438.96	2864.82
439.14	2904.60
439.33	2881.20
439.52	3052.06
439.70	3016.95
439.89	2988.86
440.08	3033.33
440.26	3080.14
440.45	2974.82
440.63	3061.42
440.82	3138.66
441.01	3159.72
441.19	3126.96
441.38	3192.49
441.57	3054.40
441.75	3412.50
441.94	3218.24
442.12	3190.15
442.31	3405.48
442.50	3337.60
442.68	3332.92
442.87	3152.70
443.05	3353.99
443.24	3382.07
443.43	3363.35
443.61	3440.59
443.80	3410.16
443.98	3403.14
444.17	3225.26
444.35	3405.48
444.54	3445.27
444.73	3599.74
444.91	3438.25
445.10	3424.20
445.28	3412.50
445.47	3426.54
445.65	3421.86
445.84	3513.14
446.02	3478.04
446.21	3538.89
446.39	3480.38
446.58	3400.80
446.77	3581.02
446.95	3269.73
447.14	3421.86
447.32	3611.45
447.51	3515.48
447.69	3513.14
447.88	3506.12
448.06	3616.13
448.25	3541.23
448.43	3463.99
448.62	3581.02
448.80	3459.31
448.99	3655.92
449.17	3695.71
449.36	3581.02
449.54	3566.98
449.73	3789.33
449.91	3653.58
450.10	3681.66
450.28	3758.90
450.46	3681.66
450.65	3770.60
450.83	3768.26
451.02	3522.51
451.20	3791.67
451.39	3831.46
451.57	3775.28
451.76	3843.16
451.94	3826.78
452.13	3922.74
452.31	3791.67
452.49	3728.47
452.68	3705.07
452.86	4037.42
453.05	4018.70
453.23	3875.93
453.42	3896.99
453.60	3911.04
453.78	3985.93
453.97	3850.18
454.15	3889.97
454.34	3861.88
454.52	4105.30
454.70	3882.95
454.89	3988.27
455.07	3878.27
455.26	4205.94
455.44	4035.08
455.62	4175.52
455.81	4248.07
455.99	4077.21
456.17	4119.34
456.36	4166.15
456.54	4266.80
456.73	4243.39
456.91	4362.76
457.09	4285.52
457.28	4313.61
457.46	4166.15
457.64	4301.90
457.83	4243.39
458.01	4374.46
458.19	4292.54
458.38	4297.22
458.56	4407.23
458.74	4353.40
458.93	4362.76
459.11	4454.04
459.29	4376.80
459.48	4458.72
459.66	4517.23
459.84	4346.37
460.03	4634.26
460.21	4493.83
460.39	4669.37
460.57	4491.49
460.76	4564.04
460.94	4774.69
461.12	4617.88
461.31	4564.04
461.49	4479.79
461.67	4589.79
461.85	4669.37
462.04	4580.43
462.22	4718.52
462.40	4863.63
462.59	4748.95
462.77	4676.39
462.95	4821.50
463.13	4744.27
463.32	4723.20
463.50	4812.14
463.68	4816.82
463.86	4821.50
464.05	4732.56
464.23	4819.16
464.41	4915.12
464.59	4739.58
464.78	4922.15
464.96	4816.82
465.14	4858.95
465.32	5083.64
465.50	4924.49
465.69	4971.30
465.87	4997.04
466.05	4919.81
466.23	5041.51
466.41	5032.15
466.60	5130.45
466.78	5018.11
466.96	4992.36
467.14	5144.50
467.32	5149.18
467.51	5064.92
467.69	4990.02
467.87	5186.63
468.05	5233.44
468.23	5039.17
468.41	5095.35
468.60	5165.56
468.78	5348.12
468.96	5291.95
469.14	5074.28
469.32	5277.91
469.50	5062.58
469.69	5327.06
469.87	5537.71
470.05	5416.00
470.23	5315.36
470.41	5357.49
470.59	5425.36
470.77	5425.36
470.95	5394.93
471.14	5715.59
471.32	5444.09
471.50	5673.46
471.68	5619.63
471.86	5523.66
472.04	5680.48
472.22	5563.45
472.40	5575.16
472.58	5743.67
472.77	5659.42
472.95	5870.06
473.13	6017.52
473.31	5701.54
473.49	5645.37
473.67	5753.04
473.85	5926.24
474.03	5858.36
474.21	5996.45
474.39	6045.60
474.57	6101.78
474.75	6057.31
474.93	6076.03
475.12	6080.71
475.30	6122.84
475.48	6342.85
475.66	6162.63
475.84	6157.95
476.02	6279.66
476.20	6244.55
476.38	6408.39
476.56	6663.51
476.74	6509.03
476.92	6401.37
477.10	6511.37
477.28	6696.27
477.46	6839.05
477.64	6644.78
477.82	6782.87
478.00	6960.75
478.18	6888.20
478.36	6885.86
478.54	7059.06
478.72	7030.97
478.90	7218.21
479.08	7253.32
479.26	7290.77
479.44	7213.53
479.62	7220.55
479.80	7309.49
479.98	7396.09
480.16	7431.20
480.34	7590.36
480.52	7756.54
480.70	7709.72
480.88	7311.83
481.06	7501.42
481.24	7698.02
481.41	7784.62
481.59	7948.46
481.77	7948.46
481.95	8077.19
482.13	8154.43
482.31	8166.13
482.49	8241.03
482.67	8222.30
482.85	8210.60
483.03	8671.68
483.21	8479.76
483.39	8552.32
483.57	8482.10
483.74	8531.25
483.92	8542.96
484.10	8697.43
484.28	8891.70
484.46	9071.92
484.64	9217.03
484.82	9013.40
485.00	8938.51
485.18	9397.25
485.35	9369.16
485.53	9268.52
485.71	9287.25
485.89	9673.43
486.07	9371.50
486.25	9284.91
486.43	9490.87
486.61	9891.10
486.78	9474.49
486.96	9877.06
487.14	9827.91
487.32	9895.78
487.50	10003.45
487.68	10429.43
487.85	10289.00
488.03	10656.46
488.21	10499.64
488.39	10583.90
488.57	10473.90
488.75	10597.95
488.92	10747.74
489.10	10721.99
489.28	10757.10
489.46	10993.50
489.64	11007.54
489.81	11197.12
489.99	11279.04
490.17	11351.60
490.35	11342.24
490.53	11424.15
490.70	11770.55
490.88	11679.27
491.06	11808.00
491.24	11822.05
491.41	11620.76
491.59	11918.01
491.77	11929.71
491.95	11988.22
492.13	12198.87
492.30	12168.45
492.48	12351.01
492.66	12475.06
492.84	12264.41
493.01	12489.10
493.19	12477.40
493.37	12730.17
493.54	12905.71
493.72	12905.71
493.90	12690.38
494.08	12837.84
494.25	12980.61
494.43	13270.84
494.61	13170.19
494.79	13177.22
494.96	13256.79
495.14	13198.28
495.32	13266.16
495.49	13600.85
495.67	13497.87
495.85	13778.73
496.02	13760.01
496.20	13963.64
496.38	13692.13
496.55	13701.50
496.73	14080.66
496.91	14054.92
497.09	14223.44
497.26	14190.67
497.44	14373.23
497.62	14471.53
497.79	14436.42
497.97	14424.72
498.14	14628.35
498.32	14719.63
498.50	14794.53
498.67	14995.81
498.85	14773.46
499.03	14747.72
499.20	15000.49
499.38	15033.26
499.56	15208.80
499.73	15367.96
499.91	15267.31
500.08	15314.13
500.26	15105.82
500.44	15257.95
500.61	15389.02
500.79	15288.38
500.97	15335.19
501.14	15847.77
501.32	15761.17
501.49	15899.26
501.67	15786.91
501.84	15882.88
502.02	15747.12
502.20	15826.70
502.37	16177.78
502.55	16056.08
502.72	15999.90
502.90	16142.67
503.07	16011.60
503.25	16273.74
503.43	16224.59
503.60	16086.50
503.78	16519.50
503.95	16580.36
504.13	16580.36
504.30	16526.52
504.48	16718.45
504.65	16531.20
504.83	16996.97
505.01	16769.94
505.18	17247.41
505.36	17062.51
505.53	17032.08
505.71	17144.42
505.88	16952.50
506.06	17071.87
506.23	17525.93
506.41	17481.46
506.58	17305.92
506.76	17631.26
506.93	17577.42
507.11	17390.18
507.28	17572.74
507.46	17558.70
507.63	17694.45
507.81	17909.78
507.98	17661.68
508.16	17825.52
508.33	18043.19
508.50	17994.04
508.68	17436.99
508.85	18218.73
509.03	18092.34
509.20	17965.95
509.38	18305.33
509.55	18476.19
509.73	18417.68
509.90	18139.15
510.08	18202.35
510.25	18094.68
510.42	18462.15
510.60	18506.62
510.77	18845.99
510.95	18616.62
511.12	18436.40
511.30	18860.04
511.47	18829.61
511.64	18937.27
511.82	18993.45
511.99	18740.67
512.17	18869.40
512.34	19080.05
512.51	19286.01
512.69	19054.30
512.86	19056.64
513.04	19384.32
513.21	19325.80
513.38	19201.76
513.56	19683.91
513.73	19484.96
513.90	19445.17
514.08	19403.04
514.25	19461.55
514.43	19676.88
514.60	19754.12
514.77	19679.22
514.95	19978.81
515.12	19693.27
515.29	19838.38
515.47	19590.28
515.64	19719.01
515.81	19917.96
515.99	20102.86
516.16	20315.85
516.33	20058.39
516.51	20259.68
516.68	20215.21
516.85	20400.11
517.03	20528.84
517.20	20449.26
517.37	20662.25
517.54	20247.97
517.72	20531.18
517.89	20547.56
518.06	20379.04
518.24	20807.36
518.41	20362.66
518.58	20683.31
518.75	20716.08
518.93	21062.48
519.10	20666.93
519.27	20823.75
519.45	20837.79
519.62	20908.01
519.79	20854.17
519.96	20889.28
520.14	21048.44
520.31	20608.42
520.48	21109.29
520.65	21163.12
520.83	21429.94
521.00	21261.43
521.17	21436.97
521.34	21385.47
521.52	21425.26
521.69	21369.09
521.86	21521.23
522.03	21685.06
522.20	21717.83
522.38	21811.45
522.55	21652.30
522.72	21420.58
522.89	21961.25
523.07	22097.00
523.24	21865.28
523.41	22111.04
523.58	21750.60
523.75	21834.86
523.92	22192.96
524.10	22230.41
524.27	22307.65
524.44	22178.92
524.61	22195.30
524.78	22174.24
524.96	22607.23
525.13	22459.78
525.30	22361.48
525.47	22675.11
525.64	22422.33
525.81	22438.72
525.98	22974.70
526.16	22593.19
526.33	22504.25
526.50	23084.70
526.67	22515.95
526.84	22967.68
527.01	22696.17
527.18	22923.21
527.36	22712.56
527.53	22871.72
527.70	23239.18
527.87	23381.95
528.04	23246.20
528.21	23199.39
528.38	22986.40
528.55	23241.52
528.72	23075.34
528.89	23204.07
529.07	23075.34
529.24	23442.81
529.41	23426.42
529.58	23288.33
529.75	23405.36
529.92	23363.23
530.09	23337.48
530.26	23461.53
530.43	23669.84
530.60	23704.95
530.77	23271.95
530.94	23978.79
531.11	23955.38
531.28	23520.04
531.46	23805.59
531.63	23857.08
531.80	23969.43
531.97	23779.84
532.14	23878.15
532.31	23782.18
532.48	24018.58
532.65	23793.89
532.82	23798.57
532.99	24025.60
533.16	24594.35
533.33	24292.42
533.50	24409.45
533.67	24367.32
533.84	24273.70
534.01	24011.56
534.18	24072.41
534.35	24460.94
534.52	24421.15
534.69	24348.59
534.86	24659.88
535.03	24510.09
535.20	24662.22
535.37	24535.84
535.54	24842.45
535.71	24372.00
535.88	24418.81
536.05	24741.80
536.22	24580.31
536.38	24961.81
536.55	25013.31
536.72	24952.45
536.89	24713.72
537.06	24634.14
537.23	24786.27
537.40	24865.85
537.57	24973.52
537.74	24978.20
537.91	25289.49
538.08	25219.27
538.25	24765.21
538.42	25146.72
538.59	25310.55
538.75	25282.47
538.92	25261.40
539.09	25268.42
539.26	25404.17
539.43	25378.43
539.60	25425.24
539.77	25317.57
539.94	25614.82
540.11	25329.28
540.28	25640.57
540.44	25296.51
540.61	25329.28
540.78	25694.40
540.95	25582.06
541.12	25516.52
541.29	25741.21
541.46	25860.58
541.62	25773.98
541.79	25565.67
541.96	25504.82
542.13	25603.12
542.30	25671.00
542.47	25905.05
542.63	26031.44
542.80	26160.17
542.97	26059.52
543.14	26113.36
543.31	26312.30
543.48	26288.90
543.64	26361.45
543.81	26394.22
543.98	26438.69
544.15	26359.11
544.32	26441.03
544.48	26410.60
544.65	26192.94
544.82	26473.80
544.99	26125.06
545.16	26469.12
545.32	26478.48
545.49	26328.69
545.66	27232.13
545.83	26534.65
546.00	26930.20
546.16	26663.38
546.33	26377.84
546.50	26621.25
546.67	26600.19
546.83	26199.96
547.00	26850.63
547.17	26721.90
547.34	26962.97
547.50	26918.50
547.67	27318.73
547.84	27080.00
548.00	26962.97
548.17	27145.53
548.34	26941.91
548.51	27199.37
548.67	27314.05
548.84	26888.07
549.01	27009.78
549.18	27243.84
549.34	27433.42
549.51	27009.78
549.68	26972.33
549.84	27208.73
550.01	27201.71
550.18	27047.23
550.34	27398.31
550.51	27412.35
550.68	27428.74
550.84	27094.04
551.01	27311.71
551.18	27133.83
551.34	27194.68
551.51	27206.39
551.68	27225.11
551.84	27433.42
552.01	27491.93
552.18	27880.46
552.34	27190.00
552.51	27573.85
552.68	27597.26
552.84	27976.42
553.01	27864.08
553.18	27473.21
553.34	27573.85
553.51	27784.50
553.67	27852.38
553.84	28355.59
554.01	27569.17
554.17	28287.71
554.34	27992.81
554.51	28077.07
554.67	27843.01
554.84	27992.81
555.00	27742.37
555.17	27737.69
555.33	28203.46
555.50	27941.32
555.67	28091.11
555.83	27946.00
556.00	27999.83
556.16	28418.78
556.33	27995.15
556.50	28397.72
556.66	28353.25
556.83	27910.89
556.99	28379.00
557.16	28421.13
557.32	28205.80
557.49	27985.79
557.65	28074.73
557.82	27833.65
557.98	28093.45
558.15	28409.42
558.32	28395.38
558.48	28350.91
558.65	28500.70
558.81	28266.65
558.98	28510.07
559.14	28437.51
559.31	28180.05
559.47	28343.89
559.64	28781.57
559.80	28723.05
559.97	28847.10
560.13	28510.07
560.30	28704.33
560.46	28849.44
560.63	28217.50
560.79	28716.03
560.96	29106.90
561.12	28774.55
561.29	28425.81
561.45	28610.71
561.61	28690.29
561.78	28980.51
561.94	28884.55
562.11	28739.44
562.27	29034.35
562.44	28418.78
562.60	28657.52
562.77	28973.49
562.93	28914.98
563.10	28584.96
563.26	28580.28
563.42	29116.26
563.59	29160.73
563.75	28802.63
563.92	28851.78
564.08	28929.02
564.24	28973.49
564.41	28952.43
564.57	28725.39
564.74	28821.36
564.90	29202.86
565.07	29289.46
565.23	29219.25
565.39	28746.46
565.56	29387.77
565.72	28985.19
565.88	29125.63
566.05	29228.61
566.21	28694.97
566.38	28975.83
566.54	28959.45
566.70	29364.36
566.87	29277.76
567.03	29460.32
567.19	29364.36
567.36	29280.10
567.52	29074.13
567.68	29252.02
567.85	29214.57
568.01	29069.45
568.17	29144.35
568.34	29074.13
568.50	29303.51
568.66	29331.59
568.83	29553.94
568.99	29397.13
569.15	29024.98
569.32	29411.17
569.48	29027.32
569.64	29289.46
569.81	29308.19
569.97	29310.53
570.13	29289.46
570.30	29315.21
570.46	29373.72
570.62	29244.99
570.78	29118.60
570.95	29731.83
571.11	29366.70
571.27	29172.44
571.43	29249.67
571.60	29345.64
571.76	29460.32
571.92	29347.98
572.09	29024.98
572.25	29399.47
572.41	29228.61
572.57	29497.77
572.74	29502.45
572.90	29092.86
573.06	29366.70
573.22	29376.06
573.38	29408.83
573.55	29528.20
573.71	29984.60
573.87	29895.66
574.03	29390.11
574.20	29357.34
574.36	29413.51
574.52	29268.40
574.68	29369.04
574.84	29659.27
575.01	29582.03
575.17	29537.56
575.33	29322.23
575.49	29619.48
575.65	29701.40
575.82	29710.76
575.98	29296.49
576.14	29263.72
576.30	29282.44
576.46	29191.16
576.62	29404.15
576.79	29441.60
576.95	29137.33
577.11	29654.59
577.27	29769.27
577.43	29462.66
577.59	29692.04
577.75	29619.48
577.92	29226.27
578.08	29383.09
578.24	29624.16
578.40	29223.93
578.56	29467.34
578.72	29790.34
578.88	29839.49
579.04	29575.01
579.21	29509.47
579.37	29579.69
579.53	30061.84
579.69	29287.12
579.85	29481.39
580.01	29448.62
580.17	29048.39
580.33	29338.62
580.49	29390.11
580.65	29483.73
580.82	29799.70
580.98	30033.75
581.14	29523.52
581.30	29610.12
581.46	29495.43
581.62	29956.52
581.78	29343.30
581.94	29802.04
582.10	29701.40
582.26	29692.04
582.42	29603.10
582.58	29778.64
582.74	30162.48
582.90	29703.74
583.06	29624.16
583.22	29626.50
583.38	29961.20
583.54	29762.25
583.70	29567.99
583.86	29523.52
584.02	29769.27
584.18	29907.37
584.34	29610.12
584.50	29773.95
584.66	29645.23
584.82	29359.68
584.98	29626.50
585.14	29560.97
585.30	29486.07
585.46	29404.15
585.62	29359.68
585.78	29951.84
585.94	29109.24
586.10	29977.58
586.26	29619.48
586.42	29996.31
586.58	29785.66
586.74	29869.92
586.90	29514.16
587.06	29542.24
587.22	29605.44
587.38	29745.87
587.54	29773.95
587.70	29795.02
587.86	30204.61
588.02	29802.04
588.18	30272.49
588.34	30054.82
588.49	29720.12
588.65	29670.97
588.81	29633.52
588.97	29621.82
589.13	29750.55
589.29	30045.46
589.45	29827.79
589.61	30092.27
589.77	30022.05
589.93	29886.30
590.08	29905.02
590.24	30235.04
590.40	29818.42
590.56	30073.54
590.72	29961.20
590.88	29649.91
591.04	29867.58
591.20	30221.00
591.35	30082.91
591.51	30480.80
591.67	30609.53
591.83	30155.46
591.99	30045.46
592.15	29806.72
592.31	30195.25
592.46	30092.27
592.62	30024.39
592.78	30288.87
592.94	29944.81
593.10	30216.32
593.26	30068.86
593.41	30272.49
593.57	30092.27
593.73	30260.79
593.89	30286.53
594.05	30272.49
594.20	30272.49
594.36	30293.55
594.52	30003.33
594.68	30206.95
594.84	29839.49
594.99	30373.13
595.15	30106.31
595.31	30253.76
595.47	30272.49
595.62	30085.25
595.78	30031.41
595.94	30211.64
596.10	29907.37
596.25	30431.65
596.41	29956.52
596.57	29900.34
596.73	30071.20
596.88	30359.09
597.04	30595.48
597.20	30167.16
597.36	30424.62
597.51	30267.81
597.67	30279.51
597.83	30340.36
597.99	30045.46
598.14	30462.07
598.30	30244.40
598.46	30415.26
598.61	30118.01
598.77	30244.40
598.93	30490.16
599.09	30134.40
599.24	30333.34
599.40	30607.19
599.56	30553.35
599.71	30520.59
599.87	30593.14
600.03	30546.33
600.18	30015.03
600.34	30270.15
600.50	30471.43
600.65	30352.07
600.81	30717.19
600.97	30546.33
601.12	30588.46
601.28	30621.23
601.44	30625.91
601.59	30356.75
601.75	30265.47
601.91	30331.00
602.06	29916.73
602.22	30338.02
602.37	30284.19
602.53	30328.66
602.69	30586.12
602.84	30366.11
603.00	30218.66
603.16	30188.23
603.31	30614.21
603.47	30162.48
603.62	30300.58
603.78	30419.94
603.94	29998.65
604.09	30099.29
604.25	30328.66
604.40	30307.60
604.56	30288.87
604.71	30714.85
604.87	30541.65
605.03	30469.09
605.18	29963.54
605.34	30345.05
605.49	29940.13
605.65	30244.40
605.80	29888.64
605.96	29886.30
606.12	30160.14
606.27	30274.83
606.43	30073.54
606.58	30398.88
606.74	30740.60
606.89	30129.72
607.05	30307.60
607.20	30363.77
607.36	30073.54
607.51	30466.75
607.67	29921.41
607.82	30363.77
607.98	29823.11
608.13	30094.61
608.29	29998.65
608.44	30206.95
608.60	29975.24
608.75	30551.01
608.91	30237.38
609.06	30263.13
609.22	30265.47
609.37	30169.51
609.53	29706.08
609.68	29867.58
609.84	29706.08
609.99	30012.69
610.15	29944.81
610.30	30000.99
610.46	30218.66
610.61	29979.92
610.76	30263.13
610.92	29888.64
611.07	29780.98
611.23	29586.71
611.38	29614.80
611.54	29715.44
611.69	29663.95
611.84	29434.58
612.00	29577.35
612.15	29717.78
612.31	30019.71
612.46	29958.86
612.62	30045.46
612.77	30066.52
612.92	29998.65
613.08	29816.08
613.23	29656.93
613.39	29364.36
613.54	29366.70
613.69	29947.15
613.85	29603.10
614.00	29558.63
614.15	29624.16
614.31	29666.29
614.46	30082.91
614.62	29743.53
614.77	29731.83
614.92	29792.68
615.08	29563.31
615.23	29500.11
615.38	29457.98
615.54	29457.98
615.69	29549.26
615.84	29530.54
616.00	29687.36
616.15	29502.45
616.30	29675.65
616.46	29343.30
616.61	29415.85
616.76	29460.32
616.92	29441.60
617.07	29640.54
617.22	29509.47
617.37	29280.10
617.53	29614.80
617.68	29535.22
617.83	29345.64
617.99	29188.82
618.14	29308.19
618.29	29579.69
618.45	29001.58
618.60	29413.51
618.75	29462.66
618.90	29326.91
619.06	29317.55
619.21	29298.83
619.36	29544.58
619.51	28826.04
619.67	28879.87
619.82	29476.71
619.97	29097.54
620.12	29242.65
620.28	28701.99
620.43	29441.60
620.58	29139.67
620.73	29352.66
620.89	28863.49
621.04	29158.39
621.19	29408.83
621.34	28954.77
621.49	28954.77
621.65	28666.88
621.80	29188.82
621.95	28910.30
622.10	28767.52
622.25	28772.21
622.41	28599.01
622.56	29015.62
622.71	29247.33
622.86	28690.29
623.01	28900.94
623.16	29109.24
623.32	28730.08
623.47	28919.66
623.62	28528.79
623.77	28858.81
623.92	28524.11
624.07	28807.31
624.23	28655.18
624.38	28989.88
624.53	28709.01
624.68	28835.40
624.83	28804.97
624.98	28582.62
625.13	28889.23
625.29	28945.41
625.44	28507.72
625.59	28463.25
625.74	28182.39
625.89	28341.55
626.04	28383.68
626.19	28456.23
626.34	28634.11
626.49	28348.57
626.65	28386.02
626.80	28470.28
626.95	28271.33
627.10	28379.00
627.25	28446.87
627.40	28311.12
627.55	28430.49
627.70	28229.20
627.85	28166.01
628.00	28341.55
628.15	28503.04
628.30	28327.50
628.45	28591.98
628.60	27997.49
628.76	28086.43
628.91	28226.86
629.06	28084.09
629.21	27999.83
629.36	28315.80
629.51	28034.94
629.66	27955.36
629.81	27901.53
629.96	27833.65
630.11	28304.10
630.26	27747.05
630.41	27901.53
630.56	28081.75
630.71	27775.14
630.86	27866.42
631.01	27910.89
631.16	28460.91
631.31	27927.27
631.46	27653.43
631.61	27955.36
631.76	28004.51
631.91	27976.42
632.06	27824.29
632.21	27639.39
632.36	27571.51
632.51	27653.43
632.66	27861.74
632.81	27435.76
632.96	27740.03
633.10	27805.56
633.25	27737.69
633.40	27683.86
633.55	27566.83
633.70	27679.18
633.85	27498.95
634.00	27215.75
634.15	27538.74
634.30	27463.85
634.45	27491.93
634.60	27625.34
634.75	27477.89
634.90	27555.13
635.05	27758.75
635.19	27365.54
635.34	27510.66
635.49	27447.46
635.64	27634.71
635.79	27321.07
635.94	27419.38
636.09	27395.97
636.24	27592.58
636.39	27152.55
636.53	27056.59
636.68	27215.75
636.83	27180.64
636.98	27316.39
637.13	27412.35
637.28	27332.78
637.43	27735.35
637.57	27520.02
637.72	26981.70
637.87	27002.76
638.02	27215.75
638.17	27482.57
638.32	26937.23
638.46	27175.96
638.61	26895.10
638.76	26771.05
638.91	26838.92
639.06	26448.05
639.20	26892.76
639.35	27103.40
639.50	27185.32
639.65	27480.23
639.80	26682.11
639.94	26965.31
640.09	26686.79
640.24	26738.28
640.39	26448.05
640.54	26417.63
640.68	26539.33
640.83	26628.27
640.98	26471.46
641.13	26436.35
641.27	26773.39
641.42	26852.97
641.57	26642.32
641.72	26600.19
641.86	26948.93
642.01	26728.92
642.16	26672.74
642.31	26691.47
642.45	26611.89
642.60	26558.06
642.75	26895.10
642.90	26625.93
643.04	26501.89
643.19	26368.48
643.34	26415.29
643.48	26441.03
643.63	26663.38
643.78	26178.89
643.93	26445.71
644.07	26682.11
644.22	26813.18
644.37	26483.16
644.51	26501.89
644.66	26342.73
644.81	26134.42
644.95	26204.64
645.10	26071.23
645.25	26326.35
645.39	26029.10
645.54	26450.39
645.69	26354.43
645.83	26221.02
645.98	26586.15
646.13	26347.41
646.27	26132.08
646.42	25837.17
646.57	26052.50
646.71	26036.12
646.86	26139.10
647.00	26185.91
647.15	25933.14
647.30	26094.63
647.44	25972.92
647.59	26059.52
647.74	25832.49
647.88	25832.49
648.03	26307.62
648.17	26314.64
648.32	26141.44
648.47	26316.98
648.61	26129.74
648.76	26122.72
648.90	26113.36
649.05	25998.67
649.20	25806.75
649.34	25638.23
649.49	25673.34
649.63	25947.18
649.78	25781.00
649.92	25663.97
650.07	25671.00
650.21	25518.86
650.36	25535.24
650.51	25825.47
650.65	25481.41
650.80	25598.44
650.94	25556.31
651.09	25560.99
651.23	25495.46
651.38	25163.10
651.52	25600.78
651.67	25427.58
651.81	25759.94
651.96	25488.43
652.10	25514.18
652.25	25757.60
652.39	25797.38
652.54	25820.79
652.68	25734.19
652.83	25455.67
652.97	25621.84
653.12	25542.27
653.26	25441.62
653.41	25039.05
653.55	25181.82
653.70	25191.19
653.84	25378.43
653.99	25294.17
654.13	25303.53
654.27	25553.97
654.42	25076.50
654.56	24959.47
654.71	25202.89
654.85	24938.41
655.00	25420.56
655.14	25383.11
655.29	25118.63
655.43	24936.07
655.57	25127.99
655.72	25202.89
655.86	25076.50
656.01	25013.31
656.15	24945.43
656.30	25387.79
656.44	24971.18
656.58	24793.29
656.73	24975.86
656.87	25095.22
657.01	24994.58
657.16	25043.73
657.30	24915.00
657.45	25025.01
657.59	24547.54
657.73	24767.55
657.88	24877.55
658.02	24833.08
658.16	24781.59
658.31	24470.30
658.45	24594.35
658.60	24449.24
658.74	24372.00
658.88	24510.09
659.03	24650.52
659.17	24702.01
659.31	24390.72
659.46	24489.03
659.60	24929.05
659.74	24615.41
659.89	24463.28
660.03	24208.16
660.17	24512.43
660.32	24250.29
660.46	24266.67
660.60	24861.17
660.74	23983.47
660.89	24208.16
661.03	23864.10
661.17	24493.71
661.32	24287.74
661.46	24177.73
661.60	24177.73
661.74	24147.31
661.89	24252.63
662.03	24212.84
662.17	24023.26
662.31	24074.75
662.46	24346.25
662.60	23882.83
662.74	23960.06
662.88	24189.44
663.03	23749.42
663.17	23772.82
663.31	23199.39
663.45	23789.20
663.60	23440.47
663.74	23562.17
663.88	23674.52
664.02	23854.74
664.17	23819.63
664.31	23349.18
664.45	23506.00
664.59	23410.04
664.73	23562.17
664.88	23424.08
665.02	23274.29
665.16	23374.93
665.30	23365.57
665.44	23515.36
665.59	23077.68
665.73	22899.80
665.87	23103.43
666.01	23133.86
666.15	23323.44
666.29	23363.23
666.44	23201.73
666.58	22787.46
666.72	22775.75
666.86	23255.56
667.00	22988.74
667.14	22916.19
667.28	23342.16
667.43	22876.40
667.57	22537.02
667.71	22874.06
667.85	22838.95
667.99	22551.06
668.13	22757.03
668.27	22892.78
668.41	22747.67
668.56	22537.02
668.70	22874.06
668.84	22630.64
668.98	22829.59
669.12	22670.43
669.26	22663.41
669.40	22661.07
669.54	22450.42
669.68	22384.88
669.82	21986.99
669.96	22185.94
670.10	22033.80
670.25	22174.24
670.39	22272.54
670.53	22005.72
670.67	21738.90
670.81	22101.68
670.95	22047.85
671.09	22101.68
671.23	22015.08
671.37	22235.09
671.51	22288.92
671.65	21895.71
671.79	21837.20
671.93	21940.18
672.07	21579.74
672.21	21685.06
672.35	21369.09
672.49	21242.70
672.63	21558.67
672.77	21745.92
672.91	21434.63
673.05	21490.80
673.19	21769.32
673.33	21268.45
673.47	21270.79
673.61	21235.68
673.75	21411.22
673.89	21151.42
674.03	21146.74
674.17	20840.13
674.31	21235.68
674.45	21174.83
674.59	21062.48
674.73	21057.80
674.87	21221.64
675.01	21149.08
675.15	20673.95
675.29	20748.85
675.43	21088.23
675.56	20725.44
675.70	20592.03
675.84	20381.38
675.98	19791.57
676.12	20458.62
676.26	20517.14
676.40	20734.81
676.54	20489.05
676.68	20411.81
676.82	19880.51
676.96	20065.41
677.10	20203.50
677.23	20173.08
677.37	20077.12
677.51	20196.48
677.65	20034.99
677.79	19768.16
677.93	19878.17
678.07	19262.61
678.21	19290.70
678.34	19503.68
678.48	19548.15
678.62	19489.64
678.76	19499.00
678.90	19648.80
679.04	19510.71
679.18	19246.23
679.31	19257.93
679.45	19051.96
679.59	19098.77
679.73	18757.05
679.87	19283.67
680.00	18855.36
680.14	18682.16
680.28	18817.91
680.42	18867.06
680.56	18946.64
680.70	18604.92
680.83	18703.22
680.97	18576.83
681.11	18878.76
681.25	18658.75
681.39	18476.19
681.52	18478.53
681.66	18319.37
681.80	18209.37
681.94	18188.30
682.07	18024.47
682.21	18090.00
682.35	17975.31
682.49	17862.97
682.62	17954.25
682.76	18038.51
682.90	17994.04
683.04	17881.69
683.17	17888.71
683.31	17774.03
683.45	17879.35
683.59	17825.52
683.72	17642.96
683.86	17348.05
684.00	17376.14
684.13	17411.25
684.27	17481.46
684.41	17532.95
684.55	16908.03
684.68	17130.38
684.82	17090.59
684.96	16704.40
685.09	16613.12
685.23	17039.10
685.37	16987.61
685.50	16795.68
685.64	17001.65
685.78	16664.61
685.91	16870.58
686.05	16631.85
686.19	16676.32
686.32	16695.04
686.46	16290.13
686.60	16327.58
686.73	16505.46
686.87	16379.07
687.01	16327.58
687.14	16051.39
687.28	15817.34
687.42	15932.03
687.55	16126.29
687.69	16067.78
687.82	15903.94
687.96	15885.22
688.10	15852.45
688.23	15936.71
688.37	15875.85
688.50	15658.18
688.64	15616.05
688.78	15735.42
688.91	15597.33
689.05	15683.93
689.18	15323.49
689.32	15166.67
689.46	15304.76
689.59	15075.39
689.73	15489.67
689.86	15033.26
690.00	14846.02
690.13	15197.10
690.27	15157.31
690.41	14766.44
690.54	14878.79
690.68	14757.08
690.81	14817.93
690.95	14970.07
691.08	15037.94
691.22	14984.11
691.35	14560.47
691.49	14485.58
691.62	14471.53
691.76	14583.88
691.89	14183.65
692.03	14284.29
692.16	14249.18
692.30	14157.90
692.43	14188.33
692.57	14026.83
692.70	14157.90
692.84	13961.30
692.97	13947.25
693.11	14022.15
693.24	13729.58
693.38	13701.50
693.51	13603.19
693.65	13912.14
693.78	13708.52
693.92	13621.92
694.05	13530.64
694.19	13703.84
694.32	13624.26
694.45	13577.45
694.59	13352.76
694.72	13214.66
694.86	12987.63
694.99	13034.44
695.13	13027.42
695.26	13076.57
695.39	12851.88
695.53	13322.33
695.66	13219.35
695.80	12943.16
695.93	13029.76
696.07	12936.14
696.20	13071.89
696.33	12772.30
696.47	12669.32
696.60	12809.75
696.73	12718.47
696.87	12706.77
697.00	12503.14
697.14	12411.86
697.27	12336.96
697.40	12390.80
697.54	12138.02
697.67	12070.14
697.80	12030.35
697.94	12046.74
698.07	12140.36
698.21	11962.48
698.34	11910.99
698.47	11983.54
698.61	11885.24
698.74	12100.57
698.87	11819.71
699.01	11602.04
699.14	12004.61
699.27	11716.72
699.40	11580.97
699.54	11576.29
699.67	11531.82
699.80	11384.37
699.94	11101.16
700.07	11365.64
700.20	11061.37
700.34	11187.76
700.47	11215.85
700.60	11241.59
700.73	11286.06
700.87	11283.72
701.00	10913.92
701.13	10951.37
701.26	11122.23
701.40	10988.82
701.53	10867.11
701.66	11110.52
701.79	10775.83
701.93	10698.59
702.06	10647.10
702.19	10532.41
702.32	10485.60
702.46	10253.89
702.59	10499.64
702.72	10389.64
702.85	10108.77
702.99	10221.12
703.12	10228.14
703.25	9980.04
703.38	10305.38
703.51	10286.65
703.65	10263.25
703.78	10106.43
703.91	10141.54
704.04	10066.64
704.17	10092.39
704.31	9792.80
704.44	9731.95
704.57	9977.70
704.70	9893.44
704.83	9640.67
704.96	9518.96
705.10	9406.61
705.23	9523.64
>>>>>End Processed Spectral Data<<<<<
