SpectraSuite Data File
++++++++++++++++++++++++++++++++++++
Date: Fri Oct 18 13:58:36 GMT-05:00 2013
User: bianchi
Dark Spectrum Present: No
Reference Spectrum Present: No
Number of Sampled Component Spectra: 1
Spectrometers: USB2+H05261
Integration Time (usec): 50000 (USB2+H05261)
Spectra Averaged: 1 (USB2+H05261)
Boxcar Smoothing: 0 (USB2+H05261)
Correct for Electrical Dark: No (USB2+H05261)
Strobe/Lamp Enabled: No (USB2+H05261)
Correct for Detector Non-linearity: No (USB2+H05261)
Correct for Stray Light: No (USB2+H05261)
Number of Pixels in Processed Spectrum: 2048
>>>>>Begin Processed Spectral Data<<<<<
365.73	0.00
365.92	0.00
366.12	0.00
366.32	0.00
366.52	0.00
366.72	0.00
366.91	0.00
367.11	0.00
367.31	0.00
367.51	0.00
367.70	0.00
367.90	0.00
368.10	0.00
368.30	0.00
368.49	0.00
368.69	0.00
368.89	0.00
369.09	0.00
369.28	0.00
369.48	0.00
369.68	0.00
369.87	0.00
370.07	0.00
370.27	0.00
370.47	0.00
370.66	53.83
370.86	205.97
371.06	149.79
371.25	175.54
371.45	138.09
371.65	182.56
371.84	182.56
372.04	175.54
372.24	88.94
372.44	77.24
372.63	222.35
372.83	227.03
373.03	229.37
373.22	173.20
373.42	243.42
373.62	114.69
373.81	196.60
374.01	248.10
374.21	273.84
374.40	180.22
374.60	180.22
374.79	234.05
374.99	308.95
375.19	271.50
375.38	255.12
375.58	285.55
375.78	212.99
375.97	154.48
376.17	327.68
376.37	243.42
376.56	250.44
376.76	259.80
376.95	252.78
377.15	308.95
377.35	259.80
377.54	315.97
377.74	290.23
377.93	311.29
378.13	257.46
378.33	294.91
378.52	304.27
378.72	339.38
378.91	236.39
379.11	327.68
379.31	278.52
379.50	315.97
379.70	311.29
379.89	285.55
380.09	257.46
380.28	290.23
380.48	348.74
380.68	229.37
380.87	325.33
381.07	304.27
381.26	353.42
381.46	285.55
381.65	344.06
381.85	348.74
382.04	315.97
382.24	325.33
382.43	332.36
382.63	390.87
382.83	315.97
383.02	395.55
383.22	456.40
383.41	404.91
383.61	332.36
383.80	339.38
384.00	386.19
384.19	407.25
384.39	355.76
384.58	374.49
384.78	423.64
384.97	404.91
385.17	407.25
385.36	348.74
385.56	355.76
385.75	390.87
385.95	344.06
386.14	374.49
386.34	330.02
386.53	369.80
386.72	362.78
386.92	360.44
387.11	461.09
387.31	365.12
387.50	503.22
387.70	379.17
387.89	390.87
388.09	425.98
388.28	416.62
388.48	454.06
388.67	503.22
388.86	472.79
389.06	372.15
389.25	423.64
389.45	425.98
389.64	416.62
389.84	461.09
390.03	510.24
390.22	449.38
390.42	411.93
390.61	503.22
390.81	521.94
391.00	433.00
391.19	552.37
391.39	550.03
391.58	575.77
391.78	601.52
391.97	543.00
392.16	486.83
392.36	557.05
392.55	561.73
392.75	507.90
392.94	491.51
393.13	512.58
393.33	505.56
393.52	491.51
393.71	543.00
393.91	657.69
394.10	638.97
394.29	566.41
394.49	552.37
394.68	638.97
394.88	603.86
395.07	608.54
395.26	617.90
395.46	638.97
395.65	676.41
395.84	624.92
396.04	648.33
396.23	653.01
396.42	561.73
396.62	662.37
396.81	706.84
397.00	608.54
397.19	580.45
397.39	697.48
397.58	685.78
397.77	664.71
397.97	653.01
398.16	704.50
398.35	645.99
398.55	730.25
398.74	884.72
398.93	720.88
399.12	791.10
399.32	692.80
399.51	751.31
399.70	667.05
399.90	662.37
400.09	699.82
400.28	835.57
400.47	774.72
400.67	713.86
400.86	793.44
401.05	770.04
401.24	758.33
401.44	784.08
401.63	812.17
401.82	732.59
402.01	767.70
402.21	755.99
402.40	807.48
402.59	823.87
402.78	861.32
402.97	877.70
403.17	915.15
403.36	814.51
403.55	889.40
403.74	896.43
403.93	849.61
404.13	940.90
404.32	924.51
404.51	922.17
404.70	908.13
404.89	924.51
405.09	903.45
405.28	842.59
405.47	851.96
405.66	891.74
405.85	994.73
406.05	1004.09
406.24	1020.47
406.43	994.73
406.62	973.66
406.81	1071.97
407.00	1083.67
407.20	1011.11
407.39	1027.50
407.58	1102.39
407.77	1074.31
407.96	1036.86
408.15	1109.41
408.34	1001.75
408.54	1011.11
408.73	1111.75
408.92	1034.52
409.11	1130.48
409.30	1196.01
409.49	1132.82
409.68	1069.62
409.87	1090.69
410.07	1146.86
410.26	1235.80
410.45	1259.21
410.64	1093.03
410.83	1174.95
411.02	1238.14
411.21	1139.84
411.40	1238.14
411.59	1228.78
411.78	1224.10
411.98	1151.54
412.17	1268.57
412.36	1336.45
412.55	1275.59
412.74	1231.12
412.93	1366.87
413.12	1299.00
413.31	1497.94
413.50	1350.49
413.69	1385.60
413.88	1437.09
414.07	1364.53
414.26	1420.71
414.45	1441.77
414.64	1467.52
414.83	1577.52
415.02	1558.80
415.22	1570.50
415.41	1481.56
415.60	1458.15
415.79	1621.99
415.98	1589.22
416.17	1593.90
416.36	1584.54
416.55	1589.22
416.74	1563.48
416.93	1650.08
417.12	1593.90
417.31	1617.31
417.50	1806.89
417.69	1741.36
417.88	1685.19
418.07	1724.97
418.26	1692.21
418.45	1722.63
418.64	1795.19
418.83	1771.79
419.02	1839.66
419.21	1813.92
419.39	1935.62
419.58	1703.91
419.77	1783.49
419.96	1844.34
420.15	1977.75
420.34	1830.30
420.53	1776.47
420.72	1856.04
420.91	1846.68
421.10	1804.55
421.29	1975.41
421.48	1944.99
421.67	1982.43
421.86	1970.73
422.05	1970.73
422.24	1921.58
422.43	2071.37
422.61	1867.75
422.80	1921.58
422.99	1928.60
423.18	1961.37
423.37	2022.22
423.56	1935.62
423.75	2045.63
423.94	1984.77
424.13	1874.77
424.32	1879.45
424.50	2017.54
424.69	2015.20
424.88	2122.87
425.07	2054.99
425.26	1989.46
425.45	2099.46
425.64	2036.27
425.83	1942.64
426.01	2143.93
426.20	2052.65
426.39	2120.53
426.58	2026.90
426.77	2104.14
426.96	2001.16
427.15	2022.22
427.33	2214.15
427.52	2113.50
427.71	2148.61
427.90	2008.18
428.09	2289.04
428.28	2087.76
428.46	2179.04
428.65	2153.29
428.84	2143.93
429.03	2314.79
429.22	2214.15
429.40	2242.23
429.59	2253.94
429.78	2218.83
429.97	2162.66
430.16	2230.53
430.34	2237.55
430.53	2324.15
430.72	2317.13
430.91	2230.53
431.10	2300.75
431.28	2349.90
431.47	2335.85
431.66	2410.75
431.85	2275.00
432.03	2399.05
432.22	2392.03
432.41	2387.35
432.60	2480.97
432.79	2506.71
432.97	2513.74
433.16	2389.69
433.35	2459.90
433.54	2469.27
433.72	2609.70
433.91	2509.05
434.10	2523.10
434.28	2534.80
434.47	2513.74
434.66	2588.63
434.85	2546.50
435.03	2476.29
435.22	2609.70
435.41	2682.25
435.59	2497.35
435.78	2703.32
435.97	2710.34
436.16	2642.46
436.34	2588.63
436.53	2708.00
436.72	2738.43
436.90	2605.02
437.09	2719.70
437.28	2708.00
437.46	2708.00
437.65	2679.91
437.84	2686.94
438.02	2689.28
438.21	2841.41
438.40	2759.49
438.58	2862.48
438.77	2841.41
438.96	2899.92
439.14	2810.98
439.33	2913.97
439.52	3009.93
439.70	2834.39
439.89	3021.63
440.08	3108.23
440.26	3045.04
440.45	3052.06
440.63	3143.34
440.82	3066.10
441.01	3084.83
441.19	3054.40
441.38	3262.71
441.57	3316.54
441.75	3206.53
441.94	3208.87
442.12	3176.11
442.31	3258.03
442.50	3344.63
442.68	3164.40
442.87	3431.23
443.05	3309.52
443.24	3375.05
443.43	3335.26
443.61	3407.82
443.80	3508.46
443.98	3290.79
444.17	3227.60
444.35	3384.41
444.54	3471.01
444.73	3346.97
444.91	3496.76
445.10	3485.06
445.28	3330.58
445.47	3466.33
445.65	3456.97
445.84	3510.80
446.02	3386.76
446.21	3286.11
446.39	3449.95
446.58	3503.78
446.77	3538.89
446.95	3379.73
447.14	3503.78
447.32	3454.63
447.51	3517.83
447.69	3557.61
447.88	3468.67
448.06	3438.25
448.25	3428.88
448.43	3576.34
448.62	3433.57
448.80	3463.99
448.99	3604.42
449.17	3562.30
449.36	3552.93
449.54	3562.30
449.73	3749.54
449.91	3796.35
450.10	3653.58
450.28	3742.52
450.46	3784.65
450.65	3686.34
450.83	3730.81
451.02	3681.66
451.20	3768.26
451.39	3662.94
451.57	3555.27
451.76	3803.37
451.94	3878.27
452.13	3817.41
452.31	3861.88
452.49	3784.65
452.68	3854.86
452.86	3967.21
453.05	4037.42
453.23	3908.69
453.42	3878.27
453.60	3786.99
453.78	3777.62
453.97	3796.35
454.15	3889.97
454.34	3978.91
454.52	3962.53
454.70	3995.29
454.89	4173.18
455.07	3985.93
455.26	3925.08
455.44	4243.39
455.62	3955.51
455.81	4018.70
455.99	3915.72
456.17	4058.49
456.36	4056.15
456.54	4194.24
456.73	4266.80
456.91	4203.60
457.09	4152.11
457.28	4334.67
457.46	4236.37
457.64	4266.80
457.83	4299.56
458.01	4219.99
458.19	4255.09
458.38	4173.18
458.56	4533.62
458.74	4344.03
458.93	4524.26
459.11	4418.93
459.29	4290.20
459.48	4468.08
459.66	4449.36
459.84	4482.13
460.03	4615.54
460.21	4550.00
460.39	4671.71
460.57	4538.30
460.76	4629.58
460.94	4643.62
461.12	4519.57
461.31	4561.70
461.49	4685.75
461.67	4571.07
461.85	4629.58
462.04	4737.24
462.22	4767.67
462.40	4828.53
462.59	4737.24
462.77	4842.57
462.95	4692.77
463.13	4805.12
463.32	4695.11
463.50	4875.34
463.68	4821.50
463.86	4828.53
464.05	4737.24
464.23	4812.14
464.41	4821.50
464.59	4865.97
464.78	4933.85
464.96	4870.65
465.14	4994.70
465.32	4929.17
465.50	4952.57
465.69	5121.09
465.87	4873.00
466.05	4990.02
466.23	5006.41
466.41	4957.25
466.60	5156.20
466.78	5032.15
466.96	4931.51
467.14	5004.07
467.32	5067.26
467.51	5259.18
467.69	4915.12
467.87	5144.50
468.05	5050.88
468.23	5018.11
468.41	5104.71
468.60	5198.33
468.78	5184.29
468.96	5217.05
469.14	5238.12
469.32	5184.29
469.50	5247.48
469.69	5401.96
469.87	5427.70
470.05	5472.17
470.23	5427.70
470.41	5467.49
470.59	5495.58
470.77	5509.62
470.95	5502.60
471.14	5579.84
471.32	5366.85
471.50	5535.37
471.68	5408.98
471.86	5469.83
472.04	5657.07
472.22	5804.53
472.40	5673.46
472.58	5736.65
472.77	5713.25
472.95	5893.47
473.13	5900.49
473.31	5680.48
473.49	5783.46
473.67	5811.55
473.85	5844.32
474.03	5970.71
474.21	6092.41
474.39	6071.35
474.57	6017.52
474.75	6064.33
474.93	6188.38
475.12	6061.99
475.30	6230.51
475.48	6399.02
475.66	6080.71
475.84	6214.12
476.02	6321.79
476.20	6324.13
476.38	6595.63
476.56	6534.78
476.74	6600.31
476.92	6420.09
477.10	6628.40
477.28	6621.38
477.46	6532.44
477.64	6885.86
477.82	6839.05
478.00	6984.16
478.18	6963.09
478.36	7133.95
478.54	6932.67
478.72	7037.99
478.90	7052.03
479.08	7148.00
479.26	7143.32
479.44	7314.17
479.62	7190.13
479.80	7522.48
479.98	7363.33
480.16	7489.71
480.34	7562.27
480.52	7648.87
480.70	7403.11
480.88	7515.46
481.06	7693.34
481.24	7688.66
481.41	7765.90
481.59	7943.78
481.77	7859.52
481.95	7964.84
482.13	8196.56
482.31	8084.21
482.49	8093.57
482.67	8379.12
482.85	8067.83
483.03	8334.65
483.21	8454.02
483.39	8491.46
483.57	8566.36
483.74	8716.16
483.92	8858.93
484.10	8634.24
484.28	8912.76
484.46	9181.92
484.64	9151.49
484.82	9064.89
485.00	9228.73
485.18	9153.84
485.35	9296.61
485.53	9324.69
485.71	9177.24
485.89	9734.29
486.07	9490.87
486.25	9563.43
486.43	9568.11
486.61	9661.73
486.78	9837.27
486.96	9795.14
487.14	10251.55
487.32	9907.49
487.50	10216.44
487.68	10176.65
487.85	10300.70
488.03	10455.17
488.21	10614.33
488.39	10462.19
488.57	10761.78
488.75	10633.05
488.92	10906.90
489.10	10846.04
489.28	10846.04
489.46	11061.37
489.64	11117.54
489.81	11211.17
489.99	11342.24
490.17	11393.73
490.35	11431.18
490.53	11543.52
490.70	11658.21
490.88	11543.52
491.06	11885.24
491.24	11815.02
491.41	11861.84
491.59	11791.62
491.77	12149.72
491.95	12002.27
492.13	12025.67
492.30	12219.94
492.48	12114.61
492.66	11988.22
492.84	12444.63
493.01	12280.79
493.19	12688.04
493.37	12655.28
493.54	12659.96
493.72	12994.65
493.90	12982.95
494.08	12854.22
494.25	13163.17
494.43	13015.72
494.61	13252.11
494.79	13041.46
494.96	13261.48
495.14	13298.92
495.32	13380.84
495.49	13554.04
495.67	13495.53
495.85	13724.90
496.02	13750.65
496.20	13944.91
496.38	13799.80
496.55	13919.17
496.73	14281.95
496.91	13937.89
497.09	14286.63
497.26	14443.45
497.44	14303.01
497.62	14352.16
497.79	14593.24
497.97	14588.56
498.14	14525.36
498.32	14630.69
498.50	14731.33
498.67	15190.08
498.85	14843.68
499.03	14953.68
499.20	15033.26
499.38	14932.62
499.56	15253.27
499.73	15257.95
499.91	15421.79
500.08	15548.18
500.26	15218.16
500.44	15243.91
500.61	15339.87
500.79	15241.57
500.97	15644.14
501.14	15627.76
501.32	15925.00
501.49	15889.90
501.67	15693.29
501.84	15995.22
502.02	15847.77
502.20	16049.05
502.37	16084.16
502.55	16098.20
502.72	16397.79
502.90	16280.77
503.07	15941.39
503.25	16248.00
503.43	16456.31
503.60	16746.53
503.78	16304.17
503.95	16475.03
504.13	16552.27
504.30	16514.82
504.48	16425.88
504.65	16901.01
504.83	16915.05
505.01	17252.09
505.18	16865.90
505.36	16989.95
505.53	16947.82
505.71	17011.01
505.88	17081.23
506.06	16947.82
506.23	17043.78
506.41	17436.99
506.58	17247.41
506.76	17319.96
506.93	17455.72
507.11	17673.39
507.28	17638.28
507.46	17598.49
507.63	17596.15
507.81	17528.27
507.98	17699.13
508.16	17645.30
508.33	17748.28
508.50	17907.44
508.68	17811.48
508.85	18452.78
509.03	18080.64
509.20	18181.28
509.38	18253.84
509.55	18569.81
509.73	18389.59
509.90	18228.09
510.08	18434.06
510.25	18153.20
510.42	18539.38
510.60	18572.15
510.77	18537.04
510.95	18635.35
511.12	18539.38
511.30	18691.52
511.47	18656.41
511.64	18735.99
511.82	18881.10
511.99	18829.61
512.17	18986.43
512.34	19180.69
512.51	18937.27
512.69	19192.39
512.86	19260.27
513.04	19281.33
513.21	19091.75
513.38	19255.59
513.56	19613.69
513.73	19414.74
513.90	19166.65
514.08	19412.40
514.25	19328.14
514.43	19742.42
514.60	19506.02
514.77	19882.85
514.95	20166.06
515.12	19838.38
515.29	19606.67
515.47	19702.63
515.64	20081.80
515.81	19805.61
515.99	19950.73
516.16	20503.09
516.33	20114.56
516.51	20437.56
516.68	20191.80
516.85	20126.27
517.03	20264.36
517.20	20629.48
517.37	20451.60
517.54	20592.03
517.72	20528.84
517.89	20603.74
518.06	20416.49
518.24	20751.19
518.41	20695.02
518.58	20585.01
518.75	20559.27
518.93	21010.99
519.10	20905.66
519.27	20840.13
519.45	20952.48
519.62	21029.71
519.79	21025.03
519.96	21181.85
520.14	21055.46
520.31	21020.35
520.48	21455.69
520.65	21078.86
520.83	21493.14
521.00	21472.07
521.17	21294.19
521.34	21329.30
521.52	21451.01
521.69	21628.89
521.86	21640.59
522.03	22031.46
522.20	21612.51
522.38	21905.07
522.55	21977.63
522.72	21989.33
522.89	21748.26
523.07	22258.49
523.24	21994.01
523.41	22043.17
523.58	21916.78
523.75	22197.64
523.92	21701.45
524.10	21991.67
524.27	22270.20
524.44	22141.47
524.61	22572.13
524.78	22419.99
524.96	22642.34
525.13	22436.38
525.30	22127.42
525.47	22600.21
525.64	22731.28
525.81	22930.23
525.98	22644.68
526.16	22714.90
526.33	22319.35
526.50	22567.45
526.67	22632.98
526.84	22937.25
527.01	22443.40
527.18	22553.40
527.36	22911.50
527.53	23103.43
527.70	23349.18
527.87	23225.14
528.04	23206.41
528.21	23021.51
528.38	22885.76
528.55	23232.16
528.72	23578.56
528.89	23267.27
529.07	23260.24
529.24	23138.54
529.41	23026.19
529.58	23456.85
529.75	23510.68
529.92	23407.70
530.09	23751.76
530.26	23590.26
530.43	23517.70
530.60	23716.65
530.77	23597.28
530.94	23875.80
531.11	23627.71
531.28	23562.17
531.46	23845.38
531.63	24084.11
531.80	24079.43
531.97	24313.48
532.14	24201.14
532.31	23868.78
532.48	24201.14
532.65	24336.89
532.82	23985.81
532.99	24105.18
533.16	23889.85
533.33	24203.48
533.50	24334.55
533.67	24533.50
533.84	24105.18
534.01	24247.95
534.18	24222.20
534.35	24645.84
534.52	24514.77
534.69	24554.56
534.86	24577.97
535.03	24407.11
535.20	24697.33
535.37	24465.62
535.54	24699.67
535.71	24397.74
535.88	24805.00
536.05	24800.32
536.22	25043.73
536.38	24795.64
536.55	24812.02
536.72	24706.70
536.89	24723.08
537.06	24680.95
537.23	24966.49
537.40	25057.78
537.57	25376.09
537.74	25097.56
537.91	25200.55
538.08	25032.03
538.25	25057.78
538.42	25095.22
538.59	25303.53
538.75	24833.08
538.92	25151.40
539.09	25614.82
539.26	25397.15
539.43	25530.56
539.60	25617.16
539.77	25589.08
539.94	25228.63
540.11	25408.86
540.28	25443.96
540.44	25523.54
540.61	25446.30
540.78	25436.94
540.95	25989.31
541.12	25762.28
541.29	25731.85
541.46	25645.25
541.62	25666.31
541.79	25706.10
541.96	25647.59
542.13	26033.78
542.30	25902.71
542.47	25989.31
542.63	26157.83
542.80	26471.46
542.97	26267.83
543.14	26345.07
543.31	26118.04
543.48	26253.79
543.64	26246.77
543.81	26735.94
543.98	26597.85
544.15	26455.08
544.32	26691.47
544.48	26726.58
544.65	26445.71
544.82	26359.11
544.99	26286.56
545.16	26527.63
545.32	26354.43
545.49	26874.03
545.66	26813.18
545.83	27164.26
546.00	26876.37
546.16	26883.39
546.33	26377.84
546.50	26326.35
546.67	26857.65
546.83	26616.57
547.00	26778.07
547.17	26658.70
547.34	27009.78
547.50	26792.11
547.67	27150.21
547.84	26703.17
548.00	26883.39
548.17	26883.39
548.34	27037.87
548.51	27283.62
548.67	27454.48
548.84	27269.58
549.01	27318.73
549.18	27084.68
549.34	27278.94
549.51	27311.71
549.68	27360.86
549.84	27477.89
550.01	27248.52
550.18	27468.53
550.34	27339.80
550.51	27812.59
550.68	27241.50
550.84	27185.32
551.01	27307.03
551.18	27482.57
551.34	27281.28
551.51	27580.87
551.68	27737.69
551.84	27489.59
552.01	27580.87
552.18	27749.39
552.34	27735.35
552.51	28025.57
552.68	27482.57
552.84	27878.12
553.01	27784.50
553.18	27524.70
553.34	28142.60
553.51	27988.13
553.67	28100.47
553.84	28123.88
554.01	27819.61
554.17	27796.20
554.34	28140.26
554.51	28072.39
554.67	28070.04
554.84	27971.74
555.00	28009.19
555.17	27920.25
555.33	27955.36
555.50	28053.66
555.67	27896.85
555.83	28238.56
556.00	28039.62
556.16	28540.49
556.33	28521.77
556.50	28058.34
556.66	28297.08
556.83	28070.04
556.99	28809.65
557.16	28439.85
557.32	28210.48
557.49	28713.69
557.65	28290.06
557.82	28514.75
557.98	28130.90
558.15	28294.74
558.32	28563.90
558.48	28613.05
558.65	28622.41
558.81	28446.87
558.98	28680.92
559.14	28243.24
559.31	28591.98
559.47	28723.05
559.64	28484.32
559.80	28533.47
559.97	28837.74
560.13	28826.04
560.30	28521.77
560.46	28559.22
560.63	28692.63
560.79	28758.16
560.96	28912.64
561.12	29024.98
561.29	28739.44
561.45	28767.52
561.61	28709.01
561.78	29041.37
561.94	28690.29
562.11	28980.51
562.27	28833.06
562.44	29017.96
562.60	28240.90
562.77	28952.43
562.93	28514.75
563.10	28994.56
563.26	29146.69
563.42	29324.57
563.59	28844.76
563.75	29254.36
563.92	28758.16
564.08	28615.39
564.24	28723.05
564.41	28922.00
564.57	28943.06
564.74	28954.77
564.90	29179.46
565.07	29408.83
565.23	29259.04
565.39	28924.34
565.56	29081.16
565.72	29027.32
565.88	29310.53
566.05	29050.73
566.21	29188.82
566.38	29039.03
566.54	29083.50
566.70	29212.23
566.87	29242.65
567.03	29008.60
567.19	29532.88
567.36	29497.77
567.52	29305.85
567.68	29266.06
567.85	29048.39
568.01	29247.33
568.17	29259.04
568.34	29179.46
568.50	29315.21
568.66	29207.55
568.83	29692.04
568.99	29294.14
569.15	29223.93
569.32	29050.73
569.48	29310.53
569.64	29476.71
569.81	29221.59
569.97	29373.72
570.13	29392.45
570.30	29284.78
570.46	29376.06
570.62	29392.45
570.78	29006.26
570.95	28936.04
571.11	29446.28
571.27	29184.14
571.43	29303.51
571.60	29457.98
571.76	29340.96
571.92	29483.73
572.09	29790.34
572.25	29486.07
572.41	29834.81
572.57	29378.40
572.74	29539.90
572.90	29097.54
573.06	29268.40
573.22	29624.16
573.38	29518.84
573.55	29345.64
573.71	29830.13
573.87	29827.79
574.03	29434.58
574.20	29612.46
574.36	29277.76
574.52	29642.88
574.68	29369.04
574.84	29572.67
575.01	29745.87
575.17	29881.62
575.33	29750.55
575.49	29816.08
575.65	29457.98
575.82	29654.59
575.98	29750.55
576.14	29673.31
576.30	29465.00
576.46	29661.61
576.62	29523.52
576.79	29598.41
576.95	29301.17
577.11	29722.46
577.27	29209.89
577.43	29813.74
577.59	29769.27
577.75	29219.25
577.92	29802.04
578.08	29570.33
578.24	29731.83
578.40	29750.55
578.56	29649.91
578.72	29890.98
578.88	30003.33
579.04	29965.88
579.21	29495.43
579.37	30005.67
579.53	29748.21
579.69	29521.18
579.85	29659.27
580.01	29575.01
580.17	29465.00
580.33	29617.14
580.49	29699.06
580.65	30190.57
580.82	29977.58
580.98	29991.62
581.14	29883.96
581.30	30253.76
581.46	29722.46
581.62	29977.58
581.78	29701.40
581.94	29764.59
582.10	29825.45
582.26	29912.05
582.42	29759.91
582.58	29984.60
582.74	29975.24
582.90	29832.47
583.06	30017.37
583.22	29862.90
583.38	29659.27
583.54	29724.80
583.70	29539.90
583.86	29954.18
584.02	29593.73
584.18	30361.43
584.34	29727.14
584.50	29790.34
584.66	30389.52
584.82	29806.72
584.98	30148.44
585.14	29708.42
585.30	29661.61
585.46	30136.74
585.62	29748.21
585.78	29649.91
585.94	30036.09
586.10	30136.74
586.26	30012.69
586.42	30061.84
586.58	30345.05
586.74	30403.56
586.90	30066.52
587.06	29722.46
587.22	30059.50
587.38	29844.17
587.54	30293.55
587.70	30061.84
587.86	30148.44
588.02	30190.57
588.18	30118.01
588.34	29972.90
588.49	30075.88
588.65	29839.49
588.81	29598.41
588.97	30228.02
589.13	29968.22
589.29	30309.94
589.45	29729.48
589.61	30075.88
589.77	29942.47
589.93	30183.55
590.08	30141.42
590.24	30216.32
590.40	30181.21
590.56	30043.12
590.72	30099.29
590.88	30118.01
591.04	29989.28
591.20	30419.94
591.35	30218.66
591.51	30483.14
591.67	30323.98
591.83	30452.71
591.99	30033.75
592.15	30263.13
592.31	30361.43
592.46	30251.42
592.62	29984.60
592.78	30169.51
592.94	30125.04
593.10	30188.23
593.26	30263.13
593.41	30642.29
593.57	30209.29
593.73	30508.88
593.89	30384.83
594.05	30529.95
594.20	30045.46
594.36	30225.68
594.52	30101.63
594.68	29912.05
594.84	30305.26
594.99	30850.60
595.15	30565.06
595.31	30389.52
595.47	30309.94
595.62	30277.17
595.78	30265.47
595.94	30230.36
596.10	30558.03
596.25	30258.45
596.41	30478.46
596.57	29963.54
596.73	30721.87
596.88	30529.95
597.04	30195.25
597.20	30852.94
597.36	30361.43
597.51	30466.75
597.67	30387.18
597.83	30108.65
597.99	30326.32
598.14	30511.22
598.30	30380.15
598.46	30529.95
598.61	30382.49
598.77	30075.88
598.93	30675.06
599.09	30426.96
599.24	30717.19
599.40	30328.66
599.56	30373.13
599.71	30536.97
599.87	30822.51
600.03	30476.12
600.18	30326.32
600.34	30764.00
600.50	30644.63
600.65	30658.68
600.81	30246.74
600.97	30363.77
601.12	30616.55
601.28	30614.21
601.44	30991.03
601.59	30546.33
601.75	30661.02
601.91	30340.36
602.06	30546.33
602.22	30281.85
602.37	30431.65
602.53	30441.01
602.69	30541.65
602.84	30492.50
603.00	30604.84
603.16	30899.75
603.31	30410.58
603.47	30918.48
603.62	30485.48
603.78	30546.33
603.94	30331.00
604.09	30607.19
604.25	30274.83
604.40	29972.90
604.56	30387.18
604.71	30838.90
604.87	30522.93
605.03	30424.62
605.18	30637.61
605.34	30672.72
605.49	30253.76
605.65	30625.91
605.80	30150.78
605.96	30075.88
606.12	30256.11
606.27	30515.90
606.43	30263.13
606.58	30555.69
606.74	30391.86
606.89	30642.29
607.05	30813.15
607.20	30103.97
607.36	30576.76
607.51	30583.78
607.67	30068.86
607.82	30169.51
607.98	30382.49
608.13	29956.52
608.29	30370.79
608.44	30466.75
608.60	30260.79
608.75	30190.57
608.91	30394.20
609.06	30291.21
609.22	30401.22
609.37	30274.83
609.53	30183.55
609.68	29900.34
609.84	29659.27
609.99	30029.07
610.15	29986.94
610.30	30113.33
610.46	29785.66
610.61	30075.88
610.76	30174.19
610.92	30316.96
611.07	30520.59
611.23	30167.16
611.38	30010.35
611.54	29853.53
611.69	29514.16
611.84	30574.42
612.00	29923.75
612.15	29797.36
612.31	30473.78
612.46	30464.41
612.62	30064.18
612.77	30031.41
612.92	30167.16
613.08	29846.51
613.23	30258.45
613.39	29743.53
613.54	29937.79
613.69	29940.13
613.85	29708.42
614.00	30150.78
614.15	29722.46
614.31	29965.88
614.46	29811.40
614.62	29961.20
614.77	29991.62
614.92	29858.21
615.08	29806.72
615.23	29200.52
615.38	30136.74
615.54	29432.24
615.69	29764.59
615.84	29886.30
616.00	30031.41
616.15	29450.96
616.30	30003.33
616.46	29677.99
616.61	30036.09
616.76	29816.08
616.92	29769.27
617.07	29572.67
617.22	29324.57
617.37	29324.57
617.53	29687.36
617.68	29432.24
617.83	29551.60
617.99	29216.91
618.14	29170.10
618.29	29600.76
618.45	29724.80
618.60	29706.08
618.75	29717.78
618.90	29340.96
619.06	29596.07
619.21	29659.27
619.36	29078.82
619.51	29298.83
619.67	29310.53
619.82	29212.23
619.97	29666.29
620.12	28971.15
620.28	29228.61
620.43	29350.32
620.58	29434.58
620.73	29537.56
620.89	29144.35
621.04	29195.84
621.19	29146.69
621.34	29010.94
621.49	29092.86
621.65	29097.54
621.80	29539.90
621.95	29158.39
622.10	29497.77
622.25	29085.84
622.41	29277.76
622.56	29067.11
622.71	29071.79
622.86	29064.77
623.01	29113.92
623.16	28929.02
623.32	28868.17
623.47	29254.36
623.62	29343.30
623.77	28631.77
623.92	28776.89
624.07	29134.99
624.23	28779.23
624.38	29078.82
624.53	28954.77
624.68	29240.31
624.83	28968.81
624.98	29186.48
625.13	28751.14
625.29	28858.81
625.44	28678.58
625.59	28694.97
625.74	28837.74
625.89	28697.31
626.04	28704.33
626.19	28629.43
626.34	28627.09
626.49	28704.33
626.65	28299.42
626.80	28868.17
626.95	28325.16
627.10	28465.60
627.25	28643.48
627.40	28376.66
627.55	28161.33
627.70	27964.72
627.85	28109.83
628.00	28353.25
628.15	28720.71
628.30	28156.64
628.45	27957.70
628.60	28556.88
628.76	28133.24
628.91	28737.10
629.06	28226.86
629.21	28325.16
629.36	28201.11
629.51	28051.32
629.66	28409.42
629.81	28004.51
629.96	28449.21
630.11	28388.36
630.26	28187.07
630.41	28063.02
630.56	27744.71
630.71	27824.29
630.86	27716.62
631.01	28144.94
631.16	28439.85
631.31	28339.21
631.46	27866.42
631.61	28238.56
631.76	27765.78
631.91	28063.02
632.06	28013.87
632.21	27704.92
632.36	27983.44
632.51	27702.58
632.66	27936.63
632.81	27779.82
632.96	28002.17
633.10	27861.74
633.25	28156.64
633.40	27929.61
633.55	27831.31
633.70	27456.82
633.85	27496.61
634.00	27421.72
634.15	27431.08
634.30	27672.15
634.45	27377.25
634.60	27585.55
634.75	27850.03
634.90	28020.89
635.05	27866.42
635.19	27901.53
635.34	27997.49
635.49	27974.08
635.64	27934.29
635.79	27508.32
635.94	27349.16
636.09	27524.70
636.24	27311.71
636.39	26969.99
636.53	27335.12
636.68	27428.74
636.83	27129.15
636.98	27742.37
637.13	27372.57
637.28	27508.32
637.43	27522.36
637.57	27309.37
637.72	27119.79
637.87	27431.08
638.02	27314.05
638.17	27285.97
638.32	27274.26
638.46	27133.83
638.61	27058.93
638.76	27047.23
638.91	27002.76
639.06	27002.76
639.20	27475.55
639.35	27037.87
639.50	27215.75
639.65	27536.40
639.80	27564.49
639.94	26899.78
640.09	27002.76
640.24	26923.18
640.39	26810.84
640.54	26867.01
640.68	26859.99
640.83	27000.42
640.98	26757.00
641.13	26850.63
641.27	26958.29
641.42	26801.47
641.57	26838.92
641.72	26829.56
641.86	26492.52
642.01	26548.70
642.16	26513.59
642.31	26642.32
642.45	26726.58
642.60	26412.95
642.75	26211.66
642.90	26328.69
643.04	26789.77
643.19	26754.66
643.34	26803.82
643.48	26621.25
643.63	26979.36
643.78	26808.50
643.93	26792.11
644.07	26904.46
644.22	26972.33
644.37	26490.18
644.51	26916.16
644.66	26632.96
644.81	26335.71
644.95	26384.86
645.10	26094.63
645.25	26356.77
645.39	26731.26
645.54	26630.62
645.69	26525.29
645.83	26380.18
645.98	26225.70
646.13	26707.85
646.27	26586.15
646.42	26544.02
646.57	26279.54
646.71	26415.29
646.86	26817.86
647.00	26305.28
647.15	26286.56
647.30	26281.88
647.44	26190.59
647.59	25802.07
647.74	26162.51
647.88	26204.64
648.03	26101.65
648.17	26441.03
648.32	26101.65
648.47	26206.98
648.61	25642.91
648.76	26394.22
648.90	25862.92
649.05	25989.31
649.20	26244.43
649.34	26096.97
649.49	25860.58
649.63	25991.65
649.78	26225.70
649.92	26073.57
650.07	26043.14
650.21	25872.28
650.36	25750.57
650.51	25694.40
650.65	25750.57
650.80	26066.55
650.94	25846.54
651.09	25589.08
651.23	26188.25
651.38	25867.60
651.52	25715.47
651.67	25708.44
651.81	25364.39
651.96	25923.77
652.10	25869.94
652.25	25537.59
652.39	25645.25
652.54	25582.06
652.68	25928.45
652.83	25671.00
652.97	25745.89
653.12	25745.89
653.26	25682.70
653.41	25830.15
653.55	25558.65
653.70	25289.49
653.84	25820.79
653.99	25708.44
654.13	25399.49
654.27	25446.30
654.42	25439.28
654.56	25678.02
654.71	25647.59
654.85	25656.95
655.00	25570.35
655.14	25748.23
655.29	25200.55
655.43	25319.92
655.57	25212.25
655.72	25142.03
655.86	25326.94
656.01	25219.27
656.15	25453.33
656.30	24936.07
656.44	25235.66
656.58	25149.06
656.73	24961.81
656.87	25319.92
657.01	24919.68
657.16	25137.35
657.30	25633.55
657.45	25144.38
657.59	25078.84
657.73	25123.31
657.88	25034.37
658.02	24697.33
658.16	24994.58
658.31	24638.82
658.45	24912.66
658.60	24748.82
658.74	24912.66
658.88	24727.76
659.03	24814.36
659.17	24907.98
659.31	24851.81
659.46	24720.74
659.60	25029.69
659.74	25067.14
659.89	24528.81
660.03	24765.21
660.17	24697.33
660.32	24175.39
660.46	24472.64
660.60	24437.53
660.74	24187.10
660.89	24383.70
661.03	24372.00
661.17	24411.79
661.32	24196.46
661.46	24205.82
661.60	24517.11
661.74	24463.28
661.89	24343.91
662.03	24318.17
662.17	24037.30
662.31	24135.60
662.46	24823.72
662.60	24121.56
662.74	23981.13
662.88	24264.33
663.03	23814.95
663.17	23718.99
663.31	23824.31
663.45	23545.79
663.60	23817.29
663.74	23763.46
663.88	23899.21
664.02	23920.28
664.17	23920.28
664.31	23679.20
664.45	23793.89
664.59	23953.04
664.73	24006.87
664.88	23522.38
665.02	23477.91
665.16	23527.06
665.30	23651.11
665.44	23658.14
665.59	23208.75
665.73	23506.00
665.87	23459.19
666.01	23208.75
666.15	23377.27
666.29	23702.61
666.44	23239.18
666.58	23225.14
666.72	23084.70
666.86	23555.15
667.00	23325.78
667.14	23293.01
667.28	23166.62
667.43	23215.77
667.57	22860.01
667.71	22958.31
667.85	23023.85
667.99	22871.72
668.13	22841.29
668.27	22855.33
668.41	22768.73
668.56	22611.92
668.70	22782.77
668.84	23016.83
668.98	22888.10
669.12	22829.59
669.26	22623.62
669.40	22801.50
669.54	22422.33
669.68	22642.34
669.82	22544.04
669.96	22078.27
670.10	22197.64
670.25	22494.89
670.39	22466.80
670.53	22293.60
670.67	22286.58
670.81	22445.74
670.95	22284.24
671.09	22389.56
671.23	22253.81
671.37	22207.00
671.51	22239.77
671.65	21951.88
671.79	22115.72
671.93	22015.08
672.07	21865.28
672.21	21912.10
672.35	21795.07
672.49	21783.37
672.63	21530.59
672.77	21757.62
672.91	21678.04
673.05	21703.79
673.19	21869.97
673.33	21469.73
673.47	21727.19
673.61	21612.51
673.75	21830.18
673.89	21635.91
674.03	21261.43
674.17	21383.13
674.31	21287.17
674.45	21254.40
674.59	21355.05
674.73	21380.79
674.87	21029.71
675.01	21167.80
675.15	20996.95
675.29	20992.26
675.43	20905.66
675.56	20554.58
675.70	20793.32
675.84	20760.55
675.98	20496.07
676.12	20943.11
676.26	20982.90
676.40	20790.98
676.54	20638.84
676.68	20360.32
676.82	19819.66
676.96	20039.67
677.10	20161.37
677.23	19955.41
677.37	20039.67
677.51	20245.63
677.65	20198.82
677.79	19784.55
677.93	19903.92
678.07	19882.85
678.21	19707.31
678.34	19611.35
678.48	19414.74
678.62	19819.66
678.76	19681.56
678.90	19559.86
679.04	19384.32
679.18	19644.12
679.31	19536.45
679.45	19192.39
679.59	19066.00
679.73	19339.85
679.87	18897.49
680.00	18970.04
680.14	18956.00
680.28	19126.86
680.42	19220.48
680.56	19204.10
680.70	19197.07
680.83	18658.75
680.97	19269.63
681.11	18824.93
681.25	18995.79
681.39	18705.56
681.52	18743.01
681.66	18618.96
681.80	18150.85
681.94	18412.99
682.07	18515.98
682.21	18146.17
682.35	18380.23
682.49	18017.44
682.62	18200.01
682.76	18017.44
682.90	18061.91
683.04	18047.87
683.17	18232.77
683.31	17895.74
683.45	17774.03
683.59	17933.18
683.72	17921.48
683.86	17776.37
684.00	17516.57
684.13	17439.33
684.27	17434.65
684.41	17401.88
684.55	17076.55
684.68	17106.98
684.82	17137.40
684.96	17142.08
685.09	17055.48
685.23	16982.93
685.37	16823.77
685.50	17198.26
685.64	17240.39
685.78	17104.64
685.91	17146.76
686.05	17121.02
686.19	16905.69
686.32	16751.21
686.46	16477.37
686.60	16566.31
686.73	16641.21
686.87	16400.13
687.01	16388.43
687.14	16058.42
687.28	16369.71
687.42	16294.81
687.55	16145.02
687.69	16091.18
687.82	15960.11
687.96	15955.43
688.10	15955.43
688.23	15957.77
688.37	16156.72
688.50	15812.66
688.64	15662.86
688.78	15917.98
688.91	15587.97
689.05	15644.14
689.18	15723.72
689.32	14988.79
689.46	15197.10
689.59	15580.95
689.73	15379.66
689.86	15492.01
690.00	15358.60
690.13	15372.64
690.27	15236.89
690.41	15066.03
690.54	15075.39
690.68	15197.10
690.81	15136.24
690.95	15222.84
691.08	14991.13
691.22	14789.85
691.35	14960.70
691.49	14747.72
691.62	14923.26
691.76	14501.96
691.89	14375.57
692.03	14602.60
692.16	14244.50
692.30	14249.18
692.43	14150.88
692.57	14031.51
692.70	14221.10
692.84	14195.35
692.97	14162.58
693.11	13982.36
693.24	14139.18
693.38	14136.84
693.51	13984.70
693.65	14003.43
693.78	13654.69
693.92	13774.05
694.05	13724.90
694.19	13612.56
694.32	13528.30
694.45	13544.68
694.59	13413.61
694.72	13432.33
694.86	13111.68
694.99	12989.97
695.13	13418.29
695.26	13219.35
695.39	13102.32
695.53	12875.29
695.66	13121.04
695.80	13256.79
695.93	13123.38
696.07	13034.44
696.20	13013.38
696.33	12823.80
696.47	12964.23
696.60	12819.11
696.73	12545.27
696.87	12690.38
697.00	12786.35
697.14	12262.07
697.27	12365.05
697.40	12273.77
697.54	12421.22
697.67	12273.77
697.80	12231.64
697.94	12224.62
698.07	11843.11
698.21	12266.75
698.34	11934.39
698.47	12152.06
698.61	11995.25
698.74	12049.08
698.87	12053.76
699.01	11885.24
699.14	12006.95
699.27	11763.53
699.40	11754.17
699.54	11709.70
699.67	11529.48
699.80	11658.21
699.94	11623.10
700.07	11543.52
700.20	11496.71
700.34	11253.30
700.47	11463.94
700.60	11367.98
700.73	11279.04
700.87	11276.70
701.00	11143.29
701.13	11255.64
701.26	10963.07
701.40	11131.59
701.53	11232.23
701.66	10972.43
701.79	10995.84
701.93	10876.47
702.06	10614.33
702.19	10560.50
702.32	10878.81
702.46	10677.52
702.59	10532.41
702.72	10527.73
702.85	10562.84
702.99	10377.94
703.12	10211.76
703.25	10396.66
703.38	10497.30
703.51	10487.94
703.65	10368.57
703.78	10305.38
703.91	10310.06
704.04	10356.87
704.17	10052.60
704.31	10188.35
704.44	10050.26
704.57	10094.73
704.70	9830.25
704.83	9783.44
704.96	9750.67
705.10	9764.72
705.23	9783.44
>>>>>End Processed Spectral Data<<<<<
