SpectraSuite Data File
++++++++++++++++++++++++++++++++++++
Date: Fri Oct 18 13:57:55 GMT-05:00 2013
User: bianchi
Dark Spectrum Present: No
Reference Spectrum Present: No
Number of Sampled Component Spectra: 1
Spectrometers: USB2+H05261
Integration Time (usec): 50000 (USB2+H05261)
Spectra Averaged: 1 (USB2+H05261)
Boxcar Smoothing: 0 (USB2+H05261)
Correct for Electrical Dark: No (USB2+H05261)
Strobe/Lamp Enabled: No (USB2+H05261)
Correct for Detector Non-linearity: No (USB2+H05261)
Correct for Stray Light: No (USB2+H05261)
Number of Pixels in Processed Spectrum: 2048
>>>>>Begin Processed Spectral Data<<<<<
365.73	0.00
365.92	0.00
366.12	0.00
366.32	0.00
366.52	0.00
366.72	0.00
366.91	0.00
367.11	0.00
367.31	0.00
367.51	0.00
367.70	0.00
367.90	0.00
368.10	0.00
368.30	0.00
368.49	0.00
368.69	0.00
368.89	0.00
369.09	0.00
369.28	0.00
369.48	0.00
369.68	0.00
369.87	0.00
370.07	0.00
370.27	0.00
370.47	0.00
370.66	95.96
370.86	102.98
371.06	112.35
371.25	159.16
371.45	149.79
371.65	163.84
371.84	95.96
372.04	142.77
372.24	163.84
372.44	166.18
372.63	187.24
372.83	222.35
373.03	285.55
373.22	262.14
373.42	184.90
373.62	222.35
373.81	224.69
374.01	304.27
374.21	299.59
374.40	236.39
374.60	222.35
374.79	301.93
374.99	266.82
375.19	201.29
375.38	351.08
375.58	290.23
375.78	243.42
375.97	278.52
376.17	201.29
376.37	196.60
376.56	208.31
376.76	276.18
376.95	337.04
377.15	283.20
377.35	278.52
377.54	320.65
377.74	334.70
377.93	243.42
378.13	348.74
378.33	365.12
378.52	313.63
378.72	301.93
378.91	248.10
379.11	365.12
379.31	198.95
379.50	234.05
379.70	276.18
379.89	374.49
380.09	327.68
380.28	292.57
380.48	318.31
380.68	285.55
380.87	285.55
381.07	358.10
381.26	374.49
381.46	264.48
381.65	294.91
381.85	313.63
382.04	257.46
382.24	404.91
382.43	430.66
382.63	397.89
382.83	346.40
383.02	355.76
383.22	362.78
383.41	376.83
383.61	250.44
383.80	320.65
384.00	463.43
384.19	400.23
384.39	383.85
384.58	388.53
384.78	395.55
384.97	346.40
385.17	372.15
385.36	435.34
385.56	472.79
385.75	379.17
385.95	416.62
386.14	348.74
386.34	376.83
386.53	395.55
386.72	475.13
386.92	409.59
387.11	407.25
387.31	489.17
387.50	425.98
387.70	437.68
387.89	451.72
388.09	470.45
388.28	456.40
388.48	505.56
388.67	423.64
388.86	479.81
389.06	461.09
389.25	454.06
389.45	521.94
389.64	451.72
389.84	477.47
390.03	451.72
390.22	470.45
390.42	524.28
390.61	643.65
390.81	535.98
391.00	461.09
391.19	561.73
391.39	545.34
391.58	535.98
391.78	507.90
391.97	540.66
392.16	514.92
392.36	596.84
392.55	608.54
392.75	528.96
392.94	615.56
393.13	568.75
393.33	545.34
393.52	543.00
393.71	496.19
393.91	585.13
394.10	580.45
394.29	568.75
394.49	624.92
394.68	629.60
394.88	582.79
395.07	599.18
395.26	631.94
395.46	638.97
395.65	650.67
395.84	688.12
396.04	690.46
396.23	739.61
396.42	739.61
396.62	664.71
396.81	634.29
397.00	723.23
397.19	765.36
397.39	629.60
397.58	713.86
397.77	753.65
397.97	741.95
398.16	606.20
398.35	688.12
398.55	739.61
398.74	660.03
398.93	744.29
399.12	770.04
399.32	791.10
399.51	667.05
399.70	849.61
399.90	866.00
400.09	851.96
400.28	821.53
400.47	798.12
400.67	826.21
400.86	758.33
401.05	849.61
401.24	896.43
401.44	805.14
401.63	807.48
401.82	898.77
402.01	812.17
402.21	835.57
402.40	891.74
402.59	889.40
402.78	917.49
402.97	870.68
403.17	868.34
403.36	966.64
403.55	875.36
403.74	891.74
403.93	959.62
404.13	964.30
404.32	894.08
404.51	896.43
404.70	1032.18
404.89	976.00
405.09	987.71
405.28	980.68
405.47	985.37
405.66	1088.35
405.85	973.66
406.05	1018.13
406.24	1048.56
406.43	1053.24
406.62	983.02
406.81	1069.62
407.00	1104.73
407.20	1015.79
407.39	1071.97
407.58	1184.31
407.77	1050.90
407.96	1088.35
408.15	1088.35
408.34	1184.31
408.54	1057.92
408.73	1186.65
408.92	1109.41
409.11	1123.46
409.30	1100.05
409.49	1078.99
409.68	1186.65
409.87	1132.82
410.07	1273.25
410.26	1231.12
410.45	1160.91
410.64	1275.59
410.83	1228.78
411.02	1245.16
411.21	1219.42
411.40	1263.89
411.59	1301.34
411.78	1303.68
411.98	1296.66
412.17	1315.38
412.36	1310.70
412.55	1341.13
412.74	1397.30
412.93	1387.94
413.12	1373.89
413.31	1416.02
413.50	1425.39
413.69	1483.90
413.88	1479.22
414.07	1593.90
414.26	1537.73
414.45	1504.96
414.64	1526.03
414.83	1462.83
415.02	1619.65
415.22	1507.30
415.41	1568.16
415.60	1619.65
415.79	1561.14
415.98	1750.72
416.17	1544.75
416.36	1722.63
416.55	1673.48
416.74	1741.36
416.93	1710.93
417.12	1729.66
417.31	1748.38
417.50	1755.40
417.69	1846.68
417.88	1753.06
418.07	1760.08
418.26	1830.30
418.45	1809.23
418.64	1930.94
418.83	1881.79
419.02	1806.89
419.21	1905.20
419.39	1863.07
419.58	1886.47
419.77	1884.13
419.96	1893.49
420.15	1994.14
420.34	1956.69
420.53	1935.62
420.72	2015.20
420.91	1998.82
421.10	2026.90
421.29	2031.58
421.48	1963.71
421.67	1994.14
421.86	1975.41
422.05	2022.22
422.24	2036.27
422.43	1970.73
422.61	2085.42
422.80	2076.06
422.99	2064.35
423.18	2026.90
423.37	2078.40
423.56	2054.99
423.75	2106.48
423.94	1907.54
424.13	1867.75
424.32	1926.26
424.50	2195.42
424.69	2115.84
424.88	2106.48
425.07	2071.37
425.26	2099.46
425.45	2106.48
425.64	2167.34
425.83	2031.58
426.01	2183.72
426.20	2003.50
426.39	2146.27
426.58	2017.54
426.77	2115.84
426.96	2181.38
427.15	2038.61
427.33	2242.23
427.52	2167.34
427.71	2228.19
427.90	2167.34
428.09	2258.62
428.28	2214.15
428.46	2277.34
428.65	2218.83
428.84	2370.96
429.03	2267.98
429.22	2211.81
429.40	2200.10
429.59	2282.02
429.78	2293.72
429.97	2202.44
430.16	2211.81
430.34	2345.22
430.53	2314.79
430.72	2324.15
430.91	2375.64
431.10	2253.94
431.28	2427.14
431.47	2429.48
431.66	2497.35
431.85	2375.64
432.03	2539.48
432.22	2455.22
432.41	2560.55
432.60	2616.72
432.79	2450.54
432.97	2466.92
433.16	2567.57
433.35	2532.46
433.54	2600.34
433.72	2520.76
433.91	2661.19
434.10	2740.77
434.28	2546.50
434.47	2588.63
434.66	2583.95
434.85	2647.15
435.03	2668.21
435.22	2651.83
435.41	2722.04
435.59	2696.30
435.78	2562.89
435.97	2822.69
436.16	2703.32
436.34	2630.76
436.53	2820.35
436.72	2888.22
436.90	2656.51
437.09	2794.60
437.28	2785.24
437.46	2691.62
437.65	2738.43
437.84	2864.82
438.02	2860.13
438.21	2874.18
438.40	2895.24
438.58	3012.27
438.77	2991.20
438.96	2867.16
439.14	2981.84
439.33	2970.14
439.52	3110.57
439.70	3070.78
439.89	2986.52
440.08	3159.72
440.26	3138.66
440.45	3126.96
440.63	3227.60
440.82	3066.10
441.01	3124.62
441.19	3297.81
441.38	3274.41
441.57	3351.65
441.75	3307.18
441.94	3192.49
442.12	3229.94
442.31	3428.88
442.50	3368.03
442.68	3316.54
442.87	3302.50
443.05	3468.67
443.24	3440.59
443.43	3428.88
443.61	3515.48
443.80	3637.19
443.98	3346.97
444.17	3314.20
444.35	3499.10
444.54	3557.61
444.73	3604.42
444.91	3599.74
445.10	3639.53
445.28	3520.17
445.47	3405.48
445.65	3653.58
445.84	3660.60
446.02	3651.24
446.21	3517.83
446.39	3433.57
446.58	3461.65
446.77	3550.59
446.95	3538.89
447.14	3726.13
447.32	3627.83
447.51	3585.70
447.69	3667.62
447.88	3658.26
448.06	3653.58
448.25	3541.23
448.43	3548.25
448.62	3492.08
448.80	3613.79
448.99	3749.54
449.17	3658.26
449.36	3637.19
449.54	3520.17
449.73	3733.15
449.91	3918.06
450.10	3751.88
450.28	3712.09
450.46	3854.86
450.65	3859.54
450.83	3878.27
451.02	4007.00
451.20	3803.37
451.39	3946.14
451.57	3906.35
451.76	3992.95
451.94	3927.42
452.13	3946.14
452.31	3983.59
452.49	3943.80
452.68	3899.33
452.86	3833.80
453.05	3868.91
453.23	4042.11
453.42	4138.07
453.60	3971.89
453.78	3840.82
453.97	4002.32
454.15	4079.55
454.34	4046.79
454.52	4142.75
454.70	4133.39
454.89	4224.67
455.07	4140.41
455.26	4269.14
455.44	4250.41
455.62	4248.07
455.81	4255.09
455.99	4219.99
456.17	4231.69
456.36	4304.25
456.54	4180.20
456.73	4353.40
456.91	4458.72
457.09	4421.27
457.28	4531.28
457.46	4320.63
457.64	4617.88
457.83	4390.84
458.01	4379.14
458.19	4531.28
458.38	4510.21
458.56	4589.79
458.74	4339.35
458.93	4540.64
459.11	4472.76
459.29	4489.15
459.48	4713.84
459.66	4610.86
459.84	4589.79
460.03	4784.06
460.21	4753.63
460.39	4898.74
460.57	4472.76
460.76	4809.80
460.94	4683.41
461.12	4725.54
461.31	4774.69
461.49	4674.05
461.67	4767.67
461.85	4793.42
462.04	4891.72
462.22	5095.35
462.40	4983.00
462.59	4880.02
462.77	4975.98
462.95	4854.27
463.13	4908.10
463.32	4924.49
463.50	4971.30
463.68	4945.55
463.86	4954.91
464.05	4992.36
464.23	4985.34
464.41	5078.96
464.59	4933.85
464.78	5224.08
464.96	5142.16
465.14	5034.49
465.32	5114.07
465.50	5022.79
465.69	5135.14
465.87	5008.75
466.05	5179.61
466.23	5018.11
466.41	5055.56
466.60	5338.76
466.78	5146.84
466.96	5074.28
467.14	5200.67
467.32	5116.41
467.51	5425.36
467.69	5383.23
467.87	5235.78
468.05	5282.59
468.23	5310.68
468.41	5247.48
468.60	5397.28
468.78	5448.77
468.96	5310.68
469.14	5462.81
469.32	5420.68
469.50	5233.44
469.69	5516.64
469.87	5509.62
470.05	5563.45
470.23	5544.73
470.41	5621.97
470.59	5682.82
470.77	5771.76
470.95	5636.01
471.14	5776.44
471.32	5439.40
471.50	5991.77
471.68	5849.00
471.86	5811.55
472.04	5666.44
472.22	5996.45
472.40	5935.60
472.58	5823.25
472.77	6083.05
472.95	5944.96
473.13	6186.04
473.31	6036.24
473.49	6097.10
473.67	5947.30
473.85	6076.03
474.03	6085.39
474.21	6167.31
474.39	6211.78
474.57	6141.57
474.75	6186.04
474.93	6490.31
475.12	6253.91
475.30	6307.74
475.48	6356.90
475.66	6410.73
475.84	6392.00
476.02	6717.34
476.20	6338.17
476.38	6647.12
476.56	6745.42
476.74	6862.45
476.92	6663.51
477.10	6843.73
477.28	6768.83
477.46	6731.38
477.64	6963.09
477.82	7112.89
478.00	7180.76
478.18	7054.37
478.36	7272.04
478.54	7382.05
478.72	7370.35
478.90	7166.72
479.08	7506.10
479.26	7578.65
479.44	7531.84
479.62	7368.01
479.80	7662.91
479.98	7691.00
480.16	7906.33
480.34	7552.91
480.52	7990.59
480.70	7908.67
480.88	7892.29
481.06	8006.97
481.24	7798.66
481.41	8105.28
481.59	8023.36
481.77	8266.77
481.95	8142.72
482.13	8390.82
482.31	8327.63
482.49	8643.60
482.67	8439.97
482.85	8636.58
483.03	8767.65
483.21	8758.28
483.39	8905.74
483.57	8758.28
483.74	8994.68
483.92	8987.66
484.10	8945.53
484.28	9022.77
484.46	9247.46
484.64	9441.72
484.82	9252.14
485.00	9427.68
485.18	9685.14
485.35	9610.24
485.53	9467.47
485.71	9701.52
485.89	10160.27
486.07	10026.86
486.25	10012.81
486.43	9966.00
486.61	9958.98
486.78	10452.83
486.96	10263.25
487.14	10619.01
487.32	10202.40
487.50	10359.21
487.68	10363.89
487.85	10520.71
488.03	10654.12
488.21	11052.01
488.39	11016.90
488.57	11110.52
488.75	11084.78
488.92	11272.02
489.10	11248.61
489.28	11477.99
489.46	11646.51
489.64	11492.03
489.81	11648.85
489.99	11845.45
490.17	11660.55
490.35	11875.88
490.53	11838.43
490.70	11943.75
490.88	11894.60
491.06	12250.36
491.24	12269.09
491.41	12042.06
491.59	12063.12
491.77	12470.37
491.95	12510.16
492.13	12507.82
492.30	12615.49
492.48	12655.28
492.66	12730.17
492.84	12585.06
493.01	12908.05
493.19	13111.68
493.37	13111.68
493.54	13383.18
493.72	13277.86
493.90	13263.82
494.08	13343.39
494.25	13547.02
494.43	13252.11
494.61	13565.74
494.79	13603.19
494.96	13797.46
495.14	13640.64
495.32	13844.27
495.49	14099.39
495.67	14195.35
495.85	14380.25
496.02	14434.08
496.20	14375.57
496.38	14565.15
496.55	14462.17
496.73	14675.16
496.91	14867.08
497.09	14967.73
497.26	14853.04
497.44	14754.74
497.62	14843.68
497.79	14789.85
497.97	14899.85
498.14	15110.50
498.32	15269.66
498.50	15192.42
498.67	15513.07
498.85	15389.02
499.03	15515.41
499.20	15566.90
499.38	15456.90
499.56	15882.88
499.73	15765.85
499.91	16135.65
500.08	16163.74
500.26	15585.63
500.44	15843.09
500.61	16201.19
500.79	15950.75
500.97	16194.17
501.14	16248.00
501.32	16578.01
501.49	16376.73
501.67	16109.91
501.84	16748.87
502.02	16510.14
502.20	16835.47
502.37	16271.40
502.55	16805.05
502.72	16957.18
502.90	16617.80
503.07	16643.55
503.25	16992.29
503.43	16826.11
503.60	16805.05
503.78	17123.36
503.95	16975.91
504.13	17249.75
504.30	17242.73
504.48	17385.50
504.65	17385.50
504.83	17427.63
505.01	17797.43
505.18	17764.67
505.36	17720.20
505.53	17448.69
505.71	17357.41
505.88	18045.53
506.06	17666.36
506.23	17919.14
506.41	17881.69
506.58	18010.42
506.76	18108.72
506.93	18045.53
507.11	17900.42
507.28	18181.28
507.46	17963.61
507.63	18267.88
507.81	18408.31
507.98	18258.52
508.16	18710.24
508.33	18139.15
508.50	18300.65
508.68	18471.51
508.85	18768.76
509.03	18707.90
509.20	18787.48
509.38	18869.40
509.55	18941.96
509.73	19098.77
509.90	18944.30
510.08	19044.94
510.25	18808.54
510.42	19274.31
510.60	19229.84
510.77	19328.14
510.95	19367.93
511.12	19410.06
511.30	19236.86
511.47	19597.31
511.64	19384.32
511.82	19550.49
511.99	19709.65
512.17	19564.54
512.34	19922.64
512.51	19807.95
512.69	20058.39
512.86	19845.40
513.04	20020.94
513.21	20004.56
513.38	19978.81
513.56	20411.81
513.73	20217.55
513.90	19775.19
514.08	20350.96
514.25	20369.68
514.43	20205.84
514.60	20514.80
514.77	20229.25
514.95	20376.70
515.12	20409.47
515.29	20484.37
515.47	20503.09
515.64	20872.90
515.81	20973.54
515.99	20905.66
516.16	20936.09
516.33	20856.51
516.51	20790.98
516.68	20858.85
516.85	20828.43
517.03	21333.98
517.20	21198.23
517.37	21001.63
517.54	21502.50
517.72	21102.27
517.89	21294.19
518.06	21273.13
518.24	21303.56
518.41	21200.57
518.58	21659.32
518.75	21661.66
518.93	21656.98
519.10	21813.79
519.27	21979.97
519.45	21722.51
519.62	22003.38
519.79	21792.73
519.96	21975.29
520.14	21998.70
520.31	21886.35
520.48	22113.38
520.65	22029.12
520.83	22375.52
521.00	22221.05
521.17	21858.26
521.34	22094.66
521.52	22375.52
521.69	22188.28
521.86	22190.62
522.03	22321.69
522.20	22434.03
522.38	22335.73
522.55	22621.28
522.72	22618.94
522.89	22796.82
523.07	23136.20
523.24	22885.76
523.41	23023.85
523.58	22597.87
523.75	22965.34
523.92	22883.42
524.10	22789.80
524.27	23154.92
524.44	23154.92
524.61	23248.54
524.78	23035.55
524.96	22925.55
525.13	23178.33
525.30	23627.71
525.47	23475.57
525.64	23630.05
525.81	23644.09
525.98	23510.68
526.16	23531.75
526.33	23634.73
526.50	23852.40
526.67	23491.96
526.84	23718.99
527.01	23660.48
527.18	23545.79
527.36	23953.04
527.53	23875.80
527.70	23960.06
527.87	24004.53
528.04	23939.00
528.21	23981.13
528.38	24308.80
528.55	24109.86
528.72	24135.60
528.89	24364.98
529.07	24114.54
529.24	24552.22
529.41	24156.67
529.58	24439.87
529.75	24463.28
529.92	24573.28
530.09	24238.59
530.26	24308.80
530.43	24430.51
530.60	24264.33
530.77	24709.04
530.94	24765.21
531.11	24641.16
531.28	24687.97
531.46	25055.43
531.63	24641.16
531.80	24879.89
531.97	25025.01
532.14	25003.94
532.31	24875.21
532.48	25153.74
532.65	25343.32
532.82	25048.41
532.99	25083.52
533.16	25006.28
533.33	25132.67
533.50	25408.86
533.67	25291.83
533.84	25074.16
534.01	25443.96
534.18	25252.04
534.35	25343.32
534.52	25411.20
534.69	25682.70
534.86	25294.17
535.03	25329.28
535.20	25612.48
535.37	25933.14
535.54	25696.74
535.71	25647.59
535.88	25762.28
536.05	25511.84
536.22	25607.80
536.38	25919.09
536.55	26003.35
536.72	26057.18
536.89	25397.15
537.06	25603.12
537.23	26146.12
537.40	25841.85
537.57	25989.31
537.74	25940.16
537.91	26038.46
538.08	25919.09
538.25	26033.78
538.42	26253.79
538.59	26260.81
538.75	26136.76
538.92	26197.62
539.09	26398.90
539.26	26391.88
539.43	26436.35
539.60	26647.00
539.77	26586.15
539.94	26698.49
540.11	26515.93
540.28	26658.70
540.44	26747.64
540.61	26448.05
540.78	26307.62
540.95	26363.79
541.12	26892.76
541.29	26724.24
541.46	26672.74
541.62	26764.03
541.79	26969.99
541.96	26867.01
542.13	26995.74
542.30	26899.78
542.47	27019.14
542.63	27131.49
542.80	27302.35
542.97	27337.46
543.14	27168.94
543.31	27000.42
543.48	27290.65
543.64	27885.14
543.81	27875.78
543.98	27662.79
544.15	27407.67
544.32	27704.92
544.48	27634.71
544.65	27496.61
544.82	27182.98
544.99	27611.30
545.16	27321.07
545.32	27182.98
545.49	27618.32
545.66	27702.58
545.83	27737.69
546.00	27915.57
546.16	27658.11
546.33	27489.59
546.50	27470.87
546.67	27573.85
546.83	27658.11
547.00	27953.02
547.17	28109.83
547.34	27843.01
547.50	27894.50
547.67	28247.93
547.84	28147.28
548.00	28156.64
548.17	27983.44
548.34	27843.01
548.51	28437.51
548.67	28423.47
548.84	28350.91
549.01	28542.83
549.18	28065.36
549.34	28142.60
549.51	28252.61
549.68	28545.17
549.84	28458.57
550.01	28308.78
550.18	28346.23
550.34	28460.91
550.51	28659.86
550.68	28346.23
550.84	28819.02
551.01	28294.74
551.18	28575.60
551.34	28615.39
551.51	28662.20
551.68	28809.65
551.84	28451.55
552.01	29027.32
552.18	29020.30
552.34	28594.32
552.51	28828.38
552.68	28671.56
552.84	29092.86
553.01	29130.31
553.18	29069.45
553.34	28882.21
553.51	28694.97
553.67	29050.73
553.84	29462.66
554.01	29125.63
554.17	28996.90
554.34	28957.11
554.51	29181.80
554.67	28924.34
554.84	29130.31
555.00	29202.86
555.17	29024.98
555.33	29336.27
555.50	29092.86
555.67	29181.80
555.83	29226.27
556.00	29237.97
556.16	29518.84
556.33	29551.60
556.50	29233.29
556.66	29605.44
556.83	29436.92
556.99	29984.60
557.16	29689.70
557.32	29802.04
557.49	29898.00
557.65	29399.47
557.82	29369.04
557.98	29591.39
558.15	29834.81
558.32	29654.59
558.48	29811.40
558.65	29766.93
558.81	30066.52
558.98	29860.55
559.14	29244.99
559.31	29500.11
559.47	29762.25
559.64	29886.30
559.80	30008.01
559.97	30038.44
560.13	29699.06
560.30	29542.24
560.46	29745.87
560.63	29778.64
560.79	30328.66
560.96	29998.65
561.12	29890.98
561.29	29715.44
561.45	29809.06
561.61	30085.25
561.78	30307.60
561.94	29989.28
562.11	30321.64
562.27	29677.99
562.44	30033.75
562.60	29993.97
562.77	30160.14
562.93	30265.47
563.10	30930.18
563.26	30054.82
563.42	30316.96
563.59	30527.61
563.75	30106.31
563.92	30181.21
564.08	30309.94
564.24	30204.61
564.41	30132.06
564.57	30490.16
564.74	30132.06
564.90	30693.79
565.07	30115.67
565.23	30349.73
565.39	30689.10
565.56	30450.37
565.72	30295.89
565.88	30197.59
566.05	30405.90
566.21	30263.13
566.38	30146.10
566.54	30321.64
566.70	30686.76
566.87	31058.91
567.03	30609.53
567.19	30841.24
567.36	30897.41
567.52	30721.87
567.68	30639.95
567.85	30504.20
568.01	30345.05
568.17	30632.93
568.34	30855.28
568.50	30525.27
568.66	30569.74
568.83	30661.02
568.99	30639.95
569.15	30581.44
569.32	30286.53
569.48	30118.01
569.64	30817.83
569.81	30764.00
569.97	30527.61
570.13	30808.47
570.30	30057.16
570.46	30419.94
570.62	30560.37
570.78	30272.49
570.95	30527.61
571.11	30749.96
571.27	30565.06
571.43	30555.69
571.60	31091.68
571.76	30731.23
571.92	31061.25
572.09	30808.47
572.25	31035.50
572.41	31143.17
572.57	30923.16
572.74	30974.65
572.90	30536.97
573.06	30609.53
573.22	30473.78
573.38	30899.75
573.55	30911.46
573.71	30808.47
573.87	30731.23
574.03	30532.29
574.20	31049.55
574.36	30822.51
574.52	30841.24
574.68	30944.22
574.84	30691.44
575.01	30944.22
575.17	30698.47
575.33	30429.30
575.49	30593.14
575.65	31213.38
575.82	31311.69
575.98	31124.44
576.14	31189.98
576.30	31222.75
576.46	30560.37
576.62	30742.94
576.79	30918.48
576.95	30658.68
577.11	30976.99
577.27	30691.44
577.43	31241.47
577.59	31260.20
577.75	30906.77
577.92	30733.57
578.08	30579.10
578.24	30946.56
578.40	30995.71
578.56	31117.42
578.72	31070.61
578.88	31168.91
579.04	31307.01
579.21	31330.41
579.37	31028.48
579.53	31192.32
579.69	30981.67
579.85	31000.40
580.01	31206.36
580.17	30473.78
580.33	31295.30
580.49	31056.57
580.65	31110.40
580.82	31140.83
580.98	31035.50
581.14	31229.77
581.30	31314.03
581.46	30969.97
581.62	30904.43
581.78	31112.74
581.94	31070.61
582.10	30803.79
582.26	31119.76
582.42	31112.74
582.58	31220.41
582.74	31449.78
582.90	31002.74
583.06	30979.33
583.22	31009.76
583.38	30761.66
583.54	31023.80
583.70	31335.09
583.86	30953.58
584.02	30827.20
584.18	31211.04
584.34	31274.24
584.50	31274.24
584.66	31119.76
584.82	31316.37
584.98	31112.74
585.14	31459.14
585.30	31498.93
585.46	31318.71
585.62	30988.69
585.78	31335.09
585.94	30756.98
586.10	31346.79
586.26	31047.21
586.42	31351.48
586.58	31571.49
586.74	31194.66
586.90	31138.49
587.06	30511.22
587.22	31402.97
587.38	30941.88
587.54	31358.50
587.70	31225.09
587.86	31241.47
588.02	31278.92
588.18	31697.88
588.34	31292.96
588.49	31662.77
588.65	30808.47
588.81	31122.10
588.97	31360.84
589.13	31138.49
589.29	30932.52
589.45	31014.44
589.61	31592.55
589.77	31810.22
589.93	31749.37
590.08	31527.02
590.24	31683.83
590.40	31709.58
590.56	31805.54
590.72	31035.50
590.88	31257.85
591.04	31187.64
591.20	31835.97
591.35	31988.10
591.51	31824.26
591.67	32140.24
591.83	31960.02
591.99	31426.37
592.15	31634.68
592.31	31784.48
592.46	31246.15
592.62	31433.39
592.78	31725.96
592.94	31534.04
593.10	31789.16
593.26	31555.10
593.41	32016.19
593.57	31887.46
593.73	32041.93
593.89	31828.95
594.05	31831.29
594.20	31622.98
594.36	31388.92
594.52	31372.54
594.68	31576.17
594.84	31482.55
594.99	31548.08
595.15	31768.09
595.31	31880.44
595.47	31454.46
595.62	31936.61
595.78	31749.37
595.94	31896.82
596.10	31466.16
596.25	31402.97
596.41	31250.83
596.57	31660.43
596.73	31995.12
596.88	31477.86
597.04	31845.33
597.20	31967.04
597.36	31608.93
597.51	32133.21
597.67	31578.51
597.83	31316.37
597.99	31728.30
598.14	31842.99
598.30	31681.49
598.46	31658.09
598.61	31777.45
598.77	31887.46
598.93	31707.24
599.09	31681.49
599.24	31938.95
599.40	32121.51
599.56	32135.56
599.71	32154.28
599.87	31969.38
600.03	31775.11
600.18	31915.54
600.34	32044.27
600.50	31847.67
600.65	31573.83
600.81	32257.26
600.97	31885.12
601.12	31847.67
601.28	31985.76
601.44	31861.71
601.59	31936.61
601.75	31866.39
601.91	31936.61
602.06	31791.50
602.22	31824.26
602.37	31761.07
602.53	31828.95
602.69	31957.67
602.84	32055.98
603.00	32067.68
603.16	31936.61
603.31	31775.11
603.47	32105.13
603.62	31791.50
603.78	31679.15
603.94	31828.95
604.09	31796.18
604.25	31571.49
604.40	31908.52
604.56	31681.49
604.71	31882.78
604.87	31730.64
605.03	31857.03
605.18	32105.13
605.34	31791.50
605.49	31838.31
605.65	31786.82
605.80	31735.32
605.96	31620.64
606.12	31812.56
606.27	32006.83
606.43	31409.99
606.58	31545.74
606.74	32002.14
606.89	31976.40
607.05	31952.99
607.20	31971.72
607.36	31824.26
607.51	31667.45
607.67	31618.30
607.82	31847.67
607.98	31679.15
608.13	31543.40
608.29	31688.51
608.44	31480.21
608.60	32086.40
608.75	32095.77
608.91	31772.77
609.06	31318.71
609.22	31674.47
609.37	31419.35
609.53	31346.79
609.68	31590.21
609.84	31665.11
609.99	31723.62
610.15	31772.77
610.30	31938.95
610.46	31573.83
610.61	31868.73
610.76	31910.86
610.92	31559.78
611.07	31981.08
611.23	31531.70
611.38	31482.55
611.54	31402.97
611.69	31646.38
611.84	31026.14
612.00	31309.35
612.15	31103.38
612.31	31737.66
612.46	31346.79
612.62	31381.90
612.77	31477.86
612.92	31660.43
613.08	31669.79
613.23	31550.42
613.39	31459.14
613.54	31047.21
613.69	31564.46
613.85	31433.39
614.00	31489.57
614.15	31267.22
614.31	31494.25
614.46	31449.78
614.62	31290.62
614.77	31590.21
614.92	31562.12
615.08	31072.95
615.23	31248.49
615.38	31402.97
615.54	31309.35
615.69	31367.86
615.84	31257.85
616.00	31463.82
616.15	31318.71
616.30	31182.96
616.46	31409.99
616.61	31372.54
616.76	31215.72
616.92	31325.73
617.07	31459.14
617.22	30906.77
617.37	30679.74
617.53	31037.84
617.68	30923.16
617.83	30764.00
617.99	30780.39
618.14	31269.56
618.29	30962.95
618.45	31105.72
618.60	30742.94
618.75	31089.34
618.90	30874.01
619.06	31089.34
619.21	30888.05
619.36	31070.61
619.51	30312.28
619.67	30417.60
619.82	30565.06
619.97	30410.58
620.12	30742.94
620.28	30951.24
620.43	30906.77
620.58	30913.80
620.73	31204.02
620.89	30693.79
621.04	30864.64
621.19	30845.92
621.34	30581.44
621.49	30426.96
621.65	30691.44
621.80	30609.53
621.95	30274.83
622.10	30101.63
622.25	30450.37
622.41	30352.07
622.56	30455.05
622.71	30459.73
622.86	30089.93
623.01	30590.80
623.16	30518.25
623.32	30314.62
623.47	30305.26
623.62	30569.74
623.77	30122.69
623.92	30438.67
624.07	30323.98
624.23	30429.30
624.38	30235.04
624.53	30209.29
624.68	30469.09
624.83	30548.67
624.98	30167.16
625.13	30340.36
625.29	30441.01
625.44	30316.96
625.59	30110.99
625.74	29834.81
625.89	30033.75
626.04	29839.49
626.19	29972.90
626.34	29785.66
626.49	29916.73
626.65	30078.22
626.80	29940.13
626.95	30258.45
627.10	30036.09
627.25	30061.84
627.40	29912.05
627.55	29926.09
627.70	29741.19
627.85	29685.01
628.00	29771.61
628.15	29748.21
628.30	29813.74
628.45	29813.74
628.60	29656.93
628.76	29853.53
628.91	29727.14
629.06	29685.01
629.21	29556.28
629.36	29778.64
629.51	29993.97
629.66	29537.56
629.81	29336.27
629.96	29745.87
630.11	29434.58
630.26	29291.80
630.41	29769.27
630.56	29425.22
630.71	29383.09
630.86	29399.47
631.01	29329.25
631.16	29633.52
631.31	29750.55
631.46	29172.44
631.61	29404.15
631.76	29427.56
631.91	29495.43
632.06	29528.20
632.21	29422.87
632.36	29352.66
632.51	29256.70
632.66	29504.79
632.81	29266.06
632.96	29057.75
633.10	29202.86
633.25	29301.17
633.40	29067.11
633.55	29483.73
633.70	29055.41
633.85	28917.32
634.00	28975.83
634.15	28940.72
634.30	29156.05
634.45	28945.41
634.60	28966.47
634.75	29078.82
634.90	29291.80
635.05	29289.46
635.19	29001.58
635.34	29467.34
635.49	29167.76
635.64	29060.09
635.79	29170.10
635.94	28811.99
636.09	29120.95
636.24	28835.40
636.39	28931.36
636.53	28699.65
636.68	28648.16
636.83	28886.89
636.98	29216.91
637.13	28535.81
637.28	29095.20
637.43	28709.01
637.57	28833.06
637.72	28737.10
637.87	28732.42
638.02	28891.57
638.17	28685.61
638.32	28634.11
638.46	28713.69
638.61	28374.31
638.76	28603.69
638.91	28299.42
639.06	28325.16
639.20	28685.61
639.35	28563.90
639.50	28893.91
639.65	28641.14
639.80	28437.51
639.94	28547.51
640.09	28301.76
640.24	28580.28
640.39	28114.52
640.54	28432.83
640.68	28224.52
640.83	28109.83
640.98	28201.11
641.13	27934.29
641.27	28177.71
641.42	28158.99
641.57	28142.60
641.72	28151.96
641.86	27847.69
642.01	27854.72
642.16	28346.23
642.31	27999.83
642.45	28016.21
642.60	28074.73
642.75	27929.61
642.90	28013.87
643.04	28158.99
643.19	27981.10
643.34	27709.60
643.48	27828.97
643.63	28013.87
643.78	28215.16
643.93	28114.52
644.07	28226.86
644.22	28280.69
644.37	27819.61
644.51	27548.11
644.66	28158.99
644.81	27435.76
644.95	27693.22
645.10	27779.82
645.25	27821.95
645.39	27721.30
645.54	27747.05
645.69	27742.37
645.83	27763.43
645.98	27728.33
646.13	28236.22
646.27	27775.14
646.42	27817.27
646.57	27569.17
646.71	27917.91
646.86	27754.07
647.00	27505.98
647.15	27648.75
647.30	27377.25
647.44	27487.25
647.59	27339.80
647.74	27903.87
647.88	27346.82
648.03	27821.95
648.17	27857.06
648.32	27482.57
648.47	27779.82
648.61	27906.21
648.76	27388.95
648.90	27562.15
649.05	27449.80
649.20	27175.96
649.34	27140.85
649.49	27065.96
649.63	27295.33
649.78	27178.30
649.92	26948.93
650.07	27468.53
650.21	27119.79
650.36	27023.83
650.51	27410.01
650.65	27292.99
650.80	27300.01
650.94	26796.79
651.09	27288.31
651.23	27129.15
651.38	26913.82
651.52	26944.25
651.67	27222.77
651.81	26965.31
651.96	27323.41
652.10	26766.37
652.25	27063.61
652.39	26881.05
652.54	27236.81
652.68	27002.76
652.83	27318.73
652.97	27028.51
653.12	26850.63
653.26	26810.84
653.41	26948.93
653.55	26553.38
653.70	26607.21
653.84	27007.44
653.99	26796.79
654.13	26609.55
654.27	26796.79
654.42	26644.66
654.56	26923.18
654.71	27023.83
654.85	26494.86
655.00	27035.53
655.14	26721.90
655.29	26487.84
655.43	27007.44
655.57	26541.68
655.72	26609.55
655.86	26668.06
656.01	26300.60
656.15	26279.54
656.30	26628.27
656.44	26300.60
656.58	26171.87
656.73	26466.78
656.87	26202.30
657.01	26476.14
657.16	26253.79
657.30	26391.88
657.45	26473.80
657.59	26462.10
657.73	26492.52
657.88	26438.69
658.02	26586.15
658.16	26125.06
658.31	25996.33
658.45	26036.12
658.60	25951.86
658.74	25876.96
658.88	25848.88
659.03	26115.70
659.17	26082.93
659.31	26199.96
659.46	25956.54
659.60	25888.67
659.74	25607.80
659.89	25860.58
660.03	25940.16
660.17	26085.27
660.32	26017.40
660.46	25586.74
660.60	25317.57
660.74	25378.43
660.89	25869.94
661.03	25640.57
661.17	25795.04
661.32	25579.71
661.46	25900.37
661.60	25565.67
661.74	25696.74
661.89	25621.84
662.03	25708.44
662.17	25593.76
662.31	25020.33
662.46	25511.84
662.60	25448.64
662.74	25322.26
662.88	25149.06
663.03	25046.07
663.17	24938.41
663.31	24673.93
663.45	25102.25
663.60	24903.30
663.74	25135.01
663.88	25249.70
664.02	25092.88
664.17	25326.94
664.31	25125.65
664.45	24608.39
664.59	25008.62
664.73	24978.20
664.88	25057.78
665.02	24751.17
665.16	24896.28
665.30	24482.00
665.44	24751.17
665.59	24554.56
665.73	24346.25
665.87	24521.79
666.01	24526.47
666.15	24678.61
666.29	24837.76
666.44	24519.45
666.58	24194.12
666.72	23913.25
666.86	24739.46
667.00	24641.16
667.14	24386.04
667.28	24568.60
667.43	24261.99
667.57	24137.94
667.71	24273.70
667.85	23988.15
667.99	24149.65
668.13	24114.54
668.27	23929.64
668.41	24123.90
668.56	23583.24
668.70	23903.89
668.84	23931.98
668.98	24149.65
669.12	24107.52
669.26	23831.33
669.40	23843.04
669.54	23866.44
669.68	23894.53
669.82	23674.52
669.96	23611.32
670.10	23407.70
670.25	23494.30
670.39	23307.05
670.53	23339.82
670.67	23215.77
670.81	23328.12
670.95	23501.32
671.09	23316.42
671.23	23070.66
671.37	23304.71
671.51	23311.74
671.65	23175.98
671.79	23218.11
671.93	22953.63
672.07	23285.99
672.21	22881.08
672.35	22977.04
672.49	22852.99
672.63	22668.09
672.77	22532.34
672.91	22864.69
673.05	22436.38
673.19	22857.67
673.33	22752.35
673.47	22588.51
673.61	22632.98
673.75	22747.67
673.89	22948.95
674.03	22480.85
674.17	22525.32
674.31	22352.12
674.45	22492.55
674.59	22300.62
674.73	22492.55
674.87	22263.18
675.01	22164.87
675.15	21846.56
675.29	21722.51
675.43	21914.44
675.56	22221.05
675.70	22118.06
675.84	21874.65
675.98	21404.20
676.12	21984.65
676.26	22052.53
676.40	21926.14
676.54	21942.52
676.68	21425.26
676.82	21247.38
676.96	21476.76
677.10	21303.56
677.23	21326.96
677.37	20936.09
677.51	21214.62
677.65	21287.17
677.79	20912.69
677.93	21060.14
678.07	20954.82
678.21	20652.89
678.34	20882.26
678.48	20847.15
678.62	20746.51
678.76	20547.56
678.90	20498.41
679.04	20844.81
679.18	20545.22
679.31	20222.23
679.45	20240.95
679.59	20112.22
679.73	20231.59
679.87	19974.13
680.00	19803.27
680.14	19885.19
680.28	19803.27
680.42	20074.77
680.56	20152.01
680.70	19948.39
680.83	20034.99
680.97	19894.55
681.11	19552.84
681.25	19932.00
681.39	19803.27
681.52	19583.26
681.66	19470.92
681.80	19503.68
681.94	19396.02
682.07	19548.15
682.21	19014.51
682.35	19061.32
682.49	19342.19
682.62	18995.79
682.76	18923.23
682.90	19007.49
683.04	19000.47
683.17	18703.22
683.31	18850.67
683.45	18995.79
683.59	18771.10
683.72	18661.09
683.86	18768.76
684.00	18792.16
684.13	18331.08
684.27	18326.39
684.41	18256.18
684.55	18532.36
684.68	18181.28
684.82	18064.25
684.96	17935.53
685.09	17965.95
685.23	17399.54
685.37	17811.48
685.50	18270.22
685.64	17923.82
685.78	17886.37
685.91	18003.40
686.05	18066.60
686.19	17680.41
686.32	17769.35
686.46	17298.90
686.60	17521.25
686.73	17600.83
686.87	17193.58
687.01	17334.01
687.14	17146.76
687.28	17109.32
687.42	16936.12
687.55	17142.08
687.69	16999.31
687.82	16994.63
687.96	16945.48
688.10	16945.48
688.23	16842.50
688.37	16872.92
688.50	16898.67
688.64	16751.21
688.78	16814.41
688.91	16702.06
689.05	16343.96
689.18	16376.73
689.32	15894.58
689.46	16161.40
689.59	16240.98
689.73	16255.02
689.86	16112.25
690.00	16093.52
690.13	15777.55
690.27	15983.52
690.41	16065.44
690.54	15967.13
690.68	15831.38
690.81	16130.97
690.95	15882.88
691.08	15747.12
691.22	15405.41
691.35	15545.84
691.49	15620.74
691.62	15374.98
691.76	15517.75
691.89	15517.75
692.03	14963.04
692.16	15241.57
692.30	15014.54
692.43	15119.86
692.57	15246.25
692.70	14956.02
692.84	14960.70
692.97	14731.33
693.11	14888.15
693.24	14754.74
693.38	14551.11
693.51	14504.30
693.65	14761.76
693.78	14649.41
693.92	14508.98
694.05	14483.24
694.19	14356.85
694.32	14270.25
694.45	14284.29
694.59	13888.74
694.72	14185.99
694.86	13994.06
694.99	13940.23
695.13	13919.17
695.26	13802.14
695.39	13591.49
695.53	13879.38
695.66	13696.82
695.80	13472.12
695.93	13825.54
696.07	13827.88
696.20	13884.06
696.33	13734.26
696.47	13341.05
696.60	13579.79
696.73	13221.69
696.87	13263.82
697.00	13369.14
697.14	13214.66
697.27	13312.97
697.40	13064.87
697.54	13153.81
697.67	13074.23
697.80	12847.20
697.94	13008.70
698.07	12531.23
698.21	12791.03
698.34	12713.79
698.47	12725.49
698.61	12498.46
698.74	12924.44
698.87	12622.51
699.01	12491.44
699.14	12439.95
699.27	12311.22
699.40	12568.68
699.54	12121.63
699.67	12217.60
699.80	12126.32
699.94	11941.41
700.07	12114.61
700.20	12058.44
700.34	11913.33
700.47	11644.17
700.60	11932.05
700.73	11845.45
700.87	11763.53
701.00	11740.13
701.13	11695.66
701.26	11658.21
701.40	11730.76
701.53	11679.27
701.66	11644.17
701.79	11445.22
701.93	11487.35
702.06	11218.19
702.19	11356.28
702.32	11265.00
702.46	11007.54
702.59	10981.79
702.72	10726.68
702.85	10806.25
702.99	11012.22
703.12	10918.60
703.25	10668.16
703.38	10951.37
703.51	10841.36
703.65	10733.70
703.78	10799.23
703.91	10663.48
704.04	10689.23
704.17	10710.29
704.31	10637.73
704.44	10438.79
704.57	10286.65
704.70	10153.24
704.83	10146.22
704.96	10207.08
705.10	10235.16
705.23	10347.51
>>>>>End Processed Spectral Data<<<<<
