SpectraSuite Data File
++++++++++++++++++++++++++++++++++++
Date: Fri Oct 18 13:58:25 GMT-05:00 2013
User: bianchi
Dark Spectrum Present: No
Reference Spectrum Present: No
Number of Sampled Component Spectra: 1
Spectrometers: USB2+H05261
Integration Time (usec): 50000 (USB2+H05261)
Spectra Averaged: 1 (USB2+H05261)
Boxcar Smoothing: 0 (USB2+H05261)
Correct for Electrical Dark: No (USB2+H05261)
Strobe/Lamp Enabled: No (USB2+H05261)
Correct for Detector Non-linearity: No (USB2+H05261)
Correct for Stray Light: No (USB2+H05261)
Number of Pixels in Processed Spectrum: 2048
>>>>>Begin Processed Spectral Data<<<<<
365.73	0.00
365.92	0.00
366.12	0.00
366.32	0.00
366.52	0.00
366.72	0.00
366.91	0.00
367.11	0.00
367.31	0.00
367.51	0.00
367.70	0.00
367.90	0.00
368.10	0.00
368.30	0.00
368.49	0.00
368.69	0.00
368.89	0.00
369.09	0.00
369.28	0.00
369.48	0.00
369.68	0.00
369.87	0.00
370.07	0.00
370.27	0.00
370.47	25.75
370.66	28.09
370.86	84.26
371.06	105.32
371.25	154.48
371.45	131.07
371.65	145.11
371.84	182.56
372.04	121.71
372.24	168.52
372.44	135.75
372.63	196.60
372.83	191.92
373.03	210.65
373.22	184.90
373.42	180.22
373.62	196.60
373.81	273.84
374.01	180.22
374.21	271.50
374.40	208.31
374.60	203.63
374.79	187.24
374.99	215.33
375.19	217.67
375.38	205.97
375.58	290.23
375.78	187.24
375.97	301.93
376.17	308.95
376.37	208.31
376.56	194.26
376.76	191.92
376.95	278.52
377.15	290.23
377.35	290.23
377.54	224.69
377.74	273.84
377.93	252.78
378.13	224.69
378.33	304.27
378.52	278.52
378.72	271.50
378.91	325.33
379.11	259.80
379.31	313.63
379.50	292.57
379.70	346.40
379.89	365.12
380.09	231.71
380.28	313.63
380.48	297.25
380.68	273.84
380.87	332.36
381.07	376.83
381.26	285.55
381.46	332.36
381.65	264.48
381.85	330.02
382.04	304.27
382.24	344.06
382.43	376.83
382.63	374.49
382.83	299.59
383.02	381.51
383.22	411.93
383.41	311.29
383.61	383.85
383.80	367.46
384.00	379.17
384.19	355.76
384.39	397.89
384.58	330.02
384.78	381.51
384.97	325.33
385.17	346.40
385.36	390.87
385.56	386.19
385.75	355.76
385.95	430.66
386.14	381.51
386.34	365.12
386.53	351.08
386.72	374.49
386.92	430.66
387.11	425.98
387.31	395.55
387.50	418.96
387.70	451.72
387.89	416.62
388.09	367.46
388.28	479.81
388.48	386.19
388.67	479.81
388.86	442.36
389.06	416.62
389.25	414.27
389.45	425.98
389.64	414.27
389.84	482.15
390.03	437.68
390.22	461.09
390.42	454.06
390.61	524.28
390.81	423.64
391.00	479.81
391.19	526.62
391.39	547.69
391.58	540.66
391.78	526.62
391.97	500.87
392.16	482.15
392.36	540.66
392.55	528.96
392.75	496.19
392.94	557.05
393.13	582.79
393.33	538.32
393.52	540.66
393.71	547.69
393.91	650.67
394.10	578.11
394.29	557.05
394.49	550.03
394.68	521.94
394.88	538.32
395.07	585.13
395.26	599.18
395.46	655.35
395.65	627.26
395.84	606.20
396.04	648.33
396.23	517.26
396.42	692.80
396.62	603.86
396.81	613.22
397.00	669.39
397.19	655.35
397.39	751.31
397.58	819.19
397.77	662.37
397.97	678.76
398.16	692.80
398.35	713.86
398.55	781.74
398.74	751.31
398.93	608.54
399.12	676.41
399.32	760.67
399.51	657.69
399.70	763.01
399.90	739.61
400.09	798.12
400.28	812.17
400.47	753.65
400.67	748.97
400.86	795.78
401.05	791.10
401.24	770.04
401.44	746.63
401.63	814.51
401.82	805.14
402.01	812.17
402.21	765.36
402.40	741.95
402.59	896.43
402.78	837.91
402.97	765.36
403.17	823.87
403.36	823.87
403.55	784.08
403.74	912.81
403.93	877.70
404.13	929.19
404.32	868.34
404.51	940.90
404.70	938.55
404.89	966.64
405.09	908.13
405.28	875.36
405.47	887.06
405.66	1001.75
405.85	875.36
406.05	896.43
406.24	926.85
406.43	940.90
406.62	994.73
406.81	1160.91
407.00	994.73
407.20	994.73
407.39	1071.97
407.58	994.73
407.77	929.19
407.96	1069.62
408.15	1036.86
408.34	1132.82
408.54	1053.24
408.73	1020.47
408.92	1172.61
409.11	1170.27
409.30	1149.20
409.49	1125.80
409.68	1132.82
409.87	1123.46
410.07	1165.59
410.26	1121.12
410.45	1111.75
410.64	1165.59
410.83	1240.48
411.02	1191.33
411.21	1228.78
411.40	1226.44
411.59	1221.76
411.78	1191.33
411.98	1294.32
412.17	1284.95
412.36	1266.23
412.55	1357.51
412.74	1350.49
412.93	1317.72
413.12	1179.63
413.31	1453.47
413.50	1345.81
413.69	1418.36
413.88	1479.22
414.07	1497.94
414.26	1437.09
414.45	1497.94
414.64	1467.52
414.83	1563.48
415.02	1350.49
415.22	1465.18
415.41	1540.07
415.60	1570.50
415.79	1561.14
415.98	1577.52
416.17	1547.09
416.36	1610.29
416.55	1638.38
416.74	1633.69
416.93	1591.56
417.12	1760.08
417.31	1603.27
417.50	1638.38
417.69	1682.85
417.88	1652.42
418.07	1739.02
418.26	1746.04
418.45	1675.82
418.64	1717.95
418.83	1806.89
419.02	1769.44
419.21	1736.68
419.39	1799.87
419.58	1739.02
419.77	1802.21
419.96	1825.62
420.15	1860.73
420.34	1837.32
420.53	1928.60
420.72	1891.15
420.91	1926.26
421.10	1973.07
421.29	1916.90
421.48	2026.90
421.67	1921.58
421.86	1895.83
422.05	1881.79
422.24	1914.56
422.43	1954.35
422.61	1952.01
422.80	2099.46
422.99	1980.09
423.18	2076.06
423.37	1952.01
423.56	1968.39
423.75	2005.84
423.94	1982.43
424.13	1856.04
424.32	1891.15
424.50	2134.57
424.69	2085.42
424.88	2134.57
425.07	1994.14
425.26	2001.16
425.45	1994.14
425.64	2012.86
425.83	2062.01
426.01	2188.40
426.20	2078.40
426.39	2026.90
426.58	2019.88
426.77	2057.33
426.96	2033.93
427.15	1940.30
427.33	2029.24
427.52	2076.06
427.71	2104.14
427.90	2202.44
428.09	2104.14
428.28	2172.02
428.46	2043.29
428.65	2167.34
428.84	2214.15
429.03	2307.77
429.22	2197.76
429.40	2204.78
429.59	2282.02
429.78	2136.91
429.97	2179.04
430.16	2279.68
430.34	2324.15
430.53	2277.34
430.72	2228.19
430.91	2413.09
431.10	2307.77
431.28	2310.11
431.47	2291.38
431.66	2338.20
431.85	2291.38
432.03	2392.03
432.22	2452.88
432.41	2541.82
432.60	2373.30
432.79	2396.71
432.97	2373.30
433.16	2476.29
433.35	2502.03
433.54	2558.21
433.72	2392.03
433.91	2520.76
434.10	2558.21
434.28	2471.61
434.47	2567.57
434.66	2619.06
434.85	2520.76
435.03	2700.98
435.22	2588.63
435.41	2684.59
435.59	2715.02
435.78	2567.57
435.97	2600.34
436.16	2654.17
436.34	2696.30
436.53	2597.99
436.72	2708.00
436.90	2628.42
437.09	2698.64
437.28	2588.63
437.46	2654.17
437.65	2647.15
437.84	2843.75
438.02	2754.81
438.21	2752.47
438.40	2796.94
438.58	2794.60
438.77	2813.32
438.96	2911.63
439.14	2857.79
439.33	2857.79
439.52	2963.12
439.70	2977.16
439.89	2988.86
440.08	3077.80
440.26	3023.97
440.45	3070.78
440.63	2956.10
440.82	3070.78
441.01	3066.10
441.19	3098.87
441.38	3225.26
441.57	3138.66
441.75	3241.64
441.94	3325.90
442.12	3325.90
442.31	3375.05
442.50	3206.53
442.68	3297.81
442.87	3323.56
443.05	3328.24
443.24	3389.10
443.43	3342.28
443.61	3403.14
443.80	3246.32
443.98	3304.84
444.17	3035.67
444.35	3365.69
444.54	3440.59
444.73	3318.88
444.91	3407.82
445.10	3318.88
445.28	3508.46
445.47	3431.23
445.65	3330.58
445.84	3424.20
446.02	3557.61
446.21	3405.48
446.39	3461.65
446.58	3471.01
446.77	3520.17
446.95	3468.67
447.14	3459.31
447.32	3595.06
447.51	3431.23
447.69	3522.51
447.88	3361.01
448.06	3372.71
448.25	3480.38
448.43	3426.54
448.62	3442.93
448.80	3503.78
448.99	3644.21
449.17	3473.36
449.36	3501.44
449.54	3604.42
449.73	3616.13
449.91	3693.37
450.10	3597.40
450.28	3709.75
450.46	3618.47
450.65	3506.12
450.83	3871.25
451.02	3803.37
451.20	3782.31
451.39	3852.52
451.57	3749.54
451.76	3796.35
451.94	3815.07
452.13	3833.80
452.31	3768.26
452.49	3658.26
452.68	3922.74
452.86	3751.88
453.05	3829.12
453.23	3913.38
453.42	3889.97
453.60	3747.20
453.78	3990.61
453.97	3885.29
454.15	3857.20
454.34	3894.65
454.52	3950.82
454.70	3896.99
454.89	4053.81
455.07	4081.89
455.26	3964.87
455.44	4091.26
455.62	4046.79
455.81	4067.85
455.99	4142.75
456.17	3992.95
456.36	4070.19
456.54	4166.15
456.73	4264.46
456.91	4250.41
457.09	4400.21
457.28	4465.74
457.46	4156.79
457.64	4470.42
457.83	4227.01
458.01	4222.33
458.19	4360.42
458.38	4278.50
458.56	4367.44
458.74	4393.19
458.93	4477.44
459.11	4400.21
459.29	4308.93
459.48	4245.73
459.66	4411.91
459.84	4367.44
460.03	4540.64
460.21	4535.96
460.39	4533.62
460.57	4496.17
460.76	4594.47
460.94	4592.13
461.12	4552.34
461.31	4564.04
461.49	4636.60
461.67	4652.98
461.85	4627.24
462.04	4662.35
462.22	4844.91
462.40	4816.82
462.59	4681.07
462.77	4603.83
462.95	4603.83
463.13	4702.14
463.32	4784.06
463.50	4830.87
463.68	4760.65
463.86	4795.76
464.05	4648.30
464.23	4812.14
464.41	4997.04
464.59	4830.87
464.78	4823.84
464.96	4873.00
465.14	4800.44
465.32	4961.94
465.50	4896.40
465.69	5020.45
465.87	4968.96
466.05	5025.13
466.23	4912.78
466.41	4929.17
466.60	5041.51
466.78	4957.25
466.96	5001.72
467.14	4983.00
467.32	5029.81
467.51	5064.92
467.69	5121.09
467.87	5128.11
468.05	4959.60
468.23	5048.54
468.41	5165.56
468.60	5055.56
468.78	5280.25
468.96	5177.26
469.14	5256.84
469.32	5313.02
469.50	5102.37
469.69	5322.38
469.87	5406.64
470.05	5392.59
470.23	5287.27
470.41	5207.69
470.59	5472.17
470.77	5593.88
470.95	5563.45
471.14	5472.17
471.32	5476.85
471.50	5495.58
471.68	5453.45
471.86	5685.16
472.04	5701.54
472.22	5666.44
472.40	5500.26
472.58	5720.27
472.77	5689.84
472.95	5888.79
473.13	6015.18
473.31	5544.73
473.49	5823.25
473.67	5900.49
473.85	5916.87
474.03	5874.74
474.21	5954.32
474.39	6183.70
474.57	6066.67
474.75	6179.01
474.93	6069.01
475.12	6094.76
475.30	6195.40
475.48	6146.25
475.66	6242.21
475.84	6157.95
476.02	6167.31
476.20	6363.92
476.38	6422.43
476.56	6551.16
476.74	6635.42
476.92	6473.92
477.10	6537.12
477.28	6656.48
477.46	6628.40
477.64	6410.73
477.82	6626.06
478.00	6867.13
478.18	7021.61
478.36	6958.41
478.54	6668.19
478.72	6923.30
478.90	7059.06
479.08	7119.91
479.26	7082.46
479.44	7171.40
479.62	7169.06
479.80	7445.24
479.98	7489.71
480.16	7473.33
480.34	7288.43
480.52	7503.76
480.70	7747.17
480.88	7564.61
481.06	7637.17
481.24	7683.98
481.41	7662.91
481.59	7906.33
481.77	7810.37
481.95	8053.78
482.13	8011.65
482.31	7999.95
482.49	8184.85
482.67	8313.58
482.85	8154.43
483.03	8505.51
483.21	8470.40
483.39	8664.66
483.57	8442.31
483.74	8713.81
483.92	8774.67
484.10	8753.60
484.28	8697.43
484.46	8985.32
484.64	8992.34
484.82	8898.72
485.00	9144.47
485.18	9296.61
485.35	9327.03
485.53	9231.07
485.71	9338.74
485.89	9509.60
486.07	9516.62
486.25	9390.23
486.43	9479.17
486.61	9689.82
486.78	9848.97
486.96	10087.71
487.14	9966.00
487.32	9846.63
487.50	9874.72
487.68	10059.62
487.85	10286.65
488.03	10296.02
488.21	10370.91
488.39	10420.06
488.57	10548.79
488.75	10588.58
488.92	10853.06
489.10	10972.43
489.28	10960.73
489.46	10794.55
489.64	11091.80
489.81	11166.70
489.99	11349.26
490.17	10974.77
490.35	11438.20
490.53	11288.40
490.70	11681.61
490.88	11604.38
491.06	11686.29
491.24	11590.33
491.41	11758.85
491.59	11859.49
491.77	11929.71
491.95	12142.70
492.13	12067.80
492.30	12269.09
492.48	12306.54
492.66	12217.60
492.84	12243.34
493.01	12564.00
493.19	12477.40
493.37	12676.34
493.54	12428.24
493.72	12610.81
493.90	12814.43
494.08	12837.84
494.25	12996.99
494.43	13085.94
494.61	13261.48
494.79	13060.19
494.96	12961.89
495.14	13341.05
495.32	13551.70
495.49	13495.53
495.67	13633.62
495.85	13544.68
496.02	13785.76
496.20	13783.41
496.38	14015.13
496.55	13806.82
496.73	14183.65
496.91	13905.12
497.09	14169.60
497.26	14284.29
497.44	14178.97
497.62	14235.14
497.79	14354.51
497.97	14349.82
498.14	14579.20
498.32	14714.95
498.50	14885.81
498.67	14810.91
498.85	14972.41
499.03	14740.69
499.20	14857.72
499.38	14895.17
499.56	15225.18
499.73	15374.98
499.91	15140.93
500.08	15463.92
500.26	15283.70
500.44	15250.93
500.61	15494.35
500.79	15697.97
500.97	15208.80
501.14	15520.09
501.32	15604.35
501.49	15754.15
501.67	15749.46
501.84	15662.86
502.02	15917.98
502.20	15913.30
502.37	15985.86
502.55	16051.39
502.72	15917.98
502.90	16135.65
503.07	15964.79
503.25	16137.99
503.43	16262.04
503.60	16248.00
503.78	16418.86
503.95	16460.99
504.13	16648.23
504.30	16638.87
504.48	16465.67
504.65	16692.70
504.83	16573.33
505.01	17081.23
505.18	17172.51
505.36	17109.32
505.53	16711.42
505.71	16709.08
505.88	16947.82
506.06	16922.07
506.23	17050.80
506.41	16982.93
506.58	17231.02
506.76	17270.81
506.93	17308.26
507.11	17254.43
507.28	17139.74
507.46	17170.17
507.63	17582.10
507.81	17537.63
507.98	17687.43
508.16	17565.72
508.33	17661.68
508.50	17860.63
508.68	17582.10
508.85	18185.96
509.03	18017.44
509.20	18073.62
509.38	18317.03
509.55	18150.85
509.73	18181.28
509.90	18214.05
510.08	18136.81
510.25	18200.01
510.42	18527.68
510.60	18312.35
510.77	18471.51
510.95	18583.85
511.12	18614.28
511.30	18633.00
511.47	18773.44
511.64	18735.99
511.82	19080.05
511.99	18920.89
512.17	18934.93
512.34	18965.36
512.51	18817.91
512.69	19063.66
512.86	19061.32
513.04	19300.06
513.21	19634.75
513.38	19140.90
513.56	19728.38
513.73	19332.82
513.90	19183.03
514.08	19349.21
514.25	19250.91
514.43	19508.37
514.60	19454.53
514.77	19468.58
514.95	19908.60
515.12	19627.73
515.29	19452.19
515.47	19796.25
515.64	19887.53
515.81	19871.15
515.99	20144.99
516.16	20037.33
516.33	20177.76
516.51	20222.23
516.68	19941.36
516.85	20105.20
517.03	20262.02
517.20	20411.81
517.37	20278.40
517.54	20159.03
517.72	20404.79
517.89	20386.07
518.06	20470.33
518.24	20535.86
518.41	20552.24
518.58	20706.72
518.75	20765.23
518.93	20814.38
519.10	20702.04
519.27	20638.84
519.45	20753.53
519.62	20798.00
519.79	20760.55
519.96	21125.68
520.14	21275.47
520.31	20760.55
520.48	21252.06
520.65	21184.19
520.83	21326.96
521.00	21144.40
521.17	21362.07
521.34	21064.82
521.52	21378.45
521.69	21530.59
521.86	21493.14
522.03	21689.74
522.20	22031.46
522.38	21514.20
522.55	21703.79
522.72	21600.80
522.89	21619.53
523.07	21961.25
523.24	21766.98
523.41	21724.85
523.58	21926.14
523.75	22050.19
523.92	21579.74
524.10	21874.65
524.27	22097.00
524.44	22115.72
524.61	22579.15
524.78	22174.24
524.96	22043.17
525.13	22197.64
525.30	22253.81
525.47	22600.21
525.64	22412.97
525.81	22361.48
525.98	22569.79
526.16	22679.79
526.33	22389.56
526.50	22827.24
526.67	22494.89
526.84	22483.19
527.01	22703.20
527.18	22574.47
527.36	22834.27
527.53	22831.93
527.70	22970.02
527.87	23183.01
528.04	23040.23
528.21	23133.86
528.38	22647.02
528.55	23103.43
528.72	23040.23
528.89	23281.31
529.07	23386.63
529.24	23124.49
529.41	23019.17
529.58	23082.36
529.75	23126.83
529.92	23456.85
530.09	23103.43
530.26	23344.50
530.43	23480.25
530.60	23662.82
530.77	23683.88
530.94	23730.69
531.11	23616.01
531.28	23316.42
531.46	23821.97
531.63	23396.00
531.80	23709.63
531.97	24114.54
532.14	24114.54
532.31	23608.98
532.48	23971.77
532.65	23627.71
532.82	23779.84
532.99	24058.37
533.16	23693.24
533.33	24395.40
533.50	24074.75
533.67	24292.42
533.84	24121.56
534.01	24114.54
534.18	23864.10
534.35	24102.84
534.52	24210.50
534.69	24332.21
534.86	24900.96
535.03	24299.44
535.20	24577.97
535.37	24755.85
535.54	24472.64
535.71	24587.33
535.88	24507.75
536.05	24528.81
536.22	24496.05
536.38	24388.38
536.55	24809.68
536.72	25165.44
536.89	24599.03
537.06	24404.77
537.23	25142.03
537.40	24905.64
537.57	24615.41
537.74	24802.66
537.91	25238.00
538.08	25013.31
538.25	25127.99
538.42	25097.56
538.59	24868.19
538.75	25116.29
538.92	24886.92
539.09	25039.05
539.26	25088.20
539.43	25331.62
539.60	25102.25
539.77	24819.04
539.94	25153.74
540.11	25123.31
540.28	25184.16
540.44	25481.41
540.61	25202.89
540.78	25469.71
540.95	25568.01
541.12	25488.43
541.29	25542.27
541.46	25507.16
541.62	25181.82
541.79	25570.35
541.96	25387.79
542.13	25837.17
542.30	25582.06
542.47	25883.98
542.63	25743.55
542.80	25813.77
542.97	26370.82
543.14	25926.11
543.31	26363.79
543.48	25680.36
543.64	26059.52
543.81	26260.81
543.98	26401.24
544.15	26206.98
544.32	26211.66
544.48	26647.00
544.65	26089.95
544.82	26005.69
544.99	25937.82
545.16	26370.82
545.32	26309.96
545.49	26534.65
545.66	26492.52
545.83	26122.72
546.00	26703.17
546.16	26527.63
546.33	26316.98
546.50	26565.08
546.67	26595.51
546.83	26242.09
547.00	26527.63
547.17	26544.02
547.34	26885.73
547.50	26988.72
547.67	26965.31
547.84	26859.99
548.00	27122.13
548.17	26766.37
548.34	26782.75
548.51	27042.55
548.67	27358.52
548.84	27166.60
549.01	27014.46
549.18	27278.94
549.34	27035.53
549.51	26845.94
549.68	27049.57
549.84	26955.95
550.01	27145.53
550.18	26920.84
550.34	27152.55
550.51	27468.53
550.68	27419.38
550.84	26948.93
551.01	26920.84
551.18	27152.55
551.34	26998.08
551.51	27185.32
551.68	27143.19
551.84	27482.57
552.01	27236.81
552.18	26965.31
552.34	27026.17
552.51	27297.67
552.68	27248.52
552.84	27552.79
553.01	27604.28
553.18	27302.35
553.34	27789.18
553.51	27421.72
553.67	27704.92
553.84	27936.63
554.01	27524.70
554.17	27828.97
554.34	27962.38
554.51	27515.34
554.67	27428.74
554.84	27641.73
555.00	27470.87
555.17	27527.04
555.33	27749.39
555.50	27707.26
555.67	27758.75
555.83	27723.65
556.00	27978.76
556.16	28229.20
556.33	27828.97
556.50	28252.61
556.66	28102.81
556.83	28130.90
556.99	28011.53
557.16	28161.33
557.32	28383.68
557.49	28222.18
557.65	27786.84
557.82	27782.16
557.98	28180.05
558.15	27817.27
558.32	28306.44
558.48	27955.36
558.65	28446.87
558.81	28367.29
558.98	28285.37
559.14	27992.81
559.31	28261.97
559.47	28140.26
559.64	28444.53
559.80	28493.68
559.97	28709.01
560.13	28364.95
560.30	28273.67
560.46	28500.70
560.63	28273.67
560.79	28322.82
560.96	28374.31
561.12	28563.90
561.29	28189.41
561.45	28650.50
561.61	28472.62
561.78	28601.35
561.94	28493.68
562.11	28875.19
562.27	28599.01
562.44	28472.62
562.60	28636.45
562.77	28416.44
562.93	28453.89
563.10	28748.80
563.26	28652.84
563.42	29130.31
563.59	28442.19
563.75	28781.57
563.92	28432.83
564.08	28811.99
564.24	28748.80
564.41	28622.41
564.57	28442.19
564.74	28664.54
564.90	28727.74
565.07	28809.65
565.23	29095.20
565.39	28720.71
565.56	29069.45
565.72	28753.48
565.88	28664.54
566.05	28526.45
566.21	28833.06
566.38	29062.43
566.54	28957.11
566.70	29013.28
566.87	29247.33
567.03	29160.73
567.19	29532.88
567.36	29029.66
567.52	28727.74
567.68	28863.49
567.85	28725.39
568.01	29060.09
568.17	28814.34
568.34	29209.89
568.50	29200.52
568.66	29046.05
568.83	29048.39
568.99	29326.91
569.15	28957.11
569.32	28847.10
569.48	28931.36
569.64	29502.45
569.81	29612.46
569.97	29179.46
570.13	29291.80
570.30	28826.04
570.46	29317.55
570.62	29184.14
570.78	29109.24
570.95	28690.29
571.11	29249.67
571.27	28716.03
571.43	29254.36
571.60	29008.60
571.76	29207.55
571.92	29371.38
572.09	29610.12
572.25	29247.33
572.41	29343.30
572.57	29378.40
572.74	29390.11
572.90	29120.95
573.06	29177.12
573.22	29535.22
573.38	29298.83
573.55	29027.32
573.71	29514.16
573.87	29549.26
574.03	29476.71
574.20	29305.85
574.36	29134.99
574.52	29291.80
574.68	29275.42
574.84	29317.55
575.01	28987.53
575.17	29198.18
575.33	29289.46
575.49	29235.63
575.65	28987.53
575.82	29757.57
575.98	29502.45
576.14	29453.30
576.30	29675.65
576.46	29415.85
576.62	29149.03
576.79	29530.54
576.95	29165.42
577.11	29076.48
577.27	29326.91
577.43	29551.60
577.59	29560.97
577.75	29773.95
577.92	29317.55
578.08	29205.20
578.24	29542.24
578.40	29736.51
578.56	29275.42
578.72	29397.13
578.88	29530.54
579.04	29832.47
579.21	29092.86
579.37	29439.26
579.53	29385.43
579.69	29146.69
579.85	29493.09
580.01	29418.19
580.17	29134.99
580.33	29289.46
580.49	29776.30
580.65	29713.10
580.82	29624.16
580.98	29457.98
581.14	29687.36
581.30	29448.62
581.46	29867.58
581.62	29558.63
581.78	29163.08
581.94	29661.61
582.10	29284.78
582.26	29434.58
582.42	29715.44
582.58	29776.30
582.74	29556.28
582.90	29603.10
583.06	29617.14
583.22	29495.43
583.38	29647.57
583.54	29649.91
583.70	29635.86
583.86	29649.91
584.02	29450.96
584.18	29579.69
584.34	29748.21
584.50	29406.49
584.66	29579.69
584.82	29532.88
584.98	29441.60
585.14	29326.91
585.30	29418.19
585.46	29563.31
585.62	29488.41
585.78	29626.50
585.94	29291.80
586.10	29750.55
586.26	29762.25
586.42	29982.26
586.58	29596.07
586.74	29584.37
586.90	29294.14
587.06	29727.14
587.22	30033.75
587.38	29132.65
587.54	29825.45
587.70	29890.98
587.86	29977.58
588.02	29743.53
588.18	30279.51
588.34	29890.98
588.49	29486.07
588.65	29764.59
588.81	29823.11
588.97	29692.04
589.13	29656.93
589.29	29371.38
589.45	29846.51
589.61	29977.58
589.77	29986.94
589.93	30284.19
590.08	30096.95
590.24	29991.62
590.40	29914.39
590.56	29949.50
590.72	29443.94
590.88	29755.23
591.04	29961.20
591.20	30445.69
591.35	29942.47
591.51	30672.72
591.67	30162.48
591.83	30199.93
591.99	29979.92
592.15	30368.45
592.31	30113.33
592.46	29607.78
592.62	29722.46
592.78	29766.93
592.94	30118.01
593.10	29766.93
593.26	30485.48
593.41	30015.03
593.57	29743.53
593.73	30178.87
593.89	30216.32
594.05	30225.68
594.20	29839.49
594.36	29865.24
594.52	29933.11
594.68	30113.33
594.84	29898.00
594.99	30068.86
595.15	29841.83
595.31	30405.90
595.47	29937.79
595.62	30162.48
595.78	30024.39
595.94	29642.88
596.10	30204.61
596.25	30071.20
596.41	29975.24
596.57	30181.21
596.73	30223.34
596.88	30054.82
597.04	30499.52
597.20	30136.74
597.36	30356.75
597.51	30391.86
597.67	30129.72
597.83	30424.62
597.99	30052.48
598.14	30146.10
598.30	30263.13
598.46	30274.83
598.61	30309.94
598.77	30153.12
598.93	30363.77
599.09	30202.27
599.24	30277.17
599.40	30167.16
599.56	30483.14
599.71	30029.07
599.87	30377.81
600.03	30319.30
600.18	30054.82
600.34	30204.61
600.50	30239.72
600.65	30230.36
600.81	30368.45
600.97	30340.36
601.12	30377.81
601.28	30396.54
601.44	30480.80
601.59	30333.34
601.75	30174.19
601.91	30314.62
602.06	29748.21
602.22	30354.41
602.37	30017.37
602.53	29986.94
602.69	30293.55
602.84	30300.58
603.00	30174.19
603.16	30183.55
603.31	30064.18
603.47	29996.31
603.62	30288.87
603.78	30036.09
603.94	30270.15
604.09	30153.12
604.25	30054.82
604.40	30436.33
604.56	30443.35
604.71	30422.28
604.87	29986.94
605.03	30022.05
605.18	29916.73
605.34	30174.19
605.49	29886.30
605.65	29867.58
605.80	29666.29
605.96	29858.21
606.12	30192.91
606.27	30415.26
606.43	30160.14
606.58	30160.14
606.74	30127.38
606.89	30125.04
607.05	30274.83
607.20	30185.89
607.36	30190.57
607.51	29942.47
607.67	29834.81
607.82	30270.15
607.98	30160.14
608.13	30118.01
608.29	29755.23
608.44	30047.80
608.60	29776.30
608.75	30157.80
608.91	30071.20
609.06	30169.51
609.22	30148.44
609.37	29762.25
609.53	29837.15
609.68	29720.12
609.84	29661.61
609.99	29926.09
610.15	29951.84
610.30	29883.96
610.46	29919.07
610.61	29993.97
610.76	29886.30
610.92	29846.51
611.07	29764.59
611.23	30251.42
611.38	29795.02
611.54	29706.08
611.69	29350.32
611.84	30141.42
612.00	29167.76
612.15	29593.73
612.31	29759.91
612.46	29771.61
612.62	29926.09
612.77	29919.07
612.92	29811.40
613.08	29270.74
613.23	29696.72
613.39	29523.52
613.54	29469.69
613.69	29443.94
613.85	29453.30
614.00	29713.10
614.15	29476.71
614.31	29598.41
614.46	29865.24
614.62	29804.38
614.77	29848.85
614.92	29633.52
615.08	29628.84
615.23	29799.70
615.38	29652.25
615.54	29085.84
615.69	29457.98
615.84	29455.64
616.00	29474.37
616.15	29195.84
616.30	29331.59
616.46	29282.44
616.61	29340.96
616.76	29420.53
616.92	29240.31
617.07	29268.40
617.22	29046.05
617.37	29247.33
617.53	29511.81
617.68	29235.63
617.83	28964.13
617.99	28858.81
618.14	28982.85
618.29	28952.43
618.45	29240.31
618.60	29221.59
618.75	29127.97
618.90	29387.77
619.06	29268.40
619.21	29319.89
619.36	29202.86
619.51	28910.30
619.67	29006.26
619.82	28493.68
619.97	28833.06
620.12	28919.66
620.28	28767.52
620.43	29413.51
620.58	29146.69
620.73	28828.38
620.89	28959.45
621.04	29188.82
621.19	29024.98
621.34	29067.11
621.49	28479.64
621.65	28877.53
621.80	28645.82
621.95	28828.38
622.10	28922.00
622.25	29214.57
622.41	28671.56
622.56	28524.11
622.71	28907.96
622.86	29057.75
623.01	28758.16
623.16	28573.26
623.32	28851.78
623.47	28781.57
623.62	28952.43
623.77	28486.66
623.92	28940.72
624.07	28987.53
624.23	28959.45
624.38	28404.74
624.53	28793.27
624.68	28542.83
624.83	28884.55
624.98	28760.50
625.13	28458.57
625.29	28844.76
625.44	28400.06
625.59	28226.86
625.74	28102.81
625.89	28147.28
626.04	28254.95
626.19	28428.15
626.34	28212.82
626.49	27999.83
626.65	28210.48
626.80	28390.70
626.95	28374.31
627.10	28105.15
627.25	28645.82
627.40	28166.01
627.55	28067.70
627.70	27847.69
627.85	28142.60
628.00	28238.56
628.15	27983.44
628.30	27796.20
628.45	27978.76
628.60	27810.25
628.76	28166.01
628.91	27885.14
629.06	27910.89
629.21	28397.72
629.36	28084.09
629.51	28086.43
629.66	27803.22
629.81	27667.47
629.96	27445.12
630.11	27730.67
630.26	27718.96
630.41	27985.79
630.56	27693.22
630.71	27782.16
630.86	27828.97
631.01	27885.14
631.16	27866.42
631.31	27618.32
631.46	27564.49
631.61	27538.74
631.76	27892.16
631.91	27976.42
632.06	27800.88
632.21	27812.59
632.36	27740.03
632.51	27473.21
632.66	27536.40
632.81	27271.92
632.96	27716.62
633.10	27761.09
633.25	27772.80
633.40	27625.34
633.55	27447.46
633.70	27171.28
633.85	27297.67
634.00	27585.55
634.15	27353.84
634.30	27559.81
634.45	27534.06
634.60	27337.46
634.75	27564.49
634.90	27283.62
635.05	27414.69
635.19	27328.10
635.34	27679.18
635.49	27400.65
635.64	27264.90
635.79	27145.53
635.94	27424.06
636.09	27388.95
636.24	27147.87
636.39	26899.78
636.53	27002.76
636.68	27068.30
636.83	27173.62
636.98	27164.26
637.13	26937.23
637.28	27105.74
637.43	27229.79
637.57	27250.86
637.72	26888.07
637.87	26782.75
638.02	26895.10
638.17	26962.97
638.32	27342.14
638.46	27168.94
638.61	26843.60
638.76	26864.67
638.91	26752.32
639.06	26824.88
639.20	26735.94
639.35	26960.63
639.50	26939.57
639.65	27136.17
639.80	26998.08
639.94	26824.88
640.09	26780.41
640.24	26462.10
640.39	26616.57
640.54	26335.71
640.68	26958.29
640.83	26597.85
640.98	26534.65
641.13	26436.35
641.27	26602.53
641.42	26731.26
641.57	26501.89
641.72	26560.40
641.86	26279.54
642.01	26412.95
642.16	26270.17
642.31	26506.57
642.45	26410.60
642.60	25977.61
642.75	26316.98
642.90	25881.64
643.04	26132.08
643.19	26352.09
643.34	26321.66
643.48	26600.19
643.63	26434.01
643.78	26279.54
643.93	26525.29
644.07	26466.78
644.22	26281.88
644.37	26361.45
644.51	26340.39
644.66	26342.73
644.81	25876.96
644.95	26129.74
645.10	26206.98
645.25	26324.01
645.39	26183.57
645.54	26401.24
645.69	26148.46
645.83	26066.55
645.98	26361.45
646.13	26082.93
646.27	26174.21
646.42	26305.28
646.57	25937.82
646.71	26214.00
646.86	26176.55
647.00	26183.57
647.15	26214.00
647.30	25771.64
647.44	25675.68
647.59	25902.71
647.74	25806.75
647.88	25696.74
648.03	26113.36
648.17	25965.90
648.32	26096.97
648.47	25776.32
648.61	26225.70
648.76	25970.58
648.90	25663.97
649.05	25717.81
649.20	25738.87
649.34	25537.59
649.49	25832.49
649.63	25549.29
649.78	25717.81
649.92	25357.36
650.07	26122.72
650.21	25717.81
650.36	25631.21
650.51	25610.14
650.65	25968.24
650.80	25717.81
650.94	25589.08
651.09	25413.54
651.23	25638.23
651.38	25575.03
651.52	25123.31
651.67	25624.18
651.81	25418.22
651.96	25055.43
652.10	25469.71
652.25	25329.28
652.39	25268.42
652.54	25525.88
652.68	25422.90
652.83	25362.04
652.97	25624.18
653.12	25565.67
653.26	25355.02
653.41	25301.19
653.55	24900.96
653.70	25216.93
653.84	25221.61
653.99	25132.67
654.13	25104.59
654.27	25362.04
654.42	25039.05
654.56	25373.75
654.71	25408.86
654.85	25109.27
655.00	25200.55
655.14	25326.94
655.29	25184.16
655.43	25287.15
655.57	25055.43
655.72	24856.49
655.86	24828.40
656.01	25120.97
656.15	24774.57
656.30	25001.60
656.44	24924.36
656.58	24917.34
656.73	24943.09
656.87	24912.66
657.01	24690.31
657.16	24985.22
657.30	25076.50
657.45	24573.28
657.59	24467.96
657.73	24556.90
657.88	24657.54
658.02	24905.64
658.16	24840.11
658.31	24271.36
658.45	24828.40
658.60	24521.79
658.74	24482.00
658.88	24704.35
659.03	24276.04
659.17	24692.65
659.31	24491.37
659.46	24592.01
659.60	24512.43
659.74	24959.47
659.89	24582.65
660.03	24432.85
660.17	24594.35
660.32	24269.01
660.46	24166.03
660.60	24039.64
660.74	23889.85
660.89	23969.43
661.03	23931.98
661.17	23924.96
661.32	24063.05
661.46	24023.26
661.60	23880.49
661.74	23976.45
661.89	24128.58
662.03	23948.36
662.17	23859.42
662.31	23887.51
662.46	23903.89
662.60	24121.56
662.74	23796.23
662.88	23782.18
663.03	23807.93
663.17	23566.85
663.31	23374.93
663.45	23578.56
663.60	23531.75
663.74	23527.06
663.88	23353.87
664.02	23461.53
664.17	23428.76
664.31	23534.09
664.45	23428.76
664.59	23398.34
664.73	23407.70
664.88	23470.89
665.02	23211.09
665.16	23447.49
665.30	23293.01
665.44	22876.40
665.59	22813.20
665.73	23061.30
665.87	22845.97
666.01	23028.53
666.15	22867.03
666.29	23147.90
666.44	23281.31
666.58	23005.13
666.72	23002.78
666.86	22981.72
667.00	23065.98
667.14	22843.63
667.28	22857.67
667.43	22787.46
667.57	22810.86
667.71	22457.44
667.85	22728.94
667.99	22761.71
668.13	22525.32
668.27	22560.42
668.41	22384.88
668.56	22382.54
668.70	22572.13
668.84	22878.74
668.98	22651.70
669.12	22721.92
669.26	22602.55
669.40	22153.17
669.54	22452.76
669.68	22415.31
669.82	22078.27
669.96	22097.00
670.10	22164.87
670.25	21970.61
670.39	21902.73
670.53	21949.54
670.67	22003.38
670.81	21846.56
670.95	21685.06
671.09	21928.48
671.23	22153.17
671.37	21986.99
671.51	21813.79
671.65	22122.74
671.79	21907.41
671.93	21809.11
672.07	21778.68
672.21	21348.03
672.35	21521.23
672.49	21099.93
672.63	21490.80
672.77	21324.62
672.91	21546.97
673.05	21371.43
673.19	21137.38
673.33	21238.02
673.47	21242.70
673.61	21336.32
673.75	21181.85
673.89	21163.12
674.03	21200.57
674.17	21116.31
674.31	20762.89
674.45	21135.04
674.59	20933.75
674.73	20884.60
674.87	20798.00
675.01	20680.97
675.15	20706.72
675.29	20641.18
675.43	20458.62
675.56	20725.44
675.70	20486.71
675.84	20730.12
675.98	19894.55
676.12	20510.11
676.26	20631.82
676.40	20393.09
676.54	20425.86
676.68	20393.09
676.82	19721.35
676.96	20013.92
677.10	19920.30
677.23	19824.34
677.37	19983.49
677.51	19737.74
677.65	19791.57
677.79	19534.11
677.93	19672.20
678.07	19814.98
678.21	19302.40
678.34	19426.45
678.48	19594.96
678.62	19585.60
678.76	19187.71
678.90	19321.12
679.04	19452.19
679.18	19122.18
679.31	18817.91
679.45	19300.06
679.59	18948.98
679.73	19028.56
679.87	19108.13
680.00	18831.95
680.14	18750.03
680.28	18670.45
680.42	19047.28
680.56	18864.72
680.70	18623.64
680.83	18735.99
680.97	18321.71
681.11	18740.67
681.25	18513.64
681.39	18771.10
681.52	18420.02
681.66	18347.46
681.80	18005.74
681.94	17956.59
682.07	18204.69
682.21	18057.23
682.35	17811.48
682.49	17591.47
682.62	18113.41
682.76	17769.35
682.90	17741.26
683.04	17837.22
683.17	17642.96
683.31	17652.32
683.45	17755.30
683.59	17848.93
683.72	17497.84
683.86	17563.38
684.00	17357.41
684.13	17245.07
684.27	17245.07
684.41	17097.61
684.55	17125.70
684.68	16872.92
684.82	16837.81
684.96	17050.80
685.09	16840.15
685.23	16578.01
685.37	16821.43
685.50	16982.93
685.64	16620.14
685.78	16943.14
685.91	16849.52
686.05	16830.79
686.19	16657.59
686.32	16542.91
686.46	16549.93
686.60	16173.10
686.73	16411.84
686.87	16411.84
687.01	16248.00
687.14	16018.63
687.28	16049.05
687.42	16166.08
687.55	16070.12
687.69	16194.17
687.82	15782.23
687.96	15887.56
688.10	16067.78
688.23	15843.09
688.37	15786.91
688.50	15824.36
688.64	15672.23
688.78	15492.01
688.91	15178.37
689.05	15468.60
689.18	15295.40
689.32	14885.81
689.46	15272.00
689.59	15171.35
689.73	15220.50
689.86	14867.08
690.00	15105.82
690.13	14918.57
690.27	15091.77
690.41	15302.42
690.54	14897.51
690.68	15096.46
690.81	14841.34
690.95	14829.63
691.08	14721.97
691.22	14623.67
691.35	14623.67
691.49	14649.41
691.62	14398.98
691.76	14228.12
691.89	14448.13
692.03	14279.61
692.16	14059.60
692.30	14277.27
692.43	14118.11
692.57	14115.77
692.70	14075.98
692.84	13848.95
692.97	13963.64
693.11	13708.52
693.24	13893.42
693.38	14031.51
693.51	13741.29
693.65	13720.22
693.78	13659.37
693.92	13483.83
694.05	13528.30
694.19	13582.13
694.32	13532.98
694.45	13247.43
694.59	13121.04
694.72	13238.07
694.86	12999.34
694.99	13027.42
695.13	13055.51
695.26	13102.32
695.39	13055.51
695.53	13097.64
695.66	12858.90
695.80	13064.87
695.93	12835.50
696.07	12912.74
696.20	12688.04
696.33	13048.49
696.47	12578.04
696.60	12547.61
696.73	12554.63
696.87	12589.74
697.00	12566.34
697.14	12369.73
697.27	11943.75
697.40	12016.31
697.54	12547.61
697.67	11836.09
697.80	12098.23
697.94	11817.36
698.07	11885.24
698.21	11892.26
698.34	11613.74
698.47	11948.43
698.61	11854.81
698.74	12135.68
698.87	11843.11
699.01	11559.91
699.14	11583.31
699.27	11747.15
699.40	11541.18
699.54	11283.72
699.67	11559.91
699.80	11473.31
699.94	11339.90
700.07	11234.57
700.20	11225.21
700.34	11077.76
700.47	11023.92
700.60	11101.16
700.73	10953.71
700.87	11028.60
701.00	11211.17
701.13	11066.05
701.26	10988.82
701.40	10977.11
701.53	10885.83
701.66	10923.28
701.79	10789.87
701.93	10904.56
702.06	10626.03
702.19	10314.74
702.32	10377.94
702.46	10544.11
702.59	10274.95
702.72	10415.38
702.85	10349.85
702.99	10038.56
703.12	10225.80
703.25	10050.26
703.38	10221.12
703.51	10200.05
703.65	10153.24
703.78	10202.40
703.91	9982.38
704.04	10174.31
704.17	10303.04
704.31	9692.16
704.44	9825.57
704.57	9741.31
704.70	9783.44
704.83	9680.46
704.96	9640.67
705.10	9617.26
705.23	9666.41
>>>>>End Processed Spectral Data<<<<<
