SpectraSuite Data File
++++++++++++++++++++++++++++++++++++
Date: Fri Oct 18 13:58:37 GMT-05:00 2013
User: bianchi
Dark Spectrum Present: No
Reference Spectrum Present: No
Number of Sampled Component Spectra: 1
Spectrometers: USB2+H05261
Integration Time (usec): 50000 (USB2+H05261)
Spectra Averaged: 1 (USB2+H05261)
Boxcar Smoothing: 0 (USB2+H05261)
Correct for Electrical Dark: No (USB2+H05261)
Strobe/Lamp Enabled: No (USB2+H05261)
Correct for Detector Non-linearity: No (USB2+H05261)
Correct for Stray Light: No (USB2+H05261)
Number of Pixels in Processed Spectrum: 2048
>>>>>Begin Processed Spectral Data<<<<<
365.73	0.00
365.92	0.00
366.12	0.00
366.32	0.00
366.52	0.00
366.72	0.00
366.91	0.00
367.11	0.00
367.31	0.00
367.51	0.00
367.70	0.00
367.90	0.00
368.10	0.00
368.30	0.00
368.49	0.00
368.69	0.00
368.89	0.00
369.09	0.00
369.28	0.00
369.48	0.00
369.68	0.00
369.87	0.00
370.07	0.00
370.27	0.00
370.47	0.00
370.66	95.96
370.86	102.98
371.06	126.39
371.25	105.32
371.45	128.73
371.65	168.52
371.84	86.60
372.04	149.79
372.24	208.31
372.44	191.92
372.63	257.46
372.83	227.03
373.03	203.63
373.22	220.01
373.42	159.16
373.62	276.18
373.81	217.67
374.01	205.97
374.21	198.95
374.40	255.12
374.60	304.27
374.79	112.35
374.99	222.35
375.19	210.65
375.38	252.78
375.58	152.13
375.78	271.50
375.97	212.99
376.17	337.04
376.37	231.71
376.56	243.42
376.76	271.50
376.95	318.31
377.15	269.16
377.35	358.10
377.54	285.55
377.74	290.23
377.93	264.48
378.13	259.80
378.33	330.02
378.52	262.14
378.72	365.12
378.91	304.27
379.11	337.04
379.31	330.02
379.50	250.44
379.70	301.93
379.89	299.59
380.09	320.65
380.28	252.78
380.48	332.36
380.68	292.57
380.87	299.59
381.07	306.61
381.26	301.93
381.46	285.55
381.65	257.46
381.85	346.40
382.04	372.15
382.24	337.04
382.43	344.06
382.63	257.46
382.83	372.15
383.02	280.86
383.22	430.66
383.41	306.61
383.61	341.72
383.80	365.12
384.00	308.95
384.19	318.31
384.39	351.08
384.58	400.23
384.78	393.21
384.97	404.91
385.17	301.93
385.36	353.42
385.56	365.12
385.75	418.96
385.95	421.30
386.14	447.04
386.34	351.08
386.53	421.30
386.72	423.64
386.92	479.81
387.11	407.25
387.31	421.30
387.50	411.93
387.70	379.17
387.89	433.00
388.09	479.81
388.28	365.12
388.48	400.23
388.67	425.98
388.86	465.77
389.06	437.68
389.25	472.79
389.45	423.64
389.64	465.77
389.84	416.62
390.03	491.51
390.22	465.77
390.42	442.36
390.61	475.13
390.81	526.62
391.00	491.51
391.19	521.94
391.39	512.58
391.58	554.71
391.78	519.60
391.97	524.28
392.16	463.43
392.36	554.71
392.55	568.75
392.75	580.45
392.94	550.03
393.13	554.71
393.33	505.56
393.52	545.34
393.71	643.65
393.91	528.96
394.10	636.63
394.29	545.34
394.49	620.24
394.68	650.67
394.88	596.84
395.07	634.29
395.26	543.00
395.46	599.18
395.65	636.63
395.84	678.76
396.04	688.12
396.23	667.05
396.42	624.92
396.62	655.35
396.81	674.07
397.00	550.03
397.19	676.41
397.39	641.31
397.58	709.18
397.77	671.73
397.97	678.76
398.16	657.69
398.35	711.52
398.55	631.94
398.74	683.44
398.93	734.93
399.12	716.20
399.32	653.01
399.51	746.63
399.70	753.65
399.90	699.82
400.09	692.80
400.28	833.23
400.47	830.89
400.67	788.76
400.86	753.65
401.05	706.84
401.24	725.57
401.44	849.61
401.63	823.87
401.82	833.23
402.01	800.46
402.21	835.57
402.40	814.51
402.59	917.49
402.78	863.66
402.97	814.51
403.17	842.59
403.36	933.87
403.55	858.98
403.74	837.91
403.93	842.59
404.13	938.55
404.32	919.83
404.51	1027.50
404.70	891.74
404.89	870.68
405.09	961.96
405.28	933.87
405.47	987.71
405.66	978.34
405.85	1018.13
406.05	959.62
406.24	936.21
406.43	999.41
406.62	1088.35
406.81	1036.86
407.00	1029.84
407.20	938.55
407.39	961.96
407.58	1043.88
407.77	980.68
407.96	1071.97
408.15	1036.86
408.34	1048.56
408.54	1048.56
408.73	1048.56
408.92	1074.31
409.11	1076.65
409.30	1165.59
409.49	1151.54
409.68	1156.22
409.87	1198.35
410.07	1165.59
410.26	1224.10
410.45	1149.20
410.64	1259.21
410.83	1167.93
411.02	1324.74
411.21	1291.98
411.40	1217.08
411.59	1282.61
411.78	1282.61
411.98	1348.15
412.17	1334.11
412.36	1357.51
412.55	1217.08
412.74	1345.81
412.93	1322.40
413.12	1329.42
413.31	1423.05
413.50	1383.26
413.69	1444.11
413.88	1523.69
414.07	1404.32
414.26	1504.96
414.45	1451.13
414.64	1460.49
414.83	1497.94
415.02	1423.05
415.22	1687.53
415.41	1607.95
415.60	1577.52
415.79	1533.05
415.98	1661.78
416.17	1561.14
416.36	1479.22
416.55	1572.84
416.74	1638.38
416.93	1720.29
417.12	1626.67
417.31	1689.87
417.50	1724.97
417.69	1631.35
417.88	1717.95
418.07	1767.10
418.26	1713.27
418.45	1685.19
418.64	1844.34
418.83	1797.53
419.02	1895.83
419.21	1837.32
419.39	1846.68
419.58	1825.62
419.77	1762.42
419.96	1937.96
420.15	1853.70
420.34	1898.17
420.53	1888.81
420.72	1935.62
420.91	1928.60
421.10	1923.92
421.29	1921.58
421.48	1912.22
421.67	2036.27
421.86	2003.50
422.05	2001.16
422.24	1956.69
422.43	1898.17
422.61	1853.70
422.80	2031.58
422.99	2045.63
423.18	2033.93
423.37	2038.61
423.56	2085.42
423.75	2045.63
423.94	2050.31
424.13	1916.90
424.32	1926.26
424.50	1952.01
424.69	2097.12
424.88	2045.63
425.07	1928.60
425.26	2078.40
425.45	2073.71
425.64	2022.22
425.83	2066.69
426.01	2108.82
426.20	2036.27
426.39	2139.25
426.58	2029.24
426.77	2085.42
426.96	2134.57
427.15	2090.10
427.33	2108.82
427.52	2111.16
427.71	2349.90
427.90	2106.48
428.09	2143.93
428.28	2202.44
428.46	2181.38
428.65	2251.60
428.84	2190.74
429.03	2165.00
429.22	2122.87
429.40	2340.54
429.59	2174.36
429.78	2129.89
429.97	2078.40
430.16	2076.06
430.34	2296.07
430.53	2382.67
430.72	2359.26
430.91	2328.83
431.10	2296.07
431.28	2359.26
431.47	2242.23
431.66	2415.43
431.85	2314.79
432.03	2389.69
432.22	2424.80
432.41	2408.41
432.60	2485.65
432.79	2499.69
432.97	2417.77
433.16	2525.44
433.35	2455.22
433.54	2471.61
433.72	2471.61
433.91	2476.29
434.10	2462.24
434.28	2567.57
434.47	2534.80
434.66	2544.16
434.85	2658.85
435.03	2572.25
435.22	2567.57
435.41	2668.21
435.59	2682.25
435.78	2710.34
435.97	2761.83
436.16	2719.70
436.34	2640.12
436.53	2670.55
436.72	2782.90
436.90	2548.84
437.09	2677.57
437.28	2752.47
437.46	2668.21
437.65	2698.64
437.84	2794.60
438.02	2789.92
438.21	2801.62
438.40	2806.30
438.58	2806.30
438.77	2843.75
438.96	2925.67
439.14	3098.87
439.33	2965.46
439.52	2986.52
439.70	2909.29
439.89	3026.31
440.08	3061.42
440.26	2944.39
440.45	3014.61
440.63	3115.25
440.82	3229.94
441.01	3012.27
441.19	3112.91
441.38	3201.85
441.57	3164.40
441.75	3173.77
441.94	3435.91
442.12	3236.96
442.31	3309.52
442.50	3346.97
442.68	3328.24
442.87	3262.71
443.05	3339.94
443.24	3456.97
443.43	3332.92
443.61	3356.33
443.80	3438.25
443.98	3311.86
444.17	3295.47
444.35	3407.82
444.54	3494.42
444.73	3379.73
444.91	3428.88
445.10	3353.99
445.28	3435.91
445.47	3349.31
445.65	3501.44
445.84	3414.84
446.02	3513.14
446.21	3440.59
446.39	3522.51
446.58	3531.87
446.77	3541.23
446.95	3421.86
447.14	3517.83
447.32	3562.30
447.51	3569.32
447.69	3517.83
447.88	3651.24
448.06	3475.70
448.25	3531.87
448.43	3517.83
448.62	3620.81
448.80	3440.59
448.99	3517.83
449.17	3433.57
449.36	3597.40
449.54	3786.99
449.73	3693.37
449.91	3590.38
450.10	3714.43
450.28	3648.90
450.46	3655.92
450.65	3749.54
450.83	3726.13
451.02	3777.62
451.20	3868.91
451.39	3829.12
451.57	3698.05
451.76	3857.20
451.94	3772.94
452.13	4018.70
452.31	3899.33
452.49	3700.39
452.68	4018.70
452.86	3882.95
453.05	3892.31
453.23	4053.81
453.42	3803.37
453.60	3852.52
453.78	3892.31
453.97	3763.58
454.15	3934.44
454.34	3904.01
454.52	4002.32
454.70	4002.32
454.89	4133.39
455.07	4105.30
455.26	4081.89
455.44	4198.92
455.62	4093.60
455.81	4128.70
455.99	4234.03
456.17	4168.49
456.36	4102.96
456.54	4285.52
456.73	4142.75
456.91	4372.12
457.09	4367.44
457.28	4301.90
457.46	4320.63
457.64	4592.13
457.83	4332.33
458.01	4285.52
458.19	4414.25
458.38	4262.12
458.56	4425.95
458.74	4540.64
458.93	4500.85
459.11	4407.23
459.29	4400.21
459.48	4489.15
459.66	4428.29
459.84	4507.87
460.03	4585.11
460.21	4592.13
460.39	4484.47
460.57	4571.07
460.76	4531.28
460.94	4716.18
461.12	4709.16
461.31	4547.66
461.49	4638.94
461.67	4573.41
461.85	4650.64
462.04	4739.58
462.22	4826.18
462.40	4903.42
462.59	4688.09
462.77	4833.21
462.95	4809.80
463.13	4765.33
463.32	4826.18
463.50	4880.02
463.68	4940.87
463.86	4770.01
464.05	4819.16
464.23	4978.32
464.41	5062.58
464.59	4823.84
464.78	4884.70
464.96	4938.53
465.14	4952.57
465.32	4961.94
465.50	5020.45
465.69	4985.34
465.87	5001.72
466.05	4973.64
466.23	4880.02
466.41	5181.95
466.60	5200.67
466.78	5055.56
466.96	5004.07
467.14	4961.94
467.32	5130.45
467.51	5231.10
467.69	5064.92
467.87	5104.71
468.05	5252.16
468.23	5191.31
468.41	5081.30
468.60	5294.29
468.78	5282.59
468.96	5116.41
469.14	5123.43
469.32	5392.59
469.50	5217.05
469.69	5383.23
469.87	5401.96
470.05	5479.19
470.23	5448.77
470.41	5430.04
470.59	5394.93
470.77	5376.21
470.95	5565.79
471.14	5479.19
471.32	5362.17
471.50	5685.16
471.68	5628.99
471.86	5638.35
472.04	5626.65
472.22	5703.89
472.40	5556.43
472.58	5886.45
472.77	5806.87
472.95	5809.21
473.13	6010.50
473.31	5743.67
473.49	5774.10
473.67	5942.62
473.85	5792.83
474.03	6059.65
474.21	6104.12
474.39	6076.03
474.57	6029.22
474.75	6174.33
474.93	6314.77
475.12	6179.01
475.30	6366.26
475.48	6289.02
475.66	6349.87
475.84	6452.86
476.02	6289.02
476.20	6450.52
476.38	6478.60
476.56	6581.59
476.74	6434.13
476.92	6534.78
477.10	6712.66
477.28	6553.50
477.46	6633.08
477.64	6773.51
477.82	6832.02
478.00	7012.24
478.18	7005.22
478.36	7075.44
478.54	7070.76
478.72	7056.72
478.90	7152.68
479.08	7239.28
479.26	7307.15
479.44	7356.30
479.62	7412.48
479.80	7405.46
479.98	7459.29
480.16	7667.60
480.34	7566.95
480.52	7641.85
480.70	7765.90
480.88	7779.94
481.06	7768.24
481.24	7618.44
481.41	7892.29
481.59	7985.91
481.77	7969.52
481.95	8170.81
482.13	8088.89
482.31	8201.24
482.49	8271.45
482.67	8339.33
482.85	8477.42
483.03	8484.44
483.21	8634.24
483.39	8461.04
483.57	8716.16
483.74	8683.39
483.92	8713.81
484.10	8634.24
484.28	8858.93
484.46	9078.94
484.64	9095.32
484.82	9041.49
485.00	9298.95
485.18	9345.76
485.35	9296.61
485.53	9228.73
485.71	9385.55
485.89	9804.50
486.07	9582.15
486.25	9530.66
486.43	9788.12
486.61	10019.83
486.78	10146.22
486.96	9813.87
487.14	10256.23
487.32	10122.82
487.50	10066.64
487.68	10225.80
487.85	10443.47
488.03	10335.81
488.21	10534.75
488.39	10532.41
488.57	10714.97
488.75	10689.23
488.92	10834.34
489.10	10909.24
489.28	11080.10
489.46	10986.47
489.64	11040.31
489.81	11414.79
489.99	11370.32
490.17	11316.49
490.35	11393.73
490.53	11578.63
490.70	11613.74
490.88	11606.72
491.06	11946.09
491.24	11639.48
491.41	11662.89
491.59	11887.58
491.77	11829.07
491.95	12320.58
492.13	12299.52
492.30	12252.70
492.48	12152.06
492.66	12407.18
492.84	12287.81
493.01	12542.93
493.19	12489.10
493.37	12856.56
493.54	12755.92
493.72	12748.90
493.90	12863.58
494.08	13132.75
494.25	13085.94
494.43	13263.82
494.61	13429.99
494.79	13118.70
494.96	13460.42
495.14	13586.81
495.32	13378.50
495.49	13458.08
495.67	13612.56
495.85	13706.18
496.02	13851.29
496.20	13855.97
496.38	13923.85
496.55	13886.40
496.73	14193.01
496.91	14387.27
497.09	14272.59
497.26	14516.00
497.44	14176.62
497.62	14328.76
497.79	14492.60
497.97	14565.15
498.14	14658.78
498.32	14895.17
498.50	14771.12
498.67	14857.72
498.85	14977.09
499.03	15028.58
499.20	15005.17
499.38	15105.82
499.56	15405.41
499.73	15241.57
499.91	15171.35
500.08	15489.67
500.26	15286.04
500.44	15475.62
500.61	15335.19
500.79	15311.78
500.97	15655.84
501.14	15765.85
501.32	16020.97
501.49	15997.56
501.67	15929.69
501.84	16002.24
502.02	15852.45
502.20	16255.02
502.37	16250.34
502.55	16006.92
502.72	16271.40
502.90	16004.58
503.07	16325.24
503.25	16535.88
503.43	16435.24
503.60	16566.31
503.78	16683.34
503.95	16704.40
504.13	16559.29
504.30	16748.87
504.48	16730.15
504.65	16931.44
504.83	17085.91
505.01	17408.90
505.18	16933.78
505.36	17303.58
505.53	16938.46
505.71	17312.94
505.88	17488.48
506.06	16915.05
506.23	17465.08
506.41	17514.23
506.58	17657.00
506.76	17446.35
506.93	17652.32
507.11	17439.33
507.28	17554.02
507.46	17530.61
507.63	17982.34
507.81	18401.29
507.98	17769.35
508.16	18176.60
508.33	17788.07
508.50	17970.63
508.68	17886.37
508.85	18225.75
509.03	17994.04
509.20	18139.15
509.38	18480.87
509.55	18300.65
509.73	18394.27
509.90	18382.57
510.08	18270.22
510.25	18462.15
510.42	18572.15
510.60	19012.17
510.77	18860.04
510.95	18909.19
511.12	18899.83
511.30	18958.34
511.47	19047.28
511.64	18923.23
511.82	19264.95
511.99	18991.11
512.17	19241.54
512.34	18967.70
512.51	19159.63
512.69	19014.51
512.86	19250.91
513.04	19335.17
513.21	19679.22
513.38	19470.92
513.56	19613.69
513.73	19583.26
513.90	19669.86
514.08	19632.41
514.25	19819.66
514.43	19798.59
514.60	19681.56
514.77	19894.55
514.95	20144.99
515.12	19946.05
515.29	20177.76
515.47	20236.27
515.64	20257.34
515.81	20257.34
515.99	20357.98
516.16	20357.98
516.33	20435.22
516.51	20472.67
516.68	20231.59
516.85	20313.51
517.03	20372.02
517.20	20802.68
517.37	20613.10
517.54	20631.82
517.72	20706.72
517.89	20807.36
518.06	20776.94
518.24	20439.90
518.41	20812.04
518.58	20814.38
518.75	20655.23
518.93	21214.62
519.10	20718.42
519.27	21142.06
519.45	20898.64
519.62	20863.54
519.79	20868.22
519.96	21254.40
520.14	21406.54
520.31	21504.84
520.48	21319.94
520.65	21186.53
520.83	21544.63
521.00	21605.49
521.17	21841.88
521.34	21521.23
521.52	21738.90
521.69	21565.70
521.86	21886.35
522.03	21846.56
522.20	21851.24
522.38	22125.08
522.55	21736.56
522.72	21956.57
522.89	22270.20
523.07	22384.88
523.24	22434.03
523.41	22286.58
523.58	22073.59
523.75	22476.16
523.92	21984.65
524.10	22539.36
524.27	22272.54
524.44	22501.91
524.61	22611.92
524.78	22387.22
524.96	22726.60
525.13	22230.41
525.30	22431.69
525.47	22698.52
525.64	22647.02
525.81	22897.46
525.98	23164.28
526.16	22611.92
526.33	22621.28
526.50	22867.03
526.67	22422.33
526.84	23091.73
527.01	22963.00
527.18	22663.41
527.36	22888.10
527.53	22963.00
527.70	23236.84
527.87	23601.96
528.04	23300.03
528.21	23119.81
528.38	23030.87
528.55	23491.96
528.72	23346.84
528.89	23637.07
529.07	23531.75
529.24	23435.78
529.41	23630.05
529.58	23620.69
529.75	23452.17
529.92	23587.92
530.09	23463.87
530.26	24006.87
530.43	23913.25
530.60	23473.23
530.77	24070.07
530.94	23927.30
531.11	23709.63
531.28	23634.73
531.46	23906.23
531.63	23981.13
531.80	23868.78
531.97	24269.01
532.14	24261.99
532.31	24276.04
532.48	24049.00
532.65	24238.59
532.82	24023.26
532.99	24636.48
533.16	23971.77
533.33	24477.32
533.50	24671.59
533.67	24467.96
533.84	24414.13
534.01	24446.90
534.18	24451.58
534.35	24933.73
534.52	24271.36
534.69	25039.05
534.86	24627.12
535.03	24566.26
535.20	24870.53
535.37	24847.13
535.54	24662.22
535.71	24552.22
535.88	24802.66
536.05	25179.48
536.22	25055.43
536.38	25069.48
536.55	24774.57
536.72	25406.52
536.89	24751.17
537.06	24919.68
537.23	25301.19
537.40	25015.65
537.57	25378.43
537.74	25205.23
537.91	25549.29
538.08	25338.64
538.25	25525.88
538.42	25371.41
538.59	25436.94
538.75	25186.50
538.92	25502.48
539.09	25509.50
539.26	25563.33
539.43	25769.30
539.60	25823.13
539.77	25495.46
539.94	25724.83
540.11	25645.25
540.28	25876.96
540.44	25624.18
540.61	25745.89
540.78	25659.29
540.95	25755.26
541.12	25600.78
541.29	25827.81
541.46	25661.63
541.62	25891.01
541.79	26001.01
541.96	25614.82
542.13	25811.43
542.30	26242.09
542.47	25891.01
542.63	25977.61
542.80	26349.75
542.97	26307.62
543.14	26518.27
543.31	26462.10
543.48	26225.70
543.64	26813.18
543.81	26508.91
543.98	26789.77
544.15	26593.17
544.32	26867.01
544.48	26796.79
544.65	26649.34
544.82	26452.73
544.99	26478.48
545.16	26398.90
545.32	26749.98
545.49	26518.27
545.66	26874.03
545.83	26820.20
546.00	26995.74
546.16	26780.41
546.33	26616.57
546.50	26546.36
546.67	26838.92
546.83	26686.79
547.00	26693.81
547.17	27065.96
547.34	26714.87
547.50	27323.41
547.67	27608.96
547.84	26878.71
548.00	27248.52
548.17	27063.61
548.34	27239.15
548.51	27342.14
548.67	27587.89
548.84	27108.08
549.01	27513.00
549.18	27384.27
549.34	27604.28
549.51	27290.65
549.68	27583.21
549.84	27353.84
550.01	27555.13
550.18	27424.06
550.34	27641.73
550.51	27985.79
550.68	27772.80
550.84	27466.19
551.01	27941.32
551.18	27634.71
551.34	27716.62
551.51	27634.71
551.68	28161.33
551.84	27805.56
552.01	27555.13
552.18	27999.83
552.34	27662.79
552.51	27985.79
552.68	27697.90
552.84	27866.42
553.01	28144.94
553.18	27910.89
553.34	27894.50
553.51	28002.17
553.67	28435.17
553.84	28198.77
554.01	28009.19
554.17	28009.19
554.34	28067.70
554.51	28027.92
554.67	28079.41
554.84	28603.69
555.00	27936.63
555.17	28093.45
555.33	28116.86
555.50	28453.89
555.67	28395.38
555.83	28524.11
556.00	28369.63
556.16	28531.13
556.33	28421.13
556.50	28467.94
556.66	28739.44
556.83	28638.80
556.99	28861.15
557.16	28720.71
557.32	28741.78
557.49	28479.64
557.65	28484.32
557.82	28439.85
557.98	28084.09
558.15	28648.16
558.32	28638.80
558.48	28650.50
558.65	28875.19
558.81	28687.95
558.98	28690.29
559.14	28797.95
559.31	28716.03
559.47	28982.85
559.64	28779.23
559.80	28877.53
559.97	28814.34
560.13	28603.69
560.30	29165.42
560.46	29106.90
560.63	29156.05
560.79	28978.17
560.96	28950.09
561.12	28734.76
561.29	28507.72
561.45	29055.41
561.61	28884.55
561.78	28517.09
561.94	28964.13
562.11	29277.76
562.27	29151.37
562.44	29406.49
562.60	28788.59
562.77	29013.28
562.93	29214.57
563.10	29565.65
563.26	28886.89
563.42	29507.13
563.59	29181.80
563.75	29343.30
563.92	29275.42
564.08	28765.18
564.24	28769.86
564.41	29125.63
564.57	29209.89
564.74	29160.73
564.90	29462.66
565.07	29387.77
565.23	29233.29
565.39	29549.26
565.56	29509.47
565.72	29549.26
565.88	29261.38
566.05	29280.10
566.21	29125.63
566.38	29366.70
566.54	29713.10
566.70	29385.43
566.87	29769.27
567.03	29432.24
567.19	29289.46
567.36	28973.49
567.52	29598.41
567.68	29195.84
567.85	28996.90
568.01	29418.19
568.17	29579.69
568.34	29483.73
568.50	29455.64
568.66	29530.54
568.83	29659.27
568.99	29401.81
569.15	29544.58
569.32	29399.47
569.48	29254.36
569.64	29593.73
569.81	29661.61
569.97	29652.25
570.13	29462.66
570.30	29874.60
570.46	29441.60
570.62	29628.84
570.78	29219.25
570.95	29830.13
571.11	29472.03
571.27	29427.56
571.43	29261.38
571.60	29521.18
571.76	29694.38
571.92	29986.94
572.09	29759.91
572.25	29584.37
572.41	29626.50
572.57	29954.18
572.74	29586.71
572.90	29553.94
573.06	29057.75
573.22	29792.68
573.38	30089.93
573.55	29619.48
573.71	29783.32
573.87	29612.46
574.03	29848.85
574.20	29673.31
574.36	29570.33
574.52	29457.98
574.68	29633.52
574.84	29642.88
575.01	29724.80
575.17	29769.27
575.33	29986.94
575.49	29773.95
575.65	30176.53
575.82	29788.00
575.98	29692.04
576.14	29720.12
576.30	29832.47
576.46	29769.27
576.62	29635.86
576.79	29858.21
576.95	29528.20
577.11	29869.92
577.27	29963.54
577.43	29797.36
577.59	29855.87
577.75	29645.23
577.92	29947.15
578.08	29982.26
578.24	30061.84
578.40	29542.24
578.56	29874.60
578.72	30033.75
578.88	29776.30
579.04	29923.75
579.21	29858.21
579.37	30115.67
579.53	30300.58
579.69	29603.10
579.85	29717.78
580.01	29539.90
580.17	29811.40
580.33	29745.87
580.49	30394.20
580.65	29963.54
580.82	29841.83
580.98	29685.01
581.14	30272.49
581.30	29984.60
581.46	29830.13
581.62	29764.59
581.78	29628.84
581.94	30073.54
582.10	30230.36
582.26	29872.26
582.42	29862.90
582.58	30359.09
582.74	29862.90
582.90	30195.25
583.06	29797.36
583.22	29806.72
583.38	29811.40
583.54	30228.02
583.70	29912.05
583.86	30256.11
584.02	29764.59
584.18	29968.22
584.34	30319.30
584.50	30040.78
584.66	30019.71
584.82	30026.73
584.98	30043.12
585.14	29888.64
585.30	29614.80
585.46	30003.33
585.62	29603.10
585.78	30169.51
585.94	30171.85
586.10	30211.64
586.26	30309.94
586.42	30375.47
586.58	29926.09
586.74	30590.80
586.90	29577.35
587.06	30118.01
587.22	30185.89
587.38	29706.08
587.54	30176.53
587.70	30218.66
587.86	30043.12
588.02	30221.00
588.18	30536.97
588.34	30457.39
588.49	30295.89
588.65	30164.82
588.81	30122.69
588.97	30136.74
589.13	30202.27
589.29	30192.91
589.45	30293.55
589.61	30644.63
589.77	30583.78
589.93	30529.95
590.08	30590.80
590.24	30780.39
590.40	30668.04
590.56	30572.08
590.72	30422.28
590.88	30375.47
591.04	30057.16
591.20	30869.33
591.35	30642.29
591.51	30679.74
591.67	30771.02
591.83	31007.42
591.99	30473.78
592.15	30796.77
592.31	30567.40
592.46	30221.00
592.62	30342.70
592.78	30148.44
592.94	30405.90
593.10	30548.67
593.26	30534.63
593.41	30661.02
593.57	30244.40
593.73	30485.48
593.89	30389.52
594.05	30307.60
594.20	30656.34
594.36	30148.44
594.52	30295.89
594.68	30511.22
594.84	30235.04
594.99	30616.55
595.15	30595.48
595.31	31072.95
595.47	30810.81
595.62	30815.49
595.78	30745.28
595.94	30583.78
596.10	30518.25
596.25	30221.00
596.41	30422.28
596.57	30305.26
596.73	30677.40
596.88	30506.54
597.04	30600.16
597.20	30684.42
597.36	30813.15
597.51	31061.25
597.67	30691.44
597.83	30190.57
597.99	31028.48
598.14	30429.30
598.30	30307.60
598.46	30726.55
598.61	30679.74
598.77	30546.33
598.93	31117.42
599.09	30801.45
599.24	30916.14
599.40	30590.80
599.56	30932.52
599.71	30698.47
599.87	30787.41
600.03	30630.59
600.18	30581.44
600.34	30438.67
600.50	30490.16
600.65	30803.79
600.81	30600.16
600.97	30752.30
601.12	31220.41
601.28	30869.33
601.44	30850.60
601.59	30649.32
601.75	30359.09
601.91	30808.47
602.06	30717.19
602.22	30911.46
602.37	30087.59
602.53	30639.95
602.69	30773.36
602.84	30532.29
603.00	30548.67
603.16	30686.76
603.31	30670.38
603.47	30820.17
603.62	30738.26
603.78	30654.00
603.94	30707.83
604.09	30572.08
604.25	30555.69
604.40	30796.77
604.56	30768.68
604.71	30941.88
604.87	30576.76
605.03	30618.89
605.18	30536.97
605.34	30813.15
605.49	30181.21
605.65	30609.53
605.80	30115.67
605.96	30630.59
606.12	30211.64
606.27	30639.95
606.43	30548.67
606.58	30806.13
606.74	30639.95
606.89	30185.89
607.05	30974.65
607.20	30625.91
607.36	30452.71
607.51	30548.67
607.67	30471.43
607.82	30366.11
607.98	30480.80
608.13	30401.22
608.29	30396.54
608.44	30232.70
608.60	30174.19
608.75	30363.77
608.91	30314.62
609.06	30394.20
609.22	30466.75
609.37	30281.85
609.53	30401.22
609.68	30338.02
609.84	30466.75
609.99	30209.29
610.15	30272.49
610.30	30672.72
610.46	30242.06
610.61	30415.26
610.76	30061.84
610.92	30539.31
611.07	30506.54
611.23	30221.00
611.38	30246.74
611.54	30134.40
611.69	30356.75
611.84	30132.06
612.00	29706.08
612.15	29827.79
612.31	30462.07
612.46	30066.52
612.62	30249.08
612.77	30242.06
612.92	30249.08
613.08	30033.75
613.23	30190.57
613.39	30169.51
613.54	29769.27
613.69	29834.81
613.85	30155.46
614.00	29666.29
614.15	30206.95
614.31	29956.52
614.46	30426.96
614.62	29993.97
614.77	30438.67
614.92	30073.54
615.08	29675.65
615.23	29748.21
615.38	29788.00
615.54	30263.13
615.69	29638.20
615.84	29474.37
616.00	29579.69
616.15	29504.79
616.30	29947.15
616.46	29858.21
616.61	29900.34
616.76	30323.98
616.92	29701.40
617.07	30061.84
617.22	29827.79
617.37	29467.34
617.53	29736.51
617.68	30244.40
617.83	29769.27
617.99	29397.13
618.14	29612.46
618.29	29560.97
618.45	29947.15
618.60	30167.16
618.75	29600.76
618.90	29516.50
619.06	29694.38
619.21	29701.40
619.36	29663.95
619.51	29582.03
619.67	29097.54
619.82	29488.41
619.97	29715.44
620.12	29207.55
620.28	29139.67
620.43	29867.58
620.58	29465.00
620.73	29675.65
620.89	29628.84
621.04	29603.10
621.19	29443.94
621.34	29488.41
621.49	29319.89
621.65	29039.03
621.80	29240.31
621.95	29422.87
622.10	29291.80
622.25	29266.06
622.41	29008.60
622.56	29202.86
622.71	29195.84
622.86	28809.65
623.01	29177.12
623.16	29174.78
623.32	28840.08
623.47	29158.39
623.62	29261.38
623.77	29191.16
623.92	29237.97
624.07	28786.25
624.23	28914.98
624.38	29099.88
624.53	29624.16
624.68	29460.32
624.83	28893.91
624.98	29069.45
625.13	28961.79
625.29	29275.42
625.44	28790.93
625.59	28837.74
625.74	28547.51
625.89	29184.14
626.04	28643.48
626.19	28882.21
626.34	28636.45
626.49	28606.03
626.65	28795.61
626.80	28973.49
626.95	28900.94
627.10	28666.88
627.25	28978.17
627.40	28819.02
627.55	28369.63
627.70	28243.24
627.85	28554.54
628.00	28629.43
628.15	28723.05
628.30	28477.30
628.45	28751.14
628.60	28519.43
628.76	28713.69
628.91	28517.09
629.06	28489.00
629.21	28407.08
629.36	28350.91
629.51	28489.00
629.66	28624.75
629.81	28547.51
629.96	28144.94
630.11	28439.85
630.26	28250.27
630.41	28409.42
630.56	28236.22
630.71	28451.55
630.86	28329.84
631.01	28484.32
631.16	28402.40
631.31	28423.47
631.46	27948.34
631.61	28542.83
631.76	28418.78
631.91	28091.11
632.06	27819.61
632.21	28458.57
632.36	27896.85
632.51	27421.72
632.66	27873.44
632.81	28004.51
632.96	28268.99
633.10	28395.38
633.25	28109.83
633.40	28006.85
633.55	28231.54
633.70	28030.26
633.85	27655.77
634.00	27969.40
634.15	27555.13
634.30	27899.19
634.45	27852.38
634.60	27943.66
634.75	27931.95
634.90	27686.20
635.05	27910.89
635.19	27892.16
635.34	28102.81
635.49	28226.86
635.64	27880.46
635.79	27763.43
635.94	27931.95
636.09	27714.28
636.24	27452.14
636.39	27475.55
636.53	27821.95
636.68	27112.77
636.83	27672.15
636.98	27744.71
637.13	27358.52
637.28	27665.13
637.43	27742.37
637.57	27723.65
637.72	27709.60
637.87	27255.54
638.02	27548.11
638.17	27550.45
638.32	27323.41
638.46	27241.50
638.61	27281.28
638.76	27271.92
638.91	27267.24
639.06	27388.95
639.20	27269.58
639.35	27513.00
639.50	27307.03
639.65	27421.72
639.80	27601.94
639.94	27199.37
640.09	27278.94
640.24	27381.93
640.39	27178.30
640.54	27257.88
640.68	27168.94
640.83	27136.17
640.98	26831.90
641.13	27173.62
641.27	27185.32
641.42	26925.52
641.57	27014.46
641.72	27213.41
641.86	27040.21
642.01	26871.69
642.16	27000.42
642.31	26787.43
642.45	26916.16
642.60	26733.60
642.75	26649.34
642.90	26635.30
643.04	26824.88
643.19	26836.58
643.34	26506.57
643.48	26972.33
643.63	27016.80
643.78	26885.73
643.93	26654.02
644.07	27047.23
644.22	26867.01
644.37	26939.57
644.51	26644.66
644.66	26721.90
644.81	26345.07
644.95	26618.91
645.10	26534.65
645.25	26525.29
645.39	26661.04
645.54	26621.25
645.69	26586.15
645.83	26721.90
645.98	26501.89
646.13	26731.26
646.27	26579.12
646.42	26541.68
646.57	26499.55
646.71	26541.68
646.86	26759.34
647.00	26450.39
647.15	26548.70
647.30	26520.61
647.44	26389.54
647.59	26263.15
647.74	26246.77
647.88	26593.17
648.03	26600.19
648.17	26623.59
648.32	26525.29
648.47	26511.25
648.61	26419.97
648.76	26525.29
648.90	26169.53
649.05	26331.03
649.20	26305.28
649.34	26150.81
649.49	25963.56
649.63	26005.69
649.78	26171.87
649.92	26225.70
650.07	26558.06
650.21	25975.27
650.36	26068.89
650.51	26005.69
650.65	25752.91
650.80	26185.91
650.94	26176.55
651.09	26120.38
651.23	25766.96
651.38	25652.27
651.52	25724.83
651.67	26115.70
651.81	26134.42
651.96	26040.80
652.10	25855.90
652.25	25486.09
652.39	26153.15
652.54	25565.67
652.68	25986.97
652.83	25799.73
652.97	26366.13
653.12	25731.85
653.26	25806.75
653.41	25855.90
653.55	25685.04
653.70	25846.54
653.84	25708.44
653.99	25713.13
654.13	25701.42
654.27	25722.49
654.42	25614.82
654.56	25516.52
654.71	25795.04
654.85	25991.65
655.00	25762.28
655.14	25612.48
655.29	25851.22
655.43	25549.29
655.57	25738.87
655.72	25348.00
655.86	25680.36
656.01	25556.31
656.15	25678.02
656.30	25436.94
656.44	25055.43
656.58	25118.63
656.73	25610.14
656.87	25284.81
657.01	25205.23
657.16	25479.07
657.30	25406.52
657.45	25270.76
657.59	25273.10
657.73	25397.15
657.88	25315.23
658.02	25193.53
658.16	25067.14
658.31	25123.31
658.45	25256.72
658.60	24807.34
658.74	24774.57
658.88	24959.47
659.03	24936.07
659.17	25074.16
659.31	25294.17
659.46	24982.88
659.60	25167.78
659.74	25172.46
659.89	24809.68
660.03	24549.88
660.17	24683.29
660.32	24772.23
660.46	24783.93
660.60	24805.00
660.74	24332.21
660.89	24650.52
661.03	24613.07
661.17	24748.82
661.32	24678.61
661.46	24477.32
661.60	24350.93
661.74	24489.03
661.89	24386.04
662.03	24601.37
662.17	24528.81
662.31	24465.62
662.46	24400.08
662.60	24442.21
662.74	24107.52
662.88	24294.76
663.03	24032.62
663.17	23981.13
663.31	23536.43
663.45	23770.48
663.60	24067.73
663.74	23763.46
663.88	23798.57
664.02	23775.16
664.17	24140.29
664.31	24009.22
664.45	24252.63
664.59	23824.31
664.73	23616.01
664.88	23807.93
665.02	23321.10
665.16	23639.41
665.30	23555.15
665.44	23559.83
665.59	23695.58
665.73	23658.14
665.87	23564.51
666.01	23625.37
666.15	23625.37
666.29	23323.44
666.44	23391.31
666.58	23346.84
666.72	23424.08
666.86	23506.00
667.00	23405.36
667.14	23288.33
667.28	23126.83
667.43	23119.81
667.57	23049.60
667.71	22981.72
667.85	23473.23
667.99	22965.34
668.13	22602.55
668.27	22766.39
668.41	22827.24
668.56	23101.09
668.70	22780.43
668.84	22897.46
668.98	23133.86
669.12	22808.52
669.26	22703.20
669.40	22841.29
669.54	22511.27
669.68	23065.98
669.82	22419.99
669.96	22768.73
670.10	22480.85
670.25	22742.99
670.39	22396.59
670.53	22321.69
670.67	22490.21
670.81	22483.19
670.95	22291.26
671.09	22551.06
671.23	22101.68
671.37	22097.00
671.51	22607.23
671.65	22363.82
671.79	22221.05
671.93	22230.41
672.07	22071.25
672.21	21956.57
672.35	22178.92
672.49	21678.04
672.63	21806.77
672.77	21544.63
672.91	21549.31
673.05	21951.88
673.19	22089.98
673.33	21589.10
673.47	21649.96
673.61	21820.81
673.75	21778.68
673.89	21355.05
674.03	21699.11
674.17	21188.87
674.31	21525.91
674.45	21652.30
674.59	21366.75
674.73	21151.42
674.87	21348.03
675.01	21085.89
675.15	21132.70
675.29	20697.36
675.43	20961.84
675.56	21022.69
675.70	20954.82
675.84	21022.69
675.98	20091.16
676.12	20973.54
676.26	21319.94
676.40	20650.55
676.54	20690.34
676.68	20552.24
676.82	20159.03
676.96	20365.00
677.10	20404.79
677.23	20475.01
677.37	20292.44
677.51	20121.59
677.65	20121.59
677.79	20079.46
677.93	19868.81
678.07	20063.07
678.21	19829.02
678.34	19934.34
678.48	19789.23
678.62	19922.64
678.76	19744.76
678.90	19470.92
679.04	19700.29
679.18	19283.67
679.31	19494.32
679.45	19417.08
679.59	19377.30
679.73	19098.77
679.87	19063.66
680.00	18984.09
680.14	18927.91
680.28	19087.07
680.42	19094.09
680.56	19227.50
680.70	19119.84
680.83	19051.96
680.97	19185.37
681.11	18888.12
681.25	18956.00
681.39	18857.70
681.52	18616.62
681.66	18714.92
681.80	18628.32
681.94	18438.74
682.07	18501.93
682.21	18607.26
682.35	18427.04
682.49	18298.31
682.62	18157.88
682.76	18129.79
682.90	17926.16
683.04	17994.04
683.17	18097.02
683.31	18314.69
683.45	18040.85
683.59	18040.85
683.72	18059.57
683.86	17855.95
684.00	17951.91
684.13	17462.74
684.27	17270.81
684.41	17525.93
684.55	17703.81
684.68	17488.48
684.82	17516.57
684.96	17179.53
685.09	17556.36
685.23	17069.53
685.37	17050.80
685.50	17366.78
685.64	17418.27
685.78	16954.84
685.91	17184.21
686.05	17268.47
686.19	16982.93
686.32	16926.75
686.46	16449.28
686.60	16397.79
686.73	16793.34
686.87	16458.65
687.01	16416.52
687.14	16418.86
687.28	16390.77
687.42	16301.83
687.55	16175.44
687.69	16297.15
687.82	16252.68
687.96	16205.87
688.10	16147.36
688.23	15812.66
688.37	15976.50
688.50	15950.75
688.64	16201.19
688.78	15927.35
688.91	15852.45
689.05	16035.01
689.18	15807.98
689.32	15398.38
689.46	15323.49
689.59	15728.40
689.73	15398.38
689.86	15255.61
690.00	15342.21
690.13	15346.89
690.27	15276.68
690.41	15325.83
690.54	15136.24
690.68	15197.10
690.81	14925.60
690.95	15171.35
691.08	15269.66
691.22	15133.90
691.35	14979.43
691.49	15000.49
691.62	14817.93
691.76	14443.45
691.89	14747.72
692.03	14530.05
692.16	14326.42
692.30	14548.77
692.43	14401.32
692.57	14314.72
692.70	14183.65
692.84	14256.20
692.97	14174.28
693.11	14101.73
693.24	14157.90
693.38	13921.51
693.51	14305.35
693.65	14141.52
693.78	14029.17
693.92	13692.13
694.05	13944.91
694.19	13839.59
694.32	13647.66
694.45	13720.22
694.59	13502.55
694.72	13404.25
694.86	13310.63
694.99	13240.41
695.13	13287.22
695.26	13364.46
695.39	13139.77
695.53	13521.27
695.66	13228.71
695.80	12985.29
695.93	13256.79
696.07	13055.51
696.20	13095.30
696.33	12938.48
696.47	12730.17
696.60	12952.52
696.73	12734.85
696.87	13015.72
697.00	12713.79
697.14	12601.44
697.27	12559.31
697.40	12449.31
697.54	12697.41
697.67	12353.35
697.80	12458.67
697.94	12219.94
698.07	12318.24
698.21	12149.72
698.34	12294.83
698.47	12339.30
698.61	12131.00
698.74	12081.85
698.87	12105.25
699.01	11908.65
699.14	11808.00
699.27	11962.48
699.40	11700.34
699.54	11859.49
699.67	11676.93
699.80	11669.91
699.94	11742.47
700.07	11573.95
700.20	11405.43
700.34	11365.64
700.47	11239.25
700.60	11440.54
700.73	11372.66
700.87	11157.33
701.00	11344.58
701.13	11124.57
701.26	10942.00
701.40	11300.11
701.53	11002.86
701.66	11192.44
701.79	10864.77
701.93	10827.32
702.06	10855.40
702.19	10567.52
702.32	10661.14
702.46	10705.61
702.59	10513.69
702.72	10497.30
702.85	10537.09
702.99	10349.85
703.12	10370.91
703.25	10377.94
703.38	10424.75
703.51	10401.34
703.65	10340.49
703.78	10317.08
703.91	10087.71
704.04	10572.20
704.17	10260.91
704.31	10106.43
704.44	9823.23
704.57	9984.73
704.70	9715.56
704.83	9666.41
704.96	9837.27
705.10	9743.65
705.23	9865.36
>>>>>End Processed Spectral Data<<<<<
