SpectraSuite Data File
++++++++++++++++++++++++++++++++++++
Date: Fri Oct 18 13:58:12 GMT-05:00 2013
User: bianchi
Dark Spectrum Present: No
Reference Spectrum Present: No
Number of Sampled Component Spectra: 1
Spectrometers: USB2+H05261
Integration Time (usec): 50000 (USB2+H05261)
Spectra Averaged: 1 (USB2+H05261)
Boxcar Smoothing: 0 (USB2+H05261)
Correct for Electrical Dark: No (USB2+H05261)
Strobe/Lamp Enabled: No (USB2+H05261)
Correct for Detector Non-linearity: No (USB2+H05261)
Correct for Stray Light: No (USB2+H05261)
Number of Pixels in Processed Spectrum: 2048
>>>>>Begin Processed Spectral Data<<<<<
365.73	0.00
365.92	0.00
366.12	0.00
366.32	0.00
366.52	0.00
366.72	0.00
366.91	0.00
367.11	0.00
367.31	0.00
367.51	0.00
367.70	0.00
367.90	0.00
368.10	0.00
368.30	0.00
368.49	0.00
368.69	0.00
368.89	0.00
369.09	0.00
369.28	0.00
369.48	0.00
369.68	0.00
369.87	0.00
370.07	0.00
370.27	0.00
370.47	0.00
370.66	105.32
370.86	110.01
371.06	231.71
371.25	159.16
371.45	79.58
371.65	198.95
371.84	184.90
372.04	224.69
372.24	128.73
372.44	184.90
372.63	152.13
372.83	163.84
373.03	191.92
373.22	222.35
373.42	220.01
373.62	175.54
373.81	234.05
374.01	182.56
374.21	273.84
374.40	238.73
374.60	215.33
374.79	252.78
374.99	152.13
375.19	234.05
375.38	269.16
375.58	248.10
375.78	173.20
375.97	227.03
376.17	271.50
376.37	177.88
376.56	252.78
376.76	276.18
376.95	163.84
377.15	280.86
377.35	348.74
377.54	236.39
377.74	306.61
377.93	220.01
378.13	224.69
378.33	294.91
378.52	215.33
378.72	294.91
378.91	327.68
379.11	311.29
379.31	276.18
379.50	241.08
379.70	334.70
379.89	358.10
380.09	304.27
380.28	241.08
380.48	276.18
380.68	269.16
380.87	341.72
381.07	304.27
381.26	334.70
381.46	264.48
381.65	393.21
381.85	381.51
382.04	325.33
382.24	355.76
382.43	362.78
382.63	283.20
382.83	346.40
383.02	390.87
383.22	433.00
383.41	341.72
383.61	461.09
383.80	360.44
384.00	346.40
384.19	341.72
384.39	374.49
384.58	334.70
384.78	517.26
384.97	351.08
385.17	442.36
385.36	348.74
385.56	376.83
385.75	320.65
385.95	390.87
386.14	355.76
386.34	360.44
386.53	423.64
386.72	435.34
386.92	423.64
387.11	503.22
387.31	367.46
387.50	374.49
387.70	369.80
387.89	531.30
388.09	435.34
388.28	414.27
388.48	374.49
388.67	456.40
388.86	493.85
389.06	465.77
389.25	489.17
389.45	503.22
389.64	444.70
389.84	458.74
390.03	423.64
390.22	540.66
390.42	500.87
390.61	482.15
390.81	440.02
391.00	512.58
391.19	528.96
391.39	543.00
391.58	507.90
391.78	524.28
391.97	589.82
392.16	550.03
392.36	596.84
392.55	486.83
392.75	486.83
392.94	482.15
393.13	543.00
393.33	582.79
393.52	545.34
393.71	655.35
393.91	458.74
394.10	540.66
394.29	566.41
394.49	568.75
394.68	580.45
394.88	559.39
395.07	610.88
395.26	606.20
395.46	610.88
395.65	620.24
395.84	660.03
396.04	650.67
396.23	650.67
396.42	681.10
396.62	821.53
396.81	650.67
397.00	676.41
397.19	674.07
397.39	683.44
397.58	706.84
397.77	690.46
397.97	744.29
398.16	699.82
398.35	699.82
398.55	704.50
398.74	812.17
398.93	812.17
399.12	730.25
399.32	760.67
399.51	784.08
399.70	791.10
399.90	770.04
400.09	786.42
400.28	725.57
400.47	786.42
400.67	840.25
400.86	877.70
401.05	760.67
401.24	861.32
401.44	837.91
401.63	835.57
401.82	812.17
402.01	795.78
402.21	849.61
402.40	873.02
402.59	837.91
402.78	793.44
402.97	798.12
403.17	875.36
403.36	901.11
403.55	877.70
403.74	788.76
403.93	908.13
404.13	940.90
404.32	882.38
404.51	978.34
404.70	779.40
404.89	992.39
405.09	1027.50
405.28	968.98
405.47	1011.11
405.66	1001.75
405.85	959.62
406.05	884.72
406.24	1004.09
406.43	1060.26
406.62	1064.94
406.81	1163.25
407.00	1076.65
407.20	1071.97
407.39	1001.75
407.58	1081.33
407.77	1153.88
407.96	1048.56
408.15	1060.26
408.34	954.94
408.54	1090.69
408.73	1137.50
408.92	1198.35
409.11	1093.03
409.30	1184.31
409.49	1146.86
409.68	1156.22
409.87	1071.97
410.07	1181.97
410.26	1170.27
410.45	1219.42
410.64	1224.10
410.83	1390.28
411.02	1245.16
411.21	1387.94
411.40	1242.82
411.59	1334.11
411.78	1247.51
411.98	1240.48
412.17	1268.57
412.36	1327.08
412.55	1409.00
412.74	1397.30
412.93	1430.07
413.12	1385.60
413.31	1507.30
413.50	1448.79
413.69	1385.60
413.88	1397.30
414.07	1387.94
414.26	1500.28
414.45	1394.96
414.64	1455.81
414.83	1432.41
415.02	1507.30
415.22	1584.54
415.41	1577.52
415.60	1561.14
415.79	1610.29
415.98	1626.67
416.17	1565.82
416.36	1645.40
416.55	1638.38
416.74	1671.14
416.93	1612.63
417.12	1680.50
417.31	1643.06
417.50	1678.16
417.69	1713.27
417.88	1806.89
418.07	1643.06
418.26	1797.53
418.45	1743.70
418.64	1804.55
418.83	1884.13
419.02	1769.44
419.21	1872.43
419.39	1858.39
419.58	1870.09
419.77	1792.85
419.96	1909.88
420.15	1870.09
420.34	2045.63
420.53	1963.71
420.72	1806.89
420.91	1877.11
421.10	1891.15
421.29	2045.63
421.48	1975.41
421.67	1954.35
421.86	1961.37
422.05	1909.88
422.24	1989.46
422.43	2078.40
422.61	2045.63
422.80	2085.42
422.99	1952.01
423.18	1907.54
423.37	2101.80
423.56	2062.01
423.75	2101.80
423.94	1982.43
424.13	1891.15
424.32	1956.69
424.50	2104.14
424.69	2066.69
424.88	2090.10
425.07	2174.36
425.26	2062.01
425.45	2003.50
425.64	2008.18
425.83	2047.97
426.01	2169.68
426.20	2092.44
426.39	2062.01
426.58	2122.87
426.77	1968.39
426.96	2188.40
427.15	2143.93
427.33	2209.47
427.52	2101.80
427.71	2076.06
427.90	2134.57
428.09	2230.53
428.28	2157.97
428.46	2165.00
428.65	2165.00
428.84	2289.04
429.03	2244.57
429.22	2195.42
429.40	2417.77
429.59	2256.28
429.78	2260.96
429.97	2197.76
430.16	2211.81
430.34	2211.81
430.53	2331.17
430.72	2326.49
430.91	2317.13
431.10	2286.70
431.28	2410.75
431.47	2307.77
431.66	2487.99
431.85	2356.92
432.03	2457.56
432.22	2466.92
432.41	2427.14
432.60	2441.18
432.79	2452.88
432.97	2363.94
433.16	2574.59
433.35	2333.51
433.54	2555.86
433.72	2581.61
433.91	2403.73
434.10	2532.46
434.28	2555.86
434.47	2583.95
434.66	2649.49
434.85	2691.62
435.03	2684.59
435.22	2635.44
435.41	2637.78
435.59	2670.55
435.78	2597.99
435.97	2717.36
436.16	2654.17
436.34	2736.09
436.53	2700.98
436.72	2871.84
436.90	2705.66
437.09	2712.68
437.28	2761.83
437.46	2874.18
437.65	2789.92
437.84	2815.66
438.02	2841.41
438.21	2911.63
438.40	2731.41
438.58	2970.14
438.77	2869.50
438.96	2890.56
439.14	3012.27
439.33	3005.25
439.52	3028.65
439.70	3026.31
439.89	3126.96
440.08	3035.67
440.26	2988.86
440.45	3105.89
440.63	3171.43
440.82	3180.79
441.01	3105.89
441.19	3157.38
441.38	3023.97
441.57	3187.81
441.75	3286.11
441.94	3239.30
442.12	3197.17
442.31	3358.67
442.50	3375.05
442.68	3398.46
442.87	3286.11
443.05	3344.63
443.24	3438.25
443.43	3358.67
443.61	3391.44
443.80	3485.06
443.98	3342.28
444.17	3290.79
444.35	3440.59
444.54	3536.55
444.73	3473.36
444.91	3449.95
445.10	3377.39
445.28	3496.76
445.47	3452.29
445.65	3475.70
445.84	3559.95
446.02	3688.68
446.21	3353.99
446.39	3501.44
446.58	3559.95
446.77	3447.61
446.95	3480.38
447.14	3559.95
447.32	3592.72
447.51	3620.81
447.69	3382.07
447.88	3630.17
448.06	3627.83
448.25	3545.91
448.43	3569.32
448.62	3662.94
448.80	3559.95
448.99	3590.38
449.17	3721.45
449.36	3599.74
449.54	3721.45
449.73	3726.13
449.91	3812.73
450.10	3742.52
450.28	3684.00
450.46	3618.47
450.65	3707.41
450.83	3789.33
451.02	3817.41
451.20	3772.94
451.39	3868.91
451.57	3695.71
451.76	3789.33
451.94	3772.94
452.13	3932.10
452.31	3934.44
452.49	3873.59
452.68	3915.72
452.86	3899.33
453.05	4081.89
453.23	3929.76
453.42	3852.52
453.60	3934.44
453.78	3976.57
453.97	4070.19
454.15	3988.27
454.34	3932.10
454.52	3873.59
454.70	4205.94
454.89	3953.16
455.07	4156.79
455.26	4032.74
455.44	4056.15
455.62	4056.15
455.81	4039.76
455.99	4264.46
456.17	4184.88
456.36	4177.86
456.54	4212.96
456.73	4329.99
456.91	4447.02
457.09	4234.03
457.28	4461.06
457.46	4379.14
457.64	4479.79
457.83	4421.27
458.01	4329.99
458.19	4451.70
458.38	4351.06
458.56	4528.94
458.74	4533.62
458.93	4524.26
459.11	4493.83
459.29	4365.10
459.48	4475.10
459.66	4617.88
459.84	4587.45
460.03	4655.33
460.21	4638.94
460.39	4535.96
460.57	4561.70
460.76	4535.96
460.94	4781.71
461.12	4704.48
461.31	4800.44
461.49	4779.37
461.67	4730.22
461.85	4938.53
462.04	4744.27
462.22	5085.98
462.40	4858.95
462.59	4835.55
462.77	4741.93
462.95	4940.87
463.13	4798.10
463.32	4992.36
463.50	4868.31
463.68	4842.57
463.86	4954.91
464.05	4938.53
464.23	4903.42
464.41	4992.36
464.59	4924.49
464.78	5130.45
464.96	5020.45
465.14	4961.94
465.32	5041.51
465.50	5275.57
465.69	5144.50
465.87	4922.15
466.05	5048.54
466.23	5020.45
466.41	5039.17
466.60	5221.74
466.78	5137.48
466.96	5142.16
467.14	5090.67
467.32	5097.69
467.51	5181.95
467.69	5114.07
467.87	5352.81
468.05	5219.39
468.23	5240.46
468.41	5242.80
468.60	5275.57
468.78	5338.76
468.96	5200.67
469.14	5399.62
469.32	5273.23
469.50	5263.86
469.69	5413.66
469.87	5579.84
470.05	5406.64
470.23	5462.81
470.41	5423.02
470.59	5563.45
470.77	5540.05
470.95	5582.18
471.14	5636.01
471.32	5444.09
471.50	5792.83
471.68	5757.72
471.86	5724.95
472.04	5556.43
472.22	5799.85
472.40	5788.14
472.58	5701.54
472.77	5846.66
472.95	5846.66
473.13	6073.69
473.31	5832.62
473.49	5788.14
473.67	5912.19
473.85	5991.77
474.03	6071.35
474.21	6104.12
474.39	6186.04
474.57	6296.04
474.75	6345.19
474.93	6265.61
475.12	6195.40
475.30	6296.04
475.48	6293.70
475.66	6282.00
475.84	6438.81
476.02	6406.05
476.20	6586.27
476.38	6499.67
476.56	6640.10
476.74	6623.72
476.92	6520.73
477.10	6567.54
477.28	6647.12
477.46	6836.70
477.64	6810.96
477.82	6878.83
478.00	6920.96
478.18	6789.89
478.36	7148.00
478.54	7131.61
478.72	7047.35
478.90	7183.10
479.08	7353.96
479.26	7225.23
479.44	7508.44
479.62	7410.14
479.80	7637.17
479.98	7604.40
480.16	7672.28
480.34	7576.31
480.52	7571.63
480.70	7798.66
480.88	7765.90
481.06	7833.77
481.24	7761.22
481.41	7892.29
481.59	8011.65
481.77	8273.79
481.95	8311.24
482.13	8140.38
482.31	8248.05
482.49	8175.49
482.67	8367.42
482.85	8573.38
483.03	8685.73
483.21	8648.28
483.39	8655.30
483.57	8725.52
483.74	8844.88
483.92	8961.91
484.10	8830.84
484.28	9071.92
484.46	9071.92
484.64	9247.46
484.82	9078.94
485.00	9083.62
485.18	9383.21
485.35	9460.45
485.53	9502.58
485.71	9628.96
485.89	9699.18
486.07	9626.62
486.25	9710.88
486.43	9792.80
486.61	9769.40
486.78	10148.56
486.96	10125.16
487.14	10321.76
487.32	10244.52
487.50	10450.49
487.68	10251.55
487.85	10469.22
488.03	10663.48
488.21	10736.04
488.39	10740.72
488.57	10817.96
488.75	10988.82
488.92	10855.40
489.10	11187.76
489.28	11337.56
489.46	11239.25
489.64	11187.76
489.81	11606.72
489.99	11421.81
490.17	11321.17
490.35	11634.80
490.53	11992.90
490.70	11922.69
490.88	11808.00
491.06	11861.84
491.24	11892.26
491.41	12046.74
491.59	12156.74
491.77	12273.77
491.95	12175.47
492.13	12248.02
492.30	12533.57
492.48	12336.96
492.66	12592.08
492.84	12674.00
493.01	12678.68
493.19	12858.90
493.37	12901.03
493.54	12910.40
493.72	12812.09
493.90	13074.23
494.08	13198.28
494.25	13074.23
494.43	13247.43
494.61	13612.56
494.79	13380.84
494.96	13387.86
495.14	13912.14
495.32	13884.06
495.49	13947.25
495.67	13961.30
495.85	13839.59
496.02	13797.46
496.20	13956.61
496.38	14106.41
496.55	14118.11
496.73	14546.43
496.91	14178.97
497.09	14288.97
497.26	14546.43
497.44	14471.53
497.62	14696.22
497.79	14764.10
497.97	15112.84
498.14	15030.92
498.32	15183.06
498.50	15002.83
498.67	15075.39
498.85	15227.53
499.03	15377.32
499.20	15276.68
499.38	15461.58
499.56	15658.18
499.73	15363.28
499.91	15737.76
500.08	15627.76
500.26	15613.71
500.44	15704.99
500.61	15791.59
500.79	15880.53
500.97	16023.31
501.14	16187.14
501.32	15882.88
501.49	15955.43
501.67	15915.64
501.84	16154.38
502.02	16376.73
502.20	16372.05
502.37	16245.66
502.55	16311.19
502.72	16453.97
502.90	16472.69
503.07	16350.98
503.25	16531.20
503.43	16505.46
503.60	16746.53
503.78	16809.73
503.95	16854.20
504.13	16978.25
504.30	16812.07
504.48	16837.81
504.65	16978.25
504.83	17247.41
505.01	17376.14
505.18	16989.95
505.36	17291.88
505.53	17139.74
505.71	17446.35
505.88	17453.37
506.06	17085.91
506.23	17675.73
506.41	17572.74
506.58	17511.89
506.76	17694.45
506.93	17561.04
507.11	17685.09
507.28	17570.40
507.46	17916.80
507.63	18022.12
507.81	17989.36
507.98	18200.01
508.16	17991.70
508.33	18431.72
508.50	18270.22
508.68	18511.30
508.85	18387.25
509.03	18534.70
509.20	18260.86
509.38	18530.02
509.55	18775.78
509.73	18682.16
509.90	18843.65
510.08	18593.22
510.25	18663.43
510.42	18876.42
510.60	18979.40
510.77	19080.05
510.95	19077.71
511.12	18705.56
511.30	19152.60
511.47	19222.82
511.64	19103.45
511.82	19168.99
511.99	19510.71
512.17	19281.33
512.34	19400.70
512.51	19463.90
512.69	19604.33
512.86	19400.70
513.04	19967.11
513.21	19583.26
513.38	19939.02
513.56	19946.05
513.73	19906.26
513.90	19796.25
514.08	19997.54
514.25	19917.96
514.43	19866.47
514.60	20273.72
514.77	20114.56
514.95	20243.29
515.12	20322.87
515.29	20292.44
515.47	20767.57
515.64	20556.93
515.81	20294.79
515.99	20374.36
516.16	20732.47
516.33	20671.61
516.51	20538.20
516.68	20383.73
516.85	20795.66
517.03	21034.39
517.20	20900.98
517.37	20781.62
517.54	20847.15
517.72	21181.85
517.89	20688.00
518.06	20980.56
518.24	20996.95
518.41	21118.65
518.58	21151.42
518.75	21156.10
518.93	21525.91
519.10	21146.74
519.27	21394.84
519.45	21184.19
519.62	21708.47
519.79	21647.61
519.96	21614.85
520.14	21799.75
520.31	21673.36
520.48	21949.54
520.65	21579.74
520.83	21979.97
521.00	21764.64
521.17	21792.73
521.34	21542.29
521.52	22005.72
521.69	21743.58
521.86	22085.30
522.03	22403.61
522.20	22204.66
522.38	22106.36
522.55	22265.52
522.72	22366.16
522.89	22267.86
523.07	22504.25
523.24	22675.11
523.41	22504.25
523.58	22237.43
523.75	22394.25
523.92	22586.17
524.10	22242.11
524.27	22560.42
524.44	22576.81
524.61	22761.71
524.78	22984.06
524.96	22937.25
525.13	22703.20
525.30	22848.31
525.47	22862.35
525.64	23098.75
525.81	22986.40
525.98	23026.19
526.16	23105.77
526.33	23073.00
526.50	23623.03
526.67	23199.39
526.84	23215.77
527.01	23297.69
527.18	23363.23
527.36	23765.80
527.53	23126.83
527.70	23693.24
527.87	23770.48
528.04	23878.15
528.21	23534.09
528.38	23590.26
528.55	23765.80
528.72	23798.57
528.89	24034.96
529.07	23531.75
529.24	23953.04
529.41	23779.84
529.58	23573.88
529.75	24163.69
529.92	23896.87
530.09	23974.11
530.26	24135.60
530.43	24004.53
530.60	23864.10
530.77	24123.90
530.94	24503.07
531.11	24034.96
531.28	24135.60
531.46	24449.24
531.63	24577.97
531.80	24606.05
531.97	24315.83
532.14	24547.54
532.31	24388.38
532.48	24659.88
532.65	24566.26
532.82	24353.27
532.99	24308.80
533.16	24423.49
533.33	24514.77
533.50	24713.72
533.67	25153.74
533.84	24805.00
534.01	25001.60
534.18	25055.43
534.35	24856.49
534.52	25167.78
534.69	25050.75
534.86	25032.03
535.03	24678.61
535.20	25301.19
535.37	25010.96
535.54	25247.36
535.71	25043.73
535.88	25362.04
536.05	25413.54
536.22	25270.76
536.38	25671.00
536.55	25818.45
536.72	25420.56
536.89	25362.04
537.06	25427.58
537.23	25420.56
537.40	25055.43
537.57	25579.71
537.74	25434.60
537.91	25453.33
538.08	25624.18
538.25	25612.48
538.42	25788.02
538.59	25659.29
538.75	25631.21
538.92	25717.81
539.09	25970.58
539.26	25996.33
539.43	26103.99
539.60	25951.86
539.77	25888.67
539.94	26129.74
540.11	26040.80
540.28	26335.71
540.44	26071.23
540.61	25991.65
540.78	25886.32
540.95	26111.02
541.12	26181.23
541.29	26218.68
541.46	26410.60
541.62	26195.28
541.79	26384.86
541.96	26309.96
542.13	26167.19
542.30	26593.17
542.47	26286.56
542.63	26609.55
542.80	26988.72
542.97	26895.10
543.14	27140.85
543.31	26869.35
543.48	26714.87
543.64	27108.08
543.81	26913.82
543.98	27175.96
544.15	27082.34
544.32	26773.39
544.48	27388.95
544.65	26754.66
544.82	27115.11
544.99	26764.03
545.16	26845.94
545.32	27091.70
545.49	27433.42
545.66	27384.27
545.83	27508.32
546.00	27674.49
546.16	27194.68
546.33	26902.12
546.50	26686.79
546.67	27400.65
546.83	27110.43
547.00	27295.33
547.17	27695.56
547.34	27475.55
547.50	27740.03
547.67	27632.36
547.84	27552.79
548.00	27391.29
548.17	27786.84
548.34	27470.87
548.51	27957.70
548.67	27878.12
548.84	27758.75
549.01	27520.02
549.18	27784.50
549.34	27915.57
549.51	27737.69
549.68	27789.18
549.84	27833.65
550.01	27899.19
550.18	27562.15
550.34	28203.46
550.51	27946.00
550.68	28430.49
550.84	27824.29
551.01	27934.29
551.18	27835.99
551.34	27920.25
551.51	28219.84
551.68	28287.71
551.84	28210.48
552.01	28161.33
552.18	28507.72
552.34	28041.96
552.51	28584.96
552.68	28226.86
552.84	28428.15
553.01	28547.51
553.18	28360.27
553.34	28219.84
553.51	28463.25
553.67	28393.04
553.84	28744.12
554.01	28648.16
554.17	28549.85
554.34	28589.64
554.51	28547.51
554.67	28533.47
554.84	28577.94
555.00	28884.55
555.17	28758.16
555.33	28400.06
555.50	28889.23
555.67	28704.33
555.83	28446.87
556.00	28821.36
556.16	28879.87
556.33	28556.88
556.50	28720.71
556.66	29116.26
556.83	28964.13
556.99	29193.50
557.16	29226.27
557.32	28788.59
557.49	28982.85
557.65	28542.83
557.82	28877.53
557.98	28830.72
558.15	28950.09
558.32	29172.44
558.48	28814.34
558.65	29034.35
558.81	29104.56
558.98	29127.97
559.14	29064.77
559.31	29139.67
559.47	29226.27
559.64	29247.33
559.80	29298.83
559.97	29345.64
560.13	29184.14
560.30	29046.05
560.46	29584.37
560.63	29064.77
560.79	29130.31
560.96	29640.54
561.12	29263.72
561.29	29408.83
561.45	29638.20
561.61	29631.18
561.78	29280.10
561.94	29502.45
562.11	29710.76
562.27	29362.02
562.44	29113.92
562.60	29378.40
562.77	29490.75
562.93	29301.17
563.10	29694.38
563.26	29486.07
563.42	30139.08
563.59	29813.74
563.75	29486.07
563.92	29729.48
564.08	29778.64
564.24	29364.36
564.41	29191.16
564.57	29813.74
564.74	29673.31
564.90	29795.02
565.07	29736.51
565.23	29851.19
565.39	29914.39
565.56	30022.05
565.72	29825.45
565.88	30064.18
566.05	29818.42
566.21	29596.07
566.38	29706.08
566.54	29680.33
566.70	30064.18
566.87	29776.30
567.03	29886.30
567.19	30176.53
567.36	29827.79
567.52	29408.83
567.68	30040.78
567.85	29654.59
568.01	29951.84
568.17	29907.37
568.34	30356.75
568.50	30270.15
568.66	29748.21
568.83	29804.38
568.99	29928.43
569.15	29881.62
569.32	30150.78
569.48	29804.38
569.64	30031.41
569.81	30157.80
569.97	29944.81
570.13	30157.80
570.30	30401.22
570.46	30471.43
570.62	29886.30
570.78	30164.82
570.95	30209.29
571.11	29965.88
571.27	29762.25
571.43	30064.18
571.60	30441.01
571.76	29799.70
571.92	30036.09
572.09	30419.94
572.25	30092.27
572.41	29984.60
572.57	30167.16
572.74	30162.48
572.90	29998.65
573.06	29963.54
573.22	30017.37
573.38	30213.98
573.55	30110.99
573.71	30309.94
573.87	30108.65
574.03	30089.93
574.20	30452.71
574.36	30134.40
574.52	30181.21
574.68	30033.75
574.84	30249.08
575.01	30441.01
575.17	30167.16
575.33	30036.09
575.49	30141.42
575.65	30438.67
575.82	30448.03
575.98	30403.56
576.14	30206.95
576.30	30263.13
576.46	30127.38
576.62	30267.81
576.79	30319.30
576.95	30256.11
577.11	30684.42
577.27	30277.17
577.43	30611.87
577.59	30562.72
577.75	30579.10
577.92	30080.56
578.08	30398.88
578.24	30511.22
578.40	30569.74
578.56	30520.59
578.72	30260.79
578.88	30782.73
579.04	30843.58
579.21	30527.61
579.37	30356.75
579.53	30749.96
579.69	30036.09
579.85	30209.29
580.01	30551.01
580.17	30342.70
580.33	30307.60
580.49	30209.29
580.65	30518.25
580.82	30202.27
580.98	30534.63
581.14	30291.21
581.30	30700.81
581.46	30824.86
581.62	30490.16
581.78	30529.95
581.94	30340.36
582.10	30335.68
582.26	30649.32
582.42	30450.37
582.58	30691.44
582.74	30656.34
582.90	30485.48
583.06	30536.97
583.22	30415.26
583.38	30588.46
583.54	30513.56
583.70	30438.67
583.86	30274.83
584.02	30560.37
584.18	30508.88
584.34	30331.00
584.50	30553.35
584.66	30312.28
584.82	30654.00
584.98	30707.83
585.14	30443.35
585.30	30321.64
585.46	30380.15
585.62	30574.42
585.78	30778.04
585.94	30174.19
586.10	30450.37
586.26	30415.26
586.42	30778.04
586.58	30677.40
586.74	30796.77
586.90	30387.18
587.06	30478.46
587.22	30724.21
587.38	30721.87
587.54	30799.11
587.70	30852.94
587.86	30628.25
588.02	30909.11
588.18	31026.14
588.34	31023.80
588.49	30775.70
588.65	31012.10
588.81	30354.41
588.97	30883.37
589.13	30546.33
589.29	30611.87
589.45	30745.28
589.61	31119.76
589.77	30576.76
589.93	31033.16
590.08	31180.62
590.24	31098.70
590.40	30885.71
590.56	31112.74
590.72	30576.76
590.88	31185.30
591.04	30551.01
591.20	31185.30
591.35	30866.98
591.51	31197.00
591.67	30902.09
591.83	31211.04
591.99	31082.31
592.15	31136.15
592.31	30742.94
592.46	30937.20
592.62	30967.63
592.78	30834.22
592.94	30663.36
593.10	30644.63
593.26	31201.68
593.41	31005.08
593.57	31129.12
593.73	30930.18
593.89	31346.79
594.05	31131.47
594.20	30930.18
594.36	31180.62
594.52	30859.96
594.68	31197.00
594.84	31112.74
594.99	30951.24
595.15	31494.25
595.31	31594.89
595.47	31328.07
595.62	31250.83
595.78	30962.95
595.94	31250.83
596.10	30974.65
596.25	31021.46
596.41	31299.98
596.57	31182.96
596.73	31166.57
596.88	31058.91
597.04	31372.54
597.20	31452.12
597.36	31431.05
597.51	31152.53
597.67	30955.93
597.83	31000.40
597.99	31124.44
598.14	30780.39
598.30	31068.27
598.46	31360.84
598.61	31225.09
598.77	30953.58
598.93	31267.22
599.09	31337.43
599.24	31812.56
599.40	31749.37
599.56	31353.82
599.71	31267.22
599.87	30981.67
600.03	31285.94
600.18	30836.56
600.34	31218.07
600.50	31175.94
600.65	31204.02
600.81	31971.72
600.97	31519.99
601.12	31857.03
601.28	31463.82
601.44	31257.85
601.59	31548.08
601.75	31267.22
601.91	31157.21
602.06	31164.23
602.22	31463.82
602.37	31246.15
602.53	31339.77
602.69	31906.18
602.84	31351.48
603.00	31323.39
603.16	31150.19
603.31	31311.69
603.47	31227.43
603.62	31159.55
603.78	31166.57
603.94	31087.00
604.09	30761.66
604.25	30824.86
604.40	30986.35
604.56	31229.77
604.71	31569.15
604.87	31182.96
605.03	31428.71
605.18	31344.45
605.34	31028.48
605.49	31068.27
605.65	31339.77
605.80	30824.86
605.96	30775.70
606.12	30920.82
606.27	31384.24
606.43	31035.50
606.58	31311.69
606.74	31211.04
606.89	31199.34
607.05	31445.10
607.20	31150.19
607.36	31098.70
607.51	31035.50
607.67	30759.32
607.82	30768.68
607.98	31131.47
608.13	31206.36
608.29	31049.55
608.44	31084.65
608.60	30799.11
608.75	31271.90
608.91	31517.65
609.06	31356.16
609.22	31274.24
609.37	30745.28
609.53	31082.31
609.68	30888.05
609.84	30742.94
609.99	30614.21
610.15	30768.68
610.30	31339.77
610.46	31042.53
610.61	30930.18
610.76	31164.23
610.92	31211.04
611.07	30953.58
611.23	30771.02
611.38	30831.88
611.54	30785.07
611.69	30635.27
611.84	30583.78
612.00	30445.69
612.15	30668.04
612.31	30661.02
612.46	30764.00
612.62	31267.22
612.77	30749.96
612.92	31044.87
613.08	30654.00
613.23	30548.67
613.39	30281.85
613.54	30536.97
613.69	30551.01
613.85	30553.35
614.00	30541.65
614.15	30572.08
614.31	30515.90
614.46	30965.29
614.62	30387.18
614.77	30569.74
614.92	30328.66
615.08	30394.20
615.23	30513.56
615.38	30431.65
615.54	30602.50
615.69	30476.12
615.84	30211.64
616.00	30663.36
616.15	30022.05
616.30	30590.80
616.46	30497.18
616.61	30536.97
616.76	30731.23
616.92	30319.30
617.07	30684.42
617.22	30593.14
617.37	30494.84
617.53	30689.10
617.68	30349.73
617.83	30080.56
617.99	29905.02
618.14	30213.98
618.29	30415.26
618.45	30410.58
618.60	30279.51
618.75	30387.18
618.90	30216.32
619.06	30270.15
619.21	30094.61
619.36	30595.48
619.51	29900.34
619.67	29979.92
619.82	29666.29
619.97	30192.91
620.12	29912.05
620.28	29628.84
620.43	30352.07
620.58	29977.58
620.73	29689.70
620.89	30155.46
621.04	30082.91
621.19	30188.23
621.34	29762.25
621.49	30230.36
621.65	29912.05
621.80	29706.08
621.95	29783.32
622.10	29706.08
622.25	29820.77
622.41	29965.88
622.56	30000.99
622.71	29591.39
622.86	29600.76
623.01	29993.97
623.16	29741.19
623.32	29563.31
623.47	29879.28
623.62	29640.54
623.77	29647.57
623.92	29652.25
624.07	29549.26
624.23	29715.44
624.38	29490.75
624.53	29752.89
624.68	29359.68
624.83	29729.48
624.98	29816.08
625.13	29560.97
625.29	29713.10
625.44	29567.99
625.59	29165.42
625.74	29287.12
625.89	28971.15
626.04	29352.66
626.19	29441.60
626.34	29521.18
626.49	29352.66
626.65	29488.41
626.80	29429.90
626.95	28809.65
627.10	29237.97
627.25	29324.57
627.40	29244.99
627.55	29252.02
627.70	29027.32
627.85	29198.18
628.00	29095.20
628.15	29205.20
628.30	28837.74
628.45	29029.66
628.60	28999.24
628.76	29102.22
628.91	29027.32
629.06	29057.75
629.21	28905.62
629.36	29132.65
629.51	29067.11
629.66	29050.73
629.81	28936.04
629.96	28926.68
630.11	29008.60
630.26	28716.03
630.41	29032.00
630.56	28809.65
630.71	28971.15
630.86	28903.28
631.01	28968.81
631.16	29020.30
631.31	28823.70
631.46	28795.61
631.61	29116.26
631.76	28917.32
631.91	28486.66
632.06	28353.25
632.21	28730.08
632.36	28521.77
632.51	28416.44
632.66	28877.53
632.81	28463.25
632.96	28467.94
633.10	28489.00
633.25	28652.84
633.40	28781.57
633.55	28776.89
633.70	28540.49
633.85	27889.82
634.00	28306.44
634.15	28381.34
634.30	28498.36
634.45	28301.76
634.60	28212.82
634.75	28327.50
634.90	28180.05
635.05	28622.41
635.19	28304.10
635.34	28332.18
635.49	28477.30
635.64	28463.25
635.79	28147.28
635.94	28507.72
636.09	28233.88
636.24	28254.95
636.39	28053.66
636.53	28247.93
636.68	27962.38
636.83	28149.62
636.98	28622.41
637.13	27878.12
637.28	28098.13
637.43	28205.80
637.57	28247.93
637.72	28161.33
637.87	28201.11
638.02	28374.31
638.17	28191.75
638.32	28020.89
638.46	27634.71
638.61	27545.76
638.76	27576.19
638.91	28095.79
639.06	27709.60
639.20	27690.88
639.35	28222.18
639.50	27728.33
639.65	27915.57
639.80	27894.50
639.94	27686.20
640.09	27917.91
640.24	27885.14
640.39	27571.51
640.54	27576.19
640.68	27646.41
640.83	27417.04
640.98	27435.76
641.13	27290.65
641.27	27576.19
641.42	27648.75
641.57	27833.65
641.72	27498.95
641.86	27166.60
642.01	27274.26
642.16	27718.96
642.31	27105.74
642.45	27522.36
642.60	27449.80
642.75	27229.79
642.90	27283.62
643.04	27185.32
643.19	27367.88
643.34	27264.90
643.48	27175.96
643.63	27358.52
643.78	27480.23
643.93	27791.52
644.07	27435.76
644.22	27505.98
644.37	27524.70
644.51	27260.22
644.66	27405.33
644.81	26789.77
644.95	27014.46
645.10	27255.54
645.25	27168.94
645.39	27328.10
645.54	27297.67
645.69	27108.08
645.83	26813.18
645.98	27070.64
646.13	27405.33
646.27	27592.58
646.42	27000.42
646.57	27325.75
646.71	26937.23
646.86	27000.42
647.00	27218.09
647.15	27117.45
647.30	27009.78
647.44	26813.18
647.59	27072.98
647.74	26827.22
647.88	26792.11
648.03	26948.93
648.17	27126.81
648.32	27159.58
648.47	26897.44
648.61	26951.27
648.76	26895.10
648.90	26815.52
649.05	27012.12
649.20	26962.97
649.34	26532.31
649.49	26469.12
649.63	26492.52
649.78	26787.43
649.92	26574.44
650.07	27087.02
650.21	26377.84
650.36	26700.83
650.51	26284.22
650.65	26630.62
650.80	26754.66
650.94	26749.98
651.09	26441.03
651.23	26499.55
651.38	26445.71
651.52	25947.18
651.67	26370.82
651.81	26485.50
651.96	26419.97
652.10	26527.63
652.25	26649.34
652.39	26820.20
652.54	26581.46
652.68	26607.21
652.83	26520.61
652.97	26490.18
653.12	26309.96
653.26	26307.62
653.41	26333.37
653.55	26291.24
653.70	26448.05
653.84	26214.00
653.99	25556.31
654.13	26085.27
654.27	26232.72
654.42	26115.70
654.56	26389.54
654.71	26036.12
654.85	25949.52
655.00	26216.34
655.14	26242.09
655.29	26176.55
655.43	25944.84
655.57	26066.55
655.72	26199.96
655.86	25895.69
656.01	25766.96
656.15	26103.99
656.30	25951.86
656.44	25357.36
656.58	25757.60
656.73	25998.67
656.87	25923.77
657.01	25933.14
657.16	25947.18
657.30	26157.83
657.45	25741.21
657.59	25832.49
657.73	25832.49
657.88	25750.57
658.02	25689.72
658.16	25799.73
658.31	25411.20
658.45	25713.13
658.60	25165.44
658.74	25619.50
658.88	25413.54
659.03	25488.43
659.17	25628.87
659.31	25458.01
659.46	25560.99
659.60	25486.09
659.74	25673.34
659.89	25376.09
660.03	25486.09
660.17	25242.68
660.32	25268.42
660.46	25270.76
660.60	24938.41
660.74	25034.37
660.89	24917.34
661.03	24805.00
661.17	25156.08
661.32	25242.68
661.46	25165.44
661.60	25078.84
661.74	25422.90
661.89	24842.45
662.03	24854.15
662.17	25336.30
662.31	24879.89
662.46	24973.52
662.60	24783.93
662.74	25097.56
662.88	24645.84
663.03	24421.15
663.17	24580.31
663.31	24411.79
663.45	24795.64
663.60	24460.94
663.74	24254.97
663.88	24491.37
664.02	24404.77
664.17	24531.15
664.31	24245.61
664.45	24159.01
664.59	24552.22
664.73	24067.73
664.88	24666.91
665.02	24130.92
665.16	23924.96
665.30	24039.64
665.44	24254.97
665.59	23903.89
665.73	24247.95
665.87	23763.46
666.01	24215.18
666.15	23917.93
666.29	23941.34
666.44	24194.12
666.58	23679.20
666.72	23683.88
666.86	24114.54
667.00	23517.70
667.14	23704.95
667.28	24074.75
667.43	23679.20
667.57	23461.53
667.71	23421.74
667.85	23744.73
667.99	23403.02
668.13	23489.62
668.27	23456.85
668.41	23805.59
668.56	23229.82
668.70	23459.19
668.84	23218.11
668.98	23349.18
669.12	23374.93
669.26	23566.85
669.40	23456.85
669.54	23112.79
669.68	23370.25
669.82	23262.58
669.96	22918.53
670.10	23108.11
670.25	22937.25
670.39	22810.86
670.53	22810.86
670.67	22892.78
670.81	22731.28
670.95	22892.78
671.09	23021.51
671.23	22848.31
671.37	22696.17
671.51	23044.91
671.65	23215.77
671.79	22642.34
671.93	22434.03
672.07	22871.72
672.21	22499.57
672.35	22375.52
672.49	22480.85
672.63	22616.60
672.77	22377.86
672.91	22258.49
673.05	22197.64
673.19	22195.30
673.33	22445.74
673.47	22047.85
673.61	22291.26
673.75	21893.37
673.89	21928.48
674.03	22104.02
674.17	22097.00
674.31	21848.90
674.45	21696.77
674.59	21745.92
674.73	22251.47
674.87	21832.52
675.01	21626.55
675.15	21504.84
675.29	21298.88
675.43	21757.62
675.56	21528.25
675.70	21493.14
675.84	21659.32
675.98	20837.79
676.12	21223.98
676.26	21357.39
676.40	21399.52
676.54	21247.38
676.68	21242.70
676.82	20400.11
676.96	20758.21
677.10	21048.44
677.23	20652.89
677.37	20840.13
677.51	20570.97
677.65	20709.06
677.79	20484.37
677.93	20439.90
678.07	20332.23
678.21	20327.55
678.34	20498.41
678.48	20311.17
678.62	20372.02
678.76	20203.50
678.90	19782.21
679.04	20049.03
679.18	20390.75
679.31	20063.07
679.45	19798.59
679.59	19697.95
679.73	19690.93
679.87	19639.44
680.00	19611.35
680.14	19716.67
680.28	19789.23
680.42	19543.47
680.56	19697.95
680.70	19601.99
680.83	19683.91
680.97	19276.65
681.11	19714.33
681.25	19344.53
681.39	19073.03
681.52	19267.29
681.66	19150.26
681.80	18752.37
681.94	18831.95
682.07	18956.00
682.21	18684.50
682.35	18576.83
682.49	18567.47
682.62	18546.40
682.76	18860.04
682.90	18588.53
683.04	18546.40
683.17	18712.58
683.31	18501.93
683.45	18860.04
683.59	18478.53
683.72	18104.04
683.86	18253.84
684.00	18022.12
684.13	18148.51
684.27	18335.76
684.41	17961.27
684.55	17675.73
684.68	17781.05
684.82	17500.19
684.96	17879.35
685.09	17561.04
685.23	17504.87
685.37	17539.97
685.50	17425.29
685.64	17830.20
685.78	17598.49
685.91	17479.12
686.05	17661.68
686.19	17483.80
686.32	17357.41
686.46	17301.24
686.60	16882.28
686.73	17034.42
686.87	17256.77
687.01	16952.50
687.14	17029.74
687.28	16627.17
687.42	16898.67
687.55	16645.89
687.69	16758.24
687.82	16549.93
687.96	16725.47
688.10	16383.75
688.23	16549.93
688.37	16554.61
688.50	16453.97
688.64	16257.36
688.78	16322.90
688.91	16051.39
689.05	16250.34
689.18	16201.19
689.32	15693.29
689.46	15609.03
689.59	15822.02
689.73	15812.66
689.86	15880.53
690.00	15686.27
690.13	15665.21
690.27	15592.65
690.41	15866.49
690.54	15442.85
690.68	15784.57
690.81	15751.81
690.95	15499.03
691.08	15594.99
691.22	15239.23
691.35	15344.55
691.49	15276.68
691.62	15204.12
691.76	15075.39
691.89	15021.56
692.03	14773.46
692.16	14487.92
692.30	14721.97
692.43	14499.62
692.57	14408.34
692.70	14553.45
692.84	14754.74
692.97	14441.11
693.11	14387.27
693.24	14506.64
693.38	14469.19
693.51	14520.68
693.65	14377.91
693.78	14178.97
693.92	14061.94
694.05	14085.34
694.19	14188.33
694.32	13738.94
694.45	14054.92
694.59	13781.07
694.72	13802.14
694.86	13664.05
694.99	13397.23
695.13	13734.26
695.26	13619.58
695.39	13579.79
695.53	13600.85
695.66	13757.67
695.80	13514.25
695.93	13502.55
696.07	13348.08
696.20	13399.57
696.33	13406.59
696.47	13212.32
696.60	13205.30
696.73	13151.47
696.87	13050.83
697.00	12620.17
697.14	12996.99
697.27	12540.59
697.40	12615.49
697.54	12748.90
697.67	12601.44
697.80	12556.97
697.94	12477.40
698.07	12400.16
698.21	12470.37
698.34	12390.80
698.47	12456.33
698.61	12198.87
698.74	12381.43
698.87	12362.71
699.01	12025.67
699.14	12121.63
699.27	11901.62
699.40	11971.84
699.54	11808.00
699.67	11974.18
699.80	11840.77
699.94	11845.45
700.07	11669.91
700.20	11658.21
700.34	11424.15
700.47	11599.70
700.60	11653.53
700.73	11705.02
700.87	11403.09
701.00	11360.96
701.13	11358.62
701.26	11602.04
701.40	11587.99
701.53	11243.93
701.66	11267.34
701.79	11360.96
701.93	11080.10
702.06	10846.04
702.19	10820.30
702.32	10974.77
702.46	11052.01
702.59	10684.55
702.72	10635.39
702.85	10501.98
702.99	10611.99
703.12	10857.75
703.25	10609.65
703.38	10459.85
703.51	10885.83
703.65	10567.52
703.78	10429.43
703.91	10473.90
704.04	10782.85
704.17	10672.84
704.31	10452.83
704.44	10462.19
704.57	10094.73
704.70	10029.20
704.83	10040.90
704.96	10001.11
705.10	9722.59
705.23	9797.48
>>>>>End Processed Spectral Data<<<<<
