SpectraSuite Data File
++++++++++++++++++++++++++++++++++++
Date: Fri Oct 18 13:58:41 GMT-05:00 2013
User: bianchi
Dark Spectrum Present: No
Reference Spectrum Present: No
Number of Sampled Component Spectra: 1
Spectrometers: USB2+H05261
Integration Time (usec): 50000 (USB2+H05261)
Spectra Averaged: 1 (USB2+H05261)
Boxcar Smoothing: 0 (USB2+H05261)
Correct for Electrical Dark: No (USB2+H05261)
Strobe/Lamp Enabled: No (USB2+H05261)
Correct for Detector Non-linearity: No (USB2+H05261)
Correct for Stray Light: No (USB2+H05261)
Number of Pixels in Processed Spectrum: 2048
>>>>>Begin Processed Spectral Data<<<<<
365.73	0.00
365.92	0.00
366.12	0.00
366.32	0.00
366.52	0.00
366.72	0.00
366.91	0.00
367.11	0.00
367.31	0.00
367.51	0.00
367.70	0.00
367.90	0.00
368.10	0.00
368.30	0.00
368.49	0.00
368.69	0.00
368.89	0.00
369.09	0.00
369.28	0.00
369.48	0.00
369.68	0.00
369.87	0.00
370.07	0.00
370.27	0.00
370.47	0.00
370.66	81.92
370.86	105.32
371.06	135.75
371.25	128.73
371.45	147.45
371.65	191.92
371.84	170.86
372.04	170.86
372.24	182.56
372.44	91.28
372.63	177.88
372.83	168.52
373.03	180.22
373.22	168.52
373.42	168.52
373.62	159.16
373.81	266.82
374.01	229.37
374.21	250.44
374.40	180.22
374.60	280.86
374.79	264.48
374.99	222.35
375.19	250.44
375.38	264.48
375.58	229.37
375.78	269.16
375.97	304.27
376.17	299.59
376.37	269.16
376.56	201.29
376.76	229.37
376.95	196.60
377.15	212.99
377.35	341.72
377.54	222.35
377.74	231.71
377.93	283.20
378.13	245.76
378.33	229.37
378.52	217.67
378.72	325.33
378.91	290.23
379.11	234.05
379.31	250.44
379.50	348.74
379.70	290.23
379.89	299.59
380.09	386.19
380.28	283.20
380.48	320.65
380.68	304.27
380.87	222.35
381.07	388.53
381.26	306.61
381.46	374.49
381.65	276.18
381.85	365.12
382.04	348.74
382.24	315.97
382.43	346.40
382.63	294.91
382.83	318.31
383.02	425.98
383.22	367.46
383.41	311.29
383.61	353.42
383.80	386.19
384.00	428.32
384.19	390.87
384.39	341.72
384.58	301.93
384.78	348.74
384.97	425.98
385.17	386.19
385.36	341.72
385.56	332.36
385.75	367.46
385.95	339.38
386.14	442.36
386.34	451.72
386.53	315.97
386.72	306.61
386.92	430.66
387.11	390.87
387.31	430.66
387.50	449.38
387.70	407.25
387.89	407.25
388.09	362.78
388.28	423.64
388.48	454.06
388.67	510.24
388.86	440.02
389.06	362.78
389.25	517.26
389.45	456.40
389.64	470.45
389.84	425.98
390.03	517.26
390.22	517.26
390.42	510.24
390.61	526.62
390.81	447.04
391.00	547.69
391.19	433.00
391.39	510.24
391.58	503.22
391.78	624.92
391.97	463.43
392.16	454.06
392.36	578.11
392.55	564.07
392.75	514.92
392.94	484.49
393.13	592.16
393.33	510.24
393.52	540.66
393.71	538.32
393.91	521.94
394.10	517.26
394.29	610.88
394.49	564.07
394.68	571.09
394.88	484.49
395.07	655.35
395.26	683.44
395.46	578.11
395.65	603.86
395.84	589.82
396.04	655.35
396.23	669.39
396.42	580.45
396.62	648.33
396.81	692.80
397.00	702.16
397.19	678.76
397.39	620.24
397.58	765.36
397.77	643.65
397.97	737.27
398.16	671.73
398.35	706.84
398.55	737.27
398.74	720.88
398.93	741.95
399.12	744.29
399.32	681.10
399.51	711.52
399.70	631.94
399.90	711.52
400.09	784.08
400.28	744.29
400.47	739.61
400.67	748.97
400.86	809.83
401.05	753.65
401.24	844.93
401.44	861.32
401.63	788.76
401.82	833.23
402.01	744.29
402.21	767.70
402.40	791.10
402.59	877.70
402.78	793.44
402.97	779.40
403.17	840.25
403.36	835.57
403.55	849.61
403.74	772.38
403.93	901.11
404.13	823.87
404.32	915.15
404.51	851.96
404.70	947.92
404.89	945.58
405.09	938.55
405.28	908.13
405.47	847.27
405.66	987.71
405.85	929.19
406.05	945.58
406.24	1036.86
406.43	919.83
406.62	952.60
406.81	978.34
407.00	1055.58
407.20	990.05
407.39	1018.13
407.58	1022.81
407.77	1015.79
407.96	945.58
408.15	973.66
408.34	1053.24
408.54	1130.48
408.73	1144.52
408.92	1125.80
409.11	1203.04
409.30	1181.97
409.49	1240.48
409.68	1107.07
409.87	1104.73
410.07	1186.65
410.26	1104.73
410.45	1231.12
410.64	1093.03
410.83	1277.93
411.02	1221.76
411.21	1116.44
411.40	1287.29
411.59	1177.29
411.78	1231.12
411.98	1238.14
412.17	1331.76
412.36	1275.59
412.55	1310.70
412.74	1348.15
412.93	1327.08
413.12	1334.11
413.31	1413.68
413.50	1352.83
413.69	1416.02
413.88	1411.34
414.07	1537.73
414.26	1521.35
414.45	1495.60
414.64	1474.54
414.83	1568.16
415.02	1551.78
415.22	1549.43
415.41	1556.46
415.60	1458.15
415.79	1535.39
415.98	1593.90
416.17	1600.93
416.36	1530.71
416.55	1519.01
416.74	1607.95
416.93	1572.84
417.12	1624.33
417.31	1767.10
417.50	1668.80
417.69	1753.06
417.88	1736.68
418.07	1621.99
418.26	1701.57
418.45	1701.57
418.64	1844.34
418.83	1849.02
419.02	1767.10
419.21	1755.40
419.39	1823.28
419.58	1919.24
419.77	1776.47
419.96	1809.23
420.15	1900.52
420.34	1886.47
420.53	1865.41
420.72	1802.21
420.91	1891.15
421.10	1919.24
421.29	1961.37
421.48	1872.43
421.67	1872.43
421.86	2001.16
422.05	2071.37
422.24	1834.98
422.43	1914.56
422.61	1912.22
422.80	2003.50
422.99	1989.46
423.18	2069.03
423.37	2010.52
423.56	1982.43
423.75	1837.32
423.94	1961.37
424.13	1954.35
424.32	1874.77
424.50	2083.08
424.69	2036.27
424.88	2165.00
425.07	2108.82
425.26	1966.05
425.45	1895.83
425.64	1987.11
425.83	2036.27
426.01	1949.67
426.20	2090.10
426.39	1921.58
426.58	1996.48
426.77	1968.39
426.96	2221.17
427.15	2160.31
427.33	2111.16
427.52	2050.31
427.71	2188.40
427.90	2134.57
428.09	2235.21
428.28	2165.00
428.46	2218.83
428.65	2251.60
428.84	2424.80
429.03	2263.30
429.22	2258.62
429.40	2289.04
429.59	2167.34
429.78	2092.44
429.97	2216.49
430.16	2253.94
430.34	2289.04
430.53	2251.60
430.72	2272.66
430.91	2359.26
431.10	2200.10
431.28	2399.05
431.47	2303.09
431.66	2345.22
431.85	2452.88
432.03	2363.94
432.22	2527.78
432.41	2408.41
432.60	2469.27
432.79	2394.37
432.97	2410.75
433.16	2455.22
433.35	2422.45
433.54	2490.33
433.72	2396.71
433.91	2583.95
434.10	2441.18
434.28	2450.54
434.47	2452.88
434.66	2555.86
434.85	2525.44
435.03	2616.72
435.22	2532.46
435.41	2642.46
435.59	2450.54
435.78	2544.16
435.97	2518.42
436.16	2630.76
436.34	2602.68
436.53	2469.27
436.72	2787.58
436.90	2574.59
437.09	2684.59
437.28	2661.19
437.46	2684.59
437.65	2668.21
437.84	2693.96
438.02	2654.17
438.21	2771.19
438.40	2722.04
438.58	2956.10
438.77	2878.86
438.96	2829.71
439.14	2904.60
439.33	2979.50
439.52	2794.60
439.70	2942.05
439.89	3068.44
440.08	2988.86
440.26	2991.20
440.45	2916.31
440.63	3026.31
440.82	3030.99
441.01	3045.04
441.19	3075.46
441.38	3187.81
441.57	3103.55
441.75	3136.32
441.94	3232.28
442.12	3241.64
442.31	3262.71
442.50	3262.71
442.68	3281.43
442.87	3400.80
443.05	3353.99
443.24	3508.46
443.43	3361.01
443.61	3342.28
443.80	3531.87
443.98	3234.62
444.17	3094.19
444.35	3372.71
444.54	3447.61
444.73	3421.86
444.91	3339.94
445.10	3473.36
445.28	3475.70
445.47	3426.54
445.65	3396.12
445.84	3475.70
446.02	3452.29
446.21	3445.27
446.39	3375.05
446.58	3541.23
446.77	3487.40
446.95	3414.84
447.14	3459.31
447.32	3548.25
447.51	3358.67
447.69	3492.08
447.88	3630.17
448.06	3578.68
448.25	3562.30
448.43	3515.48
448.62	3499.10
448.80	3421.86
448.99	3583.36
449.17	3630.17
449.36	3562.30
449.54	3630.17
449.73	3627.83
449.91	3655.92
450.10	3604.42
450.28	3627.83
450.46	3707.41
450.65	3646.55
450.83	3934.44
451.02	3665.28
451.20	3819.75
451.39	3719.11
451.57	3691.02
451.76	3735.50
451.94	3836.14
452.13	3920.40
452.31	3927.42
452.49	3845.50
452.68	3758.90
452.86	3796.35
453.05	3901.67
453.23	4014.02
453.42	3864.22
453.60	3822.09
453.78	3868.91
453.97	3880.61
454.15	3915.72
454.34	3843.16
454.52	3969.55
454.70	3939.12
454.89	3950.82
455.07	4091.26
455.26	3985.93
455.44	4145.09
455.62	4093.60
455.81	3976.57
455.99	4133.39
456.17	4208.28
456.36	4023.38
456.54	4152.11
456.73	4149.77
456.91	4245.73
457.09	4243.39
457.28	4308.93
457.46	4215.30
457.64	4273.82
457.83	4381.48
458.01	4266.80
458.19	4379.14
458.38	4353.40
458.56	4278.50
458.74	4468.08
458.93	4390.84
459.11	4416.59
459.29	4456.38
459.48	4437.66
459.66	4416.59
459.84	4362.76
460.03	4484.47
460.21	4542.98
460.39	4531.28
460.57	4442.34
460.76	4461.06
460.94	4671.71
461.12	4643.62
461.31	4688.09
461.49	4470.42
461.67	4550.00
461.85	4779.37
462.04	4571.07
462.22	4842.57
462.40	4678.73
462.59	4746.61
462.77	4833.21
462.95	4793.42
463.13	4697.46
463.32	4760.65
463.50	4798.10
463.68	4681.07
463.86	4870.65
464.05	4781.71
464.23	4762.99
464.41	4903.42
464.59	4873.00
464.78	5025.13
464.96	4889.38
465.14	4741.93
465.32	4924.49
465.50	4929.17
465.69	4947.89
465.87	5130.45
466.05	5025.13
466.23	4936.19
466.41	5046.20
466.60	5195.99
466.78	5055.56
466.96	5067.26
467.14	5130.45
467.32	5011.09
467.51	5289.61
467.69	4980.66
467.87	5032.15
468.05	5067.26
468.23	4978.32
468.41	5085.98
468.60	5132.79
468.78	5207.69
468.96	5111.73
469.14	5228.76
469.32	5270.89
469.50	5338.76
469.69	5280.25
469.87	5376.21
470.05	5446.43
470.23	5441.75
470.41	5224.08
470.59	5465.15
470.77	5371.53
470.95	5357.49
471.14	5568.13
471.32	5404.30
471.50	5495.58
471.68	5500.26
471.86	5603.24
472.04	5521.32
472.22	5741.33
472.40	5699.20
472.58	5586.86
472.77	5832.62
472.95	5671.12
473.13	5928.58
473.31	5795.17
473.49	5858.36
473.67	5818.57
473.85	5673.46
474.03	6059.65
474.21	5933.26
474.39	6017.52
474.57	5968.37
474.75	6076.03
474.93	6218.80
475.12	5947.30
475.30	6001.13
475.48	6094.76
475.66	6171.99
475.84	6256.25
476.02	6478.60
476.20	6441.15
476.38	6462.22
476.56	6548.82
476.74	6532.44
476.92	6406.05
477.10	6555.84
477.28	6565.20
477.46	6733.72
477.64	6689.25
477.82	6813.30
478.00	7019.27
478.18	6977.14
478.36	7052.03
478.54	7037.99
478.72	7021.61
478.90	7007.56
479.08	7082.46
479.26	7194.81
479.44	7197.15
479.62	7225.23
479.80	7335.24
479.98	7405.46
480.16	7609.08
480.34	7454.61
480.52	7478.01
480.70	7693.34
480.88	7375.03
481.06	7548.23
481.24	7676.96
481.41	7679.30
481.59	8119.32
481.77	7796.32
481.95	7960.16
482.13	7999.95
482.31	8116.98
482.49	7974.21
482.67	8168.47
482.85	8344.01
483.03	8301.88
483.21	8393.16
483.39	8390.82
483.57	8512.53
483.74	8566.36
483.92	8582.74
484.10	8699.77
484.28	8765.31
484.46	8823.82
484.64	9071.92
484.82	8971.27
485.00	9111.71
485.18	9202.99
485.35	9415.98
485.53	9242.78
485.71	9502.58
485.89	9605.56
486.07	9671.09
486.25	9638.33
486.43	9497.89
486.61	9542.36
486.78	9823.23
486.96	9891.10
487.14	9942.60
487.32	9951.96
487.50	10129.84
487.68	10263.25
487.85	10181.33
488.03	10305.38
488.21	10520.71
488.39	10509.01
488.57	10780.51
488.75	10923.28
488.92	10857.75
489.10	11026.26
489.28	10965.41
489.46	11023.92
489.64	11138.61
489.81	11103.50
489.99	11059.03
490.17	11269.68
490.35	11414.79
490.53	11515.44
490.70	11499.05
490.88	11569.27
491.06	11805.66
491.24	11538.84
491.41	11499.05
491.59	11990.56
491.77	11866.52
491.95	12292.49
492.13	12128.66
492.30	12149.72
492.48	12138.02
492.66	12255.04
492.84	12233.98
493.01	12411.86
493.19	12383.77
493.37	12643.57
493.54	12311.22
493.72	12507.82
493.90	12868.27
494.08	12788.69
494.25	12987.63
494.43	13167.85
494.61	13160.83
494.79	13341.05
494.96	13177.22
495.14	13338.71
495.32	13516.59
495.49	13507.23
495.67	13610.22
495.85	13699.16
496.02	13879.38
496.20	13717.88
496.38	14050.24
496.55	13731.92
496.73	13977.68
496.91	14239.82
497.09	14249.18
497.26	14036.19
497.44	14073.64
497.62	14087.68
497.79	14457.49
497.97	14420.04
498.14	14427.06
498.32	14780.48
498.50	14384.93
498.67	15068.37
498.85	14487.92
499.03	15077.73
499.20	14918.57
499.38	14932.62
499.56	14988.79
499.73	15227.53
499.91	15236.89
500.08	15417.11
500.26	15023.90
500.44	15241.57
500.61	15461.58
500.79	15304.76
500.97	15426.47
501.14	16002.24
501.32	15611.37
501.49	15510.73
501.67	15826.70
501.84	15815.00
502.02	16107.57
502.20	16039.69
502.37	16163.74
502.55	16058.42
502.72	16137.99
502.90	16044.37
503.07	16198.85
503.25	16224.59
503.43	16294.81
503.60	16500.78
503.78	16603.76
503.95	16479.71
504.13	16594.40
504.30	16346.30
504.48	16313.53
504.65	16840.15
504.83	16498.44
505.01	16929.09
505.18	16788.66
505.36	17099.95
505.53	16620.14
505.71	16896.33
505.88	17078.89
506.06	16683.34
506.23	17174.85
506.41	17060.16
506.58	17163.15
506.76	17238.05
506.93	17214.64
507.11	17270.81
507.28	17631.26
507.46	17703.81
507.63	17664.02
507.81	17528.27
507.98	17671.04
508.16	17685.09
508.33	17926.16
508.50	17734.24
508.68	17958.93
508.85	18274.90
509.03	18141.49
509.20	18036.17
509.38	18265.54
509.55	18480.87
509.73	18221.07
509.90	18228.09
510.08	18001.06
510.25	18277.24
510.42	18349.80
510.60	18670.45
510.77	18560.45
510.95	18640.03
511.12	18595.56
511.30	18810.89
511.47	18583.85
511.64	18499.59
511.82	18916.21
511.99	18871.74
512.17	19026.21
512.34	18904.51
512.51	19396.02
512.69	19255.59
512.86	18918.55
513.04	19260.27
513.21	19253.25
513.38	19112.81
513.56	19562.20
513.73	19227.50
513.90	19461.55
514.08	19101.11
514.25	19541.13
514.43	19681.56
514.60	19875.83
514.77	19840.72
514.95	19922.64
515.12	19676.88
515.29	19822.00
515.47	19756.46
515.64	19896.89
515.81	19868.81
515.99	19974.13
516.16	20400.11
516.33	19960.09
516.51	20346.28
516.68	19943.70
516.85	20163.72
517.03	20552.24
517.20	20287.76
517.37	20559.27
517.54	20290.10
517.72	20189.46
517.89	20355.64
518.06	20343.94
518.24	20542.88
518.41	20592.03
518.58	20690.34
518.75	20503.09
518.93	21188.87
519.10	21083.55
519.27	20889.28
519.45	20952.48
519.62	20945.45
519.79	20851.83
519.96	21027.37
520.14	20816.72
520.31	20858.85
520.48	21233.34
520.65	20952.48
520.83	21200.57
521.00	21525.91
521.17	20992.26
521.34	21001.63
521.52	21453.35
521.69	21553.99
521.86	21591.44
522.03	21930.82
522.20	21640.59
522.38	21645.27
522.55	21238.02
522.72	21837.20
522.89	21830.18
523.07	22012.74
523.24	22054.87
523.41	21963.59
523.58	21823.16
523.75	21949.54
523.92	21811.45
524.10	21895.71
524.27	21823.16
524.44	22064.23
524.61	22314.67
524.78	22588.51
524.96	22455.10
525.13	22317.01
525.30	22417.65
525.47	22408.29
525.64	22251.47
525.81	22321.69
525.98	22714.90
526.16	22497.23
526.33	22342.75
526.50	22927.89
526.67	22455.10
526.84	22586.17
527.01	23042.57
527.18	22717.24
527.36	22616.60
527.53	22780.43
527.70	23014.49
527.87	23002.78
528.04	23040.23
528.21	22981.72
528.38	22920.87
528.55	23040.23
528.72	23073.00
528.89	23342.16
529.07	22984.06
529.24	23124.49
529.41	23325.78
529.58	23332.80
529.75	23021.51
529.92	23456.85
530.09	23318.76
530.26	23632.39
530.43	23379.61
530.60	23536.43
530.77	23531.75
530.94	23606.64
531.11	23608.98
531.28	23513.02
531.46	23534.09
531.63	23480.25
531.80	23873.46
531.97	24041.98
532.14	23882.83
532.31	23953.04
532.48	24163.69
532.65	24276.04
532.82	23929.64
532.99	24107.52
533.16	24100.50
533.33	24240.93
533.50	24264.33
533.67	24229.23
533.84	23861.76
534.01	24081.77
534.18	24105.18
534.35	24418.81
534.52	24435.19
534.69	24540.52
534.86	24449.24
535.03	24517.11
535.20	24362.64
535.37	24409.45
535.54	24535.84
535.71	24472.64
535.88	24638.82
536.05	24627.12
536.22	24774.57
536.38	24814.36
536.55	24788.61
536.72	24746.48
536.89	25048.41
537.06	24657.54
537.23	25099.90
537.40	24903.30
537.57	25017.99
537.74	24870.53
537.91	25111.61
538.08	24959.47
538.25	24907.98
538.42	25020.33
538.59	25392.47
538.75	24973.52
538.92	24985.22
539.09	25415.88
539.26	25331.62
539.43	25235.66
539.60	25195.87
539.77	25436.94
539.94	25369.07
540.11	25050.75
540.28	25493.12
540.44	25294.17
540.61	25287.15
540.78	25816.11
540.95	25270.76
541.12	25717.81
541.29	25322.26
541.46	25720.15
541.62	25734.19
541.79	25696.74
541.96	25317.57
542.13	25605.46
542.30	25886.32
542.47	26618.91
542.63	26087.61
542.80	25582.06
542.97	25764.62
543.14	26265.49
543.31	25713.13
543.48	25944.84
543.64	26405.92
543.81	26476.14
543.98	26436.35
544.15	26309.96
544.32	26820.20
544.48	26408.26
544.65	26307.62
544.82	26214.00
544.99	26340.39
545.16	26319.32
545.32	26251.45
545.49	26962.97
545.66	26698.49
545.83	26590.83
546.00	26483.16
546.16	26455.08
546.33	26654.02
546.50	26431.67
546.67	26525.29
546.83	26204.64
547.00	26450.39
547.17	26459.76
547.34	26672.74
547.50	26899.78
547.67	27082.34
547.84	26955.95
548.00	27070.64
548.17	27419.38
548.34	26881.05
548.51	26867.01
548.67	27180.64
548.84	27131.49
549.01	26792.11
549.18	26705.51
549.34	26958.29
549.51	27077.66
549.68	27197.02
549.84	27208.73
550.01	27232.13
550.18	26792.11
550.34	27178.30
550.51	27442.78
550.68	27175.96
550.84	26977.01
551.01	27218.09
551.18	27072.98
551.34	27166.60
551.51	27356.18
551.68	27866.42
551.84	27749.39
552.01	27496.61
552.18	27522.36
552.34	27449.80
552.51	27814.93
552.68	27033.19
552.84	27611.30
553.01	27454.48
553.18	27639.39
553.34	27372.57
553.51	27735.35
553.67	28079.41
553.84	28105.15
554.01	27953.02
554.17	27552.79
554.34	27854.72
554.51	27557.47
554.67	27901.53
554.84	27821.95
555.00	28105.15
555.17	28058.34
555.33	27868.76
555.50	28151.96
555.67	27833.65
555.83	28091.11
556.00	28191.75
556.16	28367.29
556.33	28009.19
556.50	27922.59
556.66	28390.70
556.83	28201.11
556.99	28067.70
557.16	28177.71
557.32	28395.38
557.49	28254.95
557.65	28119.20
557.82	27880.46
557.98	28041.96
558.15	28301.76
558.32	28273.67
558.48	28470.28
558.65	28357.93
558.81	28781.57
558.98	28367.29
559.14	28294.74
559.31	28259.63
559.47	28395.38
559.64	28060.68
559.80	28559.22
559.97	28769.86
560.13	28629.43
560.30	28868.17
560.46	28339.21
560.63	28725.39
560.79	28575.60
560.96	28484.32
561.12	28613.05
561.29	28800.29
561.45	28423.47
561.61	28599.01
561.78	28629.43
561.94	28863.49
562.11	28650.50
562.27	28811.99
562.44	28964.13
562.60	28208.14
562.77	28842.42
562.93	28526.45
563.10	28767.52
563.26	28652.84
563.42	28793.27
563.59	28683.27
563.75	28709.01
563.92	29083.50
564.08	28638.80
564.24	28776.89
564.41	28680.92
564.57	28718.37
564.74	28617.73
564.90	28926.68
565.07	28931.36
565.23	28889.23
565.39	29043.71
565.56	29118.60
565.72	28982.85
565.88	28622.41
566.05	28828.38
566.21	29146.69
566.38	29364.36
566.54	29081.16
566.70	29521.18
566.87	29160.73
567.03	29230.95
567.19	29874.60
567.36	29298.83
567.52	29001.58
567.68	29041.37
567.85	28933.70
568.01	29109.24
568.17	28882.21
568.34	29340.96
568.50	29163.08
568.66	29284.78
568.83	29188.82
568.99	29071.79
569.15	29165.42
569.32	29134.99
569.48	28713.69
569.64	29118.60
569.81	29352.66
569.97	29359.68
570.13	29212.23
570.30	28980.51
570.46	29214.57
570.62	29652.25
570.78	29507.13
570.95	28835.40
571.11	29350.32
571.27	29172.44
571.43	29020.30
571.60	29408.83
571.76	29413.51
571.92	29589.05
572.09	29645.23
572.25	29436.92
572.41	29228.61
572.57	29296.49
572.74	29570.33
572.90	29015.62
573.06	29085.84
573.22	29340.96
573.38	29163.08
573.55	29088.18
573.71	29511.81
573.87	29731.83
574.03	28865.83
574.20	29584.37
574.36	29223.93
574.52	29268.40
574.68	29172.44
574.84	29619.48
575.01	29780.98
575.17	29441.60
575.33	29558.63
575.49	29537.56
575.65	29502.45
575.82	29663.95
575.98	29619.48
576.14	29448.62
576.30	29827.79
576.46	29399.47
576.62	29689.70
576.79	29713.10
576.95	29359.68
577.11	29453.30
577.27	29329.25
577.43	29663.95
577.59	29481.39
577.75	29429.90
577.92	29338.62
578.08	29493.09
578.24	29422.87
578.40	29528.20
578.56	29331.59
578.72	29645.23
578.88	29654.59
579.04	29940.13
579.21	29567.99
579.37	29572.67
579.53	29446.28
579.69	29628.84
579.85	29717.78
580.01	29472.03
580.17	29465.00
580.33	29450.96
580.49	29860.55
580.65	29493.09
580.82	29582.03
580.98	29614.80
581.14	29521.18
581.30	29567.99
581.46	29771.61
581.62	29514.16
581.78	29326.91
581.94	29619.48
582.10	29582.03
582.26	29685.01
582.42	29579.69
582.58	30068.86
582.74	29890.98
582.90	29413.51
583.06	29858.21
583.22	29755.23
583.38	29502.45
583.54	29511.81
583.70	29439.26
583.86	29853.53
584.02	29104.56
584.18	29909.71
584.34	29879.28
584.50	29940.13
584.66	29415.85
584.82	29610.12
584.98	29535.22
585.14	29542.24
585.30	29790.34
585.46	29453.30
585.62	29392.45
585.78	29699.06
585.94	29523.52
586.10	29874.60
586.26	29638.20
586.42	29830.13
586.58	29806.72
586.74	29450.96
586.90	29834.81
587.06	29682.67
587.22	29652.25
587.38	29677.99
587.54	29972.90
587.70	30010.35
587.86	29888.64
588.02	30054.82
588.18	29645.23
588.34	29886.30
588.49	29806.72
588.65	29759.91
588.81	30047.80
588.97	29977.58
589.13	29881.62
589.29	30019.71
589.45	30129.72
589.61	29771.61
589.77	30513.56
589.93	30267.81
590.08	30684.42
590.24	30333.34
590.40	30071.20
590.56	29558.63
590.72	29972.90
590.88	29490.75
591.04	29818.42
591.20	30057.16
591.35	30478.46
591.51	30417.60
591.67	30204.61
591.83	30457.39
591.99	30618.89
592.15	30307.60
592.31	30113.33
592.46	29633.52
592.62	30209.29
592.78	30101.63
592.94	30300.58
593.10	29956.52
593.26	29888.64
593.41	30501.86
593.57	30295.89
593.73	30345.05
593.89	30323.98
594.05	30110.99
594.20	30078.22
594.36	29839.49
594.52	29919.07
594.68	30171.85
594.84	30354.41
594.99	30120.35
595.15	30092.27
595.31	30518.25
595.47	29860.55
595.62	30775.70
595.78	30087.59
595.94	30045.46
596.10	30024.39
596.25	30099.29
596.41	29979.92
596.57	30085.25
596.73	30415.26
596.88	30171.85
597.04	30459.73
597.20	30572.08
597.36	30237.38
597.51	30260.79
597.67	30206.95
597.83	30305.26
597.99	30321.64
598.14	29930.77
598.30	30331.00
598.46	30038.44
598.61	30089.93
598.77	30052.48
598.93	30368.45
599.09	30527.61
599.24	30471.43
599.40	30380.15
599.56	30806.13
599.71	30415.26
599.87	30225.68
600.03	30368.45
600.18	30052.48
600.34	29778.64
600.50	30183.55
600.65	30361.43
600.81	30656.34
600.97	30742.94
601.12	30281.85
601.28	30225.68
601.44	30471.43
601.59	30099.29
601.75	30480.80
601.91	30520.59
602.06	29937.79
602.22	30286.53
602.37	30251.42
602.53	30632.93
602.69	30780.39
602.84	30637.61
603.00	30424.62
603.16	30300.58
603.31	30405.90
603.47	30253.76
603.62	30316.96
603.78	30293.55
603.94	29975.24
604.09	30253.76
604.25	30033.75
604.40	29951.84
604.56	30506.54
604.71	31023.80
604.87	30096.95
605.03	30300.58
605.18	30597.82
605.34	30316.96
605.49	30127.38
605.65	30490.16
605.80	30157.80
605.96	30286.53
606.12	30380.15
606.27	30101.63
606.43	30052.48
606.58	30052.48
606.74	30457.39
606.89	30445.69
607.05	30345.05
607.20	30232.70
607.36	30380.15
607.51	30555.69
607.67	30260.79
607.82	30012.69
607.98	30307.60
608.13	30333.34
608.29	30223.34
608.44	30103.97
608.60	29762.25
608.75	30384.83
608.91	30431.65
609.06	29898.00
609.22	30387.18
609.37	29570.33
609.53	29979.92
609.68	29888.64
609.84	29582.03
609.99	30050.14
610.15	29720.12
610.30	30061.84
610.46	29773.95
610.61	29933.11
610.76	29795.02
610.92	30085.25
611.07	30232.70
611.23	30118.01
611.38	29647.57
611.54	30059.50
611.69	29825.45
611.84	29474.37
612.00	29841.83
612.15	29907.37
612.31	30433.99
612.46	29703.74
612.62	30211.64
612.77	29989.28
612.92	30197.59
613.08	29797.36
613.23	29846.51
613.39	29914.39
613.54	29764.59
613.69	29944.81
613.85	29378.40
614.00	29750.55
614.15	29720.12
614.31	29888.64
614.46	30185.89
614.62	29553.94
614.77	29799.70
614.92	29818.42
615.08	29663.95
615.23	29570.33
615.38	29902.68
615.54	29542.24
615.69	29500.11
615.84	29827.79
616.00	29383.09
616.15	29324.57
616.30	29532.88
616.46	29771.61
616.61	29656.93
616.76	29670.97
616.92	29544.58
617.07	29479.05
617.22	29371.38
617.37	29488.41
617.53	29331.59
617.68	29287.12
617.83	29315.21
617.99	29254.36
618.14	29008.60
618.29	29387.77
618.45	29331.59
618.60	29125.63
618.75	29324.57
618.90	29291.80
619.06	29443.94
619.21	28917.32
619.36	29736.51
619.51	29315.21
619.67	28961.79
619.82	28781.57
619.97	28884.55
620.12	29008.60
620.28	28744.12
620.43	29310.53
620.58	28844.76
620.73	29149.03
620.89	29282.44
621.04	29415.85
621.19	29020.30
621.34	28863.49
621.49	28826.04
621.65	28826.04
621.80	29149.03
621.95	28861.15
622.10	28891.57
622.25	28781.57
622.41	28931.36
622.56	28865.83
622.71	29254.36
622.86	29032.00
623.01	29366.70
623.16	28613.05
623.32	28615.39
623.47	29057.75
623.62	29113.92
623.77	28863.49
623.92	28648.16
624.07	28570.92
624.23	28643.48
624.38	28896.25
624.53	28725.39
624.68	28811.99
624.83	29228.61
624.98	29034.35
625.13	28297.08
625.29	28931.36
625.44	28580.28
625.59	28627.09
625.74	28732.42
625.89	28334.53
626.04	28423.47
626.19	28283.03
626.34	28418.78
626.49	28379.00
626.65	28341.55
626.80	28463.25
626.95	28238.56
627.10	28788.59
627.25	28203.46
627.40	28276.01
627.55	28393.04
627.70	27960.04
627.85	28149.62
628.00	27957.70
628.15	28449.21
628.30	28287.71
628.45	28215.16
628.60	28332.18
628.76	28369.63
628.91	28173.03
629.06	28236.22
629.21	28353.25
629.36	28381.34
629.51	28123.88
629.66	28238.56
629.81	28156.64
629.96	27927.27
630.11	28006.85
630.26	27962.38
630.41	27999.83
630.56	28034.94
630.71	27992.81
630.86	27814.93
631.01	28025.57
631.16	28140.26
631.31	28107.49
631.46	27688.54
631.61	27964.72
631.76	27985.79
631.91	28025.57
632.06	27796.20
632.21	27861.74
632.36	28133.24
632.51	27545.76
632.66	27892.16
632.81	27669.81
632.96	27704.92
633.10	27981.10
633.25	27501.29
633.40	27990.47
633.55	27693.22
633.70	27601.94
633.85	27136.17
634.00	27391.29
634.15	27496.61
634.30	27529.38
634.45	27569.17
634.60	27758.75
634.75	27339.80
634.90	27377.25
635.05	27627.68
635.19	27440.44
635.34	27761.09
635.49	27733.01
635.64	27550.45
635.79	27393.63
635.94	27276.60
636.09	27468.53
636.24	27021.48
636.39	27300.01
636.53	27342.14
636.68	26544.02
636.83	27365.54
636.98	27505.98
637.13	27016.80
637.28	27372.57
637.43	27367.88
637.57	27122.13
637.72	26955.95
637.87	26906.80
638.02	27229.79
638.17	26920.84
638.32	27110.43
638.46	27161.92
638.61	26794.45
638.76	26759.34
638.91	26794.45
639.06	26895.10
639.20	27143.19
639.35	27204.05
639.50	27072.98
639.65	27110.43
639.80	27190.00
639.94	26820.20
640.09	26962.97
640.24	27314.05
640.39	26719.56
640.54	26534.65
640.68	27084.68
640.83	27033.19
640.98	26775.73
641.13	26471.46
641.27	26686.79
641.42	26703.17
641.57	26499.55
641.72	26962.97
641.86	26700.83
642.01	26483.16
642.16	26551.04
642.31	26352.09
642.45	26647.00
642.60	26527.63
642.75	26544.02
642.90	26555.72
643.04	26792.11
643.19	26794.45
643.34	26712.53
643.48	26586.15
643.63	26417.63
643.78	26778.07
643.93	26324.01
644.07	26309.96
644.22	26539.33
644.37	26412.95
644.51	26387.20
644.66	26600.19
644.81	26382.52
644.95	26080.59
645.10	26087.61
645.25	26197.62
645.39	26284.22
645.54	26237.41
645.69	26373.16
645.83	26258.47
645.98	26129.74
646.13	26099.31
646.27	26370.82
646.42	26401.24
646.57	26251.45
646.71	26288.90
646.86	26230.38
647.00	26188.25
647.15	26452.73
647.30	26244.43
647.44	25958.88
647.59	26223.36
647.74	26057.18
647.88	25596.10
648.03	26394.22
648.17	26363.79
648.32	26050.16
648.47	26260.81
648.61	26204.64
648.76	26221.02
648.90	25860.58
649.05	25713.13
649.20	26106.34
649.34	25841.85
649.49	25867.60
649.63	25556.31
649.78	25638.23
649.92	25708.44
650.07	26122.72
650.21	25923.77
650.36	25902.71
650.51	25628.87
650.65	25827.81
650.80	26033.78
650.94	25706.10
651.09	25628.87
651.23	25312.89
651.38	25797.38
651.52	25535.24
651.67	25336.30
651.81	25858.24
651.96	25687.38
652.10	25310.55
652.25	25607.80
652.39	25582.06
652.54	25607.80
652.68	25883.98
652.83	25874.62
652.97	25790.36
653.12	25530.56
653.26	25371.41
653.41	25392.47
653.55	25259.06
653.70	25200.55
653.84	25214.59
653.99	25427.58
654.13	25284.81
654.27	25598.44
654.42	25357.36
654.56	25390.13
654.71	25010.96
654.85	25462.69
655.00	25270.76
655.14	25348.00
655.29	25174.80
655.43	25383.11
655.57	24964.15
655.72	24957.13
655.86	24989.90
656.01	25247.36
656.15	24961.81
656.30	25209.91
656.44	25214.59
656.58	25233.32
656.73	24697.33
656.87	24797.98
657.01	24898.62
657.16	25022.67
657.30	25029.69
657.45	24847.13
657.59	25092.88
657.73	25146.72
657.88	24870.53
658.02	25085.86
658.16	25001.60
658.31	24931.39
658.45	24664.57
658.60	24247.95
658.74	24533.50
658.88	24652.86
659.03	24702.01
659.17	24622.44
659.31	24449.24
659.46	24638.82
659.60	24863.51
659.74	24687.97
659.89	24233.91
660.03	24474.98
660.17	24517.11
660.32	24407.11
660.46	24231.57
660.60	23983.47
660.74	24173.05
660.89	24355.61
661.03	24201.14
661.17	24233.91
661.32	24252.63
661.46	24467.96
661.60	24226.89
661.74	24060.71
661.89	24313.48
662.03	24477.32
662.17	23981.13
662.31	24018.58
662.46	24261.99
662.60	23995.17
662.74	23791.55
662.88	23859.42
663.03	23620.69
663.17	23749.42
663.31	23513.02
663.45	23777.50
663.60	23400.68
663.74	24070.07
663.88	23686.22
664.02	23655.79
664.17	23651.11
664.31	23365.57
664.45	23655.79
664.59	23562.17
664.73	23653.45
664.88	23513.02
665.02	23239.18
665.16	23293.01
665.30	23353.87
665.44	23438.12
665.59	23056.62
665.73	23440.47
665.87	23073.00
666.01	23054.28
666.15	23424.08
666.29	23583.24
666.44	23021.51
666.58	22860.01
666.72	23016.83
666.86	23346.84
667.00	22850.65
667.14	23208.75
667.28	22843.63
667.43	22595.53
667.57	22642.34
667.71	22874.06
667.85	22651.70
667.99	22948.95
668.13	23007.47
668.27	22499.57
668.41	22993.42
668.56	22799.16
668.70	22874.06
668.84	22588.51
668.98	22525.32
669.12	22586.17
669.26	22466.80
669.40	22263.18
669.54	22712.56
669.68	22459.78
669.82	22616.60
669.96	22405.95
670.10	22614.26
670.25	22487.87
670.39	22113.38
670.53	21818.47
670.67	22045.51
670.81	22207.00
670.95	21984.65
671.09	22178.92
671.23	22043.17
671.37	21947.20
671.51	22253.81
671.65	22230.41
671.79	21930.82
671.93	21898.05
672.07	21958.91
672.21	21692.08
672.35	21673.36
672.49	21446.33
672.63	21610.17
672.77	21652.30
672.91	21462.71
673.05	21558.67
673.19	21696.77
673.33	21085.89
673.47	21399.52
673.61	21479.10
673.75	21231.00
673.89	21575.06
674.03	20933.75
674.17	21184.19
674.31	21205.25
674.45	20828.43
674.59	21139.72
674.73	21242.70
674.87	21329.30
675.01	21027.37
675.15	20519.48
675.29	20645.87
675.43	20800.34
675.56	20805.02
675.70	20833.11
675.84	20678.63
675.98	20432.88
676.12	20666.93
676.26	20966.52
676.40	20889.28
676.54	20503.09
676.68	20372.02
676.82	20016.26
676.96	20423.51
677.10	20093.50
677.23	20152.01
677.37	19957.75
677.51	20070.09
677.65	19901.58
677.79	19683.91
677.93	20077.12
678.07	20102.86
678.21	19564.54
678.34	19520.07
678.48	19360.91
678.62	19599.65
678.76	19480.28
678.90	19407.72
679.04	19414.74
679.18	19454.53
679.31	19094.09
679.45	19082.39
679.59	19154.94
679.73	18948.98
679.87	18946.64
680.00	18965.36
680.14	18953.66
680.28	19122.18
680.42	18796.84
680.56	18932.59
680.70	18883.44
680.83	18707.90
680.97	18808.54
681.11	18787.48
681.25	18782.80
681.39	18841.31
681.52	18586.19
681.66	18387.25
681.80	18256.18
681.94	18537.04
682.07	18221.07
682.21	18384.91
682.35	17965.95
682.49	18029.15
682.62	17855.95
682.76	17654.66
682.90	17724.88
683.04	17844.24
683.17	17933.18
683.31	17874.67
683.45	17909.78
683.59	17575.08
683.72	17624.23
683.86	17827.86
684.00	17628.92
684.13	17689.77
684.27	17647.64
684.41	17202.94
684.55	17174.85
684.68	17071.87
684.82	16812.07
684.96	17060.16
685.09	16505.46
685.23	16915.05
685.37	17062.51
685.50	17085.91
685.64	16863.56
685.78	16809.73
685.91	16781.64
686.05	16737.17
686.19	16788.66
686.32	16861.22
686.46	16358.00
686.60	16121.61
686.73	16231.62
686.87	16369.71
687.01	16301.83
687.14	16343.96
687.28	15948.41
687.42	16051.39
687.55	15932.03
687.69	16145.02
687.82	16161.40
687.96	16105.23
688.10	16128.63
688.23	16285.45
688.37	15784.57
688.50	16137.99
688.64	15878.19
688.78	15697.97
688.91	15623.08
689.05	15665.21
689.18	15534.14
689.32	15225.18
689.46	15606.69
689.59	15653.50
689.73	15302.42
689.86	15176.03
690.00	15264.97
690.13	15014.54
690.27	14956.02
690.41	15110.50
690.54	15054.33
690.68	14878.79
690.81	15101.14
690.95	14822.61
691.08	14998.15
691.22	14871.76
691.35	14616.65
691.49	14572.18
691.62	14651.75
691.76	14686.86
691.89	14525.36
692.03	14291.31
692.16	14143.86
692.30	14387.27
692.43	14181.31
692.57	14202.37
692.70	14181.31
692.84	13982.36
692.97	13965.98
693.11	14012.79
693.24	13991.72
693.38	13923.85
693.51	13752.99
693.65	13884.06
693.78	13631.28
693.92	13671.07
694.05	13713.20
694.19	13549.36
694.32	13483.83
694.45	13179.56
694.59	13549.36
694.72	13261.48
694.86	13076.57
694.99	12987.63
695.13	13247.43
695.26	13282.54
695.39	12987.63
695.53	13170.19
695.66	13027.42
695.80	12772.30
695.93	13053.17
696.07	13043.81
696.20	13078.91
696.33	12746.56
696.47	12741.88
696.60	12762.94
696.73	12421.22
696.87	12657.62
697.00	12587.40
697.14	12472.71
697.27	12208.23
697.40	12070.14
697.54	12145.04
697.67	12250.36
697.80	12224.62
697.94	12030.35
698.07	12100.57
698.21	11845.45
698.34	12147.38
698.47	11936.73
698.61	11974.18
698.74	11831.41
698.87	11950.78
699.01	11733.11
699.14	11583.31
699.27	11611.40
699.40	11646.51
699.54	11714.38
699.67	11424.15
699.80	11702.68
699.94	11461.60
700.07	11492.03
700.20	11204.14
700.34	11176.06
700.47	11218.19
700.60	11192.44
700.73	11246.27
700.87	11089.46
701.00	10939.66
701.13	10895.19
701.26	11117.54
701.40	11154.99
701.53	11215.85
701.66	11030.94
701.79	10787.53
701.93	10731.36
702.06	10698.59
702.19	10429.43
702.32	10501.98
702.46	10518.37
702.59	10457.51
702.72	10443.47
702.85	10310.06
702.99	10377.94
703.12	10225.80
703.25	10331.12
703.38	10115.80
703.51	10356.87
703.65	10291.34
703.78	10052.60
703.91	10099.41
704.04	10022.17
704.17	10249.21
704.31	9996.43
704.44	9921.53
704.57	9811.53
704.70	9820.89
704.83	9886.42
704.96	9544.70
705.10	9769.40
705.23	9699.18
>>>>>End Processed Spectral Data<<<<<
