SpectraSuite Data File
++++++++++++++++++++++++++++++++++++
Date: Fri Oct 18 13:58:27 GMT-05:00 2013
User: bianchi
Dark Spectrum Present: No
Reference Spectrum Present: No
Number of Sampled Component Spectra: 1
Spectrometers: USB2+H05261
Integration Time (usec): 50000 (USB2+H05261)
Spectra Averaged: 1 (USB2+H05261)
Boxcar Smoothing: 0 (USB2+H05261)
Correct for Electrical Dark: No (USB2+H05261)
Strobe/Lamp Enabled: No (USB2+H05261)
Correct for Detector Non-linearity: No (USB2+H05261)
Correct for Stray Light: No (USB2+H05261)
Number of Pixels in Processed Spectrum: 2048
>>>>>Begin Processed Spectral Data<<<<<
365.73	0.00
365.92	0.00
366.12	0.00
366.32	0.00
366.52	0.00
366.72	0.00
366.91	0.00
367.11	0.00
367.31	0.00
367.51	0.00
367.70	0.00
367.90	0.00
368.10	0.00
368.30	0.00
368.49	0.00
368.69	0.00
368.89	0.00
369.09	0.00
369.28	0.00
369.48	0.00
369.68	0.00
369.87	0.00
370.07	0.00
370.27	0.00
370.47	0.00
370.66	98.30
370.86	124.05
371.06	140.43
371.25	112.35
371.45	131.07
371.65	72.56
371.84	142.77
372.04	168.52
372.24	147.45
372.44	208.31
372.63	203.63
372.83	191.92
373.03	168.52
373.22	241.08
373.42	196.60
373.62	276.18
373.81	280.86
374.01	252.78
374.21	145.11
374.40	259.80
374.60	201.29
374.79	227.03
374.99	266.82
375.19	278.52
375.38	280.86
375.58	170.86
375.78	201.29
375.97	187.24
376.17	334.70
376.37	255.12
376.56	259.80
376.76	257.46
376.95	250.44
377.15	227.03
377.35	276.18
377.54	280.86
377.74	297.25
377.93	306.61
378.13	255.12
378.33	262.14
378.52	318.31
378.72	238.73
378.91	304.27
379.11	313.63
379.31	255.12
379.50	287.89
379.70	276.18
379.89	243.42
380.09	311.29
380.28	360.44
380.48	397.89
380.68	346.40
380.87	231.71
381.07	348.74
381.26	351.08
381.46	360.44
381.65	252.78
381.85	339.38
382.04	315.97
382.24	280.86
382.43	353.42
382.63	330.02
382.83	341.72
383.02	287.89
383.22	287.89
383.41	362.78
383.61	330.02
383.80	358.10
384.00	369.80
384.19	395.55
384.39	278.52
384.58	393.21
384.78	292.57
384.97	337.04
385.17	414.27
385.36	407.25
385.56	301.93
385.75	395.55
385.95	390.87
386.14	484.49
386.34	437.68
386.53	416.62
386.72	301.93
386.92	346.40
387.11	444.70
387.31	484.49
387.50	390.87
387.70	376.83
387.89	463.43
388.09	437.68
388.28	355.76
388.48	390.87
388.67	447.04
388.86	358.10
389.06	449.38
389.25	428.32
389.45	531.30
389.64	433.00
389.84	477.47
390.03	484.49
390.22	435.34
390.42	444.70
390.61	484.49
390.81	411.93
391.00	507.90
391.19	491.51
391.39	484.49
391.58	491.51
391.78	458.74
391.97	463.43
392.16	458.74
392.36	505.56
392.55	507.90
392.75	451.72
392.94	519.60
393.13	566.41
393.33	594.50
393.52	578.11
393.71	589.82
393.91	566.41
394.10	514.92
394.29	550.03
394.49	540.66
394.68	622.58
394.88	578.11
395.07	559.39
395.26	550.03
395.46	660.03
395.65	641.31
395.84	653.01
396.04	674.07
396.23	676.41
396.42	629.60
396.62	638.97
396.81	613.22
397.00	660.03
397.19	671.73
397.39	648.33
397.58	599.18
397.77	711.52
397.97	592.16
398.16	610.88
398.35	617.90
398.55	706.84
398.74	802.80
398.93	732.59
399.12	655.35
399.32	631.94
399.51	704.50
399.70	772.38
399.90	741.95
400.09	727.91
400.28	718.54
400.47	683.44
400.67	798.12
400.86	737.27
401.05	767.70
401.24	720.88
401.44	791.10
401.63	786.42
401.82	760.67
402.01	791.10
402.21	861.32
402.40	805.14
402.59	851.96
402.78	870.68
402.97	835.57
403.17	812.17
403.36	805.14
403.55	786.42
403.74	915.15
403.93	945.58
404.13	791.10
404.32	987.71
404.51	896.43
404.70	863.66
404.89	901.11
405.09	924.51
405.28	964.30
405.47	819.19
405.66	992.39
405.85	945.58
406.05	1071.97
406.24	905.79
406.43	1011.11
406.62	1027.50
406.81	1034.52
407.00	983.02
407.20	947.92
407.39	1074.31
407.58	1067.28
407.77	1088.35
407.96	1071.97
408.15	1184.31
408.34	1041.54
408.54	1060.26
408.73	1111.75
408.92	1128.14
409.11	1104.73
409.30	1067.28
409.49	1156.22
409.68	1142.18
409.87	1170.27
410.07	1231.12
410.26	1109.41
410.45	1053.24
410.64	1261.55
410.83	1156.22
411.02	1142.18
411.21	1273.25
411.40	1137.50
411.59	1233.46
411.78	1296.66
411.98	1343.47
412.17	1306.02
412.36	1268.57
412.55	1282.61
412.74	1287.29
412.93	1270.91
413.12	1317.72
413.31	1460.49
413.50	1289.64
413.69	1392.62
413.88	1357.51
414.07	1423.05
414.26	1331.76
414.45	1420.71
414.64	1483.90
414.83	1434.75
415.02	1523.69
415.22	1533.05
415.41	1617.31
415.60	1549.43
415.79	1453.47
415.98	1523.69
416.17	1467.52
416.36	1570.50
416.55	1603.27
416.74	1666.46
416.93	1589.22
417.12	1685.19
417.31	1799.87
417.50	1710.93
417.69	1720.29
417.88	1717.95
418.07	1764.76
418.26	1720.29
418.45	1659.44
418.64	1834.98
418.83	1806.89
419.02	1767.10
419.21	1717.95
419.39	1827.96
419.58	1729.66
419.77	1799.87
419.96	1795.19
420.15	2008.18
420.34	1872.43
420.53	1851.36
420.72	1849.02
420.91	1937.96
421.10	1905.20
421.29	1956.69
421.48	1980.09
421.67	1973.07
421.86	1806.89
422.05	2040.95
422.24	1916.90
422.43	1994.14
422.61	1947.33
422.80	1998.82
422.99	1928.60
423.18	2132.23
423.37	2031.58
423.56	2033.93
423.75	1952.01
423.94	1959.03
424.13	1900.52
424.32	1816.26
424.50	1977.75
424.69	2057.33
424.88	2043.29
425.07	1947.33
425.26	1900.52
425.45	1961.37
425.64	2022.22
425.83	2062.01
426.01	2031.58
426.20	2101.80
426.39	2008.18
426.58	2078.40
426.77	2005.84
426.96	2022.22
427.15	2090.10
427.33	2066.69
427.52	2036.27
427.71	2111.16
427.90	2080.74
428.09	1996.48
428.28	2155.63
428.46	2312.45
428.65	2172.02
428.84	2218.83
429.03	2265.64
429.22	2118.18
429.40	2190.74
429.59	2111.16
429.78	2148.61
429.97	2125.21
430.16	2106.48
430.34	2389.69
430.53	2270.32
430.72	2312.45
430.91	2176.70
431.10	2251.60
431.28	2303.09
431.47	2340.54
431.66	2466.92
431.85	2324.15
432.03	2347.56
432.22	2504.37
432.41	2338.20
432.60	2415.43
432.79	2403.73
432.97	2394.37
433.16	2420.11
433.35	2417.77
433.54	2424.80
433.72	2534.80
433.91	2485.65
434.10	2541.82
434.28	2504.37
434.47	2434.16
434.66	2602.68
434.85	2518.42
435.03	2499.69
435.22	2572.25
435.41	2612.04
435.59	2490.33
435.78	2506.71
435.97	2567.57
436.16	2649.49
436.34	2590.97
436.53	2562.89
436.72	2686.94
436.90	2602.68
437.09	2607.36
437.28	2609.70
437.46	2780.56
437.65	2801.62
437.84	2768.85
438.02	2733.75
438.21	2892.90
438.40	2918.65
438.58	2731.41
438.77	2913.97
438.96	2829.71
439.14	2827.37
439.33	2892.90
439.52	2918.65
439.70	2918.65
439.89	2913.97
440.08	3094.19
440.26	2935.03
440.45	3087.17
440.63	2892.90
440.82	3131.64
441.01	3080.14
441.19	3002.91
441.38	3218.24
441.57	3276.75
441.75	3281.43
441.94	3204.19
442.12	3269.73
442.31	3288.45
442.50	3272.07
442.68	3309.52
442.87	3417.18
443.05	3410.16
443.24	3375.05
443.43	3346.97
443.61	3459.31
443.80	3365.69
443.98	3541.23
444.17	3274.41
444.35	3328.24
444.54	3410.16
444.73	3445.27
444.91	3391.44
445.10	3459.31
445.28	3335.26
445.47	3288.45
445.65	3386.76
445.84	3466.33
446.02	3527.19
446.21	3375.05
446.39	3433.57
446.58	3307.18
446.77	3531.87
446.95	3442.93
447.14	3506.12
447.32	3473.36
447.51	3405.48
447.69	3426.54
447.88	3447.61
448.06	3513.14
448.25	3426.54
448.43	3609.11
448.62	3471.01
448.80	3534.21
448.99	3592.72
449.17	3517.83
449.36	3588.04
449.54	3616.13
449.73	3564.64
449.91	3702.73
450.10	3695.71
450.28	3779.97
450.46	3672.30
450.65	3733.15
450.83	3735.50
451.02	3709.75
451.20	3782.31
451.39	3646.55
451.57	3880.61
451.76	3667.62
451.94	3838.48
452.13	3784.65
452.31	3859.54
452.49	3864.22
452.68	3908.69
452.86	3843.16
453.05	3791.67
453.23	3971.89
453.42	3810.39
453.60	3728.47
453.78	3887.63
453.97	3908.69
454.15	3887.63
454.34	3920.40
454.52	3941.46
454.70	3950.82
454.89	3934.44
455.07	4002.32
455.26	3939.12
455.44	4023.38
455.62	4086.58
455.81	4016.36
455.99	4032.74
456.17	3929.76
456.36	4161.47
456.54	4060.83
456.73	4231.69
456.91	4259.78
457.09	4255.09
457.28	4271.48
457.46	4241.05
457.64	4337.01
457.83	4327.65
458.01	4348.72
458.19	4428.29
458.38	4418.93
458.56	4407.23
458.74	4184.88
458.93	4304.25
459.11	4329.99
459.29	4248.07
459.48	4358.08
459.66	4428.29
459.84	4414.25
460.03	4641.28
460.21	4449.36
460.39	4624.90
460.57	4475.10
460.76	4629.58
460.94	4519.57
461.12	4596.81
461.31	4627.24
461.49	4650.64
461.67	4608.51
461.85	4685.75
462.04	4793.42
462.22	4732.56
462.40	4638.94
462.59	4704.48
462.77	4674.05
462.95	4891.72
463.13	4751.29
463.32	4751.29
463.50	4774.69
463.68	4779.37
463.86	4816.82
464.05	4772.35
464.23	4667.03
464.41	4870.65
464.59	4727.88
464.78	4936.19
464.96	4828.53
465.14	4915.12
465.32	4873.00
465.50	4975.98
465.69	5025.13
465.87	4943.21
466.05	4875.34
466.23	4954.91
466.41	5018.11
466.60	5364.51
466.78	4849.59
466.96	4980.66
467.14	5013.43
467.32	5036.83
467.51	4938.53
467.69	5001.72
467.87	5062.58
468.05	5018.11
468.23	4884.70
468.41	5032.15
468.60	5160.88
468.78	5198.33
468.96	5214.71
469.14	5205.35
469.32	5167.90
469.50	5081.30
469.69	5397.28
469.87	5308.34
470.05	5404.30
470.23	5383.23
470.41	5338.76
470.59	5488.56
470.77	5322.38
470.95	5523.66
471.14	5621.97
471.32	5530.69
471.50	5572.82
471.68	5657.07
471.86	5694.52
472.04	5493.24
472.22	5692.18
472.40	5549.41
472.58	5575.16
472.77	5783.46
472.95	5430.04
473.13	5940.28
473.31	5713.25
473.49	5619.63
473.67	5776.44
473.85	5914.53
474.03	5951.98
474.21	5916.87
474.39	6022.20
474.57	5980.07
474.75	6054.97
474.93	6153.27
475.12	6071.35
475.30	6115.82
475.48	6129.86
475.66	6267.95
475.84	6183.70
476.02	6209.44
476.20	6347.53
476.38	6396.68
476.56	6413.07
476.74	6464.56
476.92	6534.78
477.10	6516.05
477.28	6609.67
477.46	6616.69
477.64	6757.13
477.82	6710.32
478.00	6951.39
478.18	6923.30
478.36	6902.24
478.54	7080.12
478.72	7131.61
478.90	7066.08
479.08	7059.06
479.26	7143.32
479.44	7117.57
479.62	7253.32
479.80	7330.56
479.98	7295.45
480.16	7487.37
480.34	7396.09
480.52	7456.95
480.70	7550.57
480.88	7517.80
481.06	7492.05
481.24	7702.70
481.41	7695.68
481.59	7840.79
481.77	7978.89
481.95	7922.71
482.13	8154.43
482.31	8039.74
482.49	8332.31
482.67	8255.07
482.85	8175.49
483.03	8557.00
483.21	8393.16
483.39	8580.40
483.57	8461.04
483.74	8709.13
483.92	8662.32
484.10	8348.69
484.28	8727.86
484.46	9027.45
484.64	9036.81
484.82	9067.24
485.00	8994.68
485.18	9252.14
485.35	9411.29
485.53	9434.70
485.71	9312.99
485.89	9542.36
486.07	9425.34
486.25	9298.95
486.43	9647.69
486.61	9610.24
486.78	9841.95
486.96	9937.91
487.14	9975.36
487.32	9898.13
487.50	9956.64
487.68	9991.75
487.85	10054.94
488.03	10370.91
488.21	10436.45
488.39	10513.69
488.57	10576.88
488.75	10558.16
488.92	10820.30
489.10	10913.92
489.28	10700.93
489.46	10986.47
489.64	10855.40
489.81	11087.12
489.99	11098.82
490.17	11318.83
490.35	11211.17
490.53	11367.98
490.70	11213.51
490.88	11466.28
491.06	11747.15
491.24	11534.16
491.41	11838.43
491.59	11719.06
491.77	12205.89
491.95	11953.12
492.13	12112.27
492.30	11831.41
492.48	11978.86
492.66	12205.89
492.84	12189.51
493.01	12315.90
493.19	12367.39
493.37	12564.00
493.54	12746.56
493.72	12713.79
493.90	12622.51
494.08	12723.15
494.25	12971.25
494.43	13025.08
494.61	12795.71
494.79	13015.72
494.96	13198.28
495.14	13097.64
495.32	13467.44
495.49	13575.11
495.67	13486.17
495.85	13633.62
496.02	13633.62
496.20	13678.09
496.38	13650.00
496.55	13809.16
496.73	14288.97
496.91	14267.91
497.09	14190.67
497.26	14033.85
497.44	14188.33
497.62	14050.24
497.79	14539.41
497.97	14548.77
498.14	14799.21
498.32	14714.95
498.50	14501.96
498.67	14635.37
498.85	14611.96
499.03	14714.95
499.20	14853.04
499.38	15005.17
499.56	15098.80
499.73	15037.94
499.91	15161.99
500.08	15555.20
500.26	15054.33
500.44	15372.64
500.61	15454.56
500.79	15468.60
500.97	15592.65
501.14	15800.96
501.32	15597.33
501.49	15679.25
501.67	15686.27
501.84	15679.25
502.02	15672.23
502.20	15929.69
502.37	16058.42
502.55	16016.29
502.72	16086.50
502.90	16016.29
503.07	16208.21
503.25	15822.02
503.43	16105.23
503.60	16528.86
503.78	16451.63
503.95	16334.60
504.13	16348.64
504.30	16353.32
504.48	16145.02
504.65	16758.24
504.83	16791.00
505.01	16856.54
505.18	16636.53
505.36	17149.11
505.53	16865.90
505.71	16856.54
505.88	16910.37
506.06	16938.46
506.23	17067.19
506.41	17114.00
506.58	17387.84
506.76	17242.73
506.93	17135.06
507.11	17137.40
507.28	17153.79
507.46	17326.99
507.63	17584.44
507.81	17525.93
507.98	17518.91
508.16	17659.34
508.33	17516.57
508.50	17460.40
508.68	17614.87
508.85	18008.08
509.03	17865.31
509.20	18029.15
509.38	18125.11
509.55	18104.04
509.73	18136.81
509.90	18101.70
510.08	17972.97
510.25	18291.29
510.42	18302.99
510.60	18420.02
510.77	18686.84
510.95	18412.99
511.12	18380.23
511.30	18469.17
511.47	18576.83
511.64	18607.26
511.82	18611.94
511.99	18714.92
512.17	19232.18
512.34	18640.03
512.51	18988.77
512.69	19012.17
512.86	19248.57
513.04	19225.16
513.21	19421.77
513.38	19124.52
513.56	19227.50
513.73	19262.61
513.90	19300.06
514.08	19248.57
514.25	19257.93
514.43	18988.77
514.60	19548.15
514.77	19590.28
514.95	19990.52
515.12	19721.35
515.29	19269.63
515.47	19917.96
515.64	20119.24
515.81	20004.56
515.99	19892.21
516.16	19882.85
516.33	19894.55
516.51	20091.16
516.68	19917.96
516.85	19768.16
517.03	20397.77
517.20	20257.34
517.37	20210.53
517.54	19999.88
517.72	20175.42
517.89	20369.68
518.06	20521.82
518.24	20472.67
518.41	20479.69
518.58	20503.09
518.75	20285.42
518.93	20620.12
519.10	20467.98
519.27	20727.78
519.45	20638.84
519.62	20659.91
519.79	20659.91
519.96	20599.05
520.14	20865.88
520.31	21106.95
520.48	21041.42
520.65	20971.20
520.83	21252.06
521.00	21081.21
521.17	21144.40
521.34	21048.44
521.52	21158.44
521.69	21406.54
521.86	21696.77
522.03	21514.20
522.20	21610.17
522.38	21818.47
522.55	21568.04
522.72	21661.66
522.89	21579.74
523.07	21783.37
523.24	21656.98
523.41	22071.25
523.58	21656.98
523.75	21991.67
523.92	21811.45
524.10	21902.73
524.27	22127.42
524.44	22094.66
524.61	22127.42
524.78	22284.24
524.96	22380.20
525.13	22052.53
525.30	22384.88
525.47	22494.89
525.64	22429.35
525.81	22616.60
525.98	22850.65
526.16	22656.39
526.33	22288.92
526.50	22707.88
526.67	22345.09
526.84	22539.36
527.01	22644.68
527.18	22651.70
527.36	22668.09
527.53	22693.83
527.70	23005.13
527.87	22820.22
528.04	23070.66
528.21	22890.44
528.38	22789.80
528.55	23016.83
528.72	23049.60
528.89	23096.41
529.07	23384.29
529.24	23264.92
529.41	23501.32
529.58	23269.61
529.75	23206.41
529.92	23068.32
530.09	23332.80
530.26	23335.14
530.43	23185.35
530.60	23506.00
530.77	23304.71
530.94	23536.43
531.11	23344.50
531.28	23463.87
531.46	23634.73
531.63	23576.22
531.80	23672.18
531.97	23765.80
532.14	23943.68
532.31	23508.34
532.48	24016.24
532.65	23997.51
532.82	23653.45
532.99	23967.09
533.16	23857.08
533.33	24011.56
533.50	24540.52
533.67	24091.13
533.84	23894.53
534.01	24278.38
534.18	24156.67
534.35	24212.84
534.52	24149.65
534.69	24545.20
534.86	24411.79
535.03	24105.18
535.20	24491.37
535.37	24269.01
535.54	24575.62
535.71	24222.20
535.88	24709.04
536.05	24259.65
536.22	24720.74
536.38	24577.97
536.55	24716.06
536.72	24713.72
536.89	24444.56
537.06	24648.18
537.23	24835.42
537.40	24842.45
537.57	24809.68
537.74	25127.99
537.91	24959.47
538.08	25025.01
538.25	24943.09
538.42	25090.54
538.59	24973.52
538.75	24765.21
538.92	25317.57
539.09	24755.85
539.26	25275.45
539.43	25242.68
539.60	25144.38
539.77	25261.40
539.94	25458.01
540.11	24933.73
540.28	25483.75
540.44	24943.09
540.61	25092.88
540.78	25511.84
540.95	25303.53
541.12	25460.35
541.29	25556.31
541.46	25404.17
541.62	25479.07
541.79	25383.11
541.96	25135.01
542.13	25600.78
542.30	25764.62
542.47	25764.62
542.63	25736.53
542.80	25914.41
542.97	26181.23
543.14	26155.49
543.31	25972.92
543.48	25813.77
543.64	26197.62
543.81	26347.41
543.98	26146.12
544.15	26265.49
544.32	26188.25
544.48	26389.54
544.65	26106.34
544.82	26497.20
544.99	26094.63
545.16	25961.22
545.32	26059.52
545.49	26422.31
545.66	26567.42
545.83	26539.33
546.00	26565.08
546.16	26707.85
546.33	26052.50
546.50	26010.37
546.67	26298.26
546.83	26197.62
547.00	26459.76
547.17	26450.39
547.34	26501.89
547.50	27033.19
547.67	27075.32
547.84	26813.18
548.00	26480.82
548.17	26644.66
548.34	26848.29
548.51	26579.12
548.67	27056.59
548.84	27080.00
549.01	26920.84
549.18	26855.31
549.34	26848.29
549.51	27058.93
549.68	27033.19
549.84	26813.18
550.01	26955.95
550.18	26789.77
550.34	26785.09
550.51	27323.41
550.68	27271.92
550.84	27082.34
551.01	27241.50
551.18	27267.24
551.34	26785.09
551.51	27199.37
551.68	27328.10
551.84	27358.52
552.01	27318.73
552.18	27779.82
552.34	26925.52
552.51	27367.88
552.68	27250.86
552.84	27351.50
553.01	27463.85
553.18	27108.08
553.34	27440.44
553.51	27395.97
553.67	27683.86
553.84	27854.72
554.01	27988.13
554.17	27690.88
554.34	27676.83
554.51	27639.39
554.67	27821.95
554.84	27513.00
555.00	27931.95
555.17	27988.13
555.33	28013.87
555.50	27667.47
555.67	27875.78
555.83	27398.31
556.00	27573.85
556.16	28182.39
556.33	28102.81
556.50	27686.20
556.66	28023.23
556.83	28151.96
556.99	28004.51
557.16	27770.46
557.32	28386.02
557.49	28308.78
557.65	27606.62
557.82	28189.41
557.98	27840.67
558.15	27983.44
558.32	27957.70
558.48	28163.67
558.65	28538.15
558.81	28257.29
558.98	28341.55
559.14	28123.88
559.31	28355.59
559.47	28264.31
559.64	28114.52
559.80	28030.26
559.97	28187.07
560.13	28393.04
560.30	28105.15
560.46	28666.88
560.63	28467.94
560.79	27957.70
560.96	28627.09
561.12	28297.08
561.29	28519.43
561.45	28432.83
561.61	28526.45
561.78	28720.71
561.94	28322.82
562.11	28767.52
562.27	28680.92
562.44	28596.67
562.60	28332.18
562.77	28517.09
562.93	28514.75
563.10	28739.44
563.26	28830.72
563.42	28493.68
563.59	28650.50
563.75	28826.04
563.92	28727.74
564.08	28514.75
564.24	28554.54
564.41	28512.41
564.57	28458.57
564.74	28446.87
564.90	28732.42
565.07	28472.62
565.23	28788.59
565.39	28893.91
565.56	28659.86
565.72	28484.32
565.88	29017.96
566.05	28631.77
566.21	28751.14
566.38	28329.84
566.54	28706.67
566.70	28776.89
566.87	29324.57
567.03	28634.11
567.19	29235.63
567.36	29359.68
567.52	28746.46
567.68	28952.43
567.85	28624.75
568.01	28847.10
568.17	28641.14
568.34	29235.63
568.50	29207.55
568.66	28907.96
568.83	29429.90
568.99	29158.39
569.15	29298.83
569.32	29158.39
569.48	28823.70
569.64	28870.51
569.81	28891.57
569.97	28896.25
570.13	29266.06
570.30	28943.06
570.46	28954.77
570.62	28926.68
570.78	29001.58
570.95	29078.82
571.11	28966.47
571.27	28893.91
571.43	29010.94
571.60	28940.72
571.76	29200.52
571.92	28996.90
572.09	29266.06
572.25	29261.38
572.41	29273.08
572.57	28912.64
572.74	29441.60
572.90	29184.14
573.06	29020.30
573.22	29123.29
573.38	29326.91
573.55	29111.58
573.71	29244.99
573.87	29455.64
574.03	29111.58
574.20	29191.16
574.36	29184.14
574.52	29252.02
574.68	29490.75
574.84	29303.51
575.01	29106.90
575.17	29589.05
575.33	29345.64
575.49	29252.02
575.65	29556.28
575.82	29343.30
575.98	28858.81
576.14	29422.87
576.30	29172.44
576.46	29322.23
576.62	29209.89
576.79	29556.28
576.95	29333.93
577.11	29624.16
577.27	29481.39
577.43	29811.40
577.59	29043.71
577.75	29591.39
577.92	28992.22
578.08	28833.06
578.24	29415.85
578.40	29254.36
578.56	29450.96
578.72	29392.45
578.88	29949.50
579.04	29266.06
579.21	29556.28
579.37	29343.30
579.53	29282.44
579.69	29167.76
579.85	29542.24
580.01	29514.16
580.17	29420.53
580.33	28985.19
580.49	29460.32
580.65	29642.88
580.82	29397.13
580.98	29436.92
581.14	29427.56
581.30	29488.41
581.46	29312.87
581.62	29502.45
581.78	29291.80
581.94	29572.67
582.10	29448.62
582.26	29064.77
582.42	29188.82
582.58	29741.19
582.74	29907.37
582.90	29387.77
583.06	29507.13
583.22	29465.00
583.38	29455.64
583.54	29638.20
583.70	29039.03
583.86	29345.64
584.02	29488.41
584.18	29752.89
584.34	29544.58
584.50	29462.66
584.66	29647.57
584.82	29312.87
584.98	29270.74
585.14	29266.06
585.30	29579.69
585.46	29567.99
585.62	29542.24
585.78	29816.08
585.94	29448.62
586.10	29507.13
586.26	29525.86
586.42	29741.19
586.58	29570.33
586.74	29436.92
586.90	29689.70
587.06	29497.77
587.22	29518.84
587.38	29649.91
587.54	29827.79
587.70	29832.47
587.86	29284.78
588.02	29457.98
588.18	29914.39
588.34	29855.87
588.49	29544.58
588.65	29207.55
588.81	29848.85
588.97	30080.56
589.13	29628.84
589.29	29837.15
589.45	29839.49
589.61	29813.74
589.77	29790.34
589.93	29944.81
590.08	30068.86
590.24	29928.43
590.40	30101.63
590.56	29802.04
590.72	29624.16
590.88	29490.75
591.04	29830.13
591.20	30422.28
591.35	30279.51
591.51	30384.83
591.67	30157.80
591.83	30033.75
591.99	29905.02
592.15	29975.24
592.31	29942.47
592.46	29668.63
592.62	29792.68
592.78	29572.67
592.94	29280.10
593.10	30103.97
593.26	29675.65
593.41	30237.38
593.57	30000.99
593.73	30040.78
593.89	29935.45
594.05	30029.07
594.20	30118.01
594.36	29766.93
594.52	29890.98
594.68	29921.41
594.84	29972.90
594.99	29560.97
595.15	29951.84
595.31	29883.96
595.47	30555.69
595.62	30047.80
595.78	29862.90
595.94	30073.54
596.10	30008.01
596.25	29654.59
596.41	30008.01
596.57	29617.14
596.73	30017.37
596.88	29874.60
597.04	29776.30
597.20	29972.90
597.36	29752.89
597.51	30064.18
597.67	29951.84
597.83	29928.43
597.99	29979.92
598.14	29659.27
598.30	29879.28
598.46	30019.71
598.61	30096.95
598.77	30230.36
598.93	30298.23
599.09	29942.47
599.24	30424.62
599.40	30185.89
599.56	30183.55
599.71	30206.95
599.87	29949.50
600.03	29675.65
600.18	29722.46
600.34	29942.47
600.50	29909.71
600.65	30305.26
600.81	29961.20
600.97	29895.66
601.12	30543.99
601.28	30309.94
601.44	30239.72
601.59	30382.49
601.75	30068.86
601.91	30174.19
602.06	30106.31
602.22	29853.53
602.37	30038.44
602.53	29909.71
602.69	30181.21
602.84	29883.96
603.00	30237.38
603.16	30068.86
603.31	30396.54
603.47	30122.69
603.62	29951.84
603.78	30122.69
603.94	29809.06
604.09	30401.22
604.25	30061.84
604.40	29818.42
604.56	29832.47
604.71	30445.69
604.87	30167.16
605.03	30293.55
605.18	30246.74
605.34	30047.80
605.49	30394.20
605.65	30228.02
605.80	29888.64
605.96	29902.68
606.12	29619.48
606.27	30068.86
606.43	29898.00
606.58	30096.95
606.74	29991.62
606.89	30244.40
607.05	30022.05
607.20	30405.90
607.36	30190.57
607.51	30036.09
607.67	30050.14
607.82	29488.41
607.98	29928.43
608.13	29586.71
608.29	30190.57
608.44	30148.44
608.60	30066.52
608.75	30235.04
608.91	30087.59
609.06	30085.25
609.22	29876.94
609.37	29605.44
609.53	30052.48
609.68	29656.93
609.84	29565.65
609.99	29642.88
610.15	29589.05
610.30	29809.06
610.46	29427.56
610.61	29490.75
610.76	29804.38
610.92	29780.98
611.07	29743.53
611.23	29256.70
611.38	30017.37
611.54	29785.66
611.69	29544.58
611.84	29436.92
612.00	29603.10
612.15	29174.78
612.31	29750.55
612.46	29516.50
612.62	29851.19
612.77	29518.84
612.92	30118.01
613.08	29457.98
613.23	29481.39
613.39	29764.59
613.54	29041.37
613.69	29582.03
613.85	29511.81
614.00	29326.91
614.15	29355.00
614.31	29504.79
614.46	29113.92
614.62	29336.27
614.77	29378.40
614.92	29600.76
615.08	29895.66
615.23	29127.97
615.38	29467.34
615.54	29291.80
615.69	29034.35
615.84	29174.78
616.00	29383.09
616.15	29083.50
616.30	29612.46
616.46	29619.48
616.61	29425.22
616.76	29291.80
616.92	29582.03
617.07	29336.27
617.22	29212.23
617.37	28816.68
617.53	29617.14
617.68	29553.94
617.83	28891.57
617.99	29254.36
618.14	29050.73
618.29	29319.89
618.45	29408.83
618.60	29284.78
618.75	29200.52
618.90	29249.67
619.06	28809.65
619.21	29345.64
619.36	29324.57
619.51	29055.41
619.67	28608.37
619.82	28709.01
619.97	28996.90
620.12	28987.53
620.28	28666.88
620.43	29268.40
620.58	29111.58
620.73	29081.16
620.89	28910.30
621.04	28882.21
621.19	28924.34
621.34	29032.00
621.49	28716.03
621.65	28842.42
621.80	28655.18
621.95	28465.60
622.10	28854.12
622.25	28526.45
622.41	28613.05
622.56	28779.23
622.71	29106.90
622.86	28863.49
623.01	28692.63
623.16	28376.66
623.32	28570.92
623.47	28858.81
623.62	28517.09
623.77	28641.14
623.92	28493.68
624.07	28470.28
624.23	28533.47
624.38	28627.09
624.53	28713.69
624.68	28346.23
624.83	28669.22
624.98	28479.64
625.13	28463.25
625.29	28676.24
625.44	28758.16
625.59	28694.97
625.74	28205.80
625.89	28369.63
626.04	28425.81
626.19	28348.57
626.34	27927.27
626.49	28285.37
626.65	28201.11
626.80	28123.88
626.95	28044.30
627.10	28285.37
627.25	28119.20
627.40	27800.88
627.55	28161.33
627.70	28011.53
627.85	27751.73
628.00	27894.50
628.15	27995.15
628.30	28046.64
628.45	27985.79
628.60	28053.66
628.76	27960.04
628.91	27702.58
629.06	27936.63
629.21	27431.08
629.36	27789.18
629.51	27868.76
629.66	27850.03
629.81	27569.17
629.96	27763.43
630.11	27534.06
630.26	27861.74
630.41	27508.32
630.56	27388.95
630.71	28201.11
630.86	28009.19
631.01	27307.03
631.16	27681.52
631.31	27910.89
631.46	27494.27
631.61	27454.48
631.76	27555.13
631.91	27534.06
632.06	27300.01
632.21	27538.74
632.36	27065.96
632.51	27208.73
632.66	27632.36
632.81	27402.99
632.96	27154.90
633.10	27166.60
633.25	27353.84
633.40	27541.08
633.55	27255.54
633.70	27264.90
633.85	27564.49
634.00	27311.71
634.15	27112.77
634.30	27285.97
634.45	27171.28
634.60	27290.65
634.75	27187.66
634.90	27346.82
635.05	27080.00
635.19	26951.27
635.34	27456.82
635.49	27257.88
635.64	27091.70
635.79	27054.25
635.94	26998.08
636.09	27438.10
636.24	27126.81
636.39	27262.56
636.53	26946.59
636.68	26794.45
636.83	27133.83
636.98	27187.66
637.13	27129.15
637.28	27117.45
637.43	27220.43
637.57	27124.47
637.72	27131.49
637.87	26864.67
638.02	27103.40
638.17	26764.03
638.32	27131.49
638.46	26827.22
638.61	26349.75
638.76	26649.34
638.91	26567.42
639.06	26822.54
639.20	26654.02
639.35	26218.68
639.50	26682.11
639.65	26677.43
639.80	26675.09
639.94	26398.90
640.09	26848.29
640.24	26686.79
640.39	26698.49
640.54	26384.86
640.68	26649.34
640.83	26394.22
640.98	26541.68
641.13	26029.10
641.27	26878.71
641.42	26277.19
641.57	26396.56
641.72	26359.11
641.86	26546.36
642.01	26274.85
642.16	26101.65
642.31	26214.00
642.45	26335.71
642.60	26373.16
642.75	26108.68
642.90	26085.27
643.04	26045.48
643.19	26052.50
643.34	26455.08
643.48	25905.05
643.63	26305.28
643.78	26115.70
643.93	26590.83
644.07	26136.76
644.22	26293.58
644.37	26174.21
644.51	26314.64
644.66	26174.21
644.81	26384.86
644.95	26057.18
645.10	25972.92
645.25	25982.29
645.39	25989.31
645.54	26349.75
645.69	25703.76
645.83	26085.27
645.98	26284.22
646.13	26059.52
646.27	26293.58
646.42	26281.88
646.57	26302.94
646.71	26031.44
646.86	25979.95
647.00	26239.75
647.15	25865.26
647.30	25631.21
647.44	25694.40
647.59	25481.41
647.74	25701.42
647.88	25692.06
648.03	25818.45
648.17	25750.57
648.32	25820.79
648.47	25656.95
648.61	26057.18
648.76	25727.17
648.90	25507.16
649.05	25778.66
649.20	25928.45
649.34	25333.96
649.49	25462.69
649.63	25647.59
649.78	25177.14
649.92	25706.10
650.07	25764.62
650.21	25577.37
650.36	25764.62
650.51	25790.36
650.65	25663.97
650.80	25626.53
650.94	25937.82
651.09	25401.83
651.23	25446.30
651.38	25226.29
651.52	25177.14
651.67	25448.64
651.81	25710.78
651.96	25399.49
652.10	25579.71
652.25	25392.47
652.39	25556.31
652.54	25324.60
652.68	25055.43
652.83	25275.45
652.97	25680.36
653.12	25369.07
653.26	25240.34
653.41	25329.28
653.55	25104.59
653.70	25039.05
653.84	25186.50
653.99	24882.24
654.13	24851.81
654.27	25123.31
654.42	25067.14
654.56	25156.08
654.71	24854.15
654.85	24966.49
655.00	25020.33
655.14	25074.16
655.29	25266.08
655.43	25282.47
655.57	25025.01
655.72	24889.26
655.86	25050.75
656.01	25010.96
656.15	24687.97
656.30	24758.19
656.44	24819.04
656.58	24690.31
656.73	24814.36
656.87	24683.29
657.01	24872.87
657.16	24783.93
657.30	24868.19
657.45	24797.98
657.59	24978.20
657.73	24819.04
657.88	24870.53
658.02	24493.71
658.16	24636.48
658.31	24411.79
658.45	24166.03
658.60	24297.10
658.74	24372.00
658.88	24528.81
659.03	24322.85
659.17	24512.43
659.31	24531.15
659.46	24175.39
659.60	24203.48
659.74	24734.78
659.89	24439.87
660.03	24180.07
660.17	24477.32
660.32	23690.90
660.46	24144.97
660.60	24170.71
660.74	23868.78
660.89	23903.89
661.03	24020.92
661.17	23779.84
661.32	24194.12
661.46	24098.16
661.60	23908.57
661.74	24154.33
661.89	23915.59
662.03	23969.43
662.17	23793.89
662.31	23906.23
662.46	23798.57
662.60	23953.04
662.74	23798.57
662.88	23564.51
663.03	23426.42
663.17	23421.74
663.31	23353.87
663.45	23171.30
663.60	23384.29
663.74	23318.76
663.88	23494.30
664.02	23073.00
664.17	23641.75
664.31	23215.77
664.45	23421.74
664.59	23461.53
664.73	23498.98
664.88	23220.45
665.02	22906.82
665.16	23108.11
665.30	23173.64
665.44	22981.72
665.59	22869.37
665.73	22813.20
665.87	23122.15
666.01	22937.25
666.15	23201.73
666.29	23250.88
666.44	22813.20
666.58	22675.11
666.72	22808.52
666.86	22742.99
667.00	22712.56
667.14	22815.54
667.28	22824.90
667.43	22831.93
667.57	22948.95
667.71	23009.81
667.85	22773.41
667.99	22356.80
668.13	22609.58
668.27	22396.59
668.41	22661.07
668.56	22314.67
668.70	22567.45
668.84	22286.58
668.98	22532.34
669.12	22466.80
669.26	22457.44
669.40	22015.08
669.54	22532.34
669.68	22125.08
669.82	22001.04
669.96	22015.08
670.10	21986.99
670.25	21996.35
670.39	21668.68
670.53	21790.39
670.67	21797.41
670.81	22019.76
670.95	21937.84
671.09	21972.95
671.23	21806.77
671.37	22111.04
671.51	21493.14
671.65	21820.81
671.79	21755.28
671.93	21408.88
672.07	21525.91
672.21	21331.64
672.35	21394.84
672.49	21572.72
672.63	21074.18
672.77	21146.74
672.91	21216.96
673.05	21266.11
673.19	21193.55
673.33	21172.49
673.47	21015.67
673.61	21125.68
673.75	21525.91
673.89	21102.27
674.03	21186.53
674.17	20767.57
674.31	21113.97
674.45	20823.75
674.59	20959.50
674.73	21088.23
674.87	20685.65
675.01	20400.11
675.15	20716.08
675.29	20479.69
675.43	20416.49
675.56	20510.11
675.70	20758.21
675.84	20542.88
675.98	19967.11
676.12	20503.09
676.26	20496.07
676.40	20372.02
676.54	20170.74
676.68	20355.64
676.82	19814.98
676.96	20102.86
677.10	19941.36
677.23	20100.52
677.37	19527.09
677.51	19927.32
677.65	19878.17
677.79	19529.43
677.93	19592.62
678.07	19316.44
678.21	19491.98
678.34	19475.60
678.48	19154.94
678.62	19482.62
678.76	19173.67
678.90	19440.49
679.04	19246.23
679.18	19014.51
679.31	19297.72
679.45	18979.40
679.59	18869.40
679.73	18829.61
679.87	18703.22
680.00	18909.19
680.14	18881.10
680.28	18686.84
680.42	18611.94
680.56	18677.48
680.70	18658.75
680.83	18806.20
680.97	18457.46
681.11	18436.40
681.25	18541.72
681.39	18427.04
681.52	18441.08
681.66	18087.66
681.80	18127.45
681.94	18005.74
682.07	18228.09
682.21	17788.07
682.35	17982.34
682.49	17900.42
682.62	17752.96
682.76	17661.68
682.90	17675.73
683.04	17635.94
683.17	17902.76
683.31	17551.68
683.45	17376.14
683.59	17366.78
683.72	17425.29
683.86	17385.50
684.00	17521.25
684.13	17345.71
684.27	17266.13
684.41	17177.19
684.55	17067.19
684.68	16905.69
684.82	16702.06
684.96	17022.72
685.09	16732.49
685.23	16706.74
685.37	16945.48
685.50	16840.15
685.64	16812.07
685.78	16662.27
685.91	16676.32
686.05	16723.13
686.19	16386.09
686.32	16755.90
686.46	16304.17
686.60	15943.73
686.73	16547.59
686.87	15967.13
687.01	16140.33
687.14	15920.32
687.28	16091.18
687.42	15917.98
687.55	15978.84
687.69	15763.51
687.82	15833.72
687.96	15953.09
688.10	15728.40
688.23	15845.43
688.37	15777.55
688.50	15421.79
688.64	15819.68
688.78	15377.32
688.91	15379.66
689.05	15372.64
689.18	15311.78
689.32	14991.13
689.46	14899.85
689.59	15447.54
689.73	14995.81
689.86	15005.17
690.00	15143.27
690.13	14860.06
690.27	15311.78
690.41	14988.79
690.54	14864.74
690.68	14857.72
690.81	14682.18
690.95	14747.72
691.08	14974.75
691.22	14775.80
691.35	14766.44
691.49	14501.96
691.62	14532.39
691.76	14438.76
691.89	14303.01
692.03	14216.41
692.16	13951.93
692.30	13914.48
692.43	14260.88
692.57	14230.46
692.70	13727.24
692.84	13877.04
692.97	13862.99
693.11	13877.04
693.24	13940.23
693.38	13781.07
693.51	13511.91
693.65	13708.52
693.78	13551.70
693.92	13612.56
694.05	13561.06
694.19	13556.38
694.32	13451.06
694.45	13226.37
694.59	13242.75
694.72	13039.12
694.86	12954.87
694.99	12781.67
695.13	12950.18
695.26	13036.78
695.39	12776.98
695.53	13022.74
695.66	12929.12
695.80	12959.55
695.93	12945.50
696.07	12678.68
696.20	12732.51
696.33	12690.38
696.47	12601.44
696.60	12599.10
696.73	12489.10
696.87	12166.10
697.00	12451.65
697.14	12203.55
697.27	12056.10
697.40	12259.73
697.54	12175.47
697.67	12077.16
697.80	11887.58
697.94	11950.78
698.07	11885.24
698.21	11843.11
698.34	11873.54
698.47	11789.28
698.61	11777.58
698.74	11894.60
698.87	11875.88
699.01	11501.39
699.14	11611.40
699.27	11578.63
699.40	11679.27
699.54	11595.01
699.67	11295.43
699.80	11492.03
699.94	11459.26
700.07	11339.90
700.20	11037.97
700.34	11105.84
700.47	11337.56
700.60	11049.67
700.73	11157.33
700.87	11145.63
701.00	11145.63
701.13	11033.29
701.26	10932.64
701.40	10942.00
701.53	10761.78
701.66	10829.66
701.79	10565.18
701.93	10724.33
702.06	10663.48
702.19	10319.42
702.32	10705.61
702.46	10537.09
702.59	10368.57
702.72	10298.36
702.85	10202.40
702.99	10174.31
703.12	10085.37
703.25	10296.02
703.38	9951.96
703.51	10136.86
703.65	10164.95
703.78	10047.92
703.91	9823.23
704.04	10160.27
704.17	10054.94
704.31	9654.71
704.44	9764.72
704.57	9839.61
704.70	9675.77
704.83	9565.77
704.96	9376.19
705.10	9544.70
705.23	9338.74
>>>>>End Processed Spectral Data<<<<<
