SpectraSuite Data File
++++++++++++++++++++++++++++++++++++
Date: Fri Oct 18 13:58:00 GMT-05:00 2013
User: bianchi
Dark Spectrum Present: No
Reference Spectrum Present: No
Number of Sampled Component Spectra: 1
Spectrometers: USB2+H05261
Integration Time (usec): 50000 (USB2+H05261)
Spectra Averaged: 1 (USB2+H05261)
Boxcar Smoothing: 0 (USB2+H05261)
Correct for Electrical Dark: No (USB2+H05261)
Strobe/Lamp Enabled: No (USB2+H05261)
Correct for Detector Non-linearity: No (USB2+H05261)
Correct for Stray Light: No (USB2+H05261)
Number of Pixels in Processed Spectrum: 2048
>>>>>Begin Processed Spectral Data<<<<<
365.73	0.00
365.92	0.00
366.12	0.00
366.32	0.00
366.52	0.00
366.72	0.00
366.91	0.00
367.11	0.00
367.31	0.00
367.51	0.00
367.70	0.00
367.90	0.00
368.10	0.00
368.30	0.00
368.49	0.00
368.69	0.00
368.89	0.00
369.09	0.00
369.28	0.00
369.48	0.00
369.68	0.00
369.87	0.00
370.07	0.00
370.27	0.00
370.47	0.00
370.66	117.03
370.86	138.09
371.06	131.07
371.25	126.39
371.45	72.56
371.65	154.48
371.84	105.32
372.04	159.16
372.24	149.79
372.44	138.09
372.63	184.90
372.83	159.16
373.03	196.60
373.22	257.46
373.42	205.97
373.62	166.18
373.81	168.52
374.01	205.97
374.21	210.65
374.40	234.05
374.60	196.60
374.79	234.05
374.99	297.25
375.19	227.03
375.38	198.95
375.58	262.14
375.78	255.12
375.97	259.80
376.17	259.80
376.37	234.05
376.56	269.16
376.76	231.71
376.95	259.80
377.15	215.33
377.35	210.65
377.54	255.12
377.74	236.39
377.93	315.97
378.13	290.23
378.33	299.59
378.52	304.27
378.72	287.89
378.91	325.33
379.11	290.23
379.31	224.69
379.50	327.68
379.70	299.59
379.89	278.52
380.09	304.27
380.28	262.14
380.48	299.59
380.68	248.10
380.87	304.27
381.07	278.52
381.26	383.85
381.46	360.44
381.65	332.36
381.85	283.20
382.04	353.42
382.24	358.10
382.43	437.68
382.63	400.23
382.83	308.95
383.02	393.21
383.22	355.76
383.41	372.15
383.61	355.76
383.80	454.06
384.00	346.40
384.19	304.27
384.39	402.57
384.58	313.63
384.78	372.15
384.97	367.46
385.17	416.62
385.36	369.80
385.56	376.83
385.75	334.70
385.95	414.27
386.14	428.32
386.34	428.32
386.53	379.17
386.72	360.44
386.92	468.11
387.11	454.06
387.31	386.19
387.50	430.66
387.70	395.55
387.89	367.46
388.09	400.23
388.28	470.45
388.48	510.24
388.67	418.96
388.86	447.04
389.06	388.53
389.25	538.32
389.45	409.59
389.64	512.58
389.84	477.47
390.03	458.74
390.22	524.28
390.42	519.60
390.61	470.45
390.81	421.30
391.00	514.92
391.19	456.40
391.39	437.68
391.58	528.96
391.78	496.19
391.97	589.82
392.16	535.98
392.36	514.92
392.55	557.05
392.75	468.11
392.94	564.07
393.13	479.81
393.33	554.71
393.52	547.69
393.71	578.11
393.91	524.28
394.10	585.13
394.29	538.32
394.49	608.54
394.68	552.37
394.88	606.20
395.07	608.54
395.26	674.07
395.46	587.47
395.65	622.58
395.84	674.07
396.04	615.56
396.23	624.92
396.42	685.78
396.62	713.86
396.81	660.03
397.00	559.39
397.19	657.69
397.39	657.69
397.58	755.99
397.77	578.11
397.97	737.27
398.16	718.54
398.35	788.76
398.55	676.41
398.74	690.46
398.93	734.93
399.12	660.03
399.32	739.61
399.51	727.91
399.70	732.59
399.90	648.33
400.09	777.06
400.28	812.17
400.47	744.29
400.67	870.68
400.86	812.17
401.05	816.85
401.24	765.36
401.44	781.74
401.63	805.14
401.82	763.01
402.01	812.17
402.21	896.43
402.40	847.27
402.59	805.14
402.78	844.93
402.97	931.53
403.17	880.04
403.36	837.91
403.55	938.55
403.74	971.32
403.93	875.36
404.13	931.53
404.32	931.53
404.51	910.47
404.70	898.77
404.89	908.13
405.09	973.66
405.28	999.41
405.47	1015.79
405.66	987.71
405.85	915.15
406.05	938.55
406.24	994.73
406.43	994.73
406.62	959.62
406.81	917.49
407.00	1011.11
407.20	922.17
407.39	994.73
407.58	1109.41
407.77	1039.20
407.96	1104.73
408.15	1022.81
408.34	1064.94
408.54	1048.56
408.73	1057.92
408.92	1081.33
409.11	1156.22
409.30	1083.67
409.49	1146.86
409.68	1071.97
409.87	1156.22
410.07	1111.75
410.26	1130.48
410.45	1217.08
410.64	1228.78
410.83	1139.84
411.02	1266.23
411.21	1177.29
411.40	1228.78
411.59	1331.76
411.78	1172.61
411.98	1221.76
412.17	1352.83
412.36	1350.49
412.55	1467.52
412.74	1378.58
412.93	1341.13
413.12	1287.29
413.31	1350.49
413.50	1378.58
413.69	1371.55
413.88	1385.60
414.07	1413.68
414.26	1467.52
414.45	1504.96
414.64	1401.98
414.83	1507.30
415.02	1533.05
415.22	1565.82
415.41	1666.46
415.60	1582.20
415.79	1537.73
415.98	1502.62
416.17	1540.07
416.36	1544.75
416.55	1685.19
416.74	1652.42
416.93	1586.88
417.12	1746.04
417.31	1715.61
417.50	1673.48
417.69	1792.85
417.88	1732.00
418.07	1717.95
418.26	1797.53
418.45	1710.93
418.64	1832.64
418.83	1853.70
419.02	1781.15
419.21	1860.73
419.39	1998.82
419.58	1844.34
419.77	1764.76
419.96	1781.15
420.15	1820.94
420.34	1858.39
420.53	1797.53
420.72	1900.52
420.91	1912.22
421.10	1895.83
421.29	1895.83
421.48	1827.96
421.67	1961.37
421.86	1966.05
422.05	2085.42
422.24	1982.43
422.43	2047.97
422.61	1933.28
422.80	2031.58
422.99	2043.29
423.18	2043.29
423.37	2024.56
423.56	1961.37
423.75	2057.33
423.94	1926.26
424.13	1853.70
424.32	1844.34
424.50	1933.28
424.69	2097.12
424.88	2106.48
425.07	2003.50
425.26	2010.52
425.45	2015.20
425.64	2108.82
425.83	1994.14
426.01	2097.12
426.20	2050.31
426.39	2022.22
426.58	2071.37
426.77	2085.42
426.96	1952.01
427.15	2132.23
427.33	2148.61
427.52	2216.49
427.71	2118.18
427.90	2120.53
428.09	2146.27
428.28	2167.34
428.46	2104.14
428.65	2139.25
428.84	2197.76
429.03	2258.62
429.22	2284.36
429.40	2342.88
429.59	2303.09
429.78	2141.59
429.97	2125.21
430.16	2361.60
430.34	2289.04
430.53	2298.41
430.72	2214.15
430.91	2310.11
431.10	2319.47
431.28	2408.41
431.47	2338.20
431.66	2373.30
431.85	2303.09
432.03	2401.39
432.22	2450.54
432.41	2314.79
432.60	2441.18
432.79	2415.43
432.97	2396.71
433.16	2455.22
433.35	2413.09
433.54	2527.78
433.72	2593.31
433.91	2429.48
434.10	2473.95
434.28	2483.31
434.47	2534.80
434.66	2668.21
434.85	2595.65
435.03	2565.23
435.22	2600.34
435.41	2806.30
435.59	2743.11
435.78	2569.91
435.97	2509.05
436.16	2677.57
436.34	2698.64
436.53	2565.23
436.72	2773.53
436.90	2581.61
437.09	2663.53
437.28	2661.19
437.46	2679.91
437.65	2647.15
437.84	2726.72
438.02	2843.75
438.21	2850.77
438.40	2785.24
438.58	2843.75
438.77	2885.88
438.96	2848.43
439.14	2967.80
439.33	3042.70
439.52	2974.82
439.70	2979.50
439.89	2860.13
440.08	3105.89
440.26	2993.55
440.45	3075.46
440.63	3178.45
440.82	3066.10
441.01	3143.34
441.19	3190.15
441.38	3190.15
441.57	3183.13
441.75	3246.32
441.94	3178.45
442.12	3307.18
442.31	3342.28
442.50	3283.77
442.68	3309.52
442.87	3417.18
443.05	3379.73
443.24	3358.67
443.43	3414.84
443.61	3412.50
443.80	3506.12
443.98	3323.56
444.17	3211.22
444.35	3454.63
444.54	3414.84
444.73	3382.07
444.91	3487.40
445.10	3342.28
445.28	3356.33
445.47	3375.05
445.65	3478.04
445.84	3496.76
446.02	3433.57
446.21	3389.10
446.39	3396.12
446.58	3517.83
446.77	3548.25
446.95	3445.27
447.14	3595.06
447.32	3616.13
447.51	3569.32
447.69	3517.83
447.88	3571.66
448.06	3625.49
448.25	3515.48
448.43	3543.57
448.62	3452.29
448.80	3499.10
448.99	3590.38
449.17	3604.42
449.36	3618.47
449.54	3751.88
449.73	3653.58
449.91	3721.45
450.10	3864.22
450.28	3723.79
450.46	3843.16
450.65	3749.54
450.83	3803.37
451.02	3744.86
451.20	3866.56
451.39	3878.27
451.57	3768.26
451.76	3667.62
451.94	3721.45
452.13	3920.40
452.31	3796.35
452.49	3850.18
452.68	3894.65
452.86	3772.94
453.05	4011.68
453.23	3974.23
453.42	3786.99
453.60	3866.56
453.78	4074.87
453.97	3852.52
454.15	3934.44
454.34	3838.48
454.52	3925.08
454.70	4021.04
454.89	4058.49
455.07	4107.64
455.26	4070.19
455.44	4177.86
455.62	3971.89
455.81	4053.81
455.99	4163.81
456.17	4119.34
456.36	4166.15
456.54	4257.43
456.73	4290.20
456.91	4304.25
457.09	4339.35
457.28	4507.87
457.46	4196.58
457.64	4301.90
457.83	4243.39
458.01	4252.75
458.19	4376.80
458.38	4383.82
458.56	4461.06
458.74	4428.29
458.93	4344.03
459.11	4341.69
459.29	4554.68
459.48	4475.10
459.66	4493.83
459.84	4599.15
460.03	4454.04
460.21	4465.74
460.39	4521.92
460.57	4414.25
460.76	4634.26
460.94	4559.36
461.12	4613.20
461.31	4568.73
461.49	4533.62
461.67	4746.61
461.85	4802.78
462.04	4699.80
462.22	5022.79
462.40	4727.88
462.59	4814.48
462.77	4631.92
462.95	4760.65
463.13	4954.91
463.32	4734.90
463.50	4730.22
463.68	4695.11
463.86	4786.40
464.05	4641.28
464.23	4791.08
464.41	4938.53
464.59	4746.61
464.78	4943.21
464.96	4887.04
465.14	4762.99
465.32	4992.36
465.50	5022.79
465.69	5020.45
465.87	4997.04
466.05	5186.63
466.23	5015.77
466.41	5088.32
466.60	5128.11
466.78	4992.36
466.96	4954.91
467.14	5083.64
467.32	4975.98
467.51	5268.55
467.69	5100.03
467.87	5151.52
468.05	5139.82
468.23	5088.32
468.41	5308.34
468.60	5261.52
468.78	5275.57
468.96	5378.55
469.14	5259.18
469.32	5315.36
469.50	5270.89
469.69	5308.34
469.87	5397.28
470.05	5406.64
470.23	5313.02
470.41	5371.53
470.59	5486.22
470.77	5425.36
470.95	5425.36
471.14	5696.86
471.32	5320.04
471.50	5710.91
471.68	5420.68
471.86	5469.83
472.04	5713.25
472.22	5720.27
472.40	5430.04
472.58	5692.18
472.77	5706.23
472.95	5734.31
473.13	5975.39
473.31	5891.13
473.49	5820.91
473.67	5834.96
473.85	5872.40
474.03	5919.21
474.21	6097.10
474.39	6031.56
474.57	6050.28
474.75	6087.73
474.93	6251.57
475.12	6118.16
475.30	6286.68
475.48	6155.61
475.66	6303.06
475.84	6146.25
476.02	6476.26
476.20	6277.32
476.38	6518.39
476.56	6604.99
476.74	6544.14
476.92	6473.92
477.10	6506.69
477.28	6738.40
477.46	6635.42
477.64	6768.83
477.82	6841.39
478.00	7054.37
478.18	6988.84
478.36	6946.71
478.54	7082.46
478.72	6981.82
478.90	7000.54
479.08	7307.15
479.26	7356.30
479.44	7368.01
479.62	7232.26
479.80	7595.04
479.98	7541.21
480.16	7630.15
480.34	7468.65
480.52	7440.56
480.70	7730.79
480.88	7517.80
481.06	7871.22
481.24	7714.41
481.41	7934.42
481.59	7969.52
481.77	8002.29
481.95	8187.19
482.13	8124.00
482.31	8175.49
482.49	8187.19
482.67	8287.84
482.85	8280.82
483.03	8578.06
483.21	8709.13
483.39	8767.65
483.57	8669.34
483.74	8437.63
483.92	8997.02
484.10	8769.99
484.28	8889.35
484.46	9100.00
484.64	9092.98
484.82	9247.46
485.00	9153.84
485.18	9488.53
485.35	9465.13
485.53	9303.63
485.71	9533.00
485.89	9701.52
486.07	9645.35
486.25	9645.35
486.43	9584.49
486.61	9799.82
486.78	9860.68
486.96	10108.77
487.14	10118.14
487.32	10118.14
487.50	10068.98
487.68	10251.55
487.85	10317.08
488.03	10455.17
488.21	10651.78
488.39	10775.83
488.57	10778.17
488.75	10651.78
488.92	10991.16
489.10	10836.68
489.28	11075.42
489.46	11087.12
489.64	11253.30
489.81	11288.40
489.99	11328.19
490.17	11440.54
490.35	11515.44
490.53	11735.45
490.70	11627.78
490.88	11449.90
491.06	11761.19
491.24	11674.59
491.41	12009.29
491.59	11698.00
491.77	11899.28
491.95	12533.57
492.13	12264.41
492.30	12397.82
492.48	12299.52
492.66	12308.88
492.84	12348.67
493.01	12678.68
493.19	12465.69
493.37	12947.84
493.54	12807.41
493.72	12844.86
493.90	13006.36
494.08	12978.27
494.25	12922.10
494.43	12989.97
494.61	13301.26
494.79	13418.29
494.96	13467.44
495.14	13500.21
495.32	13549.36
495.49	13532.98
495.67	13642.98
495.85	14064.28
496.02	13977.68
496.20	14164.92
496.38	13799.80
496.55	14183.65
496.73	14139.18
496.91	13837.25
497.09	14312.38
497.26	14176.62
497.44	14370.89
497.62	14162.58
497.79	14785.16
497.97	14485.58
498.14	14930.28
498.32	14927.94
498.50	14958.36
498.67	15019.22
498.85	14979.43
499.03	14911.55
499.20	14925.60
499.38	15267.31
499.56	15140.93
499.73	15328.17
499.91	15344.55
500.08	15534.14
500.26	15183.06
500.44	15704.99
500.61	15634.78
500.79	15805.64
500.97	15817.34
501.14	16063.10
501.32	15875.85
501.49	15826.70
501.67	15592.65
501.84	16161.40
502.02	15978.84
502.20	16112.25
502.37	16301.83
502.55	16322.90
502.72	16320.56
502.90	16095.86
503.07	16301.83
503.25	16271.40
503.43	16409.50
503.60	16898.67
503.78	16762.92
503.95	16587.38
504.13	16791.00
504.30	16517.16
504.48	16465.67
504.65	16938.46
504.83	16943.14
505.01	17104.64
505.18	16783.98
505.36	17242.73
505.53	17170.17
505.71	17128.04
505.88	17298.90
506.06	17067.19
506.23	17397.20
506.41	17228.68
506.58	17462.74
506.76	17406.56
506.93	17446.35
507.11	17542.32
507.28	17699.13
507.46	17612.53
507.63	17795.09
507.81	17872.33
507.98	17862.97
508.16	17830.20
508.33	17778.71
508.50	18029.15
508.68	18090.00
508.85	18134.47
509.03	18094.68
509.20	18176.60
509.38	18504.28
509.55	18607.26
509.73	18696.20
509.90	18530.02
510.08	18576.83
510.25	18422.36
510.42	18436.40
510.60	18691.52
510.77	18714.92
510.95	18789.82
511.12	18616.62
511.30	18752.37
511.47	18815.57
511.64	18862.38
511.82	18977.06
511.99	19122.18
512.17	19150.26
512.34	19201.76
512.51	19508.37
512.69	19302.40
512.86	19365.59
513.04	19569.22
513.21	19491.98
513.38	19515.39
513.56	19515.39
513.73	19571.56
513.90	19789.23
514.08	19419.42
514.25	19840.72
514.43	20147.33
514.60	19782.21
514.77	19885.19
514.95	19906.26
515.12	20063.07
515.29	19594.96
515.47	19875.83
515.64	19941.36
515.81	20074.77
515.99	20243.29
516.16	20470.33
516.33	20400.11
516.51	20460.96
516.68	20432.88
516.85	20374.36
517.03	20425.86
517.20	20613.10
517.37	20669.27
517.54	20746.51
517.72	20971.20
517.89	20772.25
518.06	20580.33
518.24	20748.85
518.41	20409.47
518.58	21090.57
518.75	20582.67
518.93	21235.68
519.10	20996.95
519.27	21097.59
519.45	20926.73
519.62	21165.46
519.79	21174.83
519.96	21071.84
520.14	21319.94
520.31	21186.53
520.48	21493.14
520.65	21591.44
520.83	21474.42
521.00	21720.17
521.17	21535.27
521.34	21507.18
521.52	21542.29
521.69	21647.61
521.86	21947.20
522.03	21678.04
522.20	21837.20
522.38	22127.42
522.55	22024.44
522.72	21935.50
522.89	22015.08
523.07	21994.01
523.24	22246.79
523.41	22040.82
523.58	22188.28
523.75	22558.08
523.92	22157.85
524.10	22274.88
524.27	22616.60
524.44	22398.93
524.61	22691.49
524.78	22838.95
524.96	22735.96
525.13	22469.14
525.30	22398.93
525.47	23103.43
525.64	22436.38
525.81	23058.96
525.98	22944.27
526.16	23016.83
526.33	22888.10
526.50	22918.53
526.67	22679.79
526.84	22773.41
527.01	22682.13
527.18	23091.73
527.36	23208.75
527.53	23194.71
527.70	23410.04
527.87	23297.69
528.04	23377.27
528.21	23318.76
528.38	23166.62
528.55	23524.72
528.72	23456.85
528.89	23683.88
529.07	23716.65
529.24	23431.10
529.41	23669.84
529.58	23419.40
529.75	23667.50
529.92	23637.07
530.09	23672.18
530.26	24020.92
530.43	24016.24
530.60	23592.60
530.77	23812.61
530.94	23873.46
531.11	23513.02
531.28	23555.15
531.46	23761.12
531.63	24170.71
531.80	24278.38
531.97	24280.72
532.14	24130.92
532.31	24182.42
532.48	24290.08
532.65	24077.09
532.82	24201.14
532.99	23981.13
533.16	24369.66
533.33	24592.01
533.50	24266.67
533.67	24650.52
533.84	24252.63
534.01	24315.83
534.18	24144.97
534.35	24627.12
534.52	24453.92
534.69	24561.58
534.86	25015.65
535.03	24603.71
535.20	24748.82
535.37	24943.09
535.54	24858.83
535.71	24641.16
535.88	24898.62
536.05	24790.95
536.22	25198.21
536.38	25149.06
536.55	24652.86
536.72	25305.87
536.89	24968.84
537.06	25181.82
537.23	25483.75
537.40	24844.79
537.57	24896.28
537.74	24868.19
537.91	25575.03
538.08	25598.44
538.25	25326.94
538.42	25429.92
538.59	25556.31
538.75	25535.24
538.92	25408.86
539.09	25401.83
539.26	25392.47
539.43	25490.77
539.60	25572.69
539.77	25523.54
539.94	26066.55
540.11	25605.46
540.28	25652.27
540.44	25759.94
540.61	25647.59
540.78	25619.50
540.95	26316.98
541.12	25923.77
541.29	25893.35
541.46	25785.68
541.62	25839.51
541.79	26115.70
541.96	25539.93
542.13	25912.07
542.30	26162.51
542.47	26274.85
542.63	26139.10
542.80	26078.25
542.97	26300.60
543.14	26576.78
543.31	26265.49
543.48	26455.08
543.64	26452.73
543.81	26565.08
543.98	26754.66
544.15	26555.72
544.32	27115.11
544.48	26951.27
544.65	26593.17
544.82	26946.59
544.99	26235.06
545.16	26679.77
545.32	26792.11
545.49	27096.38
545.66	26670.40
545.83	26979.36
546.00	26742.96
546.16	26581.46
546.33	26522.95
546.50	26710.19
546.67	26925.52
546.83	27072.98
547.00	27044.89
547.17	27026.17
547.34	26951.27
547.50	27253.20
547.67	27761.09
547.84	27243.84
548.00	27133.83
548.17	27009.78
548.34	27339.80
548.51	27571.51
548.67	27524.70
548.84	27571.51
549.01	27300.01
549.18	27321.07
549.34	27276.60
549.51	27810.25
549.68	27637.05
549.84	27372.57
550.01	27620.66
550.18	27292.99
550.34	27529.38
550.51	27924.93
550.68	28044.30
550.84	27365.54
551.01	27697.90
551.18	27651.09
551.34	27639.39
551.51	27812.59
551.68	27693.22
551.84	27985.79
552.01	27798.54
552.18	27901.53
552.34	27473.21
552.51	27929.61
552.68	28140.26
552.84	27604.28
553.01	27812.59
553.18	28027.92
553.34	28306.44
553.51	27798.54
553.67	28025.57
553.84	28065.36
554.01	28198.77
554.17	27763.43
554.34	28027.92
554.51	28004.51
554.67	27835.99
554.84	28334.53
555.00	28243.24
555.17	28545.17
555.33	28416.44
555.50	28287.71
555.67	28292.40
555.83	28423.47
556.00	28465.60
556.16	28336.87
556.33	28442.19
556.50	28507.72
556.66	28479.64
556.83	28636.45
556.99	28432.83
557.16	29039.03
557.32	28414.10
557.49	28971.15
557.65	29053.07
557.82	28407.08
557.98	28161.33
558.15	28837.74
558.32	28634.11
558.48	28559.22
558.65	28638.80
558.81	28847.10
558.98	28751.14
559.14	28748.80
559.31	28634.11
559.47	28570.92
559.64	28804.97
559.80	29212.23
559.97	29242.65
560.13	28898.59
560.30	28889.23
560.46	29378.40
560.63	29560.97
560.79	29326.91
560.96	28793.27
561.12	29006.26
561.29	28821.36
561.45	28671.56
561.61	29130.31
561.78	29057.75
561.94	28971.15
562.11	28819.02
562.27	28945.41
562.44	29244.99
562.60	29120.95
562.77	29099.88
562.93	29230.95
563.10	29022.64
563.26	29113.92
563.42	29514.16
563.59	29305.85
563.75	29317.55
563.92	29448.62
564.08	29064.77
564.24	29469.69
564.41	29296.49
564.57	28865.83
564.74	29383.09
564.90	29055.41
565.07	29429.90
565.23	29441.60
565.39	29450.96
565.56	29614.80
565.72	29280.10
565.88	29502.45
566.05	29153.71
566.21	29392.45
566.38	29575.01
566.54	29130.31
566.70	29507.13
566.87	29404.15
567.03	29270.74
567.19	29713.10
567.36	29780.98
567.52	29663.95
567.68	29778.64
567.85	29902.68
568.01	29785.66
568.17	29502.45
568.34	29406.49
568.50	29792.68
568.66	29429.90
568.83	29972.90
568.99	29745.87
569.15	29780.98
569.32	29298.83
569.48	29621.82
569.64	29930.77
569.81	29720.12
569.97	29261.38
570.13	29656.93
570.30	29626.50
570.46	29916.73
570.62	29727.14
570.78	29572.67
570.95	29528.20
571.11	29802.04
571.27	29867.58
571.43	29170.10
571.60	29659.27
571.76	29827.79
571.92	29378.40
572.09	29708.42
572.25	29479.05
572.41	29661.61
572.57	30005.67
572.74	29666.29
572.90	29626.50
573.06	29191.16
573.22	29455.64
573.38	30270.15
573.55	29500.11
573.71	29862.90
573.87	29993.97
574.03	29392.45
574.20	29738.85
574.36	29663.95
574.52	29790.34
574.68	29881.62
574.84	30082.91
575.01	30064.18
575.17	29986.94
575.33	29511.81
575.49	29912.05
575.65	29881.62
575.82	29858.21
575.98	29586.71
576.14	30078.22
576.30	29844.17
576.46	29586.71
576.62	29942.47
576.79	29663.95
576.95	29589.05
577.11	29635.86
577.27	29790.34
577.43	30080.56
577.59	29888.64
577.75	29954.18
577.92	30087.59
578.08	29738.85
578.24	30167.16
578.40	29528.20
578.56	30181.21
578.72	29895.66
578.88	30424.62
579.04	30338.02
579.21	30012.69
579.37	30216.32
579.53	29825.45
579.69	30106.31
579.85	30033.75
580.01	29867.58
580.17	29462.66
580.33	30110.99
580.49	30136.74
580.65	30164.82
580.82	29954.18
580.98	29921.41
581.14	30532.29
581.30	29907.37
581.46	29912.05
581.62	29954.18
581.78	30183.55
581.94	29872.26
582.10	29881.62
582.26	30216.32
582.42	30015.03
582.58	30204.61
582.74	30345.05
582.90	30546.33
583.06	30328.66
583.22	29933.11
583.38	30162.48
583.54	29780.98
583.70	29773.95
583.86	29895.66
584.02	29649.91
584.18	30110.99
584.34	30258.45
584.50	30162.48
584.66	30230.36
584.82	30089.93
584.98	30026.73
585.14	30012.69
585.30	30146.10
585.46	30052.48
585.62	29958.86
585.78	30075.88
585.94	30436.33
586.10	30359.09
586.26	30059.50
586.42	30492.50
586.58	30396.54
586.74	30148.44
586.90	29926.09
587.06	29827.79
587.22	30141.42
587.38	29839.49
587.54	30651.66
587.70	30466.75
587.86	30607.19
588.02	30019.71
588.18	30424.62
588.34	30195.25
588.49	30323.98
588.65	30181.21
588.81	30157.80
588.97	30209.29
589.13	30176.53
589.29	30113.33
589.45	30199.93
589.61	30363.77
589.77	30815.49
589.93	30712.51
590.08	30721.87
590.24	30532.29
590.40	30700.81
590.56	30218.66
590.72	30274.83
590.88	30646.97
591.04	30368.45
591.20	30508.88
591.35	30555.69
591.51	30890.39
591.67	30426.96
591.83	30712.51
591.99	30927.84
592.15	30347.39
592.31	30394.20
592.46	30611.87
592.62	30174.19
592.78	30719.53
592.94	30298.23
593.10	30209.29
593.26	30721.87
593.41	30403.56
593.57	30813.15
593.73	30649.32
593.89	30424.62
594.05	30967.63
594.20	30408.24
594.36	30611.87
594.52	30401.22
594.68	30419.94
594.84	30639.95
594.99	30628.25
595.15	30536.97
595.31	31145.51
595.47	30831.88
595.62	30859.96
595.78	30373.13
595.94	30775.70
596.10	30618.89
596.25	30668.04
596.41	30630.59
596.57	30558.03
596.73	30754.64
596.88	30412.92
597.04	30604.84
597.20	30953.58
597.36	30874.01
597.51	31007.42
597.67	30272.49
597.83	30590.80
597.99	31044.87
598.14	30576.76
598.30	30291.21
598.46	30801.45
598.61	31023.80
598.77	30682.08
598.93	30644.63
599.09	30595.48
599.24	31206.36
599.40	30862.30
599.56	31112.74
599.71	30836.56
599.87	30354.41
600.03	30654.00
600.18	30609.53
600.34	30501.86
600.50	30511.22
600.65	30815.49
600.81	30923.16
600.97	30864.64
601.12	30881.03
601.28	31161.89
601.44	30696.13
601.59	30848.26
601.75	30759.32
601.91	30892.73
602.06	30583.78
602.22	30845.92
602.37	30705.49
602.53	30855.28
602.69	31147.85
602.84	30993.37
603.00	30951.24
603.16	30986.35
603.31	30885.71
603.47	30806.13
603.62	30497.18
603.78	30574.42
603.94	30497.18
604.09	30864.64
604.25	30913.80
604.40	30782.73
604.56	31061.25
604.71	31220.41
604.87	30782.73
605.03	30740.60
605.18	31044.87
605.34	30866.98
605.49	30323.98
605.65	30986.35
605.80	30501.86
605.96	30693.79
606.12	30787.41
606.27	30712.51
606.43	30555.69
606.58	30813.15
606.74	30850.60
606.89	30649.32
607.05	30618.89
607.20	30644.63
607.36	30749.96
607.51	30768.68
607.67	30312.28
607.82	30249.08
607.98	30504.20
608.13	30717.19
608.29	30529.95
608.44	30405.90
608.60	30534.63
608.75	30686.76
608.91	30600.16
609.06	30824.86
609.22	30962.95
609.37	30160.14
609.53	30265.47
609.68	30742.94
609.84	30529.95
609.99	30536.97
610.15	30478.46
610.30	30146.10
610.46	30389.52
610.61	30761.66
610.76	30574.42
610.92	30785.07
611.07	30235.04
611.23	30373.13
611.38	30462.07
611.54	30373.13
611.69	29802.04
611.84	30277.17
612.00	30143.76
612.15	29996.31
612.31	30689.10
612.46	30431.65
612.62	30277.17
612.77	30127.38
612.92	30501.86
613.08	30244.40
613.23	30410.58
613.39	30141.42
613.54	30375.47
613.69	30211.64
613.85	30246.74
614.00	30258.45
614.15	30134.40
614.31	29942.47
614.46	30043.12
614.62	30085.25
614.77	30443.35
614.92	30064.18
615.08	30368.45
615.23	30085.25
615.38	30061.84
615.54	29792.68
615.69	30040.78
615.84	29942.47
616.00	30148.44
616.15	30213.98
616.30	29951.84
616.46	29846.51
616.61	30057.16
616.76	29851.19
616.92	29963.54
617.07	29858.21
617.22	29998.65
617.37	29879.28
617.53	30000.99
617.68	29443.94
617.83	29600.76
617.99	30384.83
618.14	29893.32
618.29	30153.12
618.45	29975.24
618.60	29748.21
618.75	29841.83
618.90	29659.27
619.06	29603.10
619.21	29371.38
619.36	29673.31
619.51	29439.26
619.67	29308.19
619.82	29628.84
619.97	29717.78
620.12	29329.25
620.28	29465.00
620.43	29296.49
620.58	29804.38
620.73	29792.68
620.89	29729.48
621.04	29834.81
621.19	29347.98
621.34	29378.40
621.49	29322.23
621.65	29214.57
621.80	29514.16
621.95	29399.47
622.10	29076.48
622.25	29600.76
622.41	29167.76
622.56	29247.33
622.71	29635.86
622.86	28982.85
623.01	29284.78
623.16	29034.35
623.32	29083.50
623.47	28903.28
623.62	29254.36
623.77	29195.84
623.92	29193.50
624.07	29322.23
624.23	29195.84
624.38	29357.34
624.53	28872.85
624.68	29610.12
624.83	29488.41
624.98	29380.74
625.13	29053.07
625.29	29301.17
625.44	29165.42
625.59	28863.49
625.74	28975.83
625.89	28652.84
626.04	29071.79
626.19	28816.68
626.34	28975.83
626.49	28531.13
626.65	28858.81
626.80	28872.85
626.95	28840.08
627.10	28807.31
627.25	28680.92
627.40	28767.52
627.55	28264.31
627.70	28442.19
627.85	28444.53
628.00	28496.02
628.15	28957.11
628.30	28432.83
628.45	28601.35
628.60	28762.84
628.76	28833.06
628.91	28320.48
629.06	28442.19
629.21	28809.65
629.36	28416.44
629.51	28505.38
629.66	28664.54
629.81	28631.77
629.96	28381.34
630.11	28198.77
630.26	28386.02
630.41	28383.68
630.56	28119.20
630.71	28126.22
630.86	28252.61
631.01	28116.86
631.16	28683.27
631.31	27915.57
631.46	28414.10
631.61	28205.80
631.76	28222.18
631.91	28105.15
632.06	28163.67
632.21	28201.11
632.36	27812.59
632.51	27599.60
632.66	28453.89
632.81	28067.70
632.96	28149.62
633.10	28451.55
633.25	28404.74
633.40	28830.72
633.55	28231.54
633.70	28339.21
633.85	27370.22
634.00	27903.87
634.15	27864.08
634.30	27716.62
634.45	27948.34
634.60	27548.11
634.75	27784.50
634.90	27936.63
635.05	28032.60
635.19	28081.75
635.34	28135.58
635.49	27882.80
635.64	28252.61
635.79	27660.45
635.94	27751.73
636.09	28086.43
636.24	27461.51
636.39	27398.31
636.53	27737.69
636.68	27555.13
636.83	27845.35
636.98	27871.10
637.13	27770.46
637.28	28027.92
637.43	27735.35
637.57	27601.94
637.72	27325.75
637.87	27239.15
638.02	27606.62
638.17	27566.83
638.32	27311.71
638.46	27417.04
638.61	27241.50
638.76	27030.85
638.91	27234.47
639.06	27393.63
639.20	27428.74
639.35	27377.25
639.50	27410.01
639.65	27278.94
639.80	27412.35
639.94	27578.53
640.09	27332.78
640.24	27075.32
640.39	27435.76
640.54	27084.68
640.68	26993.40
640.83	27222.77
640.98	27241.50
641.13	26721.90
641.27	27405.33
641.42	27213.41
641.57	27674.49
641.72	27239.15
641.86	26927.86
642.01	27091.70
642.16	27269.58
642.31	27187.66
642.45	27063.61
642.60	26934.88
642.75	26387.20
642.90	26948.93
643.04	26993.40
643.19	26820.20
643.34	26813.18
643.48	27056.59
643.63	27234.47
643.78	26740.62
643.93	26857.65
644.07	26867.01
644.22	26988.72
644.37	27044.89
644.51	26958.29
644.66	26946.59
644.81	26764.03
644.95	27145.53
645.10	26476.14
645.25	26677.43
645.39	26586.15
645.54	26859.99
645.69	26754.66
645.83	26911.48
645.98	26611.89
646.13	26595.51
646.27	26504.23
646.42	26710.19
646.57	26780.41
646.71	26916.16
646.86	26600.19
647.00	26850.63
647.15	26122.72
647.30	26359.11
647.44	26274.85
647.59	26532.31
647.74	26431.67
647.88	26382.52
648.03	26206.98
648.17	26813.18
648.32	26462.10
648.47	26630.62
648.61	26593.17
648.76	26422.31
648.90	26703.17
649.05	26361.45
649.20	26005.69
649.34	26230.38
649.49	25783.34
649.63	26022.08
649.78	26129.74
649.92	25816.11
650.07	26164.85
650.21	25972.92
650.36	26045.48
650.51	26057.18
650.65	26085.27
650.80	25970.58
650.94	26157.83
651.09	25816.11
651.23	25958.88
651.38	25970.58
651.52	25626.53
651.67	25944.84
651.81	25961.22
651.96	26199.96
652.10	25916.75
652.25	25905.05
652.39	26359.11
652.54	25916.75
652.68	26309.96
652.83	25944.84
652.97	25991.65
653.12	25914.41
653.26	26113.36
653.41	25654.61
653.55	25715.47
653.70	25575.03
653.84	25575.03
653.99	25720.15
654.13	25928.45
654.27	25518.86
654.42	25701.42
654.56	25771.64
654.71	25818.45
654.85	25673.34
655.00	25886.32
655.14	25851.22
655.29	25692.06
655.43	25687.38
655.57	25745.89
655.72	25436.94
655.86	25610.14
656.01	25532.90
656.15	25612.48
656.30	25284.81
656.44	25355.02
656.58	25317.57
656.73	25628.87
656.87	25593.76
657.01	25415.88
657.16	25804.41
657.30	25542.27
657.45	25446.30
657.59	25308.21
657.73	25179.48
657.88	25207.57
658.02	24989.90
658.16	25413.54
658.31	24837.76
658.45	25195.87
658.60	24968.84
658.74	24734.78
658.88	25104.59
659.03	24989.90
659.17	24926.71
659.31	25172.46
659.46	25326.94
659.60	25205.23
659.74	24961.81
659.89	25188.85
660.03	24975.86
660.17	24449.24
660.32	24669.25
660.46	24673.93
660.60	24673.93
660.74	24627.12
660.89	24524.13
661.03	24416.47
661.17	24709.04
661.32	24734.78
661.46	24474.98
661.60	24563.92
661.74	24594.35
661.89	24704.35
662.03	24381.36
662.17	24329.87
662.31	24432.85
662.46	24458.60
662.60	24233.91
662.74	24428.17
662.88	24100.50
663.03	24166.03
663.17	24121.56
663.31	24095.82
663.45	24119.22
663.60	24039.64
663.74	24215.18
663.88	24215.18
664.02	24070.07
664.17	24407.11
664.31	24137.94
664.45	23885.17
664.59	24004.53
664.73	24006.87
664.88	23983.47
665.02	23763.46
665.16	23559.83
665.30	23758.78
665.44	23763.46
665.59	23541.11
665.73	23634.73
665.87	23456.85
666.01	23749.42
666.15	23386.63
666.29	23997.51
666.44	23667.50
666.58	23243.86
666.72	23309.40
666.86	23541.11
667.00	23477.91
667.14	23307.05
667.28	23431.10
667.43	23367.91
667.57	23564.51
667.71	23269.61
667.85	23185.35
667.99	23103.43
668.13	22981.72
668.27	23255.56
668.41	23459.19
668.56	22815.54
668.70	23030.87
668.84	23068.32
668.98	23344.50
669.12	22988.74
669.26	22841.29
669.40	22923.21
669.54	22700.86
669.68	22679.79
669.82	22661.07
669.96	22537.02
670.10	22710.22
670.25	22485.53
670.39	22242.11
670.53	22319.35
670.67	22579.15
670.81	22654.05
670.95	22403.61
671.09	22214.02
671.23	22443.40
671.37	22328.71
671.51	22508.93
671.65	22099.34
671.79	22476.16
671.93	22438.72
672.07	22345.09
672.21	22113.38
672.35	22059.55
672.49	21884.01
672.63	22129.77
672.77	21958.91
672.91	21729.53
673.05	21521.23
673.19	21769.32
673.33	21385.47
673.47	21549.31
673.61	21745.92
673.75	21710.81
673.89	21727.19
674.03	21736.56
674.17	21736.56
674.31	21575.06
674.45	21598.46
674.59	21443.99
674.73	21619.53
674.87	21329.30
675.01	21135.04
675.15	21238.02
675.29	20908.01
675.43	21226.32
675.56	21254.40
675.70	20980.56
675.84	20985.24
675.98	20308.83
676.12	21170.15
676.26	21099.93
676.40	20737.15
676.54	20807.36
676.68	20758.21
676.82	20334.57
676.96	20332.23
677.10	20596.71
677.23	20383.73
677.37	20599.05
677.51	20442.24
677.65	20311.17
677.79	20058.39
677.93	20379.04
678.07	19803.27
678.21	20044.35
678.34	20135.63
678.48	20198.82
678.62	19580.92
678.76	19798.59
678.90	19604.33
679.04	19751.78
679.18	19740.08
679.31	19056.64
679.45	19719.01
679.59	19697.95
679.73	19323.46
679.87	19070.68
680.00	19145.58
680.14	19309.42
680.28	19037.92
680.42	19026.21
680.56	19360.91
680.70	19173.67
680.83	18899.83
680.97	18925.57
681.11	18731.31
681.25	18953.66
681.39	19152.60
681.52	18565.13
681.66	18647.05
681.80	18490.23
681.94	18611.94
682.07	18728.97
682.21	18593.22
682.35	18171.92
682.49	18436.40
682.62	18555.77
682.76	18302.99
682.90	18331.08
683.04	18054.89
683.17	18260.86
683.31	18260.86
683.45	18263.20
683.59	18085.32
683.72	18045.53
683.86	17947.23
684.00	17895.74
684.13	18033.83
684.27	17830.20
684.41	17589.13
684.55	17549.34
684.68	17460.40
684.82	17259.11
684.96	17280.18
685.09	17011.01
685.23	17291.88
685.37	17359.75
685.50	17270.81
685.64	17296.56
685.78	17224.00
685.91	17109.32
686.05	17085.91
686.19	17069.53
686.32	16978.25
686.46	16697.38
686.60	16451.63
686.73	16648.23
686.87	16652.91
687.01	16322.90
687.14	16245.66
687.28	16336.94
687.42	16311.19
687.55	16353.32
687.69	16287.79
687.82	16336.94
687.96	16430.56
688.10	16308.85
688.23	16203.53
688.37	15999.90
688.50	15957.77
688.64	16023.31
688.78	15929.69
688.91	15920.32
689.05	15852.45
689.18	15548.18
689.32	15391.36
689.46	15585.63
689.59	15602.01
689.73	15550.52
689.86	15583.29
690.00	15314.13
690.13	15477.96
690.27	15204.12
690.41	15349.23
690.54	15082.41
690.68	15330.51
690.81	15019.22
690.95	15272.00
691.08	15028.58
691.22	15215.82
691.35	14881.13
691.49	14956.02
691.62	15070.71
691.76	14815.59
691.89	14778.14
692.03	14721.97
692.16	14504.30
692.30	14155.56
692.43	14691.54
692.57	14342.80
692.70	14450.47
692.84	14200.03
692.97	14384.93
693.11	14562.81
693.24	14181.31
693.38	14265.57
693.51	13991.72
693.65	14251.52
693.78	13928.53
693.92	13921.51
694.05	13980.02
694.19	13626.60
694.32	13483.83
694.45	13542.34
694.59	13497.87
694.72	13254.45
694.86	13310.63
694.99	13547.02
695.13	13158.49
695.26	13336.37
695.39	13327.01
695.53	13327.01
695.66	13359.78
695.80	13170.19
695.93	13057.85
696.07	13345.73
696.20	13114.02
696.33	13006.36
696.47	12812.09
696.60	12863.58
696.73	12634.21
696.87	12692.73
697.00	12996.99
697.14	12599.10
697.27	12332.28
697.40	12512.50
697.54	12587.40
697.67	12386.12
697.80	12205.89
697.94	12292.49
698.07	12182.49
698.21	12416.54
698.34	12238.66
698.47	12159.08
698.61	12065.46
698.74	12276.11
698.87	12067.80
699.01	11978.86
699.14	11782.26
699.27	11967.16
699.40	11974.18
699.54	11810.34
699.67	11810.34
699.80	11658.21
699.94	11613.74
700.07	11672.25
700.20	11562.25
700.34	11206.48
700.47	11204.14
700.60	11241.59
700.73	11641.82
700.87	11304.79
701.00	11227.55
701.13	11477.99
701.26	11276.70
701.40	11309.47
701.53	11073.07
701.66	11096.48
701.79	11061.37
701.93	11140.95
702.06	10656.46
702.19	10829.66
702.32	10700.93
702.46	10829.66
702.59	10431.77
702.72	10427.09
702.85	10342.83
702.99	10541.77
703.12	10509.01
703.25	10413.04
703.38	10274.95
703.51	10382.62
703.65	10160.27
703.78	10181.33
703.91	10321.76
704.04	10530.07
704.17	10200.05
704.31	10296.02
704.44	10015.15
704.57	9961.32
704.70	9692.16
704.83	9696.84
704.96	9884.08
705.10	9516.62
705.23	9682.80
>>>>>End Processed Spectral Data<<<<<
