SpectraSuite Data File
++++++++++++++++++++++++++++++++++++
Date: Fri Oct 18 13:58:18 GMT-05:00 2013
User: bianchi
Dark Spectrum Present: No
Reference Spectrum Present: No
Number of Sampled Component Spectra: 1
Spectrometers: USB2+H05261
Integration Time (usec): 50000 (USB2+H05261)
Spectra Averaged: 1 (USB2+H05261)
Boxcar Smoothing: 0 (USB2+H05261)
Correct for Electrical Dark: No (USB2+H05261)
Strobe/Lamp Enabled: No (USB2+H05261)
Correct for Detector Non-linearity: No (USB2+H05261)
Correct for Stray Light: No (USB2+H05261)
Number of Pixels in Processed Spectrum: 2048
>>>>>Begin Processed Spectral Data<<<<<
365.73	0.00
365.92	0.00
366.12	0.00
366.32	0.00
366.52	0.00
366.72	0.00
366.91	0.00
367.11	0.00
367.31	0.00
367.51	0.00
367.70	0.00
367.90	0.00
368.10	0.00
368.30	0.00
368.49	0.00
368.69	0.00
368.89	0.00
369.09	0.00
369.28	0.00
369.48	0.00
369.68	0.00
369.87	0.00
370.07	0.00
370.27	0.00
370.47	0.00
370.66	35.11
370.86	91.28
371.06	44.47
371.25	107.66
371.45	138.09
371.65	142.77
371.84	184.90
372.04	152.13
372.24	147.45
372.44	107.66
372.63	177.88
372.83	292.57
373.03	170.86
373.22	280.86
373.42	224.69
373.62	166.18
373.81	264.48
374.01	229.37
374.21	252.78
374.40	227.03
374.60	208.31
374.79	304.27
374.99	215.33
375.19	304.27
375.38	283.20
375.58	297.25
375.78	201.29
375.97	276.18
376.17	301.93
376.37	304.27
376.56	318.31
376.76	229.37
376.95	290.23
377.15	283.20
377.35	231.71
377.54	259.80
377.74	231.71
377.93	236.39
378.13	285.55
378.33	285.55
378.52	259.80
378.72	280.86
378.91	231.71
379.11	306.61
379.31	238.73
379.50	290.23
379.70	337.04
379.89	341.72
380.09	306.61
380.28	330.02
380.48	280.86
380.68	273.84
380.87	215.33
381.07	306.61
381.26	358.10
381.46	297.25
381.65	294.91
381.85	273.84
382.04	374.49
382.24	339.38
382.43	330.02
382.63	294.91
382.83	358.10
383.02	259.80
383.22	313.63
383.41	299.59
383.61	229.37
383.80	372.15
384.00	299.59
384.19	418.96
384.39	339.38
384.58	308.95
384.78	353.42
384.97	332.36
385.17	386.19
385.36	411.93
385.56	395.55
385.75	315.97
385.95	425.98
386.14	351.08
386.34	461.09
386.53	428.32
386.72	297.25
386.92	402.57
387.11	407.25
387.31	428.32
387.50	393.21
387.70	482.15
387.89	418.96
388.09	456.40
388.28	512.58
388.48	449.38
388.67	425.98
388.86	444.70
389.06	505.56
389.25	517.26
389.45	435.34
389.64	400.23
389.84	444.70
390.03	524.28
390.22	479.81
390.42	479.81
390.61	447.04
390.81	512.58
391.00	451.72
391.19	589.82
391.39	500.87
391.58	564.07
391.78	482.15
391.97	526.62
392.16	491.51
392.36	465.77
392.55	519.60
392.75	568.75
392.94	561.73
393.13	594.50
393.33	486.83
393.52	575.77
393.71	634.29
393.91	571.09
394.10	592.16
394.29	561.73
394.49	503.22
394.68	580.45
394.88	727.91
395.07	550.03
395.26	566.41
395.46	550.03
395.65	613.22
395.84	589.82
396.04	624.92
396.23	662.37
396.42	636.63
396.62	650.67
396.81	660.03
397.00	552.37
397.19	601.52
397.39	615.56
397.58	638.97
397.77	674.07
397.97	695.14
398.16	669.39
398.35	748.97
398.55	702.16
398.74	716.20
398.93	737.27
399.12	697.48
399.32	713.86
399.51	671.73
399.70	800.46
399.90	711.52
400.09	725.57
400.28	802.80
400.47	784.08
400.67	765.36
400.86	784.08
401.05	730.25
401.24	854.30
401.44	802.80
401.63	807.48
401.82	758.33
402.01	791.10
402.21	730.25
402.40	837.91
402.59	861.32
402.78	777.06
402.97	786.42
403.17	894.08
403.36	898.77
403.55	779.40
403.74	821.53
403.93	826.21
404.13	903.45
404.32	854.30
404.51	856.64
404.70	903.45
404.89	954.94
405.09	999.41
405.28	936.21
405.47	936.21
405.66	978.34
405.85	952.60
406.05	983.02
406.24	990.05
406.43	968.98
406.62	964.30
406.81	1020.47
407.00	1008.77
407.20	1008.77
407.39	938.55
407.58	1015.79
407.77	1074.31
407.96	1095.37
408.15	1107.07
408.34	1064.94
408.54	1153.88
408.73	1114.10
408.92	1086.01
409.11	1193.67
409.30	1170.27
409.49	1121.12
409.68	1067.28
409.87	1167.93
410.07	1128.14
410.26	1167.93
410.45	1165.59
410.64	1165.59
410.83	1224.10
411.02	1233.46
411.21	1306.02
411.40	1217.08
411.59	1172.61
411.78	1240.48
411.98	1336.45
412.17	1294.32
412.36	1219.42
412.55	1282.61
412.74	1362.19
412.93	1303.68
413.12	1277.93
413.31	1411.34
413.50	1240.48
413.69	1303.68
413.88	1359.85
414.07	1411.34
414.26	1476.88
414.45	1441.77
414.64	1465.18
414.83	1458.15
415.02	1418.36
415.22	1554.12
415.41	1502.62
415.60	1638.38
415.79	1514.33
415.98	1565.82
416.17	1636.03
416.36	1645.40
416.55	1561.14
416.74	1706.25
416.93	1607.95
417.12	1678.16
417.31	1694.55
417.50	1708.59
417.69	1600.93
417.88	1701.57
418.07	1708.59
418.26	1771.79
418.45	1771.79
418.64	1790.51
418.83	1722.63
419.02	1762.42
419.21	1689.87
419.39	1949.67
419.58	1844.34
419.77	1863.07
419.96	1839.66
420.15	1830.30
420.34	1832.64
420.53	1865.41
420.72	1923.92
420.91	1853.70
421.10	1879.45
421.29	1949.67
421.48	1804.55
421.67	1921.58
421.86	1947.33
422.05	1844.34
422.24	1888.81
422.43	1914.56
422.61	2012.86
422.80	1994.14
422.99	2005.84
423.18	2064.35
423.37	1959.03
423.56	2024.56
423.75	1937.96
423.94	1926.26
424.13	1933.28
424.32	1926.26
424.50	2010.52
424.69	1982.43
424.88	2019.88
425.07	1963.71
425.26	2003.50
425.45	1975.41
425.64	1956.69
425.83	1991.80
426.01	2136.91
426.20	2047.97
426.39	1944.99
426.58	2169.68
426.77	2162.66
426.96	2045.63
427.15	2179.04
427.33	2132.23
427.52	2218.83
427.71	2134.57
427.90	2101.80
428.09	2186.06
428.28	2232.87
428.46	2160.31
428.65	2162.66
428.84	2230.53
429.03	2221.17
429.22	2085.42
429.40	2214.15
429.59	2242.23
429.78	2195.42
429.97	2139.25
430.16	2324.15
430.34	2385.01
430.53	2324.15
430.72	2211.81
430.91	2289.04
431.10	2251.60
431.28	2424.80
431.47	2452.88
431.66	2417.77
431.85	2389.69
432.03	2429.48
432.22	2457.56
432.41	2380.32
432.60	2401.39
432.79	2345.22
432.97	2408.41
433.16	2380.32
433.35	2478.63
433.54	2476.29
433.72	2544.16
433.91	2389.69
434.10	2509.05
434.28	2464.58
434.47	2523.10
434.66	2602.68
434.85	2511.39
435.03	2513.74
435.22	2651.83
435.41	2593.31
435.59	2544.16
435.78	2612.04
435.97	2640.12
436.16	2717.36
436.34	2562.89
436.53	2633.10
436.72	2813.32
436.90	2733.75
437.09	2801.62
437.28	2600.34
437.46	2686.94
437.65	2703.32
437.84	2752.47
438.02	2867.16
438.21	2628.42
438.40	2689.28
438.58	2904.60
438.77	2773.53
438.96	2888.22
439.14	2771.19
439.33	2923.33
439.52	2993.55
439.70	3073.12
439.89	2967.80
440.08	3042.70
440.26	3054.40
440.45	3059.08
440.63	2958.44
440.82	3155.04
441.01	3016.95
441.19	3028.65
441.38	3180.79
441.57	3133.98
441.75	3108.23
441.94	3297.81
442.12	3204.19
442.31	3288.45
442.50	3290.79
442.68	3307.18
442.87	3206.53
443.05	3265.05
443.24	3368.03
443.43	3295.47
443.61	3368.03
443.80	3377.39
443.98	3293.13
444.17	3286.11
444.35	3311.86
444.54	3382.07
444.73	3365.69
444.91	3459.31
445.10	3363.35
445.28	3269.73
445.47	3318.88
445.65	3459.31
445.84	3548.25
446.02	3588.04
446.21	3597.40
446.39	3375.05
446.58	3639.53
446.77	3508.46
446.95	3363.35
447.14	3492.08
447.32	3513.14
447.51	3382.07
447.69	3550.59
447.88	3602.08
448.06	3435.91
448.25	3564.64
448.43	3599.74
448.62	3386.76
448.80	3438.25
448.99	3503.78
449.17	3536.55
449.36	3574.00
449.54	3545.91
449.73	3639.53
449.91	3672.30
450.10	3651.24
450.28	3709.75
450.46	3644.21
450.65	3740.18
450.83	3712.09
451.02	3658.26
451.20	3789.33
451.39	3892.31
451.57	3761.24
451.76	3861.88
451.94	3684.00
452.13	3822.09
452.31	3889.97
452.49	3684.00
452.68	3822.09
452.86	3859.54
453.05	4079.55
453.23	3950.82
453.42	3887.63
453.60	3730.81
453.78	3786.99
453.97	3768.26
454.15	3934.44
454.34	3906.35
454.52	3936.78
454.70	4007.00
454.89	4018.70
455.07	3974.23
455.26	3920.40
455.44	4063.17
455.62	3988.27
455.81	3964.87
455.99	4154.45
456.17	3911.04
456.36	4187.22
456.54	4212.96
456.73	4109.98
456.91	4353.40
457.09	4311.27
457.28	4395.53
457.46	4194.24
457.64	4175.52
457.83	4337.01
458.01	4161.47
458.19	4273.82
458.38	4545.32
458.56	4344.03
458.74	4531.28
458.93	4411.91
459.11	4430.63
459.29	4353.40
459.48	4447.02
459.66	4383.82
459.84	4512.55
460.03	4521.92
460.21	4477.44
460.39	4557.02
460.57	4505.53
460.76	4575.75
460.94	4493.83
461.12	4475.10
461.31	4503.19
461.49	4636.60
461.67	4613.20
461.85	4622.56
462.04	4526.60
462.22	5055.56
462.40	4699.80
462.59	4723.20
462.77	4837.89
462.95	4755.97
463.13	4727.88
463.32	4718.52
463.50	4716.18
463.68	4856.61
463.86	4887.04
464.05	4798.10
464.23	4678.73
464.41	4898.74
464.59	4671.71
464.78	5088.32
464.96	4936.19
465.14	4910.44
465.32	4964.28
465.50	4978.32
465.69	4994.70
465.87	4880.02
466.05	4973.64
466.23	4919.81
466.41	4973.64
466.60	5114.07
466.78	4987.68
466.96	4961.94
467.14	4919.81
467.32	5109.39
467.51	5048.54
467.69	4901.08
467.87	5151.52
468.05	5093.01
468.23	5149.18
468.41	5025.13
468.60	5142.16
468.78	5205.35
468.96	5170.24
469.14	5128.11
469.32	5317.70
469.50	5177.26
469.69	5305.99
469.87	5289.61
470.05	5401.96
470.23	5369.19
470.41	5441.75
470.59	5465.15
470.77	5305.99
470.95	5427.70
471.14	5533.03
471.32	5416.00
471.50	5820.91
471.68	5724.95
471.86	5638.35
472.04	5696.86
472.22	5795.17
472.40	5664.10
472.58	5528.35
472.77	5664.10
472.95	5954.32
473.13	5968.37
473.31	5802.19
473.49	5661.76
473.67	5867.72
473.85	5860.70
474.03	5982.41
474.21	5893.47
474.39	5970.71
474.57	5989.43
474.75	6218.80
474.93	6237.53
475.12	5956.66
475.30	6038.58
475.48	6026.88
475.66	6260.93
475.84	6080.71
476.02	6307.74
476.20	6319.45
476.38	6331.15
476.56	6511.37
476.74	6399.02
476.92	6429.45
477.10	6511.37
477.28	6752.45
477.46	6520.73
477.64	6623.72
477.82	6745.42
478.00	6909.26
478.18	6995.86
478.36	6953.73
478.54	7073.10
478.72	6895.22
478.90	7014.59
479.08	7208.85
479.26	7243.96
479.44	7091.82
479.62	7232.26
479.80	7377.37
479.98	7274.38
480.16	7648.87
480.34	7499.08
480.52	7592.70
480.70	7588.02
480.88	7442.90
481.06	7590.36
481.24	7604.40
481.41	7845.48
481.59	7889.95
481.77	7873.56
481.95	8025.70
482.13	8212.94
482.31	7864.20
482.49	8170.81
482.67	8292.52
482.85	8393.16
483.03	8374.44
483.21	8374.44
483.39	8517.21
483.57	8285.50
483.74	8657.64
483.92	8617.85
484.10	8557.00
484.28	8627.21
484.46	8931.48
484.64	8968.93
484.82	8854.25
485.00	9078.94
485.18	8959.57
485.35	9362.14
485.53	9444.06
485.71	9528.32
485.89	9540.02
486.07	9404.27
486.25	9528.32
486.43	9647.69
486.61	9607.90
486.78	9827.91
486.96	9802.16
487.14	9907.49
487.32	9982.38
487.50	10122.82
487.68	10153.24
487.85	10338.15
488.03	10469.22
488.21	10359.21
488.39	10235.16
488.57	10600.29
488.75	10663.48
488.92	10855.40
489.10	10640.08
489.28	10719.65
489.46	11089.46
489.64	11108.18
489.81	11433.52
489.99	11154.99
490.17	11103.50
490.35	11527.14
490.53	11194.78
490.70	11517.78
490.88	11641.82
491.06	11843.11
491.24	11508.41
491.41	11981.20
491.59	12011.63
491.77	11782.26
491.95	12025.67
492.13	12152.06
492.30	12126.32
492.48	12081.85
492.66	12241.00
492.84	12205.89
493.01	12430.59
493.19	12648.26
493.37	12437.61
493.54	12681.02
493.72	12978.27
493.90	12840.18
494.08	12798.05
494.25	12872.95
494.43	13055.51
494.61	13233.39
494.79	13280.20
494.96	13327.01
495.14	13334.03
495.32	13310.63
495.49	13448.72
495.67	13619.58
495.85	13699.16
496.02	13612.56
496.20	13689.79
496.38	13804.48
496.55	13713.20
496.73	14270.25
496.91	13870.01
497.09	14057.26
497.26	14352.16
497.44	14232.80
497.62	14104.07
497.79	14647.07
497.97	14417.70
498.14	14600.26
498.32	14747.72
498.50	14539.41
498.67	14817.93
498.85	14640.05
499.03	14916.23
499.20	14691.54
499.38	14902.19
499.56	14827.29
499.73	15253.27
499.91	15407.75
500.08	15482.64
500.26	15276.68
500.44	15311.78
500.61	15452.22
500.79	15349.23
500.97	15489.67
501.14	15609.03
501.32	15686.27
501.49	15754.15
501.67	15620.74
501.84	15529.45
502.02	15798.62
502.20	15882.88
502.37	16175.44
502.55	16037.35
502.72	16002.24
502.90	16079.48
503.07	15887.56
503.25	16229.27
503.43	16114.59
503.60	16311.19
503.78	16435.24
503.95	16362.69
504.13	16343.96
504.30	16592.06
504.48	16535.88
504.65	16589.72
504.83	16781.64
505.01	16924.41
505.18	16856.54
505.36	17245.07
505.53	16657.59
505.71	17088.25
505.88	16783.98
506.06	16781.64
506.23	17490.82
506.41	17200.60
506.58	17277.83
506.76	17268.47
506.93	17357.41
507.11	17050.80
507.28	17350.39
507.46	17907.44
507.63	17685.09
507.81	17734.24
507.98	17640.62
508.16	17813.82
508.33	17657.00
508.50	17633.60
508.68	17994.04
508.85	17764.67
509.03	17802.11
509.20	17958.93
509.38	18106.38
509.55	18106.38
509.73	18284.26
509.90	18260.86
510.08	18104.04
510.25	18523.00
510.42	18523.00
510.60	18415.34
510.77	18649.39
510.95	18466.83
511.12	18654.07
511.30	18633.00
511.47	18661.09
511.64	18677.48
511.82	18991.11
511.99	18874.08
512.17	19044.94
512.34	18883.44
512.51	18918.55
512.69	18977.06
512.86	18963.02
513.04	19293.04
513.21	19466.24
513.38	19491.98
513.56	19276.65
513.73	19358.57
513.90	19248.57
514.08	19332.82
514.25	19630.07
514.43	19398.36
514.60	19777.53
514.77	19562.20
514.95	19641.78
515.12	19346.87
515.29	19669.86
515.47	19693.27
515.64	19946.05
515.81	19892.21
515.99	20128.61
516.16	20152.01
516.33	20095.84
516.51	20297.13
516.68	19995.20
516.85	20257.34
517.03	20229.25
517.20	20278.40
517.37	20402.45
517.54	20505.43
517.72	20400.11
517.89	20718.42
518.06	20425.86
518.24	20542.88
518.41	20570.97
518.58	20870.56
518.75	20519.48
518.93	20683.31
519.10	20596.71
519.27	21165.46
519.45	20741.83
519.62	21158.44
519.79	20877.58
519.96	20816.72
520.14	21156.10
520.31	20964.18
520.48	21081.21
520.65	20980.56
520.83	21261.43
521.00	21298.88
521.17	21336.32
521.34	21240.36
521.52	21228.66
521.69	21607.83
521.86	21530.59
522.03	21607.83
522.20	21694.43
522.38	21799.75
522.55	21659.32
522.72	21385.47
522.89	21474.42
523.07	22211.68
523.24	21649.96
523.41	22029.12
523.58	21792.73
523.75	22300.62
523.92	22003.38
524.10	21914.44
524.27	22181.26
524.44	22595.53
524.61	22363.82
524.78	22246.79
524.96	22267.86
525.13	22513.61
525.30	22216.36
525.47	22279.56
525.64	22340.41
525.81	22780.43
525.98	22438.72
526.16	22829.59
526.33	22548.72
526.50	23033.21
526.67	22658.73
526.84	22724.26
527.01	22658.73
527.18	22944.27
527.36	23042.57
527.53	23070.66
527.70	22951.29
527.87	23115.13
528.04	22789.80
528.21	22885.76
528.38	23117.47
528.55	23283.65
528.72	23204.07
528.89	23201.73
529.07	23054.28
529.24	23082.36
529.41	23229.82
529.58	23346.84
529.75	22925.55
529.92	23342.16
530.09	23449.83
530.26	23651.11
530.43	23695.58
530.60	23627.71
530.77	23709.63
530.94	23999.85
531.11	23353.87
531.28	23300.03
531.46	23833.68
531.63	23969.43
531.80	23887.51
531.97	24151.99
532.14	24460.94
532.31	23693.24
532.48	23845.38
532.65	24119.22
532.82	24196.46
532.99	23831.33
533.16	23936.66
533.33	23992.83
533.50	24482.00
533.67	24191.78
533.84	23758.78
534.01	23992.83
534.18	24161.35
534.35	24465.62
534.52	24421.15
534.69	24498.39
534.86	24542.86
535.03	24140.29
535.20	24734.78
535.37	24346.25
535.54	24482.00
535.71	24704.35
535.88	24161.35
536.05	24336.89
536.22	24882.24
536.38	24870.53
536.55	24807.34
536.72	25329.28
536.89	24606.05
537.06	24854.15
537.23	25116.29
537.40	24877.55
537.57	24882.24
537.74	24952.45
537.91	25195.87
538.08	25408.86
538.25	24769.89
538.42	25301.19
538.59	25097.56
538.75	25064.80
538.92	25450.99
539.09	25324.60
539.26	25369.07
539.43	25216.93
539.60	25366.73
539.77	25563.33
539.94	25607.80
540.11	25184.16
540.28	25542.27
540.44	25479.07
540.61	25507.16
540.78	25331.62
540.95	25802.07
541.12	25490.77
541.29	25652.27
541.46	25867.60
541.62	25322.26
541.79	25820.79
541.96	25039.05
542.13	25729.51
542.30	25633.55
542.47	25979.95
542.63	25745.89
542.80	26003.35
542.97	26415.29
543.14	26595.51
543.31	25940.16
543.48	25876.96
543.64	26345.07
543.81	26176.55
543.98	26155.49
544.15	26410.60
544.32	26478.48
544.48	26937.23
544.65	25940.16
544.82	26548.70
544.99	26164.85
545.16	26504.23
545.32	26483.16
545.49	26867.01
545.66	26904.46
545.83	26850.63
546.00	26916.16
546.16	26457.42
546.33	26497.20
546.50	26555.72
546.67	26855.31
546.83	26403.58
547.00	26593.17
547.17	26668.06
547.34	26686.79
547.50	26871.69
547.67	26927.86
547.84	26693.81
548.00	26717.22
548.17	27087.02
548.34	26878.71
548.51	27166.60
548.67	27400.65
548.84	26913.82
549.01	27009.78
549.18	27269.58
549.34	26827.22
549.51	27026.17
549.68	27211.07
549.84	26850.63
550.01	26965.31
550.18	26742.96
550.34	27484.91
550.51	27527.04
550.68	27576.19
550.84	27248.52
551.01	27384.27
551.18	27276.60
551.34	27175.96
551.51	27328.10
551.68	27276.60
551.84	27459.16
552.01	27847.69
552.18	27620.66
552.34	27498.95
552.51	27742.37
552.68	27550.45
552.84	27615.98
553.01	27578.53
553.18	27634.71
553.34	27835.99
553.51	27913.23
553.67	27723.65
553.84	28025.57
554.01	27915.57
554.17	27831.31
554.34	27529.38
554.51	28032.60
554.67	28025.57
554.84	27833.65
555.00	27693.22
555.17	27871.10
555.33	28163.67
555.50	27969.40
555.67	28041.96
555.83	27740.03
556.00	28343.89
556.16	27850.03
556.33	27672.15
556.50	28182.39
556.66	27814.93
556.83	27929.61
556.99	28606.03
557.16	28837.74
557.32	28201.11
557.49	28114.52
557.65	28203.46
557.82	28149.62
557.98	27983.44
558.15	28397.72
558.32	28006.85
558.48	28236.22
558.65	28313.46
558.81	28355.59
558.98	28650.50
559.14	28617.73
559.31	28191.75
559.47	28404.74
559.64	28341.55
559.80	28463.25
559.97	28540.49
560.13	28828.38
560.30	28545.17
560.46	28992.22
560.63	28486.66
560.79	28629.43
560.96	28659.86
561.12	28074.73
561.29	28313.46
561.45	28404.74
561.61	28371.97
561.78	28926.68
561.94	28252.61
562.11	28765.18
562.27	28669.22
562.44	28936.04
562.60	28720.71
562.77	28395.38
562.93	28638.80
563.10	28987.53
563.26	28826.04
563.42	29528.20
563.59	28884.55
563.75	29144.35
563.92	28907.96
564.08	28744.12
564.24	28631.77
564.41	28664.54
564.57	28694.97
564.74	28807.31
564.90	29109.24
565.07	28985.19
565.23	29254.36
565.39	28889.23
565.56	29226.27
565.72	29123.29
565.88	28945.41
566.05	28730.08
566.21	29024.98
566.38	28802.63
566.54	28954.77
566.70	28992.22
566.87	29469.69
567.03	29127.97
567.19	29483.73
567.36	28819.02
567.52	29310.53
567.68	28879.87
567.85	29376.06
568.01	29240.31
568.17	28952.43
568.34	29149.03
568.50	28940.72
568.66	29099.88
568.83	29462.66
568.99	29071.79
569.15	29151.37
569.32	29008.60
569.48	29214.57
569.64	29462.66
569.81	29516.50
569.97	29230.95
570.13	29614.80
570.30	28924.34
570.46	29689.70
570.62	29357.34
570.78	29003.92
570.95	28762.84
571.11	29750.55
571.27	29090.52
571.43	29266.06
571.60	29429.90
571.76	29153.71
571.92	29017.96
572.09	29415.85
572.25	29139.67
572.41	29565.65
572.57	29256.70
572.74	29663.95
572.90	29305.85
573.06	29565.65
573.22	29532.88
573.38	29816.08
573.55	29340.96
573.71	29638.20
573.87	29443.94
574.03	29661.61
574.20	29551.60
574.36	29221.59
574.52	29425.22
574.68	28793.27
574.84	29572.67
575.01	29575.01
575.17	29373.72
575.33	29474.37
575.49	29635.86
575.65	29544.58
575.82	29612.46
575.98	29589.05
576.14	29476.71
576.30	29333.93
576.46	29631.18
576.62	29415.85
576.79	29408.83
576.95	29280.10
577.11	29675.65
577.27	29832.47
577.43	29806.72
577.59	29586.71
577.75	29511.81
577.92	29305.85
578.08	29376.06
578.24	29446.28
578.40	29364.36
578.56	29415.85
578.72	29715.44
578.88	29788.00
579.04	29771.61
579.21	29530.54
579.37	29598.41
579.53	29743.53
579.69	29600.76
579.85	29235.63
580.01	29907.37
580.17	29188.82
580.33	29640.54
580.49	29401.81
580.65	29951.84
580.82	29841.83
580.98	29621.82
581.14	29553.94
581.30	29736.51
581.46	29649.91
581.62	29570.33
581.78	29647.57
581.94	29979.92
582.10	29755.23
582.26	29378.40
582.42	29308.19
582.58	29642.88
582.74	29343.30
582.90	29558.63
583.06	30110.99
583.22	29748.21
583.38	29701.40
583.54	29778.64
583.70	29579.69
583.86	29834.81
584.02	29619.48
584.18	30066.52
584.34	29795.02
584.50	29879.28
584.66	29483.73
584.82	29624.16
584.98	29958.86
585.14	29727.14
585.30	29638.20
585.46	29923.75
585.62	29125.63
585.78	29577.35
585.94	29282.44
586.10	29802.04
586.26	29930.77
586.42	29612.46
586.58	29797.36
586.74	29598.41
586.90	29673.31
587.06	29280.10
587.22	30003.33
587.38	29422.87
587.54	29844.17
587.70	30101.63
587.86	29710.76
588.02	29706.08
588.18	30253.76
588.34	29516.50
588.49	29816.08
588.65	29631.18
588.81	29762.25
588.97	29720.12
589.13	29799.70
589.29	29869.92
589.45	29895.66
589.61	30089.93
589.77	30323.98
589.93	30132.06
590.08	30120.35
590.24	30319.30
590.40	30188.23
590.56	30087.59
590.72	30504.20
590.88	29848.85
591.04	29954.18
591.20	30000.99
591.35	30279.51
591.51	29923.75
591.67	30270.15
591.83	30223.34
591.99	30026.73
592.15	30134.40
592.31	30064.18
592.46	30132.06
592.62	30225.68
592.78	30192.91
592.94	30251.42
593.10	30146.10
593.26	29902.68
593.41	30534.63
593.57	30068.86
593.73	29954.18
593.89	30230.36
594.05	30326.32
594.20	29972.90
594.36	29972.90
594.52	30031.41
594.68	30349.73
594.84	30162.48
594.99	30078.22
595.15	30096.95
595.31	30223.34
595.47	30139.08
595.62	30415.26
595.78	30204.61
595.94	30139.08
596.10	30288.87
596.25	29958.86
596.41	30139.08
596.57	29851.19
596.73	29876.94
596.88	30157.80
597.04	30122.69
597.20	30181.21
597.36	30534.63
597.51	30253.76
597.67	29951.84
597.83	30328.66
597.99	30115.67
598.14	30010.35
598.30	30347.39
598.46	30122.69
598.61	30408.24
598.77	30232.70
598.93	30246.74
599.09	30134.40
599.24	30560.37
599.40	30448.03
599.56	30672.72
599.71	30298.23
599.87	30572.08
600.03	30422.28
600.18	30396.54
600.34	30120.35
600.50	30382.49
600.65	30370.79
600.81	30499.52
600.97	30426.96
601.12	30604.84
601.28	30558.03
601.44	30850.60
601.59	30312.28
601.75	30335.68
601.91	30703.15
602.06	30433.99
602.22	30300.58
602.37	30478.46
602.53	30504.20
602.69	30436.33
602.84	30632.93
603.00	30595.48
603.16	30319.30
603.31	30295.89
603.47	30541.65
603.62	30382.49
603.78	30132.06
603.94	30167.16
604.09	30286.53
604.25	30284.19
604.40	29785.66
604.56	30405.90
604.71	30471.43
604.87	30422.28
605.03	30457.39
605.18	30377.81
605.34	30279.51
605.49	29883.96
605.65	30118.01
605.80	30019.71
605.96	29977.58
606.12	30160.14
606.27	30375.47
606.43	30199.93
606.58	30326.32
606.74	30333.34
606.89	30689.10
607.05	30345.05
607.20	30284.19
607.36	29902.68
607.51	29738.85
607.67	29940.13
607.82	29886.30
607.98	30164.82
608.13	30263.13
608.29	30452.71
608.44	30075.88
608.60	30312.28
608.75	30323.98
608.91	30192.91
609.06	30230.36
609.22	30312.28
609.37	30010.35
609.53	29968.22
609.68	30052.48
609.84	30157.80
609.99	29762.25
610.15	29888.64
610.30	30106.31
610.46	30146.10
610.61	29912.05
610.76	29893.32
610.92	29841.83
611.07	30071.20
611.23	29874.60
611.38	30143.76
611.54	29766.93
611.69	29830.13
611.84	29514.16
612.00	29572.67
612.15	29619.48
612.31	30190.57
612.46	29968.22
612.62	29933.11
612.77	29928.43
612.92	30211.64
613.08	29895.66
613.23	30022.05
613.39	29682.67
613.54	29626.50
613.69	29621.82
613.85	29570.33
614.00	29652.25
614.15	29968.22
614.31	29928.43
614.46	29720.12
614.62	29682.67
614.77	30057.16
614.92	29909.71
615.08	29989.28
615.23	29647.57
615.38	29315.21
615.54	29773.95
615.69	29841.83
615.84	29413.51
616.00	29617.14
616.15	29713.10
616.30	29565.65
616.46	29502.45
616.61	29575.01
616.76	29268.40
616.92	29621.82
617.07	29696.72
617.22	29362.02
617.37	29481.39
617.53	29422.87
617.68	29156.05
617.83	29338.62
617.99	29046.05
618.14	29411.17
618.29	29329.25
618.45	29862.90
618.60	29233.29
618.75	29457.98
618.90	29518.84
619.06	29448.62
619.21	29170.10
619.36	29504.79
619.51	29252.02
619.67	28886.89
619.82	28982.85
619.97	29256.70
620.12	29184.14
620.28	29118.60
620.43	29064.77
620.58	29134.99
620.73	29275.42
620.89	29399.47
621.04	29331.59
621.19	28819.02
621.34	29125.63
621.49	28767.52
621.65	28737.10
621.80	29223.93
621.95	28556.88
622.10	29333.93
622.25	28826.04
622.41	28732.42
622.56	28924.34
622.71	28929.02
622.86	28933.70
623.01	28945.41
623.16	29214.57
623.32	28884.55
623.47	28833.06
623.62	28929.02
623.77	29362.02
623.92	28828.38
624.07	28472.62
624.23	28559.22
624.38	28521.77
624.53	29060.09
624.68	28868.17
624.83	28982.85
624.98	28863.49
625.13	28627.09
625.29	28559.22
625.44	28687.95
625.59	28486.66
625.74	28423.47
625.89	28428.15
626.04	28694.97
626.19	28535.81
626.34	28538.15
626.49	28418.78
626.65	28388.36
626.80	28411.76
626.95	28439.85
627.10	28671.56
627.25	28453.89
627.40	28215.16
627.55	28416.44
627.70	28283.03
627.85	27999.83
628.00	28102.81
628.15	28264.31
628.30	28060.68
628.45	27920.25
628.60	27934.29
628.76	28411.76
628.91	28311.12
629.06	28297.08
629.21	28140.26
629.36	28283.03
629.51	28100.47
629.66	28168.35
629.81	27901.53
629.96	27953.02
630.11	28030.26
630.26	27672.15
630.41	28051.32
630.56	28194.09
630.71	28189.41
630.86	27604.28
631.01	27964.72
631.16	28133.24
631.31	27718.96
631.46	27903.87
631.61	28215.16
631.76	28058.34
631.91	27985.79
632.06	27625.34
632.21	27730.67
632.36	27962.38
632.51	27601.94
632.66	27847.69
632.81	27594.92
632.96	27971.74
633.10	27721.30
633.25	27660.45
633.40	28121.54
633.55	27917.91
633.70	27328.10
633.85	27761.09
634.00	27152.55
634.15	27487.25
634.30	27646.41
634.45	27405.33
634.60	27517.68
634.75	27718.96
634.90	27503.64
635.05	27342.14
635.19	27527.04
635.34	27770.46
635.49	27501.29
635.64	27372.57
635.79	27569.17
635.94	27372.57
636.09	27304.69
636.24	27695.56
636.39	27105.74
636.53	27314.05
636.68	26960.63
636.83	27058.93
636.98	27271.92
637.13	27339.80
637.28	26775.73
637.43	27520.02
637.57	27669.81
637.72	27461.51
637.87	27187.66
638.02	27452.14
638.17	27005.10
638.32	27300.01
638.46	26920.84
638.61	27126.81
638.76	26941.91
638.91	27206.39
639.06	26951.27
639.20	27318.73
639.35	27136.17
639.50	27295.33
639.65	27339.80
639.80	27190.00
639.94	26829.56
640.09	27152.55
640.24	26902.12
640.39	26913.82
640.54	26199.96
640.68	27131.49
640.83	26801.47
640.98	26642.32
641.13	26775.73
641.27	26981.70
641.42	26799.13
641.57	26724.24
641.72	26740.62
641.86	26604.87
642.01	26630.62
642.16	26766.37
642.31	26757.00
642.45	26677.43
642.60	26696.15
642.75	26672.74
642.90	26712.53
643.04	26256.13
643.19	26258.47
643.34	26506.57
643.48	26450.39
643.63	26679.77
643.78	26539.33
643.93	26934.88
644.07	26607.21
644.22	26548.70
644.37	26405.92
644.51	26471.46
644.66	26218.68
644.81	26092.29
644.95	26434.01
645.10	26471.46
645.25	26319.32
645.39	26230.38
645.54	26476.14
645.69	26263.15
645.83	26321.66
645.98	26768.71
646.13	26527.63
646.27	26434.01
646.42	26087.61
646.57	26092.29
646.71	26057.18
646.86	26206.98
647.00	26328.69
647.15	25862.92
647.30	25839.51
647.44	25755.26
647.59	26103.99
647.74	25914.41
647.88	25951.86
648.03	26050.16
648.17	26302.94
648.32	26499.55
648.47	25982.29
648.61	26263.15
648.76	26546.36
648.90	26118.04
649.05	26176.55
649.20	25685.04
649.34	26029.10
649.49	25579.71
649.63	25645.25
649.78	25628.87
649.92	25759.94
650.07	26045.48
650.21	25825.47
650.36	25628.87
650.51	25511.84
650.65	25476.73
650.80	26272.51
650.94	25750.57
651.09	25799.73
651.23	25146.72
651.38	25771.64
651.52	25659.29
651.67	25455.67
651.81	25474.39
651.96	25558.65
652.10	25731.85
652.25	25582.06
652.39	25680.36
652.54	25715.47
652.68	25518.86
652.83	25326.94
652.97	25486.09
653.12	25319.92
653.26	25233.32
653.41	25633.55
653.55	25422.90
653.70	25394.81
653.84	25369.07
653.99	25577.37
654.13	25717.81
654.27	25233.32
654.42	25434.60
654.56	25165.44
654.71	25429.92
654.85	25766.96
655.00	25277.79
655.14	25270.76
655.29	25153.74
655.43	25017.99
655.57	25319.92
655.72	25172.46
655.86	24905.64
656.01	25127.99
656.15	25186.50
656.30	24783.93
656.44	25053.09
656.58	25125.65
656.73	24978.20
656.87	25170.12
657.01	25029.69
657.16	25015.65
657.30	25247.36
657.45	25165.44
657.59	24734.78
657.73	24559.24
657.88	24732.44
658.02	25116.29
658.16	24847.13
658.31	24797.98
658.45	24762.87
658.60	24975.86
658.74	24592.01
658.88	24266.67
659.03	24584.99
659.17	24790.95
659.31	24456.26
659.46	24933.73
659.60	24432.85
659.74	24746.48
659.89	24657.54
660.03	24751.17
660.17	24594.35
660.32	24421.15
660.46	24367.32
660.60	24233.91
660.74	24596.69
660.89	24318.17
661.03	24294.76
661.17	24290.08
661.32	24114.54
661.46	24264.33
661.60	24451.58
661.74	24189.44
661.89	24107.52
662.03	23756.44
662.17	23789.20
662.31	24149.65
662.46	23667.50
662.60	23875.80
662.74	23854.74
662.88	23857.08
663.03	23737.71
663.17	23491.96
663.31	23541.11
663.45	23969.43
663.60	23653.45
663.74	23707.29
663.88	23875.80
664.02	23667.50
664.17	23693.24
664.31	23697.92
664.45	23520.04
664.59	23740.05
664.73	23494.30
664.88	23487.28
665.02	23489.62
665.16	23365.57
665.30	23541.11
665.44	23325.78
665.59	23026.19
665.73	23374.93
665.87	23065.98
666.01	23332.80
666.15	23344.50
666.29	23470.89
666.44	23236.84
666.58	23009.81
666.72	23220.45
666.86	23248.54
667.00	23498.98
667.14	22768.73
667.28	23157.26
667.43	22815.54
667.57	22892.78
667.71	22726.60
667.85	22513.61
667.99	22740.64
668.13	23136.20
668.27	22698.52
668.41	22707.88
668.56	22611.92
668.70	22672.77
668.84	22600.21
668.98	22946.61
669.12	22663.41
669.26	22539.36
669.40	22511.27
669.54	22752.35
669.68	22504.25
669.82	21844.22
669.96	22244.45
670.10	22354.46
670.25	22548.72
670.39	21998.70
670.53	22050.19
670.67	21869.97
670.81	21951.88
670.95	21792.73
671.09	21937.84
671.23	22125.08
671.37	21998.70
671.51	22368.50
671.65	22024.44
671.79	22111.04
671.93	21944.86
672.07	21729.53
672.21	21556.33
672.35	21369.09
672.49	21689.74
672.63	21399.52
672.77	21525.91
672.91	21535.27
673.05	21610.17
673.19	21303.56
673.33	21380.79
673.47	21380.79
673.61	21518.89
673.75	21394.84
673.89	21284.83
674.03	21228.66
674.17	21214.62
674.31	21212.28
674.45	21078.86
674.59	21106.95
674.73	21268.45
674.87	21221.64
675.01	20922.05
675.15	20755.87
675.29	20638.84
675.43	20727.78
675.56	20683.31
675.70	20812.04
675.84	21322.28
675.98	20130.95
676.12	20830.77
676.26	20807.36
676.40	20875.24
676.54	20582.67
676.68	20587.35
676.82	20039.67
676.96	20217.55
677.10	20313.51
677.23	19810.29
677.37	19840.72
677.51	19981.15
677.65	19992.86
677.79	19742.42
677.93	20023.28
678.07	19522.41
678.21	19562.20
678.34	19960.09
678.48	19747.10
678.62	19667.52
678.76	19545.81
678.90	19559.86
679.04	19447.51
679.18	19435.81
679.31	19056.64
679.45	19044.94
679.59	18951.32
679.73	19131.54
679.87	18789.82
680.00	19187.71
680.14	18841.31
680.28	19089.41
680.42	18892.80
680.56	19047.28
680.70	18728.97
680.83	18731.31
680.97	18801.52
681.11	18773.44
681.25	18562.79
681.39	18719.60
681.52	18670.45
681.66	18368.52
681.80	18415.34
681.94	18331.08
682.07	18232.77
682.21	18345.12
682.35	17912.12
682.49	18019.78
682.62	17940.21
682.76	18054.89
682.90	17865.31
683.04	17743.60
683.17	17905.10
683.31	17916.80
683.45	17958.93
683.59	17797.43
683.72	17937.87
683.86	17352.73
684.00	17689.77
684.13	17362.09
684.27	17554.02
684.41	17095.27
684.55	17013.35
684.68	17146.76
684.82	16807.39
684.96	16758.24
685.09	16999.31
685.23	17046.12
685.37	16624.83
685.50	17266.13
685.64	17083.57
685.78	17069.53
685.91	16730.15
686.05	16947.82
686.19	16477.37
686.32	16737.17
686.46	16484.39
686.60	16634.19
686.73	16568.65
686.87	16269.06
687.01	16367.37
687.14	16285.45
687.28	16182.46
687.42	15934.37
687.55	16070.12
687.69	15999.90
687.82	16173.10
687.96	16280.77
688.10	16189.49
688.23	15882.88
688.37	16042.03
688.50	15941.39
688.64	15768.19
688.78	15688.61
688.91	15545.84
689.05	15592.65
689.18	15653.50
689.32	14944.32
689.46	15339.87
689.59	15353.91
689.73	15295.40
689.86	15234.55
690.00	15061.35
690.13	15433.49
690.27	15042.62
690.41	14946.66
690.54	15187.74
690.68	14953.68
690.81	15009.86
690.95	15192.42
691.08	14878.79
691.22	14661.12
691.35	14951.34
691.49	14810.91
691.62	14846.02
691.76	14698.56
691.89	14499.62
692.03	14305.35
692.16	14150.88
692.30	14003.43
692.43	14216.41
692.57	14185.99
692.70	14139.18
692.84	14059.60
692.97	14024.49
693.11	14143.86
693.24	13825.54
693.38	14132.15
693.51	13834.91
693.65	13973.00
693.78	13687.45
693.92	13783.41
694.05	13781.07
694.19	13654.69
694.32	13420.63
694.45	13315.31
694.59	13214.66
694.72	13528.30
694.86	13429.99
694.99	12947.84
695.13	13224.03
695.26	13137.43
695.39	12847.20
695.53	12952.52
695.66	12987.63
695.80	12842.52
695.93	13266.16
696.07	12978.27
696.20	12940.82
696.33	12800.39
696.47	12851.88
696.60	12713.79
696.73	12507.82
696.87	12580.38
697.00	12578.04
697.14	12301.86
697.27	12526.55
697.40	12292.49
697.54	12416.54
697.67	12004.61
697.80	12023.33
697.94	12004.61
698.07	11889.92
698.21	11948.43
698.34	11763.53
698.47	12229.30
698.61	11913.33
698.74	12020.99
698.87	11962.48
699.01	11721.40
699.14	11843.11
699.27	11763.53
699.40	11749.49
699.54	11789.28
699.67	11595.01
699.80	11583.31
699.94	11400.75
700.07	11176.06
700.20	11337.56
700.34	10995.84
700.47	11124.57
700.60	11183.08
700.73	11047.33
700.87	11211.17
701.00	11185.42
701.13	11066.05
701.26	10944.34
701.40	11049.67
701.53	11035.63
701.66	10960.73
701.79	10890.51
701.93	10759.44
702.06	10658.80
702.19	10656.46
702.32	10672.84
702.46	10637.73
702.59	10590.92
702.72	10394.32
702.85	10324.10
702.99	10569.86
703.12	10136.86
703.25	10190.69
703.38	10195.37
703.51	10200.05
703.65	10134.52
703.78	9912.17
703.91	10111.11
704.04	10171.97
704.17	10129.84
704.31	10160.27
704.44	9813.87
704.57	9806.84
704.70	9781.10
704.83	9673.43
704.96	9717.90
705.10	9570.45
705.23	9467.47
>>>>>End Processed Spectral Data<<<<<
