SpectraSuite Data File
++++++++++++++++++++++++++++++++++++
Date: Fri Oct 18 13:58:26 GMT-05:00 2013
User: bianchi
Dark Spectrum Present: No
Reference Spectrum Present: No
Number of Sampled Component Spectra: 1
Spectrometers: USB2+H05261
Integration Time (usec): 50000 (USB2+H05261)
Spectra Averaged: 1 (USB2+H05261)
Boxcar Smoothing: 0 (USB2+H05261)
Correct for Electrical Dark: No (USB2+H05261)
Strobe/Lamp Enabled: No (USB2+H05261)
Correct for Detector Non-linearity: No (USB2+H05261)
Correct for Stray Light: No (USB2+H05261)
Number of Pixels in Processed Spectrum: 2048
>>>>>Begin Processed Spectral Data<<<<<
365.73	0.00
365.92	0.00
366.12	0.00
366.32	0.00
366.52	0.00
366.72	0.00
366.91	0.00
367.11	0.00
367.31	0.00
367.51	0.00
367.70	0.00
367.90	0.00
368.10	0.00
368.30	0.00
368.49	0.00
368.69	0.00
368.89	0.00
369.09	0.00
369.28	0.00
369.48	0.00
369.68	0.00
369.87	0.00
370.07	0.00
370.27	0.00
370.47	0.00
370.66	79.58
370.86	23.41
371.06	131.07
371.25	131.07
371.45	135.75
371.65	154.48
371.84	95.96
372.04	184.90
372.24	222.35
372.44	142.77
372.63	145.11
372.83	166.18
373.03	156.82
373.22	234.05
373.42	154.48
373.62	194.26
373.81	161.50
374.01	250.44
374.21	189.58
374.40	177.88
374.60	241.08
374.79	229.37
374.99	224.69
375.19	290.23
375.38	229.37
375.58	222.35
375.78	259.80
375.97	266.82
376.17	318.31
376.37	292.57
376.56	266.82
376.76	229.37
376.95	259.80
377.15	290.23
377.35	264.48
377.54	259.80
377.74	294.91
377.93	337.04
378.13	276.18
378.33	332.36
378.52	278.52
378.72	320.65
378.91	339.38
379.11	229.37
379.31	330.02
379.50	262.14
379.70	341.72
379.89	290.23
380.09	299.59
380.28	255.12
380.48	320.65
380.68	301.93
380.87	266.82
381.07	255.12
381.26	308.95
381.46	369.80
381.65	318.31
381.85	344.06
382.04	257.46
382.24	311.29
382.43	252.78
382.63	351.08
382.83	290.23
383.02	325.33
383.22	379.17
383.41	292.57
383.61	327.68
383.80	344.06
384.00	416.62
384.19	379.17
384.39	386.19
384.58	383.85
384.78	332.36
384.97	318.31
385.17	418.96
385.36	423.64
385.56	383.85
385.75	404.91
385.95	341.72
386.14	465.77
386.34	365.12
386.53	444.70
386.72	407.25
386.92	428.32
387.11	411.93
387.31	383.85
387.50	449.38
387.70	444.70
387.89	428.32
388.09	449.38
388.28	390.87
388.48	444.70
388.67	470.45
388.86	397.89
389.06	479.81
389.25	465.77
389.45	463.43
389.64	472.79
389.84	468.11
390.03	458.74
390.22	421.30
390.42	435.34
390.61	498.53
390.81	482.15
391.00	505.56
391.19	430.66
391.39	550.03
391.58	491.51
391.78	507.90
391.97	594.50
392.16	531.30
392.36	580.45
392.55	524.28
392.75	580.45
392.94	557.05
393.13	585.13
393.33	545.34
393.52	566.41
393.71	512.58
393.91	554.71
394.10	606.20
394.29	512.58
394.49	594.50
394.68	718.54
394.88	636.63
395.07	603.86
395.26	617.90
395.46	655.35
395.65	641.31
395.84	580.45
396.04	603.86
396.23	638.97
396.42	732.59
396.62	669.39
396.81	610.88
397.00	650.67
397.19	657.69
397.39	643.65
397.58	634.29
397.77	519.60
397.97	601.52
398.16	648.33
398.35	767.70
398.55	603.86
398.74	744.29
398.93	671.73
399.12	695.14
399.32	685.78
399.51	674.07
399.70	720.88
399.90	706.84
400.09	807.48
400.28	812.17
400.47	791.10
400.67	760.67
400.86	774.72
401.05	828.55
401.24	800.46
401.44	760.67
401.63	765.36
401.82	772.38
402.01	795.78
402.21	779.40
402.40	786.42
402.59	833.23
402.78	774.72
402.97	854.30
403.17	891.74
403.36	866.00
403.55	875.36
403.74	830.89
403.93	840.25
404.13	922.17
404.32	870.68
404.51	926.85
404.70	947.92
404.89	903.45
405.09	931.53
405.28	800.46
405.47	896.43
405.66	973.66
405.85	983.02
406.05	964.30
406.24	973.66
406.43	973.66
406.62	1043.88
406.81	1076.65
407.00	868.34
407.20	961.96
407.39	985.37
407.58	1022.81
407.77	1062.60
407.96	1050.90
408.15	961.96
408.34	1050.90
408.54	1081.33
408.73	1097.71
408.92	1041.54
409.11	1076.65
409.30	1104.73
409.49	1181.97
409.68	1123.46
409.87	1088.35
410.07	1259.21
410.26	1111.75
410.45	1156.22
410.64	1137.50
410.83	1146.86
411.02	1196.01
411.21	1277.93
411.40	1273.25
411.59	1303.68
411.78	1224.10
411.98	1231.12
412.17	1259.21
412.36	1315.38
412.55	1334.11
412.74	1341.13
412.93	1355.17
413.12	1366.87
413.31	1432.41
413.50	1348.15
413.69	1397.30
413.88	1469.86
414.07	1434.75
414.26	1413.68
414.45	1406.66
414.64	1390.28
414.83	1453.47
415.02	1519.01
415.22	1523.69
415.41	1549.43
415.60	1544.75
415.79	1568.16
415.98	1502.62
416.17	1556.46
416.36	1509.65
416.55	1624.33
416.74	1603.27
416.93	1600.93
417.12	1540.07
417.31	1645.40
417.50	1685.19
417.69	1659.44
417.88	1727.32
418.07	1657.10
418.26	1708.59
418.45	1762.42
418.64	1811.57
418.83	1813.92
419.02	1699.23
419.21	1701.57
419.39	1783.49
419.58	1846.68
419.77	1809.23
419.96	1769.44
420.15	1905.20
420.34	1839.66
420.53	1820.94
420.72	1914.56
420.91	1895.83
421.10	1846.68
421.29	1952.01
421.48	1956.69
421.67	1900.52
421.86	1973.07
422.05	1905.20
422.24	1987.11
422.43	1947.33
422.61	1916.90
422.80	2083.08
422.99	1870.09
423.18	1942.64
423.37	2043.29
423.56	1877.11
423.75	2073.71
423.94	1914.56
424.13	1844.34
424.32	1881.79
424.50	2080.74
424.69	2024.56
424.88	2087.76
425.07	1895.83
425.26	1942.64
425.45	2005.84
425.64	1989.46
425.83	1977.75
426.01	2015.20
426.20	1998.82
426.39	1900.52
426.58	2050.31
426.77	2029.24
426.96	2040.95
427.15	2057.33
427.33	2157.97
427.52	2101.80
427.71	2118.18
427.90	2150.95
428.09	2113.50
428.28	2104.14
428.46	2157.97
428.65	2181.38
428.84	2174.36
429.03	2136.91
429.22	2244.57
429.40	2244.57
429.59	2214.15
429.78	2115.84
429.97	2106.48
430.16	2127.55
430.34	2349.90
430.53	2272.66
430.72	2293.72
430.91	2260.96
431.10	2232.87
431.28	2286.70
431.47	2359.26
431.66	2422.45
431.85	2317.13
432.03	2389.69
432.22	2373.30
432.41	2342.88
432.60	2354.58
432.79	2368.62
432.97	2424.80
433.16	2434.16
433.35	2523.10
433.54	2560.55
433.72	2408.41
433.91	2427.14
434.10	2448.20
434.28	2530.12
434.47	2469.27
434.66	2534.80
434.85	2586.29
435.03	2569.91
435.22	2476.29
435.41	2511.39
435.59	2654.17
435.78	2558.21
435.97	2581.61
436.16	2654.17
436.34	2583.95
436.53	2607.36
436.72	2836.73
436.90	2710.34
437.09	2644.81
437.28	2576.93
437.46	2768.85
437.65	2752.47
437.84	2794.60
438.02	2733.75
438.21	2796.94
438.40	2724.38
438.58	2754.81
438.77	2754.81
438.96	2867.16
439.14	2843.75
439.33	2925.67
439.52	2956.10
439.70	2916.31
439.89	2939.71
440.08	2972.48
440.26	2909.29
440.45	2942.05
440.63	3141.00
440.82	3138.66
441.01	3012.27
441.19	3080.14
441.38	3110.57
441.57	3152.70
441.75	3187.81
441.94	3281.43
442.12	3187.81
442.31	3279.09
442.50	3302.50
442.68	3255.69
442.87	3183.13
443.05	3332.92
443.24	3183.13
443.43	3295.47
443.61	3370.37
443.80	3438.25
443.98	3407.82
444.17	3150.36
444.35	3419.52
444.54	3480.38
444.73	3428.88
444.91	3332.92
445.10	3309.52
445.28	3520.17
445.47	3389.10
445.65	3478.04
445.84	3379.73
446.02	3489.74
446.21	3447.61
446.39	3456.97
446.58	3513.14
446.77	3534.21
446.95	3276.75
447.14	3293.13
447.32	3648.90
447.51	3473.36
447.69	3414.84
447.88	3482.72
448.06	3478.04
448.25	3356.33
448.43	3372.71
448.62	3482.72
448.80	3396.12
448.99	3543.57
449.17	3475.70
449.36	3506.12
449.54	3667.62
449.73	3641.87
449.91	3719.11
450.10	3517.83
450.28	3728.47
450.46	3761.24
450.65	3684.00
450.83	3758.90
451.02	3712.09
451.20	3772.94
451.39	3716.77
451.57	3669.96
451.76	3824.44
451.94	3777.62
452.13	3805.71
452.31	3803.37
452.49	3721.45
452.68	3812.73
452.86	3819.75
453.05	3756.56
453.23	3803.37
453.42	3770.60
453.60	3999.98
453.78	3913.38
453.97	3808.05
454.15	3770.60
454.34	3845.50
454.52	3913.38
454.70	4014.02
454.89	4037.42
455.07	4060.83
455.26	3908.69
455.44	4044.45
455.62	4114.66
455.81	3992.95
455.99	4042.11
456.17	4053.81
456.36	4046.79
456.54	4102.96
456.73	4159.13
456.91	4196.58
457.09	4269.14
457.28	4322.97
457.46	4222.33
457.64	4304.25
457.83	4276.16
458.01	4325.31
458.19	4430.63
458.38	4311.27
458.56	4395.53
458.74	4365.10
458.93	4337.01
459.11	4496.17
459.29	4425.95
459.48	4414.25
459.66	4299.56
459.84	4400.21
460.03	4498.51
460.21	4383.82
460.39	4456.38
460.57	4542.98
460.76	4638.94
460.94	4533.62
461.12	4437.66
461.31	4704.48
461.49	4531.28
461.67	4566.39
461.85	4772.35
462.04	4641.28
462.22	4622.56
462.40	4713.84
462.59	4730.22
462.77	4671.71
462.95	4753.63
463.13	4732.56
463.32	4784.06
463.50	4816.82
463.68	4873.00
463.86	4840.23
464.05	4706.82
464.23	4751.29
464.41	4908.10
464.59	4737.24
464.78	4655.33
464.96	4980.66
465.14	4933.85
465.32	4746.61
465.50	4985.34
465.69	5114.07
465.87	5001.72
466.05	4842.57
466.23	4922.15
466.41	5006.41
466.60	5158.54
466.78	4952.57
466.96	5020.45
467.14	4887.04
467.32	4924.49
467.51	5327.06
467.69	4762.99
467.87	5029.81
468.05	5018.11
468.23	5088.32
468.41	5053.22
468.60	5193.65
468.78	5062.58
468.96	5231.10
469.14	5083.64
469.32	5193.65
469.50	5139.82
469.69	5128.11
469.87	5434.72
470.05	5416.00
470.23	5408.98
470.41	5343.44
470.59	5458.13
470.77	5507.28
470.95	5479.19
471.14	5605.58
471.32	5509.62
471.50	5556.43
471.68	5722.61
471.86	5706.23
472.04	5664.10
472.22	5741.33
472.40	5572.82
472.58	5717.93
472.77	5860.70
472.95	5790.49
473.13	5898.15
473.31	5703.89
473.49	5755.38
473.67	5933.26
473.85	5827.93
474.03	5970.71
474.21	5781.12
474.39	5951.98
474.57	5982.41
474.75	6104.12
474.93	6024.54
475.12	6076.03
475.30	6225.82
475.48	6190.72
475.66	6148.59
475.84	6176.67
476.02	6207.10
476.20	6195.40
476.38	6541.80
476.56	6534.78
476.74	6492.65
476.92	6551.16
477.10	6417.75
477.28	6469.24
477.46	6429.45
477.64	6612.01
477.82	6820.32
478.00	6729.04
478.18	6712.66
478.36	6881.18
478.54	6883.52
478.72	7066.08
478.90	7073.10
479.08	7190.13
479.26	7246.30
479.44	7199.49
479.62	7360.98
479.80	7297.79
479.98	7318.86
480.16	7421.84
480.34	7510.78
480.52	7485.03
480.70	7538.87
480.88	7468.65
481.06	7676.96
481.24	7709.72
481.41	7833.77
481.59	7955.48
481.77	7763.56
481.95	8138.04
482.13	8051.44
482.31	8025.70
482.49	8189.53
482.67	8098.25
482.85	8472.74
483.03	8346.35
483.21	8533.59
483.39	8365.07
483.57	8566.36
483.74	8315.92
483.92	8608.49
484.10	8718.50
484.28	8910.42
484.46	8847.22
484.64	9018.08
484.82	8781.69
485.00	8994.68
485.18	9217.03
485.35	9135.11
485.53	9188.94
485.71	9254.48
485.89	9385.55
486.07	9479.17
486.25	9434.70
486.43	9523.64
486.61	9664.07
486.78	9731.95
486.96	9748.33
487.14	10043.24
487.32	9839.61
487.50	10076.01
487.68	10012.81
487.85	10134.52
488.03	10424.75
488.21	10541.77
488.39	10553.48
488.57	10663.48
488.75	10675.18
488.92	10731.36
489.10	11115.20
489.28	10918.60
489.46	10958.39
489.64	10939.66
489.81	11187.76
489.99	11255.64
490.17	11211.17
490.35	11419.47
490.53	11124.57
490.70	11496.71
490.88	11545.86
491.06	11742.47
491.24	11613.74
491.41	11693.32
491.59	11908.65
491.77	12032.69
491.95	12109.93
492.13	12053.76
492.30	12107.59
492.48	12224.62
492.66	12358.03
492.84	12365.05
493.01	12325.26
493.19	12519.53
493.37	12692.73
493.54	12842.52
493.72	12816.77
493.90	12879.97
494.08	12781.67
494.25	13034.44
494.43	12910.40
494.61	13018.06
494.79	13261.48
494.96	13020.40
495.14	13219.35
495.32	13195.94
495.49	13301.26
495.67	13570.43
495.85	13703.84
496.02	13827.88
496.20	13795.12
496.38	13764.69
496.55	13722.56
496.73	13977.68
496.91	14078.32
497.09	13942.57
497.26	14169.60
497.44	14160.24
497.62	14153.22
497.79	14609.62
497.97	14317.06
498.14	14796.87
498.32	14700.90
498.50	14754.74
498.67	14586.22
498.85	14738.35
499.03	15199.44
499.20	14986.45
499.38	14747.72
499.56	14941.98
499.73	14888.15
499.91	15129.22
500.08	15496.69
500.26	14794.53
500.44	15400.72
500.61	15316.47
500.79	15311.78
500.97	15733.08
501.14	15721.38
501.32	15728.40
501.49	15550.52
501.67	15889.90
501.84	15796.28
502.02	15829.04
502.20	15742.44
502.37	16039.69
502.55	15981.18
502.72	15981.18
502.90	15960.11
503.07	15946.07
503.25	15936.71
503.43	15992.88
503.60	16278.43
503.78	16393.11
503.95	16524.18
504.13	16292.47
504.30	16510.14
504.48	16343.96
504.65	16798.02
504.83	16854.20
505.01	16854.20
505.18	16666.95
505.36	17242.73
505.53	16603.76
505.71	16798.02
505.88	16975.91
506.06	16638.87
506.23	17254.43
506.41	17067.19
506.58	17401.88
506.76	17448.69
506.93	16947.82
507.11	16996.97
507.28	17078.89
507.46	17500.19
507.63	17221.66
507.81	17764.67
507.98	17411.25
508.16	17472.10
508.33	18057.23
508.50	17542.32
508.68	17776.37
508.85	17755.30
509.03	17933.18
509.20	18120.43
509.38	17933.18
509.55	18295.97
509.73	18150.85
509.90	18256.18
510.08	18293.63
510.25	18412.99
510.42	18420.02
510.60	18647.05
510.77	18565.13
510.95	18424.70
511.12	18127.45
511.30	18345.12
511.47	18501.93
511.64	18412.99
511.82	18750.03
511.99	18349.80
512.17	18775.78
512.34	18930.25
512.51	18876.42
512.69	18974.72
512.86	18944.30
513.04	19417.08
513.21	19145.58
513.38	19037.92
513.56	19384.32
513.73	19255.59
513.90	19386.66
514.08	19314.10
514.25	19232.18
514.43	19360.91
514.60	19520.07
514.77	19421.77
514.95	19772.85
515.12	19939.02
515.29	19466.24
515.47	19971.79
515.64	20044.35
515.81	19913.28
515.99	19573.90
516.16	20013.92
516.33	20046.69
516.51	20240.95
516.68	19906.26
516.85	20074.77
517.03	20144.99
517.20	20278.40
517.37	20493.73
517.54	20514.80
517.72	20315.85
517.89	20505.43
518.06	20533.52
518.24	20683.31
518.41	20343.94
518.58	20575.65
518.75	20774.60
518.93	20933.75
519.10	20730.12
519.27	20699.70
519.45	20355.64
519.62	20872.90
519.79	20592.03
519.96	20905.66
520.14	21099.93
520.31	20975.88
520.48	21025.03
520.65	21184.19
520.83	21247.38
521.00	21586.76
521.17	21329.30
521.34	21085.89
521.52	21165.46
521.69	21399.52
521.86	21504.84
522.03	21624.21
522.20	21514.20
522.38	21919.12
522.55	21474.42
522.72	21551.65
522.89	22024.44
523.07	21949.54
523.24	21553.99
523.41	22092.32
523.58	21867.63
523.75	21781.03
523.92	21902.73
524.10	21666.34
524.27	22183.60
524.44	22171.89
524.61	22319.35
524.78	22125.08
524.96	22204.66
525.13	22508.93
525.30	21855.92
525.47	22235.09
525.64	22171.89
525.81	22300.62
525.98	22628.30
526.16	22600.21
526.33	22352.12
526.50	22876.40
526.67	22750.01
526.84	22735.96
527.01	22595.53
527.18	22904.48
527.36	22951.29
527.53	23082.36
527.70	22752.35
527.87	23288.33
528.04	22911.50
528.21	22822.56
528.38	22857.67
528.55	22963.00
528.72	23056.62
528.89	23410.04
529.07	23311.74
529.24	23241.52
529.41	23374.93
529.58	23239.18
529.75	23028.53
529.92	23297.69
530.09	23281.31
530.26	23527.06
530.43	23522.38
530.60	22963.00
530.77	23700.26
530.94	23520.04
531.11	23447.49
531.28	23630.05
531.46	23658.14
531.63	23744.73
531.80	23674.52
531.97	23896.87
532.14	23850.06
532.31	23557.49
532.48	23683.88
532.65	23700.26
532.82	23742.39
532.99	23630.05
533.16	23768.14
533.33	24067.73
533.50	24266.67
533.67	24271.36
533.84	24168.37
534.01	23896.87
534.18	24053.69
534.35	24519.45
534.52	24322.85
534.69	24463.28
534.86	24423.49
535.03	24271.36
535.20	24400.08
535.37	23964.75
535.54	24271.36
535.71	24009.22
535.88	24215.18
536.05	24301.78
536.22	24683.29
536.38	24805.00
536.55	24507.75
536.72	24402.43
536.89	24753.51
537.06	24617.75
537.23	24741.80
537.40	24648.18
537.57	24582.65
537.74	24648.18
537.91	24650.52
538.08	24936.07
538.25	25177.14
538.42	24917.34
538.59	25261.40
538.75	24877.55
538.92	24896.28
539.09	25378.43
539.26	24833.08
539.43	25472.05
539.60	25343.32
539.77	25025.01
539.94	25303.53
540.11	25146.72
540.28	25067.14
540.44	25516.52
540.61	25144.38
540.78	25394.81
540.95	25472.05
541.12	25261.40
541.29	25439.28
541.46	25624.18
541.62	25352.68
541.79	25500.14
541.96	25469.71
542.13	25324.60
542.30	25638.23
542.47	25951.86
542.63	25933.14
542.80	25900.37
542.97	25874.62
543.14	26326.35
543.31	26206.98
543.48	25689.72
543.64	26061.87
543.81	26101.65
543.98	26466.78
544.15	25947.18
544.32	26455.08
544.48	26108.68
544.65	26256.13
544.82	25989.31
544.99	26026.76
545.16	26141.44
545.32	26214.00
545.49	26572.10
545.66	26281.88
545.83	26417.63
546.00	26518.27
546.16	26555.72
546.33	26239.75
546.50	26019.74
546.67	26438.69
546.83	26544.02
547.00	26721.90
547.17	26834.24
547.34	26581.46
547.50	27208.73
547.67	26745.30
547.84	26787.43
548.00	26778.07
548.17	26656.36
548.34	26647.00
548.51	27147.87
548.67	26955.95
548.84	27089.36
549.01	27199.37
549.18	26948.93
549.34	27187.66
549.51	26874.03
549.68	26918.50
549.84	27119.79
550.01	27035.53
550.18	27023.83
550.34	27379.59
550.51	27321.07
550.68	27283.62
550.84	26602.53
551.01	27459.16
551.18	26630.62
551.34	27166.60
551.51	27267.24
551.68	27407.67
551.84	27508.32
552.01	27597.26
552.18	27395.97
552.34	27461.51
552.51	27658.11
552.68	27475.55
552.84	27517.68
553.01	27351.50
553.18	26981.70
553.34	27358.52
553.51	27487.25
553.67	27627.68
553.84	27887.48
554.01	27491.93
554.17	27999.83
554.34	27505.98
554.51	27791.52
554.67	27674.49
554.84	27466.19
555.00	27725.99
555.17	27997.49
555.33	27850.03
555.50	27386.61
555.67	27922.59
555.83	27503.64
556.00	27550.45
556.16	28128.56
556.33	27847.69
556.50	28273.67
556.66	28091.11
556.83	28158.99
556.99	28135.58
557.16	28273.67
557.32	28266.65
557.49	28395.38
557.65	27356.18
557.82	28215.16
557.98	27990.47
558.15	27709.60
558.32	28683.27
558.48	28407.08
558.65	28374.31
558.81	28219.84
558.98	28350.91
559.14	28128.56
559.31	28013.87
559.47	28308.78
559.64	28046.64
559.80	28105.15
559.97	28563.90
560.13	27917.91
560.30	28526.45
560.46	28238.56
560.63	28086.43
560.79	28229.20
560.96	27936.63
561.12	28121.54
561.29	28535.81
561.45	28236.22
561.61	28751.14
561.78	28526.45
561.94	28613.05
562.11	28599.01
562.27	28886.89
562.44	28535.81
562.60	28683.27
562.77	28446.87
562.93	28463.25
563.10	28753.48
563.26	28570.92
563.42	29067.11
563.59	28830.72
563.75	28613.05
563.92	28613.05
564.08	28723.05
564.24	28774.55
564.41	28493.68
564.57	28978.17
564.74	28587.30
564.90	28938.38
565.07	28858.81
565.23	28912.64
565.39	28996.90
565.56	28563.90
565.72	28797.95
565.88	29113.92
566.05	28395.38
566.21	28945.41
566.38	29064.77
566.54	29237.97
566.70	28804.97
566.87	29104.56
567.03	29156.05
567.19	29514.16
567.36	28819.02
567.52	28807.31
567.68	28835.40
567.85	29085.84
568.01	29249.67
568.17	28685.61
568.34	29125.63
568.50	29083.50
568.66	29610.12
568.83	29394.79
568.99	29355.00
569.15	29113.92
569.32	28980.51
569.48	28645.82
569.64	29181.80
569.81	28840.08
569.97	28975.83
570.13	29270.74
570.30	29153.71
570.46	29535.22
570.62	29333.93
570.78	28851.78
570.95	28655.18
571.11	29046.05
571.27	29097.54
571.43	29156.05
571.60	29340.96
571.76	29331.59
571.92	29530.54
572.09	29109.24
572.25	29244.99
572.41	29130.31
572.57	29429.90
572.74	29338.62
572.90	29362.02
573.06	29230.95
573.22	29415.85
573.38	29394.79
573.55	29003.92
573.71	29359.68
573.87	29687.36
574.03	29481.39
574.20	29212.23
574.36	29020.30
574.52	29296.49
574.68	29347.98
574.84	29294.14
575.01	29338.62
575.17	29308.19
575.33	29142.01
575.49	29322.23
575.65	29425.22
575.82	29216.91
575.98	29371.38
576.14	29668.63
576.30	29273.08
576.46	29193.50
576.62	29102.22
576.79	29460.32
576.95	29139.67
577.11	29149.03
577.27	29708.42
577.43	29565.65
577.59	29219.25
577.75	29287.12
577.92	29071.79
578.08	29097.54
578.24	29109.24
578.40	29270.74
578.56	29525.86
578.72	29237.97
578.88	29720.12
579.04	29696.72
579.21	29514.16
579.37	29378.40
579.53	29703.74
579.69	29120.95
579.85	28996.90
580.01	29628.84
580.17	29296.49
580.33	29432.24
580.49	29153.71
580.65	29656.93
580.82	29408.83
580.98	29418.19
581.14	29446.28
581.30	29481.39
581.46	29490.75
581.62	29556.28
581.78	29476.71
581.94	29680.33
582.10	29425.22
582.26	29268.40
582.42	29563.31
582.58	29603.10
582.74	29532.88
582.90	29582.03
583.06	29677.99
583.22	29462.66
583.38	29411.17
583.54	29593.73
583.70	29605.44
583.86	29919.07
584.02	29284.78
584.18	29385.43
584.34	29603.10
584.50	29546.92
584.66	29392.45
584.82	29392.45
584.98	29326.91
585.14	29830.13
585.30	29347.98
585.46	29570.33
585.62	29317.55
585.78	29593.73
585.94	29575.01
586.10	29457.98
586.26	29502.45
586.42	29848.85
586.58	29425.22
586.74	29640.54
586.90	29504.79
587.06	29324.57
587.22	29912.05
587.38	29792.68
587.54	29514.16
587.70	30113.33
587.86	29788.00
588.02	29425.22
588.18	30073.54
588.34	29820.77
588.49	29846.51
588.65	29937.79
588.81	29324.57
588.97	29628.84
589.13	29612.46
589.29	29652.25
589.45	29745.87
589.61	29699.06
589.77	29654.59
589.93	29809.06
590.08	30040.78
590.24	29783.32
590.40	30075.88
590.56	29907.37
590.72	29610.12
590.88	29589.05
591.04	29780.98
591.20	30122.69
591.35	30202.27
591.51	30118.01
591.67	29951.84
591.83	30103.97
591.99	30085.25
592.15	30192.91
592.31	30071.20
592.46	29738.85
592.62	29741.19
592.78	29642.88
592.94	29888.64
593.10	29589.05
593.26	29809.06
593.41	30422.28
593.57	30221.00
593.73	29703.74
593.89	30265.47
594.05	29919.07
594.20	29977.58
594.36	30129.72
594.52	29717.78
594.68	29853.53
594.84	30178.87
594.99	30221.00
595.15	30008.01
595.31	30323.98
595.47	30197.59
595.62	30455.05
595.78	30012.69
595.94	29972.90
596.10	29888.64
596.25	30113.33
596.41	29986.94
596.57	29736.51
596.73	30225.68
596.88	29895.66
597.04	30539.31
597.20	30185.89
597.36	30127.38
597.51	30176.53
597.67	30213.98
597.83	30160.14
597.99	30253.76
598.14	29867.58
598.30	30043.12
598.46	30272.49
598.61	29984.60
598.77	30066.52
598.93	30192.91
599.09	30541.65
599.24	30120.35
599.40	30153.12
599.56	30113.33
599.71	30125.04
599.87	30033.75
600.03	29876.94
600.18	29727.14
600.34	30075.88
600.50	29832.47
600.65	30249.08
600.81	30586.12
600.97	30221.00
601.12	30043.12
601.28	30017.37
601.44	30331.00
601.59	30305.26
601.75	30211.64
601.91	30349.73
602.06	29956.52
602.22	30122.69
602.37	29839.49
602.53	29928.43
602.69	29989.28
602.84	30008.01
603.00	30199.93
603.16	30183.55
603.31	30127.38
603.47	29717.78
603.62	30253.76
603.78	30143.76
603.94	29846.51
604.09	30110.99
604.25	30010.35
604.40	30221.00
604.56	30036.09
604.71	30604.84
604.87	29986.94
605.03	30085.25
605.18	29993.97
605.34	30321.64
605.49	29888.64
605.65	30143.76
605.80	29921.41
605.96	30230.36
606.12	29771.61
606.27	30342.70
606.43	29909.71
606.58	30396.54
606.74	30286.53
606.89	30221.00
607.05	30075.88
607.20	30281.85
607.36	30235.04
607.51	30024.39
607.67	30043.12
607.82	29855.87
607.98	29764.59
608.13	29790.34
608.29	29736.51
608.44	30380.15
608.60	30080.56
608.75	30202.27
608.91	30132.06
609.06	30019.71
609.22	29977.58
609.37	29652.25
609.53	29869.92
609.68	29811.40
609.84	29567.99
609.99	29731.83
610.15	29497.77
610.30	29802.04
610.46	29706.08
610.61	29813.74
610.76	30064.18
610.92	30101.63
611.07	29706.08
611.23	29649.91
611.38	29287.12
611.54	29909.71
611.69	29507.13
611.84	29710.76
612.00	29631.18
612.15	29563.31
612.31	29818.42
612.46	29366.70
612.62	29682.67
612.77	29624.16
612.92	29909.71
613.08	29591.39
613.23	29986.94
613.39	29521.18
613.54	29544.58
613.69	29511.81
613.85	29511.81
614.00	29804.38
614.15	29738.85
614.31	29507.13
614.46	29603.10
614.62	29504.79
614.77	29694.38
614.92	29649.91
615.08	29652.25
615.23	29670.97
615.38	29364.36
615.54	29305.85
615.69	29340.96
615.84	29446.28
616.00	29392.45
616.15	29731.83
616.30	29420.53
616.46	29539.90
616.61	29460.32
616.76	29694.38
616.92	29467.34
617.07	29256.70
617.22	29158.39
617.37	29034.35
617.53	29221.59
617.68	29205.20
617.83	28926.68
617.99	28898.59
618.14	29345.64
618.29	29083.50
618.45	28996.90
618.60	29355.00
618.75	29029.66
618.90	29069.45
619.06	29500.11
619.21	29125.63
619.36	28964.13
619.51	29338.62
619.67	28837.74
619.82	29029.66
619.97	29465.00
620.12	28947.75
620.28	28732.42
620.43	29322.23
620.58	29670.97
620.73	28992.22
620.89	28786.25
621.04	29259.04
621.19	29219.25
621.34	28690.29
621.49	29043.71
621.65	28964.13
621.80	28540.49
621.95	28744.12
622.10	28680.92
622.25	28823.70
622.41	28610.71
622.56	28858.81
622.71	28978.17
622.86	28847.10
623.01	29123.29
623.16	28400.06
623.32	28341.55
623.47	29036.69
623.62	28685.61
623.77	28393.04
623.92	28856.46
624.07	28376.66
624.23	28304.10
624.38	28634.11
624.53	28418.78
624.68	28762.84
624.83	28613.05
624.98	28582.62
625.13	28582.62
625.29	28694.97
625.44	28545.17
625.59	28233.88
625.74	28133.24
625.89	28383.68
626.04	28187.07
626.19	28100.47
626.34	27784.50
626.49	28409.42
626.65	28460.91
626.80	28390.70
626.95	28357.93
627.10	28009.19
627.25	28198.77
627.40	28393.04
627.55	28161.33
627.70	28273.67
627.85	27800.88
628.00	28194.09
628.15	28158.99
628.30	28210.48
628.45	28194.09
628.60	27962.38
628.76	27892.16
628.91	28379.00
629.06	27864.08
629.21	27835.99
629.36	28072.39
629.51	28102.81
629.66	27711.94
629.81	27948.34
629.96	27679.18
630.11	27573.85
630.26	27941.32
630.41	27660.45
630.56	27676.83
630.71	28212.82
630.86	27679.18
631.01	27531.72
631.16	27847.69
631.31	27786.84
631.46	27498.95
631.61	27501.29
631.76	27662.79
631.91	27576.19
632.06	27318.73
632.21	27779.82
632.36	27826.63
632.51	27550.45
632.66	27723.65
632.81	27271.92
632.96	27580.87
633.10	27475.55
633.25	27700.24
633.40	27899.19
633.55	27459.16
633.70	27126.81
633.85	27377.25
634.00	27316.39
634.15	27253.20
634.30	27557.47
634.45	27349.16
634.60	27269.58
634.75	27758.75
634.90	27580.87
635.05	27468.53
635.19	27199.37
635.34	27655.77
635.49	27665.13
635.64	27379.59
635.79	27335.12
635.94	27133.83
636.09	27054.25
636.24	27330.44
636.39	27161.92
636.53	27075.32
636.68	27087.02
636.83	27300.01
636.98	27143.19
637.13	27115.11
637.28	27192.34
637.43	26766.37
637.57	27096.38
637.72	26979.36
637.87	27138.51
638.02	26876.37
638.17	27030.85
638.32	26836.58
638.46	26792.11
638.61	26803.82
638.76	26691.47
638.91	26888.07
639.06	26714.87
639.20	27152.55
639.35	27007.44
639.50	26923.18
639.65	27063.61
639.80	27367.88
639.94	26604.87
640.09	27019.14
640.24	26429.33
640.39	26476.14
640.54	26616.57
640.68	26349.75
640.83	26670.40
640.98	26450.39
641.13	26258.47
641.27	26539.33
641.42	26588.49
641.57	26644.66
641.72	26455.08
641.86	26611.89
642.01	26164.85
642.16	26478.48
642.31	26375.50
642.45	26529.97
642.60	26235.06
642.75	26108.68
642.90	26157.83
643.04	26111.02
643.19	26295.92
643.34	26199.96
643.48	26251.45
643.63	26581.46
643.78	26209.32
643.93	26466.78
644.07	26347.41
644.22	26366.13
644.37	26419.97
644.51	26223.36
644.66	26260.81
644.81	26087.61
644.95	25654.61
645.10	26251.45
645.25	26380.18
645.39	26249.11
645.54	26153.15
645.69	26073.57
645.83	26106.34
645.98	26181.23
646.13	26061.87
646.27	26197.62
646.42	26183.57
646.57	26380.18
646.71	25806.75
646.86	26174.21
647.00	25944.84
647.15	25708.44
647.30	25638.23
647.44	25940.16
647.59	26279.54
647.74	26094.63
647.88	25633.55
648.03	25919.09
648.17	26230.38
648.32	25970.58
648.47	25919.09
648.61	25741.21
648.76	25776.32
648.90	26235.06
649.05	25839.51
649.20	25745.89
649.34	25783.34
649.49	25509.50
649.63	25619.50
649.78	25558.65
649.92	25523.54
650.07	25420.56
650.21	25551.63
650.36	25619.50
650.51	25542.27
650.65	25809.09
650.80	25617.16
650.94	25563.33
651.09	25809.09
651.23	25558.65
651.38	25378.43
651.52	25268.42
651.67	25500.14
651.81	25291.83
651.96	25589.08
652.10	25310.55
652.25	25558.65
652.39	25568.01
652.54	25680.36
652.68	25373.75
652.83	25441.62
652.97	25387.79
653.12	25474.39
653.26	25085.86
653.41	25156.08
653.55	25095.22
653.70	25085.86
653.84	25338.64
653.99	25163.10
654.13	25310.55
654.27	24800.32
654.42	25495.46
654.56	24877.55
654.71	25076.50
654.85	25120.97
655.00	25483.75
655.14	25214.59
655.29	25408.86
655.43	25130.33
655.57	24933.73
655.72	24723.08
655.86	24924.36
656.01	24760.53
656.15	25085.86
656.30	24849.47
656.44	24978.20
656.58	24760.53
656.73	25017.99
656.87	24739.46
657.01	25057.78
657.16	24844.79
657.30	25025.01
657.45	24694.99
657.59	24833.08
657.73	24458.60
657.88	24624.78
658.02	24622.44
658.16	24613.07
658.31	24680.95
658.45	24465.62
658.60	24254.97
658.74	24254.97
658.88	24388.38
659.03	24460.94
659.17	24482.00
659.31	24217.52
659.46	24566.26
659.60	24563.92
659.74	24608.39
659.89	24390.72
660.03	24512.43
660.17	24460.94
660.32	24238.59
660.46	24428.17
660.60	24194.12
660.74	24191.78
660.89	23992.83
661.03	24133.26
661.17	24486.68
661.32	23798.57
661.46	24517.11
661.60	24226.89
661.74	24023.26
661.89	23800.91
662.03	24163.69
662.17	23953.04
662.31	23931.98
662.46	24081.77
662.60	23920.28
662.74	23763.46
662.88	23756.44
663.03	23232.16
663.17	23522.38
663.31	23697.92
663.45	23335.14
663.60	23501.32
663.74	23660.48
663.88	23630.05
664.02	23803.25
664.17	23761.12
664.31	23826.65
664.45	23510.68
664.59	23379.61
664.73	23356.21
664.88	23332.80
665.02	22813.20
665.16	23119.81
665.30	23112.79
665.44	22972.36
665.59	23023.85
665.73	22731.28
665.87	23049.60
666.01	22986.40
666.15	23105.77
666.29	23047.26
666.44	23112.79
666.58	22834.27
666.72	23152.58
666.86	23171.30
667.00	23211.09
667.14	22892.78
667.28	22562.76
667.43	22759.37
667.57	22616.60
667.71	22459.78
667.85	22714.90
667.99	22551.06
668.13	22457.44
668.27	22309.99
668.41	22546.38
668.56	22333.39
668.70	22574.47
668.84	22525.32
668.98	22279.56
669.12	22551.06
669.26	22342.75
669.40	22464.46
669.54	22150.83
669.68	22169.55
669.82	22209.34
669.96	22017.42
670.10	22078.27
670.25	22106.36
670.39	22057.21
670.53	21811.45
670.67	22017.42
670.81	22176.58
670.95	21839.54
671.09	22089.98
671.23	21860.60
671.37	21886.35
671.51	22125.08
671.65	21790.39
671.79	22139.13
671.93	21783.37
672.07	21710.81
672.21	21678.04
672.35	21544.63
672.49	21366.75
672.63	20950.14
672.77	21198.23
672.91	21387.82
673.05	21553.99
673.19	21198.23
673.33	20908.01
673.47	21179.51
673.61	21287.17
673.75	21312.92
673.89	21621.87
674.03	20858.85
674.17	21095.25
674.31	21137.38
674.45	20954.82
674.59	21106.95
674.73	20915.03
674.87	20786.30
675.01	20676.29
675.15	20524.16
675.29	20823.75
675.43	20360.32
675.56	20786.30
675.70	20783.96
675.84	20718.42
675.98	20245.63
676.12	20706.72
676.26	20634.16
676.40	20706.72
676.54	20219.89
676.68	20166.06
676.82	19941.36
676.96	19934.34
677.10	20306.49
677.23	19580.92
677.37	20257.34
677.51	19995.20
677.65	19995.20
677.79	19634.75
677.93	19852.42
678.07	19812.63
678.21	19508.37
678.34	19644.12
678.48	19775.19
678.62	19367.93
678.76	19489.64
678.90	19126.86
679.04	19365.59
679.18	19243.88
679.31	18789.82
679.45	18735.99
679.59	19066.00
679.73	18773.44
679.87	18841.31
680.00	18787.48
680.14	18670.45
680.28	18633.00
680.42	18450.44
680.56	18569.81
680.70	18441.08
680.83	18586.19
680.97	18848.33
681.11	18331.08
681.25	18530.02
681.39	18579.17
681.52	18274.90
681.66	18218.73
681.80	18494.91
681.94	18024.47
682.07	18169.58
682.21	17954.25
682.35	18064.25
682.49	17797.43
682.62	17528.27
682.76	17792.75
682.90	18075.96
683.04	17942.55
683.17	17928.50
683.31	17823.18
683.45	17647.64
683.59	17577.42
683.72	17579.76
683.86	17570.40
684.00	17345.71
684.13	17521.25
684.27	17008.67
684.41	17090.59
684.55	17081.23
684.68	17111.66
684.82	17003.99
684.96	16870.58
685.09	16835.47
685.23	16620.14
685.37	16753.55
685.50	16643.55
685.64	16809.73
685.78	16549.93
685.91	16648.23
686.05	16592.06
686.19	16500.78
686.32	16589.72
686.46	16650.57
686.60	16468.01
686.73	16493.76
686.87	16100.55
687.01	16123.95
687.14	16112.25
687.28	16102.89
687.42	15974.16
687.55	16212.89
687.69	15901.60
687.82	15648.82
687.96	15896.92
688.10	15819.68
688.23	16128.63
688.37	15807.98
688.50	16067.78
688.64	15693.29
688.78	15571.58
688.91	15487.32
689.05	15531.80
689.18	15637.12
689.32	15007.52
689.46	14848.36
689.59	15136.24
689.73	15398.38
689.86	15082.41
690.00	15005.17
690.13	14949.00
690.27	15042.62
690.41	15098.80
690.54	14700.90
690.68	15091.77
690.81	14897.51
690.95	14916.23
691.08	14899.85
691.22	14815.59
691.35	14754.74
691.49	14895.17
691.62	14429.40
691.76	14511.32
691.89	14223.44
692.03	14242.16
692.16	13965.98
692.30	14061.94
692.43	13998.74
692.57	14083.00
692.70	13717.88
692.84	13919.17
692.97	13994.06
693.11	13905.12
693.24	13961.30
693.38	13790.44
693.51	13642.98
693.65	13673.41
693.78	13429.99
693.92	13525.96
694.05	13605.53
694.19	13336.37
694.32	13600.85
694.45	13128.06
694.59	13202.96
694.72	13020.40
694.86	12973.59
694.99	12992.31
695.13	13165.51
695.26	13121.04
695.39	12718.47
695.53	13261.48
695.66	12947.84
695.80	12648.26
695.93	13025.08
696.07	12812.09
696.20	12994.65
696.33	12901.03
696.47	12692.73
696.60	12662.30
696.73	12500.80
696.87	12587.40
697.00	12496.12
697.14	12233.98
697.27	12109.93
697.40	12208.23
697.54	12114.61
697.67	12257.39
697.80	12081.85
697.94	12079.50
698.07	11833.75
698.21	11822.05
698.34	11885.24
698.47	11772.89
698.61	11985.88
698.74	11838.43
698.87	11976.52
699.01	11566.93
699.14	11733.11
699.27	11698.00
699.40	11527.14
699.54	11576.29
699.67	11669.91
699.80	11398.41
699.94	11477.99
700.07	11417.13
700.20	11197.12
700.34	11255.64
700.47	11442.88
700.60	10953.71
700.73	11316.49
700.87	11272.02
701.00	10934.98
701.13	10944.34
701.26	10970.09
701.40	10953.71
701.53	10890.51
701.66	10874.13
701.79	10658.80
701.93	10583.90
702.06	10604.97
702.19	10595.61
702.32	10471.56
702.46	10223.46
702.59	10354.53
702.72	10223.46
702.85	10228.14
702.99	10225.80
703.12	10015.15
703.25	10064.30
703.38	9982.38
703.51	10143.88
703.65	10157.92
703.78	9942.60
703.91	9757.69
704.04	9954.30
704.17	10045.58
704.31	10022.17
704.44	9832.59
704.57	9729.61
704.70	9673.43
704.83	9666.41
704.96	9540.02
705.10	9762.37
705.23	9490.87
>>>>>End Processed Spectral Data<<<<<
