SpectraSuite Data File
++++++++++++++++++++++++++++++++++++
Date: Fri Oct 18 13:58:17 GMT-05:00 2013
User: bianchi
Dark Spectrum Present: No
Reference Spectrum Present: No
Number of Sampled Component Spectra: 1
Spectrometers: USB2+H05261
Integration Time (usec): 50000 (USB2+H05261)
Spectra Averaged: 1 (USB2+H05261)
Boxcar Smoothing: 0 (USB2+H05261)
Correct for Electrical Dark: No (USB2+H05261)
Strobe/Lamp Enabled: No (USB2+H05261)
Correct for Detector Non-linearity: No (USB2+H05261)
Correct for Stray Light: No (USB2+H05261)
Number of Pixels in Processed Spectrum: 2048
>>>>>Begin Processed Spectral Data<<<<<
365.73	0.00
365.92	0.00
366.12	0.00
366.32	0.00
366.52	0.00
366.72	0.00
366.91	0.00
367.11	0.00
367.31	0.00
367.51	0.00
367.70	0.00
367.90	0.00
368.10	0.00
368.30	0.00
368.49	0.00
368.69	0.00
368.89	0.00
369.09	0.00
369.28	0.00
369.48	0.00
369.68	0.00
369.87	0.00
370.07	0.00
370.27	0.00
370.47	0.00
370.66	124.05
370.86	53.83
371.06	110.01
371.25	154.48
371.45	121.71
371.65	98.30
371.84	187.24
372.04	138.09
372.24	138.09
372.44	215.33
372.63	86.60
372.83	124.05
373.03	170.86
373.22	140.43
373.42	114.69
373.62	145.11
373.81	212.99
374.01	245.76
374.21	271.50
374.40	259.80
374.60	215.33
374.79	212.99
374.99	243.42
375.19	210.65
375.38	201.29
375.58	205.97
375.78	224.69
375.97	280.86
376.17	318.31
376.37	252.78
376.56	189.58
376.76	142.77
376.95	313.63
377.15	273.84
377.35	250.44
377.54	294.91
377.74	236.39
377.93	269.16
378.13	205.97
378.33	301.93
378.52	332.36
378.72	280.86
378.91	229.37
379.11	269.16
379.31	299.59
379.50	292.57
379.70	311.29
379.89	344.06
380.09	278.52
380.28	383.85
380.48	262.14
380.68	327.68
380.87	313.63
381.07	360.44
381.26	346.40
381.46	294.91
381.65	344.06
381.85	266.82
382.04	318.31
382.24	332.36
382.43	311.29
382.63	383.85
382.83	234.05
383.02	301.93
383.22	397.89
383.41	358.10
383.61	365.12
383.80	423.64
384.00	332.36
384.19	332.36
384.39	334.70
384.58	308.95
384.78	402.57
384.97	362.78
385.17	447.04
385.36	334.70
385.56	425.98
385.75	390.87
385.95	414.27
386.14	374.49
386.34	341.72
386.53	402.57
386.72	393.21
386.92	428.32
387.11	449.38
387.31	407.25
387.50	421.30
387.70	379.17
387.89	416.62
388.09	484.49
388.28	416.62
388.48	428.32
388.67	425.98
388.86	479.81
389.06	369.80
389.25	468.11
389.45	521.94
389.64	493.85
389.84	484.49
390.03	514.92
390.22	486.83
390.42	571.09
390.61	454.06
390.81	465.77
391.00	596.84
391.19	463.43
391.39	580.45
391.58	533.64
391.78	505.56
391.97	528.96
392.16	550.03
392.36	592.16
392.55	648.33
392.75	540.66
392.94	475.13
393.13	599.18
393.33	482.15
393.52	531.30
393.71	613.22
393.91	617.90
394.10	634.29
394.29	573.43
394.49	613.22
394.68	575.77
394.88	592.16
395.07	571.09
395.26	575.77
395.46	655.35
395.65	603.86
395.84	601.52
396.04	734.93
396.23	645.99
396.42	664.71
396.62	601.52
396.81	641.31
397.00	636.63
397.19	634.29
397.39	631.94
397.58	660.03
397.77	650.67
397.97	709.18
398.16	596.84
398.35	737.27
398.55	692.80
398.74	791.10
398.93	795.78
399.12	657.69
399.32	727.91
399.51	699.82
399.70	777.06
399.90	734.93
400.09	664.71
400.28	732.59
400.47	781.74
400.67	748.97
400.86	744.29
401.05	798.12
401.24	798.12
401.44	826.21
401.63	779.40
401.82	826.21
402.01	837.91
402.21	919.83
402.40	875.36
402.59	842.59
402.78	858.98
402.97	784.08
403.17	784.08
403.36	854.30
403.55	842.59
403.74	870.68
403.93	823.87
404.13	959.62
404.32	938.55
404.51	1013.45
404.70	901.11
404.89	863.66
405.09	940.90
405.28	922.17
405.47	891.74
405.66	933.87
405.85	976.00
406.05	959.62
406.24	985.37
406.43	983.02
406.62	966.64
406.81	1057.92
407.00	1036.86
407.20	999.41
407.39	1034.52
407.58	1001.75
407.77	1057.92
407.96	1043.88
408.15	1034.52
408.34	1090.69
408.54	1125.80
408.73	1090.69
408.92	1029.84
409.11	1123.46
409.30	1086.01
409.49	1076.65
409.68	1151.54
409.87	1107.07
410.07	1193.67
410.26	1146.86
410.45	1231.12
410.64	1212.40
410.83	1224.10
411.02	1214.74
411.21	1181.97
411.40	1247.51
411.59	1186.65
411.78	1247.51
411.98	1228.78
412.17	1277.93
412.36	1196.01
412.55	1397.30
412.74	1315.38
412.93	1299.00
413.12	1355.17
413.31	1399.64
413.50	1397.30
413.69	1404.32
413.88	1406.66
414.07	1488.58
414.26	1448.79
414.45	1432.41
414.64	1439.43
414.83	1533.05
415.02	1385.60
415.22	1561.14
415.41	1523.69
415.60	1598.59
415.79	1451.13
415.98	1638.38
416.17	1638.38
416.36	1598.59
416.55	1572.84
416.74	1619.65
416.93	1675.82
417.12	1619.65
417.31	1643.06
417.50	1699.23
417.69	1762.42
417.88	1762.42
418.07	1734.34
418.26	1774.13
418.45	1657.10
418.64	1863.07
418.83	1902.86
419.02	1696.89
419.21	1827.96
419.39	1837.32
419.58	1806.89
419.77	1687.53
419.96	1825.62
420.15	1935.62
420.34	1879.45
420.53	1811.57
420.72	1928.60
420.91	1940.30
421.10	1942.64
421.29	1954.35
421.48	1977.75
421.67	1977.75
421.86	1980.09
422.05	2022.22
422.24	2031.58
422.43	1963.71
422.61	1914.56
422.80	1977.75
422.99	2043.29
423.18	1849.02
423.37	1963.71
423.56	2029.24
423.75	1998.82
423.94	1984.77
424.13	1842.00
424.32	1863.07
424.50	1973.07
424.69	2005.84
424.88	2087.76
425.07	1989.46
425.26	1916.90
425.45	2005.84
425.64	2097.12
425.83	1982.43
426.01	2092.44
426.20	2043.29
426.39	2071.37
426.58	2099.46
426.77	2090.10
426.96	2076.06
427.15	2162.66
427.33	1987.11
427.52	2209.47
427.71	2099.46
427.90	2153.29
428.09	2111.16
428.28	2143.93
428.46	2179.04
428.65	2195.42
428.84	2230.53
429.03	2314.79
429.22	2143.93
429.40	2291.38
429.59	2300.75
429.78	2122.87
429.97	2183.72
430.16	2216.49
430.34	2216.49
430.53	2289.04
430.72	2380.32
430.91	2307.77
431.10	2326.49
431.28	2211.81
431.47	2347.56
431.66	2431.82
431.85	2289.04
432.03	2382.67
432.22	2502.03
432.41	2441.18
432.60	2408.41
432.79	2429.48
432.97	2471.61
433.16	2548.84
433.35	2389.69
433.54	2590.97
433.72	2609.70
433.91	2537.14
434.10	2436.50
434.28	2492.67
434.47	2469.27
434.66	2574.59
434.85	2565.23
435.03	2551.18
435.22	2689.28
435.41	2609.70
435.59	2544.16
435.78	2623.74
435.97	2523.10
436.16	2656.51
436.34	2700.98
436.53	2738.43
436.72	2759.49
436.90	2626.08
437.09	2799.28
437.28	2511.39
437.46	2689.28
437.65	2698.64
437.84	2815.66
438.02	2761.83
438.21	2878.86
438.40	2820.35
438.58	2876.52
438.77	2883.54
438.96	2885.88
439.14	2949.08
439.33	2911.63
439.52	2956.10
439.70	2988.86
439.89	2972.48
440.08	3021.63
440.26	2986.52
440.45	2995.89
440.63	3049.72
440.82	3108.23
441.01	3110.57
441.19	3070.78
441.38	3201.85
441.57	3110.57
441.75	3190.15
441.94	3274.41
442.12	3288.45
442.31	3239.30
442.50	3300.16
442.68	3213.56
442.87	3398.46
443.05	3281.43
443.24	3346.97
443.43	3449.95
443.61	3389.10
443.80	3531.87
443.98	3314.20
444.17	3325.90
444.35	3358.67
444.54	3323.56
444.73	3562.30
444.91	3377.39
445.10	3478.04
445.28	3485.06
445.47	3487.40
445.65	3349.31
445.84	3538.89
446.02	3534.21
446.21	3328.24
446.39	3398.46
446.58	3421.86
446.77	3466.33
446.95	3382.07
447.14	3386.76
447.32	3555.27
447.51	3433.57
447.69	3433.57
447.88	3478.04
448.06	3599.74
448.25	3447.61
448.43	3459.31
448.62	3508.46
448.80	3529.53
448.99	3728.47
449.17	3700.39
449.36	3562.30
449.54	3646.55
449.73	3655.92
449.91	3728.47
450.10	3705.07
450.28	3637.19
450.46	3707.41
450.65	3815.07
450.83	3581.02
451.02	3721.45
451.20	3688.68
451.39	3784.65
451.57	3698.05
451.76	3798.69
451.94	3681.66
452.13	3901.67
452.31	3770.60
452.49	3712.09
452.68	3775.28
452.86	3857.20
453.05	3922.74
453.23	3974.23
453.42	3784.65
453.60	3899.33
453.78	3894.65
453.97	3896.99
454.15	3971.89
454.34	3854.86
454.52	4021.04
454.70	3819.75
454.89	3957.85
455.07	4023.38
455.26	4014.02
455.44	4131.05
455.62	4147.43
455.81	4037.42
455.99	4070.19
456.17	4100.62
456.36	4046.79
456.54	4205.94
456.73	4126.36
456.91	4262.12
457.09	4259.78
457.28	4332.33
457.46	4231.69
457.64	4432.97
457.83	4227.01
458.01	4290.20
458.19	4423.61
458.38	4311.27
458.56	4498.51
458.74	4524.26
458.93	4346.37
459.11	4456.38
459.29	4496.17
459.48	4470.42
459.66	4341.69
459.84	4528.94
460.03	4589.79
460.21	4468.08
460.39	4489.15
460.57	4660.01
460.76	4503.19
460.94	4456.38
461.12	4664.69
461.31	4730.22
461.49	4613.20
461.67	4547.66
461.85	4795.76
462.04	4699.80
462.22	4905.76
462.40	4788.74
462.59	4723.20
462.77	4643.62
462.95	4880.02
463.13	4819.16
463.32	4826.18
463.50	4851.93
463.68	4809.80
463.86	4812.14
464.05	4704.48
464.23	4943.21
464.41	4947.89
464.59	4748.95
464.78	5013.43
464.96	4990.02
465.14	4847.25
465.32	4947.89
465.50	5191.31
465.69	5029.81
465.87	4954.91
466.05	4947.89
466.23	4910.44
466.41	4973.64
466.60	5121.09
466.78	5153.86
466.96	5057.90
467.14	4849.59
467.32	5121.09
467.51	5217.05
467.69	5036.83
467.87	5219.39
468.05	5188.97
468.23	5088.32
468.41	5111.73
468.60	5184.29
468.78	5249.82
468.96	5221.74
469.14	5380.89
469.32	5322.38
469.50	5366.85
469.69	5301.31
469.87	5329.40
470.05	5425.36
470.23	5399.62
470.41	5432.38
470.59	5238.12
470.77	5423.02
470.95	5441.75
471.14	5504.94
471.32	5549.41
471.50	5514.30
471.68	5537.71
471.86	5483.88
472.04	5762.40
472.22	5706.23
472.40	5619.63
472.58	5804.53
472.77	5888.79
472.95	5802.19
473.13	5940.28
473.31	5610.26
473.49	5764.74
473.67	5919.21
473.85	5921.56
474.03	5919.21
474.21	5975.39
474.39	6045.60
474.57	6127.52
474.75	6193.06
474.93	5996.45
475.12	6101.78
475.30	6127.52
475.48	6134.54
475.66	6239.87
475.84	6176.67
476.02	6424.77
476.20	6429.45
476.38	6450.52
476.56	6602.65
476.74	6459.88
476.92	6483.28
477.10	6668.19
477.28	6619.04
477.46	6729.04
477.64	6691.59
477.82	6794.58
478.00	6960.75
478.18	7054.37
478.36	6916.28
478.54	7138.63
478.72	7089.48
478.90	7199.49
479.08	7016.93
479.26	7220.55
479.44	7309.49
479.62	7255.66
479.80	7405.46
479.98	7489.71
480.16	7632.49
480.34	7611.42
480.52	7496.74
480.70	7407.80
480.88	7679.30
481.06	7896.97
481.24	7672.28
481.41	7765.90
481.59	8013.99
481.77	7878.24
481.95	7943.78
482.13	7981.23
482.31	7803.35
482.49	8067.83
482.67	8173.15
482.85	8341.67
483.03	8479.76
483.21	8435.29
483.39	8475.08
483.57	8645.94
483.74	8702.11
483.92	8657.64
484.10	8624.87
484.28	8753.60
484.46	9013.40
484.64	9025.11
484.82	8936.17
485.00	9064.89
485.18	9312.99
485.35	9373.85
485.53	9266.18
485.71	9495.55
485.89	9612.58
486.07	9734.29
486.25	9579.81
486.43	9469.81
486.61	9809.19
486.78	9738.97
486.96	9813.87
487.14	10305.38
487.32	10087.71
487.50	10216.44
487.68	10293.68
487.85	10445.81
488.03	10389.64
488.21	10506.66
488.39	10384.96
488.57	10689.23
488.75	10920.94
488.92	10899.87
489.10	10801.57
489.28	10895.19
489.46	11147.97
489.64	10998.18
489.81	11428.84
489.99	11389.05
490.17	11351.60
490.35	11618.42
490.53	11527.14
490.70	11534.16
490.88	11714.38
491.06	11763.53
491.24	11765.87
491.41	11887.58
491.59	11920.35
491.77	12035.03
491.95	12112.27
492.13	12248.02
492.30	12308.88
492.48	12168.45
492.66	12430.59
492.84	12173.13
493.01	12615.49
493.19	12301.86
493.37	12554.63
493.54	12666.98
493.72	12807.41
493.90	12908.05
494.08	12954.87
494.25	13167.85
494.43	12856.56
494.61	13289.56
494.79	13151.47
494.96	13399.57
495.14	13067.21
495.32	13514.25
495.49	13624.26
495.67	13830.23
495.85	13706.18
496.02	13958.96
496.20	13891.08
496.38	13879.38
496.55	13867.67
496.73	14022.15
496.91	14047.90
497.09	14202.37
497.26	14303.01
497.44	14141.52
497.62	14256.20
497.79	14539.41
497.97	14270.25
498.14	14867.08
498.32	14956.02
498.50	14658.78
498.67	15204.12
498.85	14867.08
499.03	14874.10
499.20	14853.04
499.38	15103.48
499.56	15185.40
499.73	15166.67
499.91	15028.58
500.08	15517.75
500.26	15145.61
500.44	15297.74
500.61	15494.35
500.79	15578.61
500.97	15667.55
501.14	15550.52
501.32	16004.58
501.49	15896.92
501.67	15672.23
501.84	16009.26
502.02	15822.02
502.20	15971.82
502.37	16145.02
502.55	16224.59
502.72	16086.50
502.90	16226.93
503.07	16044.37
503.25	16175.44
503.43	16477.37
503.60	16133.31
503.78	16629.51
503.95	16582.70
504.13	16573.33
504.30	16613.12
504.48	16477.37
504.65	16681.00
504.83	16915.05
505.01	17041.44
505.18	17095.27
505.36	17135.06
505.53	16879.94
505.71	17062.51
505.88	17228.68
506.06	16980.59
506.23	17298.90
506.41	17338.69
506.58	17666.36
506.76	17523.59
506.93	17547.00
507.11	17584.44
507.28	17216.98
507.46	17558.70
507.63	17661.68
507.81	17860.63
507.98	17940.21
508.16	17647.64
508.33	17771.69
508.50	17968.29
508.68	17935.53
508.85	18115.75
509.03	18085.32
509.20	18057.23
509.38	18270.22
509.55	18401.29
509.73	18412.99
509.90	18176.60
510.08	18298.31
510.25	18417.68
510.42	18878.76
510.60	18527.68
510.77	18562.79
510.95	18750.03
511.12	18696.20
511.30	18640.03
511.47	18787.48
511.64	18780.46
511.82	19023.87
511.99	18735.99
512.17	19159.63
512.34	18871.74
512.51	19271.97
512.69	19468.58
512.86	19087.07
513.04	19428.79
513.21	19229.84
513.38	19515.39
513.56	19391.34
513.73	19353.89
513.90	19433.47
514.08	19466.24
514.25	19538.79
514.43	19559.86
514.60	19878.17
514.77	19763.48
514.95	19683.91
515.12	19920.30
515.29	19702.63
515.47	19885.19
515.64	20201.16
515.81	19852.42
515.99	20027.96
516.16	20086.48
516.33	19999.88
516.51	20205.84
516.68	20077.12
516.85	20245.63
517.03	20290.10
517.20	20439.90
517.37	20379.04
517.54	20730.12
517.72	20556.93
517.89	20617.78
518.06	20414.15
518.24	20655.23
518.41	20582.67
518.58	20762.89
518.75	20587.35
518.93	20865.88
519.10	20774.60
519.27	20900.98
519.45	20786.30
519.62	20821.41
519.79	20985.24
519.96	20917.37
520.14	21132.70
520.31	21078.86
520.48	21408.88
520.65	21291.85
520.83	21186.53
521.00	21418.24
521.17	21312.92
521.34	21511.86
521.52	21570.38
521.69	21568.04
521.86	21930.82
522.03	21661.66
522.20	21790.39
522.38	21692.08
522.55	21745.92
522.72	21954.22
522.89	21944.86
523.07	21994.01
523.24	21876.99
523.41	22054.87
523.58	22050.19
523.75	22127.42
523.92	22256.15
524.10	21949.54
524.27	22382.54
524.44	22590.85
524.61	22513.61
524.78	22644.68
524.96	22448.08
525.13	22792.14
525.30	22682.13
525.47	22473.82
525.64	22600.21
525.81	22338.07
525.98	22682.13
526.16	22721.92
526.33	22799.16
526.50	23110.45
526.67	22445.74
526.84	22375.52
527.01	22862.35
527.18	23335.14
527.36	22944.27
527.53	23058.96
527.70	23337.48
527.87	23311.74
528.04	23241.52
528.21	23281.31
528.38	22925.55
528.55	23264.92
528.72	22883.42
528.89	23360.89
529.07	23215.77
529.24	23639.41
529.41	23740.05
529.58	23452.17
529.75	23304.71
529.92	23566.85
530.09	23611.32
530.26	23726.01
530.43	23578.56
530.60	23669.84
530.77	23793.89
530.94	23625.37
531.11	23777.50
531.28	23562.17
531.46	23894.53
531.63	23784.52
531.80	23541.11
531.97	24397.74
532.14	23995.17
532.31	24060.71
532.48	24325.19
532.65	24592.01
532.82	23901.55
532.99	24102.84
533.16	24489.03
533.33	24355.61
533.50	24226.89
533.67	24400.08
533.84	24159.01
534.01	24411.79
534.18	24386.04
534.35	24606.05
534.52	24243.27
534.69	24615.41
534.86	24795.64
535.03	24435.19
535.20	24379.02
535.37	24570.94
535.54	24669.25
535.71	24872.87
535.88	24388.38
536.05	24826.06
536.22	24959.47
536.38	24826.06
536.55	25003.94
536.72	24891.60
536.89	24933.73
537.06	25200.55
537.23	24863.51
537.40	24975.86
537.57	25352.68
537.74	25125.65
537.91	25282.47
538.08	24975.86
538.25	24964.15
538.42	24943.09
538.59	25376.09
538.75	25010.96
538.92	25298.85
539.09	25179.48
539.26	25076.50
539.43	25539.93
539.60	25495.46
539.77	25383.11
539.94	25542.27
540.11	25717.81
540.28	25322.26
540.44	25853.56
540.61	25682.70
540.78	25591.42
540.95	25647.59
541.12	25717.81
541.29	25830.15
541.46	25376.09
541.62	25923.77
541.79	25553.97
541.96	25855.90
542.13	25729.51
542.30	25914.41
542.47	25869.94
542.63	25961.22
542.80	25956.54
542.97	26494.86
543.14	26466.78
543.31	26258.47
543.48	26225.70
543.64	26380.18
543.81	26443.37
543.98	26272.51
544.15	26478.48
544.32	26576.78
544.48	26831.90
544.65	26349.75
544.82	26448.05
544.99	25989.31
545.16	26609.55
545.32	26565.08
545.49	26661.04
545.66	26635.30
545.83	26916.16
546.00	27091.70
546.16	26604.87
546.33	26731.26
546.50	26410.60
546.67	26824.88
546.83	26565.08
547.00	26682.11
547.17	26974.67
547.34	27026.17
547.50	27145.53
547.67	27047.23
547.84	27201.71
548.00	27040.21
548.17	27288.31
548.34	27215.75
548.51	27239.15
548.67	27395.97
548.84	27599.60
549.01	27248.52
549.18	27274.26
549.34	27208.73
549.51	27330.44
549.68	27295.33
549.84	27058.93
550.01	27555.13
550.18	27232.13
550.34	27410.01
550.51	27491.93
550.68	27374.91
550.84	27117.45
551.01	27386.61
551.18	27374.91
551.34	26967.65
551.51	27316.39
551.68	27381.93
551.84	27747.05
552.01	27644.07
552.18	27604.28
552.34	27489.59
552.51	27653.43
552.68	27623.00
552.84	27728.33
553.01	27569.17
553.18	27852.38
553.34	28170.69
553.51	27974.08
553.67	27840.67
553.84	28189.41
554.01	27934.29
554.17	27824.29
554.34	27812.59
554.51	28067.70
554.67	27924.93
554.84	27758.75
555.00	27983.44
555.17	27885.14
555.33	27882.80
555.50	27920.25
555.67	27978.76
555.83	28233.88
556.00	28175.37
556.16	27985.79
556.33	27917.91
556.50	28046.64
556.66	28437.51
556.83	28264.31
556.99	28430.49
557.16	28804.97
557.32	28631.77
557.49	28311.12
557.65	28217.50
557.82	28486.66
557.98	28217.50
558.15	28453.89
558.32	28418.78
558.48	28624.75
558.65	29062.43
558.81	28645.82
558.98	28673.90
559.14	28496.02
559.31	28669.22
559.47	28360.27
559.64	28711.35
559.80	28685.61
559.97	28596.67
560.13	28559.22
560.30	28847.10
560.46	28718.37
560.63	28500.70
560.79	28811.99
560.96	29027.32
561.12	28701.99
561.29	28617.73
561.45	28910.30
561.61	28856.46
561.78	28865.83
561.94	28889.23
562.11	28624.75
562.27	28870.51
562.44	28776.89
562.60	28704.33
562.77	28428.15
562.93	28727.74
563.10	29092.86
563.26	28816.68
563.42	29277.76
563.59	28856.46
563.75	28929.02
563.92	29242.65
564.08	28875.19
564.24	29305.85
564.41	28936.04
564.57	29303.51
564.74	29078.82
564.90	29160.73
565.07	29383.09
565.23	29001.58
565.39	29130.31
565.56	29429.90
565.72	28830.72
565.88	29081.16
566.05	29193.50
566.21	29032.00
566.38	28891.57
566.54	29071.79
566.70	29399.47
566.87	29474.37
567.03	29083.50
567.19	29586.71
567.36	29436.92
567.52	29504.79
567.68	29041.37
567.85	28966.47
568.01	29216.91
568.17	28982.85
568.34	29640.54
568.50	29378.40
568.66	29696.72
568.83	29680.33
568.99	29270.74
569.15	29408.83
569.32	29404.15
569.48	29532.88
569.64	29462.66
569.81	29347.98
569.97	29055.41
570.13	29605.44
570.30	29507.13
570.46	29830.13
570.62	29488.41
570.78	29525.86
570.95	28968.81
571.11	29582.03
571.27	28854.12
571.43	29020.30
571.60	29406.49
571.76	29556.28
571.92	29525.86
572.09	29731.83
572.25	29713.10
572.41	29500.11
572.57	29310.53
572.74	29511.81
572.90	29088.18
573.06	29230.95
573.22	29600.76
573.38	29659.27
573.55	29457.98
573.71	29797.36
573.87	29575.01
574.03	29523.52
574.20	29326.91
574.36	29378.40
574.52	29661.61
574.68	29577.35
574.84	29930.77
575.01	29736.51
575.17	29525.86
575.33	29750.55
575.49	29708.42
575.65	29790.34
575.82	29804.38
575.98	29816.08
576.14	29785.66
576.30	29500.11
576.46	29570.33
576.62	29467.34
576.79	29635.86
576.95	29642.88
577.11	29621.82
577.27	30094.61
577.43	29900.34
577.59	29898.00
577.75	29689.70
577.92	29575.01
578.08	29577.35
578.24	29333.93
578.40	29879.28
578.56	29755.23
578.72	29783.32
578.88	30335.68
579.04	29853.53
579.21	29743.53
579.37	29853.53
579.53	30134.40
579.69	29516.50
579.85	29867.58
580.01	29635.86
580.17	29511.81
580.33	29790.34
580.49	29544.58
580.65	29965.88
580.82	30087.59
580.98	29591.39
581.14	29813.74
581.30	30005.67
581.46	29605.44
581.62	29780.98
581.78	29675.65
581.94	29858.21
582.10	30010.35
582.26	29626.50
582.42	29951.84
582.58	30005.67
582.74	29769.27
582.90	29731.83
583.06	30213.98
583.22	29902.68
583.38	29677.99
583.54	29898.00
583.70	30087.59
583.86	29848.85
584.02	29947.15
584.18	30033.75
584.34	30068.86
584.50	29853.53
584.66	30024.39
584.82	30031.41
584.98	29816.08
585.14	29202.86
585.30	29734.17
585.46	29869.92
585.62	29970.56
585.78	29982.26
585.94	29364.36
586.10	30113.33
586.26	30120.35
586.42	29895.66
586.58	30190.57
586.74	29617.14
586.90	29750.55
587.06	29645.23
587.22	29848.85
587.38	29652.25
587.54	29638.20
587.70	30410.58
587.86	30183.55
588.02	30050.14
588.18	30316.96
588.34	30169.51
588.49	30429.30
588.65	30089.93
588.81	30110.99
588.97	29919.07
589.13	29888.64
589.29	30085.25
589.45	30038.44
589.61	29996.31
589.77	30469.09
589.93	30441.01
590.08	30714.85
590.24	30326.32
590.40	30522.93
590.56	30286.53
590.72	30066.52
590.88	29649.91
591.04	30438.67
591.20	30286.53
591.35	30431.65
591.51	30586.12
591.67	30714.85
591.83	30483.14
591.99	30204.61
592.15	30307.60
592.31	30134.40
592.46	29963.54
592.62	29876.94
592.78	30038.44
592.94	30010.35
593.10	30302.92
593.26	30167.16
593.41	30923.16
593.57	30167.16
593.73	30300.58
593.89	30396.54
594.05	30206.95
594.20	30738.26
594.36	30150.78
594.52	30183.55
594.68	30331.00
594.84	30480.80
594.99	30277.17
595.15	30553.35
595.31	30672.72
595.47	30426.96
595.62	30558.03
595.78	30237.38
595.94	30651.66
596.10	30707.83
596.25	30155.46
596.41	30534.63
596.57	30057.16
596.73	30480.80
596.88	30665.70
597.04	30815.49
597.20	30394.20
597.36	30764.00
597.51	30511.22
597.67	30253.76
597.83	30431.65
597.99	30787.41
598.14	30431.65
598.30	30742.94
598.46	30239.72
598.61	30316.96
598.77	30235.04
598.93	30504.20
599.09	30443.35
599.24	31016.78
599.40	30913.80
599.56	30705.49
599.71	30504.20
599.87	30284.19
600.03	30806.13
600.18	30703.15
600.34	30335.68
600.50	30497.18
600.65	30543.99
600.81	30696.13
600.97	30836.56
601.12	30682.08
601.28	30340.36
601.44	30682.08
601.59	30403.56
601.75	30597.82
601.91	30787.41
602.06	30445.69
602.22	30480.80
602.37	30555.69
602.53	30644.63
602.69	30567.40
602.84	30675.06
603.00	30630.59
603.16	30511.22
603.31	30710.17
603.47	30370.79
603.62	30579.10
603.78	30630.59
603.94	30127.38
604.09	30377.81
604.25	30698.47
604.40	30391.86
604.56	30548.67
604.71	30909.11
604.87	30782.73
605.03	30476.12
605.18	30677.40
605.34	30551.01
605.49	29984.60
605.65	30775.70
605.80	30480.80
605.96	30258.45
606.12	30281.85
606.27	30455.05
606.43	30569.74
606.58	30162.48
606.74	30513.56
606.89	30370.79
607.05	30738.26
607.20	30806.13
607.36	30469.09
607.51	30373.13
607.67	30302.92
607.82	29837.15
607.98	30462.07
608.13	30326.32
608.29	30366.11
608.44	30476.12
608.60	30373.13
608.75	30426.96
608.91	30801.45
609.06	30251.42
609.22	30363.77
609.37	29827.79
609.53	30101.63
609.68	30295.89
609.84	30331.00
609.99	30235.04
610.15	30106.31
610.30	30141.42
610.46	30249.08
610.61	30316.96
610.76	30258.45
610.92	30099.29
611.07	30455.05
611.23	30061.84
611.38	30010.35
611.54	30251.42
611.69	30155.46
611.84	29811.40
612.00	30115.67
612.15	30136.74
612.31	30389.52
612.46	29883.96
612.62	29921.41
612.77	30433.99
612.92	30110.99
613.08	30068.86
613.23	30279.51
613.39	29895.66
613.54	29656.93
613.69	29902.68
613.85	29589.05
614.00	29687.36
614.15	30031.41
614.31	30019.71
614.46	30125.04
614.62	29743.53
614.77	29919.07
614.92	29900.34
615.08	29846.51
615.23	29869.92
615.38	30206.95
615.54	29507.13
615.69	29539.90
615.84	29294.14
616.00	29886.30
616.15	29600.76
616.30	29727.14
616.46	29610.12
616.61	29556.28
616.76	29989.28
616.92	29916.73
617.07	29912.05
617.22	29830.13
617.37	29294.14
617.53	29788.00
617.68	29743.53
617.83	29460.32
617.99	29633.52
618.14	29724.80
618.29	29748.21
618.45	29797.36
618.60	29460.32
618.75	29780.98
618.90	29277.76
619.06	29537.56
619.21	29284.78
619.36	29233.29
619.51	29401.81
619.67	29001.58
619.82	29387.77
619.97	29420.53
620.12	29439.26
620.28	29240.31
620.43	28919.66
620.58	29432.24
620.73	29680.33
620.89	29799.70
621.04	29621.82
621.19	29322.23
621.34	29472.03
621.49	29223.93
621.65	29305.85
621.80	29181.80
621.95	29104.56
622.10	29411.17
622.25	29095.20
622.41	28996.90
622.56	29078.82
622.71	29652.25
622.86	29301.17
623.01	29268.40
623.16	29095.20
623.32	28914.98
623.47	29125.63
623.62	28961.79
623.77	28912.64
623.92	29010.94
624.07	28631.77
624.23	28926.68
624.38	28776.89
624.53	28950.09
624.68	28975.83
624.83	29305.85
624.98	29273.08
625.13	29057.75
625.29	29188.82
625.44	28772.21
625.59	28517.09
625.74	28709.01
625.89	28173.03
626.04	28802.63
626.19	28556.88
626.34	28870.51
626.49	28673.90
626.65	28662.20
626.80	28545.17
626.95	28622.41
627.10	28950.09
627.25	28662.20
627.40	28416.44
627.55	28435.17
627.70	28596.67
627.85	28268.99
628.00	28563.90
628.15	28393.04
628.30	28357.93
628.45	28643.48
628.60	28276.01
628.76	28116.86
628.91	28252.61
629.06	28580.28
629.21	28287.71
629.36	28547.51
629.51	28458.57
629.66	27999.83
629.81	27882.80
629.96	28264.31
630.11	28191.75
630.26	28156.64
630.41	27948.34
630.56	28126.22
630.71	28011.53
630.86	28470.28
631.01	28067.70
631.16	28226.86
631.31	28126.22
631.46	27988.13
631.61	28322.82
631.76	27931.95
631.91	28058.34
632.06	27611.30
632.21	27850.03
632.36	28315.80
632.51	27466.19
632.66	28119.20
632.81	27866.42
632.96	27985.79
633.10	27751.73
633.25	27995.15
633.40	27803.22
633.55	27922.59
633.70	27592.58
633.85	27672.15
634.00	27702.58
634.15	27662.79
634.30	27850.03
634.45	27606.62
634.60	27637.05
634.75	27662.79
634.90	27686.20
635.05	27601.94
635.19	27936.63
635.34	27828.97
635.49	27948.34
635.64	27405.33
635.79	27728.33
635.94	27222.77
636.09	27672.15
636.24	27618.32
636.39	27435.76
636.53	27662.79
636.68	27344.48
636.83	27660.45
636.98	27676.83
637.13	27456.82
637.28	27454.48
637.43	27725.99
637.57	27211.07
637.72	27091.70
637.87	27491.93
638.02	27723.65
638.17	27714.28
638.32	27054.25
638.46	27304.69
638.61	26824.88
638.76	27080.00
638.91	27091.70
639.06	27194.68
639.20	27342.14
639.35	27075.32
639.50	27241.50
639.65	27161.92
639.80	26995.74
639.94	27353.84
640.09	27365.54
640.24	27311.71
640.39	27023.83
640.54	26962.97
640.68	26958.29
640.83	27023.83
640.98	27021.48
641.13	26820.20
641.27	27157.24
641.42	27285.97
641.57	26979.36
641.72	27096.38
641.86	26726.58
642.01	26941.91
642.16	26742.96
642.31	26738.28
642.45	27255.54
642.60	26375.50
642.75	26438.69
642.90	26869.35
643.04	26419.97
643.19	26291.24
643.34	26022.08
643.48	26235.06
643.63	26735.94
643.78	26764.03
643.93	26890.41
644.07	26616.57
644.22	26855.31
644.37	26698.49
644.51	26288.90
644.66	26462.10
644.81	26345.07
644.95	26604.87
645.10	26333.37
645.25	26331.03
645.39	26740.62
645.54	26768.71
645.69	26532.31
645.83	26511.25
645.98	26647.00
646.13	26544.02
646.27	26478.48
646.42	26408.26
646.57	26373.16
646.71	26771.05
646.86	26464.44
647.00	26300.60
647.15	26277.19
647.30	26298.26
647.44	26001.01
647.59	26553.38
647.74	26113.36
647.88	26228.04
648.03	26174.21
648.17	26228.04
648.32	26658.70
648.47	26434.01
648.61	26246.77
648.76	26583.80
648.90	26277.19
649.05	26183.57
649.20	26132.08
649.34	25968.24
649.49	25919.09
649.63	26029.10
649.78	26174.21
649.92	25710.78
650.07	26024.42
650.21	26518.27
650.36	26101.65
650.51	25783.34
650.65	26064.21
650.80	26132.08
650.94	26139.10
651.09	25727.17
651.23	25839.51
651.38	25811.43
651.52	25865.26
651.67	25886.32
651.81	25841.85
651.96	25830.15
652.10	25869.94
652.25	25926.11
652.39	25865.26
652.54	26026.76
652.68	25970.58
652.83	25912.07
652.97	25743.55
653.12	25867.60
653.26	25872.28
653.41	25738.87
653.55	25759.94
653.70	25469.71
653.84	25706.10
653.99	25551.63
654.13	25628.87
654.27	25577.37
654.42	25661.63
654.56	25692.06
654.71	25568.01
654.85	25539.93
655.00	25284.81
655.14	25160.76
655.29	25364.39
655.43	25387.79
655.57	25177.14
655.72	25450.99
655.86	25628.87
656.01	25352.68
656.15	25083.52
656.30	25439.28
656.44	25481.41
656.58	25020.33
656.73	25408.86
656.87	25397.15
657.01	25132.67
657.16	25502.48
657.30	25228.63
657.45	25212.25
657.59	25057.78
657.73	24805.00
657.88	25055.43
658.02	25010.96
658.16	25003.94
658.31	24594.35
658.45	24812.02
658.60	24678.61
658.74	24947.77
658.88	24903.30
659.03	24865.85
659.17	24957.13
659.31	24678.61
659.46	24943.09
659.60	24765.21
659.74	24753.51
659.89	24444.56
660.03	24666.91
660.17	24673.93
660.32	24807.34
660.46	24393.06
660.60	24348.59
660.74	24416.47
660.89	24542.86
661.03	24126.24
661.17	24538.18
661.32	24278.38
661.46	24332.21
661.60	24283.06
661.74	24313.48
661.89	24463.28
662.03	24343.91
662.17	24056.03
662.31	24156.67
662.46	24386.04
662.60	24318.17
662.74	24032.62
662.88	24271.36
663.03	23859.42
663.17	23882.83
663.31	23580.90
663.45	23646.43
663.60	23985.81
663.74	23828.99
663.88	24023.26
664.02	24102.84
664.17	23824.31
664.31	23791.55
664.45	23845.38
664.59	23688.56
664.73	24177.73
664.88	23798.57
665.02	23695.58
665.16	23761.12
665.30	23608.98
665.44	23484.94
665.59	23545.79
665.73	23145.56
665.87	23204.07
666.01	23295.35
666.15	23442.81
666.29	23316.42
666.44	23239.18
666.58	23087.04
666.72	22881.08
666.86	23166.62
667.00	23262.58
667.14	23007.47
667.28	23187.69
667.43	22977.04
667.57	23288.33
667.71	23005.13
667.85	22918.53
667.99	23000.44
668.13	23019.17
668.27	22836.61
668.41	22810.86
668.56	23061.30
668.70	22963.00
668.84	22693.83
668.98	22649.36
669.12	22794.48
669.26	22892.78
669.40	22635.32
669.54	22560.42
669.68	23049.60
669.82	22361.48
669.96	22118.06
670.10	22415.31
670.25	22361.48
670.39	22551.06
670.53	22094.66
670.67	22553.40
670.81	22328.71
670.95	22644.68
671.09	22225.73
671.23	22300.62
671.37	22284.24
671.51	22279.56
671.65	22338.07
671.79	21930.82
671.93	22242.11
672.07	22101.68
672.21	21970.61
672.35	21818.47
672.49	21584.42
672.63	21914.44
672.77	21701.45
672.91	21872.31
673.05	21649.96
673.19	21668.68
673.33	21563.36
673.47	21687.40
673.61	21647.61
673.75	21614.85
673.89	21362.07
674.03	21362.07
674.17	21362.07
674.31	21106.95
674.45	21010.99
674.59	20985.24
674.73	21163.12
674.87	21142.06
675.01	21149.08
675.15	20992.26
675.29	20753.53
675.43	20893.96
675.56	21207.59
675.70	21109.29
675.84	20713.74
675.98	20648.21
676.12	20760.55
676.26	21074.18
676.40	20872.90
676.54	20723.10
676.68	20547.56
676.82	20119.24
676.96	20175.42
677.10	20187.12
677.23	20301.81
677.37	20098.18
677.51	20301.81
677.65	20039.67
677.79	20257.34
677.93	19976.47
678.07	20212.87
678.21	19772.85
678.34	19775.19
678.48	19545.81
678.62	19616.03
678.76	19627.73
678.90	19374.95
679.04	19571.56
679.18	19484.96
679.31	19314.10
679.45	19314.10
679.59	19136.22
679.73	19349.21
679.87	19157.28
680.00	19133.88
680.14	19000.47
680.28	18881.10
680.42	18977.06
680.56	19108.13
680.70	19215.80
680.83	19040.26
680.97	18728.97
681.11	18857.70
681.25	18740.67
681.39	18817.91
681.52	18675.13
681.66	18679.82
681.80	18618.96
681.94	18485.55
682.07	18473.85
682.21	18420.02
682.35	18181.28
682.49	18286.61
682.62	18092.34
682.76	17996.38
682.90	18052.55
683.04	18160.22
683.17	18078.30
683.31	17977.65
683.45	18143.83
683.59	17886.37
683.72	17893.40
683.86	17858.29
684.00	17617.21
684.13	17572.74
684.27	17591.47
684.41	17366.78
684.55	17362.09
684.68	17413.59
684.82	17202.94
684.96	17310.60
685.09	17078.89
685.23	17085.91
685.37	17123.36
685.50	17135.06
685.64	17050.80
685.78	16992.29
685.91	16971.22
686.05	16912.71
686.19	16975.91
686.32	16908.03
686.46	16650.57
686.60	16493.76
686.73	16470.35
686.87	16444.60
687.01	16570.99
687.14	16386.09
687.28	16191.83
687.42	16168.42
687.55	16365.03
687.69	16020.97
687.82	16451.63
687.96	16304.17
688.10	16135.65
688.23	16177.78
688.37	15889.90
688.50	15988.20
688.64	16020.97
688.78	15826.70
688.91	15681.59
689.05	15683.93
689.18	15784.57
689.32	15253.27
689.46	15379.66
689.59	15140.93
689.73	15410.09
689.86	15314.13
690.00	15059.01
690.13	15433.49
690.27	15288.38
690.41	14932.62
690.54	15016.88
690.68	15332.85
690.81	15112.84
690.95	15159.65
691.08	15047.30
691.22	14883.47
691.35	14869.42
691.49	14808.57
691.62	14946.66
691.76	14827.29
691.89	14373.23
692.03	14270.25
692.16	14340.46
692.30	14649.41
692.43	14181.31
692.57	14258.54
692.70	14333.44
692.84	14328.76
692.97	13914.48
693.11	14277.27
693.24	14193.01
693.38	14153.22
693.51	14253.86
693.65	13823.20
693.78	13837.25
693.92	13713.20
694.05	13706.18
694.19	13605.53
694.32	13551.70
694.45	13659.37
694.59	13369.14
694.72	13364.46
694.86	13369.14
694.99	13341.05
695.13	13364.46
695.26	13453.40
695.39	13118.70
695.53	13195.94
695.66	13202.96
695.80	13008.70
695.93	13027.42
696.07	13083.59
696.20	13205.30
696.33	12807.41
696.47	12760.60
696.60	12781.67
696.73	12559.31
696.87	12772.30
697.00	12655.28
697.14	12421.22
697.27	12245.68
697.40	12255.04
697.54	12355.69
697.67	12334.62
697.80	12421.22
697.94	12191.85
698.07	12093.55
698.21	12079.50
698.34	12109.93
698.47	12114.61
698.61	12135.68
698.74	11950.78
698.87	12278.45
699.01	12065.46
699.14	11772.89
699.27	11683.95
699.40	11587.99
699.54	11882.90
699.67	11623.10
699.80	11632.46
699.94	11365.64
700.07	11611.40
700.20	11508.41
700.34	11225.21
700.47	11426.50
700.60	11229.89
700.73	11321.17
700.87	11140.95
701.00	11105.84
701.13	10998.18
701.26	11119.89
701.40	10918.60
701.53	11154.99
701.66	10930.30
701.79	10958.39
701.93	10808.59
702.06	10815.62
702.19	10738.38
702.32	10602.63
702.46	10668.16
702.59	10569.86
702.72	10431.77
702.85	10480.92
702.99	10532.41
703.12	10314.74
703.25	10211.76
703.38	10319.42
703.51	10450.49
703.65	10296.02
703.78	10230.48
703.91	10244.52
704.04	10207.08
704.17	10331.12
704.31	10251.55
704.44	10033.88
704.57	9699.18
704.70	9874.72
704.83	9748.33
704.96	9753.01
705.10	9888.76
705.23	9504.92
>>>>>End Processed Spectral Data<<<<<
