SpectraSuite Data File
++++++++++++++++++++++++++++++++++++
Date: Fri Oct 18 13:58:16 GMT-05:00 2013
User: bianchi
Dark Spectrum Present: No
Reference Spectrum Present: No
Number of Sampled Component Spectra: 1
Spectrometers: USB2+H05261
Integration Time (usec): 50000 (USB2+H05261)
Spectra Averaged: 1 (USB2+H05261)
Boxcar Smoothing: 0 (USB2+H05261)
Correct for Electrical Dark: No (USB2+H05261)
Strobe/Lamp Enabled: No (USB2+H05261)
Correct for Detector Non-linearity: No (USB2+H05261)
Correct for Stray Light: No (USB2+H05261)
Number of Pixels in Processed Spectrum: 2048
>>>>>Begin Processed Spectral Data<<<<<
365.73	0.00
365.92	0.00
366.12	0.00
366.32	0.00
366.52	0.00
366.72	0.00
366.91	0.00
367.11	0.00
367.31	0.00
367.51	0.00
367.70	0.00
367.90	0.00
368.10	0.00
368.30	0.00
368.49	0.00
368.69	0.00
368.89	0.00
369.09	0.00
369.28	0.00
369.48	0.00
369.68	0.00
369.87	0.00
370.07	0.00
370.27	0.00
370.47	0.00
370.66	25.75
370.86	107.66
371.06	180.22
371.25	102.98
371.45	119.37
371.65	135.75
371.84	93.62
372.04	93.62
372.24	184.90
372.44	208.31
372.63	159.16
372.83	259.80
373.03	241.08
373.22	189.58
373.42	231.71
373.62	215.33
373.81	198.95
374.01	243.42
374.21	241.08
374.40	189.58
374.60	248.10
374.79	262.14
374.99	259.80
375.19	231.71
375.38	245.76
375.58	266.82
375.78	154.48
375.97	285.55
376.17	220.01
376.37	238.73
376.56	271.50
376.76	255.12
376.95	271.50
377.15	292.57
377.35	234.05
377.54	203.63
377.74	273.84
377.93	238.73
378.13	271.50
378.33	372.15
378.52	264.48
378.72	203.63
378.91	285.55
379.11	297.25
379.31	245.76
379.50	367.46
379.70	355.76
379.89	360.44
380.09	217.67
380.28	266.82
380.48	245.76
380.68	306.61
380.87	301.93
381.07	365.12
381.26	334.70
381.46	362.78
381.65	311.29
381.85	348.74
382.04	297.25
382.24	341.72
382.43	402.57
382.63	273.84
382.83	283.20
383.02	330.02
383.22	294.91
383.41	344.06
383.61	320.65
383.80	360.44
384.00	367.46
384.19	393.21
384.39	428.32
384.58	395.55
384.78	411.93
384.97	362.78
385.17	339.38
385.36	395.55
385.56	390.87
385.75	327.68
385.95	383.85
386.14	379.17
386.34	411.93
386.53	383.85
386.72	407.25
386.92	402.57
387.11	479.81
387.31	374.49
387.50	442.36
387.70	486.83
387.89	428.32
388.09	351.08
388.28	407.25
388.48	440.02
388.67	498.53
388.86	449.38
389.06	428.32
389.25	428.32
389.45	454.06
389.64	500.87
389.84	447.04
390.03	442.36
390.22	472.79
390.42	550.03
390.61	484.49
390.81	489.17
391.00	510.24
391.19	505.56
391.39	461.09
391.58	428.32
391.78	524.28
391.97	437.68
392.16	503.22
392.36	599.18
392.55	552.37
392.75	599.18
392.94	585.13
393.13	543.00
393.33	575.77
393.52	573.43
393.71	559.39
393.91	521.94
394.10	575.77
394.29	599.18
394.49	559.39
394.68	587.47
394.88	629.60
395.07	631.94
395.26	596.84
395.46	624.92
395.65	657.69
395.84	582.79
396.04	650.67
396.23	617.90
396.42	657.69
396.62	695.14
396.81	664.71
397.00	624.92
397.19	748.97
397.39	692.80
397.58	641.31
397.77	617.90
397.97	744.29
398.16	627.26
398.35	685.78
398.55	683.44
398.74	727.91
398.93	678.76
399.12	603.86
399.32	587.47
399.51	732.59
399.70	786.42
399.90	725.57
400.09	777.06
400.28	809.83
400.47	777.06
400.67	821.53
400.86	828.55
401.05	732.59
401.24	716.20
401.44	786.42
401.63	751.31
401.82	727.91
402.01	795.78
402.21	809.83
402.40	828.55
402.59	809.83
402.78	943.24
402.97	830.89
403.17	854.30
403.36	847.27
403.55	800.46
403.74	990.05
403.93	821.53
404.13	849.61
404.32	1004.09
404.51	943.24
404.70	861.32
404.89	882.38
405.09	903.45
405.28	858.98
405.47	961.96
405.66	915.15
405.85	983.02
406.05	968.98
406.24	917.49
406.43	905.79
406.62	915.15
406.81	1025.15
407.00	1027.50
407.20	978.34
407.39	971.32
407.58	1107.07
407.77	1123.46
407.96	1022.81
408.15	1109.41
408.34	1006.43
408.54	1102.39
408.73	1146.86
408.92	1013.45
409.11	1111.75
409.30	1128.14
409.49	1093.03
409.68	1097.71
409.87	1111.75
410.07	1228.78
410.26	1100.05
410.45	1034.52
410.64	1170.27
410.83	1221.76
411.02	1247.51
411.21	1322.40
411.40	1224.10
411.59	1317.72
411.78	1249.85
411.98	1224.10
412.17	1390.28
412.36	1277.93
412.55	1299.00
412.74	1270.91
412.93	1364.53
413.12	1334.11
413.31	1406.66
413.50	1268.57
413.69	1366.87
413.88	1476.88
414.07	1434.75
414.26	1336.45
414.45	1373.89
414.64	1369.21
414.83	1486.24
415.02	1542.41
415.22	1441.77
415.41	1460.49
415.60	1591.56
415.79	1561.14
415.98	1486.24
416.17	1526.03
416.36	1600.93
416.55	1694.55
416.74	1783.49
416.93	1701.57
417.12	1607.95
417.31	1664.12
417.50	1708.59
417.69	1809.23
417.88	1633.69
418.07	1666.46
418.26	1678.16
418.45	1710.93
418.64	1689.87
418.83	1699.23
419.02	1795.19
419.21	1710.93
419.39	1804.55
419.58	1678.16
419.77	1825.62
419.96	1790.51
420.15	1748.38
420.34	1799.87
420.53	1907.54
420.72	1980.09
420.91	1895.83
421.10	2022.22
421.29	1954.35
421.48	1998.82
421.67	1933.28
421.86	1928.60
422.05	2085.42
422.24	1966.05
422.43	2017.54
422.61	2010.52
422.80	1902.86
422.99	1949.67
423.18	1942.64
423.37	1966.05
423.56	1994.14
423.75	1994.14
423.94	1902.86
424.13	1858.39
424.32	1860.73
424.50	1944.99
424.69	2019.88
424.88	2122.87
425.07	2066.69
425.26	1994.14
425.45	2024.56
425.64	2008.18
425.83	2029.24
426.01	2026.90
426.20	1937.96
426.39	2045.63
426.58	2127.55
426.77	2111.16
426.96	2111.16
427.15	2111.16
427.33	2015.20
427.52	2139.25
427.71	2083.08
427.90	2101.80
428.09	2050.31
428.28	2150.95
428.46	2125.21
428.65	2127.55
428.84	2232.87
429.03	2134.57
429.22	2179.04
429.40	2179.04
429.59	2183.72
429.78	2193.08
429.97	2120.53
430.16	2237.55
430.34	2211.81
430.53	2403.73
430.72	2270.32
430.91	2272.66
431.10	2223.51
431.28	2452.88
431.47	2328.83
431.66	2242.23
431.85	2347.56
432.03	2523.10
432.22	2413.09
432.41	2464.58
432.60	2438.84
432.79	2420.11
432.97	2382.67
433.16	2534.80
433.35	2399.05
433.54	2476.29
433.72	2471.61
433.91	2436.50
434.10	2464.58
434.28	2434.16
434.47	2609.70
434.66	2565.23
434.85	2607.36
435.03	2483.31
435.22	2548.84
435.41	2733.75
435.59	2553.52
435.78	2593.31
435.97	2647.15
436.16	2665.87
436.34	2677.57
436.53	2640.12
436.72	2626.08
436.90	2642.46
437.09	2602.68
437.28	2633.10
437.46	2651.83
437.65	2785.24
437.84	2775.88
438.02	2747.79
438.21	2691.62
438.40	2710.34
438.58	2801.62
438.77	2878.86
438.96	2843.75
439.14	2878.86
439.33	2953.76
439.52	2888.22
439.70	2904.60
439.89	2890.56
440.08	2986.52
440.26	3070.78
440.45	3012.27
440.63	3077.80
440.82	3159.72
441.01	3105.89
441.19	3038.02
441.38	3178.45
441.57	3136.32
441.75	3190.15
441.94	3325.90
442.12	3276.75
442.31	3361.01
442.50	3351.65
442.68	3335.26
442.87	3361.01
443.05	3286.11
443.24	3246.32
443.43	3321.22
443.61	3332.92
443.80	3515.48
443.98	3260.37
444.17	3300.16
444.35	3384.41
444.54	3382.07
444.73	3372.71
444.91	3407.82
445.10	3515.48
445.28	3426.54
445.47	3513.14
445.65	3480.38
445.84	3407.82
446.02	3424.20
446.21	3454.63
446.39	3468.67
446.58	3368.03
446.77	3517.83
446.95	3372.71
447.14	3515.48
447.32	3499.10
447.51	3480.38
447.69	3473.36
447.88	3604.42
448.06	3447.61
448.25	3531.87
448.43	3414.84
448.62	3517.83
448.80	3426.54
448.99	3590.38
449.17	3499.10
449.36	3454.63
449.54	3545.91
449.73	3485.06
449.91	3611.45
450.10	3674.64
450.28	3751.88
450.46	3693.37
450.65	3674.64
450.83	3735.50
451.02	3688.68
451.20	3693.37
451.39	3871.25
451.57	3747.20
451.76	3674.64
451.94	3772.94
452.13	3719.11
452.31	3817.41
452.49	3791.67
452.68	3922.74
452.86	3829.12
453.05	3960.19
453.23	3847.84
453.42	3864.22
453.60	3915.72
453.78	3936.78
453.97	3948.48
454.15	3763.58
454.34	3847.84
454.52	4138.07
454.70	3981.25
454.89	4011.68
455.07	3978.91
455.26	4058.49
455.44	4049.13
455.62	4021.04
455.81	4056.15
455.99	4039.76
456.17	4210.62
456.36	4128.70
456.54	4135.73
456.73	4278.50
456.91	4351.06
457.09	4304.25
457.28	4360.42
457.46	4184.88
457.64	4421.27
457.83	4344.03
458.01	4315.95
458.19	4320.63
458.38	4388.50
458.56	4397.87
458.74	4423.61
458.93	4355.74
459.11	4655.33
459.29	4493.83
459.48	4428.29
459.66	4489.15
459.84	4437.66
460.03	4603.83
460.21	4568.73
460.39	4592.13
460.57	4472.76
460.76	4437.66
460.94	4676.39
461.12	4531.28
461.31	4545.32
461.49	4753.63
461.67	4514.89
461.85	4606.17
462.04	4578.09
462.22	4943.21
462.40	4765.33
462.59	4554.68
462.77	4624.90
462.95	4739.58
463.13	4629.58
463.32	4671.71
463.50	4805.12
463.68	4828.53
463.86	4812.14
464.05	4819.16
464.23	4688.09
464.41	4891.72
464.59	4968.96
464.78	4947.89
464.96	4887.04
465.14	4828.53
465.32	4873.00
465.50	4791.08
465.69	4767.67
465.87	4908.10
466.05	5041.51
466.23	4929.17
466.41	5100.03
466.60	5186.63
466.78	4910.44
466.96	5015.77
467.14	4926.83
467.32	5184.29
467.51	5076.62
467.69	5013.43
467.87	5001.72
468.05	4971.30
468.23	5151.52
468.41	5048.54
468.60	5114.07
468.78	5158.54
468.96	5179.61
469.14	5097.69
469.32	5226.42
469.50	5336.42
469.69	5226.42
469.87	5249.82
470.05	5324.72
470.23	5371.53
470.41	5420.68
470.59	5523.66
470.77	5518.98
470.95	5369.19
471.14	5493.24
471.32	5540.05
471.50	5715.59
471.68	5556.43
471.86	5654.73
472.04	5570.48
472.22	5748.36
472.40	5645.37
472.58	5551.75
472.77	5795.17
472.95	5816.23
473.13	5951.98
473.31	5724.95
473.49	5867.72
473.67	5827.93
473.85	5849.00
474.03	5858.36
474.21	6146.25
474.39	6087.73
474.57	6017.52
474.75	5940.28
474.93	6090.07
475.12	6115.82
475.30	6064.33
475.48	6001.13
475.66	6232.85
475.84	6300.72
476.02	6363.92
476.20	6277.32
476.38	6595.63
476.56	6525.41
476.74	6511.37
476.92	6450.52
477.10	6417.75
477.28	6544.14
477.46	6548.82
477.64	6724.36
477.82	6740.74
478.00	7005.22
478.18	6825.00
478.36	6899.90
478.54	6935.01
478.72	7187.79
478.90	7232.26
479.08	6946.71
479.26	7260.34
479.44	7272.04
479.62	7213.53
479.80	7201.83
479.98	7407.80
480.16	7445.24
480.34	7403.11
480.52	7529.50
480.70	7557.59
480.88	7648.87
481.06	7644.19
481.24	7815.05
481.41	7791.64
481.59	7925.05
481.77	8013.99
481.95	7995.27
482.13	8070.17
482.31	8196.56
482.49	8308.90
482.67	8308.90
482.85	8367.42
483.03	8280.82
483.21	8353.37
483.39	8435.29
483.57	8327.63
483.74	8564.02
483.92	8606.15
484.10	8585.08
484.28	8992.34
484.46	9039.15
484.64	9146.81
484.82	9069.58
485.00	9048.51
485.18	9212.35
485.35	9383.21
485.53	9191.28
485.71	9324.69
485.89	9596.20
486.07	9343.42
486.25	9458.10
486.43	9614.92
486.61	9535.34
486.78	9802.16
486.96	9933.23
487.14	9909.83
487.32	9942.60
487.50	10228.14
487.68	10342.83
487.85	10204.74
488.03	10312.40
488.21	10452.83
488.39	10490.28
488.57	10593.26
488.75	10448.15
488.92	10738.38
489.10	10815.62
489.28	10717.31
489.46	11014.56
489.64	11059.03
489.81	11379.68
489.99	11206.48
490.17	11152.65
490.35	11281.38
490.53	11351.60
490.70	11513.10
490.88	11342.24
491.06	11730.76
491.24	11730.76
491.41	11690.98
491.59	11990.56
491.77	11843.11
491.95	12084.19
492.13	12257.39
492.30	12095.89
492.48	12035.03
492.66	12135.68
492.84	12212.92
493.01	12538.25
493.19	12484.42
493.37	12585.06
493.54	12634.21
493.72	12814.43
493.90	12566.34
494.08	12886.99
494.25	13118.70
494.43	13146.79
494.61	13284.88
494.79	13317.65
494.96	13366.80
495.14	13406.59
495.32	13387.86
495.49	13418.29
495.67	13392.55
495.85	13598.51
496.02	13745.97
496.20	13582.13
496.38	13942.57
496.55	13701.50
496.73	14101.73
496.91	14150.88
497.09	14295.99
497.26	14424.72
497.44	14150.88
497.62	14118.11
497.79	14590.90
497.97	14300.67
498.14	14801.55
498.32	14712.61
498.50	14696.22
498.67	14497.28
498.85	14663.46
499.03	14857.72
499.20	14953.68
499.38	14958.36
499.56	15133.90
499.73	15080.07
499.91	15318.81
500.08	15159.65
500.26	15176.03
500.44	15293.06
500.61	15428.81
500.79	15377.32
500.97	15683.93
501.14	15531.80
501.32	15829.04
501.49	15721.38
501.67	15726.06
501.84	15578.61
502.02	16070.12
502.20	16039.69
502.37	16203.53
502.55	15700.31
502.72	16292.47
502.90	16189.49
503.07	16065.44
503.25	16362.69
503.43	16107.57
503.60	16320.56
503.78	16428.22
503.95	16390.77
504.13	16477.37
504.30	16681.00
504.48	16236.30
504.65	16662.27
504.83	16568.65
505.01	16865.90
505.18	16989.95
505.36	17003.99
505.53	17062.51
505.71	16809.73
505.88	16985.27
506.06	16805.05
506.23	17401.88
506.41	17326.99
506.58	17348.05
506.76	17242.73
506.93	17380.82
507.11	17025.06
507.28	17128.04
507.46	17692.11
507.63	17549.34
507.81	17657.00
507.98	17710.83
508.16	17701.47
508.33	17708.49
508.50	18080.64
508.68	17767.01
508.85	18045.53
509.03	18125.11
509.20	18146.17
509.38	18075.96
509.55	18448.10
509.73	18026.81
509.90	18003.40
510.08	18373.21
510.25	18176.60
510.42	18319.37
510.60	18483.21
510.77	18448.10
510.95	18508.96
511.12	18298.31
511.30	18506.62
511.47	18773.44
511.64	18836.63
511.82	19122.18
511.99	18710.24
512.17	19084.73
512.34	18750.03
512.51	18991.11
512.69	19199.41
512.86	18988.77
513.04	19302.40
513.21	19051.96
513.38	19028.56
513.56	19372.61
513.73	19321.12
513.90	19480.28
514.08	19398.36
514.25	19428.79
514.43	19311.76
514.60	19878.17
514.77	19564.54
514.95	19929.66
515.12	19800.93
515.29	19583.26
515.47	19667.52
515.64	19927.32
515.81	20009.24
515.99	19770.51
516.16	20004.56
516.33	20332.23
516.51	20191.80
516.68	20032.65
516.85	20135.63
517.03	20451.60
517.20	20222.23
517.37	20521.82
517.54	20657.57
517.72	20482.03
517.89	20554.58
518.06	20414.15
518.24	20528.84
518.41	20566.29
518.58	20606.08
518.75	20762.89
518.93	20617.78
519.10	20849.49
519.27	20718.42
519.45	20727.78
519.62	20835.45
519.79	20767.57
519.96	20905.66
520.14	20952.48
520.31	21008.65
520.48	21270.79
520.65	21083.55
520.83	21111.63
521.00	21149.08
521.17	21256.75
521.34	21156.10
521.52	21397.18
521.69	21427.60
521.86	21598.46
522.03	21656.98
522.20	21851.24
522.38	21881.67
522.55	21865.28
522.72	21818.47
522.89	21762.30
523.07	22005.72
523.24	22073.59
523.41	21785.71
523.58	21834.86
523.75	22190.62
523.92	21933.16
524.10	22171.89
524.27	22097.00
524.44	22422.33
524.61	22424.67
524.78	22691.49
524.96	22466.80
525.13	22162.53
525.30	22309.99
525.47	22169.55
525.64	22647.02
525.81	22380.20
525.98	22857.67
526.16	22632.98
526.33	22684.47
526.50	23229.82
526.67	22827.24
526.84	22689.15
527.01	22740.64
527.18	22609.58
527.36	23227.48
527.53	22838.95
527.70	23248.54
527.87	23403.02
528.04	22904.48
528.21	23056.62
528.38	23227.48
528.55	23056.62
528.72	22934.91
528.89	22988.74
529.07	23290.67
529.24	23386.63
529.41	23548.13
529.58	23318.76
529.75	23257.90
529.92	23391.31
530.09	23300.03
530.26	23573.88
530.43	23508.34
530.60	23559.83
530.77	23576.22
530.94	23704.95
531.11	23608.98
531.28	23667.50
531.46	23772.82
531.63	23690.90
531.80	23824.31
531.97	24011.56
532.14	23943.68
532.31	23833.68
532.48	24107.52
532.65	23901.55
532.82	23892.19
532.99	23981.13
533.16	23997.51
533.33	24332.21
533.50	24238.59
533.67	24126.24
533.84	23955.38
534.01	24023.26
534.18	23939.00
534.35	24355.61
534.52	23962.40
534.69	24863.51
534.86	24442.21
535.03	24215.18
535.20	24290.08
535.37	24453.92
535.54	24563.92
535.71	24474.98
535.88	24587.33
536.05	24666.91
536.22	24596.69
536.38	24912.66
536.55	24971.18
536.72	25151.40
536.89	24556.90
537.06	24861.17
537.23	24805.00
537.40	24734.78
537.57	24603.71
537.74	24952.45
537.91	25160.76
538.08	25308.21
538.25	25034.37
538.42	25205.23
538.59	25486.09
538.75	24856.49
538.92	24905.64
539.09	25493.12
539.26	25387.79
539.43	25333.96
539.60	25252.04
539.77	25759.94
539.94	25628.87
540.11	25216.93
540.28	25614.82
540.44	25245.02
540.61	25329.28
540.78	25535.24
540.95	25336.30
541.12	25703.76
541.29	25507.16
541.46	25294.17
541.62	25638.23
541.79	25469.71
541.96	25460.35
542.13	25315.23
542.30	25738.87
542.47	26075.91
542.63	25862.92
542.80	25766.96
542.97	26368.48
543.14	26001.01
543.31	25975.27
543.48	25886.32
543.64	26146.12
543.81	26349.75
543.98	26242.09
544.15	26143.78
544.32	26394.22
544.48	26672.74
544.65	26092.29
544.82	26326.35
544.99	25975.27
545.16	26249.11
545.32	26326.35
545.49	26665.72
545.66	26993.40
545.83	26515.93
546.00	26665.72
546.16	26398.90
546.33	26478.48
546.50	26146.12
546.67	26714.87
546.83	26649.34
547.00	26642.32
547.17	26843.60
547.34	26822.54
547.50	26651.68
547.67	26831.90
547.84	26712.53
548.00	26923.18
548.17	27206.39
548.34	26939.57
548.51	27250.86
548.67	27363.20
548.84	27367.88
549.01	27225.11
549.18	26747.64
549.34	27065.96
549.51	27239.15
549.68	26902.12
549.84	27030.85
550.01	27140.85
550.18	27056.59
550.34	27391.29
550.51	27428.74
550.68	27241.50
550.84	27213.41
551.01	27285.97
551.18	27309.37
551.34	27335.12
551.51	27615.98
551.68	27351.50
551.84	27419.38
552.01	27337.46
552.18	27697.90
552.34	27435.76
552.51	27594.92
552.68	27377.25
552.84	27740.03
553.01	27728.33
553.18	27784.50
553.34	27838.33
553.51	27639.39
553.67	27606.62
553.84	27983.44
554.01	27913.23
554.17	27608.96
554.34	27936.63
554.51	27613.64
554.67	27749.39
554.84	27861.74
555.00	28100.47
555.17	28212.82
555.33	27772.80
555.50	27800.88
555.67	27728.33
555.83	27843.01
556.00	28077.07
556.16	27857.06
556.33	28037.28
556.50	27948.34
556.66	28095.79
556.83	27859.40
556.99	28376.66
557.16	28205.80
557.32	28439.85
557.49	28341.55
557.65	28254.95
557.82	28034.94
557.98	28023.23
558.15	28156.64
558.32	28493.68
558.48	28313.46
558.65	28678.58
558.81	28158.99
558.98	28540.49
559.14	28582.62
559.31	28278.35
559.47	28355.59
559.64	28479.64
559.80	28716.03
559.97	28589.64
560.13	28690.29
560.30	28664.54
560.46	28893.91
560.63	28858.81
560.79	28912.64
560.96	28589.64
561.12	28694.97
561.29	28453.89
561.45	28479.64
561.61	28737.10
561.78	28959.45
561.94	28418.78
562.11	28404.74
562.27	28491.34
562.44	28570.92
562.60	28837.74
562.77	28556.88
562.93	28456.23
563.10	28809.65
563.26	28943.06
563.42	29130.31
563.59	28954.77
563.75	28545.17
563.92	28683.27
564.08	29062.43
564.24	29146.69
564.41	28687.95
564.57	28664.54
564.74	28978.17
564.90	29064.77
565.07	29020.30
565.23	28545.17
565.39	29160.73
565.56	29191.16
565.72	28954.77
565.88	29256.70
566.05	28973.49
566.21	28428.15
566.38	28938.38
566.54	29024.98
566.70	29329.25
566.87	29167.76
567.03	29219.25
567.19	29528.20
567.36	29376.06
567.52	28940.72
567.68	29523.52
567.85	28947.75
568.01	29333.93
568.17	29228.61
568.34	29195.84
568.50	28994.56
568.66	29118.60
568.83	29249.67
568.99	29027.32
569.15	29242.65
569.32	29088.18
569.48	28828.38
569.64	29207.55
569.81	29273.08
569.97	29624.16
570.13	29490.75
570.30	29090.52
570.46	29303.51
570.62	28786.25
570.78	29310.53
570.95	29261.38
571.11	29317.55
571.27	28826.04
571.43	28854.12
571.60	29366.70
571.76	29233.29
571.92	29074.13
572.09	29467.34
572.25	29432.24
572.41	29699.06
572.57	29252.02
572.74	29191.16
572.90	29268.40
573.06	29214.57
573.22	29287.12
573.38	29523.52
573.55	29205.20
573.71	29673.31
573.87	29752.89
574.03	29256.70
574.20	29579.69
574.36	29284.78
574.52	29418.19
574.68	29060.09
574.84	29401.81
575.01	29816.08
575.17	29546.92
575.33	29607.78
575.49	29586.71
575.65	29890.98
575.82	29235.63
575.98	29804.38
576.14	29919.07
576.30	29284.78
576.46	29355.00
576.62	29188.82
576.79	29366.70
576.95	29387.77
577.11	29486.07
577.27	29989.28
577.43	29603.10
577.59	29865.24
577.75	29766.93
577.92	29289.46
578.08	29230.95
578.24	29670.97
578.40	29465.00
578.56	29670.97
578.72	29539.90
578.88	29614.80
579.04	29869.92
579.21	29741.19
579.37	29895.66
579.53	29729.48
579.69	29453.30
579.85	29603.10
580.01	29525.86
580.17	29486.07
580.33	29294.14
580.49	29546.92
580.65	30017.37
580.82	29628.84
580.98	29626.50
581.14	29874.60
581.30	29998.65
581.46	29338.62
581.62	29614.80
581.78	29371.38
581.94	29448.62
582.10	29785.66
582.26	29610.12
582.42	29811.40
582.58	29570.33
582.74	29797.36
582.90	29914.39
583.06	29940.13
583.22	29535.22
583.38	29670.97
583.54	29565.65
583.70	29551.60
583.86	29624.16
584.02	29565.65
584.18	30127.38
584.34	29858.21
584.50	29621.82
584.66	29900.34
584.82	29284.78
584.98	29830.13
585.14	29649.91
585.30	29921.41
585.46	29703.74
585.62	29670.97
585.78	29799.70
585.94	29432.24
586.10	29610.12
586.26	29883.96
586.42	29998.65
586.58	30127.38
586.74	29839.49
586.90	29481.39
587.06	29668.63
587.22	29715.44
587.38	29846.51
587.54	29944.81
587.70	29975.24
587.86	30047.80
588.02	29851.19
588.18	29926.09
588.34	29912.05
588.49	29752.89
588.65	29773.95
588.81	29490.75
588.97	29874.60
589.13	29717.78
589.29	29490.75
589.45	29942.47
589.61	30129.72
589.77	29991.62
589.93	30043.12
590.08	30174.19
590.24	30197.59
590.40	29907.37
590.56	30415.26
590.72	29802.04
590.88	29680.33
591.04	29656.93
591.20	30242.06
591.35	30162.48
591.51	30457.39
591.67	30195.25
591.83	29771.61
591.99	30382.49
592.15	30258.45
592.31	30010.35
592.46	30103.97
592.62	30155.46
592.78	29902.68
592.94	29858.21
593.10	30228.02
593.26	29731.83
593.41	30171.85
593.57	30206.95
593.73	30068.86
593.89	30024.39
594.05	30527.61
594.20	29876.94
594.36	29858.21
594.52	29717.78
594.68	29820.77
594.84	29862.90
594.99	30616.55
595.15	30309.94
595.31	30094.61
595.47	30265.47
595.62	30323.98
595.78	29989.28
595.94	30272.49
596.10	30167.16
596.25	30085.25
596.41	30295.89
596.57	30089.93
596.73	30188.23
596.88	30312.28
597.04	30441.01
597.20	30384.83
597.36	30525.27
597.51	30663.36
597.67	29823.11
597.83	29989.28
597.99	30511.22
598.14	30103.97
598.30	30242.06
598.46	30396.54
598.61	30000.99
598.77	30127.38
598.93	30387.18
599.09	30197.59
599.24	30686.76
599.40	30721.87
599.56	30178.87
599.71	30497.18
599.87	30543.99
600.03	30438.67
600.18	30160.14
600.34	30185.89
600.50	30197.59
600.65	30455.05
600.81	30600.16
600.97	30536.97
601.12	30630.59
601.28	30864.64
601.44	30450.37
601.59	30288.87
601.75	30249.08
601.91	30391.86
602.06	30082.91
602.22	30375.47
602.37	30246.74
602.53	30279.51
602.69	30265.47
602.84	30307.60
603.00	30471.43
603.16	30106.31
603.31	30543.99
603.47	30291.21
603.62	30038.44
603.78	30209.29
603.94	30029.07
604.09	30113.33
604.25	30017.37
604.40	30438.67
604.56	30080.56
604.71	30551.01
604.87	29860.55
605.03	30134.40
605.18	30408.24
605.34	29951.84
605.49	30256.11
605.65	30258.45
605.80	30174.19
605.96	30211.64
606.12	30059.50
606.27	30553.35
606.43	30352.07
606.58	30487.82
606.74	30195.25
606.89	30338.02
607.05	30663.36
607.20	30415.26
607.36	29956.52
607.51	30099.29
607.67	29802.04
607.82	30265.47
607.98	30213.98
608.13	30209.29
608.29	29642.88
608.44	30059.50
608.60	30225.68
608.75	30433.99
608.91	29968.22
609.06	30015.03
609.22	30256.11
609.37	29940.13
609.53	30237.38
609.68	29809.06
609.84	29933.11
609.99	30050.14
610.15	30160.14
610.30	29776.30
610.46	29972.90
610.61	30108.65
610.76	30071.20
610.92	30188.23
611.07	30160.14
611.23	29764.59
611.38	29989.28
611.54	29860.55
611.69	29916.73
611.84	29799.70
612.00	29961.20
612.15	29780.98
612.31	29837.15
612.46	29951.84
612.62	30075.88
612.77	29909.71
612.92	29586.71
613.08	29755.23
613.23	29972.90
613.39	29734.17
613.54	29680.33
613.69	29427.56
613.85	29666.29
614.00	29434.58
614.15	29282.44
614.31	30115.67
614.46	29902.68
614.62	29532.88
614.77	29633.52
614.92	29703.74
615.08	29261.38
615.23	29713.10
615.38	30134.40
615.54	29495.43
615.69	29652.25
615.84	29703.74
616.00	29378.40
616.15	29226.27
616.30	29813.74
616.46	29752.89
616.61	29820.77
616.76	29397.13
616.92	29668.63
617.07	29603.10
617.22	29338.62
617.37	29457.98
617.53	29729.48
617.68	29282.44
617.83	29139.67
617.99	29088.18
618.14	29212.23
618.29	29326.91
618.45	29654.59
618.60	29448.62
618.75	29764.59
618.90	29312.87
619.06	29425.22
619.21	29132.65
619.36	29329.25
619.51	29247.33
619.67	29137.33
619.82	28863.49
619.97	29350.32
620.12	29029.66
620.28	29057.75
620.43	29158.39
620.58	29507.13
620.73	29029.66
620.89	29266.06
621.04	29460.32
621.19	29261.38
621.34	29244.99
621.49	29436.92
621.65	28821.36
621.80	28926.68
621.95	28868.17
622.10	29205.20
622.25	28879.87
622.41	28994.56
622.56	28828.38
622.71	29205.20
622.86	28769.86
623.01	28786.25
623.16	28716.03
623.32	28430.49
623.47	28685.61
623.62	28797.95
623.77	28828.38
623.92	28685.61
624.07	28896.25
624.23	28687.95
624.38	28987.53
624.53	28737.10
624.68	28786.25
624.83	29102.22
624.98	29223.93
625.13	28435.17
625.29	28704.33
625.44	28657.52
625.59	28636.45
625.74	27990.47
625.89	28542.83
626.04	28210.48
626.19	28652.84
626.34	28613.05
626.49	28320.48
626.65	28755.82
626.80	28425.81
626.95	28685.61
627.10	28388.36
627.25	28329.84
627.40	28219.84
627.55	28587.30
627.70	28025.57
627.85	28060.68
628.00	28023.23
628.15	28563.90
628.30	28112.17
628.45	28044.30
628.60	28177.71
628.76	28037.28
628.91	28194.09
629.06	28046.64
629.21	28048.98
629.36	27915.57
629.51	27875.78
629.66	27962.38
629.81	27789.18
629.96	28025.57
630.11	28215.16
630.26	27868.76
630.41	27805.56
630.56	27967.06
630.71	28154.30
630.86	28081.75
631.01	28187.07
631.16	28025.57
631.31	28233.88
631.46	27683.86
631.61	27889.82
631.76	27894.50
631.91	27761.09
632.06	27796.20
632.21	27552.79
632.36	27536.40
632.51	27852.38
632.66	27704.92
632.81	27503.64
632.96	27775.14
633.10	27707.26
633.25	27845.35
633.40	27700.24
633.55	27604.28
633.70	27559.81
633.85	27091.70
634.00	27316.39
634.15	27555.13
634.30	27763.43
634.45	27487.25
634.60	27475.55
634.75	27470.87
634.90	27484.91
635.05	27440.44
635.19	27213.41
635.34	27669.81
635.49	27676.83
635.64	27875.78
635.79	27180.64
635.94	27087.02
636.09	27117.45
636.24	27185.32
636.39	27494.27
636.53	27428.74
636.68	27484.91
636.83	27419.38
636.98	27452.14
637.13	27218.09
637.28	27178.30
637.43	27445.12
637.57	27379.59
637.72	27190.00
637.87	27227.45
638.02	26871.69
638.17	27049.57
638.32	26948.93
638.46	26962.97
638.61	26885.73
638.76	26616.57
638.91	26946.59
639.06	27026.17
639.20	27126.81
639.35	26951.27
639.50	26682.11
639.65	27192.34
639.80	27459.16
639.94	26761.69
640.09	27124.47
640.24	26974.67
640.39	26686.79
640.54	26710.19
640.68	26749.98
640.83	26850.63
640.98	26841.26
641.13	26918.50
641.27	26639.98
641.42	26637.64
641.57	26672.74
641.72	27178.30
641.86	26593.17
642.01	26419.97
642.16	26644.66
642.31	26167.19
642.45	26672.74
642.60	26513.59
642.75	26740.62
642.90	26431.67
643.04	26319.32
643.19	26398.90
643.34	26438.69
643.48	26473.80
643.63	26443.37
643.78	26534.65
643.93	26625.93
644.07	26881.05
644.22	26745.30
644.37	26583.80
644.51	26302.94
644.66	26150.81
644.81	26382.52
644.95	26183.57
645.10	26146.12
645.25	26321.66
645.39	26218.68
645.54	26487.84
645.69	26494.86
645.83	26316.98
645.98	26438.69
646.13	26164.85
646.27	26536.99
646.42	26127.40
646.57	26281.88
646.71	26391.88
646.86	26382.52
647.00	25898.03
647.15	25916.75
647.30	25979.95
647.44	25703.76
647.59	25680.36
647.74	25834.83
647.88	26188.25
648.03	26094.63
648.17	26368.48
648.32	26394.22
648.47	26192.94
648.61	26298.26
648.76	25898.03
648.90	25933.14
649.05	25827.81
649.20	25652.27
649.34	25858.24
649.49	25603.12
649.63	26099.31
649.78	25671.00
649.92	25427.58
650.07	25556.31
650.21	25830.15
650.36	25902.71
650.51	25713.13
650.65	25729.51
650.80	25710.78
650.94	25785.68
651.09	25502.48
651.23	25832.49
651.38	25542.27
651.52	25888.67
651.67	25390.13
651.81	25914.41
651.96	25516.52
652.10	25736.53
652.25	25687.38
652.39	25795.04
652.54	25600.78
652.68	25621.84
652.83	25724.83
652.97	25937.82
653.12	25619.50
653.26	25703.76
653.41	25692.06
653.55	25469.71
653.70	25188.85
653.84	25493.12
653.99	25804.41
654.13	25589.08
654.27	25364.39
654.42	25493.12
654.56	25483.75
654.71	25348.00
654.85	25399.49
655.00	25301.19
655.14	25642.91
655.29	24947.77
655.43	25015.65
655.57	25139.69
655.72	25333.96
655.86	25144.38
656.01	25411.20
656.15	25329.28
656.30	25092.88
656.44	25123.31
656.58	24851.81
656.73	25027.35
656.87	24945.43
657.01	24900.96
657.16	25151.40
657.30	24842.45
657.45	24966.49
657.59	25247.36
657.73	24840.11
657.88	25111.61
658.02	24800.32
658.16	24886.92
658.31	24797.98
658.45	24805.00
658.60	24638.82
658.74	24882.24
658.88	24781.59
659.03	24865.85
659.17	24601.37
659.31	24580.31
659.46	24744.14
659.60	24629.46
659.74	24762.87
659.89	24322.85
660.03	24402.43
660.17	24460.94
660.32	24409.45
660.46	24135.60
660.60	24334.55
660.74	24393.06
660.89	24065.39
661.03	24027.94
661.17	24318.17
661.32	24116.88
661.46	24278.38
661.60	24222.20
661.74	24154.33
661.89	23974.11
662.03	24292.42
662.17	24161.35
662.31	24060.71
662.46	24535.84
662.60	23978.79
662.74	23875.80
662.88	23597.28
663.03	23601.96
663.17	23658.14
663.31	23557.49
663.45	23667.50
663.60	23630.05
663.74	23543.45
663.88	23637.07
664.02	23573.88
664.17	23791.55
664.31	23576.22
664.45	23616.01
664.59	23714.31
664.73	23632.39
664.88	23594.94
665.02	23075.34
665.16	23314.08
665.30	23498.98
665.44	23410.04
665.59	23342.16
665.73	23253.22
665.87	23152.58
666.01	23040.23
666.15	23206.41
666.29	23119.81
666.44	23164.28
666.58	23068.32
666.72	22909.16
666.86	23281.31
667.00	23190.03
667.14	23026.19
667.28	22841.29
667.43	22754.69
667.57	23033.21
667.71	22572.13
667.85	22525.32
667.99	22696.17
668.13	22630.64
668.27	22817.88
668.41	22724.26
668.56	22780.43
668.70	22841.29
668.84	22703.20
668.98	22569.79
669.12	22682.13
669.26	22750.01
669.40	22609.58
669.54	22452.76
669.68	22408.29
669.82	22104.02
669.96	22518.29
670.10	22216.36
670.25	22190.62
670.39	22141.47
670.53	21989.33
670.67	22108.70
670.81	22274.88
670.95	21979.97
671.09	21902.73
671.23	21944.86
671.37	22249.13
671.51	22012.74
671.65	22127.42
671.79	22040.82
671.93	22075.93
672.07	21825.50
672.21	21860.60
672.35	21528.25
672.49	21275.47
672.63	21399.52
672.77	21420.58
672.91	21682.72
673.05	21469.73
673.19	21221.64
673.33	21333.98
673.47	21521.23
673.61	21507.18
673.75	21135.04
673.89	21458.03
674.03	21233.34
674.17	21312.92
674.31	21116.31
674.45	21029.71
674.59	20961.84
674.73	21081.21
674.87	21034.39
675.01	20922.05
675.15	20896.30
675.29	20580.33
675.43	20734.81
675.56	20741.83
675.70	20840.13
675.84	20807.36
675.98	20374.36
676.12	20514.80
676.26	20762.89
676.40	20821.41
676.54	20470.33
676.68	20341.60
676.82	19639.44
676.96	20325.21
677.10	20322.87
677.23	20189.46
677.37	20060.73
677.51	19737.74
677.65	20053.71
677.79	19882.85
677.93	19740.08
678.07	19765.82
678.21	19814.98
678.34	19653.48
678.48	19641.78
678.62	19426.45
678.76	19559.86
678.90	19396.02
679.04	19482.62
679.18	19623.05
679.31	19293.04
679.45	19143.24
679.59	19321.12
679.73	18817.91
679.87	18817.91
680.00	18745.35
680.14	18759.39
680.28	19042.60
680.42	18808.54
680.56	18841.31
680.70	18775.78
680.83	19009.83
680.97	18405.97
681.11	18899.83
681.25	18614.28
681.39	18731.31
681.52	18541.72
681.66	18420.02
681.80	18373.21
681.94	18228.09
682.07	18342.78
682.21	18270.22
682.35	18052.55
682.49	17846.58
682.62	18022.12
682.76	17937.87
682.90	18075.96
683.04	17965.95
683.17	18127.45
683.31	18293.63
683.45	17888.71
683.59	17727.22
683.72	17703.81
683.86	17603.17
684.00	17544.66
684.13	17617.21
684.27	17319.96
684.41	17563.38
684.55	16985.27
684.68	17060.16
684.82	17071.87
684.96	17011.01
685.09	16950.16
685.23	16870.58
685.37	16936.12
685.50	17039.10
685.64	17111.66
685.78	16957.18
685.91	17036.76
686.05	17001.65
686.19	16491.41
686.32	16758.24
686.46	16734.83
686.60	16545.25
686.73	16563.97
686.87	16414.18
687.01	16538.23
687.14	16573.33
687.28	16145.02
687.42	16011.60
687.55	15995.22
687.69	15868.83
687.82	16393.11
687.96	15999.90
688.10	15962.45
688.23	15887.56
688.37	15887.56
688.50	15913.30
688.64	15843.09
688.78	15889.90
688.91	15398.38
689.05	15510.73
689.18	15428.81
689.32	15370.30
689.46	15225.18
689.59	15396.04
689.73	15384.34
689.86	15241.57
690.00	15410.09
690.13	15150.29
690.27	14633.03
690.41	15136.24
690.54	15056.67
690.68	15246.25
690.81	14881.13
690.95	15110.50
691.08	14728.99
691.22	14658.78
691.35	14588.56
691.49	14862.40
691.62	14516.00
691.76	14719.63
691.89	14317.06
692.03	14427.06
692.16	14094.71
692.30	14174.28
692.43	14139.18
692.57	14382.59
692.70	14022.15
692.84	14052.58
692.97	14157.90
693.11	14162.58
693.24	13968.32
693.38	13687.45
693.51	13855.97
693.65	13650.00
693.78	13647.66
693.92	13635.96
694.05	13823.20
694.19	13535.32
694.32	13645.32
694.45	13394.89
694.59	13369.14
694.72	13352.76
694.86	13348.08
694.99	13064.87
695.13	13144.45
695.26	12868.27
695.39	13083.59
695.53	12978.27
695.66	12989.97
695.80	13020.40
695.93	13170.19
696.07	13048.49
696.20	12889.33
696.33	13114.02
696.47	12786.35
696.60	12767.62
696.73	12767.62
696.87	12472.71
697.00	12564.00
697.14	12437.61
697.27	12358.03
697.40	12252.70
697.54	12397.82
697.67	12285.47
697.80	12093.55
697.94	11915.67
698.07	12020.99
698.21	11971.84
698.34	12070.14
698.47	12030.35
698.61	11892.26
698.74	12175.47
698.87	11868.86
699.01	11744.81
699.14	11763.53
699.27	11857.15
699.40	12067.80
699.54	11494.37
699.67	11634.80
699.80	11604.38
699.94	11372.66
700.07	11288.40
700.20	11178.40
700.34	11108.18
700.47	11164.36
700.60	11157.33
700.73	11295.43
700.87	10963.07
701.00	11176.06
701.13	11005.20
701.26	11028.60
701.40	11248.61
701.53	10897.53
701.66	10960.73
701.79	10855.40
701.93	10839.02
702.06	10796.89
702.19	10642.42
702.32	10689.23
702.46	10361.55
702.59	10523.05
702.72	10321.76
702.85	10312.40
702.99	10286.65
703.12	10228.14
703.25	10370.91
703.38	10293.68
703.51	10438.79
703.65	10181.33
703.78	10347.51
703.91	10015.15
704.04	10150.90
704.17	10078.35
704.31	10015.15
704.44	9820.89
704.57	9984.73
704.70	9624.28
704.83	9495.55
704.96	9820.89
705.10	9600.88
705.23	9516.62
>>>>>End Processed Spectral Data<<<<<
