SpectraSuite Data File
++++++++++++++++++++++++++++++++++++
Date: Fri Oct 18 13:58:15 GMT-05:00 2013
User: bianchi
Dark Spectrum Present: No
Reference Spectrum Present: No
Number of Sampled Component Spectra: 1
Spectrometers: USB2+H05261
Integration Time (usec): 50000 (USB2+H05261)
Spectra Averaged: 1 (USB2+H05261)
Boxcar Smoothing: 0 (USB2+H05261)
Correct for Electrical Dark: No (USB2+H05261)
Strobe/Lamp Enabled: No (USB2+H05261)
Correct for Detector Non-linearity: No (USB2+H05261)
Correct for Stray Light: No (USB2+H05261)
Number of Pixels in Processed Spectrum: 2048
>>>>>Begin Processed Spectral Data<<<<<
365.73	0.00
365.92	0.00
366.12	0.00
366.32	0.00
366.52	0.00
366.72	0.00
366.91	0.00
367.11	0.00
367.31	0.00
367.51	0.00
367.70	0.00
367.90	0.00
368.10	0.00
368.30	0.00
368.49	0.00
368.69	0.00
368.89	0.00
369.09	0.00
369.28	0.00
369.48	0.00
369.68	0.00
369.87	0.00
370.07	0.00
370.27	0.00
370.47	0.00
370.66	70.22
370.86	67.88
371.06	135.75
371.25	100.64
371.45	67.88
371.65	124.05
371.84	138.09
372.04	112.35
372.24	175.54
372.44	196.60
372.63	161.50
372.83	191.92
373.03	208.31
373.22	217.67
373.42	184.90
373.62	215.33
373.81	241.08
374.01	227.03
374.21	252.78
374.40	168.52
374.60	285.55
374.79	283.20
374.99	210.65
375.19	212.99
375.38	234.05
375.58	285.55
375.78	245.76
375.97	161.50
376.17	301.93
376.37	210.65
376.56	250.44
376.76	297.25
376.95	257.46
377.15	245.76
377.35	243.42
377.54	320.65
377.74	264.48
377.93	297.25
378.13	299.59
378.33	332.36
378.52	301.93
378.72	330.02
378.91	297.25
379.11	346.40
379.31	278.52
379.50	264.48
379.70	313.63
379.89	294.91
380.09	285.55
380.28	369.80
380.48	327.68
380.68	287.89
380.87	304.27
381.07	320.65
381.26	327.68
381.46	297.25
381.65	304.27
381.85	348.74
382.04	318.31
382.24	280.86
382.43	311.29
382.63	332.36
382.83	388.53
383.02	367.46
383.22	402.57
383.41	285.55
383.61	369.80
383.80	369.80
384.00	390.87
384.19	348.74
384.39	362.78
384.58	423.64
384.78	402.57
384.97	365.12
385.17	411.93
385.36	337.04
385.56	374.49
385.75	360.44
385.95	372.15
386.14	437.68
386.34	341.72
386.53	428.32
386.72	383.85
386.92	407.25
387.11	484.49
387.31	519.60
387.50	416.62
387.70	472.79
387.89	458.74
388.09	360.44
388.28	435.34
388.48	416.62
388.67	479.81
388.86	456.40
389.06	435.34
389.25	421.30
389.45	461.09
389.64	475.13
389.84	545.34
390.03	454.06
390.22	535.98
390.42	486.83
390.61	514.92
390.81	500.87
391.00	493.85
391.19	543.00
391.39	545.34
391.58	519.60
391.78	433.00
391.97	533.64
392.16	519.60
392.36	561.73
392.55	585.13
392.75	554.71
392.94	514.92
393.13	528.96
393.33	543.00
393.52	566.41
393.71	657.69
393.91	594.50
394.10	610.88
394.29	655.35
394.49	578.11
394.68	519.60
394.88	653.01
395.07	587.47
395.26	662.37
395.46	622.58
395.65	615.56
395.84	500.87
396.04	660.03
396.23	690.46
396.42	608.54
396.62	638.97
396.81	688.12
397.00	664.71
397.19	699.82
397.39	681.10
397.58	704.50
397.77	678.76
397.97	690.46
398.16	695.14
398.35	713.86
398.55	709.18
398.74	739.61
398.93	732.59
399.12	685.78
399.32	737.27
399.51	613.22
399.70	755.99
399.90	725.57
400.09	748.97
400.28	826.21
400.47	709.18
400.67	725.57
400.86	709.18
401.05	739.61
401.24	858.98
401.44	800.46
401.63	763.01
401.82	795.78
402.01	788.76
402.21	840.25
402.40	891.74
402.59	912.81
402.78	889.40
402.97	835.57
403.17	875.36
403.36	807.48
403.55	823.87
403.74	966.64
403.93	891.74
404.13	950.26
404.32	926.85
404.51	847.27
404.70	980.68
404.89	894.08
405.09	992.39
405.28	936.21
405.47	959.62
405.66	997.07
405.85	1011.11
406.05	887.06
406.24	1015.79
406.43	1039.20
406.62	1114.10
406.81	1102.39
407.00	1015.79
407.20	1013.45
407.39	1013.45
407.58	1060.26
407.77	1025.15
407.96	1090.69
408.15	1153.88
408.34	1020.47
408.54	1116.44
408.73	1139.84
408.92	1158.57
409.11	1142.18
409.30	1238.14
409.49	1090.69
409.68	1137.50
409.87	1130.48
410.07	1198.35
410.26	1231.12
410.45	1153.88
410.64	1156.22
410.83	1081.33
411.02	1315.38
411.21	1210.06
411.40	1306.02
411.59	1308.36
411.78	1235.80
411.98	1165.59
412.17	1221.76
412.36	1364.53
412.55	1371.55
412.74	1296.66
412.93	1411.34
413.12	1357.51
413.31	1460.49
413.50	1441.77
413.69	1380.92
413.88	1448.79
414.07	1418.36
414.26	1486.24
414.45	1378.58
414.64	1387.94
414.83	1504.96
415.02	1586.88
415.22	1528.37
415.41	1535.39
415.60	1589.22
415.79	1596.25
415.98	1629.01
416.17	1565.82
416.36	1629.01
416.55	1643.06
416.74	1617.31
416.93	1626.67
417.12	1708.59
417.31	1563.48
417.50	1668.80
417.69	1734.34
417.88	1673.48
418.07	1680.50
418.26	1568.16
418.45	1748.38
418.64	1834.98
418.83	1858.39
419.02	1710.93
419.21	1827.96
419.39	1827.96
419.58	1818.60
419.77	1706.25
419.96	1760.08
420.15	1895.83
420.34	1898.17
420.53	1940.30
420.72	1994.14
420.91	1963.71
421.10	1954.35
421.29	2057.33
421.48	1907.54
421.67	1928.60
421.86	2045.63
422.05	1949.67
422.24	1905.20
422.43	1933.28
422.61	1961.37
422.80	1977.75
422.99	1982.43
423.18	2029.24
423.37	2050.31
423.56	2019.88
423.75	1937.96
423.94	2003.50
424.13	1860.73
424.32	1867.75
424.50	2043.29
424.69	2057.33
424.88	2078.40
425.07	1959.03
425.26	1996.48
425.45	2040.95
425.64	1991.80
425.83	2054.99
426.01	2087.76
426.20	1991.80
426.39	2120.53
426.58	2026.90
426.77	2078.40
426.96	2080.74
427.15	2218.83
427.33	2150.95
427.52	2167.34
427.71	2134.57
427.90	2150.95
428.09	2167.34
428.28	2179.04
428.46	2242.23
428.65	2193.08
428.84	2307.77
429.03	2225.85
429.22	2179.04
429.40	2176.70
429.59	2209.47
429.78	2284.36
429.97	2080.74
430.16	2256.28
430.34	2307.77
430.53	2256.28
430.72	2293.72
430.91	2293.72
431.10	2228.19
431.28	2370.96
431.47	2349.90
431.66	2331.17
431.85	2375.64
432.03	2403.73
432.22	2476.29
432.41	2429.48
432.60	2450.54
432.79	2422.45
432.97	2516.08
433.16	2413.09
433.35	2373.30
433.54	2541.82
433.72	2520.76
433.91	2448.20
434.10	2415.43
434.28	2541.82
434.47	2478.63
434.66	2553.52
434.85	2527.78
435.03	2677.57
435.22	2668.21
435.41	2689.28
435.59	2499.69
435.78	2588.63
435.97	2569.91
436.16	2541.82
436.34	2560.55
436.53	2745.45
436.72	2782.90
436.90	2607.36
437.09	2803.96
437.28	2665.87
437.46	2764.17
437.65	2715.02
437.84	2801.62
438.02	2719.70
438.21	2691.62
438.40	2768.85
438.58	2897.58
438.77	2906.95
438.96	2834.39
439.14	2855.45
439.33	2958.44
439.52	3007.59
439.70	3033.33
439.89	2965.46
440.08	2984.18
440.26	3192.49
440.45	3068.44
440.63	2977.16
440.82	3152.70
441.01	3157.38
441.19	3164.40
441.38	3173.77
441.57	3152.70
441.75	3197.17
441.94	3283.77
442.12	3215.90
442.31	3307.18
442.50	3258.03
442.68	3421.86
442.87	3372.71
443.05	3311.86
443.24	3274.41
443.43	3466.33
443.61	3311.86
443.80	3424.20
443.98	3279.09
444.17	3227.60
444.35	3269.73
444.54	3377.39
444.73	3421.86
444.91	3492.08
445.10	3431.23
445.28	3363.35
445.47	3480.38
445.65	3377.39
445.84	3478.04
446.02	3442.93
446.21	3433.57
446.39	3410.16
446.58	3342.28
446.77	3461.65
446.95	3267.39
447.14	3499.10
447.32	3550.59
447.51	3557.61
447.69	3492.08
447.88	3506.12
448.06	3501.44
448.25	3475.70
448.43	3667.62
448.62	3503.78
448.80	3538.89
448.99	3513.14
449.17	3609.11
449.36	3585.70
449.54	3662.94
449.73	3588.04
449.91	3613.79
450.10	3672.30
450.28	3765.92
450.46	3761.24
450.65	3775.28
450.83	3791.67
451.02	3794.01
451.20	3845.50
451.39	3751.88
451.57	3782.31
451.76	3763.58
451.94	3749.54
452.13	3761.24
452.31	3894.65
452.49	3808.05
452.68	3768.26
452.86	3875.93
453.05	3911.04
453.23	3955.51
453.42	3889.97
453.60	3880.61
453.78	3950.82
453.97	3810.39
454.15	3941.46
454.34	3864.22
454.52	3840.82
454.70	3906.35
454.89	4053.81
455.07	3948.48
455.26	4065.51
455.44	4102.96
455.62	4147.43
455.81	4018.70
455.99	4147.43
456.17	4105.30
456.36	4079.55
456.54	4166.15
456.73	4252.75
456.91	4395.53
457.09	4285.52
457.28	4341.69
457.46	4273.82
457.64	4297.22
457.83	4332.33
458.01	4325.31
458.19	4472.76
458.38	4315.95
458.56	4507.87
458.74	4418.93
458.93	4449.36
459.11	4346.37
459.29	4397.87
459.48	4397.87
459.66	4533.62
459.84	4447.02
460.03	4542.98
460.21	4486.81
460.39	4578.09
460.57	4568.73
460.76	4535.96
460.94	4723.20
461.12	4667.03
461.31	4573.41
461.49	4629.58
461.67	4634.26
461.85	4795.76
462.04	4711.50
462.22	4945.55
462.40	4800.44
462.59	4788.74
462.77	4725.54
462.95	4610.86
463.13	4737.24
463.32	4875.34
463.50	4826.18
463.68	4767.67
463.86	4784.06
464.05	4683.41
464.23	4891.72
464.41	4985.34
464.59	4744.27
464.78	4990.02
464.96	4919.81
465.14	4795.76
465.32	5036.83
465.50	4990.02
465.69	5083.64
465.87	4954.91
466.05	5034.49
466.23	4973.64
466.41	5053.22
466.60	5083.64
466.78	5071.94
466.96	5001.72
467.14	4952.57
467.32	5210.03
467.51	5144.50
467.69	5053.22
467.87	5076.62
468.05	5093.01
468.23	5139.82
468.41	5015.77
468.60	5289.61
468.78	5273.23
468.96	5247.48
469.14	5394.93
469.32	5313.02
469.50	5191.31
469.69	5352.81
469.87	5322.38
470.05	5390.25
470.23	5432.38
470.41	5359.83
470.59	5364.51
470.77	5322.38
470.95	5521.32
471.14	5607.92
471.32	5547.07
471.50	5605.58
471.68	5666.44
471.86	5556.43
472.04	5741.33
472.22	5687.50
472.40	5668.78
472.58	5645.37
472.77	5727.29
472.95	5671.12
473.13	6026.88
473.31	5760.06
473.49	5900.49
473.67	5827.93
473.85	6003.47
474.03	5996.45
474.21	5956.66
474.39	6003.47
474.57	6179.01
474.75	6099.44
474.93	6169.65
475.12	6319.45
475.30	6223.48
475.48	6228.17
475.66	6228.17
475.84	6305.40
476.02	6366.26
476.20	6366.26
476.38	6490.31
476.56	6462.22
476.74	6691.59
476.92	6487.96
477.10	6483.28
477.28	6546.48
477.46	6616.69
477.64	6731.38
477.82	6801.60
478.00	6871.81
478.18	6888.20
478.36	6965.43
478.54	7211.19
478.72	7187.79
478.90	7197.15
479.08	7265.02
479.26	7265.02
479.44	7382.05
479.62	7325.88
479.80	7517.80
479.98	7375.03
480.16	7482.69
480.34	7625.47
480.52	7520.14
480.70	7634.83
480.88	7616.10
481.06	7751.85
481.24	7712.07
481.41	7915.69
481.59	7988.25
481.77	7953.14
481.95	7983.57
482.13	8002.29
482.31	8009.31
482.49	8306.56
482.67	8121.66
482.85	8264.43
483.03	8528.91
483.21	8507.85
483.39	8521.89
483.57	8629.56
483.74	8636.58
483.92	8713.81
484.10	8571.04
484.28	8952.55
484.46	8908.08
484.64	9097.66
484.82	8854.25
485.00	9188.94
485.18	9266.18
485.35	9359.80
485.53	9488.53
485.71	9624.28
485.89	9448.74
486.07	9427.68
486.25	9647.69
486.43	9717.90
486.61	9874.72
486.78	9996.43
486.96	10080.69
487.14	10113.45
487.32	10223.46
487.50	10071.33
487.68	10274.95
487.85	10324.10
488.03	10415.38
488.21	10544.11
488.39	10333.47
488.57	10583.90
488.75	10766.46
488.92	10878.81
489.10	10967.75
489.28	10808.59
489.46	11119.89
489.64	10904.56
489.81	11220.53
489.99	11176.06
490.17	11370.32
490.35	11225.21
490.53	11543.52
490.70	11592.67
490.88	11503.73
491.06	11786.94
491.24	11543.52
491.41	11700.34
491.59	12035.03
491.77	11693.32
491.95	12222.28
492.13	12025.67
492.30	12332.28
492.48	12219.94
492.66	12320.58
492.84	12489.10
493.01	12533.57
493.19	12650.60
493.37	12615.49
493.54	12788.69
493.72	12840.18
493.90	12798.05
494.08	12987.63
494.25	12954.87
494.43	13078.91
494.61	13078.91
494.79	13231.05
494.96	13406.59
495.14	13338.71
495.32	13383.18
495.49	13532.98
495.67	13825.54
495.85	13694.47
496.02	13717.88
496.20	13970.66
496.38	13956.61
496.55	13743.63
496.73	14211.73
496.91	14223.44
497.09	14382.59
497.26	14204.71
497.44	14541.75
497.62	14340.46
497.79	14567.49
497.97	14583.88
498.14	14618.99
498.32	14738.35
498.50	14857.72
498.67	15171.35
498.85	14878.79
499.03	15234.55
499.20	15178.37
499.38	15161.99
499.56	15154.97
499.73	15290.72
499.91	15442.85
500.08	15323.49
500.26	15206.46
500.44	15482.64
500.61	15466.26
500.79	15618.39
500.97	15793.94
501.14	15480.30
501.32	15793.94
501.49	15777.55
501.67	15836.06
501.84	16044.37
502.02	15758.83
502.20	16208.21
502.37	16205.87
502.55	16346.30
502.72	16196.51
502.90	16226.93
503.07	15934.37
503.25	16416.52
503.43	16177.78
503.60	16313.53
503.78	16587.38
503.95	16561.63
504.13	16435.24
504.30	16617.80
504.48	16814.41
504.65	17008.67
504.83	16805.05
505.01	17181.87
505.18	16751.21
505.36	17034.42
505.53	16968.88
505.71	16851.86
505.88	16835.47
506.06	17139.74
506.23	17399.54
506.41	17357.41
506.58	17385.50
506.76	17472.10
506.93	17516.57
507.11	17273.15
507.28	17537.63
507.46	17628.92
507.63	17657.00
507.81	17804.46
507.98	17820.84
508.16	17853.61
508.33	17881.69
508.50	17734.24
508.68	18251.50
508.85	18094.68
509.03	18218.73
509.20	18104.04
509.38	18457.46
509.55	18731.31
509.73	18335.76
509.90	18382.57
510.08	18434.06
510.25	18075.96
510.42	18602.58
510.60	18595.56
510.77	18644.71
510.95	18520.66
511.12	18562.79
511.30	18745.35
511.47	18801.52
511.64	18878.76
511.82	19138.56
511.99	19178.35
512.17	18874.08
512.34	19232.18
512.51	19208.78
512.69	19026.21
512.86	19417.08
513.04	19431.13
513.21	19435.81
513.38	19365.59
513.56	19424.11
513.73	19271.97
513.90	19812.63
514.08	19250.91
514.25	19555.18
514.43	19669.86
514.60	19452.19
514.77	20018.60
514.95	19917.96
515.12	19578.58
515.29	19859.45
515.47	19962.43
515.64	20346.28
515.81	19866.47
515.99	20147.33
516.16	20233.93
516.33	20435.22
516.51	20287.76
516.68	20194.14
516.85	20514.80
517.03	20088.82
517.20	20322.87
517.37	20620.12
517.54	20528.84
517.72	20908.01
517.89	20552.24
518.06	20570.97
518.24	20741.83
518.41	20453.94
518.58	20910.35
518.75	20545.22
518.93	20947.79
519.10	20746.51
519.27	20919.71
519.45	21013.33
519.62	20959.50
519.79	20844.81
519.96	20908.01
520.14	21235.68
520.31	21191.21
520.48	21715.49
520.65	21443.99
520.83	21125.68
521.00	21158.44
521.17	21369.09
521.34	21415.90
521.52	21678.04
521.69	21673.36
521.86	21867.63
522.03	21785.71
522.20	22057.21
522.38	21942.52
522.55	21640.59
522.72	21781.03
522.89	21647.61
523.07	21830.18
523.24	22270.20
523.41	22097.00
523.58	21996.35
523.75	22174.24
523.92	22101.68
524.10	21970.61
524.27	22324.03
524.44	22693.83
524.61	22478.50
524.78	22558.08
524.96	22162.53
525.13	22483.19
525.30	22604.89
525.47	22492.55
525.64	22675.11
525.81	22750.01
525.98	22644.68
526.16	22696.17
526.33	22588.51
526.50	22974.70
526.67	23173.64
526.84	23028.53
527.01	22815.54
527.18	22923.21
527.36	23056.62
527.53	23229.82
527.70	23335.14
527.87	23180.67
528.04	23161.94
528.21	23470.89
528.38	23344.50
528.55	23314.08
528.72	23173.64
528.89	23660.48
529.07	22963.00
529.24	23295.35
529.41	23573.88
529.58	23023.85
529.75	23276.63
529.92	23751.76
530.09	23419.40
530.26	23690.90
530.43	23709.63
530.60	23630.05
530.77	24020.92
530.94	23737.71
531.11	23513.02
531.28	23594.94
531.46	23840.70
531.63	24315.83
531.80	23997.51
531.97	24025.60
532.14	23964.75
532.31	24123.90
532.48	23623.03
532.65	24098.16
532.82	24046.66
532.99	24184.76
533.16	24339.23
533.33	24304.12
533.50	24814.36
533.67	24290.08
533.84	24601.37
534.01	24369.66
534.18	24449.24
534.35	24704.35
534.52	24388.38
534.69	24617.75
534.86	24629.46
535.03	24762.87
535.20	24287.74
535.37	24397.74
535.54	24568.60
535.71	24652.86
535.88	24915.00
536.05	24907.98
536.22	24896.28
536.38	24809.68
536.55	25109.27
536.72	24793.29
536.89	25521.20
537.06	24786.27
537.23	24940.75
537.40	24961.81
537.57	24905.64
537.74	25256.72
537.91	25537.59
538.08	25523.54
538.25	25020.33
538.42	25266.08
538.59	25549.29
538.75	24985.22
538.92	25226.29
539.09	25434.60
539.26	25600.78
539.43	25610.14
539.60	25888.67
539.77	25598.44
539.94	25514.18
540.11	25745.89
540.28	25434.60
540.44	25640.57
540.61	25752.91
540.78	25738.87
540.95	25530.56
541.12	25673.34
541.29	25378.43
541.46	25729.51
541.62	25757.60
541.79	25902.71
541.96	25638.23
542.13	25745.89
542.30	26085.27
542.47	26157.83
542.63	26529.97
542.80	26270.17
542.97	26096.97
543.14	26558.06
543.31	26157.83
543.48	26064.21
543.64	26618.91
543.81	26586.15
543.98	26398.90
544.15	26567.42
544.32	26787.43
544.48	26654.02
544.65	26321.66
544.82	26305.28
544.99	26111.02
545.16	26438.69
545.32	26506.57
545.49	26705.51
545.66	26810.84
545.83	26712.53
546.00	27049.57
546.16	26663.38
546.33	26663.38
546.50	26845.94
546.67	26897.44
546.83	26609.55
547.00	27110.43
547.17	26855.31
547.34	26754.66
547.50	27283.62
547.67	27534.06
547.84	27094.04
548.00	26852.97
548.17	27264.90
548.34	27026.17
548.51	27133.83
548.67	27491.93
548.84	26965.31
549.01	27161.92
549.18	26874.03
549.34	26829.56
549.51	27138.51
549.68	27063.61
549.84	26986.38
550.01	27335.12
550.18	27428.74
550.34	27318.73
550.51	27239.15
550.68	27674.49
550.84	27213.41
551.01	27524.70
551.18	27475.55
551.34	27440.44
551.51	27213.41
551.68	27725.99
551.84	27789.18
552.01	27683.86
552.18	27784.50
552.34	27917.91
552.51	27791.52
552.68	27857.06
552.84	27508.32
553.01	27761.09
553.18	27695.56
553.34	27817.27
553.51	27880.46
553.67	27772.80
553.84	28044.30
554.01	27936.63
554.17	28002.17
554.34	28189.41
554.51	27814.93
554.67	28056.00
554.84	28187.07
555.00	27995.15
555.17	27962.38
555.33	28051.32
555.50	28222.18
555.67	28313.46
555.83	28048.98
556.00	28142.60
556.16	28500.70
556.33	28268.99
556.50	28009.19
556.66	28435.17
556.83	27985.79
556.99	28463.25
557.16	28758.16
557.32	28510.07
557.49	28823.70
557.65	28376.66
557.82	28634.11
557.98	28416.44
558.15	28383.68
558.32	28264.31
558.48	28718.37
558.65	29081.16
558.81	28439.85
558.98	28496.02
559.14	28580.28
559.31	28673.90
559.47	28570.92
559.64	28573.26
559.80	28657.52
559.97	28999.24
560.13	28914.98
560.30	28889.23
560.46	29032.00
560.63	28692.63
560.79	29064.77
560.96	28737.10
561.12	28540.49
561.29	28823.70
561.45	28683.27
561.61	29034.35
561.78	28826.04
561.94	28893.91
562.11	28917.32
562.27	28987.53
562.44	28931.36
562.60	28690.29
562.77	29008.60
562.93	29233.29
563.10	28929.02
563.26	28982.85
563.42	29380.74
563.59	29230.95
563.75	28727.74
563.92	28938.38
564.08	28891.57
564.24	28804.97
564.41	28884.55
564.57	28931.36
564.74	28751.14
564.90	29429.90
565.07	28950.09
565.23	29366.70
565.39	29418.19
565.56	29198.18
565.72	28870.51
565.88	29010.94
566.05	29046.05
566.21	29226.27
566.38	29254.36
566.54	29083.50
566.70	29228.61
566.87	29539.90
567.03	29151.37
567.19	29661.61
567.36	29081.16
567.52	29441.60
567.68	29577.35
567.85	29270.74
568.01	29551.60
568.17	29355.00
568.34	29652.25
568.50	29575.01
568.66	29619.48
568.83	29766.93
568.99	29668.63
569.15	29385.43
569.32	28957.11
569.48	29383.09
569.64	29230.95
569.81	29301.17
569.97	29694.38
570.13	29521.18
570.30	29308.19
570.46	29596.07
570.62	29560.97
570.78	29137.33
570.95	29113.92
571.11	29324.57
571.27	29415.85
571.43	29483.73
571.60	29507.13
571.76	29170.10
571.92	29385.43
572.09	29560.97
572.25	29380.74
572.41	29696.72
572.57	29874.60
572.74	29895.66
572.90	29504.79
573.06	29734.17
573.22	29355.00
573.38	29312.87
573.55	29607.78
573.71	29745.87
573.87	29703.74
574.03	29816.08
574.20	29125.63
574.36	29263.72
574.52	29165.42
574.68	29355.00
574.84	29652.25
575.01	29654.59
575.17	29656.93
575.33	29841.83
575.49	29516.50
575.65	29858.21
575.82	29626.50
575.98	29167.76
576.14	30038.44
576.30	29958.86
576.46	29696.72
576.62	29591.39
576.79	30043.12
576.95	29443.94
577.11	29675.65
577.27	29806.72
577.43	29710.76
577.59	29647.57
577.75	29614.80
577.92	29380.74
578.08	29727.14
578.24	29514.16
578.40	29813.74
578.56	29773.95
578.72	29586.71
578.88	29694.38
579.04	29972.90
579.21	29916.73
579.37	29970.56
579.53	30017.37
579.69	29453.30
579.85	29769.27
580.01	29476.71
580.17	29542.24
580.33	29682.67
580.49	29734.17
580.65	29902.68
580.82	29717.78
580.98	30256.11
581.14	30015.03
581.30	29865.24
581.46	30050.14
581.62	30029.07
581.78	29965.88
581.94	29876.94
582.10	29546.92
582.26	29956.52
582.42	29598.41
582.58	29755.23
582.74	29832.47
582.90	30157.80
583.06	30092.27
583.22	29991.62
583.38	29806.72
583.54	29521.18
583.70	30092.27
583.86	30176.53
584.02	29694.38
584.18	30075.88
584.34	30092.27
584.50	30143.76
584.66	29813.74
584.82	29701.40
584.98	29982.26
585.14	29921.41
585.30	29427.56
585.46	29764.59
585.62	29958.86
585.78	30089.93
585.94	29874.60
586.10	30426.96
586.26	30359.09
586.42	29993.97
586.58	30174.19
586.74	29780.98
586.90	29851.19
587.06	29937.79
587.22	29923.75
587.38	29589.05
587.54	30024.39
587.70	30281.85
587.86	30036.09
588.02	29972.90
588.18	30192.91
588.34	30242.06
588.49	30232.70
588.65	29727.14
588.81	30026.73
588.97	30036.09
589.13	29825.45
589.29	30036.09
589.45	30143.76
589.61	30305.26
589.77	30356.75
589.93	30422.28
590.08	30239.72
590.24	30190.57
590.40	29872.26
590.56	30335.68
590.72	29865.24
590.88	29991.62
591.04	29750.55
591.20	30237.38
591.35	30366.11
591.51	30560.37
591.67	30508.88
591.83	30656.34
591.99	30492.50
592.15	30169.51
592.31	30471.43
592.46	30174.19
592.62	30038.44
592.78	30150.78
592.94	30209.29
593.10	30113.33
593.26	30604.84
593.41	30300.58
593.57	30478.46
593.73	30494.84
593.89	30567.40
594.05	30735.92
594.20	30221.00
594.36	30228.02
594.52	30153.12
594.68	30412.92
594.84	30160.14
594.99	30253.76
595.15	30433.99
595.31	30672.72
595.47	30654.00
595.62	30607.19
595.78	30742.94
595.94	30452.71
596.10	30373.13
596.25	30394.20
596.41	30457.39
596.57	30216.32
596.73	30333.34
596.88	30326.32
597.04	30258.45
597.20	30955.93
597.36	30462.07
597.51	30799.11
597.67	30642.29
597.83	30167.16
597.99	30529.95
598.14	30242.06
598.30	30221.00
598.46	30609.53
598.61	30426.96
598.77	30190.57
598.93	30543.99
599.09	30340.36
599.24	30635.27
599.40	30820.17
599.56	30499.52
599.71	30356.75
599.87	30700.81
600.03	30356.75
600.18	30398.88
600.34	30567.40
600.50	30373.13
600.65	30270.15
600.81	30717.19
600.97	30506.54
601.12	30925.50
601.28	30501.86
601.44	30752.30
601.59	30553.35
601.75	30597.82
601.91	30441.01
602.06	30431.65
602.22	30661.02
602.37	30087.59
602.53	30607.19
602.69	30487.82
602.84	30700.81
603.00	30508.88
603.16	30740.60
603.31	30892.73
603.47	30433.99
603.62	30431.65
603.78	30478.46
603.94	30471.43
604.09	30670.38
604.25	30108.65
604.40	30642.29
604.56	30293.55
604.71	30380.15
604.87	30433.99
605.03	30836.56
605.18	30539.31
605.34	30462.07
605.49	30221.00
605.65	30450.37
605.80	30361.43
605.96	30441.01
606.12	30190.57
606.27	30621.23
606.43	30773.36
606.58	30733.57
606.74	30487.82
606.89	30347.39
607.05	30899.75
607.20	30441.01
607.36	30462.07
607.51	30405.90
607.67	30368.45
607.82	30494.84
607.98	30384.83
608.13	30256.11
608.29	30288.87
608.44	30068.86
608.60	30433.99
608.75	30579.10
608.91	30335.68
609.06	30125.04
609.22	30312.28
609.37	29699.06
609.53	29890.98
609.68	30075.88
609.84	30272.49
609.99	30059.50
610.15	30331.00
610.30	30146.10
610.46	30433.99
610.61	30714.85
610.76	30162.48
610.92	30040.78
611.07	30551.01
611.23	30033.75
611.38	29998.65
611.54	30040.78
611.69	30129.72
611.84	29979.92
612.00	29895.66
612.15	30157.80
612.31	29898.00
612.46	30031.41
612.62	30045.46
612.77	30106.31
612.92	30333.34
613.08	30225.68
613.23	29764.59
613.39	29907.37
613.54	29802.04
613.69	29989.28
613.85	29575.01
614.00	30031.41
614.15	30174.19
614.31	29961.20
614.46	29935.45
614.62	30300.58
614.77	29745.87
614.92	29788.00
615.08	30029.07
615.23	30103.97
615.38	29736.51
615.54	29823.11
615.69	29511.81
615.84	29603.10
616.00	29823.11
616.15	29450.96
616.30	29862.90
616.46	29759.91
616.61	29902.68
616.76	29769.27
616.92	29802.04
617.07	29785.66
617.22	29575.01
617.37	29350.32
617.53	29867.58
617.68	29926.09
617.83	29254.36
617.99	29261.38
618.14	29411.17
618.29	29553.94
618.45	29420.53
618.60	29624.16
618.75	29584.37
618.90	29694.38
619.06	29666.29
619.21	29237.97
619.36	29710.76
619.51	29617.14
619.67	29067.11
619.82	28931.36
619.97	29336.27
620.12	29270.74
620.28	28989.88
620.43	28987.53
620.58	29446.28
620.73	29436.92
620.89	29399.47
621.04	29605.44
621.19	29404.15
621.34	29607.78
621.49	28858.81
621.65	29432.24
621.80	28840.08
621.95	29001.58
622.10	29247.33
622.25	29039.03
622.41	29039.03
622.56	29450.96
622.71	29413.51
622.86	29469.69
623.01	29233.29
623.16	28975.83
623.32	28919.66
623.47	28842.42
623.62	28842.42
623.77	29165.42
623.92	29078.82
624.07	28872.85
624.23	29048.39
624.38	28973.49
624.53	28706.67
624.68	29340.96
624.83	28842.42
624.98	29195.84
625.13	28727.74
625.29	28978.17
625.44	29092.86
625.59	28652.84
625.74	28589.64
625.89	28591.98
626.04	28596.67
626.19	28540.49
626.34	28610.71
626.49	28559.22
626.65	28519.43
626.80	28552.20
626.95	28442.19
627.10	28664.54
627.25	28472.62
627.40	28676.24
627.55	28486.66
627.70	28189.41
627.85	28439.85
628.00	28161.33
628.15	27997.49
628.30	28519.43
628.45	28484.32
628.60	28133.24
628.76	28774.55
628.91	28013.87
629.06	28238.56
629.21	28547.51
629.36	28292.40
629.51	28479.64
629.66	28126.22
629.81	28161.33
629.96	28053.66
630.11	28224.52
630.26	28112.17
630.41	28421.13
630.56	27915.57
630.71	28418.78
630.86	28126.22
631.01	28051.32
631.16	28168.35
631.31	28158.99
631.46	28154.30
631.61	28187.07
631.76	28002.17
631.91	27917.91
632.06	28130.90
632.21	28025.57
632.36	27835.99
632.51	27318.73
632.66	27969.40
632.81	28046.64
632.96	28264.31
633.10	28163.67
633.25	28030.26
633.40	28044.30
633.55	27814.93
633.70	27852.38
633.85	27700.24
634.00	27749.39
634.15	27744.71
634.30	27402.99
634.45	27480.23
634.60	27714.28
634.75	28009.19
634.90	27817.27
635.05	27859.40
635.19	27197.02
635.34	27646.41
635.49	27571.51
635.64	27583.21
635.79	27646.41
635.94	27669.81
636.09	27733.01
636.24	27662.79
636.39	27578.53
636.53	27527.04
636.68	27487.25
636.83	27711.94
636.98	27873.44
637.13	27531.72
637.28	27520.02
637.43	27950.68
637.57	27531.72
637.72	27257.88
637.87	27187.66
638.02	27278.94
638.17	27365.54
638.32	27377.25
638.46	27112.77
638.61	27199.37
638.76	27115.11
638.91	27068.30
639.06	27000.42
639.20	27274.26
639.35	27241.50
639.50	26991.06
639.65	27328.10
639.80	27241.50
639.94	27498.95
640.09	27164.26
640.24	27152.55
640.39	27072.98
640.54	26960.63
640.68	27138.51
640.83	26944.25
640.98	26747.64
641.13	26918.50
641.27	26806.16
641.42	26920.84
641.57	26927.86
641.72	27283.62
641.86	26782.75
642.01	26773.39
642.16	26665.72
642.31	26333.37
642.45	27072.98
642.60	26768.71
642.75	26429.33
642.90	26469.12
643.04	26434.01
643.19	26508.91
643.34	26845.94
643.48	26298.26
643.63	26579.12
643.78	26581.46
643.93	26897.44
644.07	26904.46
644.22	26719.56
644.37	26487.84
644.51	26476.14
644.66	26398.90
644.81	26277.19
644.95	26419.97
645.10	26410.60
645.25	26513.59
645.39	26368.48
645.54	26333.37
645.69	26415.29
645.83	26419.97
645.98	26525.29
646.13	26618.91
646.27	26235.06
646.42	26328.69
646.57	26459.76
646.71	26431.67
646.86	26511.25
647.00	26457.42
647.15	26450.39
647.30	26096.97
647.44	26204.64
647.59	25933.14
647.74	26345.07
647.88	26136.76
648.03	26265.49
648.17	26532.31
648.32	26506.57
648.47	26656.36
648.61	26122.72
648.76	26181.23
648.90	26419.97
649.05	26302.94
649.20	26218.68
649.34	25729.51
649.49	25949.52
649.63	25788.02
649.78	26003.35
649.92	25914.41
650.07	26431.67
650.21	25795.04
650.36	25923.77
650.51	25853.56
650.65	26071.23
650.80	25750.57
650.94	26029.10
651.09	26089.95
651.23	25458.01
651.38	26008.03
651.52	25495.46
651.67	25811.43
651.81	25977.61
651.96	25722.49
652.10	25738.87
652.25	25715.47
652.39	25947.18
652.54	25958.88
652.68	25781.00
652.83	25844.20
652.97	26010.37
653.12	25902.71
653.26	25799.73
653.41	25539.93
653.55	25453.33
653.70	25404.17
653.84	25523.54
653.99	25497.80
654.13	26150.81
654.27	25628.87
654.42	25387.79
654.56	25619.50
654.71	25584.40
654.85	25326.94
655.00	25841.85
655.14	25640.57
655.29	25605.46
655.43	25359.70
655.57	25387.79
655.72	25310.55
655.86	25256.72
656.01	24783.93
656.15	25546.95
656.30	25305.87
656.44	25043.73
656.58	25287.15
656.73	25385.45
656.87	25057.78
657.01	25624.18
657.16	25268.42
657.30	25193.53
657.45	24797.98
657.59	25055.43
657.73	25298.85
657.88	25528.22
658.02	24968.84
658.16	25039.05
658.31	24978.20
658.45	25006.28
658.60	24830.74
658.74	24489.03
658.88	24957.13
659.03	24891.60
659.17	24767.55
659.31	24577.97
659.46	24805.00
659.60	24802.66
659.74	24694.99
659.89	24659.88
660.03	24542.86
660.17	25017.99
660.32	24638.82
660.46	24269.01
660.60	24381.36
660.74	24570.94
660.89	24500.73
661.03	24231.57
661.17	24170.71
661.32	24435.19
661.46	24489.03
661.60	24339.23
661.74	24046.66
661.89	24486.68
662.03	24493.71
662.17	24467.96
662.31	24283.06
662.46	24336.89
662.60	24404.77
662.74	24528.81
662.88	24105.18
663.03	23875.80
663.17	23838.36
663.31	23817.29
663.45	24180.07
663.60	23896.87
663.74	23648.77
663.88	23903.89
664.02	23623.03
664.17	24156.67
664.31	23899.21
664.45	23772.82
664.59	23735.37
664.73	23676.86
664.88	23583.24
665.02	23480.25
665.16	23367.91
665.30	23360.89
665.44	23414.72
665.59	23396.00
665.73	23515.36
665.87	23068.32
666.01	23463.87
666.15	23276.63
666.29	23386.63
666.44	23367.91
666.58	23232.16
666.72	22988.74
666.86	23381.95
667.00	23466.21
667.14	23213.43
667.28	23129.17
667.43	23288.33
667.57	23307.05
667.71	23016.83
667.85	23065.98
667.99	22831.93
668.13	23103.43
668.27	22686.81
668.41	22892.78
668.56	22941.93
668.70	23005.13
668.84	23019.17
668.98	22913.84
669.12	22724.26
669.26	22703.20
669.40	22649.36
669.54	22382.54
669.68	22759.37
669.82	22354.46
669.96	22555.74
670.10	22419.99
670.25	22415.31
670.39	22497.23
670.53	22209.34
670.67	22195.30
670.81	22363.82
670.95	22422.33
671.09	22300.62
671.23	22382.54
671.37	22445.74
671.51	22122.74
671.65	22019.76
671.79	21729.53
671.93	22052.53
672.07	22106.36
672.21	22237.43
672.35	21628.89
672.49	21703.79
672.63	21682.72
672.77	21298.88
672.91	21451.01
673.05	21717.83
673.19	21834.86
673.33	21827.84
673.47	21645.27
673.61	21713.15
673.75	21575.06
673.89	21724.85
674.03	21659.32
674.17	21434.63
674.31	21376.11
674.45	21195.89
674.59	21331.64
674.73	21266.11
674.87	20966.52
675.01	20896.30
675.15	21233.34
675.29	20999.29
675.43	20851.83
675.56	21113.97
675.70	20879.92
675.84	20882.26
675.98	20292.44
676.12	20833.11
676.26	21223.98
676.40	20922.05
676.54	20685.65
676.68	20744.17
676.82	20240.95
676.96	20266.70
677.10	20500.75
677.23	20233.93
677.37	20231.59
677.51	20051.37
677.65	20297.13
677.79	19768.16
677.93	20126.27
678.07	19791.57
678.21	19955.41
678.34	19782.21
678.48	19665.18
678.62	19885.19
678.76	19749.44
678.90	19501.34
679.04	19634.75
679.18	19372.61
679.31	19477.94
679.45	19227.50
679.59	19084.73
679.73	19286.01
679.87	18960.68
680.00	18892.80
680.14	19431.13
680.28	19290.70
680.42	19016.85
680.56	19028.56
680.70	19021.53
680.83	19051.96
680.97	18948.98
681.11	18733.65
681.25	18766.42
681.39	18860.04
681.52	18604.92
681.66	18420.02
681.80	18787.48
681.94	18506.62
682.07	18532.36
682.21	18361.50
682.35	18319.37
682.49	17642.96
682.62	18120.43
682.76	17921.48
682.90	18146.17
683.04	17804.46
683.17	18082.98
683.31	17785.73
683.45	17898.08
683.59	17717.86
683.72	17820.84
683.86	17785.73
684.00	17664.02
684.13	17867.65
684.27	17394.86
684.41	17130.38
684.55	17097.61
684.68	17341.03
684.82	17022.72
684.96	17076.55
685.09	17097.61
685.23	17076.55
685.37	17202.94
685.50	17245.07
685.64	17106.98
685.78	17076.55
685.91	16987.61
686.05	16917.39
686.19	16692.70
686.32	17121.02
686.46	16573.33
686.60	16348.64
686.73	16496.10
686.87	16374.39
687.01	16620.14
687.14	16393.11
687.28	16538.23
687.42	16460.99
687.55	16173.10
687.69	15976.50
687.82	16203.53
687.96	16248.00
688.10	16175.44
688.23	16123.95
688.37	15726.06
688.50	15833.72
688.64	15641.80
688.78	15559.88
688.91	16018.63
689.05	15604.35
689.18	15592.65
689.32	15679.25
689.46	15412.43
689.59	15440.51
689.73	15733.08
689.86	15044.96
690.00	15435.83
690.13	15229.87
690.27	15049.64
690.41	15337.53
690.54	15096.46
690.68	15070.71
690.81	15220.50
690.95	14951.34
691.08	15002.83
691.22	15030.92
691.35	14881.13
691.49	14810.91
691.62	14846.02
691.76	14658.78
691.89	14707.93
692.03	14434.08
692.16	14530.05
692.30	14415.36
692.43	14267.91
692.57	14237.48
692.70	14326.42
692.84	14202.37
692.97	14148.54
693.11	14019.81
693.24	14071.30
693.38	14054.92
693.51	14239.82
693.65	13870.01
693.78	14141.52
693.92	13848.95
694.05	13570.43
694.19	13755.33
694.32	13511.91
694.45	13617.24
694.59	13282.54
694.72	13345.73
694.86	13444.04
694.99	13240.41
695.13	13172.54
695.26	13057.85
695.39	13006.36
695.53	13231.05
695.66	13275.52
695.80	12929.12
695.93	13114.02
696.07	13008.70
696.20	12905.71
696.33	12746.56
696.47	12606.13
696.60	12706.77
696.73	12793.37
696.87	12545.27
697.00	12589.74
697.14	12458.67
697.27	12006.95
697.40	12453.99
697.54	12343.99
697.67	12259.73
697.80	12442.29
697.94	12002.27
698.07	12243.34
698.21	11948.43
698.34	12128.66
698.47	12079.50
698.61	12037.38
698.74	12053.76
698.87	12372.07
699.01	11857.15
699.14	11777.58
699.27	11854.81
699.40	11901.62
699.54	11908.65
699.67	11789.28
699.80	11405.43
699.94	11344.58
700.07	11365.64
700.20	11363.30
700.34	11311.81
700.47	11365.64
700.60	11208.83
700.73	11456.92
700.87	10942.00
701.00	11286.06
701.13	10977.11
701.26	11211.17
701.40	11248.61
701.53	11068.39
701.66	11183.08
701.79	11056.69
701.93	10480.92
702.06	10689.23
702.19	10602.63
702.32	10736.04
702.46	10387.30
702.59	10391.98
702.72	10532.41
702.85	10560.50
702.99	10366.23
703.12	10403.68
703.25	10274.95
703.38	10427.09
703.51	10410.70
703.65	10181.33
703.78	10169.63
703.91	10054.94
704.04	10249.21
704.17	10293.68
704.31	10136.86
704.44	10010.47
704.57	9944.94
704.70	9734.29
704.83	9692.16
704.96	9797.48
705.10	9659.39
705.23	9537.68
>>>>>End Processed Spectral Data<<<<<
