SpectraSuite Data File
++++++++++++++++++++++++++++++++++++
Date: Fri Oct 18 13:58:44 GMT-05:00 2013
User: bianchi
Dark Spectrum Present: No
Reference Spectrum Present: No
Number of Sampled Component Spectra: 1
Spectrometers: USB2+H05261
Integration Time (usec): 50000 (USB2+H05261)
Spectra Averaged: 1 (USB2+H05261)
Boxcar Smoothing: 0 (USB2+H05261)
Correct for Electrical Dark: No (USB2+H05261)
Strobe/Lamp Enabled: No (USB2+H05261)
Correct for Detector Non-linearity: No (USB2+H05261)
Correct for Stray Light: No (USB2+H05261)
Number of Pixels in Processed Spectrum: 2048
>>>>>Begin Processed Spectral Data<<<<<
365.73	0.00
365.92	0.00
366.12	0.00
366.32	0.00
366.52	0.00
366.72	0.00
366.91	0.00
367.11	0.00
367.31	0.00
367.51	0.00
367.70	0.00
367.90	0.00
368.10	0.00
368.30	0.00
368.49	0.00
368.69	0.00
368.89	0.00
369.09	0.00
369.28	0.00
369.48	0.00
369.68	0.00
369.87	0.00
370.07	0.00
370.27	0.00
370.47	0.00
370.66	91.28
370.86	131.07
371.06	138.09
371.25	124.05
371.45	161.50
371.65	170.86
371.84	135.75
372.04	102.98
372.24	166.18
372.44	159.16
372.63	203.63
372.83	220.01
373.03	170.86
373.22	210.65
373.42	170.86
373.62	191.92
373.81	187.24
374.01	222.35
374.21	318.31
374.40	266.82
374.60	273.84
374.79	259.80
374.99	280.86
375.19	257.46
375.38	248.10
375.58	259.80
375.78	266.82
375.97	285.55
376.17	290.23
376.37	255.12
376.56	320.65
376.76	301.93
376.95	264.48
377.15	315.97
377.35	327.68
377.54	238.73
377.74	255.12
377.93	259.80
378.13	170.86
378.33	255.12
378.52	222.35
378.72	283.20
378.91	285.55
379.11	306.61
379.31	327.68
379.50	245.76
379.70	306.61
379.89	276.18
380.09	269.16
380.28	358.10
380.48	264.48
380.68	318.31
380.87	259.80
381.07	348.74
381.26	325.33
381.46	320.65
381.65	362.78
381.85	297.25
382.04	238.73
382.24	358.10
382.43	376.83
382.63	346.40
382.83	337.04
383.02	294.91
383.22	362.78
383.41	362.78
383.61	383.85
383.80	355.76
384.00	376.83
384.19	390.87
384.39	346.40
384.58	278.52
384.78	351.08
384.97	339.38
385.17	337.04
385.36	369.80
385.56	334.70
385.75	341.72
385.95	365.12
386.14	454.06
386.34	372.15
386.53	484.49
386.72	470.45
386.92	465.77
387.11	348.74
387.31	407.25
387.50	393.21
387.70	407.25
387.89	428.32
388.09	435.34
388.28	491.51
388.48	456.40
388.67	491.51
388.86	435.34
389.06	500.87
389.25	489.17
389.45	463.43
389.64	388.53
389.84	484.49
390.03	533.64
390.22	435.34
390.42	524.28
390.61	489.17
390.81	493.85
391.00	510.24
391.19	538.32
391.39	468.11
391.58	507.90
391.78	500.87
391.97	545.34
392.16	468.11
392.36	543.00
392.55	559.39
392.75	603.86
392.94	585.13
393.13	528.96
393.33	521.94
393.52	550.03
393.71	524.28
393.91	554.71
394.10	538.32
394.29	606.20
394.49	566.41
394.68	561.73
394.88	482.15
395.07	641.31
395.26	634.29
395.46	599.18
395.65	571.09
395.84	674.07
396.04	662.37
396.23	669.39
396.42	669.39
396.62	608.54
396.81	671.73
397.00	627.26
397.19	589.82
397.39	678.76
397.58	631.94
397.77	681.10
397.97	667.05
398.16	606.20
398.35	671.73
398.55	657.69
398.74	622.58
398.93	711.52
399.12	788.76
399.32	695.14
399.51	690.46
399.70	779.40
399.90	723.23
400.09	763.01
400.28	744.29
400.47	791.10
400.67	812.17
400.86	751.31
401.05	791.10
401.24	767.70
401.44	758.33
401.63	779.40
401.82	901.11
402.01	784.08
402.21	856.64
402.40	823.87
402.59	779.40
402.78	891.74
402.97	823.87
403.17	826.21
403.36	882.38
403.55	851.96
403.74	933.87
403.93	877.70
404.13	933.87
404.32	940.90
404.51	866.00
404.70	870.68
404.89	887.06
405.09	976.00
405.28	915.15
405.47	971.32
405.66	844.93
405.85	959.62
406.05	976.00
406.24	887.06
406.43	943.24
406.62	978.34
406.81	1053.24
407.00	924.51
407.20	919.83
407.39	959.62
407.58	1029.84
407.77	1128.14
407.96	1043.88
408.15	1055.58
408.34	1055.58
408.54	1109.41
408.73	1086.01
408.92	964.30
409.11	1039.20
409.30	1097.71
409.49	1055.58
409.68	1130.48
409.87	1069.62
410.07	1104.73
410.26	1219.42
410.45	1097.71
410.64	1224.10
410.83	1170.27
411.02	1083.67
411.21	1181.97
411.40	1221.76
411.59	1254.53
411.78	1184.31
411.98	1219.42
412.17	1299.00
412.36	1254.53
412.55	1303.68
412.74	1324.74
412.93	1341.13
413.12	1427.73
413.31	1310.70
413.50	1352.83
413.69	1413.68
413.88	1472.20
414.07	1413.68
414.26	1488.58
414.45	1465.18
414.64	1444.11
414.83	1432.41
415.02	1565.82
415.22	1614.97
415.41	1605.61
415.60	1530.71
415.79	1596.25
415.98	1614.97
416.17	1589.22
416.36	1591.56
416.55	1673.48
416.74	1643.06
416.93	1558.80
417.12	1640.72
417.31	1579.86
417.50	1708.59
417.69	1764.76
417.88	1652.42
418.07	1682.85
418.26	1734.34
418.45	1654.76
418.64	1811.57
418.83	1806.89
419.02	1851.36
419.21	1748.38
419.39	1825.62
419.58	1762.42
419.77	1879.45
419.96	1914.56
420.15	1891.15
420.34	1827.96
420.53	1832.64
420.72	1813.92
420.91	1790.51
421.10	1942.64
421.29	1963.71
421.48	1933.28
421.67	1952.01
421.86	1888.81
422.05	1954.35
422.24	1949.67
422.43	1968.39
422.61	1968.39
422.80	1984.77
422.99	1872.43
423.18	1989.46
423.37	1954.35
423.56	2083.08
423.75	1937.96
423.94	1954.35
424.13	1858.39
424.32	1900.52
424.50	1961.37
424.69	2015.20
424.88	2050.31
425.07	2066.69
425.26	1914.56
425.45	1998.82
425.64	1952.01
425.83	1923.92
426.01	2069.03
426.20	2094.78
426.39	2038.61
426.58	1984.77
426.77	2078.40
426.96	2001.16
427.15	2083.08
427.33	2076.06
427.52	2033.93
427.71	2064.35
427.90	2050.31
428.09	2050.31
428.28	2146.27
428.46	2118.18
428.65	2242.23
428.84	2200.10
429.03	2328.83
429.22	2031.58
429.40	2251.60
429.59	2270.32
429.78	2204.78
429.97	2246.91
430.16	2242.23
430.34	2335.85
430.53	2239.89
430.72	2267.98
430.91	2265.64
431.10	2232.87
431.28	2289.04
431.47	2326.49
431.66	2403.73
431.85	2530.12
432.03	2370.96
432.22	2532.46
432.41	2415.43
432.60	2490.33
432.79	2471.61
432.97	2455.22
433.16	2413.09
433.35	2476.29
433.54	2473.95
433.72	2509.05
433.91	2485.65
434.10	2534.80
434.28	2590.97
434.47	2647.15
434.66	2490.33
434.85	2583.95
435.03	2532.46
435.22	2647.15
435.41	2668.21
435.59	2546.50
435.78	2612.04
435.97	2523.10
436.16	2523.10
436.34	2541.82
436.53	2719.70
436.72	2731.41
436.90	2581.61
437.09	2780.56
437.28	2677.57
437.46	2672.89
437.65	2623.74
437.84	2719.70
438.02	2794.60
438.21	2719.70
438.40	2705.66
438.58	2951.42
438.77	2853.11
438.96	2881.20
439.14	2867.16
439.33	2932.69
439.52	2951.42
439.70	2935.03
439.89	2913.97
440.08	3042.70
440.26	2970.14
440.45	3054.40
440.63	3059.08
440.82	3005.25
441.01	2986.52
441.19	3192.49
441.38	3206.53
441.57	3054.40
441.75	3133.98
441.94	3225.26
442.12	3281.43
442.31	3300.16
442.50	3300.16
442.68	3213.56
442.87	3372.71
443.05	3260.37
443.24	3265.05
443.43	3346.97
443.61	3368.03
443.80	3454.63
443.98	3279.09
444.17	3269.73
444.35	3405.48
444.54	3386.76
444.73	3370.37
444.91	3344.63
445.10	3503.78
445.28	3377.39
445.47	3361.01
445.65	3407.82
445.84	3452.29
446.02	3494.42
446.21	3368.03
446.39	3431.23
446.58	3332.92
446.77	3485.06
446.95	3471.01
447.14	3311.86
447.32	3478.04
447.51	3487.40
447.69	3377.39
447.88	3363.35
448.06	3548.25
448.25	3449.95
448.43	3667.62
448.62	3466.33
448.80	3529.53
448.99	3534.21
449.17	3513.14
449.36	3527.19
449.54	3651.24
449.73	3702.73
449.91	3550.59
450.10	3651.24
450.28	3618.47
450.46	3578.68
450.65	3833.80
450.83	3819.75
451.02	3749.54
451.20	3754.22
451.39	3728.47
451.57	3850.18
451.76	3674.64
451.94	3854.86
452.13	3880.61
452.31	3763.58
452.49	3824.44
452.68	3749.54
452.86	3873.59
453.05	3782.31
453.23	3950.82
453.42	3943.80
453.60	3784.65
453.78	3861.88
453.97	3974.23
454.15	3878.27
454.34	3819.75
454.52	3801.03
454.70	4093.60
454.89	3941.46
455.07	3829.12
455.26	4105.30
455.44	4025.72
455.62	4060.83
455.81	4004.66
455.99	4065.51
456.17	4042.11
456.36	4002.32
456.54	4224.67
456.73	4142.75
456.91	4264.46
457.09	4283.18
457.28	4362.76
457.46	4201.26
457.64	4297.22
457.83	4344.03
458.01	4287.86
458.19	4430.63
458.38	4414.25
458.56	4348.72
458.74	4280.84
458.93	4283.18
459.11	4432.97
459.29	4372.12
459.48	4486.81
459.66	4278.50
459.84	4416.59
460.03	4571.07
460.21	4402.55
460.39	4454.04
460.57	4484.47
460.76	4760.65
460.94	4566.39
461.12	4470.42
461.31	4519.57
461.49	4641.28
461.67	4465.74
461.85	4688.09
462.04	4643.62
462.22	4812.14
462.40	4826.18
462.59	4732.56
462.77	4847.25
462.95	4917.47
463.13	4613.20
463.32	4690.43
463.50	4734.90
463.68	4915.12
463.86	4966.62
464.05	4781.71
464.23	4744.27
464.41	4873.00
464.59	4688.09
464.78	4898.74
464.96	4961.94
465.14	4847.25
465.32	4961.94
465.50	4856.61
465.69	4959.60
465.87	4844.91
466.05	4849.59
466.23	5060.24
466.41	4856.61
466.60	5071.94
466.78	4980.66
466.96	4858.95
467.14	4938.53
467.32	5083.64
467.51	5142.16
467.69	4975.98
467.87	4873.00
468.05	5057.90
468.23	5027.47
468.41	5121.09
468.60	5259.18
468.78	5093.01
468.96	5170.24
469.14	5128.11
469.32	5172.58
469.50	5163.22
469.69	5313.02
469.87	5612.60
470.05	5472.17
470.23	5383.23
470.41	5376.21
470.59	5334.08
470.77	5448.77
470.95	5324.72
471.14	5418.34
471.32	5472.17
471.50	5516.64
471.68	5488.56
471.86	5561.11
472.04	5544.73
472.22	5795.17
472.40	5568.13
472.58	5575.16
472.77	5767.08
472.95	5968.37
473.13	5947.30
473.31	5743.67
473.49	5731.97
473.67	5877.09
473.85	5902.83
474.03	5954.32
474.21	5975.39
474.39	6017.52
474.57	6057.31
474.75	5968.37
474.93	6012.84
475.12	6001.13
475.30	6118.16
475.48	6073.69
475.66	6183.70
475.84	6186.04
476.02	6190.72
476.20	6274.98
476.38	6392.00
476.56	6644.78
476.74	6506.69
476.92	6436.47
477.10	6565.20
477.28	6520.73
477.46	6614.35
477.64	6424.77
477.82	6834.36
478.00	7012.24
478.18	6991.18
478.36	6892.88
478.54	6890.54
478.72	6981.82
478.90	7140.97
479.08	7269.70
479.26	6939.69
479.44	7260.34
479.62	7339.92
479.80	7396.09
479.98	7250.98
480.16	7503.76
480.34	7496.74
480.52	7646.53
480.70	7494.40
480.88	7489.71
481.06	7517.80
481.24	7569.29
481.41	7555.25
481.59	7929.74
481.77	7782.28
481.95	7896.97
482.13	8135.70
482.31	8056.12
482.49	8060.80
482.67	8259.75
482.85	8156.77
483.03	8545.30
483.21	8538.27
483.39	8554.66
483.57	8451.67
483.74	8652.96
483.92	8549.98
484.10	8631.90
484.28	8844.88
484.46	8877.65
484.64	9078.94
484.82	9020.42
485.00	9029.79
485.18	9048.51
485.35	9327.03
485.53	9240.44
485.71	9348.10
485.89	9605.56
486.07	9385.55
486.25	9437.04
486.43	9596.20
486.61	9745.99
486.78	9893.44
486.96	9724.93
487.14	9912.17
487.32	10118.14
487.50	10232.82
487.68	10223.46
487.85	10420.06
488.03	10228.14
488.21	10368.57
488.39	10501.98
488.57	10672.84
488.75	10670.50
488.92	10778.17
489.10	10869.45
489.28	10923.28
489.46	10998.18
489.64	11012.22
489.81	11157.33
489.99	11307.13
490.17	11269.68
490.35	11379.68
490.53	11332.87
490.70	11410.11
490.88	11358.62
491.06	11527.14
491.24	11660.55
491.41	11595.01
491.59	11798.64
491.77	11925.03
491.95	12030.35
492.13	12056.10
492.30	12093.55
492.48	12091.21
492.66	12449.31
492.84	12245.68
493.01	12372.07
493.19	12451.65
493.37	12795.71
493.54	12809.75
493.72	12631.87
493.90	12835.50
494.08	12877.63
494.25	12840.18
494.43	12938.48
494.61	13338.71
494.79	13305.95
494.96	13186.58
495.14	13434.68
495.32	13195.94
495.49	13528.30
495.67	13624.26
495.85	13783.41
496.02	13671.07
496.20	13699.16
496.38	13767.03
496.55	13862.99
496.73	14256.20
496.91	14150.88
497.09	14178.97
497.26	14310.04
497.44	14326.42
497.62	14565.15
497.79	14511.32
497.97	14483.24
498.14	14408.34
498.32	14670.48
498.50	14663.46
498.67	15124.54
498.85	14759.42
499.03	14750.06
499.20	14789.85
499.38	14993.47
499.56	15002.83
499.73	15204.12
499.91	15192.42
500.08	15414.77
500.26	15257.95
500.44	15147.95
500.61	15290.72
500.79	15082.41
500.97	15272.00
501.14	15817.34
501.32	15639.46
501.49	15906.28
501.67	15695.63
501.84	15777.55
502.02	16128.63
502.20	16119.27
502.37	16320.56
502.55	16166.08
502.72	15957.77
502.90	16369.71
503.07	15990.54
503.25	16152.04
503.43	16189.49
503.60	16414.18
503.78	16332.26
503.95	16348.64
504.13	16683.34
504.30	16159.06
504.48	16491.41
504.65	16563.97
504.83	16706.74
505.01	16917.39
505.18	16877.60
505.36	17156.13
505.53	16870.58
505.71	16695.04
505.88	16816.75
506.06	17184.21
506.23	17338.69
506.41	17142.08
506.58	17263.79
506.76	17334.01
506.93	17277.83
507.11	17088.25
507.28	17596.15
507.46	17324.65
507.63	17542.32
507.81	17591.47
507.98	17652.32
508.16	17752.96
508.33	17820.84
508.50	17830.20
508.68	18031.49
508.85	17989.36
509.03	18279.58
509.20	18188.30
509.38	18335.76
509.55	18265.54
509.73	18155.54
509.90	18207.03
510.08	18260.86
510.25	18480.87
510.42	18361.50
510.60	18443.42
510.77	18623.64
510.95	18853.02
511.12	18548.75
511.30	18625.98
511.47	18651.73
511.64	19157.28
511.82	18693.86
511.99	18700.88
512.17	18995.79
512.34	18586.19
512.51	18986.43
512.69	18934.93
512.86	19281.33
513.04	19250.91
513.21	19393.68
513.38	19459.21
513.56	19297.72
513.73	19023.87
513.90	19435.81
514.08	19461.55
514.25	19529.43
514.43	19536.45
514.60	19499.00
514.77	19534.11
514.95	19913.28
515.12	19587.94
515.29	19707.31
515.47	19836.04
515.64	20149.67
515.81	19857.10
515.99	19983.49
516.16	20369.68
516.33	19878.17
516.51	20442.24
516.68	20376.70
516.85	19967.11
517.03	20276.06
517.20	20343.94
517.37	20627.14
517.54	20475.01
517.72	20535.86
517.89	20563.95
518.06	20285.42
518.24	20606.08
518.41	20514.80
518.58	20467.98
518.75	20622.46
518.93	20900.98
519.10	20950.14
519.27	20816.72
519.45	20720.76
519.62	20622.46
519.79	20776.94
519.96	20936.09
520.14	20903.32
520.31	21022.69
520.48	21455.69
520.65	21041.42
520.83	21240.36
521.00	21254.40
521.17	21214.62
521.34	21111.63
521.52	21322.28
521.69	21275.47
521.86	21717.83
522.03	21233.34
522.20	21451.01
522.38	21998.70
522.55	21603.14
522.72	21902.73
522.89	21839.54
523.07	21968.27
523.24	21956.57
523.41	22031.46
523.58	21919.12
523.75	22286.58
523.92	21792.73
524.10	22003.38
524.27	22293.60
524.44	22221.05
524.61	22197.64
524.78	22291.26
524.96	22265.52
525.13	22256.15
525.30	22487.87
525.47	22518.29
525.64	22478.50
525.81	22401.27
525.98	22675.11
526.16	22789.80
526.33	22253.81
526.50	23063.64
526.67	22600.21
526.84	22581.49
527.01	22340.41
527.18	22684.47
527.36	23154.92
527.53	23089.38
527.70	23073.00
527.87	23145.56
528.04	23075.34
528.21	23007.47
528.38	23014.49
528.55	22963.00
528.72	23344.50
528.89	23051.94
529.07	23028.53
529.24	23248.54
529.41	23840.70
529.58	23023.85
529.75	23475.57
529.92	23608.98
530.09	23456.85
530.26	23405.36
530.43	23435.78
530.60	23365.57
530.77	23522.38
530.94	23728.35
531.11	23414.72
531.28	23597.28
531.46	23545.79
531.63	23819.63
531.80	23655.79
531.97	23812.61
532.14	24151.99
532.31	23978.79
532.48	24107.52
532.65	23777.50
532.82	24100.50
532.99	23985.81
533.16	24144.97
533.33	24285.40
533.50	24247.95
533.67	24166.03
533.84	24168.37
534.01	24418.81
534.18	24034.96
534.35	24346.25
534.52	24151.99
534.69	24510.09
534.86	24655.20
535.03	24215.18
535.20	24428.17
535.37	24437.53
535.54	24730.10
535.71	24861.17
535.88	24318.17
536.05	24690.31
536.22	24903.30
536.38	25109.27
536.55	24723.08
536.72	24790.95
536.89	24615.41
537.06	24833.08
537.23	25083.52
537.40	25060.12
537.57	25104.59
537.74	25181.82
537.91	25223.95
538.08	25078.84
538.25	25050.75
538.42	25156.08
538.59	25434.60
538.75	25078.84
538.92	25497.80
539.09	25228.63
539.26	25083.52
539.43	25333.96
539.60	25039.05
539.77	25418.22
539.94	25565.67
540.11	25343.32
540.28	25043.73
540.44	25584.40
540.61	25219.27
540.78	25448.64
540.95	25376.09
541.12	25355.02
541.29	25874.62
541.46	25912.07
541.62	25111.61
541.79	25474.39
541.96	25266.08
542.13	25460.35
542.30	25673.34
542.47	25963.56
542.63	25708.44
542.80	25638.23
542.97	26206.98
543.14	25968.24
543.31	25949.52
543.48	26291.24
543.64	26118.04
543.81	26494.86
543.98	26405.92
544.15	26309.96
544.32	26572.10
544.48	26829.56
544.65	26389.54
544.82	26080.59
544.99	26122.72
545.16	26202.30
545.32	26316.98
545.49	26642.32
545.66	26649.34
545.83	26888.07
546.00	26450.39
546.16	26499.55
546.33	26331.03
546.50	26508.91
546.67	26700.83
546.83	26356.77
547.00	26469.12
547.17	26721.90
547.34	26923.18
547.50	26408.26
547.67	26862.33
547.84	26764.03
548.00	26794.45
548.17	26993.40
548.34	26745.30
548.51	27150.21
548.67	27077.66
548.84	26955.95
549.01	27133.83
549.18	27105.74
549.34	27007.44
549.51	27152.55
549.68	27091.70
549.84	27026.17
550.01	27098.72
550.18	26747.64
550.34	27161.92
550.51	27665.13
550.68	27182.98
550.84	26766.37
551.01	27192.34
551.18	26993.40
551.34	27065.96
551.51	27527.04
551.68	27393.63
551.84	27625.34
552.01	27655.77
552.18	27482.57
552.34	27218.09
552.51	27496.61
552.68	27098.72
552.84	27756.41
553.01	27740.03
553.18	27772.80
553.34	27754.07
553.51	27761.09
553.67	27756.41
553.84	28063.02
554.01	27681.52
554.17	27941.32
554.34	27873.44
554.51	27878.12
554.67	28100.47
554.84	27653.43
555.00	27908.55
555.17	27648.75
555.33	28107.49
555.50	27946.00
555.67	28147.28
555.83	28009.19
556.00	27974.08
556.16	28395.38
556.33	27960.04
556.50	27838.33
556.66	28465.60
556.83	28058.34
556.99	28142.60
557.16	28652.84
557.32	28327.50
557.49	28217.50
557.65	27833.65
557.82	28290.06
557.98	28189.41
558.15	28254.95
558.32	28423.47
558.48	28250.27
558.65	28554.54
558.81	28308.78
558.98	28809.65
559.14	28444.53
559.31	28252.61
559.47	28151.96
559.64	28393.04
559.80	28568.58
559.97	28613.05
560.13	28561.56
560.30	28631.77
560.46	28657.52
560.63	28620.07
560.79	28814.34
560.96	28304.10
561.12	28645.82
561.29	28774.55
561.45	28709.01
561.61	28802.63
561.78	28629.43
561.94	28793.27
562.11	28638.80
562.27	28683.27
562.44	28765.18
562.60	28580.28
562.77	28718.37
562.93	28507.72
563.10	28645.82
563.26	28840.08
563.42	28723.05
563.59	28821.36
563.75	28856.46
563.92	29036.69
564.08	28882.21
564.24	29053.07
564.41	28428.15
564.57	28535.81
564.74	28807.31
564.90	29247.33
565.07	29216.91
565.23	28875.19
565.39	28940.72
565.56	29235.63
565.72	28720.71
565.88	28886.89
566.05	28790.93
566.21	28477.30
566.38	28961.79
566.54	29020.30
566.70	29111.58
566.87	29301.17
567.03	29329.25
567.19	29504.79
567.36	29130.31
567.52	29104.56
567.68	29317.55
567.85	29216.91
568.01	29326.91
568.17	29083.50
568.34	29308.19
568.50	28980.51
568.66	29331.59
568.83	29116.26
568.99	29111.58
569.15	29317.55
569.32	29160.73
569.48	28947.75
569.64	29469.69
569.81	29240.31
569.97	28842.42
570.13	29088.18
570.30	29249.67
570.46	29017.96
570.62	29294.14
570.78	29214.57
570.95	29064.77
571.11	29502.45
571.27	29062.43
571.43	29120.95
571.60	29406.49
571.76	29352.66
571.92	29675.65
572.09	28837.74
572.25	29837.15
572.41	29268.40
572.57	29282.44
572.74	29614.80
572.90	29221.59
573.06	29530.54
573.22	29174.78
573.38	29266.06
573.55	29167.76
573.71	29544.58
573.87	29376.06
574.03	29429.90
574.20	29294.14
574.36	29390.11
574.52	29249.67
574.68	29397.13
574.84	29736.51
575.01	29291.80
575.17	29198.18
575.33	29294.14
575.49	29324.57
575.65	29443.94
575.82	29523.52
575.98	29357.34
576.14	29420.53
576.30	29703.74
576.46	29638.20
576.62	29799.70
576.79	29750.55
576.95	29460.32
577.11	29614.80
577.27	29907.37
577.43	29553.94
577.59	29916.73
577.75	29441.60
577.92	29481.39
578.08	29153.71
578.24	29448.62
578.40	29516.50
578.56	29549.26
578.72	29802.04
578.88	29764.59
579.04	29790.34
579.21	29663.95
579.37	29673.31
579.53	29546.92
579.69	29509.47
579.85	29165.42
580.01	29635.86
580.17	29331.59
580.33	29757.57
580.49	29450.96
580.65	29729.48
580.82	29722.46
580.98	29762.25
581.14	29411.17
581.30	29935.45
581.46	29682.67
581.62	29558.63
581.78	29198.18
581.94	29720.12
582.10	29237.97
582.26	29694.38
582.42	29785.66
582.58	29757.57
582.74	29869.92
582.90	29811.40
583.06	29589.05
583.22	29563.31
583.38	29572.67
583.54	29589.05
583.70	29757.57
583.86	29331.59
584.02	29209.89
584.18	29914.39
584.34	29907.37
584.50	29832.47
584.66	29457.98
584.82	29380.74
584.98	29631.18
585.14	29631.18
585.30	29567.99
585.46	29195.84
585.62	29436.92
585.78	30190.57
585.94	29553.94
586.10	29977.58
586.26	29797.36
586.42	30008.01
586.58	30043.12
586.74	29879.28
586.90	29785.66
587.06	29668.63
587.22	29933.11
587.38	29565.65
587.54	29944.81
587.70	29975.24
587.86	29839.49
588.02	29771.61
588.18	30424.62
588.34	29919.07
588.49	29685.01
588.65	29881.62
588.81	29741.19
588.97	29963.54
589.13	29926.09
589.29	29750.55
589.45	30148.44
589.61	30022.05
589.77	30218.66
589.93	30394.20
590.08	30733.57
590.24	30075.88
590.40	29652.25
590.56	29832.47
590.72	29895.66
590.88	30045.46
591.04	29993.97
591.20	30139.08
591.35	30366.11
591.51	30373.13
591.67	30436.33
591.83	30312.28
591.99	30167.16
592.15	30101.63
592.31	30120.35
592.46	29998.65
592.62	30277.17
592.78	29862.90
592.94	29933.11
593.10	29986.94
593.26	30029.07
593.41	30064.18
593.57	29996.31
593.73	29947.15
593.89	30174.19
594.05	30167.16
594.20	30183.55
594.36	29750.55
594.52	30153.12
594.68	30157.80
594.84	29912.05
594.99	30155.46
595.15	30518.25
595.31	30171.85
595.47	30312.28
595.62	30216.32
595.78	30022.05
595.94	30162.48
596.10	30611.87
596.25	29944.81
596.41	30174.19
596.57	29933.11
596.73	30108.65
596.88	30298.23
597.04	30235.04
597.20	30450.37
597.36	30284.19
597.51	30314.62
597.67	30073.54
597.83	30139.08
597.99	30305.26
598.14	30031.41
598.30	30082.91
598.46	30146.10
598.61	30132.06
598.77	30291.21
598.93	30370.79
599.09	30541.65
599.24	30771.02
599.40	30651.66
599.56	30572.08
599.71	30190.57
599.87	30518.25
600.03	30235.04
600.18	30239.72
600.34	30274.83
600.50	30646.97
600.65	30150.78
600.81	30228.02
600.97	30213.98
601.12	30693.79
601.28	30532.29
601.44	30602.50
601.59	30689.10
601.75	30658.68
601.91	30202.27
602.06	30092.27
602.22	30492.50
602.37	29914.39
602.53	30309.94
602.69	30017.37
602.84	30654.00
603.00	30455.05
603.16	30249.08
603.31	30323.98
603.47	30139.08
603.62	30115.67
603.78	30110.99
603.94	30146.10
604.09	30565.06
604.25	30010.35
604.40	30209.29
604.56	30139.08
604.71	30820.17
604.87	30604.84
605.03	30532.29
605.18	30455.05
605.34	30352.07
605.49	30178.87
605.65	30073.54
605.80	30036.09
605.96	29996.31
606.12	30459.73
606.27	30696.13
606.43	30286.53
606.58	30749.96
606.74	30820.17
606.89	30429.30
607.05	30106.31
607.20	30302.92
607.36	30478.46
607.51	30188.23
607.67	29947.15
607.82	30141.42
607.98	30473.78
608.13	30078.22
608.29	30551.01
608.44	30206.95
608.60	30125.04
608.75	30218.66
608.91	29907.37
609.06	29961.20
609.22	30377.81
609.37	29993.97
609.53	29834.81
609.68	29956.52
609.84	29968.22
609.99	29865.24
610.15	29727.14
610.30	30057.16
610.46	30108.65
610.61	29778.64
610.76	30338.02
610.92	29972.90
611.07	30363.77
611.23	30010.35
611.38	29521.18
611.54	29935.45
611.69	29549.26
611.84	29879.28
612.00	29788.00
612.15	29694.38
612.31	29935.45
612.46	29715.44
612.62	30239.72
612.77	29890.98
612.92	30249.08
613.08	29834.81
613.23	29834.81
613.39	29837.15
613.54	29788.00
613.69	30120.35
613.85	29614.80
614.00	30019.71
614.15	29940.13
614.31	29586.71
614.46	29942.47
614.62	29825.45
614.77	29846.51
614.92	29806.72
615.08	29352.66
615.23	29722.46
615.38	29378.40
615.54	29490.75
615.69	29359.68
615.84	29212.23
616.00	29755.23
616.15	29670.97
616.30	29675.65
616.46	29785.66
616.61	29546.92
616.76	29689.70
616.92	29448.62
617.07	29783.32
617.22	29771.61
617.37	29170.10
617.53	29680.33
617.68	29200.52
617.83	29151.37
617.99	29064.77
618.14	29535.22
618.29	29764.59
618.45	29401.81
618.60	29635.86
618.75	29247.33
618.90	29137.33
619.06	29495.43
619.21	28854.12
619.36	29177.12
619.51	29078.82
619.67	28957.11
619.82	29174.78
619.97	28929.02
620.12	28947.75
620.28	29085.84
620.43	28907.96
620.58	29453.30
620.73	29373.72
620.89	29254.36
621.04	29001.58
621.19	28893.91
621.34	29350.32
621.49	28804.97
621.65	29024.98
621.80	29188.82
621.95	28755.82
622.10	28737.10
622.25	28566.24
622.41	29160.73
622.56	28924.34
622.71	29090.52
622.86	29022.64
623.01	28854.12
623.16	28889.23
623.32	28828.38
623.47	28868.17
623.62	28863.49
623.77	28465.60
623.92	28608.37
624.07	28645.82
624.23	28882.21
624.38	28685.61
624.53	28622.41
624.68	28432.83
624.83	28755.82
624.98	28978.17
625.13	28950.09
625.29	28727.74
625.44	29088.18
625.59	28697.31
625.74	28397.72
625.89	28676.24
626.04	28243.24
626.19	28376.66
626.34	28582.62
626.49	28407.08
626.65	28645.82
626.80	28638.80
626.95	28924.34
627.10	28142.60
627.25	28421.13
627.40	28208.14
627.55	28414.10
627.70	28545.17
627.85	28098.13
628.00	28353.25
628.15	28180.05
628.30	27929.61
628.45	28283.03
628.60	28135.58
628.76	28325.16
628.91	28407.08
629.06	28341.55
629.21	28353.25
629.36	28109.83
629.51	28079.41
629.66	27931.95
629.81	27978.76
629.96	27508.32
630.11	28259.63
630.26	27754.07
630.41	28095.79
630.56	27786.84
630.71	28100.47
630.86	28058.34
631.01	27807.90
631.16	28102.81
631.31	28283.03
631.46	27445.12
631.61	27995.15
631.76	28126.22
631.91	27885.14
632.06	27978.76
632.21	27555.13
632.36	27821.95
632.51	27714.28
632.66	27866.42
632.81	27880.46
632.96	27845.35
633.10	27749.39
633.25	27936.63
633.40	27838.33
633.55	27452.14
633.70	27400.65
633.85	27548.11
634.00	27683.86
634.15	27557.47
634.30	27473.21
634.45	27557.47
634.60	27578.53
634.75	27182.98
634.90	27655.77
635.05	27524.70
635.19	27522.36
635.34	27852.38
635.49	27501.29
635.64	27639.39
635.79	27475.55
635.94	27634.71
636.09	27484.91
636.24	27131.49
636.39	27281.28
636.53	26965.31
636.68	27222.77
636.83	27175.96
636.98	27344.48
637.13	27365.54
637.28	26916.16
637.43	27573.85
637.57	27253.20
637.72	27484.91
637.87	26813.18
638.02	27164.26
638.17	26930.20
638.32	26977.01
638.46	27166.60
638.61	26829.56
638.76	27007.44
638.91	26852.97
639.06	26642.32
639.20	26991.06
639.35	27019.14
639.50	27304.69
639.65	27426.40
639.80	26939.57
639.94	27307.03
640.09	27309.37
640.24	26836.58
640.39	26717.22
640.54	26792.11
640.68	26494.86
640.83	26703.17
640.98	26845.94
641.13	26518.27
641.27	26934.88
641.42	26951.27
641.57	26955.95
641.72	26925.52
641.86	26471.46
642.01	26298.26
642.16	26595.51
642.31	26799.13
642.45	26267.83
642.60	26162.51
642.75	26558.06
642.90	26342.73
643.04	26256.13
643.19	26506.57
643.34	26548.70
643.48	26455.08
643.63	26321.66
643.78	26281.88
643.93	26223.36
644.07	26518.27
644.22	26654.02
644.37	26483.16
644.51	26452.73
644.66	26565.08
644.81	26370.82
644.95	26202.30
645.10	26476.14
645.25	26321.66
645.39	26342.73
645.54	26174.21
645.69	26515.93
645.83	26494.86
645.98	26099.31
646.13	26029.10
646.27	26738.28
646.42	26017.40
646.57	26487.84
646.71	26078.25
646.86	26171.87
647.00	26064.21
647.15	25795.04
647.30	26073.57
647.44	26232.72
647.59	25986.97
647.74	25926.11
647.88	26089.95
648.03	26038.46
648.17	26302.94
648.32	25940.16
648.47	25902.71
648.61	26178.89
648.76	26185.91
648.90	26047.82
649.05	26284.22
649.20	26026.76
649.34	25631.21
649.49	25797.38
649.63	25642.91
649.78	26003.35
649.92	25755.26
650.07	25888.67
650.21	25710.78
650.36	25628.87
650.51	25289.49
650.65	25781.00
650.80	26038.46
650.94	25806.75
651.09	25656.95
651.23	25467.37
651.38	25598.44
651.52	25654.61
651.67	25551.63
651.81	25874.62
651.96	25429.92
652.10	25745.89
652.25	25502.48
652.39	25645.25
652.54	25628.87
652.68	25413.54
652.83	25741.21
652.97	26141.44
653.12	25713.13
653.26	25525.88
653.41	25706.10
653.55	25329.28
653.70	25425.24
653.84	25172.46
653.99	25252.04
654.13	25202.89
654.27	25687.38
654.42	25205.23
654.56	25010.96
654.71	25535.24
654.85	24861.17
655.00	25455.67
655.14	25039.05
655.29	25266.08
655.43	25247.36
655.57	25102.25
655.72	25373.75
655.86	25083.52
656.01	25348.00
656.15	25067.14
656.30	25067.14
656.44	25069.48
656.58	24795.64
656.73	25156.08
656.87	24898.62
657.01	24922.02
657.16	24959.47
657.30	25099.90
657.45	24907.98
657.59	25013.31
657.73	24680.95
657.88	25174.80
658.02	24966.49
658.16	24858.83
658.31	24535.84
658.45	24765.21
658.60	24360.30
658.74	24622.44
658.88	24769.89
659.03	24769.89
659.17	24662.22
659.31	24517.11
659.46	24329.87
659.60	24566.26
659.74	24814.36
659.89	24163.69
660.03	24748.82
660.17	24313.48
660.32	24437.53
660.46	24772.23
660.60	24137.94
660.74	24187.10
660.89	24301.78
661.03	24212.84
661.17	24273.70
661.32	23896.87
661.46	24500.73
661.60	24086.45
661.74	24276.04
661.89	24266.67
662.03	24109.86
662.17	23723.67
662.31	23873.46
662.46	23941.34
662.60	23924.96
662.74	23864.10
662.88	24240.93
663.03	23660.48
663.17	23793.89
663.31	23569.19
663.45	23772.82
663.60	23836.02
663.74	23473.23
663.88	23356.21
664.02	23665.16
664.17	24034.96
664.31	23489.62
664.45	23608.98
664.59	23718.99
664.73	23459.19
664.88	23470.89
665.02	23690.90
665.16	23222.80
665.30	23384.29
665.44	23246.20
665.59	23021.51
665.73	23234.50
665.87	23012.15
666.01	23339.82
666.15	23033.21
666.29	23222.80
666.44	23459.19
666.58	23007.47
666.72	22960.66
666.86	22984.06
667.00	22998.10
667.14	23105.77
667.28	22757.03
667.43	22644.68
667.57	23183.01
667.71	22731.28
667.85	22829.59
667.99	22874.06
668.13	23056.62
668.27	22658.73
668.41	22604.89
668.56	22532.34
668.70	22560.42
668.84	22333.39
668.98	22632.98
669.12	22787.46
669.26	22448.08
669.40	22586.17
669.54	22614.26
669.68	22260.84
669.82	22321.69
669.96	22284.24
670.10	22300.62
670.25	22361.48
670.39	22307.65
670.53	22237.43
670.67	22033.80
670.81	22258.49
670.95	22324.03
671.09	22228.07
671.23	22515.95
671.37	22024.44
671.51	22005.72
671.65	22265.52
671.79	22073.59
671.93	21848.90
672.07	21869.97
672.21	21607.83
672.35	21860.60
672.49	21579.74
672.63	21795.07
672.77	21535.27
672.91	21303.56
673.05	21479.10
673.19	21507.18
673.33	21488.46
673.47	21308.24
673.61	21504.84
673.75	21146.74
673.89	21113.97
674.03	21317.60
674.17	21228.66
674.31	21408.88
674.45	21060.14
674.59	20957.16
674.73	21310.58
674.87	20875.24
675.01	20769.91
675.15	20809.70
675.29	20886.94
675.43	20849.49
675.56	20805.02
675.70	20596.71
675.84	20952.48
675.98	20262.02
676.12	20774.60
676.26	20947.79
676.40	20549.90
676.54	20552.24
676.68	20407.13
676.82	20390.75
676.96	20161.37
677.10	20147.33
677.23	20013.92
677.37	19978.81
677.51	19791.57
677.65	20276.06
677.79	19917.96
677.93	19777.53
678.07	19747.10
678.21	20058.39
678.34	19697.95
678.48	19566.88
678.62	19510.71
678.76	19623.05
678.90	19655.82
679.04	19609.01
679.18	19370.27
679.31	19014.51
679.45	19023.87
679.59	19190.05
679.73	19103.45
679.87	18771.10
680.00	18920.89
680.14	18970.04
680.28	19302.40
680.42	18750.03
680.56	18972.38
680.70	18876.42
680.83	18930.25
680.97	18845.99
681.11	18719.60
681.25	18494.91
681.39	18834.29
681.52	18576.83
681.66	18572.15
681.80	18436.40
681.94	18412.99
682.07	18408.31
682.21	18078.30
682.35	17750.62
682.49	17998.72
682.62	17659.34
682.76	18153.20
682.90	17802.11
683.04	18090.00
683.17	17549.34
683.31	17926.16
683.45	17886.37
683.59	17757.64
683.72	17448.69
683.86	17654.66
684.00	17514.23
684.13	17165.49
684.27	17153.79
684.41	17341.03
684.55	17123.36
684.68	17326.99
684.82	16957.18
684.96	17156.13
685.09	17081.23
685.23	17151.45
685.37	17198.26
685.50	17048.46
685.64	16751.21
685.78	16978.25
685.91	16908.03
686.05	16877.60
686.19	16758.24
686.32	16854.20
686.46	16430.56
686.60	16159.06
686.73	16655.25
686.87	16367.37
687.01	16315.87
687.14	16435.24
687.28	16084.16
687.42	16358.00
687.55	16077.14
687.69	16016.29
687.82	16009.26
687.96	16116.93
688.10	15662.86
688.23	15831.38
688.37	15896.92
688.50	15613.71
688.64	15957.77
688.78	15714.36
688.91	15534.14
689.05	15733.08
689.18	15487.32
689.32	15307.10
689.46	15201.78
689.59	15499.03
689.73	15096.46
689.86	15075.39
690.00	15091.77
690.13	15229.87
690.27	15138.58
690.41	15279.02
690.54	15066.03
690.68	14764.10
690.81	14977.09
690.95	14855.38
691.08	15164.33
691.22	14677.50
691.35	14602.60
691.49	14848.36
691.62	14656.43
691.76	14506.64
691.89	14450.47
692.03	14398.98
692.16	14230.46
692.30	14155.56
692.43	14160.24
692.57	14094.71
692.70	14066.62
692.84	14005.77
692.97	13769.37
693.11	13877.04
693.24	13951.93
693.38	14073.64
693.51	14010.45
693.65	13837.25
693.78	13940.23
693.92	13647.66
694.05	13750.65
694.19	13495.53
694.32	13685.11
694.45	13420.63
694.59	13231.05
694.72	13378.50
694.86	13296.58
694.99	13132.75
695.13	13179.56
695.26	13392.55
695.39	13132.75
695.53	13034.44
695.66	13369.14
695.80	13076.57
695.93	13043.81
696.07	12945.50
696.20	12767.62
696.33	12835.50
696.47	12805.07
696.60	12519.53
696.73	12676.34
696.87	12772.30
697.00	12620.17
697.14	12390.80
697.27	12180.15
697.40	12217.60
697.54	12133.34
697.67	12147.38
697.80	12135.68
697.94	12107.59
698.07	11913.33
698.21	11992.90
698.34	11932.05
698.47	11934.39
698.61	11903.96
698.74	11915.67
698.87	11817.36
699.01	12065.46
699.14	11620.76
699.27	11634.80
699.40	11707.36
699.54	11751.83
699.67	11536.50
699.80	11510.75
699.94	11272.02
700.07	11393.73
700.20	11089.46
700.34	11047.33
700.47	11304.79
700.60	11257.98
700.73	11133.93
700.87	11307.13
701.00	11297.77
701.13	11140.95
701.26	11084.78
701.40	10930.30
701.53	10960.73
701.66	10958.39
701.79	10813.28
701.93	10724.33
702.06	10684.55
702.19	10520.71
702.32	10504.32
702.46	10494.96
702.59	10504.32
702.72	10319.42
702.85	10263.25
702.99	10424.75
703.12	10272.61
703.25	10298.36
703.38	10361.55
703.51	10218.78
703.65	10305.38
703.78	10183.67
703.91	10155.58
704.04	10174.31
704.17	10174.31
704.31	9909.83
704.44	10050.26
704.57	9760.03
704.70	9783.44
704.83	9624.28
704.96	9509.60
705.10	9593.86
705.23	9708.54
>>>>>End Processed Spectral Data<<<<<
