SpectraSuite Data File
++++++++++++++++++++++++++++++++++++
Date: Fri Oct 18 13:58:23 GMT-05:00 2013
User: bianchi
Dark Spectrum Present: No
Reference Spectrum Present: No
Number of Sampled Component Spectra: 1
Spectrometers: USB2+H05261
Integration Time (usec): 50000 (USB2+H05261)
Spectra Averaged: 1 (USB2+H05261)
Boxcar Smoothing: 0 (USB2+H05261)
Correct for Electrical Dark: No (USB2+H05261)
Strobe/Lamp Enabled: No (USB2+H05261)
Correct for Detector Non-linearity: No (USB2+H05261)
Correct for Stray Light: No (USB2+H05261)
Number of Pixels in Processed Spectrum: 2048
>>>>>Begin Processed Spectral Data<<<<<
365.73	0.00
365.92	0.00
366.12	0.00
366.32	0.00
366.52	0.00
366.72	0.00
366.91	0.00
367.11	0.00
367.31	0.00
367.51	0.00
367.70	0.00
367.90	0.00
368.10	0.00
368.30	0.00
368.49	0.00
368.69	0.00
368.89	0.00
369.09	0.00
369.28	0.00
369.48	0.00
369.68	0.00
369.87	0.00
370.07	0.00
370.27	0.00
370.47	0.00
370.66	180.22
370.86	84.26
371.06	121.71
371.25	156.82
371.45	131.07
371.65	159.16
371.84	163.84
372.04	152.13
372.24	215.33
372.44	231.71
372.63	196.60
372.83	294.91
373.03	159.16
373.22	262.14
373.42	149.79
373.62	196.60
373.81	205.97
374.01	269.16
374.21	271.50
374.40	248.10
374.60	203.63
374.79	229.37
374.99	252.78
375.19	276.18
375.38	269.16
375.58	278.52
375.78	285.55
375.97	245.76
376.17	234.05
376.37	241.08
376.56	285.55
376.76	301.93
376.95	243.42
377.15	294.91
377.35	245.76
377.54	262.14
377.74	222.35
377.93	306.61
378.13	264.48
378.33	234.05
378.52	231.71
378.72	306.61
378.91	285.55
379.11	348.74
379.31	348.74
379.50	287.89
379.70	304.27
379.89	383.85
380.09	280.86
380.28	313.63
380.48	294.91
380.68	299.59
380.87	243.42
381.07	285.55
381.26	386.19
381.46	313.63
381.65	337.04
381.85	423.64
382.04	332.36
382.24	322.99
382.43	369.80
382.63	351.08
382.83	381.51
383.02	379.17
383.22	365.12
383.41	313.63
383.61	245.76
383.80	351.08
384.00	292.57
384.19	311.29
384.39	376.83
384.58	344.06
384.78	362.78
384.97	315.97
385.17	376.83
385.36	374.49
385.56	353.42
385.75	390.87
385.95	348.74
386.14	430.66
386.34	421.30
386.53	358.10
386.72	444.70
386.92	374.49
387.11	416.62
387.31	433.00
387.50	404.91
387.70	433.00
387.89	461.09
388.09	423.64
388.28	435.34
388.48	486.83
388.67	440.02
388.86	447.04
389.06	468.11
389.25	514.92
389.45	423.64
389.64	428.32
389.84	451.72
390.03	458.74
390.22	519.60
390.42	543.00
390.61	418.96
390.81	472.79
391.00	514.92
391.19	503.22
391.39	566.41
391.58	484.49
391.78	533.64
391.97	545.34
392.16	528.96
392.36	566.41
392.55	472.79
392.75	550.03
392.94	437.68
393.13	510.24
393.33	463.43
393.52	599.18
393.71	610.88
393.91	543.00
394.10	496.19
394.29	540.66
394.49	528.96
394.68	580.45
394.88	629.60
395.07	582.79
395.26	578.11
395.46	641.31
395.65	688.12
395.84	627.26
396.04	688.12
396.23	638.97
396.42	566.41
396.62	688.12
396.81	578.11
397.00	643.65
397.19	596.84
397.39	653.01
397.58	692.80
397.77	561.73
397.97	643.65
398.16	695.14
398.35	767.70
398.55	690.46
398.74	697.48
398.93	760.67
399.12	699.82
399.32	791.10
399.51	716.20
399.70	798.12
399.90	751.31
400.09	748.97
400.28	737.27
400.47	802.80
400.67	802.80
400.86	791.10
401.05	809.83
401.24	821.53
401.44	777.06
401.63	819.19
401.82	898.77
402.01	833.23
402.21	840.25
402.40	842.59
402.59	795.78
402.78	919.83
402.97	819.19
403.17	889.40
403.36	830.89
403.55	774.72
403.74	837.91
403.93	924.51
404.13	1018.13
404.32	910.47
404.51	884.72
404.70	940.90
404.89	959.62
405.09	903.45
405.28	924.51
405.47	1029.84
405.66	1020.47
405.85	1062.60
406.05	1004.09
406.24	929.19
406.43	1018.13
406.62	1041.54
406.81	1083.67
407.00	973.66
407.20	1055.58
407.39	997.07
407.58	1153.88
407.77	1048.56
407.96	1074.31
408.15	1039.20
408.34	1186.65
408.54	1090.69
408.73	1027.50
408.92	1121.12
409.11	1158.57
409.30	1191.33
409.49	1081.33
409.68	1130.48
409.87	1151.54
410.07	1090.69
410.26	1226.44
410.45	1116.44
410.64	1254.53
410.83	1226.44
411.02	1174.95
411.21	1193.67
411.40	1303.68
411.59	1240.48
411.78	1266.23
411.98	1252.19
412.17	1334.11
412.36	1334.11
412.55	1348.15
412.74	1341.13
412.93	1432.41
413.12	1348.15
413.31	1458.15
413.50	1369.21
413.69	1416.02
413.88	1411.34
414.07	1479.22
414.26	1451.13
414.45	1467.52
414.64	1504.96
414.83	1544.75
415.02	1500.28
415.22	1549.43
415.41	1598.59
415.60	1493.26
415.79	1558.80
415.98	1614.97
416.17	1582.20
416.36	1547.09
416.55	1570.50
416.74	1643.06
416.93	1629.01
417.12	1643.06
417.31	1549.43
417.50	1657.10
417.69	1797.53
417.88	1802.21
418.07	1699.23
418.26	1682.85
418.45	1827.96
418.64	1884.13
418.83	1797.53
419.02	1781.15
419.21	1898.17
419.39	1856.04
419.58	1764.76
419.77	1865.41
419.96	1825.62
420.15	1968.39
420.34	1879.45
420.53	1820.94
420.72	1963.71
420.91	1891.15
421.10	1947.33
421.29	2001.16
421.48	1923.92
421.67	1877.11
421.86	2031.58
422.05	1987.11
422.24	1947.33
422.43	1980.09
422.61	2010.52
422.80	2097.12
422.99	1977.75
423.18	1912.22
423.37	2036.27
423.56	2188.40
423.75	1989.46
423.94	1959.03
424.13	1937.96
424.32	1952.01
424.50	2066.69
424.69	2190.74
424.88	2069.03
425.07	1989.46
425.26	1973.07
425.45	2150.95
425.64	2139.25
425.83	2129.89
426.01	2076.06
426.20	2029.24
426.39	2062.01
426.58	2064.35
426.77	2104.14
426.96	2054.99
427.15	2174.36
427.33	2099.46
427.52	2139.25
427.71	2186.06
427.90	2139.25
428.09	2165.00
428.28	2176.70
428.46	2230.53
428.65	2221.17
428.84	2270.32
429.03	2326.49
429.22	2204.78
429.40	2293.72
429.59	2193.08
429.78	2134.57
429.97	2190.74
430.16	2172.02
430.34	2370.96
430.53	2408.41
430.72	2289.04
430.91	2473.95
431.10	2326.49
431.28	2354.58
431.47	2387.35
431.66	2464.58
431.85	2195.42
432.03	2408.41
432.22	2539.48
432.41	2462.24
432.60	2520.76
432.79	2363.94
432.97	2532.46
433.16	2445.86
433.35	2651.83
433.54	2492.67
433.72	2525.44
433.91	2506.71
434.10	2555.86
434.28	2560.55
434.47	2693.96
434.66	2464.58
434.85	2551.18
435.03	2656.51
435.22	2619.06
435.41	2558.21
435.59	2705.66
435.78	2705.66
435.97	2698.64
436.16	2637.78
436.34	2609.70
436.53	2717.36
436.72	2724.38
436.90	2717.36
437.09	2771.19
437.28	2726.72
437.46	2782.90
437.65	2787.58
437.84	2839.07
438.02	2675.23
438.21	2752.47
438.40	2782.90
438.58	2864.82
438.77	2913.97
438.96	2843.75
439.14	3075.46
439.33	3033.33
439.52	2918.65
439.70	2984.18
439.89	3047.38
440.08	3042.70
440.26	3126.96
440.45	3283.77
440.63	3084.83
440.82	3126.96
441.01	3049.72
441.19	3166.74
441.38	3243.98
441.57	3178.45
441.75	3227.60
441.94	3363.35
442.12	3253.34
442.31	3349.31
442.50	3391.44
442.68	3281.43
442.87	3302.50
443.05	3293.13
443.24	3269.73
443.43	3353.99
443.61	3407.82
443.80	3445.27
443.98	3393.78
444.17	3290.79
444.35	3478.04
444.54	3478.04
444.73	3513.14
444.91	3501.44
445.10	3478.04
445.28	3375.05
445.47	3403.14
445.65	3522.51
445.84	3405.48
446.02	3433.57
446.21	3473.36
446.39	3435.91
446.58	3499.10
446.77	3456.97
446.95	3517.83
447.14	3492.08
447.32	3384.41
447.51	3569.32
447.69	3485.06
447.88	3576.34
448.06	3499.10
448.25	3400.80
448.43	3597.40
448.62	3520.17
448.80	3515.48
448.99	3557.61
449.17	3616.13
449.36	3672.30
449.54	3599.74
449.73	3651.24
449.91	3906.35
450.10	3782.31
450.28	3712.09
450.46	3777.62
450.65	3824.44
450.83	3779.97
451.02	3625.49
451.20	3950.82
451.39	3957.85
451.57	3786.99
451.76	3693.37
451.94	3854.86
452.13	3770.60
452.31	3925.08
452.49	3854.86
452.68	3794.01
452.86	3829.12
453.05	3920.40
453.23	4002.32
453.42	3819.75
453.60	3964.87
453.78	3854.86
453.97	4049.13
454.15	3920.40
454.34	3885.29
454.52	4154.45
454.70	3974.23
454.89	4039.76
455.07	4018.70
455.26	4100.62
455.44	4257.43
455.62	4161.47
455.81	4145.09
455.99	4241.05
456.17	4229.35
456.36	4299.56
456.54	4280.84
456.73	4236.37
456.91	4320.63
457.09	4250.41
457.28	4376.80
457.46	4210.62
457.64	4365.10
457.83	4376.80
458.01	4306.59
458.19	4479.79
458.38	4519.57
458.56	4498.51
458.74	4423.61
458.93	4449.36
459.11	4519.57
459.29	4575.75
459.48	4573.41
459.66	4383.82
459.84	4517.23
460.03	4772.35
460.21	4528.94
460.39	4592.13
460.57	4540.64
460.76	4669.37
460.94	4566.39
461.12	4552.34
461.31	4891.72
461.49	4692.77
461.67	4561.70
461.85	4737.24
462.04	4641.28
462.22	4947.89
462.40	4905.76
462.59	4755.97
462.77	4805.12
462.95	4851.93
463.13	4858.95
463.32	4830.87
463.50	4676.39
463.68	4833.21
463.86	4760.65
464.05	4938.53
464.23	4875.34
464.41	4917.47
464.59	4823.84
464.78	5107.05
464.96	4901.08
465.14	4774.69
465.32	4992.36
465.50	5102.37
465.69	5128.11
465.87	4971.30
466.05	4887.04
466.23	5085.98
466.41	5146.84
466.60	4999.38
466.78	5001.72
466.96	5001.72
467.14	5207.69
467.32	5198.33
467.51	5137.48
467.69	5088.32
467.87	5191.31
468.05	5186.63
468.23	5233.44
468.41	5224.08
468.60	5245.14
468.78	5387.91
468.96	5167.90
469.14	5458.13
469.32	5387.91
469.50	5207.69
469.69	5542.39
469.87	5406.64
470.05	5460.47
470.23	5495.58
470.41	5495.58
470.59	5558.77
470.77	5556.43
470.95	5430.04
471.14	5518.98
471.32	5572.82
471.50	5612.60
471.68	5589.20
471.86	5575.16
472.04	5614.95
472.22	5935.60
472.40	5476.85
472.58	5621.97
472.77	5841.98
472.95	5865.38
473.13	5935.60
473.31	5914.53
473.49	6031.56
473.67	5930.92
473.85	6026.88
474.03	6101.78
474.21	6237.53
474.39	6026.88
474.57	6064.33
474.75	6272.64
474.93	6366.26
475.12	6092.41
475.30	6183.70
475.48	6190.72
475.66	6169.65
475.84	6272.64
476.02	6375.62
476.20	6307.74
476.38	6560.52
476.56	6682.23
476.74	6766.49
476.92	6633.08
477.10	6640.10
477.28	6843.73
477.46	6616.69
477.64	6860.11
477.82	6925.65
478.00	6981.82
478.18	6988.84
478.36	7087.14
478.54	7009.90
478.72	7260.34
478.90	7274.38
479.08	7288.43
479.26	7246.30
479.44	7335.24
479.62	7208.85
479.80	7475.67
479.98	7421.84
480.16	7749.51
480.34	7442.90
480.52	7695.68
480.70	7728.45
480.88	7698.02
481.06	7728.45
481.24	7819.73
481.41	7894.63
481.59	8030.38
481.77	7939.10
481.95	8046.76
482.13	8205.92
482.31	8243.37
482.49	8376.78
482.67	8252.73
482.85	8393.16
483.03	8355.71
483.21	8681.05
483.39	8772.33
483.57	8648.28
483.74	8559.34
483.92	8725.52
484.10	8634.24
484.28	8933.82
484.46	9128.09
484.64	9275.54
484.82	9156.18
485.00	9076.60
485.18	9373.85
485.35	9621.94
485.53	9263.84
485.71	9488.53
485.89	9966.00
486.07	9788.12
486.25	9776.42
486.43	9617.26
486.61	9839.61
486.78	10031.54
486.96	9942.60
487.14	10181.33
487.32	10076.01
487.50	10162.61
487.68	10207.08
487.85	10438.79
488.03	10553.48
488.21	10530.07
488.39	10707.95
488.57	10630.71
488.75	10843.70
488.92	11061.37
489.10	11089.46
489.28	10897.53
489.46	11028.60
489.64	11164.36
489.81	11534.16
489.99	11487.35
490.17	11590.33
490.35	11604.38
490.53	11667.57
490.70	11681.61
490.88	11686.29
491.06	11737.79
491.24	12049.08
491.41	11850.13
491.59	12123.98
491.77	12100.57
491.95	12245.68
492.13	12250.36
492.30	12369.73
492.48	12334.62
492.66	12472.71
492.84	12489.10
493.01	12739.54
493.19	12692.73
493.37	12856.56
493.54	12842.52
493.72	13074.23
493.90	13193.60
494.08	13097.64
494.25	13013.38
494.43	13287.22
494.61	13605.53
494.79	13371.48
494.96	13724.90
495.14	13408.93
495.32	13565.74
495.49	13717.88
495.67	13465.10
495.85	13708.52
496.02	14033.85
496.20	13862.99
496.38	14195.35
496.55	14080.66
496.73	14530.05
496.91	14270.25
497.09	14328.76
497.26	14441.11
497.44	14600.26
497.62	14637.71
497.79	14719.63
497.97	14640.05
498.14	14850.70
498.32	14665.80
498.50	14820.27
498.67	14846.02
498.85	14827.29
499.03	15286.04
499.20	15201.78
499.38	15279.02
499.56	15199.44
499.73	15307.10
499.91	15613.71
500.08	15702.65
500.26	15386.68
500.44	15639.46
500.61	15791.59
500.79	15822.02
500.97	15756.49
501.14	16056.08
501.32	15798.62
501.49	16095.86
501.67	16051.39
501.84	16233.96
502.02	16140.33
502.20	16032.67
502.37	16252.68
502.55	16297.15
502.72	16292.47
502.90	16358.00
503.07	16430.56
503.25	16503.12
503.43	16365.03
503.60	16830.79
503.78	16627.17
503.95	16585.04
504.13	16826.11
504.30	16645.89
504.48	16840.15
504.65	17039.10
504.83	17064.85
505.01	17060.16
505.18	16973.56
505.36	17460.40
505.53	16889.31
505.71	17275.49
505.88	17343.37
506.06	17179.53
506.23	17502.53
506.41	17341.03
506.58	17465.08
506.76	17741.26
506.93	17631.26
507.11	17432.31
507.28	17619.55
507.46	17839.56
507.63	17965.95
507.81	18171.92
507.98	17977.65
508.16	18066.60
508.33	17816.16
508.50	17961.27
508.68	17984.68
508.85	18504.28
509.03	18331.08
509.20	18452.78
509.38	18492.57
509.55	18710.24
509.73	18562.79
509.90	18422.36
510.08	18410.65
510.25	18649.39
510.42	18530.02
510.60	19035.58
510.77	18759.39
510.95	18953.66
511.12	18827.27
511.30	18757.05
511.47	19159.63
511.64	18845.99
511.82	19360.91
511.99	19222.82
512.17	19367.93
512.34	19257.93
512.51	19229.84
512.69	19503.68
512.86	19590.28
513.04	19601.99
513.21	19360.91
513.38	19503.68
513.56	19817.32
513.73	19508.37
513.90	19660.50
514.08	19480.28
514.25	19843.06
514.43	19847.74
514.60	19882.85
514.77	19866.47
514.95	20140.31
515.12	19943.70
515.29	20072.43
515.47	20109.88
515.64	20166.06
515.81	20264.36
515.99	20182.44
516.16	20493.73
516.33	20594.37
516.51	20870.56
516.68	20276.06
516.85	20421.17
517.03	20617.78
517.20	20912.69
517.37	20629.48
517.54	20896.30
517.72	20669.27
517.89	20847.15
518.06	20526.50
518.24	20917.37
518.41	21067.16
518.58	20919.71
518.75	21158.44
518.93	21511.86
519.10	21076.52
519.27	21013.33
519.45	21322.28
519.62	21003.97
519.79	21078.86
519.96	21231.00
520.14	21418.24
520.31	21432.29
520.48	21563.36
520.65	21125.68
520.83	21586.76
521.00	21610.17
521.17	21654.64
521.34	21682.72
521.52	22244.45
521.69	21830.18
521.86	22209.34
522.03	21853.58
522.20	22061.89
522.38	22127.42
522.55	21846.56
522.72	21851.24
522.89	21715.49
523.07	22417.65
523.24	22132.11
523.41	22480.85
523.58	22249.13
523.75	22485.53
523.92	22204.66
524.10	22398.93
524.27	22604.89
524.44	22209.34
524.61	22370.84
524.78	22539.36
524.96	22817.88
525.13	22892.78
525.30	22363.82
525.47	22754.69
525.64	22710.22
525.81	23070.66
525.98	23028.53
526.16	23058.96
526.33	23152.58
526.50	23426.42
526.67	23250.88
526.84	23000.44
527.01	23115.13
527.18	22981.72
527.36	23403.02
527.53	23248.54
527.70	23510.68
527.87	23222.80
528.04	23201.73
528.21	23452.17
528.38	23131.51
528.55	23489.62
528.72	23585.58
528.89	23683.88
529.07	23592.60
529.24	23648.77
529.41	23498.98
529.58	23613.66
529.75	23854.74
529.92	23667.50
530.09	23903.89
530.26	23880.49
530.43	23805.59
530.60	23681.54
530.77	23845.38
530.94	23793.89
531.11	24009.22
531.28	23915.59
531.46	24273.70
531.63	24009.22
531.80	24189.44
531.97	24678.61
532.14	24287.74
532.31	24313.48
532.48	24247.95
532.65	24086.45
532.82	24060.71
532.99	24201.14
533.16	24411.79
533.33	24528.81
533.50	24982.88
533.67	24783.93
533.84	24517.11
534.01	24507.75
534.18	24666.91
534.35	24648.18
534.52	24659.88
534.69	24802.66
534.86	24978.20
535.03	24961.81
535.20	24807.34
535.37	25074.16
535.54	25099.90
535.71	24594.35
535.88	24748.82
536.05	24643.50
536.22	25214.59
536.38	25109.27
536.55	25319.92
536.72	25378.43
536.89	25399.49
537.06	25074.16
537.23	25296.51
537.40	25357.36
537.57	25132.67
537.74	25348.00
537.91	25458.01
538.08	25659.29
538.25	25071.82
538.42	25785.68
538.59	25509.50
538.75	25350.34
538.92	25415.88
539.09	25392.47
539.26	25645.25
539.43	25476.73
539.60	25867.60
539.77	25642.91
539.94	26001.01
540.11	25263.74
540.28	26001.01
540.44	25785.68
540.61	26101.65
540.78	25790.36
540.95	25944.84
541.12	26171.87
541.29	25834.83
541.46	26122.72
541.62	26068.89
541.79	26267.83
541.96	25928.45
542.13	26260.81
542.30	25759.94
542.47	26246.77
542.63	26710.19
542.80	26698.49
542.97	26277.19
543.14	26909.14
543.31	26396.56
543.48	26473.80
543.64	26621.25
543.81	26415.29
543.98	26616.57
544.15	27103.40
544.32	26492.52
544.48	27166.60
544.65	26696.15
544.82	26597.85
544.99	26520.61
545.16	26733.60
545.32	26740.62
545.49	27157.24
545.66	27182.98
545.83	26995.74
546.00	27108.08
546.16	26885.73
546.33	26562.74
546.50	26927.86
546.67	27470.87
546.83	26639.98
547.00	27332.78
547.17	27026.17
547.34	27161.92
547.50	27197.02
547.67	27498.95
547.84	27468.53
548.00	26948.93
548.17	27604.28
548.34	27356.18
548.51	27229.79
548.67	27241.50
548.84	27545.76
549.01	27552.79
549.18	27594.92
549.34	27583.21
549.51	27414.69
549.68	27744.71
549.84	27592.58
550.01	27576.19
550.18	27433.42
550.34	27468.53
550.51	27936.63
550.68	27866.42
550.84	27520.02
551.01	27817.27
551.18	27297.67
551.34	27255.54
551.51	27473.21
551.68	27817.27
551.84	28030.26
552.01	27828.97
552.18	28168.35
552.34	27676.83
552.51	27821.95
552.68	27744.71
552.84	28156.64
553.01	28128.56
553.18	28444.53
553.34	27847.69
553.51	28362.61
553.67	28339.21
553.84	28587.30
554.01	28112.17
554.17	28467.94
554.34	28416.44
554.51	28336.87
554.67	28264.31
554.84	28467.94
555.00	28137.92
555.17	28400.06
555.33	28339.21
555.50	28371.97
555.67	28610.71
555.83	28334.53
556.00	28355.59
556.16	28439.85
556.33	28636.45
556.50	28617.73
556.66	28711.35
556.83	28510.07
556.99	28795.61
557.16	28704.33
557.32	29067.11
557.49	28683.27
557.65	28542.83
557.82	28463.25
557.98	28645.82
558.15	28711.35
558.32	28973.49
558.48	28947.75
558.65	29039.03
558.81	28699.65
558.98	28657.52
559.14	29362.02
559.31	28538.15
559.47	29006.26
559.64	29099.88
559.80	28933.70
559.97	29432.24
560.13	29116.26
560.30	28996.90
560.46	29322.23
560.63	28662.20
560.79	28760.50
560.96	29177.12
561.12	29233.29
561.29	28776.89
561.45	28999.24
561.61	29062.43
561.78	29373.72
561.94	28910.30
562.11	29228.61
562.27	29081.16
562.44	28886.89
562.60	29193.50
562.77	29048.39
562.93	28662.20
563.10	29324.57
563.26	29053.07
563.42	29390.11
563.59	29369.04
563.75	29621.82
563.92	29486.07
564.08	29099.88
564.24	28863.49
564.41	29198.18
564.57	29605.44
564.74	29280.10
564.90	29567.99
565.07	29603.10
565.23	29296.49
565.39	29195.84
565.56	29755.23
565.72	29439.26
565.88	29333.93
566.05	29191.16
566.21	28910.30
566.38	29404.15
566.54	29483.73
566.70	30099.29
566.87	29797.36
567.03	29942.47
567.19	30162.48
567.36	29575.01
567.52	29626.50
567.68	29397.13
567.85	29441.60
568.01	29336.27
568.17	29902.68
568.34	29823.11
568.50	29839.49
568.66	29579.69
568.83	30110.99
568.99	29378.40
569.15	29546.92
569.32	29769.27
569.48	29530.54
569.64	29628.84
569.81	29743.53
569.97	29745.87
570.13	29717.78
570.30	29773.95
570.46	29769.27
570.62	29575.01
570.78	29472.03
570.95	29483.73
571.11	29640.54
571.27	29663.95
571.43	29567.99
571.60	29521.18
571.76	29366.70
571.92	29991.62
572.09	29677.99
572.25	29614.80
572.41	29736.51
572.57	29862.90
572.74	29827.79
572.90	29528.20
573.06	29780.98
573.22	30024.39
573.38	29961.20
573.55	29717.78
573.71	30136.74
573.87	29963.54
574.03	29940.13
574.20	29996.31
574.36	29792.68
574.52	29694.38
574.68	29841.83
574.84	30190.57
575.01	30127.38
575.17	30064.18
575.33	29542.24
575.49	29745.87
575.65	30363.77
575.82	29708.42
575.98	30019.71
576.14	30213.98
576.30	30190.57
576.46	29883.96
576.62	29635.86
576.79	30059.50
576.95	29970.56
577.11	30354.41
577.27	30244.40
577.43	30085.25
577.59	30300.58
577.75	29982.26
577.92	29830.13
578.08	29715.44
578.24	29713.10
578.40	30155.46
578.56	29898.00
578.72	30122.69
578.88	30518.25
579.04	30426.96
579.21	30129.72
579.37	30160.14
579.53	30295.89
579.69	30225.68
579.85	29783.32
580.01	29860.55
580.17	29549.26
580.33	30349.73
580.49	29942.47
580.65	30199.93
580.82	30213.98
580.98	30342.70
581.14	30293.55
581.30	30345.05
581.46	29886.30
581.62	29699.06
581.78	29783.32
581.94	30331.00
582.10	29832.47
582.26	30162.48
582.42	30150.78
582.58	30256.11
582.74	30483.14
582.90	29930.77
583.06	30307.60
583.22	30293.55
583.38	30218.66
583.54	30164.82
583.70	30295.89
583.86	30178.87
584.02	30071.20
584.18	30232.70
584.34	30494.84
584.50	30096.95
584.66	29895.66
584.82	29944.81
584.98	30118.01
585.14	30031.41
585.30	29977.58
585.46	30211.64
585.62	30319.30
585.78	30408.24
585.94	29855.87
586.10	30338.02
586.26	30080.56
586.42	30637.61
586.58	30110.99
586.74	30110.99
586.90	30274.83
587.06	30108.65
587.22	30375.47
587.38	30043.12
587.54	30352.07
587.70	30422.28
587.86	30164.82
588.02	30363.77
588.18	30717.19
588.34	30464.41
588.49	30178.87
588.65	29862.90
588.81	30300.58
588.97	30258.45
589.13	30197.59
589.29	30237.38
589.45	30225.68
589.61	30415.26
589.77	30342.70
589.93	30874.01
590.08	30998.06
590.24	30345.05
590.40	30445.69
590.56	30326.32
590.72	30691.44
590.88	30122.69
591.04	30157.80
591.20	30883.37
591.35	30710.17
591.51	30485.48
591.67	30817.83
591.83	30890.39
591.99	30586.12
592.15	30508.88
592.31	30354.41
592.46	30478.46
592.62	30583.78
592.78	30560.37
592.94	30775.70
593.10	30410.58
593.26	30803.79
593.41	30508.88
593.57	30771.02
593.73	30661.02
593.89	30876.35
594.05	30548.67
594.20	30721.87
594.36	30522.93
594.52	30412.92
594.68	30710.17
594.84	30572.08
594.99	30857.62
595.15	30717.19
595.31	30866.98
595.47	30771.02
595.62	30764.00
595.78	30602.50
595.94	30396.54
596.10	30726.55
596.25	30417.60
596.41	30401.22
596.57	30642.29
596.73	30602.50
596.88	30497.18
597.04	30632.93
597.20	31133.81
597.36	31098.70
597.51	30843.58
597.67	30951.24
597.83	30459.73
597.99	30675.06
598.14	30651.66
598.30	30529.95
598.46	30710.17
598.61	30724.21
598.77	30714.85
598.93	31194.66
599.09	31225.09
599.24	31508.29
599.40	30649.32
599.56	30934.86
599.71	30834.22
599.87	31061.25
600.03	30576.76
600.18	30663.36
600.34	30785.07
600.50	30958.27
600.65	30583.78
600.81	31438.08
600.97	30890.39
601.12	30993.37
601.28	30747.62
601.44	30551.01
601.59	30838.90
601.75	30691.44
601.91	30785.07
602.06	30345.05
602.22	30827.20
602.37	30775.70
602.53	30625.91
602.69	30925.50
602.84	30768.68
603.00	31079.97
603.16	31180.62
603.31	31199.34
603.47	30621.23
603.62	30536.97
603.78	30735.92
603.94	30541.65
604.09	30670.38
604.25	31072.95
604.40	30747.62
604.56	30712.51
604.71	31131.47
604.87	30916.14
605.03	31101.04
605.18	31042.53
605.34	30951.24
605.49	30562.72
605.65	30677.40
605.80	30518.25
605.96	30412.92
606.12	30527.61
606.27	30808.47
606.43	30455.05
606.58	31037.84
606.74	30607.19
606.89	30881.03
607.05	30532.29
607.20	30675.06
607.36	30558.03
607.51	30771.02
607.67	30333.34
607.82	30480.80
607.98	30581.44
608.13	30799.11
608.29	30735.92
608.44	30562.72
608.60	30756.98
608.75	30682.08
608.91	30864.64
609.06	30562.72
609.22	30850.60
609.37	30298.23
609.53	30396.54
609.68	30529.95
609.84	29813.74
609.99	30637.61
610.15	30017.37
610.30	30438.67
610.46	30705.49
610.61	30543.99
610.76	30579.10
610.92	30712.51
611.07	30206.95
611.23	30288.87
611.38	30221.00
611.54	30015.03
611.69	30403.56
611.84	29961.20
612.00	30206.95
612.15	30309.94
612.31	30689.10
612.46	30450.37
612.62	30747.62
612.77	30263.13
612.92	30551.01
613.08	30146.10
613.23	30363.77
613.39	30213.98
613.54	30061.84
613.69	30047.80
613.85	30059.50
614.00	30155.46
614.15	30106.31
614.31	30125.04
614.46	30635.27
614.62	30380.15
614.77	30223.34
614.92	30143.76
615.08	29949.50
615.23	29830.13
615.38	30209.29
615.54	29912.05
615.69	29977.58
615.84	30066.52
616.00	30202.27
616.15	29916.73
616.30	30239.72
616.46	29956.52
616.61	29893.32
616.76	30328.66
616.92	30164.82
617.07	30244.40
617.22	29881.62
617.37	29837.15
617.53	30019.71
617.68	29713.10
617.83	29567.99
617.99	30010.35
618.14	29593.73
618.29	29703.74
618.45	29862.90
618.60	30160.14
618.75	29968.22
618.90	30181.21
619.06	29759.91
619.21	29869.92
619.36	29874.60
619.51	29933.11
619.67	29727.14
619.82	29460.32
619.97	29575.01
620.12	29350.32
620.28	29528.20
620.43	29790.34
620.58	29809.06
620.73	30050.14
620.89	29439.26
621.04	30068.86
621.19	29972.90
621.34	29406.49
621.49	29373.72
621.65	29560.97
621.80	29797.36
621.95	29254.36
622.10	29149.03
622.25	29371.38
622.41	29462.66
622.56	29413.51
622.71	29635.86
622.86	29455.64
623.01	29502.45
623.16	29350.32
623.32	29642.88
623.47	29069.45
623.62	29317.55
623.77	29439.26
623.92	29181.80
624.07	29104.56
624.23	29324.57
624.38	29460.32
624.53	29380.74
624.68	29167.76
624.83	29462.66
624.98	29415.85
625.13	29221.59
625.29	29469.69
625.44	29167.76
625.59	28732.42
625.74	29371.38
625.89	28760.50
626.04	28701.99
626.19	28858.81
626.34	29156.05
626.49	28788.59
626.65	29078.82
626.80	29113.92
626.95	28931.36
627.10	29022.64
627.25	28996.90
627.40	28627.09
627.55	28549.85
627.70	28458.57
627.85	28606.03
628.00	28662.20
628.15	29067.11
628.30	28453.89
628.45	28819.02
628.60	28514.75
628.76	28671.56
628.91	28460.91
629.06	28510.07
629.21	28620.07
629.36	28711.35
629.51	28601.35
629.66	28449.21
629.81	28486.66
629.96	28381.34
630.11	28575.60
630.26	28339.21
630.41	28833.06
630.56	28072.39
630.71	28673.90
630.86	28460.91
631.01	28397.72
631.16	28929.02
631.31	28254.95
631.46	27978.76
631.61	28407.08
631.76	28163.67
631.91	28489.00
632.06	27983.44
632.21	28184.73
632.36	28320.48
632.51	28292.40
632.66	28063.02
632.81	28313.46
632.96	28254.95
633.10	28704.33
633.25	28210.48
633.40	28435.17
633.55	28308.78
633.70	28046.64
633.85	27880.46
634.00	27597.26
634.15	28004.51
634.30	28053.66
634.45	27887.48
634.60	28381.34
634.75	28346.23
634.90	27953.02
635.05	28009.19
635.19	27948.34
635.34	27611.30
635.49	28273.67
635.64	28032.60
635.79	28002.17
635.94	27784.50
636.09	27807.90
636.24	27857.06
636.39	27852.38
636.53	27665.13
636.68	27618.32
636.83	27590.24
636.98	27828.97
637.13	27765.78
637.28	27817.27
637.43	27840.67
637.57	28056.00
637.72	27302.35
637.87	27550.45
638.02	27803.22
638.17	28217.50
638.32	27590.24
638.46	27833.65
638.61	27421.72
638.76	27199.37
638.91	27271.92
639.06	27470.87
639.20	27623.00
639.35	27585.55
639.50	27882.80
639.65	27697.90
639.80	27456.82
639.94	27087.02
640.09	27536.40
640.24	27400.65
640.39	27564.49
640.54	27087.02
640.68	26768.71
640.83	27220.43
640.98	27342.14
641.13	27051.91
641.27	27316.39
641.42	27665.13
641.57	27400.65
641.72	27417.04
641.86	27370.22
642.01	26993.40
642.16	27070.64
642.31	27037.87
642.45	27204.05
642.60	26714.87
642.75	27159.58
642.90	27033.19
643.04	26944.25
643.19	26721.90
643.34	27091.70
643.48	26808.50
643.63	26810.84
643.78	27056.59
643.93	26719.56
644.07	27232.13
644.22	27091.70
644.37	27269.58
644.51	27147.87
644.66	26885.73
644.81	26836.58
644.95	26595.51
645.10	26572.10
645.25	26644.66
645.39	27124.47
645.54	26726.58
645.69	26803.82
645.83	26773.39
645.98	26820.20
646.13	26939.57
646.27	26562.74
646.42	26534.65
646.57	26867.01
646.71	26817.86
646.86	26459.76
647.00	26597.85
647.15	26403.58
647.30	26672.74
647.44	26576.78
647.59	26333.37
647.74	26363.79
647.88	26712.53
648.03	26553.38
648.17	26490.18
648.32	26883.39
648.47	26532.31
648.61	26429.33
648.76	26780.41
648.90	26410.60
649.05	26504.23
649.20	26214.00
649.34	26366.13
649.49	25874.62
649.63	26143.78
649.78	26349.75
649.92	25809.09
650.07	26403.58
650.21	26036.12
650.36	26265.49
650.51	25940.16
650.65	26375.50
650.80	26288.90
650.94	26195.28
651.09	26153.15
651.23	26150.81
651.38	26134.42
651.52	26260.81
651.67	25781.00
651.81	26499.55
651.96	26183.57
652.10	25853.56
652.25	26183.57
652.39	25982.29
652.54	26410.60
652.68	25986.97
652.83	26118.04
652.97	26284.22
653.12	25628.87
653.26	25809.09
653.41	26066.55
653.55	25514.18
653.70	25619.50
653.84	25582.06
653.99	25703.76
654.13	25481.41
654.27	25820.79
654.42	25996.33
654.56	25731.85
654.71	25965.90
654.85	25743.55
655.00	25963.56
655.14	25827.81
655.29	25502.48
655.43	25905.05
655.57	25652.27
655.72	25336.30
655.86	25710.78
656.01	25727.17
656.15	25458.01
656.30	25607.80
656.44	25956.54
656.58	25275.45
656.73	25458.01
656.87	25467.37
657.01	25385.45
657.16	25429.92
657.30	25607.80
657.45	25450.99
657.59	25205.23
657.73	25624.18
657.88	25530.56
658.02	25490.77
658.16	25270.76
658.31	25057.78
658.45	25411.20
658.60	25027.35
658.74	24971.18
658.88	25106.93
659.03	24730.10
659.17	25362.04
659.31	25113.95
659.46	25212.25
659.60	25392.47
659.74	24790.95
659.89	24947.77
660.03	24982.88
660.17	24968.84
660.32	24669.25
660.46	24769.89
660.60	24503.07
660.74	24765.21
660.89	24617.75
661.03	24442.21
661.17	24470.30
661.32	24753.51
661.46	24957.13
661.60	24711.38
661.74	24477.32
661.89	24985.22
662.03	24971.18
662.17	24496.05
662.31	24608.39
662.46	24109.86
662.60	24407.11
662.74	24341.57
662.88	24142.63
663.03	24072.41
663.17	24168.37
663.31	23922.62
663.45	24325.19
663.60	24147.31
663.74	23946.02
663.88	23988.15
664.02	24182.42
664.17	24170.71
664.31	24088.79
664.45	24016.24
664.59	23950.70
664.73	24049.00
664.88	24231.57
665.02	23571.54
665.16	23988.15
665.30	23758.78
665.44	23601.96
665.59	23257.90
665.73	23840.70
665.87	23784.52
666.01	23700.26
666.15	23623.03
666.29	23468.55
666.44	23648.77
666.58	23349.18
666.72	23424.08
666.86	23623.03
667.00	23709.63
667.14	23585.58
667.28	23377.27
667.43	23035.55
667.57	23087.04
667.71	23208.75
667.85	23452.17
667.99	22937.25
668.13	23084.70
668.27	23580.90
668.41	23377.27
668.56	22850.65
668.70	23250.88
668.84	22993.42
668.98	23084.70
669.12	23035.55
669.26	22829.59
669.40	22899.80
669.54	22869.37
669.68	23117.47
669.82	22733.62
669.96	22810.86
670.10	22604.89
670.25	22750.01
670.39	22405.95
670.53	22565.10
670.67	22448.08
670.81	22635.32
670.95	22419.99
671.09	22300.62
671.23	22366.16
671.37	22586.17
671.51	22721.92
671.65	22436.38
671.79	22249.13
671.93	22087.64
672.07	22015.08
672.21	22003.38
672.35	21958.91
672.49	22003.38
672.63	21900.39
672.77	21799.75
672.91	21937.84
673.05	21710.81
673.19	21771.66
673.33	21951.88
673.47	21975.29
673.61	21692.08
673.75	21909.75
673.89	21696.77
674.03	21965.93
674.17	21642.93
674.31	21556.33
674.45	21530.59
674.59	21605.49
674.73	21748.26
674.87	21429.94
675.01	21034.39
675.15	21458.03
675.29	21120.99
675.43	21399.52
675.56	21041.42
675.70	21048.44
675.84	21053.12
675.98	20470.33
676.12	21301.22
676.26	21083.55
676.40	21170.15
676.54	21116.31
676.68	21013.33
676.82	20540.54
676.96	20821.41
677.10	20348.62
677.23	20407.13
677.37	20617.78
677.51	20608.42
677.65	20137.97
677.79	20159.03
677.93	19976.47
678.07	20372.02
678.21	19807.95
678.34	19983.49
678.48	19913.28
678.62	19782.21
678.76	19604.33
678.90	19829.02
679.04	19599.65
679.18	19845.40
679.31	19225.16
679.45	19426.45
679.59	19419.42
679.73	19311.76
679.87	19145.58
680.00	19016.85
680.14	19066.00
680.28	19077.71
680.42	19023.87
680.56	19138.56
680.70	19293.04
680.83	19126.86
680.97	19173.67
681.11	19126.86
681.25	18796.84
681.39	18834.29
681.52	18878.76
681.66	18782.80
681.80	18918.55
681.94	18375.55
682.07	18633.00
682.21	18635.35
682.35	18310.01
682.49	18204.69
682.62	18106.38
682.76	17827.86
682.90	18185.96
683.04	18473.85
683.17	18300.65
683.31	18288.95
683.45	18314.69
683.59	18153.20
683.72	17759.98
683.86	17877.01
684.00	17916.80
684.13	17783.39
684.27	17841.90
684.41	17661.68
684.55	17507.21
684.68	17458.06
684.82	17565.72
684.96	16961.86
685.09	17373.80
685.23	17104.64
685.37	17097.61
685.50	17291.88
685.64	17331.67
685.78	17109.32
685.91	17057.82
686.05	17102.29
686.19	16954.84
686.32	17156.13
686.46	16594.40
686.60	16702.06
686.73	16807.39
686.87	16641.21
687.01	16276.09
687.14	16484.39
687.28	16397.79
687.42	16262.04
687.55	16114.59
687.69	16444.60
687.82	16369.71
687.96	16453.97
688.10	16437.58
688.23	16182.46
688.37	16088.84
688.50	15981.18
688.64	16278.43
688.78	16159.06
688.91	15772.87
689.05	15950.75
689.18	15555.20
689.32	15609.03
689.46	15599.67
689.59	15632.44
689.73	15550.52
689.86	15536.48
690.00	15463.92
690.13	15445.20
690.27	15433.49
690.41	15419.45
690.54	15318.81
690.68	15449.88
690.81	15241.57
690.95	15325.83
691.08	15122.20
691.22	15176.03
691.35	15136.24
691.49	14913.89
691.62	14906.87
691.76	14602.60
691.89	14581.54
692.03	14565.15
692.16	14223.44
692.30	14431.74
692.43	14202.37
692.57	14398.98
692.70	14326.42
692.84	14267.91
692.97	14015.13
693.11	14087.68
693.24	14242.16
693.38	14038.53
693.51	14171.94
693.65	14214.07
693.78	13823.20
693.92	14045.55
694.05	13823.20
694.19	13841.93
694.32	13855.97
694.45	13631.28
694.59	13481.49
694.72	13532.98
694.86	13284.88
694.99	13289.56
695.13	13254.45
695.26	13390.20
695.39	13329.35
695.53	13209.98
695.66	13502.55
695.80	13298.92
695.93	13345.73
696.07	13362.12
696.20	13057.85
696.33	13441.70
696.47	12826.14
696.60	13022.74
696.73	12739.54
696.87	12854.22
697.00	12924.44
697.14	12540.59
697.27	12512.50
697.40	12470.37
697.54	12233.98
697.67	12479.74
697.80	12241.00
697.94	12372.07
698.07	12243.34
698.21	12163.76
698.34	12264.41
698.47	12138.02
698.61	12304.20
698.74	12105.25
698.87	12343.99
699.01	11796.30
699.14	11950.78
699.27	11988.22
699.40	12018.65
699.54	11747.15
699.67	11698.00
699.80	11765.87
699.94	11698.00
700.07	11749.49
700.20	11480.33
700.34	11342.24
700.47	11295.43
700.60	11417.13
700.73	11454.58
700.87	11363.30
701.00	11323.51
701.13	11349.26
701.26	11508.41
701.40	11407.77
701.53	11070.73
701.66	11059.03
701.79	10846.04
701.93	11026.26
702.06	10860.09
702.19	10890.51
702.32	10752.42
702.46	10850.72
702.59	10677.52
702.72	10509.01
702.85	10686.89
702.99	10513.69
703.12	10471.56
703.25	10523.05
703.38	10377.94
703.51	10448.15
703.65	10298.36
703.78	10314.74
703.91	10235.16
704.04	10136.86
704.17	10263.25
704.31	10251.55
704.44	10040.90
704.57	9989.41
704.70	10040.90
704.83	9792.80
704.96	9881.74
705.10	9743.65
705.23	9743.65
>>>>>End Processed Spectral Data<<<<<
