SpectraSuite Data File
++++++++++++++++++++++++++++++++++++
Date: Fri Oct 18 13:58:04 GMT-05:00 2013
User: bianchi
Dark Spectrum Present: No
Reference Spectrum Present: No
Number of Sampled Component Spectra: 1
Spectrometers: USB2+H05261
Integration Time (usec): 50000 (USB2+H05261)
Spectra Averaged: 1 (USB2+H05261)
Boxcar Smoothing: 0 (USB2+H05261)
Correct for Electrical Dark: No (USB2+H05261)
Strobe/Lamp Enabled: No (USB2+H05261)
Correct for Detector Non-linearity: No (USB2+H05261)
Correct for Stray Light: No (USB2+H05261)
Number of Pixels in Processed Spectrum: 2048
>>>>>Begin Processed Spectral Data<<<<<
365.73	0.00
365.92	0.00
366.12	0.00
366.32	0.00
366.52	0.00
366.72	0.00
366.91	0.00
367.11	0.00
367.31	0.00
367.51	0.00
367.70	0.00
367.90	0.00
368.10	0.00
368.30	0.00
368.49	0.00
368.69	0.00
368.89	0.00
369.09	0.00
369.28	0.00
369.48	0.00
369.68	0.00
369.87	0.00
370.07	0.00
370.27	0.00
370.47	0.00
370.66	95.96
370.86	91.28
371.06	88.94
371.25	166.18
371.45	182.56
371.65	121.71
371.84	161.50
372.04	259.80
372.24	182.56
372.44	166.18
372.63	175.54
372.83	241.08
373.03	201.29
373.22	222.35
373.42	243.42
373.62	149.79
373.81	217.67
374.01	285.55
374.21	299.59
374.40	283.20
374.60	205.97
374.79	170.86
374.99	243.42
375.19	203.63
375.38	273.84
375.58	220.01
375.78	262.14
375.97	299.59
376.17	313.63
376.37	198.95
376.56	266.82
376.76	297.25
376.95	182.56
377.15	257.46
377.35	255.12
377.54	280.86
377.74	297.25
377.93	304.27
378.13	255.12
378.33	245.76
378.52	294.91
378.72	346.40
378.91	269.16
379.11	280.86
379.31	341.72
379.50	280.86
379.70	337.04
379.89	337.04
380.09	262.14
380.28	245.76
380.48	220.01
380.68	241.08
380.87	351.08
381.07	287.89
381.26	351.08
381.46	299.59
381.65	299.59
381.85	285.55
382.04	348.74
382.24	404.91
382.43	339.38
382.63	388.53
382.83	383.85
383.02	416.62
383.22	337.04
383.41	311.29
383.61	341.72
383.80	435.34
384.00	358.10
384.19	369.80
384.39	308.95
384.58	358.10
384.78	386.19
384.97	484.49
385.17	393.21
385.36	414.27
385.56	397.89
385.75	407.25
385.95	358.10
386.14	411.93
386.34	451.72
386.53	468.11
386.72	376.83
386.92	435.34
387.11	346.40
387.31	423.64
387.50	437.68
387.70	360.44
387.89	470.45
388.09	430.66
388.28	425.98
388.48	440.02
388.67	493.85
388.86	404.91
389.06	440.02
389.25	470.45
389.45	533.64
389.64	472.79
389.84	547.69
390.03	505.56
390.22	526.62
390.42	491.51
390.61	442.36
390.81	603.86
391.00	479.81
391.19	435.34
391.39	496.19
391.58	552.37
391.78	489.17
391.97	629.60
392.16	528.96
392.36	540.66
392.55	540.66
392.75	512.58
392.94	531.30
393.13	592.16
393.33	634.29
393.52	491.51
393.71	634.29
393.91	606.20
394.10	510.24
394.29	564.07
394.49	557.05
394.68	631.94
394.88	606.20
395.07	603.86
395.26	594.50
395.46	650.67
395.65	695.14
395.84	655.35
396.04	674.07
396.23	702.16
396.42	566.41
396.62	606.20
396.81	599.18
397.00	723.23
397.19	657.69
397.39	667.05
397.58	627.26
397.77	617.90
397.97	753.65
398.16	648.33
398.35	746.63
398.55	653.01
398.74	683.44
398.93	699.82
399.12	681.10
399.32	674.07
399.51	660.03
399.70	748.97
399.90	748.97
400.09	739.61
400.28	814.51
400.47	765.36
400.67	823.87
400.86	730.25
401.05	800.46
401.24	798.12
401.44	753.65
401.63	781.74
401.82	828.55
402.01	777.06
402.21	861.32
402.40	917.49
402.59	758.33
402.78	870.68
402.97	940.90
403.17	952.60
403.36	924.51
403.55	898.77
403.74	807.48
403.93	976.00
404.13	898.77
404.32	896.43
404.51	847.27
404.70	968.98
404.89	957.28
405.09	1015.79
405.28	910.47
405.47	931.53
405.66	978.34
405.85	1011.11
406.05	1039.20
406.24	933.87
406.43	1027.50
406.62	1071.97
406.81	1078.99
407.00	1093.03
407.20	964.30
407.39	994.73
407.58	1043.88
407.77	1034.52
407.96	1093.03
408.15	1142.18
408.34	1102.39
408.54	1088.35
408.73	1027.50
408.92	1036.86
409.11	1135.16
409.30	1245.16
409.49	1193.67
409.68	1111.75
409.87	1181.97
410.07	1259.21
410.26	1090.69
410.45	1270.91
410.64	1177.29
410.83	1203.04
411.02	1224.10
411.21	1191.33
411.40	1263.89
411.59	1287.29
411.78	1280.27
411.98	1228.78
412.17	1287.29
412.36	1238.14
412.55	1338.79
412.74	1401.98
412.93	1376.24
413.12	1277.93
413.31	1462.83
413.50	1425.39
413.69	1416.02
413.88	1493.26
414.07	1455.81
414.26	1430.07
414.45	1551.78
414.64	1516.67
414.83	1495.60
415.02	1640.72
415.22	1554.12
415.41	1533.05
415.60	1629.01
415.79	1509.65
415.98	1631.35
416.17	1558.80
416.36	1600.93
416.55	1612.63
416.74	1678.16
416.93	1603.27
417.12	1570.50
417.31	1699.23
417.50	1734.34
417.69	1699.23
417.88	1727.32
418.07	1844.34
418.26	1891.15
418.45	1771.79
418.64	1811.57
418.83	1797.53
419.02	1767.10
419.21	1739.02
419.39	1888.81
419.58	1902.86
419.77	1902.86
419.96	1830.30
420.15	1891.15
420.34	1898.17
420.53	1956.69
420.72	1921.58
420.91	1968.39
421.10	1886.47
421.29	2015.20
421.48	1966.05
421.67	1996.48
421.86	1860.73
422.05	1961.37
422.24	1973.07
422.43	2029.24
422.61	2033.93
422.80	2085.42
422.99	2001.16
423.18	2052.65
423.37	2087.76
423.56	2078.40
423.75	1973.07
423.94	2031.58
424.13	1947.33
424.32	1963.71
424.50	2106.48
424.69	2045.63
424.88	2125.21
425.07	1975.41
425.26	1937.96
425.45	2118.18
425.64	2038.61
425.83	2052.65
426.01	2141.59
426.20	2045.63
426.39	2113.50
426.58	2169.68
426.77	2038.61
426.96	2062.01
427.15	2143.93
427.33	2073.71
427.52	2181.38
427.71	2286.70
427.90	2139.25
428.09	2270.32
428.28	2260.96
428.46	2239.89
428.65	2232.87
428.84	2326.49
429.03	2408.41
429.22	2258.62
429.40	2256.28
429.59	2361.60
429.78	2228.19
429.97	2239.89
430.16	2291.38
430.34	2305.43
430.53	2319.47
430.72	2370.96
430.91	2338.20
431.10	2272.66
431.28	2387.35
431.47	2349.90
431.66	2483.31
431.85	2377.98
432.03	2569.91
432.22	2567.57
432.41	2532.46
432.60	2406.07
432.79	2429.48
432.97	2469.27
433.16	2633.10
433.35	2504.37
433.54	2389.69
433.72	2593.31
433.91	2541.82
434.10	2513.74
434.28	2434.16
434.47	2609.70
434.66	2693.96
434.85	2729.06
435.03	2679.91
435.22	2642.46
435.41	2787.58
435.59	2635.44
435.78	2759.49
435.97	2729.06
436.16	2722.04
436.34	2698.64
436.53	2668.21
436.72	2918.65
436.90	2745.45
437.09	2789.92
437.28	2705.66
437.46	2789.92
437.65	2738.43
437.84	2864.82
438.02	2787.58
438.21	2825.03
438.40	2855.45
438.58	2864.82
438.77	2899.92
438.96	2995.89
439.14	3030.99
439.33	2974.82
439.52	3103.55
439.70	3002.91
439.89	3073.12
440.08	3080.14
440.26	3019.29
440.45	3049.72
440.63	3096.53
440.82	3138.66
441.01	3103.55
441.19	3183.13
441.38	3258.03
441.57	3239.30
441.75	3166.74
441.94	3325.90
442.12	3290.79
442.31	3365.69
442.50	3349.31
442.68	3332.92
442.87	3276.75
443.05	3323.56
443.24	3468.67
443.43	3417.18
443.61	3361.01
443.80	3377.39
443.98	3265.05
444.17	3204.19
444.35	3398.46
444.54	3414.84
444.73	3473.36
444.91	3473.36
445.10	3510.80
445.28	3421.86
445.47	3375.05
445.65	3489.74
445.84	3431.23
446.02	3550.59
446.21	3515.48
446.39	3311.86
446.58	3393.78
446.77	3522.51
446.95	3449.95
447.14	3559.95
447.32	3583.36
447.51	3492.08
447.69	3534.21
447.88	3543.57
448.06	3496.76
448.25	3522.51
448.43	3517.83
448.62	3667.62
448.80	3564.64
448.99	3658.26
449.17	3550.59
449.36	3581.02
449.54	3770.60
449.73	3754.22
449.91	3707.41
450.10	3777.62
450.28	3695.71
450.46	3740.18
450.65	3829.12
450.83	3873.59
451.02	3707.41
451.20	3981.25
451.39	3756.56
451.57	3768.26
451.76	3744.86
451.94	3852.52
452.13	3920.40
452.31	3971.89
452.49	3836.14
452.68	3913.38
452.86	3850.18
453.05	4011.68
453.23	3913.38
453.42	3981.25
453.60	3882.95
453.78	4037.42
453.97	3868.91
454.15	3836.14
454.34	4109.98
454.52	4187.22
454.70	4025.72
454.89	4046.79
455.07	4170.83
455.26	4124.02
455.44	4177.86
455.62	4049.13
455.81	4166.15
455.99	4271.48
456.17	4315.95
456.36	4114.66
456.54	4205.94
456.73	4255.09
456.91	4404.89
457.09	4348.72
457.28	4454.04
457.46	4301.90
457.64	4430.63
457.83	4374.46
458.01	4437.66
458.19	4477.44
458.38	4390.84
458.56	4641.28
458.74	4517.23
458.93	4355.74
459.11	4678.73
459.29	4339.35
459.48	4517.23
459.66	4407.23
459.84	4493.83
460.03	4540.64
460.21	4554.68
460.39	4493.83
460.57	4617.88
460.76	4678.73
460.94	4748.95
461.12	4723.20
461.31	4791.08
461.49	4610.86
461.67	4561.70
461.85	4875.34
462.04	4884.70
462.22	4980.66
462.40	4800.44
462.59	4772.35
462.77	4851.93
462.95	4968.96
463.13	4762.99
463.32	4760.65
463.50	4968.96
463.68	4828.53
463.86	4873.00
464.05	4772.35
464.23	4723.20
464.41	4830.87
464.59	4873.00
464.78	5074.28
464.96	5125.77
465.14	4922.15
465.32	5050.88
465.50	5071.94
465.69	4966.62
465.87	5046.20
466.05	5074.28
466.23	5081.30
466.41	5282.59
466.60	5345.78
466.78	5160.88
466.96	5085.98
467.14	5233.44
467.32	5170.24
467.51	5212.37
467.69	5123.43
467.87	5242.80
468.05	5291.95
468.23	5172.58
468.41	5123.43
468.60	5242.80
468.78	5364.51
468.96	5266.21
469.14	5357.49
469.32	5467.49
469.50	5348.12
469.69	5451.11
469.87	5413.66
470.05	5500.26
470.23	5614.95
470.41	5434.72
470.59	5504.94
470.77	5425.36
470.95	5448.77
471.14	5689.84
471.32	5509.62
471.50	5802.19
471.68	5781.12
471.86	5682.82
472.04	5860.70
472.22	5837.30
472.40	5734.31
472.58	5738.99
472.77	5804.53
472.95	5907.51
473.13	6031.56
473.31	5898.15
473.49	6132.20
473.67	5984.75
473.85	5849.00
474.03	6204.76
474.21	6111.14
474.39	5994.11
474.57	6286.68
474.75	6244.55
474.93	6317.11
475.12	6179.01
475.30	6232.85
475.48	6260.93
475.66	6319.45
475.84	6403.71
476.02	6513.71
476.20	6473.92
476.38	6621.38
476.56	6675.21
476.74	6754.79
476.92	6642.44
477.10	6579.25
477.28	6817.98
477.46	6579.25
477.64	6806.28
477.82	6813.30
478.00	7096.50
478.18	7054.37
478.36	7084.80
478.54	7138.63
478.72	7311.83
478.90	7335.24
479.08	7162.04
479.26	7321.20
479.44	7307.15
479.62	7501.42
479.80	7412.48
479.98	7676.96
480.16	7714.41
480.34	7747.17
480.52	7719.09
480.70	7786.96
480.88	7705.04
481.06	7714.41
481.24	7964.84
481.41	7899.31
481.59	7915.69
481.77	8107.62
481.95	8109.96
482.13	8470.40
482.31	8262.09
482.49	8549.98
482.67	8505.51
482.85	8346.35
483.03	8718.50
483.21	8819.14
483.39	8795.73
483.57	8603.81
483.74	8816.80
483.92	8987.66
484.10	8833.18
484.28	9062.55
484.46	9092.98
484.64	9537.68
484.82	9074.26
485.00	9195.96
485.18	9406.61
485.35	9451.08
485.53	9549.39
485.71	9579.81
485.89	9570.45
486.07	9753.01
486.25	9958.98
486.43	9687.48
486.61	9851.31
486.78	9989.41
486.96	9947.28
487.14	10230.48
487.32	10279.63
487.50	10394.32
487.68	10281.97
487.85	10483.26
488.03	10530.07
488.21	10714.97
488.39	10731.36
488.57	10820.30
488.75	10712.63
488.92	10949.03
489.10	10967.75
489.28	11215.85
489.46	11154.99
489.64	11529.48
489.81	11461.60
489.99	11365.64
490.17	11426.50
490.35	11477.99
490.53	11824.39
490.70	11817.36
490.88	11758.85
491.06	11857.15
491.24	11906.31
491.41	11847.79
491.59	12301.86
491.77	12159.08
491.95	12444.63
492.13	12278.45
492.30	12650.60
492.48	12367.39
492.66	12535.91
492.84	12383.77
493.01	12744.22
493.19	12690.38
493.37	12929.12
493.54	12774.64
493.72	13123.38
493.90	13186.58
494.08	13195.94
494.25	13352.76
494.43	13329.35
494.61	13249.77
494.79	13893.42
494.96	13635.96
495.14	13514.25
495.32	13895.76
495.49	13963.64
495.67	13865.33
495.85	13802.14
496.02	14139.18
496.20	14183.65
496.38	14106.41
496.55	14162.58
496.73	14436.42
496.91	14436.42
497.09	14583.88
497.26	14728.99
497.44	14450.47
497.62	14569.83
497.79	14850.70
497.97	15021.56
498.14	14745.38
498.32	15096.46
498.50	15236.89
498.67	15276.68
498.85	15185.40
499.03	15281.36
499.20	15463.92
499.38	15187.74
499.56	15658.18
499.73	15403.07
499.91	15468.60
500.08	15529.45
500.26	15644.14
500.44	15662.86
500.61	15932.03
500.79	15770.53
500.97	16112.25
501.14	16105.23
501.32	16170.76
501.49	16119.27
501.67	16252.68
501.84	15873.51
502.02	16032.67
502.20	16365.03
502.37	16524.18
502.55	16283.11
502.72	16631.85
502.90	16638.87
503.07	16477.37
503.25	16503.12
503.43	16353.32
503.60	16809.73
503.78	17034.42
503.95	16587.38
504.13	16905.69
504.30	16945.48
504.48	17039.10
504.65	17027.40
504.83	17315.28
505.01	17231.02
505.18	17254.43
505.36	17687.43
505.53	17200.60
505.71	17591.47
505.88	17493.16
506.06	17425.29
506.23	17565.72
506.41	17364.43
506.58	17769.35
506.76	17818.50
506.93	17596.15
507.11	17877.01
507.28	17872.33
507.46	17837.22
507.63	18104.04
507.81	18312.35
507.98	18200.01
508.16	18094.68
508.33	18132.13
508.50	18420.02
508.68	18504.28
508.85	18478.53
509.03	18382.57
509.20	18520.66
509.38	18698.54
509.55	18614.28
509.73	18607.26
509.90	18824.93
510.08	18827.27
510.25	18370.86
510.42	18885.78
510.60	19164.31
510.77	19061.32
510.95	18948.98
511.12	18857.70
511.30	19468.58
511.47	19166.65
511.64	18876.42
511.82	19236.86
511.99	19269.63
512.17	19506.02
512.34	19321.12
512.51	19796.25
512.69	19468.58
512.86	19601.99
513.04	19789.23
513.21	19646.46
513.38	19939.02
513.56	19929.66
513.73	19882.85
513.90	19772.85
514.08	19847.74
514.25	20184.78
514.43	20257.34
514.60	20208.19
514.77	20217.55
514.95	20184.78
515.12	20184.78
515.29	20065.41
515.47	20727.78
515.64	20365.00
515.81	20643.52
515.99	20685.65
516.16	20889.28
516.33	20451.60
516.51	20673.95
516.68	20910.35
516.85	20519.48
517.03	20706.72
517.20	20870.56
517.37	20809.70
517.54	20641.18
517.72	20891.62
517.89	21043.76
518.06	20879.92
518.24	20917.37
518.41	20931.41
518.58	21104.61
518.75	21039.08
518.93	21415.90
519.10	21385.47
519.27	21539.95
519.45	21268.45
519.62	21359.73
519.79	21507.18
519.96	21532.93
520.14	21408.88
520.31	21586.76
520.48	21706.13
520.65	21432.29
520.83	22061.89
521.00	21715.49
521.17	21818.47
521.34	21769.32
521.52	22045.51
521.69	21853.58
521.86	21982.31
522.03	22155.51
522.20	22078.27
522.38	22305.31
522.55	22328.71
522.72	22235.09
522.89	22382.54
523.07	22771.07
523.24	22277.22
523.41	22480.85
523.58	22370.84
523.75	22827.24
523.92	22459.78
524.10	22614.26
524.27	22829.59
524.44	22869.37
524.61	22878.74
524.78	22883.42
524.96	22754.69
525.13	22728.94
525.30	22595.53
525.47	22883.42
525.64	22892.78
525.81	22897.46
525.98	23068.32
526.16	23262.58
526.33	23323.44
526.50	23496.64
526.67	23122.15
526.84	23044.91
527.01	23335.14
527.18	23318.76
527.36	23655.79
527.53	23552.81
527.70	24013.90
527.87	23470.89
528.04	23957.72
528.21	23749.42
528.38	23648.77
528.55	24004.53
528.72	23564.51
528.89	24147.31
529.07	23803.25
529.24	23498.98
529.41	23868.78
529.58	24004.53
529.75	23702.61
529.92	24100.50
530.09	24039.64
530.26	24329.87
530.43	24357.96
530.60	23931.98
530.77	23988.15
530.94	24191.78
531.11	24156.67
531.28	23840.70
531.46	23948.36
531.63	24269.01
531.80	24699.67
531.97	24350.93
532.14	24636.48
532.31	24643.50
532.48	24559.24
532.65	24313.48
532.82	24329.87
532.99	24692.65
533.16	24858.83
533.33	24961.81
533.50	25048.41
533.67	24943.09
533.84	24645.84
534.01	24755.85
534.18	24720.74
534.35	24992.24
534.52	24669.25
534.69	25032.03
534.86	25209.91
535.03	24758.19
535.20	24945.43
535.37	25153.74
535.54	25525.88
535.71	24800.32
535.88	24774.57
536.05	25333.96
536.22	25469.71
536.38	25462.69
536.55	25411.20
536.72	25167.78
536.89	25167.78
537.06	25350.34
537.23	25331.62
537.40	25631.21
537.57	25488.43
537.74	25560.99
537.91	26043.14
538.08	26300.60
538.25	25537.59
538.42	25949.52
538.59	25818.45
538.75	25549.29
538.92	25867.60
539.09	26057.18
539.26	25979.95
539.43	26092.29
539.60	26178.89
539.77	26115.70
539.94	25678.02
540.11	26150.81
540.28	25984.63
540.44	26005.69
540.61	25968.24
540.78	26176.55
540.95	25975.27
541.12	26181.23
541.29	26096.97
541.46	26225.70
541.62	26036.12
541.79	26476.14
541.96	26160.17
542.13	26092.29
542.30	26225.70
542.47	26490.18
542.63	26607.21
542.80	26614.23
542.97	26803.82
543.14	26876.37
543.31	26801.47
543.48	27033.19
543.64	26881.05
543.81	27028.51
543.98	26817.86
544.15	27023.83
544.32	27365.54
544.48	26630.62
544.65	26925.52
544.82	27075.32
544.99	26698.49
545.16	27150.21
545.32	27016.80
545.49	27344.48
545.66	27147.87
545.83	27302.35
546.00	27161.92
546.16	26977.01
546.33	27372.57
546.50	26768.71
546.67	27569.17
546.83	26700.83
547.00	27337.46
547.17	27908.55
547.34	27534.06
547.50	27700.24
547.67	27562.15
547.84	27688.54
548.00	27501.29
548.17	27784.50
548.34	27587.89
548.51	27828.97
548.67	27608.96
548.84	27981.10
549.01	27630.02
549.18	27695.56
549.34	27704.92
549.51	27826.63
549.68	27693.22
549.84	27728.33
550.01	28088.77
550.18	27793.86
550.34	28100.47
550.51	28423.47
550.68	28343.89
550.84	27356.18
551.01	28409.42
551.18	28128.56
551.34	27697.90
551.51	28018.55
551.68	27903.87
551.84	28252.61
552.01	28107.49
552.18	28243.24
552.34	28034.94
552.51	28313.46
552.68	28591.98
552.84	28357.93
553.01	28645.82
553.18	28254.95
553.34	28086.43
553.51	28493.68
553.67	28692.63
553.84	28779.23
554.01	28652.84
554.17	28474.96
554.34	28662.20
554.51	28325.16
554.67	28685.61
554.84	28283.03
555.00	28386.02
555.17	28512.41
555.33	28828.38
555.50	28811.99
555.67	28687.95
555.83	28701.99
556.00	28779.23
556.16	29050.73
556.33	28767.52
556.50	28875.19
556.66	28870.51
556.83	28737.10
556.99	29455.64
557.16	29111.58
557.32	28950.09
557.49	29329.25
557.65	29010.94
557.82	28950.09
557.98	29191.16
558.15	28772.21
558.32	29415.85
558.48	29280.10
558.65	29329.25
558.81	29254.36
558.98	29523.52
559.14	29415.85
559.31	28975.83
559.47	29256.70
559.64	28975.83
559.80	29219.25
559.97	29551.60
560.13	29500.11
560.30	29469.69
560.46	29125.63
560.63	29474.37
560.79	29493.09
560.96	29708.42
561.12	29333.93
561.29	29214.57
561.45	29748.21
561.61	29631.18
561.78	29165.42
561.94	29612.46
562.11	29837.15
562.27	29626.50
562.44	29137.33
562.60	29219.25
562.77	28975.83
562.93	29373.72
563.10	30150.78
563.26	29537.56
563.42	29514.16
563.59	29647.57
563.75	29586.71
563.92	29790.34
564.08	29411.17
564.24	29369.04
564.41	29582.03
564.57	29287.12
564.74	29584.37
564.90	29993.97
565.07	29865.24
565.23	29776.30
565.39	29567.99
565.56	29982.26
565.72	29628.84
565.88	29467.34
566.05	29465.00
566.21	29558.63
566.38	30012.69
566.54	29788.00
566.70	29780.98
566.87	30302.92
567.03	30082.91
567.19	30096.95
567.36	29998.65
567.52	29979.92
567.68	30033.75
567.85	29940.13
568.01	29893.32
568.17	29551.60
568.34	30033.75
568.50	29977.58
568.66	29993.97
568.83	30171.85
568.99	30272.49
569.15	30078.22
569.32	29565.65
569.48	29839.49
569.64	29741.19
569.81	30242.06
569.97	29963.54
570.13	30221.00
570.30	29874.60
570.46	30270.15
570.62	30277.17
570.78	30033.75
570.95	30082.91
571.11	30073.54
571.27	29811.40
571.43	30221.00
571.60	30195.25
571.76	30443.35
571.92	30195.25
572.09	30022.05
572.25	30284.19
572.41	30263.13
572.57	30286.53
572.74	30541.65
572.90	29750.55
573.06	30092.27
573.22	29954.18
573.38	30087.59
573.55	30431.65
573.71	30520.59
573.87	30125.04
574.03	29921.41
574.20	30024.39
574.36	30340.36
574.52	30328.66
574.68	30110.99
574.84	30508.88
575.01	30281.85
575.17	30256.11
575.33	30218.66
575.49	30279.51
575.65	30314.62
575.82	30380.15
575.98	30071.20
576.14	30068.86
576.30	30361.43
576.46	30536.97
576.62	30223.34
576.79	30225.68
576.95	30384.83
577.11	30642.29
577.27	30574.42
577.43	30555.69
577.59	30768.68
577.75	30485.48
577.92	30342.70
578.08	29975.24
578.24	30197.59
578.40	30202.27
578.56	30321.64
578.72	30534.63
578.88	30712.51
579.04	30703.15
579.21	30106.31
579.37	30548.67
579.53	30295.89
579.69	29942.47
579.85	30174.19
580.01	30375.47
580.17	30293.55
580.33	30614.21
580.49	30555.69
580.65	30352.07
580.82	30536.97
580.98	30579.10
581.14	30588.46
581.30	30609.53
581.46	30417.60
581.62	29954.18
581.78	30483.14
581.94	30211.64
582.10	30433.99
582.26	29923.75
582.42	30218.66
582.58	30962.95
582.74	30579.10
582.90	30565.06
583.06	30740.60
583.22	30047.80
583.38	30672.72
583.54	30185.89
583.70	30396.54
583.86	30850.60
584.02	30691.44
584.18	30787.41
584.34	30815.49
584.50	30925.50
584.66	30347.39
584.82	30377.81
584.98	30279.51
585.14	30836.56
585.30	30852.94
585.46	30258.45
585.62	30448.03
585.78	30391.86
585.94	30380.15
586.10	30813.15
586.26	30450.37
586.42	31168.91
586.58	30740.60
586.74	30735.92
586.90	30721.87
587.06	30462.07
587.22	30654.00
587.38	30347.39
587.54	31058.91
587.70	30953.58
587.86	30817.83
588.02	30836.56
588.18	30705.49
588.34	30714.85
588.49	30876.35
588.65	30522.93
588.81	30534.63
588.97	30745.28
589.13	30696.13
589.29	30871.67
589.45	30625.91
589.61	30932.52
589.77	30874.01
589.93	30642.29
590.08	31274.24
590.24	30778.04
590.40	30897.41
590.56	30766.34
590.72	30986.35
590.88	31056.57
591.04	30937.20
591.20	30843.58
591.35	31281.26
591.51	31105.72
591.67	31299.98
591.83	31461.48
591.99	30773.36
592.15	31005.08
592.31	31229.77
592.46	30771.02
592.62	31182.96
592.78	30939.54
592.94	31115.08
593.10	30831.88
593.26	31225.09
593.41	31248.49
593.57	31023.80
593.73	30848.26
593.89	31274.24
594.05	31033.16
594.20	30773.36
594.36	31044.87
594.52	30841.24
594.68	31082.31
594.84	30888.05
594.99	31307.01
595.15	30646.97
595.31	31384.24
595.47	30710.17
595.62	31164.23
595.78	30911.46
595.94	31122.10
596.10	31007.42
596.25	30520.59
596.41	30604.84
596.57	30707.83
596.73	31473.18
596.88	31007.42
597.04	31304.67
597.20	31056.57
597.36	31562.12
597.51	31365.52
597.67	30930.18
597.83	31119.76
597.99	31131.47
598.14	30869.33
598.30	30993.37
598.46	31316.37
598.61	31131.47
598.77	31220.41
598.93	31491.91
599.09	31068.27
599.24	31644.04
599.40	31363.18
599.56	31035.50
599.71	31356.16
599.87	31079.97
600.03	31400.63
600.18	31297.64
600.34	30953.58
600.50	31208.70
600.65	31199.34
600.81	31358.50
600.97	31058.91
601.12	31564.46
601.28	31241.47
601.44	31328.07
601.59	31637.02
601.75	31094.02
601.91	31248.49
602.06	31075.29
602.22	30899.75
602.37	31358.50
602.53	31690.85
602.69	31061.25
602.84	31473.18
603.00	31585.53
603.16	31374.88
603.31	31208.70
603.47	31140.83
603.62	31194.66
603.78	31218.07
603.94	30932.52
604.09	30878.69
604.25	31283.60
604.40	30974.65
604.56	31307.01
604.71	31243.81
604.87	31012.10
605.03	31227.43
605.18	31276.58
605.34	31398.29
605.49	30677.40
605.65	30749.96
605.80	30637.61
605.96	30848.26
606.12	31009.76
606.27	30960.61
606.43	31131.47
606.58	31248.49
606.74	31101.04
606.89	30881.03
607.05	31498.93
607.20	31288.28
607.36	30960.61
607.51	31269.56
607.67	31082.31
607.82	31180.62
607.98	31299.98
608.13	31250.83
608.29	31016.78
608.44	30920.82
608.60	30892.73
608.75	31321.05
608.91	30866.98
609.06	30820.17
609.22	31435.74
609.37	30759.32
609.53	30614.21
609.68	30766.34
609.84	30520.59
609.99	30927.84
610.15	30614.21
610.30	30604.84
610.46	30899.75
610.61	30834.22
610.76	30962.95
610.92	31133.81
611.07	31208.70
611.23	30796.77
611.38	30417.60
611.54	30274.83
611.69	30749.96
611.84	30441.01
612.00	30794.43
612.15	30419.94
612.31	31065.93
612.46	30939.54
612.62	30539.31
612.77	30607.19
612.92	31204.02
613.08	30728.89
613.23	30721.87
613.39	30375.47
613.54	30684.42
613.69	30363.77
613.85	30595.48
614.00	30499.52
614.15	30869.33
614.31	30583.78
614.46	30888.05
614.62	30850.60
614.77	30663.36
614.92	30588.46
615.08	30878.69
615.23	30658.68
615.38	30911.46
615.54	30312.28
615.69	30483.14
615.84	30223.34
616.00	30452.71
616.15	30373.13
616.30	30637.61
616.46	30176.53
616.61	30377.81
616.76	30803.79
616.92	29876.94
617.07	30670.38
617.22	30373.13
617.37	30576.76
617.53	30508.88
617.68	30462.07
617.83	30277.17
617.99	30293.55
618.14	30291.21
618.29	30466.75
618.45	30642.29
618.60	30125.04
618.75	30085.25
618.90	30298.23
619.06	30377.81
619.21	30567.40
619.36	30202.27
619.51	29820.77
619.67	29755.23
619.82	29535.22
619.97	30476.12
620.12	30338.02
620.28	29977.58
620.43	30342.70
620.58	30094.61
620.73	30113.33
620.89	30185.89
621.04	30373.13
621.19	30295.89
621.34	29858.21
621.49	29720.12
621.65	29942.47
621.80	29799.70
621.95	29628.84
622.10	29762.25
622.25	29715.44
622.41	29713.10
622.56	29942.47
622.71	30024.39
622.86	29514.16
623.01	29490.75
623.16	29675.65
623.32	29879.28
623.47	29591.39
623.62	29750.55
623.77	29146.69
623.92	29600.76
624.07	29572.67
624.23	29525.86
624.38	29537.56
624.53	29567.99
624.68	29879.28
624.83	29769.27
624.98	29497.77
625.13	29287.12
625.29	29748.21
625.44	29165.42
625.59	29301.17
625.74	29603.10
625.89	29200.52
626.04	29284.78
626.19	29060.09
626.34	29455.64
626.49	29294.14
626.65	29106.90
626.80	29425.22
626.95	29022.64
627.10	29244.99
627.25	29212.23
627.40	29125.63
627.55	29247.33
627.70	29078.82
627.85	28790.93
628.00	29186.48
628.15	29198.18
628.30	28987.53
628.45	29109.24
628.60	29336.27
628.76	29156.05
628.91	29170.10
629.06	29149.03
629.21	29027.32
629.36	29214.57
629.51	29102.22
629.66	29003.92
629.81	28765.18
629.96	28875.19
630.11	28858.81
630.26	28821.36
630.41	28830.72
630.56	28400.06
630.71	28851.78
630.86	28744.12
631.01	28868.17
631.16	28676.24
631.31	29046.05
631.46	28526.45
631.61	28858.81
631.76	28776.89
631.91	28673.90
632.06	28189.41
632.21	28694.97
632.36	28458.57
632.51	28486.66
632.66	28952.43
632.81	28503.04
632.96	28568.58
633.10	29130.31
633.25	28685.61
633.40	28699.65
633.55	28924.34
633.70	28678.58
633.85	28224.52
634.00	28474.96
634.15	28290.06
634.30	28390.70
634.45	28119.20
634.60	28123.88
634.75	28613.05
634.90	28102.81
635.05	28376.66
635.19	28533.47
635.34	28496.02
635.49	28634.11
635.64	28126.22
635.79	28189.41
635.94	27997.49
636.09	28395.38
636.24	28086.43
636.39	28409.42
636.53	28280.69
636.68	28142.60
636.83	28065.36
636.98	28079.41
637.13	28098.13
637.28	28184.73
637.43	27974.08
637.57	27906.21
637.72	27786.84
637.87	27915.57
638.02	27496.61
638.17	27817.27
638.32	28095.79
638.46	27761.09
638.61	27758.75
638.76	27594.92
638.91	27725.99
639.06	27756.41
639.20	27896.85
639.35	27999.83
639.50	27784.50
639.65	28250.27
639.80	28243.24
639.94	28137.92
640.09	28175.37
640.24	27559.81
640.39	27807.90
640.54	27559.81
640.68	27545.76
640.83	27318.73
640.98	27281.28
641.13	27424.06
641.27	27803.22
641.42	27679.18
641.57	27428.74
641.72	27683.86
641.86	27290.65
642.01	27564.49
642.16	27566.83
642.31	27498.95
642.45	27433.42
642.60	27489.59
642.75	27356.18
642.90	27054.25
643.04	27087.02
643.19	27190.00
643.34	27424.06
643.48	27276.60
643.63	27637.05
643.78	27138.51
643.93	27255.54
644.07	27367.88
644.22	27438.10
644.37	27332.78
644.51	27356.18
644.66	27091.70
644.81	26934.88
644.95	26841.26
645.10	26850.63
645.25	27138.51
645.39	27318.73
645.54	27253.20
645.69	27253.20
645.83	27255.54
645.98	27122.13
646.13	27257.88
646.27	27295.33
646.42	27307.03
646.57	26789.77
646.71	27475.55
646.86	27150.21
647.00	26876.37
647.15	26792.11
647.30	26178.89
647.44	26824.88
647.59	26965.31
647.74	26703.17
647.88	26920.84
648.03	27056.59
648.17	27199.37
648.32	26930.20
648.47	26991.06
648.61	26998.08
648.76	26951.27
648.90	26724.24
649.05	26822.54
649.20	26726.58
649.34	26403.58
649.49	26380.18
649.63	26373.16
649.78	26841.26
649.92	26672.74
650.07	26939.57
650.21	26438.69
650.36	26747.64
650.51	26377.84
650.65	26546.36
650.80	26583.80
650.94	26155.49
651.09	26757.00
651.23	26251.45
651.38	26548.70
651.52	26520.61
651.67	26679.77
651.81	26602.53
651.96	26536.99
652.10	26424.65
652.25	26185.91
652.39	26583.80
652.54	26321.66
652.68	26134.42
652.83	26195.28
652.97	26565.08
653.12	26499.55
653.26	26181.23
653.41	26209.32
653.55	26314.64
653.70	26316.98
653.84	26127.40
653.99	25996.33
654.13	26099.31
654.27	25876.96
654.42	25900.37
654.56	26642.32
654.71	26106.34
654.85	26202.30
655.00	26134.42
655.14	25963.56
655.29	25928.45
655.43	25867.60
655.57	25907.39
655.72	26071.23
655.86	25991.65
656.01	25996.33
656.15	25844.20
656.30	25825.47
656.44	25862.92
656.58	25556.31
656.73	25752.91
656.87	25680.36
657.01	25764.62
657.16	26288.90
657.30	26242.09
657.45	26092.29
657.59	25926.11
657.73	25722.49
657.88	25663.97
658.02	25483.75
658.16	25385.45
658.31	25645.25
658.45	25371.41
658.60	25003.94
658.74	25139.69
658.88	25715.47
659.03	25558.65
659.17	25549.29
659.31	25376.09
659.46	25376.09
659.60	25338.64
659.74	25483.75
659.89	25280.13
660.03	25144.38
660.17	25357.36
660.32	25385.45
660.46	25343.32
660.60	24938.41
660.74	24868.19
660.89	25092.88
661.03	24683.29
661.17	25165.44
661.32	25296.51
661.46	25062.46
661.60	24809.68
661.74	24945.43
661.89	25090.54
662.03	25041.39
662.17	24907.98
662.31	24788.61
662.46	25207.57
662.60	24451.58
662.74	24655.20
662.88	24629.46
663.03	24692.65
663.17	24776.91
663.31	24383.70
663.45	24318.17
663.60	24299.44
663.74	24444.56
663.88	24573.28
664.02	24318.17
664.17	24498.39
664.31	23887.51
664.45	24437.53
664.59	24463.28
664.73	24334.55
664.88	24334.55
665.02	24074.75
665.16	23749.42
665.30	23826.65
665.44	24072.41
665.59	24137.94
665.73	24020.92
665.87	23695.58
666.01	23585.58
666.15	23931.98
666.29	24105.18
666.44	24116.88
666.58	23660.48
666.72	23929.64
666.86	23854.74
667.00	23789.20
667.14	23948.36
667.28	23531.75
667.43	23828.99
667.57	23704.95
667.71	23351.52
667.85	23449.83
667.99	23257.90
668.13	23445.15
668.27	23828.99
668.41	23374.93
668.56	23204.07
668.70	23487.28
668.84	23274.29
668.98	23513.02
669.12	23311.74
669.26	23386.63
669.40	23271.95
669.54	23709.63
669.68	23061.30
669.82	23089.38
669.96	23075.34
670.10	22822.56
670.25	23330.46
670.39	22862.35
670.53	22925.55
670.67	22698.52
670.81	22963.00
670.95	22878.74
671.09	22841.29
671.23	22843.63
671.37	22958.31
671.51	22981.72
671.65	22733.62
671.79	22649.36
671.93	22265.52
672.07	22621.28
672.21	22398.93
672.35	22094.66
672.49	22246.79
672.63	22249.13
672.77	22150.83
672.91	22405.95
673.05	22249.13
673.19	22218.71
673.33	22295.94
673.47	22036.14
673.61	21893.37
673.75	21916.78
673.89	21759.96
674.03	21898.05
674.17	21912.10
674.31	21692.08
674.45	21991.67
674.59	21638.25
674.73	22012.74
674.87	21563.36
675.01	21689.74
675.15	21376.11
675.29	21708.47
675.43	21598.46
675.56	21329.30
675.70	21245.04
675.84	21352.71
675.98	20879.92
676.12	21448.67
676.26	21575.06
676.40	21249.72
676.54	20926.73
676.68	21226.32
676.82	20786.30
676.96	21118.65
677.10	20816.72
677.23	20643.52
677.37	20589.69
677.51	20538.20
677.65	20528.84
677.79	20968.86
677.93	20503.09
678.07	20290.10
678.21	20276.06
678.34	20271.38
678.48	20367.34
678.62	20215.21
678.76	20517.14
678.90	20039.67
679.04	20182.44
679.18	20297.13
679.31	19756.46
679.45	19791.57
679.59	19822.00
679.73	20020.94
679.87	19789.23
680.00	19508.37
680.14	19651.14
680.28	19627.73
680.42	19573.90
680.56	19389.00
680.70	19440.49
680.83	19536.45
680.97	19386.66
681.11	19339.85
681.25	19157.28
681.39	19012.17
681.52	19433.47
681.66	19082.39
681.80	18801.52
681.94	18885.78
682.07	18712.58
682.21	18740.67
682.35	18490.23
682.49	18263.20
682.62	18403.63
682.76	18246.82
682.90	18361.50
683.04	18731.31
683.17	18579.17
683.31	18340.44
683.45	18476.19
683.59	17916.80
683.72	18054.89
683.86	18239.79
684.00	18267.88
684.13	17811.48
684.27	17916.80
684.41	18010.42
684.55	17858.29
684.68	17745.94
684.82	17404.22
684.96	17769.35
685.09	17755.30
685.23	17675.73
685.37	17413.59
685.50	17748.28
685.64	17652.32
685.78	17376.14
685.91	17694.45
686.05	17165.49
686.19	17362.09
686.32	17261.45
686.46	17170.17
686.60	16828.45
686.73	17270.81
686.87	17104.64
687.01	16805.05
687.14	16676.32
687.28	16769.94
687.42	16681.00
687.55	16734.83
687.69	16599.08
687.82	16407.16
687.96	16341.62
688.10	16346.30
688.23	16458.65
688.37	16430.56
688.50	16362.69
688.64	16374.39
688.78	16374.39
688.91	15964.79
689.05	16093.52
689.18	15946.07
689.32	15714.36
689.46	15840.75
689.59	15754.15
689.73	15894.58
689.86	15756.49
690.00	15770.53
690.13	15690.95
690.27	15627.76
690.41	15632.44
690.54	15236.89
690.68	15213.48
690.81	15468.60
690.95	15557.54
691.08	15466.26
691.22	15346.89
691.35	15098.80
691.49	15342.21
691.62	15187.74
691.76	15035.60
691.89	14848.36
692.03	14745.38
692.16	14658.78
692.30	14698.56
692.43	14799.21
692.57	14803.89
692.70	14661.12
692.84	14736.01
692.97	14487.92
693.11	14497.28
693.24	14445.79
693.38	14347.48
693.51	14307.69
693.65	14434.08
693.78	14260.88
693.92	14303.01
694.05	14155.56
694.19	14242.16
694.32	13781.07
694.45	14171.94
694.59	13764.69
694.72	13830.23
694.86	13769.37
694.99	13610.22
695.13	13647.66
695.26	13394.89
695.39	13708.52
695.53	13633.62
695.66	13619.58
695.80	13593.83
695.93	13207.64
696.07	13549.36
696.20	13327.01
696.33	13275.52
696.47	13008.70
696.60	13001.68
696.73	13015.72
696.87	13099.98
697.00	13282.54
697.14	12762.94
697.27	12585.06
697.40	12791.03
697.54	12837.84
697.67	12781.67
697.80	12615.49
697.94	12446.97
698.07	12252.70
698.21	12425.90
698.34	12510.16
698.47	12353.35
698.61	12084.19
698.74	12329.94
698.87	12493.78
699.01	12006.95
699.14	12095.89
699.27	12166.10
699.40	12327.60
699.54	12142.70
699.67	12011.63
699.80	11922.69
699.94	11693.32
700.07	11824.39
700.20	11613.74
700.34	11543.52
700.47	11510.75
700.60	11604.38
700.73	11634.80
700.87	11419.47
701.00	11506.07
701.13	11410.11
701.26	11573.95
701.40	11487.35
701.53	11480.33
701.66	11470.97
701.79	11126.91
701.93	11328.19
702.06	11164.36
702.19	10977.11
702.32	10944.34
702.46	11005.20
702.59	10904.56
702.72	10588.58
702.85	10635.39
702.99	10885.83
703.12	10614.33
703.25	10761.78
703.38	10548.79
703.51	10558.16
703.65	10532.41
703.78	10476.24
703.91	10291.34
704.04	10504.32
704.17	10534.75
704.31	10359.21
704.44	10312.40
704.57	10125.16
704.70	10054.94
704.83	9933.23
704.96	9984.73
705.10	10015.15
705.23	9947.28
>>>>>End Processed Spectral Data<<<<<
