SpectraSuite Data File
++++++++++++++++++++++++++++++++++++
Date: Fri Oct 18 13:58:18 GMT-05:00 2013
User: bianchi
Dark Spectrum Present: No
Reference Spectrum Present: No
Number of Sampled Component Spectra: 1
Spectrometers: USB2+H05261
Integration Time (usec): 50000 (USB2+H05261)
Spectra Averaged: 1 (USB2+H05261)
Boxcar Smoothing: 0 (USB2+H05261)
Correct for Electrical Dark: No (USB2+H05261)
Strobe/Lamp Enabled: No (USB2+H05261)
Correct for Detector Non-linearity: No (USB2+H05261)
Correct for Stray Light: No (USB2+H05261)
Number of Pixels in Processed Spectrum: 2048
>>>>>Begin Processed Spectral Data<<<<<
365.73	0.00
365.92	0.00
366.12	0.00
366.32	0.00
366.52	0.00
366.72	0.00
366.91	0.00
367.11	0.00
367.31	0.00
367.51	0.00
367.70	0.00
367.90	0.00
368.10	0.00
368.30	0.00
368.49	0.00
368.69	0.00
368.89	0.00
369.09	0.00
369.28	0.00
369.48	0.00
369.68	0.00
369.87	0.00
370.07	0.00
370.27	0.00
370.47	0.00
370.66	18.72
370.86	53.83
371.06	67.88
371.25	196.60
371.45	133.41
371.65	112.35
371.84	180.22
372.04	149.79
372.24	191.92
372.44	163.84
372.63	224.69
372.83	220.01
373.03	198.95
373.22	297.25
373.42	196.60
373.62	292.57
373.81	227.03
374.01	229.37
374.21	187.24
374.40	238.73
374.60	264.48
374.79	241.08
374.99	241.08
375.19	222.35
375.38	234.05
375.58	325.33
375.78	262.14
375.97	250.44
376.17	327.68
376.37	269.16
376.56	234.05
376.76	229.37
376.95	241.08
377.15	325.33
377.35	259.80
377.54	273.84
377.74	243.42
377.93	269.16
378.13	220.01
378.33	306.61
378.52	276.18
378.72	337.04
378.91	351.08
379.11	271.50
379.31	278.52
379.50	269.16
379.70	290.23
379.89	292.57
380.09	238.73
380.28	308.95
380.48	255.12
380.68	325.33
380.87	271.50
381.07	222.35
381.26	337.04
381.46	327.68
381.65	362.78
381.85	337.04
382.04	393.21
382.24	388.53
382.43	334.70
382.63	346.40
382.83	400.23
383.02	292.57
383.22	367.46
383.41	355.76
383.61	313.63
383.80	355.76
384.00	383.85
384.19	351.08
384.39	397.89
384.58	409.59
384.78	311.29
384.97	334.70
385.17	388.53
385.36	425.98
385.56	421.30
385.75	278.52
385.95	461.09
386.14	456.40
386.34	362.78
386.53	355.76
386.72	425.98
386.92	465.77
387.11	423.64
387.31	461.09
387.50	390.87
387.70	484.49
387.89	444.70
388.09	451.72
388.28	425.98
388.48	407.25
388.67	395.55
388.86	521.94
389.06	397.89
389.25	449.38
389.45	479.81
389.64	435.34
389.84	435.34
390.03	496.19
390.22	425.98
390.42	451.72
390.61	430.66
390.81	458.74
391.00	472.79
391.19	500.87
391.39	482.15
391.58	505.56
391.78	463.43
391.97	627.26
392.16	533.64
392.36	547.69
392.55	561.73
392.75	552.37
392.94	559.39
393.13	552.37
393.33	550.03
393.52	587.47
393.71	510.24
393.91	543.00
394.10	524.28
394.29	500.87
394.49	528.96
394.68	568.75
394.88	624.92
395.07	543.00
395.26	617.90
395.46	566.41
395.65	545.34
395.84	692.80
396.04	622.58
396.23	667.05
396.42	540.66
396.62	706.84
396.81	627.26
397.00	629.60
397.19	688.12
397.39	650.67
397.58	725.57
397.77	660.03
397.97	678.76
398.16	638.97
398.35	683.44
398.55	767.70
398.74	669.39
398.93	720.88
399.12	706.84
399.32	755.99
399.51	655.35
399.70	695.14
399.90	695.14
400.09	727.91
400.28	683.44
400.47	751.31
400.67	741.95
400.86	833.23
401.05	748.97
401.24	866.00
401.44	861.32
401.63	727.91
401.82	828.55
402.01	751.31
402.21	826.21
402.40	919.83
402.59	791.10
402.78	826.21
402.97	830.89
403.17	912.81
403.36	901.11
403.55	898.77
403.74	952.60
403.93	933.87
404.13	889.40
404.32	959.62
404.51	880.04
404.70	959.62
404.89	875.36
405.09	933.87
405.28	1041.54
405.47	903.45
405.66	1027.50
405.85	905.79
406.05	945.58
406.24	947.92
406.43	1011.11
406.62	983.02
406.81	980.68
407.00	1020.47
407.20	854.30
407.39	1018.13
407.58	1022.81
407.77	1090.69
407.96	1071.97
408.15	1067.28
408.34	990.05
408.54	1123.46
408.73	1090.69
408.92	1114.10
409.11	1184.31
409.30	1158.57
409.49	1107.07
409.68	1219.42
409.87	1097.71
410.07	1245.16
410.26	1203.04
410.45	1172.61
410.64	1188.99
410.83	1179.63
411.02	1181.97
411.21	1245.16
411.40	1200.69
411.59	1259.21
411.78	1217.08
411.98	1184.31
412.17	1359.85
412.36	1273.25
412.55	1315.38
412.74	1387.94
412.93	1409.00
413.12	1273.25
413.31	1416.02
413.50	1411.34
413.69	1345.81
413.88	1432.41
414.07	1409.00
414.26	1418.36
414.45	1526.03
414.64	1495.60
414.83	1474.54
415.02	1406.66
415.22	1589.22
415.41	1542.41
415.60	1474.54
415.79	1614.97
415.98	1526.03
416.17	1497.94
416.36	1561.14
416.55	1624.33
416.74	1675.82
416.93	1708.59
417.12	1565.82
417.31	1636.03
417.50	1661.78
417.69	1755.40
417.88	1629.01
418.07	1734.34
418.26	1724.97
418.45	1795.19
418.64	1809.23
418.83	1757.74
419.02	1764.76
419.21	1792.85
419.39	1778.81
419.58	1856.04
419.77	1753.06
419.96	1872.43
420.15	1816.26
420.34	1809.23
420.53	1905.20
420.72	1865.41
420.91	1825.62
421.10	1872.43
421.29	1935.62
421.48	1790.51
421.67	1891.15
421.86	1888.81
422.05	1952.01
422.24	1905.20
422.43	2017.54
422.61	2019.88
422.80	1921.58
422.99	1991.80
423.18	2001.16
423.37	2064.35
423.56	1980.09
423.75	1994.14
423.94	1947.33
424.13	1856.04
424.32	1872.43
424.50	2050.31
424.69	1996.48
424.88	2010.52
425.07	2052.65
425.26	2090.10
425.45	1987.11
425.64	1984.77
425.83	1994.14
426.01	2005.84
426.20	2083.08
426.39	1980.09
426.58	2022.22
426.77	2120.53
426.96	2139.25
427.15	2188.40
427.33	2083.08
427.52	2059.67
427.71	2141.59
427.90	2087.76
428.09	2209.47
428.28	2260.96
428.46	2291.38
428.65	2246.91
428.84	2286.70
429.03	2136.91
429.22	2146.27
429.40	2277.34
429.59	2258.62
429.78	2111.16
429.97	2160.31
430.16	2235.21
430.34	2239.89
430.53	2218.83
430.72	2356.92
430.91	2256.28
431.10	2340.54
431.28	2331.17
431.47	2417.77
431.66	2457.56
431.85	2303.09
432.03	2441.18
432.22	2431.82
432.41	2450.54
432.60	2434.16
432.79	2450.54
432.97	2504.37
433.16	2448.20
433.35	2459.90
433.54	2420.11
433.72	2490.33
433.91	2546.50
434.10	2523.10
434.28	2476.29
434.47	2492.67
434.66	2623.74
434.85	2558.21
435.03	2677.57
435.22	2663.53
435.41	2696.30
435.59	2590.97
435.78	2630.76
435.97	2771.19
436.16	2644.81
436.34	2588.63
436.53	2675.23
436.72	2712.68
436.90	2600.34
437.09	2689.28
437.28	2637.78
437.46	2920.99
437.65	2780.56
437.84	2832.05
438.02	2918.65
438.21	2843.75
438.40	2832.05
438.58	2862.48
438.77	2906.95
438.96	2862.48
439.14	2904.60
439.33	2906.95
439.52	2906.95
439.70	3009.93
439.89	3122.27
440.08	2956.10
440.26	2946.73
440.45	3096.53
440.63	3096.53
440.82	2991.20
441.01	3115.25
441.19	3124.62
441.38	3323.56
441.57	3084.83
441.75	3075.46
441.94	3206.53
442.12	3225.26
442.31	3316.54
442.50	3344.63
442.68	3370.37
442.87	3379.73
443.05	3337.60
443.24	3433.57
443.43	3368.03
443.61	3405.48
443.80	3417.18
443.98	3330.58
444.17	3321.22
444.35	3300.16
444.54	3447.61
444.73	3300.16
444.91	3471.01
445.10	3454.63
445.28	3365.69
445.47	3461.65
445.65	3368.03
445.84	3428.88
446.02	3599.74
446.21	3346.97
446.39	3456.97
446.58	3494.42
446.77	3461.65
446.95	3311.86
447.14	3513.14
447.32	3524.85
447.51	3485.06
447.69	3461.65
447.88	3569.32
448.06	3473.36
448.25	3466.33
448.43	3634.85
448.62	3555.27
448.80	3548.25
448.99	3655.92
449.17	3550.59
449.36	3581.02
449.54	3595.06
449.73	3606.77
449.91	3749.54
450.10	3791.67
450.28	3627.83
450.46	3744.86
450.65	3744.86
450.83	3747.20
451.02	3681.66
451.20	3845.50
451.39	3824.44
451.57	3627.83
451.76	3772.94
451.94	3829.12
452.13	3803.37
452.31	3845.50
452.49	3887.63
452.68	3833.80
452.86	3976.57
453.05	3955.51
453.23	3911.04
453.42	3772.94
453.60	3995.29
453.78	3899.33
453.97	3889.97
454.15	3854.86
454.34	3946.14
454.52	4042.11
454.70	3929.76
454.89	4060.83
455.07	4014.02
455.26	4037.42
455.44	4114.66
455.62	4028.06
455.81	3955.51
455.99	4056.15
456.17	3950.82
456.36	4152.11
456.54	4149.77
456.73	4184.88
456.91	4304.25
457.09	4227.01
457.28	4379.14
457.46	4301.90
457.64	4304.25
457.83	4292.54
458.01	4231.69
458.19	4329.99
458.38	4404.89
458.56	4273.82
458.74	4337.01
458.93	4500.85
459.11	4397.87
459.29	4404.89
459.48	4461.06
459.66	4561.70
459.84	4451.70
460.03	4631.92
460.21	4589.79
460.39	4540.64
460.57	4447.02
460.76	4454.04
460.94	4657.67
461.12	4678.73
461.31	4507.87
461.49	4622.56
461.67	4730.22
461.85	4751.29
462.04	4568.73
462.22	5013.43
462.40	4884.70
462.59	4980.66
462.77	4674.05
462.95	4704.48
463.13	4770.01
463.32	4800.44
463.50	4755.97
463.68	4837.89
463.86	4751.29
464.05	4788.74
464.23	4877.68
464.41	4931.51
464.59	4793.42
464.78	4887.04
464.96	4957.25
465.14	4957.25
465.32	4884.70
465.50	5027.47
465.69	5064.92
465.87	5004.07
466.05	5093.01
466.23	4901.08
466.41	5004.07
466.60	5167.90
466.78	5107.05
466.96	4997.04
467.14	5036.83
467.32	5029.81
467.51	5210.03
467.69	5013.43
467.87	5100.03
468.05	5111.73
468.23	5001.72
468.41	5207.69
468.60	5156.20
468.78	5195.99
468.96	5291.95
469.14	5191.31
469.32	5331.74
469.50	5259.18
469.69	5235.78
469.87	5437.06
470.05	5444.09
470.23	5373.87
470.41	5371.53
470.59	5446.43
470.77	5387.91
470.95	5308.34
471.14	5467.49
471.32	5570.48
471.50	5575.16
471.68	5533.03
471.86	5727.29
472.04	5657.07
472.22	5694.52
472.40	5570.48
472.58	5537.71
472.77	5743.67
472.95	5617.29
473.13	5977.73
473.31	5650.05
473.49	5643.03
473.67	5895.81
473.85	5844.32
474.03	6022.20
474.21	6003.47
474.39	5994.11
474.57	6071.35
474.75	6169.65
474.93	6108.80
475.12	6120.50
475.30	5996.45
475.48	6253.91
475.66	6066.67
475.84	6171.99
476.02	6326.47
476.20	6445.84
476.38	6492.65
476.56	6567.54
476.74	6757.13
476.92	6394.34
477.10	6469.24
477.28	6628.40
477.46	6698.61
477.64	6759.47
477.82	6904.58
478.00	6979.48
478.18	6935.01
478.36	6925.65
478.54	7178.42
478.72	7007.56
478.90	7201.83
479.08	7103.53
479.26	7171.40
479.44	7288.43
479.62	7339.92
479.80	7279.07
479.98	7442.90
480.16	7508.44
480.34	7365.67
480.52	7702.70
480.70	7702.70
480.88	7630.15
481.06	7653.55
481.24	7637.17
481.41	7779.94
481.59	7878.24
481.77	8105.28
481.95	7871.22
482.13	8273.79
482.31	8271.45
482.49	8264.43
482.67	8182.51
482.85	8362.73
483.03	8531.25
483.21	8458.70
483.39	8669.34
483.57	8386.14
483.74	8463.38
483.92	8664.66
484.10	8667.00
484.28	8908.08
484.46	8858.93
484.64	9167.88
484.82	8931.48
485.00	9060.21
485.18	9415.98
485.35	9451.08
485.53	9322.35
485.71	9254.48
485.89	9762.37
486.07	9469.81
486.25	9537.68
486.43	9472.15
486.61	9547.05
486.78	9898.13
486.96	9724.93
487.14	9928.55
487.32	10024.51
487.50	10019.83
487.68	10193.03
487.85	10422.41
488.03	10387.30
488.21	10324.10
488.39	10663.48
488.57	10712.63
488.75	10677.52
488.92	10611.99
489.10	10874.13
489.28	10944.34
489.46	11122.23
489.64	11101.16
489.81	11358.62
489.99	11241.59
490.17	11335.21
490.35	11421.81
490.53	11485.01
490.70	11461.60
490.88	11576.29
491.06	11653.53
491.24	11674.59
491.41	11765.87
491.59	11950.78
491.77	11798.64
491.95	12119.29
492.13	12184.83
492.30	12177.81
492.48	11999.93
492.66	12184.83
492.84	12271.43
493.01	12741.88
493.19	12423.56
493.37	12828.48
493.54	12819.11
493.72	12849.54
493.90	12816.77
494.08	13144.45
494.25	12989.97
494.43	13125.72
494.61	13114.02
494.79	13277.86
494.96	13268.50
495.14	13467.44
495.32	13537.66
495.49	13429.99
495.67	13767.03
495.85	13701.50
496.02	13846.61
496.20	13839.59
496.38	13862.99
496.55	13973.00
496.73	14038.53
496.91	14193.01
497.09	14232.80
497.26	14270.25
497.44	14267.91
497.62	14197.69
497.79	14714.95
497.97	14731.33
498.14	14754.74
498.32	15063.69
498.50	14855.38
498.67	14888.15
498.85	14853.04
499.03	14843.68
499.20	15161.99
499.38	14806.23
499.56	15323.49
499.73	15288.38
499.91	15159.65
500.08	15161.99
500.26	15393.70
500.44	15227.53
500.61	15536.48
500.79	15178.37
500.97	15765.85
501.14	15990.54
501.32	15917.98
501.49	15791.59
501.67	15712.02
501.84	16013.95
502.02	15632.44
502.20	16093.52
502.37	16100.55
502.55	16325.24
502.72	16166.08
502.90	16114.59
503.07	16304.17
503.25	16350.98
503.43	16203.53
503.60	16570.99
503.78	16627.17
503.95	16365.03
504.13	16575.67
504.30	16526.52
504.48	16531.20
504.65	16678.66
504.83	16903.35
505.01	17193.58
505.18	16748.87
505.36	17202.94
505.53	16898.67
505.71	16774.62
505.88	17128.04
506.06	16912.71
506.23	17249.75
506.41	17385.50
506.58	17074.21
506.76	17406.56
506.93	17649.98
507.11	17252.09
507.28	17516.57
507.46	17549.34
507.63	17605.51
507.81	17771.69
507.98	17626.57
508.16	17699.13
508.33	17741.26
508.50	17996.38
508.68	17982.34
508.85	17980.00
509.03	17961.27
509.20	18324.05
509.38	18469.17
509.55	18162.56
509.73	18223.41
509.90	18445.76
510.08	18225.75
510.25	18356.82
510.42	18539.38
510.60	18726.63
510.77	18555.77
510.95	18925.57
511.12	18441.08
511.30	18735.99
511.47	18497.25
511.64	18565.13
511.82	19241.54
511.99	18881.10
512.17	19201.76
512.34	19117.50
512.51	19255.59
512.69	19075.37
512.86	19302.40
513.04	19590.28
513.21	19384.32
513.38	19335.17
513.56	19749.44
513.73	19494.32
513.90	19557.52
514.08	19384.32
514.25	19566.88
514.43	19438.15
514.60	20060.73
514.77	19946.05
514.95	19609.01
515.12	19688.59
515.29	19866.47
515.47	19910.94
515.64	19836.04
515.81	20084.14
515.99	20266.70
516.16	20126.27
516.33	20290.10
516.51	20128.61
516.68	19978.81
516.85	20140.31
517.03	20112.22
517.20	20238.61
517.37	20589.69
517.54	20620.12
517.72	20566.29
517.89	20451.60
518.06	20615.44
518.24	20767.57
518.41	20381.38
518.58	20781.62
518.75	20704.38
518.93	20868.22
519.10	20629.48
519.27	20868.22
519.45	20973.54
519.62	21036.74
519.79	21067.16
519.96	21015.67
520.14	21083.55
520.31	20971.20
520.48	21455.69
520.65	21226.32
520.83	21593.78
521.00	21469.73
521.17	21341.00
521.34	21085.89
521.52	21493.14
521.69	21469.73
521.86	21685.06
522.03	21759.96
522.20	21781.03
522.38	21689.74
522.55	21633.57
522.72	21703.79
522.89	21839.54
523.07	22043.17
523.24	22108.70
523.41	22202.32
523.58	21603.14
523.75	22066.57
523.92	21979.97
524.10	22118.06
524.27	22389.56
524.44	22340.41
524.61	22335.73
524.78	22221.05
524.96	22403.61
525.13	22256.15
525.30	22518.29
525.47	22593.19
525.64	22434.03
525.81	22132.11
525.98	22780.43
526.16	22644.68
526.33	22572.13
526.50	22558.08
526.67	22602.55
526.84	22799.16
527.01	22864.69
527.18	22902.14
527.36	23089.38
527.53	23056.62
527.70	23363.23
527.87	23407.70
528.04	22946.61
528.21	23428.76
528.38	23070.66
528.55	23403.02
528.72	23396.00
528.89	23559.83
529.07	23311.74
529.24	23463.87
529.41	23557.49
529.58	23225.14
529.75	23534.09
529.92	23768.14
530.09	23360.89
530.26	23931.98
530.43	23807.93
530.60	23442.81
530.77	23641.75
530.94	23740.05
531.11	23793.89
531.28	23667.50
531.46	23550.47
531.63	23854.74
531.80	23831.33
531.97	23882.83
532.14	23915.59
532.31	24184.76
532.48	24020.92
532.65	24280.72
532.82	23995.17
532.99	24084.11
533.16	23789.20
533.33	24531.15
533.50	24690.31
533.67	24437.53
533.84	24149.65
534.01	24355.61
534.18	24060.71
534.35	24559.24
534.52	24004.53
534.69	24542.86
534.86	24680.95
535.03	24758.19
535.20	24435.19
535.37	24489.03
535.54	24437.53
535.71	24622.44
535.88	24533.50
536.05	24610.73
536.22	24896.28
536.38	25034.37
536.55	25015.65
536.72	25017.99
536.89	24989.90
537.06	24776.91
537.23	25109.27
537.40	24826.06
537.57	25022.67
537.74	25120.97
537.91	25329.28
538.08	25209.91
538.25	25010.96
538.42	25235.66
538.59	25701.42
538.75	25240.34
538.92	25142.03
539.09	25256.72
539.26	25263.74
539.43	25373.75
539.60	25329.28
539.77	25273.10
539.94	25734.19
540.11	25504.82
540.28	25336.30
540.44	25280.13
540.61	25654.61
540.78	25287.15
540.95	25912.07
541.12	25802.07
541.29	25357.36
541.46	26155.49
541.62	25638.23
541.79	25989.31
541.96	25568.01
542.13	25706.10
542.30	25659.29
542.47	25713.13
542.63	26157.83
542.80	25956.54
542.97	25961.22
543.14	26284.22
543.31	26417.63
543.48	26443.37
543.64	26396.56
543.81	26429.33
543.98	26314.64
544.15	26384.86
544.32	26780.41
544.48	26473.80
544.65	26642.32
544.82	26398.90
544.99	26312.30
545.16	26452.73
545.32	26305.28
545.49	26658.70
545.66	26635.30
545.83	26735.94
546.00	26771.05
546.16	26604.87
546.33	27014.46
546.50	26497.20
546.67	26771.05
546.83	26876.37
547.00	26888.07
547.17	26780.41
547.34	27061.27
547.50	27119.79
547.67	27033.19
547.84	27232.13
548.00	27096.38
548.17	27068.30
548.34	26630.62
548.51	27576.19
548.67	27033.19
548.84	27487.25
549.01	27145.53
549.18	26831.90
549.34	27349.16
549.51	27091.70
549.68	27145.53
549.84	27115.11
550.01	27250.86
550.18	26759.34
550.34	27578.53
550.51	27431.08
550.68	27569.17
550.84	27131.49
551.01	27606.62
551.18	27241.50
551.34	27281.28
551.51	27498.95
551.68	27548.11
551.84	27747.05
552.01	27742.37
552.18	27981.10
552.34	27716.62
552.51	27587.89
552.68	27555.13
552.84	27845.35
553.01	27950.68
553.18	28215.16
553.34	27515.34
553.51	27901.53
553.67	27995.15
553.84	28109.83
554.01	28056.00
554.17	28027.92
554.34	28100.47
554.51	27793.86
554.67	27861.74
554.84	28313.46
555.00	28063.02
555.17	27946.00
555.33	27864.08
555.50	28074.73
555.67	27826.63
555.83	27985.79
556.00	27943.66
556.16	28367.29
556.33	27828.97
556.50	27728.33
556.66	28086.43
556.83	28484.32
556.99	28828.38
557.16	28746.46
557.32	28470.28
557.49	28706.67
557.65	28142.60
557.82	28409.42
557.98	28252.61
558.15	28631.77
558.32	28498.36
558.48	28238.56
558.65	28297.08
558.81	28655.18
558.98	28446.87
559.14	28357.93
559.31	28678.58
559.47	28617.73
559.64	28519.43
559.80	28811.99
559.97	28566.24
560.13	28437.51
560.30	28657.52
560.46	28790.93
560.63	28676.24
560.79	29048.39
560.96	29013.28
561.12	29027.32
561.29	28573.26
561.45	28917.32
561.61	28753.48
561.78	29198.18
561.94	28783.91
562.11	28748.80
562.27	28840.08
562.44	28868.17
562.60	28975.83
562.77	28758.16
562.93	28636.45
563.10	28964.13
563.26	28957.11
563.42	29184.14
563.59	29322.23
563.75	29097.54
563.92	29343.30
564.08	29158.39
564.24	29008.60
564.41	28964.13
564.57	28861.15
564.74	29249.67
564.90	28872.85
565.07	29032.00
565.23	29106.90
565.39	28685.61
565.56	29083.50
565.72	29158.39
565.88	29083.50
566.05	28790.93
566.21	29172.44
566.38	28987.53
566.54	28861.15
566.70	29624.16
566.87	29659.27
567.03	29425.22
567.19	29984.60
567.36	29369.04
567.52	29273.08
567.68	29336.27
567.85	29387.77
568.01	28987.53
568.17	29088.18
568.34	29263.72
568.50	29308.19
568.66	29184.14
568.83	29638.20
568.99	29223.93
569.15	29338.62
569.32	28844.76
569.48	29207.55
569.64	29221.59
569.81	29256.70
569.97	29689.70
570.13	29408.83
570.30	29446.28
570.46	29638.20
570.62	29757.57
570.78	29373.72
570.95	29158.39
571.11	29303.51
571.27	29003.92
571.43	29111.58
571.60	29418.19
571.76	29331.59
571.92	29242.65
572.09	29652.25
572.25	29181.80
572.41	29549.26
572.57	29266.06
572.74	29549.26
572.90	29289.46
573.06	29530.54
573.22	29769.27
573.38	29649.91
573.55	29598.41
573.71	29731.83
573.87	29773.95
574.03	29479.05
574.20	29235.63
574.36	29319.89
574.52	29369.04
574.68	29465.00
574.84	29621.82
575.01	29642.88
575.17	29277.76
575.33	29443.94
575.49	29509.47
575.65	29460.32
575.82	29970.56
575.98	29745.87
576.14	29668.63
576.30	29603.10
576.46	29497.77
576.62	29696.72
576.79	29600.76
576.95	29729.48
577.11	29771.61
577.27	29820.77
577.43	29759.91
577.59	29518.84
577.75	29755.23
577.92	29277.76
578.08	29209.89
578.24	29294.14
578.40	29493.09
578.56	29670.97
578.72	29511.81
578.88	29666.29
579.04	29905.02
579.21	29996.31
579.37	30129.72
579.53	29865.24
579.69	29439.26
579.85	29795.02
580.01	29785.66
580.17	29457.98
580.33	29570.33
580.49	29411.17
580.65	29851.19
580.82	29968.22
580.98	29586.71
581.14	29626.50
581.30	29834.81
581.46	29450.96
581.62	29659.27
581.78	29654.59
581.94	29741.19
582.10	29523.52
582.26	29490.75
582.42	29785.66
582.58	29813.74
582.74	30115.67
582.90	29603.10
583.06	29979.92
583.22	29729.48
583.38	29724.80
583.54	29790.34
583.70	29776.30
583.86	29820.77
584.02	29558.63
584.18	30209.29
584.34	30089.93
584.50	29865.24
584.66	30209.29
584.82	29825.45
584.98	29893.32
585.14	29745.87
585.30	30118.01
585.46	29839.49
585.62	29825.45
585.78	29745.87
585.94	29530.54
586.10	29907.37
586.26	29996.31
586.42	30569.74
586.58	30115.67
586.74	29951.84
586.90	29383.09
587.06	29762.25
587.22	29867.58
587.38	29736.51
587.54	29982.26
587.70	30206.95
587.86	30082.91
588.02	30061.84
588.18	30326.32
588.34	29820.77
588.49	29888.64
588.65	29731.83
588.81	29823.11
588.97	30043.12
589.13	29883.96
589.29	30415.26
589.45	29905.02
589.61	29846.51
589.77	30352.07
589.93	30113.33
590.08	30352.07
590.24	30546.33
590.40	30525.27
590.56	30019.71
590.72	30061.84
590.88	29783.32
591.04	30408.24
591.20	30157.80
591.35	30211.64
591.51	30614.21
591.67	30632.93
591.83	30663.36
591.99	30342.70
592.15	30417.60
592.31	30342.70
592.46	30274.83
592.62	30534.63
592.78	30471.43
592.94	30139.08
593.10	30295.89
593.26	30443.35
593.41	30223.34
593.57	30274.83
593.73	30368.45
593.89	30424.62
594.05	30359.09
594.20	30199.93
594.36	30408.24
594.52	30110.99
594.68	30071.20
594.84	29968.22
594.99	30553.35
595.15	30398.88
595.31	30913.80
595.47	30279.51
595.62	30710.17
595.78	29933.11
595.94	30487.82
596.10	30120.35
596.25	30125.04
596.41	30022.05
596.57	30583.78
596.73	30356.75
596.88	30101.63
597.04	30192.91
597.20	30787.41
597.36	30852.94
597.51	30745.28
597.67	30202.27
597.83	30206.95
597.99	30614.21
598.14	30433.99
598.30	30464.41
598.46	30342.70
598.61	30345.05
598.77	30558.03
598.93	30897.41
599.09	30450.37
599.24	30562.72
599.40	30527.61
599.56	30726.55
599.71	30312.28
599.87	30312.28
600.03	30569.74
600.18	30333.34
600.34	30426.96
600.50	30604.84
600.65	30696.13
600.81	30548.67
600.97	30768.68
601.12	30513.56
601.28	30635.27
601.44	30651.66
601.59	30675.06
601.75	30359.09
601.91	30574.42
602.06	30485.48
602.22	30478.46
602.37	30305.26
602.53	30668.04
602.69	30511.22
602.84	30696.13
603.00	30419.94
603.16	30387.18
603.31	30649.32
603.47	30642.29
603.62	30176.53
603.78	30410.58
603.94	30583.78
604.09	30363.77
604.25	30267.81
604.40	30408.24
604.56	30520.59
604.71	30721.87
604.87	30876.35
605.03	30251.42
605.18	30403.56
605.34	30817.83
605.49	30157.80
605.65	30312.28
605.80	30078.22
605.96	30340.36
606.12	30323.98
606.27	30342.70
606.43	30333.34
606.58	30759.32
606.74	30494.84
606.89	30452.71
607.05	30532.29
607.20	30354.41
607.36	30632.93
607.51	30637.61
607.67	30340.36
607.82	30143.76
607.98	30604.84
608.13	30569.74
608.29	30342.70
608.44	29998.65
608.60	30258.45
608.75	30562.72
608.91	30293.55
609.06	30335.68
609.22	30597.82
609.37	30204.61
609.53	30045.46
609.68	30113.33
609.84	30089.93
609.99	29799.70
610.15	29991.62
610.30	30588.46
610.46	30204.61
610.61	30408.24
610.76	30232.70
610.92	30281.85
611.07	30075.88
611.23	29993.97
611.38	30120.35
611.54	30005.67
611.69	29535.22
611.84	29813.74
612.00	29972.90
612.15	29933.11
612.31	30288.87
612.46	30110.99
612.62	30305.26
612.77	30195.25
612.92	30441.01
613.08	30094.61
613.23	30080.56
613.39	29659.27
613.54	29933.11
613.69	30347.39
613.85	29916.73
614.00	29935.45
614.15	29741.19
614.31	29752.89
614.46	29942.47
614.62	29909.71
614.77	29792.68
614.92	30319.30
615.08	29937.79
615.23	29869.92
615.38	29776.30
615.54	29549.26
615.69	29500.11
615.84	29394.79
616.00	29701.40
616.15	29483.73
616.30	29600.76
616.46	29362.02
616.61	29841.83
616.76	30003.33
616.92	29570.33
617.07	29696.72
617.22	29439.26
617.37	29553.94
617.53	29778.64
617.68	29675.65
617.83	29654.59
617.99	29483.73
618.14	29792.68
618.29	29310.53
618.45	29652.25
618.60	29556.28
618.75	29408.83
618.90	29631.18
619.06	29874.60
619.21	29366.70
619.36	29598.41
619.51	29572.67
619.67	28723.05
619.82	28922.00
619.97	29596.07
620.12	29134.99
620.28	29142.01
620.43	29441.60
620.58	29886.30
620.73	29467.34
620.89	29160.73
621.04	29254.36
621.19	29376.06
621.34	29064.77
621.49	29088.18
621.65	29186.48
621.80	28950.09
621.95	29092.86
622.10	29113.92
622.25	29301.17
622.41	29146.69
622.56	28870.51
622.71	29390.11
622.86	29259.04
623.01	28807.31
623.16	28755.82
623.32	28989.88
623.47	28910.30
623.62	29071.79
623.77	28720.71
623.92	29036.69
624.07	28947.75
624.23	28727.74
624.38	29109.24
624.53	29212.23
624.68	28886.89
624.83	29331.59
624.98	28765.18
625.13	29008.60
625.29	29289.46
625.44	28872.85
625.59	28638.80
625.74	28704.33
625.89	28774.55
626.04	28711.35
626.19	28512.41
626.34	28594.32
626.49	28379.00
626.65	28411.76
626.80	28734.76
626.95	28594.32
627.10	28746.46
627.25	28458.57
627.40	28203.46
627.55	28439.85
627.70	28512.41
627.85	28573.26
628.00	28517.09
628.15	28716.03
628.30	28072.39
628.45	28685.61
628.60	28369.63
628.76	28451.55
628.91	28201.11
629.06	28364.95
629.21	28126.22
629.36	28231.54
629.51	28381.34
629.66	28425.81
629.81	27824.29
629.96	28016.21
630.11	28311.12
630.26	28023.23
630.41	28203.46
630.56	27934.29
630.71	28065.36
630.86	27828.97
631.01	28006.85
631.16	27880.46
631.31	28130.90
631.46	28034.94
631.61	28039.62
631.76	28371.97
631.91	28189.41
632.06	27747.05
632.21	27782.16
632.36	28166.01
632.51	27765.78
632.66	27625.34
632.81	27810.25
632.96	27985.79
633.10	27931.95
633.25	27859.40
633.40	27913.23
633.55	27880.46
633.70	27505.98
633.85	27887.48
634.00	27566.83
634.15	27807.90
634.30	27402.99
634.45	27386.61
634.60	27473.21
634.75	27604.28
634.90	27585.55
635.05	27929.61
635.19	27536.40
635.34	27814.93
635.49	27332.78
635.64	27716.62
635.79	27662.79
635.94	27807.90
636.09	27346.82
636.24	27321.07
636.39	27260.22
636.53	27180.64
636.68	27255.54
636.83	27508.32
636.98	27414.69
637.13	27473.21
637.28	27307.03
637.43	27168.94
637.57	27559.81
637.72	27569.17
637.87	27178.30
638.02	27192.34
638.17	27103.40
638.32	27281.28
638.46	27311.71
638.61	27098.72
638.76	26946.59
638.91	26876.37
639.06	26934.88
639.20	26977.01
639.35	27253.20
639.50	27381.93
639.65	27344.48
639.80	27051.91
639.94	27351.50
640.09	27159.58
640.24	27197.02
640.39	27199.37
640.54	26969.99
640.68	26883.39
640.83	26686.79
640.98	26733.60
641.13	26597.85
641.27	26923.18
641.42	26984.04
641.57	26988.72
641.72	27000.42
641.86	27199.37
642.01	26607.21
642.16	26555.72
642.31	26536.99
642.45	26878.71
642.60	26443.37
642.75	26984.04
642.90	26459.76
643.04	26359.11
643.19	26890.41
643.34	26476.14
643.48	26230.38
643.63	26792.11
643.78	26773.39
643.93	27080.00
644.07	26450.39
644.22	26948.93
644.37	26415.29
644.51	26590.83
644.66	26909.14
644.81	26522.95
644.95	26040.80
645.10	26436.35
645.25	26532.31
645.39	26284.22
645.54	26230.38
645.69	26457.42
645.83	26583.80
645.98	26312.30
646.13	26450.39
646.27	26452.73
646.42	26232.72
646.57	26181.23
646.71	26134.42
646.86	26373.16
647.00	25961.22
647.15	25982.29
647.30	26148.46
647.44	26185.91
647.59	25982.29
647.74	26160.17
647.88	26242.09
648.03	25933.14
648.17	26558.06
648.32	26637.64
648.47	26008.03
648.61	26122.72
648.76	26513.59
648.90	26251.45
649.05	26302.94
649.20	26225.70
649.34	25570.35
649.49	25734.19
649.63	25490.77
649.78	25909.73
649.92	25968.24
650.07	25724.83
650.21	25736.53
650.36	25825.47
650.51	25603.12
650.65	26019.74
650.80	25694.40
650.94	25855.90
651.09	25914.41
651.23	25907.39
651.38	25982.29
651.52	25497.80
651.67	25687.38
651.81	25816.11
651.96	25738.87
652.10	25942.50
652.25	25549.29
652.39	26132.08
652.54	25919.09
652.68	25333.96
652.83	26218.68
652.97	25741.21
653.12	25591.42
653.26	25701.42
653.41	25479.07
653.55	25570.35
653.70	25486.09
653.84	25638.23
653.99	25799.73
654.13	25399.49
654.27	25212.25
654.42	25617.16
654.56	25345.66
654.71	25378.43
654.85	25277.79
655.00	25153.74
655.14	25212.25
655.29	25401.83
655.43	25284.81
655.57	25015.65
655.72	25076.50
655.86	25177.14
656.01	25048.41
656.15	24744.14
656.30	25205.23
656.44	25015.65
656.58	25233.32
656.73	24978.20
656.87	25198.21
657.01	25200.55
657.16	25153.74
657.30	25153.74
657.45	25219.27
657.59	24957.13
657.73	24673.93
657.88	24765.21
658.02	24863.51
658.16	24947.77
658.31	24903.30
658.45	24685.63
658.60	24563.92
658.74	24819.04
658.88	24826.06
659.03	24257.31
659.17	24833.08
659.31	24936.07
659.46	24568.60
659.60	24737.12
659.74	24819.04
659.89	24599.03
660.03	24566.26
660.17	24376.68
660.32	24496.05
660.46	24437.53
660.60	24247.95
660.74	24290.08
660.89	24563.92
661.03	24128.58
661.17	24079.43
661.32	24276.04
661.46	24126.24
661.60	24261.99
661.74	24428.17
661.89	24566.26
662.03	24650.52
662.17	24166.03
662.31	24210.50
662.46	24205.82
662.60	24278.38
662.74	24187.10
662.88	23924.96
663.03	23695.58
663.17	23892.19
663.31	23644.09
663.45	23789.20
663.60	23850.06
663.74	23847.72
663.88	23566.85
664.02	24105.18
664.17	24201.14
664.31	23779.84
664.45	23974.11
664.59	23770.48
664.73	23791.55
664.88	23683.88
665.02	23307.05
665.16	23548.13
665.30	23545.79
665.44	23777.50
665.59	23573.88
665.73	22991.08
665.87	23271.95
666.01	23688.56
666.15	23311.74
666.29	23344.50
666.44	23044.91
666.58	23491.96
666.72	23175.98
666.86	23094.07
667.00	23122.15
667.14	22981.72
667.28	23049.60
667.43	23007.47
667.57	23075.34
667.71	23054.28
667.85	23080.02
667.99	23138.54
668.13	22792.14
668.27	22637.66
668.41	22918.53
668.56	22630.64
668.70	22817.88
668.84	22742.99
668.98	22494.89
669.12	22558.08
669.26	22459.78
669.40	22616.60
669.54	22553.40
669.68	22656.39
669.82	22733.62
669.96	22511.27
670.10	22087.64
670.25	22141.47
670.39	22459.78
670.53	22277.22
670.67	22005.72
670.81	22272.54
670.95	22295.94
671.09	22328.71
671.23	22141.47
671.37	22235.09
671.51	22424.67
671.65	22380.20
671.79	22209.34
671.93	21867.63
672.07	21984.65
672.21	21715.49
672.35	21912.10
672.49	21713.15
672.63	21656.98
672.77	21750.60
672.91	21626.55
673.05	21813.79
673.19	21537.61
673.33	21722.51
673.47	21434.63
673.61	21774.00
673.75	21617.19
673.89	21514.20
674.03	21343.35
674.17	21460.37
674.31	21518.89
674.45	21582.08
674.59	21088.23
674.73	21118.65
674.87	21001.63
675.01	21149.08
675.15	21076.52
675.29	20954.82
675.43	20767.57
675.56	20980.56
675.70	20950.14
675.84	21006.31
675.98	20269.04
676.12	20828.43
676.26	20989.92
676.40	20968.86
676.54	20851.83
676.68	20706.72
676.82	20191.80
676.96	20306.49
677.10	20402.45
677.23	20149.67
677.37	19936.68
677.51	19899.23
677.65	20044.35
677.79	19854.76
677.93	20091.16
678.07	19880.51
678.21	19812.63
678.34	19709.65
678.48	19803.27
678.62	19761.14
678.76	19477.94
678.90	19550.49
679.04	19527.09
679.18	19386.66
679.31	19087.07
679.45	19363.25
679.59	19393.68
679.73	19147.92
679.87	19019.19
680.00	19035.58
680.14	18848.33
680.28	19054.30
680.42	18998.13
680.56	18883.44
680.70	18848.33
680.83	18991.11
680.97	18728.97
681.11	18923.23
681.25	18616.62
681.39	18525.34
681.52	18794.50
681.66	18501.93
681.80	18377.89
681.94	18324.05
682.07	18459.81
682.21	17998.72
682.35	18216.39
682.49	18209.37
682.62	18228.09
682.76	18134.47
682.90	17797.43
683.04	17797.43
683.17	17806.80
683.31	17989.36
683.45	17977.65
683.59	18012.76
683.72	17659.34
683.86	17855.95
684.00	17874.67
684.13	17532.95
684.27	17685.09
684.41	17446.35
684.55	17462.74
684.68	17048.46
684.82	16975.91
684.96	16999.31
685.09	17123.36
685.23	16659.93
685.37	16879.94
685.50	16889.31
685.64	17067.19
685.78	16912.71
685.91	17053.14
686.05	16702.06
686.19	16795.68
686.32	16924.41
686.46	16554.61
686.60	16641.21
686.73	16325.24
686.87	16451.63
687.01	16355.66
687.14	15903.94
687.28	15861.81
687.42	16016.29
687.55	15988.20
687.69	16135.65
687.82	15906.28
687.96	16100.55
688.10	15955.43
688.23	16018.63
688.37	15709.68
688.50	16025.65
688.64	15922.66
688.78	16081.82
688.91	15374.98
689.05	15543.50
689.18	15489.67
689.32	15040.28
689.46	15616.05
689.59	15185.40
689.73	15211.14
689.86	15410.09
690.00	15328.17
690.13	15157.31
690.27	15133.90
690.41	15140.93
690.54	15274.34
690.68	15089.43
690.81	15267.31
690.95	15014.54
691.08	15232.21
691.22	14663.46
691.35	14960.70
691.49	14986.45
691.62	15007.52
691.76	14530.05
691.89	14754.74
692.03	14466.85
692.16	14534.73
692.30	14324.08
692.43	14342.80
692.57	14031.51
692.70	14150.88
692.84	14115.77
692.97	14494.94
693.11	14228.12
693.24	13998.74
693.38	14038.53
693.51	14094.71
693.65	13958.96
693.78	13823.20
693.92	13888.74
694.05	13537.66
694.19	13806.82
694.32	13397.23
694.45	13657.03
694.59	13202.96
694.72	13261.48
694.86	13235.73
694.99	13207.64
695.13	13324.67
695.26	13334.03
695.39	13114.02
695.53	13151.47
695.66	13259.13
695.80	12973.59
695.93	12882.31
696.07	13212.32
696.20	13109.34
696.33	12795.71
696.47	12903.37
696.60	12814.43
696.73	12798.05
696.87	12393.14
697.00	12629.53
697.14	12351.01
697.27	12273.77
697.40	12299.52
697.54	12035.03
697.67	12215.26
697.80	12299.52
697.94	12030.35
698.07	12060.78
698.21	12163.76
698.34	12060.78
698.47	12156.74
698.61	12049.08
698.74	12250.36
698.87	12126.32
699.01	11786.94
699.14	11847.79
699.27	11688.64
699.40	11587.99
699.54	11812.68
699.67	11698.00
699.80	11606.72
699.94	11358.62
700.07	11506.07
700.20	11276.70
700.34	11070.73
700.47	11201.80
700.60	11417.13
700.73	11147.97
700.87	11154.99
701.00	10960.73
701.13	10846.04
701.26	10991.16
701.40	11154.99
701.53	11061.37
701.66	11112.86
701.79	10867.11
701.93	10731.36
702.06	10733.70
702.19	10661.14
702.32	10654.12
702.46	10438.79
702.59	10464.54
702.72	10644.76
702.85	10370.91
702.99	10429.43
703.12	10281.97
703.25	10272.61
703.38	10246.87
703.51	10333.47
703.65	10279.63
703.78	10298.36
703.91	10296.02
704.04	10415.38
704.17	10164.95
704.31	10120.48
704.44	9991.75
704.57	9769.40
704.70	9776.42
704.83	9657.05
704.96	9797.48
705.10	9624.28
705.23	9575.13
>>>>>End Processed Spectral Data<<<<<
