SpectraSuite Data File
++++++++++++++++++++++++++++++++++++
Date: Fri Oct 18 13:58:02 GMT-05:00 2013
User: bianchi
Dark Spectrum Present: No
Reference Spectrum Present: No
Number of Sampled Component Spectra: 1
Spectrometers: USB2+H05261
Integration Time (usec): 50000 (USB2+H05261)
Spectra Averaged: 1 (USB2+H05261)
Boxcar Smoothing: 0 (USB2+H05261)
Correct for Electrical Dark: No (USB2+H05261)
Strobe/Lamp Enabled: No (USB2+H05261)
Correct for Detector Non-linearity: No (USB2+H05261)
Correct for Stray Light: No (USB2+H05261)
Number of Pixels in Processed Spectrum: 2048
>>>>>Begin Processed Spectral Data<<<<<
365.73	0.00
365.92	0.00
366.12	0.00
366.32	0.00
366.52	0.00
366.72	0.00
366.91	0.00
367.11	0.00
367.31	0.00
367.51	0.00
367.70	0.00
367.90	0.00
368.10	0.00
368.30	0.00
368.49	0.00
368.69	0.00
368.89	0.00
369.09	0.00
369.28	0.00
369.48	0.00
369.68	0.00
369.87	0.00
370.07	0.00
370.27	0.00
370.47	0.00
370.66	74.90
370.86	112.35
371.06	161.50
371.25	126.39
371.45	128.73
371.65	145.11
371.84	133.41
372.04	98.30
372.24	152.13
372.44	142.77
372.63	170.86
372.83	262.14
373.03	175.54
373.22	149.79
373.42	159.16
373.62	201.29
373.81	238.73
374.01	217.67
374.21	257.46
374.40	252.78
374.60	259.80
374.79	306.61
374.99	287.89
375.19	205.97
375.38	243.42
375.58	243.42
375.78	252.78
375.97	252.78
376.17	278.52
376.37	250.44
376.56	187.24
376.76	283.20
376.95	255.12
377.15	220.01
377.35	255.12
377.54	238.73
377.74	273.84
377.93	175.54
378.13	262.14
378.33	304.27
378.52	271.50
378.72	315.97
378.91	264.48
379.11	227.03
379.31	334.70
379.50	224.69
379.70	320.65
379.89	236.39
380.09	252.78
380.28	313.63
380.48	304.27
380.68	248.10
380.87	362.78
381.07	320.65
381.26	332.36
381.46	271.50
381.65	304.27
381.85	322.99
382.04	334.70
382.24	327.68
382.43	294.91
382.63	334.70
382.83	315.97
383.02	374.49
383.22	440.02
383.41	374.49
383.61	358.10
383.80	325.33
384.00	351.08
384.19	358.10
384.39	315.97
384.58	374.49
384.78	402.57
384.97	365.12
385.17	411.93
385.36	397.89
385.56	454.06
385.75	327.68
385.95	386.19
386.14	416.62
386.34	468.11
386.53	407.25
386.72	355.76
386.92	367.46
387.11	454.06
387.31	411.93
387.50	477.47
387.70	442.36
387.89	428.32
388.09	433.00
388.28	461.09
388.48	376.83
388.67	416.62
388.86	482.15
389.06	447.04
389.25	533.64
389.45	393.21
389.64	449.38
389.84	482.15
390.03	526.62
390.22	543.00
390.42	519.60
390.61	533.64
390.81	327.68
391.00	486.83
391.19	465.77
391.39	550.03
391.58	507.90
391.78	587.47
391.97	514.92
392.16	435.34
392.36	533.64
392.55	475.13
392.75	500.87
392.94	528.96
393.13	554.71
393.33	608.54
393.52	554.71
393.71	554.71
393.91	645.99
394.10	519.60
394.29	645.99
394.49	585.13
394.68	559.39
394.88	543.00
395.07	589.82
395.26	514.92
395.46	582.79
395.65	638.97
395.84	557.05
396.04	734.93
396.23	730.25
396.42	587.47
396.62	653.01
396.81	671.73
397.00	629.60
397.19	690.46
397.39	528.96
397.58	681.10
397.77	706.84
397.97	741.95
398.16	674.07
398.35	709.18
398.55	716.20
398.74	627.26
398.93	671.73
399.12	711.52
399.32	763.01
399.51	739.61
399.70	734.93
399.90	716.20
400.09	791.10
400.28	823.87
400.47	795.78
400.67	777.06
400.86	713.86
401.05	791.10
401.24	858.98
401.44	821.53
401.63	837.91
401.82	772.38
402.01	903.45
402.21	777.06
402.40	795.78
402.59	784.08
402.78	858.98
402.97	866.00
403.17	779.40
403.36	837.91
403.55	856.64
403.74	959.62
403.93	901.11
404.13	828.55
404.32	847.27
404.51	896.43
404.70	898.77
404.89	966.64
405.09	950.26
405.28	929.19
405.47	1036.86
405.66	950.26
405.85	957.28
406.05	964.30
406.24	976.00
406.43	954.94
406.62	999.41
406.81	1086.01
407.00	994.73
407.20	999.41
407.39	980.68
407.58	999.41
407.77	1146.86
407.96	1102.39
408.15	1114.10
408.34	1095.37
408.54	1036.86
408.73	1055.58
408.92	1114.10
409.11	1102.39
409.30	1078.99
409.49	1069.62
409.68	1160.91
409.87	1163.25
410.07	1121.12
410.26	1231.12
410.45	1174.95
410.64	1114.10
410.83	1270.91
411.02	1240.48
411.21	1277.93
411.40	1275.59
411.59	1299.00
411.78	1296.66
411.98	1238.14
412.17	1280.27
412.36	1362.19
412.55	1289.64
412.74	1364.53
412.93	1348.15
413.12	1423.05
413.31	1497.94
413.50	1434.75
413.69	1488.58
413.88	1474.54
414.07	1359.85
414.26	1432.41
414.45	1448.79
414.64	1497.94
414.83	1507.30
415.02	1533.05
415.22	1486.24
415.41	1575.18
415.60	1537.73
415.79	1659.44
415.98	1507.30
416.17	1586.88
416.36	1565.82
416.55	1652.42
416.74	1650.08
416.93	1598.59
417.12	1666.46
417.31	1614.97
417.50	1743.70
417.69	1652.42
417.88	1706.25
418.07	1778.81
418.26	1743.70
418.45	1706.25
418.64	1898.17
418.83	1790.51
419.02	1682.85
419.21	1736.68
419.39	1865.41
419.58	1832.64
419.77	1811.57
419.96	1973.07
420.15	1865.41
420.34	1785.83
420.53	1839.66
420.72	1900.52
420.91	1816.26
421.10	1919.24
421.29	1956.69
421.48	1849.02
421.67	2085.42
421.86	1909.88
422.05	1970.73
422.24	1937.96
422.43	2052.65
422.61	1994.14
422.80	2029.24
422.99	1944.99
423.18	1994.14
423.37	1942.64
423.56	2024.56
423.75	1991.80
423.94	1928.60
424.13	1891.15
424.32	1954.35
424.50	2012.86
424.69	2059.67
424.88	2078.40
425.07	2001.16
425.26	2122.87
425.45	1982.43
425.64	1954.35
425.83	2019.88
426.01	2078.40
426.20	2038.61
426.39	2143.93
426.58	2097.12
426.77	2113.50
426.96	2113.50
427.15	2052.65
427.33	2141.59
427.52	2160.31
427.71	2113.50
427.90	2193.08
428.09	2221.17
428.28	2225.85
428.46	2235.21
428.65	2129.89
428.84	2174.36
429.03	2256.28
429.22	2132.23
429.40	2237.55
429.59	2277.34
429.78	2300.75
429.97	2115.84
430.16	2143.93
430.34	2249.25
430.53	2307.77
430.72	2202.44
430.91	2298.41
431.10	2275.00
431.28	2326.49
431.47	2420.11
431.66	2590.97
431.85	2441.18
432.03	2429.48
432.22	2420.11
432.41	2422.45
432.60	2499.69
432.79	2389.69
432.97	2422.45
433.16	2427.14
433.35	2551.18
433.54	2513.74
433.72	2565.23
433.91	2502.03
434.10	2513.74
434.28	2452.88
434.47	2595.65
434.66	2670.55
434.85	2590.97
435.03	2539.48
435.22	2480.97
435.41	2661.19
435.59	2616.72
435.78	2754.81
435.97	2684.59
436.16	2588.63
436.34	2684.59
436.53	2672.89
436.72	2843.75
436.90	2614.38
437.09	2775.88
437.28	2705.66
437.46	2726.72
437.65	2745.45
437.84	2764.17
438.02	2729.06
438.21	2829.71
438.40	2768.85
438.58	2935.03
438.77	2974.82
438.96	2937.37
439.14	2820.35
439.33	2846.09
439.52	2916.31
439.70	3014.61
439.89	3082.49
440.08	3089.51
440.26	3143.34
440.45	3077.80
440.63	3105.89
440.82	3180.79
441.01	3157.38
441.19	3105.89
441.38	3318.88
441.57	3227.60
441.75	3187.81
441.94	3323.56
442.12	3246.32
442.31	3337.60
442.50	3309.52
442.68	3471.01
442.87	3403.14
443.05	3286.11
443.24	3384.41
443.43	3389.10
443.61	3361.01
443.80	3487.40
443.98	3405.48
444.17	3382.07
444.35	3431.23
444.54	3405.48
444.73	3426.54
444.91	3396.12
445.10	3478.04
445.28	3435.91
445.47	3297.81
445.65	3428.88
445.84	3531.87
446.02	3529.53
446.21	3524.85
446.39	3501.44
446.58	3522.51
446.77	3534.21
446.95	3449.95
447.14	3627.83
447.32	3667.62
447.51	3496.76
447.69	3417.18
447.88	3555.27
448.06	3492.08
448.25	3459.31
448.43	3597.40
448.62	3550.59
448.80	3585.70
448.99	3618.47
449.17	3758.90
449.36	3480.38
449.54	3506.12
449.73	3646.55
449.91	3681.66
450.10	3794.01
450.28	3646.55
450.46	3721.45
450.65	3815.07
450.83	3691.02
451.02	3791.67
451.20	3847.84
451.39	3838.48
451.57	3840.82
451.76	3681.66
451.94	3805.71
452.13	3857.20
452.31	3932.10
452.49	3688.68
452.68	3819.75
452.86	3754.22
453.05	3829.12
453.23	3892.31
453.42	3829.12
453.60	4002.32
453.78	3896.99
453.97	4121.68
454.15	3831.46
454.34	3866.56
454.52	4056.15
454.70	3866.56
454.89	4028.06
455.07	4177.86
455.26	4079.55
455.44	4079.55
455.62	4044.45
455.81	3943.80
455.99	4053.81
456.17	4124.02
456.36	4224.67
456.54	4210.62
456.73	4255.09
456.91	4397.87
457.09	4194.24
457.28	4362.76
457.46	4280.84
457.64	4287.86
457.83	4374.46
458.01	4444.68
458.19	4456.38
458.38	4173.18
458.56	4491.49
458.74	4503.19
458.93	4432.97
459.11	4477.44
459.29	4535.96
459.48	4404.89
459.66	4416.59
459.84	4432.97
460.03	4695.11
460.21	4437.66
460.39	4655.33
460.57	4421.27
460.76	4674.05
460.94	4667.03
461.12	4746.61
461.31	4423.61
461.49	4594.47
461.67	4533.62
461.85	4575.75
462.04	4496.17
462.22	5060.24
462.40	4627.24
462.59	4760.65
462.77	4744.27
462.95	4826.18
463.13	4770.01
463.32	4788.74
463.50	4896.40
463.68	4777.03
463.86	4819.16
464.05	4697.46
464.23	4781.71
464.41	4950.23
464.59	4882.36
464.78	4861.29
464.96	4971.30
465.14	4966.62
465.32	5004.07
465.50	4985.34
465.69	4933.85
465.87	4947.89
466.05	4997.04
466.23	5008.75
466.41	5013.43
466.60	5011.09
466.78	5046.20
466.96	5081.30
467.14	5011.09
467.32	5172.58
467.51	5093.01
467.69	5142.16
467.87	5170.24
468.05	5163.22
468.23	5156.20
468.41	5207.69
468.60	5144.50
468.78	5294.29
468.96	5151.52
469.14	5268.55
469.32	5481.53
469.50	5240.46
469.69	5420.68
469.87	5572.82
470.05	5600.90
470.23	5350.46
470.41	5390.25
470.59	5500.26
470.77	5355.15
470.95	5355.15
471.14	5582.18
471.32	5348.12
471.50	5636.01
471.68	5666.44
471.86	5542.39
472.04	5643.03
472.22	5661.76
472.40	5624.31
472.58	5856.02
472.77	5731.97
472.95	5781.12
473.13	6108.80
473.31	5919.21
473.49	5839.64
473.67	5853.68
473.85	5930.92
474.03	5975.39
474.21	6083.05
474.39	6099.44
474.57	6115.82
474.75	6129.86
474.93	6057.31
475.12	6132.20
475.30	6150.93
475.48	6373.28
475.66	6296.04
475.84	6317.11
476.02	6499.67
476.20	6267.95
476.38	6635.42
476.56	6672.87
476.74	6600.31
476.92	6579.25
477.10	6668.19
477.28	6850.75
477.46	6745.42
477.64	6663.51
477.82	6902.24
478.00	6869.47
478.18	6881.18
478.36	6991.18
478.54	6991.18
478.72	7098.84
478.90	7307.15
479.08	7248.64
479.26	7206.51
479.44	7396.09
479.62	7351.62
479.80	7456.95
479.98	7606.74
480.16	7363.33
480.34	7573.97
480.52	7857.18
480.70	7527.16
480.88	7742.49
481.06	7812.71
481.24	7789.30
481.41	7765.90
481.59	8072.51
481.77	7934.42
481.95	7995.27
482.13	8222.30
482.31	7915.69
482.49	8189.53
482.67	8458.70
482.85	8393.16
483.03	8528.91
483.21	8690.41
483.39	8896.38
483.57	8540.61
483.74	8781.69
483.92	8870.63
484.10	8627.21
484.28	8894.04
484.46	9146.81
484.64	9296.61
484.82	8999.36
485.00	9092.98
485.18	9547.05
485.35	9401.93
485.53	9509.60
485.71	9502.58
485.89	9696.84
486.07	9689.82
486.25	9600.88
486.43	9563.43
486.61	9944.94
486.78	9956.64
486.96	9811.53
487.14	10017.49
487.32	10216.44
487.50	10118.14
487.68	10202.40
487.85	10331.12
488.03	10672.84
488.21	10712.63
488.39	10752.42
488.57	10644.76
488.75	10647.10
488.92	10827.32
489.10	11101.16
489.28	11035.63
489.46	11108.18
489.64	11061.37
489.81	11185.42
489.99	11222.87
490.17	11667.57
490.35	11501.39
490.53	11683.95
490.70	11543.52
490.88	11770.55
491.06	11889.92
491.24	11810.34
491.41	11782.26
491.59	11918.01
491.77	11929.71
491.95	11976.52
492.13	12116.95
492.30	12435.27
492.48	12425.90
492.66	12482.08
492.84	12381.43
493.01	12615.49
493.19	12594.42
493.37	12833.16
493.54	12896.35
493.72	13001.68
493.90	12926.78
494.08	13085.94
494.25	13083.59
494.43	13209.98
494.61	13434.68
494.79	13535.32
494.96	13121.04
495.14	13331.69
495.32	13504.89
495.49	13355.10
495.67	13729.58
495.85	13701.50
496.02	13778.73
496.20	14239.82
496.38	13785.76
496.55	14015.13
496.73	14209.39
496.91	14429.40
497.09	14457.49
497.26	14417.70
497.44	14347.48
497.62	14494.94
497.79	14511.32
497.97	14787.50
498.14	14831.97
498.32	14934.96
498.50	15190.08
498.67	15007.52
498.85	15002.83
499.03	15054.33
499.20	15159.65
499.38	15126.88
499.56	15218.16
499.73	15573.92
499.91	15435.83
500.08	15541.16
500.26	15283.70
500.44	15545.84
500.61	15690.95
500.79	15578.61
500.97	15817.34
501.14	16145.02
501.32	15824.36
501.49	15836.06
501.67	15995.22
501.84	16063.10
502.02	16009.26
502.20	16294.81
502.37	16259.70
502.55	16161.40
502.72	16226.93
502.90	16259.70
503.07	16346.30
503.25	16283.11
503.43	16493.76
503.60	16573.33
503.78	16739.51
503.95	16592.06
504.13	16741.85
504.30	16868.24
504.48	16666.95
504.65	16947.82
504.83	17144.42
505.01	17092.93
505.18	16973.56
505.36	17242.73
505.53	16936.12
505.71	17114.00
505.88	17092.93
506.06	17132.72
506.23	17406.56
506.41	17338.69
506.58	17657.00
506.76	17343.37
506.93	17427.63
507.11	17736.58
507.28	17717.86
507.46	17657.00
507.63	18190.64
507.81	18008.08
507.98	17619.55
508.16	17888.71
508.33	17921.48
508.50	17888.71
508.68	17741.26
508.85	18129.79
509.03	18420.02
509.20	18319.37
509.38	18291.29
509.55	18508.96
509.73	18471.51
509.90	18305.33
510.08	18410.65
510.25	18548.75
510.42	18487.89
510.60	18794.50
510.77	18621.30
510.95	18820.25
511.12	18534.70
511.30	19098.77
511.47	18991.11
511.64	18845.99
511.82	19356.23
511.99	19222.82
512.17	19147.92
512.34	19108.13
512.51	19417.08
512.69	19417.08
512.86	19229.84
513.04	19594.96
513.21	19501.34
513.38	19461.55
513.56	19651.14
513.73	19389.00
513.90	19459.21
514.08	19653.48
514.25	19833.70
514.43	19967.11
514.60	19903.92
514.77	19915.62
514.95	20109.88
515.12	19953.07
515.29	19786.89
515.47	20140.31
515.64	20093.50
515.81	19967.11
515.99	20058.39
516.16	20308.83
516.33	20493.73
516.51	20280.74
516.68	20362.66
516.85	20350.96
517.03	20381.38
517.20	20545.22
517.37	20709.06
517.54	20671.61
517.72	20884.60
517.89	20793.32
518.06	20856.51
518.24	20903.32
518.41	20856.51
518.58	20910.35
518.75	20856.51
518.93	20975.88
519.10	21071.84
519.27	21198.23
519.45	21228.66
519.62	21336.32
519.79	20994.61
519.96	21088.23
520.14	21404.20
520.31	21261.43
520.48	21226.32
520.65	21322.28
520.83	21647.61
521.00	21675.70
521.17	21612.51
521.34	21785.71
521.52	21884.01
521.69	21860.60
521.86	21591.44
522.03	21788.05
522.20	22113.38
522.38	22045.51
522.55	21766.98
522.72	22071.25
522.89	21862.94
523.07	22424.67
523.24	22017.42
523.41	22419.99
523.58	22192.96
523.75	22347.44
523.92	21958.91
524.10	22094.66
524.27	22265.52
524.44	22525.32
524.61	22630.64
524.78	22448.08
524.96	22707.88
525.13	22429.35
525.30	22558.08
525.47	22745.33
525.64	22640.00
525.81	22829.59
525.98	22693.83
526.16	22829.59
526.33	22852.99
526.50	23140.88
526.67	22855.33
526.84	22955.97
527.01	22864.69
527.18	23164.28
527.36	23080.02
527.53	23105.77
527.70	23782.18
527.87	23384.29
528.04	23410.04
528.21	23604.30
528.38	23498.98
528.55	23789.20
528.72	23325.78
528.89	23527.06
529.07	23630.05
529.24	23868.78
529.41	23681.54
529.58	23372.59
529.75	23697.92
529.92	23744.73
530.09	23585.58
530.26	23941.34
530.43	23711.97
530.60	23936.66
530.77	23814.95
530.94	24112.20
531.11	23969.43
531.28	24037.30
531.46	24283.06
531.63	24102.84
531.80	24334.55
531.97	24325.19
532.14	24147.31
532.31	24135.60
532.48	24367.32
532.65	24388.38
532.82	24173.05
532.99	24144.97
533.16	24711.38
533.33	24664.57
533.50	24865.85
533.67	24821.38
533.84	24144.97
534.01	24421.15
534.18	24596.69
534.35	24758.19
534.52	24379.02
534.69	25104.59
534.86	25010.96
535.03	24594.35
535.20	24680.95
535.37	25116.29
535.54	25074.16
535.71	24826.06
535.88	24954.79
536.05	24936.07
536.22	24910.32
536.38	25359.70
536.55	24931.39
536.72	25411.20
536.89	25230.98
537.06	25348.00
537.23	25305.87
537.40	25135.01
537.57	25268.42
537.74	25207.57
537.91	25462.69
538.08	25591.42
538.25	25221.61
538.42	25535.24
538.59	25654.61
538.75	25270.76
538.92	25530.56
539.09	25369.07
539.26	25537.59
539.43	25476.73
539.60	25486.09
539.77	25596.10
539.94	25921.43
540.11	25790.36
540.28	25586.74
540.44	26045.48
540.61	25898.03
540.78	25717.81
540.95	26139.10
541.12	25802.07
541.29	25891.01
541.46	25956.54
541.62	26134.42
541.79	25635.89
541.96	25727.17
542.13	25886.32
542.30	25893.35
542.47	26478.48
542.63	26455.08
542.80	26728.92
542.97	26518.27
543.14	26590.83
543.31	26307.62
543.48	26473.80
543.64	26335.71
543.81	26806.16
543.98	26298.26
544.15	26719.56
544.32	26663.38
544.48	27049.57
544.65	26827.22
544.82	26614.23
544.99	26443.37
545.16	26726.58
545.32	26841.26
545.49	26972.33
545.66	26876.37
545.83	26995.74
546.00	27253.20
546.16	26789.77
546.33	26803.82
546.50	26719.56
546.67	26972.33
546.83	26595.51
547.00	27000.42
547.17	27098.72
547.34	27206.39
547.50	27208.73
547.67	27772.80
547.84	27246.18
548.00	27344.48
548.17	27683.86
548.34	27316.39
548.51	27702.58
548.67	27555.13
548.84	27531.72
549.01	27276.60
549.18	27213.41
549.34	27316.39
549.51	27290.65
549.68	27281.28
549.84	27440.44
550.01	27641.73
550.18	27632.36
550.34	27735.35
550.51	27740.03
550.68	27604.28
550.84	27564.49
551.01	27695.56
551.18	27627.68
551.34	27220.43
551.51	27988.13
551.68	28346.23
551.84	28009.19
552.01	28236.22
552.18	27927.27
552.34	28020.89
552.51	27725.99
552.68	27768.12
552.84	27660.45
553.01	27908.55
553.18	27967.06
553.34	28130.90
553.51	28088.77
553.67	28149.62
553.84	28465.60
554.01	28315.80
554.17	28273.67
554.34	28088.77
554.51	28404.74
554.67	28088.77
554.84	28149.62
555.00	28189.41
555.17	28369.63
555.33	28259.63
555.50	28559.22
555.67	28573.26
555.83	28308.78
556.00	28297.08
556.16	28655.18
556.33	28407.08
556.50	28449.21
556.66	28606.03
556.83	28545.17
556.99	28620.07
557.16	28922.00
557.32	28477.30
557.49	28891.57
557.65	28425.81
557.82	28388.36
557.98	28755.82
558.15	28187.07
558.32	28748.80
558.48	28662.20
558.65	28856.46
558.81	28788.59
558.98	28828.38
559.14	28886.89
559.31	28690.29
559.47	28769.86
559.64	28907.96
559.80	28769.86
559.97	29057.75
560.13	29006.26
560.30	29142.01
560.46	28849.44
560.63	29062.43
560.79	28982.85
560.96	29275.42
561.12	28882.21
561.29	28940.72
561.45	28889.23
561.61	29090.52
561.78	29247.33
561.94	29322.23
562.11	29312.87
562.27	28877.53
562.44	29275.42
562.60	29347.98
562.77	29303.51
562.93	28767.52
563.10	29525.86
563.26	29226.27
563.42	29605.44
563.59	29516.50
563.75	29603.10
563.92	29893.32
564.08	29401.81
564.24	29310.53
564.41	29137.33
564.57	29560.97
564.74	29226.27
564.90	29303.51
565.07	29469.69
565.23	29352.66
565.39	29532.88
565.56	29795.02
565.72	29153.71
565.88	29467.34
566.05	29092.86
566.21	29565.65
566.38	29612.46
566.54	29247.33
566.70	29582.03
566.87	29537.56
567.03	29453.30
567.19	29874.60
567.36	29685.01
567.52	29450.96
567.68	29556.28
567.85	29371.38
568.01	29790.34
568.17	29069.45
568.34	29476.71
568.50	29743.53
568.66	29701.40
568.83	30003.33
568.99	29577.35
569.15	29940.13
569.32	29518.84
569.48	29294.14
569.64	29415.85
569.81	29837.15
569.97	29827.79
570.13	29706.08
570.30	29848.85
570.46	29645.23
570.62	29607.78
570.78	29352.66
570.95	29528.20
571.11	29647.57
571.27	29596.07
571.43	29184.14
571.60	29441.60
571.76	29806.72
571.92	29769.27
572.09	30015.03
572.25	29738.85
572.41	30136.74
572.57	30178.87
572.74	29738.85
572.90	29465.00
573.06	29680.33
573.22	29366.70
573.38	29797.36
573.55	29596.07
573.71	30008.01
573.87	30675.06
574.03	29912.05
574.20	30181.21
574.36	29837.15
574.52	30110.99
574.68	29795.02
574.84	30010.35
575.01	29734.17
575.17	29881.62
575.33	29476.71
575.49	29855.87
575.65	30120.35
575.82	30221.00
575.98	29743.53
576.14	30223.34
576.30	30417.60
576.46	29841.83
576.62	29682.67
576.79	30195.25
576.95	29909.71
577.11	30010.35
577.27	29975.24
577.43	29951.84
577.59	29965.88
577.75	30141.42
577.92	30202.27
578.08	29909.71
578.24	30363.77
578.40	29949.50
578.56	30075.88
578.72	29921.41
578.88	30651.66
579.04	30494.84
579.21	30096.95
579.37	30410.58
579.53	30452.71
579.69	29914.39
579.85	30125.04
580.01	30309.94
580.17	29869.92
580.33	29996.31
580.49	29785.66
580.65	30183.55
580.82	30326.32
580.98	30000.99
581.14	30162.48
581.30	30363.77
581.46	29692.04
581.62	29958.86
581.78	30228.02
581.94	30047.80
582.10	30008.01
582.26	29963.54
582.42	30143.76
582.58	30265.47
582.74	29907.37
582.90	30181.21
583.06	30068.86
583.22	30108.65
583.38	30162.48
583.54	30092.27
583.70	30146.10
583.86	30155.46
584.02	30499.52
584.18	30066.52
584.34	30176.53
584.50	30796.77
584.66	30054.82
584.82	30272.49
584.98	30113.33
585.14	29923.75
585.30	29769.27
585.46	30029.07
585.62	29734.17
585.78	30017.37
585.94	30022.05
586.10	30462.07
586.26	30543.99
586.42	30441.01
586.58	30260.79
586.74	30321.64
586.90	30316.96
587.06	30057.16
587.22	30239.72
587.38	30057.16
587.54	30384.83
587.70	30661.02
587.86	30710.17
588.02	30497.18
588.18	30700.81
588.34	30728.89
588.49	30335.68
588.65	30518.25
588.81	30274.83
588.97	30642.29
589.13	30195.25
589.29	30171.85
589.45	30527.61
589.61	30665.70
589.77	30710.17
589.93	31005.08
590.08	30866.98
590.24	30302.92
590.40	30513.56
590.56	30452.71
590.72	30579.10
590.88	30532.29
591.04	30675.06
591.20	30815.49
591.35	31042.53
591.51	31016.78
591.67	30937.20
591.83	31208.70
591.99	30906.77
592.15	30471.43
592.31	30658.68
592.46	30637.61
592.62	30368.45
592.78	30068.86
592.94	30382.49
593.10	30466.75
593.26	30480.80
593.41	30733.57
593.57	30675.06
593.73	30789.75
593.89	30668.04
594.05	30948.90
594.20	30590.80
594.36	30778.04
594.52	30436.33
594.68	30539.31
594.84	30796.77
594.99	30962.95
595.15	30817.83
595.31	31049.55
595.47	30785.07
595.62	30459.73
595.78	30560.37
595.94	30714.85
596.10	30628.25
596.25	30890.39
596.41	30595.48
596.57	30438.67
596.73	30569.74
596.88	30850.60
597.04	30899.75
597.20	30808.47
597.36	31098.70
597.51	30934.86
597.67	30478.46
597.83	30405.90
597.99	30986.35
598.14	30771.02
598.30	30735.92
598.46	30529.95
598.61	30845.92
598.77	30771.02
598.93	30934.86
599.09	30693.79
599.24	31187.64
599.40	30944.22
599.56	30965.29
599.71	30836.56
599.87	31002.74
600.03	30845.92
600.18	31112.74
600.34	30845.92
600.50	30969.97
600.65	30904.43
600.81	30857.62
600.97	31211.04
601.12	30831.88
601.28	31229.77
601.44	30827.20
601.59	30764.00
601.75	30944.22
601.91	30946.56
602.06	30656.34
602.22	31072.95
602.37	30733.57
602.53	30904.43
602.69	31124.44
602.84	30431.65
603.00	30962.95
603.16	30675.06
603.31	30925.50
603.47	30827.20
603.62	30637.61
603.78	31019.12
603.94	30422.28
604.09	30899.75
604.25	31061.25
604.40	30471.43
604.56	30551.01
604.71	30857.62
604.87	30775.70
605.03	30890.39
605.18	30689.10
605.34	30845.92
605.49	30752.30
605.65	30658.68
605.80	30780.39
605.96	30515.90
606.12	30817.83
606.27	30799.11
606.43	31042.53
606.58	31332.75
606.74	30890.39
606.89	30796.77
607.05	31037.84
607.20	30661.02
607.36	30541.65
607.51	30841.24
607.67	30789.75
607.82	30396.54
607.98	30607.19
608.13	30838.90
608.29	30775.70
608.44	30637.61
608.60	30415.26
608.75	30883.37
608.91	30635.27
609.06	30668.04
609.22	30654.00
609.37	30237.38
609.53	30277.17
609.68	30529.95
609.84	30094.61
609.99	30298.23
610.15	30354.41
610.30	30469.09
610.46	30600.16
610.61	30080.56
610.76	30497.18
610.92	30764.00
611.07	30621.23
611.23	30483.14
611.38	30483.14
611.54	30113.33
611.69	30323.98
611.84	30361.43
612.00	30267.81
612.15	30424.62
612.31	30342.70
612.46	30424.62
612.62	30471.43
612.77	30462.07
612.92	30668.04
613.08	30328.66
613.23	30188.23
613.39	30387.18
613.54	30298.23
613.69	30649.32
613.85	30338.02
614.00	30593.14
614.15	30085.25
614.31	30190.57
614.46	30462.07
614.62	30469.09
614.77	30073.54
614.92	30326.32
615.08	30015.03
615.23	29923.75
615.38	29975.24
615.54	30029.07
615.69	30057.16
615.84	30286.53
616.00	30125.04
616.15	29839.49
616.30	29888.64
616.46	30059.50
616.61	30129.72
616.76	30171.85
616.92	30071.20
617.07	29963.54
617.22	30059.50
617.37	29729.48
617.53	30005.67
617.68	29839.49
617.83	29874.60
617.99	29530.54
618.14	29778.64
618.29	29998.65
618.45	29907.37
618.60	29961.20
618.75	29633.52
618.90	29874.60
619.06	29900.34
619.21	30155.46
619.36	29958.86
619.51	29869.92
619.67	29773.95
619.82	29661.61
619.97	29736.51
620.12	29617.14
620.28	29834.81
620.43	29834.81
620.58	29680.33
620.73	29659.27
620.89	29656.93
621.04	29731.83
621.19	29624.16
621.34	29404.15
621.49	29137.33
621.65	29668.63
621.80	29553.94
621.95	29132.65
622.10	28994.56
622.25	29111.58
622.41	29378.40
622.56	29319.89
622.71	29661.61
622.86	29465.00
623.01	29266.06
623.16	29539.90
623.32	29153.71
623.47	29219.25
623.62	29429.90
623.77	29249.67
623.92	29273.08
624.07	29413.51
624.23	29048.39
624.38	29118.60
624.53	29507.13
624.68	29305.85
624.83	29322.23
624.98	29413.51
625.13	29170.10
625.29	29099.88
625.44	29275.42
625.59	29359.68
625.74	28978.17
625.89	28924.34
626.04	29088.18
626.19	29013.28
626.34	28694.97
626.49	28634.11
626.65	28978.17
626.80	29207.55
626.95	28854.12
627.10	29329.25
627.25	28854.12
627.40	28917.32
627.55	28552.20
627.70	28669.22
627.85	28458.57
628.00	28467.94
628.15	28833.06
628.30	28547.51
628.45	28416.44
628.60	28683.27
628.76	28931.36
628.91	28694.97
629.06	28842.42
629.21	28645.82
629.36	28379.00
629.51	28730.08
629.66	28709.01
629.81	28095.79
629.96	28212.82
630.11	28554.54
630.26	28472.62
630.41	28364.95
630.56	28648.16
630.71	28519.43
630.86	28388.36
631.01	28704.33
631.16	28158.99
631.31	28802.63
631.46	28177.71
631.61	28355.59
631.76	28173.03
631.91	28198.77
632.06	28512.41
632.21	28016.21
632.36	28336.87
632.51	27976.42
632.66	28327.50
632.81	28102.81
632.96	28322.82
633.10	28184.73
633.25	28547.51
633.40	28271.33
633.55	28168.35
633.70	27974.08
633.85	27955.36
634.00	28067.70
634.15	27983.44
634.30	27763.43
634.45	27992.81
634.60	28053.66
634.75	28472.62
634.90	27992.81
635.05	28187.07
635.19	27637.05
635.34	28149.62
635.49	28287.71
635.64	27938.97
635.79	28184.73
635.94	28002.17
636.09	28393.04
636.24	27803.22
636.39	27515.34
636.53	27644.07
636.68	27775.14
636.83	27985.79
636.98	28006.85
637.13	27388.95
637.28	28219.84
637.43	27866.42
637.57	27721.30
637.72	27646.41
637.87	27807.90
638.02	27840.67
638.17	27857.06
638.32	27819.61
638.46	27159.58
638.61	27615.98
638.76	27241.50
638.91	27157.24
639.06	27372.57
639.20	27379.59
639.35	27805.56
639.50	27683.86
639.65	27758.75
639.80	27475.55
639.94	27522.36
640.09	27880.46
640.24	27498.95
640.39	27110.43
640.54	27145.53
640.68	27470.87
640.83	27175.96
640.98	27122.13
641.13	26604.87
641.27	27536.40
641.42	26953.61
641.57	27229.79
641.72	27091.70
641.86	27056.59
642.01	26871.69
642.16	26925.52
642.31	27108.08
642.45	27239.15
642.60	27002.76
642.75	27000.42
642.90	26808.50
643.04	26752.32
643.19	27014.46
643.34	27143.19
643.48	26984.04
643.63	26642.32
643.78	26948.93
643.93	27386.61
644.07	27171.28
644.22	26925.52
644.37	26712.53
644.51	27257.88
644.66	26867.01
644.81	26588.49
644.95	26890.41
645.10	26726.58
645.25	26911.48
645.39	26639.98
645.54	26658.70
645.69	26799.13
645.83	26726.58
645.98	26843.60
646.13	26752.32
646.27	26984.04
646.42	26630.62
646.57	26506.57
646.71	26946.59
646.86	26618.91
647.00	26651.68
647.15	26721.90
647.30	26700.83
647.44	26450.39
647.59	26443.37
647.74	26738.28
647.88	26260.81
648.03	26361.45
648.17	26815.52
648.32	26771.05
648.47	26525.29
648.61	26342.73
648.76	26469.12
648.90	27033.19
649.05	26855.31
649.20	26274.85
649.34	26174.21
649.49	26279.54
649.63	25666.31
649.78	26270.17
649.92	26188.25
650.07	26195.28
650.21	26153.15
650.36	26321.66
650.51	26354.43
650.65	26485.50
650.80	26260.81
650.94	26031.44
651.09	26071.23
651.23	25785.68
651.38	26127.40
651.52	26118.04
651.67	26281.88
651.81	25776.32
651.96	25977.61
652.10	26094.63
652.25	26029.10
652.39	26214.00
652.54	26202.30
652.68	26005.69
652.83	26230.38
652.97	26232.72
653.12	26125.06
653.26	25797.38
653.41	26146.12
653.55	25818.45
653.70	25883.98
653.84	26129.74
653.99	26157.83
654.13	25678.02
654.27	25984.63
654.42	25663.97
654.56	25781.00
654.71	25940.16
654.85	25652.27
655.00	26078.25
655.14	25671.00
655.29	25806.75
655.43	25898.03
655.57	25376.09
655.72	25785.68
655.86	25514.18
656.01	25727.17
656.15	25135.01
656.30	25663.97
656.44	25378.43
656.58	25532.90
656.73	25359.70
656.87	25497.80
657.01	25509.50
657.16	25406.52
657.30	25720.15
657.45	25600.78
657.59	25668.66
657.73	25310.55
657.88	24863.51
658.02	25025.01
658.16	25249.70
658.31	25380.77
658.45	25301.19
658.60	25085.86
658.74	25216.93
658.88	25181.82
659.03	25088.20
659.17	25219.27
659.31	24868.19
659.46	25226.29
659.60	25500.14
659.74	25027.35
659.89	25099.90
660.03	25055.43
660.17	24884.58
660.32	24685.63
660.46	24568.60
660.60	24187.10
660.74	24957.13
660.89	24973.52
661.03	24746.48
661.17	24769.89
661.32	25113.95
661.46	24748.82
661.60	24631.80
661.74	24933.73
661.89	24636.48
662.03	24879.89
662.17	24397.74
662.31	23990.49
662.46	24524.13
662.60	24561.58
662.74	24098.16
662.88	24348.59
663.03	23974.11
663.17	24229.23
663.31	24072.41
663.45	24023.26
663.60	24400.08
663.74	24116.88
663.88	24072.41
664.02	24411.79
664.17	24196.46
664.31	24086.45
664.45	24009.22
664.59	23992.83
664.73	24065.39
664.88	23978.79
665.02	23470.89
665.16	23702.61
665.30	23637.07
665.44	24102.84
665.59	23337.48
665.73	23520.04
665.87	23491.96
666.01	23634.73
666.15	23580.90
666.29	23892.19
666.44	23681.54
666.58	23138.54
666.72	23421.74
666.86	23573.88
667.00	23826.65
667.14	23297.69
667.28	23410.04
667.43	23229.82
667.57	23592.60
667.71	23417.06
667.85	22829.59
667.99	23297.69
668.13	23201.73
668.27	23381.95
668.41	23049.60
668.56	23030.87
668.70	23243.86
668.84	23314.08
668.98	23070.66
669.12	23192.37
669.26	23094.07
669.40	22881.08
669.54	23293.01
669.68	22637.66
669.82	22693.83
669.96	22684.47
670.10	22485.53
670.25	22799.16
670.39	22377.86
670.53	22431.69
670.67	22246.79
670.81	22256.15
670.95	22611.92
671.09	22361.48
671.23	22696.17
671.37	22146.15
671.51	22225.73
671.65	22328.71
671.79	22391.91
671.93	22473.82
672.07	22555.74
672.21	22111.04
672.35	22012.74
672.49	21759.96
672.63	22171.89
672.77	21673.36
672.91	21818.47
673.05	22057.21
673.19	22010.40
673.33	21696.77
673.47	21413.56
673.61	21956.57
673.75	21823.16
673.89	21378.45
674.03	21472.07
674.17	21888.69
674.31	21713.15
674.45	21399.52
674.59	21277.81
674.73	21394.84
674.87	21385.47
675.01	21511.86
675.15	21205.25
675.29	21209.93
675.43	20975.88
675.56	21184.19
675.70	21362.07
675.84	21275.47
675.98	20704.38
676.12	21113.97
676.26	21156.10
676.40	20734.81
676.54	20868.22
676.68	20826.09
676.82	20514.80
676.96	20542.88
677.10	20306.49
677.23	20348.62
677.37	20585.01
677.51	20367.34
677.65	20163.72
677.79	20395.43
677.93	20264.36
678.07	20039.67
678.21	20163.72
678.34	20390.75
678.48	20229.25
678.62	20056.05
678.76	20079.46
678.90	19765.82
679.04	20100.52
679.18	19878.17
679.31	19711.99
679.45	19428.79
679.59	19871.15
679.73	19534.11
679.87	19068.34
680.00	19466.24
680.14	19302.40
680.28	19236.86
680.42	18934.93
680.56	19297.72
680.70	19290.70
680.83	19164.31
680.97	19108.13
681.11	19192.39
681.25	19309.42
681.39	18841.31
681.52	18824.93
681.66	18581.51
681.80	18766.42
681.94	18478.53
682.07	18726.63
682.21	18534.70
682.35	18387.25
682.49	18277.24
682.62	18312.35
682.76	18377.89
682.90	18405.97
683.04	18422.36
683.17	18160.22
683.31	18321.71
683.45	18155.54
683.59	17989.36
683.72	18073.62
683.86	17919.14
684.00	17991.70
684.13	17916.80
684.27	17598.49
684.41	17940.21
684.55	17678.07
684.68	17551.68
684.82	17713.17
684.96	17390.18
685.09	17472.10
685.23	17277.83
685.37	17380.82
685.50	17305.92
685.64	17504.87
685.78	17139.74
685.91	17170.17
686.05	17263.79
686.19	16840.15
686.32	17085.91
686.46	17029.74
686.60	16636.53
686.73	16802.71
686.87	16861.22
687.01	16877.60
687.14	16634.19
687.28	16297.15
687.42	16381.41
687.55	16517.16
687.69	16262.04
687.82	16210.55
687.96	16393.11
688.10	16233.96
688.23	16011.60
688.37	16245.66
688.50	16238.64
688.64	16112.25
688.78	15887.56
688.91	15934.37
689.05	15978.84
689.18	15864.15
689.32	15538.82
689.46	15517.75
689.59	15365.62
689.73	15868.83
689.86	15534.14
690.00	15456.90
690.13	15599.67
690.27	15438.17
690.41	15248.59
690.54	15234.55
690.68	15274.34
690.81	15424.13
690.95	15208.80
691.08	15321.15
691.22	15075.39
691.35	15094.11
691.49	15131.56
691.62	15166.67
691.76	14839.00
691.89	14586.22
692.03	14530.05
692.16	14293.65
692.30	14696.22
692.43	14574.52
692.57	14497.28
692.70	14249.18
692.84	14466.85
692.97	14391.95
693.11	14157.90
693.24	14597.92
693.38	14246.84
693.51	14211.73
693.65	14181.31
693.78	13982.36
693.92	14045.55
694.05	13750.65
694.19	13607.87
694.32	13844.27
694.45	13909.80
694.59	13811.50
694.72	13493.19
694.86	13490.85
694.99	13146.79
695.13	13401.91
695.26	13483.83
695.39	13303.60
695.53	13486.17
695.66	13343.39
695.80	13383.18
695.93	13331.69
696.07	13027.42
696.20	13245.09
696.33	13123.38
696.47	12975.93
696.60	12933.80
696.73	12821.45
696.87	12774.64
697.00	12741.88
697.14	12657.62
697.27	12411.86
697.40	12315.90
697.54	12599.10
697.67	12503.14
697.80	12547.61
697.94	12159.08
698.07	12336.96
698.21	12329.94
698.34	12409.52
698.47	12400.16
698.61	12070.14
698.74	12177.81
698.87	12517.18
699.01	12142.70
699.14	11758.85
699.27	11950.78
699.40	12161.42
699.54	11777.58
699.67	11744.81
699.80	11719.06
699.94	11655.87
700.07	11681.61
700.20	11393.73
700.34	11281.38
700.47	11328.19
700.60	11513.10
700.73	11318.83
700.87	11424.15
701.00	11393.73
701.13	11461.60
701.26	11279.04
701.40	11309.47
701.53	11082.44
701.66	11089.46
701.79	11019.24
701.93	11049.67
702.06	10885.83
702.19	10729.02
702.32	11059.03
702.46	10714.97
702.59	10530.07
702.72	10707.95
702.85	10661.14
702.99	10635.39
703.12	10583.90
703.25	10558.16
703.38	10726.68
703.51	10567.52
703.65	10501.98
703.78	10532.41
703.91	10228.14
704.04	10260.91
704.17	10321.76
704.31	10054.94
704.44	10094.73
704.57	9977.70
704.70	9963.66
704.83	9930.89
704.96	9916.85
705.10	9790.46
705.23	9647.69
>>>>>End Processed Spectral Data<<<<<
