SpectraSuite Data File
++++++++++++++++++++++++++++++++++++
Date: Fri Oct 18 13:58:40 GMT-05:00 2013
User: bianchi
Dark Spectrum Present: No
Reference Spectrum Present: No
Number of Sampled Component Spectra: 1
Spectrometers: USB2+H05261
Integration Time (usec): 50000 (USB2+H05261)
Spectra Averaged: 1 (USB2+H05261)
Boxcar Smoothing: 0 (USB2+H05261)
Correct for Electrical Dark: No (USB2+H05261)
Strobe/Lamp Enabled: No (USB2+H05261)
Correct for Detector Non-linearity: No (USB2+H05261)
Correct for Stray Light: No (USB2+H05261)
Number of Pixels in Processed Spectrum: 2048
>>>>>Begin Processed Spectral Data<<<<<
365.73	0.00
365.92	0.00
366.12	0.00
366.32	0.00
366.52	0.00
366.72	0.00
366.91	0.00
367.11	0.00
367.31	0.00
367.51	0.00
367.70	0.00
367.90	0.00
368.10	0.00
368.30	0.00
368.49	0.00
368.69	0.00
368.89	0.00
369.09	0.00
369.28	0.00
369.48	0.00
369.68	0.00
369.87	0.00
370.07	0.00
370.27	0.00
370.47	11.70
370.66	51.49
370.86	140.43
371.06	147.45
371.25	93.62
371.45	88.94
371.65	175.54
371.84	184.90
372.04	163.84
372.24	154.48
372.44	91.28
372.63	229.37
372.83	177.88
373.03	166.18
373.22	189.58
373.42	133.41
373.62	217.67
373.81	205.97
374.01	292.57
374.21	330.02
374.40	184.90
374.60	273.84
374.79	229.37
374.99	248.10
375.19	175.54
375.38	205.97
375.58	238.73
375.78	205.97
375.97	220.01
376.17	351.08
376.37	273.84
376.56	201.29
376.76	220.01
376.95	250.44
377.15	301.93
377.35	257.46
377.54	243.42
377.74	299.59
377.93	269.16
378.13	245.76
378.33	372.15
378.52	259.80
378.72	339.38
378.91	301.93
379.11	220.01
379.31	334.70
379.50	304.27
379.70	383.85
379.89	353.42
380.09	311.29
380.28	248.10
380.48	285.55
380.68	337.04
380.87	294.91
381.07	313.63
381.26	334.70
381.46	313.63
381.65	339.38
381.85	367.46
382.04	304.27
382.24	212.99
382.43	285.55
382.63	332.36
382.83	402.57
383.02	372.15
383.22	308.95
383.41	322.99
383.61	348.74
383.80	360.44
384.00	337.04
384.19	367.46
384.39	341.72
384.58	365.12
384.78	411.93
384.97	306.61
385.17	430.66
385.36	332.36
385.56	351.08
385.75	372.15
385.95	390.87
386.14	407.25
386.34	414.27
386.53	411.93
386.72	395.55
386.92	402.57
387.11	437.68
387.31	379.17
387.50	386.19
387.70	379.17
387.89	416.62
388.09	442.36
388.28	437.68
388.48	491.51
388.67	440.02
388.86	498.53
389.06	437.68
389.25	463.43
389.45	428.32
389.64	428.32
389.84	458.74
390.03	479.81
390.22	484.49
390.42	444.70
390.61	458.74
390.81	493.85
391.00	404.91
391.19	498.53
391.39	573.43
391.58	533.64
391.78	477.47
391.97	519.60
392.16	519.60
392.36	489.17
392.55	547.69
392.75	557.05
392.94	484.49
393.13	573.43
393.33	596.84
393.52	528.96
393.71	622.58
393.91	543.00
394.10	512.58
394.29	561.73
394.49	573.43
394.68	606.20
394.88	552.37
395.07	678.76
395.26	603.86
395.46	629.60
395.65	638.97
395.84	662.37
396.04	660.03
396.23	566.41
396.42	575.77
396.62	697.48
396.81	730.25
397.00	683.44
397.19	695.14
397.39	664.71
397.58	676.41
397.77	690.46
397.97	685.78
398.16	711.52
398.35	704.50
398.55	662.37
398.74	788.76
398.93	732.59
399.12	692.80
399.32	657.69
399.51	671.73
399.70	713.86
399.90	798.12
400.09	713.86
400.28	739.61
400.47	751.31
400.67	791.10
400.86	774.72
401.05	793.44
401.24	781.74
401.44	809.83
401.63	816.85
401.82	793.44
402.01	835.57
402.21	763.01
402.40	837.91
402.59	809.83
402.78	786.42
402.97	758.33
403.17	903.45
403.36	833.23
403.55	931.53
403.74	891.74
403.93	870.68
404.13	891.74
404.32	870.68
404.51	912.81
404.70	964.30
404.89	875.36
405.09	997.07
405.28	903.45
405.47	896.43
405.66	851.96
405.85	952.60
406.05	990.05
406.24	910.47
406.43	1004.09
406.62	968.98
406.81	1015.79
407.00	959.62
407.20	1008.77
407.39	924.51
407.58	1006.43
407.77	1067.28
407.96	1074.31
408.15	1097.71
408.34	1050.90
408.54	1060.26
408.73	1020.47
408.92	1050.90
409.11	1100.05
409.30	1121.12
409.49	1114.10
409.68	1196.01
409.87	1149.20
410.07	1203.04
410.26	1172.61
410.45	1172.61
410.64	1301.34
410.83	1170.27
411.02	1214.74
411.21	1200.69
411.40	1249.85
411.59	1188.99
411.78	1238.14
411.98	1247.51
412.17	1240.48
412.36	1275.59
412.55	1287.29
412.74	1392.62
412.93	1362.19
413.12	1252.19
413.31	1387.94
413.50	1427.73
413.69	1359.85
413.88	1380.92
414.07	1472.20
414.26	1490.92
414.45	1430.07
414.64	1486.24
414.83	1514.33
415.02	1528.37
415.22	1406.66
415.41	1486.24
415.60	1542.41
415.79	1554.12
415.98	1558.80
416.17	1544.75
416.36	1551.78
416.55	1565.82
416.74	1650.08
416.93	1624.33
417.12	1675.82
417.31	1734.34
417.50	1657.10
417.69	1755.40
417.88	1645.40
418.07	1748.38
418.26	1739.02
418.45	1685.19
418.64	1722.63
418.83	1717.95
419.02	1640.72
419.21	1722.63
419.39	1741.36
419.58	1839.66
419.77	1799.87
419.96	1874.77
420.15	1926.26
420.34	1863.07
420.53	1858.39
420.72	1877.11
420.91	1860.73
421.10	1827.96
421.29	2024.56
421.48	1949.67
421.67	1846.68
421.86	1905.20
422.05	2017.54
422.24	1982.43
422.43	2031.58
422.61	1926.26
422.80	1916.90
422.99	2022.22
423.18	1998.82
423.37	2094.78
423.56	2047.97
423.75	2036.27
423.94	1959.03
424.13	1879.45
424.32	1872.43
424.50	2045.63
424.69	2015.20
424.88	2069.03
425.07	2059.67
425.26	1975.41
425.45	2080.74
425.64	2040.95
425.83	1961.37
426.01	2087.76
426.20	1998.82
426.39	2078.40
426.58	2099.46
426.77	2040.95
426.96	2026.90
427.15	2162.66
427.33	2073.71
427.52	2179.04
427.71	2090.10
427.90	2132.23
428.09	2143.93
428.28	2134.57
428.46	2186.06
428.65	2190.74
428.84	2209.47
429.03	2162.66
429.22	2202.44
429.40	2202.44
429.59	2230.53
429.78	2120.53
429.97	2101.80
430.16	2307.77
430.34	2265.64
430.53	2352.24
430.72	2272.66
430.91	2237.55
431.10	2312.45
431.28	2361.60
431.47	2349.90
431.66	2450.54
431.85	2396.71
432.03	2490.33
432.22	2413.09
432.41	2410.75
432.60	2406.07
432.79	2394.37
432.97	2537.14
433.16	2471.61
433.35	2483.31
433.54	2480.97
433.72	2462.24
433.91	2562.89
434.10	2640.12
434.28	2520.76
434.47	2518.42
434.66	2516.08
434.85	2586.29
435.03	2551.18
435.22	2605.02
435.41	2726.72
435.59	2478.63
435.78	2612.04
435.97	2712.68
436.16	2682.25
436.34	2527.78
436.53	2740.77
436.72	2780.56
436.90	2621.40
437.09	2663.53
437.28	2733.75
437.46	2630.76
437.65	2787.58
437.84	2787.58
438.02	2818.00
438.21	2740.77
438.40	2614.38
438.58	2853.11
438.77	2855.45
438.96	2860.13
439.14	2843.75
439.33	2883.54
439.52	2883.54
439.70	3000.57
439.89	2998.23
440.08	3000.57
440.26	2951.42
440.45	3082.49
440.63	3016.95
440.82	3052.06
441.01	3173.77
441.19	3061.42
441.38	3110.57
441.57	3126.96
441.75	3199.51
441.94	3075.46
442.12	3119.93
442.31	3227.60
442.50	3204.19
442.68	3183.13
442.87	3337.60
443.05	3164.40
443.24	3276.75
443.43	3407.82
443.61	3442.93
443.80	3520.17
443.98	3431.23
444.17	3365.69
444.35	3389.10
444.54	3466.33
444.73	3386.76
444.91	3300.16
445.10	3475.70
445.28	3473.36
445.47	3353.99
445.65	3356.33
445.84	3485.06
446.02	3461.65
446.21	3346.97
446.39	3405.48
446.58	3438.25
446.77	3478.04
446.95	3424.20
447.14	3485.06
447.32	3531.87
447.51	3478.04
447.69	3503.78
447.88	3545.91
448.06	3480.38
448.25	3400.80
448.43	3466.33
448.62	3433.57
448.80	3581.02
448.99	3534.21
449.17	3625.49
449.36	3379.73
449.54	3545.91
449.73	3786.99
449.91	3712.09
450.10	3763.58
450.28	3786.99
450.46	3735.50
450.65	3676.98
450.83	3726.13
451.02	3707.41
451.20	3808.05
451.39	3768.26
451.57	3707.41
451.76	3700.39
451.94	3866.56
452.13	3927.42
452.31	3826.78
452.49	3850.18
452.68	3889.97
452.86	3819.75
453.05	3789.33
453.23	3957.85
453.42	3850.18
453.60	3768.26
453.78	3850.18
453.97	3918.06
454.15	3948.48
454.34	3967.21
454.52	3946.14
454.70	3960.19
454.89	3913.38
455.07	3934.44
455.26	4030.40
455.44	4086.58
455.62	3964.87
455.81	4065.51
455.99	4135.73
456.17	4135.73
456.36	4187.22
456.54	4248.07
456.73	4088.92
456.91	4407.23
457.09	4259.78
457.28	4400.21
457.46	4142.75
457.64	4315.95
457.83	4276.16
458.01	4266.80
458.19	4486.81
458.38	4208.28
458.56	4334.67
458.74	4428.29
458.93	4325.31
459.11	4482.13
459.29	4372.12
459.48	4550.00
459.66	4461.06
459.84	4528.94
460.03	4538.30
460.21	4482.13
460.39	4624.90
460.57	4463.40
460.76	4535.96
460.94	4564.04
461.12	4557.02
461.31	4652.98
461.49	4498.51
461.67	4704.48
461.85	4709.16
462.04	4636.60
462.22	4643.62
462.40	4716.18
462.59	4683.41
462.77	4816.82
462.95	4924.49
463.13	4690.43
463.32	4641.28
463.50	4802.78
463.68	4875.34
463.86	4732.56
464.05	4758.31
464.23	4723.20
464.41	5020.45
464.59	4821.50
464.78	4975.98
464.96	4868.31
465.14	4779.37
465.32	4964.28
465.50	4985.34
465.69	5151.52
465.87	4917.47
466.05	5090.67
466.23	5018.11
466.41	4912.78
466.60	5167.90
466.78	5102.37
466.96	5114.07
467.14	5018.11
467.32	4954.91
467.51	5193.65
467.69	5022.79
467.87	5207.69
468.05	5083.64
468.23	4968.96
468.41	4903.42
468.60	5184.29
468.78	5240.46
468.96	5184.29
469.14	5261.52
469.32	5247.48
469.50	5109.39
469.69	5210.03
469.87	5488.56
470.05	5406.64
470.23	5310.68
470.41	5401.96
470.59	5430.04
470.77	5406.64
470.95	5413.66
471.14	5476.85
471.32	5509.62
471.50	5584.52
471.68	5563.45
471.86	5675.80
472.04	5706.23
472.22	5809.21
472.40	5570.48
472.58	5647.71
472.77	5703.89
472.95	5565.79
473.13	5919.21
473.31	5781.12
473.49	5849.00
473.67	5792.83
473.85	5792.83
474.03	5912.19
474.21	5930.92
474.39	6164.97
474.57	6209.44
474.75	6127.52
474.93	5961.34
475.12	6097.10
475.30	6267.95
475.48	5902.83
475.66	6073.69
475.84	6106.46
476.02	6462.22
476.20	6307.74
476.38	6312.42
476.56	6532.44
476.74	6527.75
476.92	6572.22
477.10	6600.31
477.28	6630.74
477.46	6483.28
477.64	6722.02
477.82	6815.64
478.00	6839.05
478.18	6904.58
478.36	7028.63
478.54	6930.33
478.72	7169.06
478.90	6984.16
479.08	7042.67
479.26	7265.02
479.44	7246.30
479.62	7162.04
479.80	7162.04
479.98	7494.40
480.16	7396.09
480.34	7548.23
480.52	7583.34
480.70	7765.90
480.88	7229.91
481.06	7735.47
481.24	7779.94
481.41	7779.94
481.59	8084.21
481.77	7892.29
481.95	7967.18
482.13	8046.76
482.31	8234.00
482.49	8196.56
482.67	8142.72
482.85	8257.41
483.03	8418.91
483.21	8472.74
483.39	8454.02
483.57	8535.93
483.74	8664.66
483.92	8769.99
484.10	8620.19
484.28	8709.13
484.46	9011.06
484.64	9104.68
484.82	9027.45
485.00	9338.74
485.18	9284.91
485.35	9355.12
485.53	9301.29
485.71	9373.85
485.89	9479.17
486.07	9490.87
486.25	9373.85
486.43	9525.98
486.61	9717.90
486.78	9841.95
486.96	9998.77
487.14	10045.58
487.32	9980.04
487.50	10066.64
487.68	10164.95
487.85	10328.78
488.03	10429.43
488.21	10408.36
488.39	10429.43
488.57	10441.13
488.75	10436.45
488.92	10808.59
489.10	10801.57
489.28	10909.24
489.46	11213.51
489.64	11066.05
489.81	10930.30
489.99	11328.19
490.17	11042.65
490.35	11389.05
490.53	11281.38
490.70	11695.66
490.88	11300.11
491.06	11513.10
491.24	11707.36
491.41	11831.41
491.59	11927.37
491.77	11894.60
491.95	12088.87
492.13	12072.48
492.30	12072.48
492.48	12128.66
492.66	12421.22
492.84	12472.71
493.01	12631.87
493.19	12507.82
493.37	12582.72
493.54	12442.29
493.72	12821.45
493.90	12720.81
494.08	12798.05
494.25	13224.03
494.43	12978.27
494.61	13247.43
494.79	13291.90
494.96	13334.03
495.14	13076.57
495.32	13240.41
495.49	13296.58
495.67	13582.13
495.85	13565.74
496.02	14015.13
496.20	13635.96
496.38	13717.88
496.55	14008.11
496.73	14057.26
496.91	14153.22
497.09	13984.70
497.26	14373.23
497.44	14050.24
497.62	14345.14
497.79	14373.23
497.97	14277.27
498.14	14754.74
498.32	14712.61
498.50	14747.72
498.67	14974.75
498.85	14773.46
499.03	14979.43
499.20	15070.71
499.38	14927.94
499.56	15061.35
499.73	15290.72
499.91	15316.47
500.08	15241.57
500.26	15154.97
500.44	15311.78
500.61	15339.87
500.79	15428.81
500.97	15400.72
501.14	15901.60
501.32	15782.23
501.49	15737.76
501.67	15913.30
501.84	15901.60
502.02	15796.28
502.20	15901.60
502.37	16018.63
502.55	15962.45
502.72	16079.48
502.90	16027.99
503.07	16334.60
503.25	16175.44
503.43	16280.77
503.60	16575.67
503.78	16472.69
503.95	16306.51
504.13	16580.36
504.30	16617.80
504.48	16367.37
504.65	16547.59
504.83	16908.03
505.01	16844.84
505.18	16875.26
505.36	16938.46
505.53	16760.58
505.71	16835.47
505.88	16877.60
506.06	17008.67
506.23	17071.87
506.41	17153.79
506.58	17336.35
506.76	17298.90
506.93	17209.96
507.11	17188.89
507.28	17334.01
507.46	17411.25
507.63	17633.60
507.81	17699.13
507.98	17685.09
508.16	17685.09
508.33	17947.23
508.50	17621.89
508.68	17846.58
508.85	18164.90
509.03	17858.29
509.20	18064.25
509.38	17984.68
509.55	18298.31
509.73	18160.22
509.90	18216.39
510.08	18375.55
510.25	18464.49
510.42	18553.43
510.60	18408.31
510.77	19000.47
510.95	18628.32
511.12	18478.53
511.30	18375.55
511.47	18668.11
511.64	19110.47
511.82	18794.50
511.99	18944.30
512.17	19204.10
512.34	18785.14
512.51	19253.25
512.69	19131.54
512.86	19122.18
513.04	19480.28
513.21	19475.60
513.38	19616.03
513.56	19569.22
513.73	19316.44
513.90	19330.48
514.08	19281.33
514.25	19627.73
514.43	19920.30
514.60	19758.80
514.77	19686.25
514.95	19983.49
515.12	19805.61
515.29	19740.08
515.47	19866.47
515.64	19861.79
515.81	20006.90
515.99	20070.09
516.16	20264.36
516.33	20072.43
516.51	20491.39
516.68	20140.31
516.85	20208.19
517.03	20374.36
517.20	20519.48
517.37	20620.12
517.54	20620.12
517.72	20404.79
517.89	20475.01
518.06	20718.42
518.24	20114.56
518.41	20559.27
518.58	20767.57
518.75	20645.87
518.93	21231.00
519.10	20769.91
519.27	21055.46
519.45	20957.16
519.62	20945.45
519.79	20947.79
519.96	21085.89
520.14	21055.46
520.31	21104.61
520.48	21392.50
520.65	21458.03
520.83	21408.88
521.00	21254.40
521.17	21542.29
521.34	21355.05
521.52	21338.66
521.69	21219.30
521.86	21874.65
522.03	21572.72
522.20	21687.40
522.38	21738.90
522.55	21685.06
522.72	21565.70
522.89	21596.12
523.07	21872.31
523.24	22024.44
523.41	21989.33
523.58	22019.76
523.75	22284.24
523.92	21909.75
524.10	22068.91
524.27	22036.14
524.44	21970.61
524.61	22026.78
524.78	22391.91
524.96	22361.48
525.13	22593.19
525.30	22492.55
525.47	22675.11
525.64	22602.55
525.81	22359.14
525.98	22906.82
526.16	22452.76
526.33	22684.47
526.50	22920.87
526.67	22522.98
526.84	22927.89
527.01	22321.69
527.18	22635.32
527.36	22871.72
527.53	22827.24
527.70	23002.78
527.87	23108.11
528.04	22864.69
528.21	23126.83
528.38	23096.41
528.55	23225.14
528.72	23344.50
528.89	23168.96
529.07	23166.62
529.24	23293.01
529.41	23576.22
529.58	23318.76
529.75	23541.11
529.92	23433.44
530.09	23344.50
530.26	23871.12
530.43	23697.92
530.60	23653.45
530.77	23552.81
530.94	23555.15
531.11	23564.51
531.28	23426.42
531.46	23751.76
531.63	23915.59
531.80	23585.58
531.97	23913.25
532.14	23737.71
532.31	23616.01
532.48	23730.69
532.65	24477.32
532.82	24016.24
532.99	24166.03
533.16	24182.42
533.33	24446.90
533.50	24446.90
533.67	24140.29
533.84	24175.39
534.01	24320.51
534.18	23999.85
534.35	24353.27
534.52	24418.81
534.69	24580.31
534.86	24638.82
535.03	24690.31
535.20	24812.02
535.37	24283.06
535.54	24599.03
535.71	24676.27
535.88	24915.00
536.05	24561.58
536.22	24655.20
536.38	25046.07
536.55	24608.39
536.72	24982.88
536.89	24786.27
537.06	24886.92
537.23	25212.25
537.40	24779.25
537.57	24847.13
537.74	24830.74
537.91	25418.22
538.08	24926.71
538.25	24821.38
538.42	25315.23
538.59	25153.74
538.75	25191.19
538.92	25233.32
539.09	25235.66
539.26	25027.35
539.43	25434.60
539.60	25476.73
539.77	25270.76
539.94	25308.21
540.11	25254.38
540.28	25214.59
540.44	25291.83
540.61	25614.82
540.78	25605.46
540.95	25738.87
541.12	25647.59
541.29	25614.82
541.46	25951.86
541.62	25331.62
541.79	25476.73
541.96	25731.85
542.13	25720.15
542.30	25860.58
542.47	25841.85
542.63	26043.14
542.80	26349.75
542.97	26181.23
543.14	26366.13
543.31	26499.55
543.48	26401.24
543.64	26457.42
543.81	26459.76
543.98	26342.73
544.15	26419.97
544.32	26749.98
544.48	26785.09
544.65	26291.24
544.82	26508.91
544.99	26361.45
545.16	26632.96
545.32	26324.01
545.49	26752.32
545.66	26916.16
545.83	26810.84
546.00	26581.46
546.16	26553.38
546.33	26567.42
546.50	26464.44
546.67	26555.72
546.83	26726.58
547.00	26993.40
547.17	26864.67
547.34	26838.92
547.50	26796.79
547.67	26864.67
547.84	26841.26
548.00	26937.23
548.17	27269.58
548.34	27206.39
548.51	27098.72
548.67	27117.45
548.84	27388.95
549.01	27147.87
549.18	26705.51
549.34	27351.50
549.51	27447.46
549.68	27377.25
549.84	27246.18
550.01	27173.62
550.18	27023.83
550.34	27534.06
550.51	27398.31
550.68	27395.97
550.84	27108.08
551.01	27515.34
551.18	27482.57
551.34	27407.67
551.51	27264.90
551.68	27604.28
551.84	27503.64
552.01	27365.54
552.18	27248.52
552.34	27747.05
552.51	27592.58
552.68	27557.47
552.84	27461.51
553.01	27782.16
553.18	27508.32
553.34	27714.28
553.51	27735.35
553.67	27903.87
553.84	28074.73
554.01	27889.82
554.17	27744.71
554.34	27651.09
554.51	27929.61
554.67	28041.96
554.84	27679.18
555.00	27871.10
555.17	27817.27
555.33	27875.78
555.50	28079.41
555.67	28086.43
555.83	28212.82
556.00	28112.17
556.16	28463.25
556.33	27943.66
556.50	27840.67
556.66	28407.08
556.83	28266.65
556.99	28088.77
557.16	28397.72
557.32	28444.53
557.49	28500.70
557.65	28158.99
557.82	28163.67
557.98	28416.44
558.15	28231.54
558.32	28613.05
558.48	28332.18
558.65	28577.94
558.81	28779.23
558.98	28409.42
559.14	28737.10
559.31	28299.42
559.47	28416.44
559.64	28716.03
559.80	28840.08
559.97	28893.91
560.13	28690.29
560.30	28439.85
560.46	28680.92
560.63	28470.28
560.79	28418.78
560.96	28634.11
561.12	28582.62
561.29	28542.83
561.45	28617.73
561.61	28517.09
561.78	28868.17
561.94	28580.28
562.11	28989.88
562.27	28797.95
562.44	28641.14
562.60	29076.48
562.77	28786.25
562.93	28676.24
563.10	29127.97
563.26	28872.85
563.42	29275.42
563.59	28685.61
563.75	28683.27
563.92	29053.07
564.08	28521.77
564.24	29149.03
564.41	28830.72
564.57	28854.12
564.74	28842.42
564.90	28535.81
565.07	29039.03
565.23	29062.43
565.39	29202.86
565.56	29298.83
565.72	28914.98
565.88	29116.26
566.05	28734.76
566.21	28968.81
566.38	28788.59
566.54	28884.55
566.70	29333.93
566.87	29563.31
567.03	29013.28
567.19	29362.02
567.36	29167.76
567.52	29027.32
567.68	29467.34
567.85	29067.11
568.01	29191.16
568.17	29130.31
568.34	29013.28
568.50	29099.88
568.66	29432.24
568.83	29139.67
568.99	29486.07
569.15	29284.78
569.32	28893.91
569.48	29324.57
569.64	29298.83
569.81	29472.03
569.97	29165.42
570.13	29418.19
570.30	29680.33
570.46	29303.51
570.62	29186.48
570.78	29558.63
570.95	29226.27
571.11	29441.60
571.27	29062.43
571.43	28863.49
571.60	29340.96
571.76	29280.10
571.92	29675.65
572.09	29804.38
572.25	29558.63
572.41	29694.38
572.57	29453.30
572.74	29223.93
572.90	29376.06
573.06	29717.78
573.22	29237.97
573.38	29460.32
573.55	29312.87
573.71	29830.13
573.87	29647.57
574.03	29567.99
574.20	29727.14
574.36	29439.26
574.52	29579.69
574.68	29851.19
574.84	29455.64
575.01	29755.23
575.17	29560.97
575.33	29268.40
575.49	29305.85
575.65	29600.76
575.82	29596.07
575.98	29511.81
576.14	29369.04
576.30	29563.31
576.46	29305.85
576.62	29319.89
576.79	29621.82
576.95	29249.67
577.11	29888.64
577.27	29364.36
577.43	29570.33
577.59	29617.14
577.75	29612.46
577.92	29186.48
578.08	29614.80
578.24	29413.51
578.40	29259.04
578.56	29823.11
578.72	29603.10
578.88	29907.37
579.04	30096.95
579.21	29591.39
579.37	29689.70
579.53	29727.14
579.69	29392.45
579.85	29340.96
580.01	29699.06
580.17	29146.69
580.33	29607.78
580.49	29839.49
580.65	29584.37
580.82	29628.84
580.98	29940.13
581.14	29607.78
581.30	29750.55
581.46	29654.59
581.62	29467.34
581.78	29420.53
581.94	29584.37
582.10	29425.22
582.26	29558.63
582.42	29577.35
582.58	29912.05
582.74	29965.88
582.90	29954.18
583.06	29516.50
583.22	29539.90
583.38	29717.78
583.54	29347.98
583.70	29572.67
583.86	29993.97
584.02	29500.11
584.18	29769.27
584.34	29954.18
584.50	30026.73
584.66	29905.02
584.82	29750.55
584.98	29862.90
585.14	29663.95
585.30	29652.25
585.46	29649.91
585.62	29490.75
585.78	30012.69
585.94	29699.06
586.10	30043.12
586.26	29780.98
586.42	29851.19
586.58	30251.42
586.74	29937.79
586.90	29823.11
587.06	29663.95
587.22	29785.66
587.38	29759.91
587.54	30181.21
587.70	30036.09
587.86	29675.65
588.02	30036.09
588.18	30176.53
588.34	30150.78
588.49	29972.90
588.65	29703.74
588.81	29972.90
588.97	29935.45
589.13	30038.44
589.29	29757.57
589.45	30150.78
589.61	30029.07
589.77	30426.96
589.93	30195.25
590.08	30075.88
590.24	30075.88
590.40	30108.65
590.56	30026.73
590.72	30167.16
590.88	29951.84
591.04	29846.51
591.20	30424.62
591.35	30232.70
591.51	30436.33
591.67	30576.76
591.83	30309.94
591.99	30300.58
592.15	30387.18
592.31	30401.22
592.46	30068.86
592.62	30080.56
592.78	29790.34
592.94	29839.49
593.10	30199.93
593.26	30181.21
593.41	30176.53
593.57	29895.66
593.73	30312.28
593.89	30157.80
594.05	29905.02
594.20	30096.95
594.36	30192.91
594.52	30071.20
594.68	30389.52
594.84	29890.98
594.99	30349.73
595.15	30359.09
595.31	30445.69
595.47	30260.79
595.62	30429.30
595.78	30185.89
595.94	30433.99
596.10	30328.66
596.25	30291.21
596.41	29979.92
596.57	30288.87
596.73	30136.74
596.88	30195.25
597.04	30651.66
597.20	30380.15
597.36	30169.51
597.51	30443.35
597.67	30359.09
597.83	30202.27
597.99	30675.06
598.14	30396.54
598.30	30389.52
598.46	30359.09
598.61	30169.51
598.77	30082.91
598.93	30024.39
599.09	30560.37
599.24	30625.91
599.40	30771.02
599.56	30345.05
599.71	30319.30
599.87	30459.73
600.03	30511.22
600.18	30164.82
600.34	30015.03
600.50	30113.33
600.65	30331.00
600.81	30576.76
600.97	30450.37
601.12	30590.80
601.28	30288.87
601.44	30497.18
601.59	30085.25
601.75	30256.11
601.91	30700.81
602.06	30448.03
602.22	30436.33
602.37	30223.34
602.53	30054.82
602.69	30721.87
602.84	30478.46
603.00	30595.48
603.16	30490.16
603.31	30543.99
603.47	30574.42
603.62	30480.80
603.78	30436.33
603.94	30225.68
604.09	30195.25
604.25	30277.17
604.40	30384.83
604.56	30560.37
604.71	30422.28
604.87	30349.73
605.03	30366.11
605.18	30078.22
605.34	30485.48
605.49	30118.01
605.65	30401.22
605.80	30078.22
605.96	30082.91
606.12	30335.68
606.27	30321.64
606.43	30174.19
606.58	30174.19
606.74	30377.81
606.89	30377.81
607.05	30375.47
607.20	30169.51
607.36	30052.48
607.51	30286.53
607.67	30026.73
607.82	30050.14
607.98	30258.45
608.13	30270.15
608.29	30326.32
608.44	30314.62
608.60	30623.57
608.75	30415.26
608.91	30373.13
609.06	30082.91
609.22	30782.73
609.37	29645.23
609.53	30209.29
609.68	29853.53
609.84	30050.14
609.99	30338.02
610.15	29860.55
610.30	30256.11
610.46	30213.98
610.61	30195.25
610.76	30291.21
610.92	30122.69
611.07	30096.95
611.23	30132.06
611.38	29837.15
611.54	29530.54
611.69	29820.77
611.84	29898.00
612.00	30218.66
612.15	29703.74
612.31	29862.90
612.46	29656.93
612.62	30031.41
612.77	30082.91
612.92	30302.92
613.08	30331.00
613.23	30132.06
613.39	29731.83
613.54	29846.51
613.69	29577.35
613.85	29813.74
614.00	29790.34
614.15	29811.40
614.31	29603.10
614.46	29769.27
614.62	29703.74
614.77	29762.25
614.92	29577.35
615.08	29755.23
615.23	29937.79
615.38	29951.84
615.54	29816.08
615.69	29542.24
615.84	29277.76
616.00	29846.51
616.15	29429.90
616.30	29715.44
616.46	29303.51
616.61	29790.34
616.76	29696.72
616.92	29380.74
617.07	29532.88
617.22	29392.45
617.37	29558.63
617.53	29462.66
617.68	29523.52
617.83	29472.03
617.99	29298.83
618.14	29383.09
618.29	29156.05
618.45	29530.54
618.60	29376.06
618.75	29500.11
618.90	29067.11
619.06	29771.61
619.21	29277.76
619.36	29322.23
619.51	29109.24
619.67	29074.13
619.82	28989.88
619.97	29310.53
620.12	29046.05
620.28	28989.88
620.43	29317.55
620.58	29326.91
620.73	29411.17
620.89	29214.57
621.04	29504.79
621.19	29476.71
621.34	29200.52
621.49	28943.06
621.65	29333.93
621.80	29273.08
621.95	29418.19
622.10	28762.84
622.25	29125.63
622.41	28914.98
622.56	29067.11
622.71	29088.18
622.86	29095.20
623.01	28966.47
623.16	28662.20
623.32	28996.90
623.47	28957.11
623.62	28882.21
623.77	28807.31
623.92	28610.71
624.07	29118.60
624.23	28652.84
624.38	28842.42
624.53	28882.21
624.68	28847.10
624.83	29041.37
624.98	29053.07
625.13	28903.28
625.29	29024.98
625.44	28627.09
625.59	28650.50
625.74	28353.25
625.89	28643.48
626.04	28531.13
626.19	28500.70
626.34	28442.19
626.49	28439.85
626.65	28811.99
626.80	28393.04
626.95	28346.23
627.10	28297.08
627.25	28835.40
627.40	28655.18
627.55	28432.83
627.70	28105.15
627.85	28077.07
628.00	28121.54
628.15	28294.74
628.30	28102.81
628.45	28301.76
628.60	28376.66
628.76	28133.24
628.91	28308.78
629.06	28329.84
629.21	28144.94
629.36	28229.20
629.51	28070.04
629.66	27896.85
629.81	27826.63
629.96	28070.04
630.11	28081.75
630.26	28030.26
630.41	28299.42
630.56	28011.53
630.71	27861.74
630.86	28130.90
631.01	28224.52
631.16	28053.66
631.31	27667.47
631.46	27934.29
631.61	28151.96
631.76	28067.70
631.91	28177.71
632.06	27885.14
632.21	27861.74
632.36	27828.97
632.51	27281.28
632.66	27843.01
632.81	27604.28
632.96	28006.85
633.10	27857.06
633.25	28074.73
633.40	27695.56
633.55	27597.26
633.70	27665.13
633.85	27641.73
634.00	27084.68
634.15	27725.99
634.30	27360.86
634.45	27536.40
634.60	27604.28
634.75	27192.34
634.90	27328.10
635.05	27325.75
635.19	27665.13
635.34	27632.36
635.49	27613.64
635.64	27606.62
635.79	27744.71
635.94	27899.19
636.09	27318.73
636.24	27105.74
636.39	27435.76
636.53	27498.95
636.68	27220.43
636.83	27267.24
636.98	27159.58
637.13	27384.27
637.28	27339.80
637.43	27417.04
637.57	27318.73
637.72	27129.15
637.87	27489.59
638.02	27058.93
638.17	27206.39
638.32	27133.83
638.46	27117.45
638.61	26974.67
638.76	27274.26
638.91	27168.94
639.06	26806.16
639.20	27159.58
639.35	26834.24
639.50	27307.03
639.65	27592.58
639.80	27278.94
639.94	27129.15
640.09	27105.74
640.24	26909.14
640.39	26590.83
640.54	26733.60
640.68	26916.16
640.83	26604.87
640.98	26778.07
641.13	26712.53
641.27	26703.17
641.42	26604.87
641.57	27126.81
641.72	26937.23
641.86	26710.19
642.01	26513.59
642.16	26455.08
642.31	26384.86
642.45	26637.64
642.60	26501.89
642.75	26501.89
642.90	26258.47
643.04	26675.09
643.19	26319.32
643.34	26595.51
643.48	26265.49
643.63	26412.95
643.78	26155.49
643.93	26199.96
644.07	26340.39
644.22	26569.76
644.37	26497.20
644.51	26412.95
644.66	26265.49
644.81	26167.19
644.95	26314.64
645.10	26012.71
645.25	26391.88
645.39	26195.28
645.54	26171.87
645.69	26082.93
645.83	26345.07
645.98	26518.27
646.13	26206.98
646.27	26422.31
646.42	26127.40
646.57	26338.05
646.71	26501.89
646.86	26141.44
647.00	25888.67
647.15	25961.22
647.30	26047.82
647.44	25841.85
647.59	26148.46
647.74	26052.50
647.88	26047.82
648.03	26228.04
648.17	26195.28
648.32	26309.96
648.47	25979.95
648.61	25802.07
648.76	26010.37
648.90	26419.97
649.05	26239.75
649.20	25900.37
649.34	25593.76
649.49	25715.47
649.63	25537.59
649.78	25422.90
649.92	25743.55
650.07	26001.01
650.21	25895.69
650.36	26127.40
650.51	25771.64
650.65	25736.53
650.80	25961.22
650.94	25610.14
651.09	25692.06
651.23	25635.89
651.38	25743.55
651.52	25532.90
651.67	25839.51
651.81	25563.33
651.96	25352.68
652.10	25717.81
652.25	26139.10
652.39	25872.28
652.54	25600.78
652.68	25577.37
652.83	25741.21
652.97	25855.90
653.12	25649.93
653.26	25291.83
653.41	25764.62
653.55	25254.38
653.70	25298.85
653.84	25472.05
653.99	25256.72
654.13	25450.99
654.27	25266.08
654.42	25289.49
654.56	25221.61
654.71	25294.17
654.85	25598.44
655.00	25301.19
655.14	25511.84
655.29	25462.69
655.43	25352.68
655.57	25305.87
655.72	25317.57
655.86	25151.40
656.01	25324.60
656.15	24725.42
656.30	24858.83
656.44	25172.46
656.58	24816.70
656.73	24847.13
656.87	25376.09
657.01	25043.73
657.16	25170.12
657.30	25008.62
657.45	25109.27
657.59	25125.65
657.73	24884.58
657.88	25013.31
658.02	25179.48
658.16	24528.81
658.31	24840.11
658.45	24996.92
658.60	24638.82
658.74	24898.62
658.88	24886.92
659.03	24458.60
659.17	24563.92
659.31	24563.92
659.46	24795.64
659.60	24634.14
659.74	24496.05
659.89	24673.93
660.03	24418.81
660.17	24489.03
660.32	24542.86
660.46	24360.30
660.60	24327.53
660.74	24210.50
660.89	24758.19
661.03	24166.03
661.17	24507.75
661.32	24297.10
661.46	24425.83
661.60	24154.33
661.74	24191.78
661.89	24386.04
662.03	24254.97
662.17	24130.92
662.31	24079.43
662.46	24144.97
662.60	23953.04
662.74	24156.67
662.88	23885.17
663.03	23903.89
663.17	23777.50
663.31	23655.79
663.45	23690.90
663.60	23550.47
663.74	23683.88
663.88	23864.10
664.02	23866.44
664.17	23714.31
664.31	23468.55
664.45	23456.85
664.59	23431.10
664.73	23700.26
664.88	23405.36
665.02	23353.87
665.16	23477.91
665.30	23173.64
665.44	23459.19
665.59	22916.19
665.73	23267.27
665.87	23124.49
666.01	23218.11
666.15	23433.44
666.29	23208.75
666.44	23178.33
666.58	23122.15
666.72	22960.66
666.86	23037.89
667.00	23157.26
667.14	22946.61
667.28	23119.81
667.43	22750.01
667.57	22951.29
667.71	22677.45
667.85	22614.26
667.99	22754.69
668.13	22925.55
668.27	22544.04
668.41	22906.82
668.56	22789.80
668.70	22864.69
668.84	22764.05
668.98	22347.44
669.12	23131.51
669.26	22553.40
669.40	22525.32
669.54	22932.57
669.68	22602.55
669.82	22251.47
669.96	22136.79
670.10	22312.33
670.25	22476.16
670.39	22347.44
670.53	21986.99
670.67	22113.38
670.81	22253.81
670.95	22153.17
671.09	22022.10
671.23	22089.98
671.37	22085.30
671.51	21977.63
671.65	21961.25
671.79	21909.75
671.93	22073.59
672.07	22043.17
672.21	21582.08
672.35	21671.02
672.49	21378.45
672.63	21427.60
672.77	21497.82
672.91	21680.38
673.05	21429.94
673.19	21769.32
673.33	21453.35
673.47	21694.43
673.61	21362.07
673.75	21242.70
673.89	21439.31
674.03	21254.40
674.17	21216.96
674.31	21209.93
674.45	20912.69
674.59	21081.21
674.73	21249.72
674.87	20727.78
675.01	20922.05
675.15	20847.15
675.29	20648.21
675.43	20849.49
675.56	20592.03
675.70	20493.73
675.84	20645.87
675.98	20393.09
676.12	20849.49
676.26	20875.24
676.40	20734.81
676.54	20477.35
676.68	20308.83
676.82	19894.55
676.96	20226.91
677.10	20283.08
677.23	20168.40
677.37	20119.24
677.51	20009.24
677.65	20414.15
677.79	19910.94
677.93	19969.45
678.07	19541.13
678.21	19594.96
678.34	19662.84
678.48	19604.33
678.62	19489.64
678.76	19435.81
678.90	19407.72
679.04	19325.80
679.18	19543.47
679.31	19115.16
679.45	19019.19
679.59	19124.52
679.73	19309.42
679.87	18920.89
680.00	18951.32
680.14	19030.90
680.28	19007.49
680.42	18934.93
680.56	18972.38
680.70	19080.05
680.83	18661.09
680.97	18806.20
681.11	18799.18
681.25	18794.50
681.39	18429.38
681.52	18705.56
681.66	18185.96
681.80	18382.57
681.94	18408.31
682.07	18565.13
682.21	18057.23
682.35	18239.79
682.49	17909.78
682.62	18298.31
682.76	17713.17
682.90	17902.76
683.04	18054.89
683.17	17834.88
683.31	18073.62
683.45	17645.30
683.59	18008.08
683.72	17778.71
683.86	17844.24
684.00	17556.36
684.13	17612.53
684.27	17369.12
684.41	17451.03
684.55	17151.45
684.68	17163.15
684.82	16938.46
684.96	17231.02
685.09	16936.12
685.23	16800.37
685.37	16901.01
685.50	16872.92
685.64	17076.55
685.78	16814.41
685.91	16982.93
686.05	17020.38
686.19	16725.47
686.32	16950.16
686.46	16709.08
686.60	16374.39
686.73	16690.36
686.87	16484.39
687.01	16243.32
687.14	16332.26
687.28	16233.96
687.42	16283.11
687.55	16086.50
687.69	16184.80
687.82	16084.16
687.96	16093.52
688.10	16128.63
688.23	15997.56
688.37	15887.56
688.50	15625.42
688.64	15672.23
688.78	15541.16
688.91	15908.62
689.05	15716.70
689.18	15494.35
689.32	15164.33
689.46	15272.00
689.59	15000.49
689.73	15335.19
689.86	15220.50
690.00	15253.27
690.13	15325.83
690.27	14986.45
690.41	15178.37
690.54	15075.39
690.68	15028.58
690.81	15023.90
690.95	15059.01
691.08	14927.94
691.22	14813.25
691.35	14689.20
691.49	14754.74
691.62	14473.87
691.76	14441.11
691.89	14754.74
692.03	14134.50
692.16	14544.09
692.30	14366.21
692.43	14101.73
692.57	13998.74
692.70	14195.35
692.84	14022.15
692.97	13998.74
693.11	14176.62
693.24	13926.19
693.38	13919.17
693.51	13816.18
693.65	13848.95
693.78	13745.97
693.92	13729.58
694.05	13802.14
694.19	13706.18
694.32	13352.76
694.45	13331.69
694.59	13219.35
694.72	13179.56
694.86	13312.97
694.99	12767.62
695.13	13315.31
695.26	13207.64
695.39	13053.17
695.53	13029.76
695.66	13008.70
695.80	12959.55
695.93	12894.01
696.07	12954.87
696.20	13036.78
696.33	13018.06
696.47	12744.22
696.60	12645.91
696.73	12610.81
696.87	12435.27
697.00	12674.00
697.14	12416.54
697.27	12315.90
697.40	12217.60
697.54	12266.75
697.67	12046.74
697.80	12217.60
697.94	12037.38
698.07	12006.95
698.21	11880.56
698.34	11903.96
698.47	11955.46
698.61	12140.36
698.74	12123.98
698.87	12011.63
699.01	11908.65
699.14	11838.43
699.27	11751.83
699.40	11857.15
699.54	11356.28
699.67	11459.26
699.80	11580.97
699.94	11351.60
700.07	11426.50
700.20	11269.68
700.34	11173.72
700.47	11192.44
700.60	11129.25
700.73	11325.85
700.87	11103.50
701.00	11094.14
701.13	11183.08
701.26	11063.71
701.40	11023.92
701.53	10956.05
701.66	10923.28
701.79	10862.43
701.93	10780.51
702.06	10867.11
702.19	10855.40
702.32	10406.02
702.46	10527.73
702.59	10483.26
702.72	10317.08
702.85	10389.64
702.99	10298.36
703.12	10403.68
703.25	10134.52
703.38	10195.37
703.51	10342.83
703.65	10310.06
703.78	10120.48
703.91	10298.36
704.04	10197.71
704.17	10293.68
704.31	9940.26
704.44	9853.66
704.57	10026.86
704.70	9792.80
704.83	9853.66
704.96	9516.62
705.10	9551.73
705.23	9568.11
>>>>>End Processed Spectral Data<<<<<
