SpectraSuite Data File
++++++++++++++++++++++++++++++++++++
Date: Fri Oct 18 13:58:38 GMT-05:00 2013
User: bianchi
Dark Spectrum Present: No
Reference Spectrum Present: No
Number of Sampled Component Spectra: 1
Spectrometers: USB2+H05261
Integration Time (usec): 50000 (USB2+H05261)
Spectra Averaged: 1 (USB2+H05261)
Boxcar Smoothing: 0 (USB2+H05261)
Correct for Electrical Dark: No (USB2+H05261)
Strobe/Lamp Enabled: No (USB2+H05261)
Correct for Detector Non-linearity: No (USB2+H05261)
Correct for Stray Light: No (USB2+H05261)
Number of Pixels in Processed Spectrum: 2048
>>>>>Begin Processed Spectral Data<<<<<
365.73	0.00
365.92	0.00
366.12	0.00
366.32	0.00
366.52	0.00
366.72	0.00
366.91	0.00
367.11	0.00
367.31	0.00
367.51	0.00
367.70	0.00
367.90	0.00
368.10	0.00
368.30	0.00
368.49	0.00
368.69	0.00
368.89	0.00
369.09	0.00
369.28	0.00
369.48	0.00
369.68	0.00
369.87	0.00
370.07	0.00
370.27	0.00
370.47	0.00
370.66	74.90
370.86	107.66
371.06	114.69
371.25	128.73
371.45	86.60
371.65	112.35
371.84	46.81
372.04	126.39
372.24	196.60
372.44	175.54
372.63	170.86
372.83	189.58
373.03	269.16
373.22	234.05
373.42	222.35
373.62	220.01
373.81	245.76
374.01	227.03
374.21	229.37
374.40	245.76
374.60	191.92
374.79	189.58
374.99	215.33
375.19	250.44
375.38	290.23
375.58	250.44
375.78	236.39
375.97	198.95
376.17	269.16
376.37	248.10
376.56	264.48
376.76	318.31
376.95	212.99
377.15	210.65
377.35	271.50
377.54	227.03
377.74	330.02
377.93	231.71
378.13	276.18
378.33	339.38
378.52	297.25
378.72	287.89
378.91	255.12
379.11	257.46
379.31	241.08
379.50	297.25
379.70	386.19
379.89	257.46
380.09	297.25
380.28	327.68
380.48	351.08
380.68	353.42
380.87	308.95
381.07	367.46
381.26	379.17
381.46	367.46
381.65	376.83
381.85	344.06
382.04	320.65
382.24	341.72
382.43	301.93
382.63	369.80
382.83	294.91
383.02	365.12
383.22	351.08
383.41	318.31
383.61	353.42
383.80	458.74
384.00	390.87
384.19	379.17
384.39	393.21
384.58	313.63
384.78	330.02
384.97	257.46
385.17	369.80
385.36	365.12
385.56	327.68
385.75	325.33
385.95	465.77
386.14	423.64
386.34	479.81
386.53	423.64
386.72	456.40
386.92	468.11
387.11	461.09
387.31	386.19
387.50	437.68
387.70	369.80
387.89	418.96
388.09	465.77
388.28	386.19
388.48	489.17
388.67	372.15
388.86	514.92
389.06	374.49
389.25	458.74
389.45	557.05
389.64	435.34
389.84	503.22
390.03	440.02
390.22	486.83
390.42	484.49
390.61	510.24
390.81	547.69
391.00	465.77
391.19	496.19
391.39	510.24
391.58	538.32
391.78	404.91
391.97	524.28
392.16	458.74
392.36	521.94
392.55	503.22
392.75	526.62
392.94	498.53
393.13	538.32
393.33	535.98
393.52	550.03
393.71	538.32
393.91	601.52
394.10	507.90
394.29	585.13
394.49	615.56
394.68	550.03
394.88	580.45
395.07	615.56
395.26	589.82
395.46	557.05
395.65	622.58
395.84	543.00
396.04	681.10
396.23	557.05
396.42	585.13
396.62	622.58
396.81	676.41
397.00	709.18
397.19	631.94
397.39	655.35
397.58	648.33
397.77	711.52
397.97	706.84
398.16	648.33
398.35	655.35
398.55	676.41
398.74	653.01
398.93	716.20
399.12	603.86
399.32	727.91
399.51	660.03
399.70	718.54
399.90	683.44
400.09	774.72
400.28	702.16
400.47	699.82
400.67	795.78
400.86	734.93
401.05	784.08
401.24	765.36
401.44	814.51
401.63	774.72
401.82	781.74
402.01	711.52
402.21	816.85
402.40	826.21
402.59	704.50
402.78	779.40
402.97	779.40
403.17	828.55
403.36	837.91
403.55	814.51
403.74	868.34
403.93	931.53
404.13	997.07
404.32	844.93
404.51	929.19
404.70	851.96
404.89	917.49
405.09	931.53
405.28	945.58
405.47	910.47
405.66	891.74
405.85	954.94
406.05	1011.11
406.24	971.32
406.43	931.53
406.62	1043.88
406.81	1018.13
407.00	1083.67
407.20	992.39
407.39	940.90
407.58	1062.60
407.77	1123.46
407.96	1071.97
408.15	1153.88
408.34	1121.12
408.54	1088.35
408.73	1078.99
408.92	1135.16
409.11	1177.29
409.30	1132.82
409.49	1135.16
409.68	1093.03
409.87	1132.82
410.07	1081.33
410.26	1090.69
410.45	1156.22
410.64	1167.93
410.83	1095.37
411.02	1196.01
411.21	1301.34
411.40	1261.55
411.59	1324.74
411.78	1245.16
411.98	1193.67
412.17	1303.68
412.36	1214.74
412.55	1357.51
412.74	1336.45
412.93	1329.42
413.12	1308.36
413.31	1432.41
413.50	1399.64
413.69	1348.15
413.88	1451.13
414.07	1329.42
414.26	1404.32
414.45	1416.02
414.64	1434.75
414.83	1523.69
415.02	1469.86
415.22	1610.29
415.41	1647.74
415.60	1488.58
415.79	1586.88
415.98	1514.33
416.17	1624.33
416.36	1526.03
416.55	1661.78
416.74	1680.50
416.93	1629.01
417.12	1596.25
417.31	1673.48
417.50	1530.71
417.69	1743.70
417.88	1727.32
418.07	1769.44
418.26	1682.85
418.45	1699.23
418.64	1750.72
418.83	1795.19
419.02	1666.46
419.21	1792.85
419.39	1762.42
419.58	1823.28
419.77	1729.66
419.96	1746.04
420.15	1825.62
420.34	1834.98
420.53	1865.41
420.72	1879.45
420.91	1959.03
421.10	1944.99
421.29	1928.60
421.48	1849.02
421.67	1987.11
421.86	1977.75
422.05	1959.03
422.24	1888.81
422.43	1891.15
422.61	1970.73
422.80	2045.63
422.99	1935.62
423.18	1982.43
423.37	1952.01
423.56	1902.86
423.75	1933.28
423.94	1909.88
424.13	1879.45
424.32	2024.56
424.50	2026.90
424.69	2136.91
424.88	2118.18
425.07	1998.82
425.26	1980.09
425.45	1949.67
425.64	2047.97
425.83	1935.62
426.01	2132.23
426.20	1914.56
426.39	2054.99
426.58	2031.58
426.77	2071.37
426.96	2083.08
427.15	2050.31
427.33	2172.02
427.52	2155.63
427.71	2179.04
427.90	2113.50
428.09	2186.06
428.28	2153.29
428.46	2160.31
428.65	2300.75
428.84	2225.85
429.03	2249.25
429.22	2265.64
429.40	2298.41
429.59	2296.07
429.78	2150.95
429.97	2179.04
430.16	2197.76
430.34	2270.32
430.53	2377.98
430.72	2310.11
430.91	2310.11
431.10	2235.21
431.28	2354.58
431.47	2291.38
431.66	2429.48
431.85	2363.94
432.03	2429.48
432.22	2452.88
432.41	2335.85
432.60	2370.96
432.79	2377.98
432.97	2459.90
433.16	2429.48
433.35	2445.86
433.54	2548.84
433.72	2396.71
433.91	2537.14
434.10	2448.20
434.28	2576.93
434.47	2523.10
434.66	2502.03
434.85	2473.95
435.03	2658.85
435.22	2448.20
435.41	2726.72
435.59	2710.34
435.78	2696.30
435.97	2630.76
436.16	2532.46
436.34	2656.51
436.53	2729.06
436.72	2768.85
436.90	2656.51
437.09	2679.91
437.28	2693.96
437.46	2555.86
437.65	2708.00
437.84	2899.92
438.02	2815.66
438.21	2682.25
438.40	2693.96
438.58	2944.39
438.77	2874.18
438.96	2839.07
439.14	2928.01
439.33	2890.56
439.52	2956.10
439.70	2920.99
439.89	3115.25
440.08	3014.61
440.26	2939.71
440.45	3021.63
440.63	2967.80
440.82	3023.97
441.01	3030.99
441.19	3155.04
441.38	3155.04
441.57	3243.98
441.75	3225.26
441.94	3248.66
442.12	3190.15
442.31	3311.86
442.50	3281.43
442.68	3208.87
442.87	3318.88
443.05	3276.75
443.24	3494.42
443.43	3251.00
443.61	3349.31
443.80	3452.29
443.98	3325.90
444.17	3358.67
444.35	3351.65
444.54	3471.01
444.73	3506.12
444.91	3379.73
445.10	3588.04
445.28	3375.05
445.47	3459.31
445.65	3398.46
445.84	3571.66
446.02	3463.99
446.21	3473.36
446.39	3314.20
446.58	3421.86
446.77	3506.12
446.95	3356.33
447.14	3407.82
447.32	3536.55
447.51	3433.57
447.69	3412.50
447.88	3569.32
448.06	3412.50
448.25	3447.61
448.43	3351.65
448.62	3482.72
448.80	3541.23
448.99	3545.91
449.17	3599.74
449.36	3363.35
449.54	3578.68
449.73	3660.60
449.91	3686.34
450.10	3646.55
450.28	3730.81
450.46	3651.24
450.65	3583.36
450.83	3740.18
451.02	3709.75
451.20	3784.65
451.39	3796.35
451.57	3709.75
451.76	3733.15
451.94	3665.28
452.13	3906.35
452.31	3686.34
452.49	3857.20
452.68	3857.20
452.86	3789.33
453.05	3946.14
453.23	3948.48
453.42	3810.39
453.60	3859.54
453.78	3887.63
453.97	3899.33
454.15	3981.25
454.34	3812.73
454.52	4028.06
454.70	3911.04
454.89	3992.95
455.07	3887.63
455.26	3999.98
455.44	3997.64
455.62	4044.45
455.81	4117.00
455.99	4095.94
456.17	3962.53
456.36	4072.53
456.54	4095.94
456.73	4184.88
456.91	4255.09
457.09	4175.52
457.28	4409.57
457.46	4180.20
457.64	4133.39
457.83	4311.27
458.01	4259.78
458.19	4360.42
458.38	4294.88
458.56	4498.51
458.74	4418.93
458.93	4437.66
459.11	4318.29
459.29	4332.33
459.48	4351.06
459.66	4423.61
459.84	4573.41
460.03	4566.39
460.21	4465.74
460.39	4454.04
460.57	4468.08
460.76	4559.36
460.94	4550.00
461.12	4500.85
461.31	4568.73
461.49	4493.83
461.67	4519.57
461.85	4634.26
462.04	4528.94
462.22	4739.58
462.40	4732.56
462.59	4912.78
462.77	4688.09
462.95	4739.58
463.13	4720.86
463.32	4711.50
463.50	4683.41
463.68	4849.59
463.86	4608.51
464.05	4779.37
464.23	4760.65
464.41	4774.69
464.59	4720.86
464.78	4873.00
464.96	4854.27
465.14	4753.63
465.32	4947.89
465.50	5071.94
465.69	4917.47
465.87	4924.49
466.05	4762.99
466.23	4922.15
466.41	4844.91
466.60	5062.58
466.78	4947.89
466.96	4987.68
467.14	5018.11
467.32	5008.75
467.51	5151.52
467.69	4938.53
467.87	5064.92
468.05	5114.07
468.23	5085.98
468.41	5177.26
468.60	5060.24
468.78	5137.48
468.96	5186.63
469.14	5320.04
469.32	5249.82
469.50	5118.75
469.69	5338.76
469.87	5334.08
470.05	5231.10
470.23	5385.57
470.41	5270.89
470.59	5399.62
470.77	5334.08
470.95	5455.79
471.14	5401.96
471.32	5446.43
471.50	5645.37
471.68	5607.92
471.86	5640.69
472.04	5626.65
472.22	5727.29
472.40	5514.30
472.58	5540.05
472.77	5596.22
472.95	5600.90
473.13	5816.23
473.31	5769.42
473.49	5813.89
473.67	5799.85
473.85	5895.81
474.03	6008.16
474.21	5898.15
474.39	6012.84
474.57	6047.94
474.75	6061.99
474.93	6190.72
475.12	6237.53
475.30	6221.14
475.48	6146.25
475.66	6331.15
475.84	6258.59
476.02	6249.23
476.20	6221.14
476.38	6457.54
476.56	6637.76
476.74	6469.24
476.92	6565.20
477.10	6485.62
477.28	6555.84
477.46	6590.95
477.64	6780.53
477.82	6705.63
478.00	7094.16
478.18	6778.19
478.36	6757.13
478.54	6965.43
478.72	6939.69
478.90	7169.06
479.08	6937.35
479.26	7110.55
479.44	7234.60
479.62	7155.02
479.80	7304.81
479.98	7435.88
480.16	7475.67
480.34	7384.39
480.52	7611.42
480.70	7667.60
480.88	7602.06
481.06	7466.31
481.24	7630.15
481.41	7798.66
481.59	8011.65
481.77	7943.78
481.95	7999.95
482.13	7829.09
482.31	7957.82
482.49	8294.86
482.67	8266.77
482.85	8327.63
483.03	8334.65
483.21	8636.58
483.39	8709.13
483.57	8294.86
483.74	8688.07
483.92	8631.90
484.10	8877.65
484.28	8919.78
484.46	8901.06
484.64	8966.59
484.82	8821.48
485.00	9011.06
485.18	9401.93
485.35	9205.33
485.53	9207.67
485.71	9301.29
485.89	9486.19
486.07	9561.09
486.25	9509.60
486.43	9556.41
486.61	9652.37
486.78	9921.53
486.96	9827.91
487.14	9891.10
487.32	9600.88
487.50	10047.92
487.68	10153.24
487.85	10298.36
488.03	10111.11
488.21	10492.62
488.39	10647.10
488.57	10611.99
488.75	10593.26
488.92	10757.10
489.10	11007.54
489.28	10883.49
489.46	11047.33
489.64	10860.09
489.81	11005.20
489.99	11094.14
490.17	11133.93
490.35	11325.85
490.53	11232.23
490.70	11527.14
490.88	11197.12
491.06	11569.27
491.24	11726.08
491.41	11667.57
491.59	11896.94
491.77	11885.24
491.95	12006.95
492.13	11819.71
492.30	11969.50
492.48	12257.39
492.66	12100.57
492.84	12116.95
493.01	12269.09
493.19	12535.91
493.37	12599.10
493.54	12573.36
493.72	12613.15
493.90	12610.81
494.08	12805.07
494.25	12844.86
494.43	13057.85
494.61	13273.18
494.79	13114.02
494.96	13071.89
495.14	13252.11
495.32	13483.83
495.49	13376.16
495.67	13710.86
495.85	13507.23
496.02	13710.86
496.20	13752.99
496.38	13542.34
496.55	13949.59
496.73	13996.40
496.91	14321.74
497.09	13844.27
497.26	14370.89
497.44	14398.98
497.62	14078.32
497.79	14359.19
497.97	14087.68
498.14	14473.87
498.32	14633.03
498.50	14462.17
498.67	14803.89
498.85	14595.58
499.03	15075.39
499.20	14846.02
499.38	14937.30
499.56	15133.90
499.73	14911.55
499.91	15122.20
500.08	15382.00
500.26	14953.68
500.44	15646.48
500.61	15295.40
500.79	15501.37
500.97	15616.05
501.14	15531.80
501.32	15754.15
501.49	15798.62
501.67	15632.44
501.84	15880.53
502.02	15700.31
502.20	15829.04
502.37	15840.75
502.55	15936.71
502.72	15922.66
502.90	15925.00
503.07	16145.02
503.25	16163.74
503.43	16154.38
503.60	16306.51
503.78	16060.76
503.95	16334.60
504.13	16294.81
504.30	16348.64
504.48	16149.70
504.65	16332.26
504.83	16936.12
505.01	16835.47
505.18	16549.93
505.36	16903.35
505.53	16919.73
505.71	16898.67
505.88	16999.31
506.06	16912.71
506.23	17205.28
506.41	16973.56
506.58	17121.02
506.76	17149.11
506.93	17064.85
507.11	17156.13
507.28	17542.32
507.46	17593.81
507.63	17530.61
507.81	17696.79
507.98	17603.17
508.16	17668.70
508.33	17467.42
508.50	17748.28
508.68	17528.27
508.85	18211.71
509.03	17926.16
509.20	18111.07
509.38	17965.95
509.55	18104.04
509.73	18066.60
509.90	17858.29
510.08	18073.62
510.25	18305.33
510.42	18382.57
510.60	18307.67
510.77	18609.60
510.95	18590.88
511.12	18415.34
511.30	18335.76
511.47	18869.40
511.64	18335.76
511.82	18644.71
511.99	18883.44
512.17	18693.86
512.34	18911.53
512.51	19073.03
512.69	19033.24
512.86	19019.19
513.04	19543.47
513.21	19323.46
513.38	19520.07
513.56	19288.35
513.73	19199.41
513.90	19002.81
514.08	19159.63
514.25	19438.15
514.43	19667.52
514.60	19606.67
514.77	19325.80
514.95	19817.32
515.12	19826.68
515.29	19435.81
515.47	20102.86
515.64	19997.54
515.81	19852.42
515.99	19782.21
516.16	20350.96
516.33	20020.94
516.51	20388.41
516.68	19819.66
516.85	19892.21
517.03	19929.66
517.20	20273.72
517.37	19899.23
517.54	20519.48
517.72	20418.83
517.89	20332.23
518.06	20311.17
518.24	20243.29
518.41	20446.92
518.58	20741.83
518.75	20355.64
518.93	20837.79
519.10	20786.30
519.27	20746.51
519.45	20762.89
519.62	20882.26
519.79	20872.90
519.96	20746.51
520.14	21050.78
520.31	21025.03
520.48	21102.27
520.65	21074.18
520.83	20798.00
521.00	21504.84
521.17	21380.79
521.34	21186.53
521.52	21415.90
521.69	21282.49
521.86	21624.21
522.03	21675.70
522.20	21209.93
522.38	21553.99
522.55	21406.54
522.72	21671.02
522.89	21731.87
523.07	21649.96
523.24	21827.84
523.41	21874.65
523.58	21949.54
523.75	22183.60
523.92	22019.76
524.10	21951.88
524.27	21752.94
524.44	22094.66
524.61	22363.82
524.78	22097.00
524.96	22150.83
525.13	22036.14
525.30	22181.26
525.47	22384.88
525.64	22448.08
525.81	22684.47
525.98	22319.35
526.16	22457.44
526.33	22436.38
526.50	22623.62
526.67	22810.86
526.84	22768.73
527.01	22757.03
527.18	22600.21
527.36	22761.71
527.53	22574.47
527.70	22766.39
527.87	22824.90
528.04	22862.35
528.21	23077.68
528.38	22806.18
528.55	23143.22
528.72	22775.75
528.89	22965.34
529.07	23126.83
529.24	23220.45
529.41	23321.10
529.58	23033.21
529.75	23019.17
529.92	23396.00
530.09	23183.01
530.26	23630.05
530.43	23370.25
530.60	23559.83
530.77	23735.37
530.94	23653.45
531.11	23396.00
531.28	23433.44
531.46	23281.31
531.63	24004.53
531.80	23770.48
531.97	23716.65
532.14	23562.17
532.31	23831.33
532.48	24100.50
532.65	24219.86
532.82	23927.30
532.99	23833.68
533.16	23470.89
533.33	24049.00
533.50	24243.27
533.67	24053.69
533.84	24247.95
534.01	24119.22
534.18	24034.96
534.35	24063.05
534.52	24018.58
534.69	24238.59
534.86	24439.87
535.03	24446.90
535.20	24521.79
535.37	24287.74
535.54	24505.41
535.71	24622.44
535.88	24329.87
536.05	24510.09
536.22	24601.37
536.38	24472.64
536.55	24521.79
536.72	24554.56
536.89	24666.91
537.06	24746.48
537.23	24858.83
537.40	24875.21
537.57	24966.49
537.74	24872.87
537.91	25230.98
538.08	24980.54
538.25	24851.81
538.42	24849.47
538.59	25223.95
538.75	24943.09
538.92	24964.15
539.09	25095.22
539.26	25142.03
539.43	25348.00
539.60	25298.85
539.77	25317.57
539.94	25380.77
540.11	25282.47
540.28	25343.32
540.44	24987.56
540.61	25106.93
540.78	25120.97
540.95	25582.06
541.12	25198.21
541.29	25434.60
541.46	25649.93
541.62	25355.02
541.79	25233.32
541.96	25291.83
542.13	25549.29
542.30	25184.16
542.47	25839.51
542.63	26001.01
542.80	25724.83
542.97	26284.22
543.14	25905.05
543.31	25940.16
543.48	25860.58
543.64	26089.95
543.81	26670.40
543.98	26249.11
544.15	26277.19
544.32	26246.77
544.48	26324.01
544.65	26277.19
544.82	26473.80
544.99	25743.55
545.16	26209.32
545.32	25823.13
545.49	26452.73
545.66	26766.37
545.83	26525.29
546.00	26443.37
546.16	26331.03
546.33	26555.72
546.50	26235.06
546.67	26555.72
546.83	26728.92
547.00	26637.64
547.17	26775.73
547.34	26300.60
547.50	26466.78
547.67	26803.82
547.84	26663.38
548.00	26508.91
548.17	26981.70
548.34	26696.15
548.51	26834.24
548.67	26689.13
548.84	27274.26
549.01	27023.83
549.18	26890.41
549.34	26876.37
549.51	26721.90
549.68	26920.84
549.84	27084.68
550.01	26930.20
550.18	27122.13
550.34	27316.39
550.51	27346.82
550.68	27173.62
550.84	26766.37
551.01	27122.13
551.18	27007.44
551.34	26923.18
551.51	27140.85
551.68	27232.13
551.84	27555.13
552.01	27269.58
552.18	27505.98
552.34	27087.02
552.51	27239.15
552.68	27262.56
552.84	27311.71
553.01	27461.51
553.18	27566.83
553.34	27484.91
553.51	27318.73
553.67	27740.03
553.84	27875.78
554.01	27754.07
554.17	27868.76
554.34	27555.13
554.51	28037.28
554.67	27702.58
554.84	27536.40
555.00	27674.49
555.17	27784.50
555.33	27618.32
555.50	27653.43
555.67	27922.59
555.83	27962.38
556.00	27936.63
556.16	27999.83
556.33	27630.02
556.50	28180.05
556.66	27946.00
556.83	27845.35
556.99	28140.26
557.16	28198.77
557.32	28098.13
557.49	28343.89
557.65	27880.46
557.82	28266.65
557.98	28102.81
558.15	28147.28
558.32	28325.16
558.48	28304.10
558.65	28140.26
558.81	28297.08
558.98	28379.00
559.14	28156.64
559.31	28121.54
559.47	28175.37
559.64	28439.85
559.80	28423.47
559.97	28638.80
560.13	28079.41
560.30	28615.39
560.46	28489.00
560.63	28500.70
560.79	28472.62
560.96	28395.38
561.12	28423.47
561.29	27955.36
561.45	28421.13
561.61	28503.04
561.78	28666.88
561.94	28697.31
562.11	28311.12
562.27	28596.67
562.44	28659.86
562.60	28229.20
562.77	28170.69
562.93	28379.00
563.10	28706.67
563.26	28460.91
563.42	29268.40
563.59	29036.69
563.75	28795.61
563.92	28694.97
564.08	28627.09
564.24	28594.32
564.41	28737.10
564.57	28718.37
564.74	28423.47
564.90	28741.78
565.07	28847.10
565.23	28854.12
565.39	28919.66
565.56	28809.65
565.72	29214.57
565.88	29308.19
566.05	28606.03
566.21	28992.22
566.38	28910.30
566.54	28917.32
566.70	29242.65
566.87	28950.09
567.03	28493.68
567.19	29008.60
567.36	29284.78
567.52	28893.91
567.68	28893.91
567.85	28821.36
568.01	29095.20
568.17	28905.62
568.34	29048.39
568.50	28650.50
568.66	28957.11
568.83	29156.05
568.99	29310.53
569.15	29046.05
569.32	29153.71
569.48	29310.53
569.64	28950.09
569.81	29076.48
569.97	29338.62
570.13	29331.59
570.30	29003.92
570.46	29113.92
570.62	28938.38
570.78	28952.43
570.95	29076.48
571.11	29027.32
571.27	28575.60
571.43	29142.01
571.60	29195.84
571.76	28678.58
571.92	29149.03
572.09	29308.19
572.25	29102.22
572.41	28912.64
572.57	29167.76
572.74	29518.84
572.90	29097.54
573.06	28730.08
573.22	29116.26
573.38	29167.76
573.55	29139.67
573.71	29493.09
573.87	29476.71
574.03	28900.94
574.20	29472.03
574.36	29303.51
574.52	29467.34
574.68	28814.34
574.84	29212.23
575.01	29090.52
575.17	29460.32
575.33	29151.37
575.49	29097.54
575.65	29766.93
575.82	29851.19
575.98	29319.89
576.14	29593.73
576.30	29242.65
576.46	29226.27
576.62	29139.67
576.79	29443.94
576.95	29303.51
577.11	29420.53
577.27	29359.68
577.43	29465.00
577.59	29589.05
577.75	29268.40
577.92	29095.20
578.08	29069.45
578.24	29357.34
578.40	29434.58
578.56	29443.94
578.72	29603.10
578.88	29596.07
579.04	29516.50
579.21	29378.40
579.37	29521.18
579.53	29525.86
579.69	29347.98
579.85	29502.45
580.01	29277.76
580.17	28783.91
580.33	29813.74
580.49	29338.62
580.65	29453.30
580.82	29455.64
580.98	29247.33
581.14	29542.24
581.30	29645.23
581.46	29626.50
581.62	29507.13
581.78	29427.56
581.94	29549.26
582.10	29188.82
582.26	29102.22
582.42	29532.88
582.58	29778.64
582.74	29479.05
582.90	29495.43
583.06	29764.59
583.22	29823.11
583.38	29907.37
583.54	29357.34
583.70	29769.27
583.86	29198.18
584.02	29329.25
584.18	30066.52
584.34	29619.48
584.50	29472.03
584.66	29546.92
584.82	29888.64
584.98	29773.95
585.14	29521.18
585.30	29266.06
585.46	29479.05
585.62	29317.55
585.78	29731.83
585.94	29411.17
586.10	29556.28
586.26	29841.83
586.42	29846.51
586.58	29773.95
586.74	29425.22
586.90	29425.22
587.06	29390.11
587.22	29425.22
587.38	29783.32
587.54	29867.58
587.70	29628.84
587.86	29755.23
588.02	29570.33
588.18	29783.32
588.34	30263.13
588.49	29685.01
588.65	29507.13
588.81	29898.00
588.97	29645.23
589.13	29701.40
589.29	29727.14
589.45	29378.40
589.61	29628.84
589.77	29902.68
589.93	29837.15
590.08	30136.74
590.24	29979.92
590.40	30127.38
590.56	29898.00
590.72	29839.49
590.88	29516.50
591.04	29626.50
591.20	30209.29
591.35	30066.52
591.51	30431.65
591.67	29888.64
591.83	30047.80
591.99	29961.20
592.15	29991.62
592.31	30040.78
592.46	29528.20
592.62	29715.44
592.78	29858.21
592.94	29701.40
593.10	30134.40
593.26	29865.24
593.41	30139.08
593.57	29614.80
593.73	30066.52
593.89	29996.31
594.05	30092.27
594.20	29448.62
594.36	29844.17
594.52	29963.54
594.68	29811.40
594.84	29848.85
594.99	29764.59
595.15	29935.45
595.31	30382.49
595.47	30139.08
595.62	30228.02
595.78	30347.39
595.94	29968.22
596.10	30015.03
596.25	30106.31
596.41	29745.87
596.57	29975.24
596.73	30199.93
596.88	30263.13
597.04	29862.90
597.20	30359.09
597.36	30281.85
597.51	30127.38
597.67	30078.22
597.83	29797.36
597.99	30127.38
598.14	30136.74
598.30	29970.56
598.46	29521.18
598.61	30237.38
598.77	30052.48
598.93	30096.95
599.09	29890.98
599.24	30139.08
599.40	30377.81
599.56	30565.06
599.71	30188.23
599.87	29972.90
600.03	30436.33
600.18	29844.17
600.34	29795.02
600.50	30192.91
600.65	30375.47
600.81	30349.73
600.97	30197.59
601.12	29890.98
601.28	30319.30
601.44	30487.82
601.59	30253.76
601.75	30403.56
601.91	30366.11
602.06	30033.75
602.22	30040.78
602.37	29628.84
602.53	30209.29
602.69	30211.64
602.84	30064.18
603.00	30256.11
603.16	30281.85
603.31	29996.31
603.47	30061.84
603.62	29823.11
603.78	30469.09
603.94	30253.76
604.09	29977.58
604.25	30118.01
604.40	30017.37
604.56	30136.74
604.71	30221.00
604.87	30118.01
605.03	30204.61
605.18	30012.69
605.34	29961.20
605.49	29883.96
605.65	30115.67
605.80	29692.04
605.96	29666.29
606.12	29968.22
606.27	29991.62
606.43	29729.48
606.58	29729.48
606.74	30242.06
606.89	30068.86
607.05	30176.53
607.20	29729.48
607.36	30209.29
607.51	30026.73
607.67	29984.60
607.82	29762.25
607.98	29909.71
608.13	30017.37
608.29	29666.29
608.44	29563.31
608.60	30094.61
608.75	29940.13
608.91	30019.71
609.06	29408.83
609.22	30129.72
609.37	29930.77
609.53	29750.55
609.68	29696.72
609.84	29928.43
609.99	29443.94
610.15	29467.34
610.30	30038.44
610.46	29626.50
610.61	30038.44
610.76	29961.20
610.92	29916.73
611.07	29713.10
611.23	29488.41
611.38	29832.47
611.54	29806.72
611.69	29809.06
611.84	29689.70
612.00	29708.42
612.15	29689.70
612.31	29898.00
612.46	29940.13
612.62	29832.47
612.77	29741.19
612.92	29799.70
613.08	29254.36
613.23	29638.20
613.39	29577.35
613.54	29336.27
613.69	29799.70
613.85	29741.19
614.00	29858.21
614.15	29408.83
614.31	29640.54
614.46	29701.40
614.62	29427.56
614.77	29546.92
614.92	29537.56
615.08	29649.91
615.23	29736.51
615.38	29706.08
615.54	29390.11
615.69	29303.51
615.84	29413.51
616.00	28933.70
616.15	29198.18
616.30	29392.45
616.46	29432.24
616.61	29219.25
616.76	29425.22
616.92	29326.91
617.07	29120.95
617.22	29001.58
617.37	29467.34
617.53	29275.42
617.68	29387.77
617.83	29034.35
617.99	29015.62
618.14	29289.46
618.29	29144.35
618.45	29193.50
618.60	29383.09
618.75	29172.44
618.90	29022.64
619.06	28865.83
619.21	29158.39
619.36	29406.49
619.51	29024.98
619.67	28826.04
619.82	28788.59
619.97	29163.08
620.12	29074.13
620.28	28421.13
620.43	28947.75
620.58	28931.36
620.73	28776.89
620.89	29109.24
621.04	29134.99
621.19	28982.85
621.34	28748.80
621.49	28968.81
621.65	28788.59
621.80	28819.02
621.95	28727.74
622.10	28811.99
622.25	28379.00
622.41	28673.90
622.56	28659.86
622.71	28814.34
622.86	28570.92
623.01	28594.32
623.16	28786.25
623.32	28393.04
623.47	28517.09
623.62	28631.77
623.77	28379.00
623.92	28533.47
624.07	28308.78
624.23	28982.85
624.38	28711.35
624.53	28671.56
624.68	28617.73
624.83	28734.76
624.98	28481.98
625.13	28697.31
625.29	28603.69
625.44	28491.34
625.59	28079.41
625.74	28219.84
625.89	28481.98
626.04	28166.01
626.19	28238.56
626.34	28161.33
626.49	28388.36
626.65	28205.80
626.80	28135.58
626.95	28325.16
627.10	28444.53
627.25	28072.39
627.40	27805.56
627.55	28273.67
627.70	28114.52
627.85	28189.41
628.00	27892.16
628.15	28025.57
628.30	27835.99
628.45	28067.70
628.60	27903.87
628.76	28177.71
628.91	28095.79
629.06	28044.30
629.21	27805.56
629.36	27728.33
629.51	27936.63
629.66	27936.63
629.81	27758.75
629.96	27573.85
630.11	27725.99
630.26	27997.49
630.41	28025.57
630.56	27669.81
630.71	27761.09
630.86	27906.21
631.01	27873.44
631.16	27693.22
631.31	27700.24
631.46	27718.96
631.61	27833.65
631.76	27634.71
631.91	27536.40
632.06	27744.71
632.21	27487.25
632.36	27559.81
632.51	27227.45
632.66	27812.59
632.81	27527.04
632.96	27763.43
633.10	27894.50
633.25	27674.49
633.40	27676.83
633.55	27559.81
633.70	27454.48
633.85	27304.69
634.00	27318.73
634.15	27157.24
634.30	27087.02
634.45	27091.70
634.60	27276.60
634.75	27117.45
634.90	27065.96
635.05	27309.37
635.19	27323.41
635.34	27433.42
635.49	27328.10
635.64	27414.69
635.79	26932.54
635.94	27398.31
636.09	27414.69
636.24	27166.60
636.39	27168.94
636.53	27192.34
636.68	26937.23
636.83	26916.16
636.98	26969.99
637.13	26836.58
637.28	27133.83
637.43	27091.70
637.57	27229.79
637.72	26726.58
637.87	27051.91
638.02	27028.51
638.17	27072.98
638.32	26679.77
638.46	26452.73
638.61	26417.63
638.76	26749.98
638.91	26714.87
639.06	27021.48
639.20	27098.72
639.35	27077.66
639.50	26675.09
639.65	26841.26
639.80	27349.16
639.94	26848.29
640.09	27014.46
640.24	26749.98
640.39	26698.49
640.54	26356.77
640.68	26504.23
640.83	26607.21
640.98	26209.32
641.13	26480.82
641.27	26565.08
641.42	26316.98
641.57	26661.04
641.72	26616.57
641.86	26415.29
642.01	26326.35
642.16	26361.45
642.31	26305.28
642.45	26384.86
642.60	26321.66
642.75	26382.52
642.90	25989.31
643.04	26270.17
643.19	26115.70
643.34	26293.58
643.48	26429.33
643.63	26333.37
643.78	25883.98
643.93	26178.89
644.07	26359.11
644.22	26609.55
644.37	26010.37
644.51	26239.75
644.66	26298.26
644.81	26017.40
644.95	26003.35
645.10	25827.81
645.25	26068.89
645.39	26005.69
645.54	25860.58
645.69	26012.71
645.83	26026.76
645.98	26050.16
646.13	25972.92
646.27	26188.25
646.42	26071.23
646.57	25926.11
646.71	25792.70
646.86	25893.35
647.00	25862.92
647.15	25888.67
647.30	25961.22
647.44	25944.84
647.59	25752.91
647.74	26064.21
647.88	25708.44
648.03	26078.25
648.17	26003.35
648.32	25947.18
648.47	26251.45
648.61	25851.22
648.76	25919.09
648.90	25919.09
649.05	25607.80
649.20	25678.02
649.34	25790.36
649.49	25502.48
649.63	25296.51
649.78	25223.95
649.92	25525.88
650.07	25881.64
650.21	25542.27
650.36	25703.76
650.51	25530.56
650.65	25385.45
650.80	25792.70
650.94	25378.43
651.09	25317.57
651.23	25289.49
651.38	25392.47
651.52	25212.25
651.67	25537.59
651.81	25507.16
651.96	25589.08
652.10	25315.23
652.25	25757.60
652.39	25537.59
652.54	25268.42
652.68	25668.66
652.83	25500.14
652.97	25668.66
653.12	25411.20
653.26	24760.53
653.41	25645.25
653.55	25422.90
653.70	24786.27
653.84	25102.25
653.99	25027.35
654.13	24975.86
654.27	24807.34
654.42	24849.47
654.56	24713.72
654.71	25284.81
654.85	25151.40
655.00	24837.76
655.14	25048.41
655.29	24973.52
655.43	25181.82
655.57	24912.66
655.72	24624.78
655.86	25076.50
656.01	24882.24
656.15	24896.28
656.30	24926.71
656.44	24900.96
656.58	24737.12
656.73	24723.08
656.87	24638.82
657.01	24603.71
657.16	24943.09
657.30	25039.05
657.45	24889.26
657.59	24627.12
657.73	24788.61
657.88	24346.25
658.02	24624.78
658.16	24627.12
658.31	24744.14
658.45	24659.88
658.60	24655.20
658.74	24589.67
658.88	24240.93
659.03	24498.39
659.17	24496.05
659.31	24400.08
659.46	24723.08
659.60	24411.79
659.74	24615.41
659.89	24231.57
660.03	24470.30
660.17	24659.88
660.32	24180.07
660.46	24056.03
660.60	23976.45
660.74	23864.10
660.89	23693.24
661.03	23826.65
661.17	24004.53
661.32	24079.43
661.46	23939.00
661.60	24002.19
661.74	24140.29
661.89	24322.85
662.03	24070.07
662.17	24137.94
662.31	23873.46
662.46	24233.91
662.60	24002.19
662.74	23632.39
662.88	23903.89
663.03	23562.17
663.17	23704.95
663.31	23089.38
663.45	23578.56
663.60	23342.16
663.74	23611.32
663.88	23403.02
664.02	23351.52
664.17	23672.18
664.31	23236.84
664.45	23367.91
664.59	23264.92
664.73	23220.45
664.88	23058.96
665.02	23143.22
665.16	23061.30
665.30	23103.43
665.44	23110.45
665.59	22977.04
665.73	23098.75
665.87	22834.27
666.01	23323.44
666.15	23065.98
666.29	22979.38
666.44	23019.17
666.58	22958.31
666.72	22675.11
666.86	23065.98
667.00	22890.44
667.14	22960.66
667.28	22546.38
667.43	22700.86
667.57	22775.75
667.71	22340.41
667.85	22593.19
667.99	22506.59
668.13	22295.94
668.27	22780.43
668.41	22665.75
668.56	22382.54
668.70	22586.17
668.84	22214.02
668.98	22436.38
669.12	22551.06
669.26	22469.14
669.40	22494.89
669.54	22134.45
669.68	22342.75
669.82	21970.61
669.96	22244.45
670.10	22057.21
670.25	21958.91
670.39	22071.25
670.53	22019.76
670.67	21977.63
670.81	21771.66
670.95	21947.20
671.09	21605.49
671.23	22274.88
671.37	21656.98
671.51	22087.64
671.65	21703.79
671.79	21689.74
671.93	21556.33
672.07	21518.89
672.21	21451.01
672.35	21425.26
672.49	21053.12
672.63	21345.69
672.77	21312.92
672.91	21006.31
673.05	21345.69
673.19	21294.19
673.33	21530.59
673.47	21099.93
673.61	21216.96
673.75	21338.66
673.89	21174.83
674.03	21071.84
674.17	21104.61
674.31	20959.50
674.45	20713.74
674.59	20908.01
674.73	20601.40
674.87	20641.18
675.01	20732.47
675.15	20739.49
675.29	20482.03
675.43	20800.34
675.56	20636.50
675.70	20538.20
675.84	20720.76
675.98	19941.36
676.12	20863.54
676.26	20760.55
676.40	20585.01
676.54	20355.64
676.68	20210.53
676.82	19784.55
676.96	20149.67
677.10	20311.17
677.23	19733.06
677.37	19669.86
677.51	19927.32
677.65	19711.99
677.79	19740.08
677.93	19367.93
678.07	19489.64
678.21	19339.85
678.34	19421.77
678.48	19494.32
678.62	19548.15
678.76	19213.46
678.90	19133.88
679.04	19232.18
679.18	19176.01
679.31	18876.42
679.45	18857.70
679.59	19119.84
679.73	19035.58
679.87	18553.43
680.00	18864.72
680.14	18686.84
680.28	18824.93
680.42	18530.02
680.56	18941.96
680.70	18530.02
680.83	18754.71
680.97	18581.51
681.11	18483.21
681.25	18497.25
681.39	18466.83
681.52	18424.70
681.66	18462.15
681.80	18115.75
681.94	18129.79
682.07	18195.32
682.21	18043.19
682.35	17881.69
682.49	17930.84
682.62	17664.02
682.76	17685.09
682.90	17635.94
683.04	17469.76
683.17	17844.24
683.31	17614.87
683.45	17792.75
683.59	17509.55
683.72	17472.10
683.86	17308.26
684.00	17418.27
684.13	17331.67
684.27	17085.91
684.41	17053.14
684.55	16975.91
684.68	16978.25
684.82	17200.60
684.96	17069.53
685.09	17008.67
685.23	16657.59
685.37	16903.35
685.50	16826.11
685.64	16826.11
685.78	16781.64
685.91	16713.77
686.05	16664.61
686.19	16666.95
686.32	16664.61
686.46	16292.47
686.60	16486.73
686.73	16404.81
686.87	16159.06
687.01	16114.59
687.14	16130.97
687.28	15852.45
687.42	16004.58
687.55	15875.85
687.69	15796.28
687.82	15838.41
687.96	15889.90
688.10	15700.31
688.23	15873.51
688.37	15709.68
688.50	15651.16
688.64	15894.58
688.78	15658.18
688.91	15417.11
689.05	15316.47
689.18	15400.72
689.32	14960.70
689.46	15199.44
689.59	15110.50
689.73	15110.50
689.86	14988.79
690.00	14892.83
690.13	14995.81
690.27	15257.95
690.41	14815.59
690.54	14836.66
690.68	14878.79
690.81	14848.36
690.95	14813.25
691.08	14684.52
691.22	14574.52
691.35	14534.73
691.49	14574.52
691.62	14635.37
691.76	14485.58
691.89	14277.27
692.03	14209.39
692.16	14129.81
692.30	14080.66
692.43	14040.87
692.57	13813.84
692.70	14010.45
692.84	14050.24
692.97	13619.58
693.11	14090.02
693.24	13720.22
693.38	13806.82
693.51	13846.61
693.65	13717.88
693.78	13682.77
693.92	13870.01
694.05	13366.80
694.19	13460.42
694.32	13411.27
694.45	13327.01
694.59	13071.89
694.72	13018.06
694.86	13209.98
694.99	12877.63
695.13	13104.66
695.26	12966.57
695.39	12931.46
695.53	13041.46
695.66	13027.42
695.80	12917.42
695.93	12851.88
696.07	12643.57
696.20	12891.67
696.33	12683.36
696.47	12500.80
696.60	12622.51
696.73	12423.56
696.87	12367.39
697.00	12493.78
697.14	12327.60
697.27	12159.08
697.40	12245.68
697.54	12231.64
697.67	12044.40
697.80	12063.12
697.94	11936.73
698.07	11831.41
698.21	12140.36
698.34	11967.16
698.47	12283.13
698.61	11779.92
698.74	11707.36
698.87	11946.09
699.01	11793.96
699.14	11573.95
699.27	11648.85
699.40	11800.98
699.54	11564.59
699.67	11435.86
699.80	11391.39
699.94	11304.79
700.07	11197.12
700.20	11339.90
700.34	10890.51
700.47	11105.84
700.60	11063.71
700.73	10911.58
700.87	11007.54
701.00	10974.77
701.13	11040.31
701.26	10911.58
701.40	11183.08
701.53	10841.36
701.66	10691.57
701.79	10822.64
701.93	10677.52
702.06	10452.83
702.19	10511.35
702.32	10478.58
702.46	10406.02
702.59	10113.45
702.72	10438.79
702.85	10347.51
702.99	10153.24
703.12	10073.67
703.25	10066.64
703.38	10178.99
703.51	10139.20
703.65	10183.67
703.78	9998.77
703.91	9928.55
704.04	10113.45
704.17	10190.69
704.31	9877.06
704.44	9905.15
704.57	9687.48
704.70	9645.35
704.83	9617.26
704.96	9624.28
705.10	9413.63
705.23	9385.55
>>>>>End Processed Spectral Data<<<<<
