SpectraSuite Data File
++++++++++++++++++++++++++++++++++++
Date: Fri Oct 18 13:58:40 GMT-05:00 2013
User: bianchi
Dark Spectrum Present: No
Reference Spectrum Present: No
Number of Sampled Component Spectra: 1
Spectrometers: USB2+H05261
Integration Time (usec): 50000 (USB2+H05261)
Spectra Averaged: 1 (USB2+H05261)
Boxcar Smoothing: 0 (USB2+H05261)
Correct for Electrical Dark: No (USB2+H05261)
Strobe/Lamp Enabled: No (USB2+H05261)
Correct for Detector Non-linearity: No (USB2+H05261)
Correct for Stray Light: No (USB2+H05261)
Number of Pixels in Processed Spectrum: 2048
>>>>>Begin Processed Spectral Data<<<<<
365.73	0.00
365.92	0.00
366.12	0.00
366.32	0.00
366.52	0.00
366.72	0.00
366.91	0.00
367.11	0.00
367.31	0.00
367.51	0.00
367.70	0.00
367.90	0.00
368.10	0.00
368.30	0.00
368.49	0.00
368.69	0.00
368.89	0.00
369.09	0.00
369.28	0.00
369.48	0.00
369.68	0.00
369.87	0.00
370.07	0.00
370.27	0.00
370.47	0.00
370.66	37.45
370.86	117.03
371.06	156.82
371.25	147.45
371.45	168.52
371.65	152.13
371.84	149.79
372.04	159.16
372.24	126.39
372.44	196.60
372.63	231.71
372.83	234.05
373.03	210.65
373.22	72.56
373.42	269.16
373.62	243.42
373.81	187.24
374.01	191.92
374.21	285.55
374.40	191.92
374.60	320.65
374.79	203.63
374.99	234.05
375.19	241.08
375.38	269.16
375.58	215.33
375.78	273.84
375.97	322.99
376.17	355.76
376.37	264.48
376.56	231.71
376.76	224.69
376.95	262.14
377.15	229.37
377.35	257.46
377.54	191.92
377.74	292.57
377.93	257.46
378.13	278.52
378.33	241.08
378.52	259.80
378.72	245.76
378.91	280.86
379.11	276.18
379.31	285.55
379.50	259.80
379.70	287.89
379.89	322.99
380.09	280.86
380.28	241.08
380.48	259.80
380.68	294.91
380.87	358.10
381.07	285.55
381.26	280.86
381.46	330.02
381.65	360.44
381.85	337.04
382.04	271.50
382.24	374.49
382.43	311.29
382.63	273.84
382.83	294.91
383.02	353.42
383.22	313.63
383.41	388.53
383.61	376.83
383.80	346.40
384.00	372.15
384.19	344.06
384.39	367.46
384.58	374.49
384.78	367.46
384.97	299.59
385.17	430.66
385.36	344.06
385.56	374.49
385.75	308.95
385.95	376.83
386.14	351.08
386.34	379.17
386.53	327.68
386.72	388.53
386.92	435.34
387.11	519.60
387.31	362.78
387.50	437.68
387.70	362.78
387.89	430.66
388.09	472.79
388.28	393.21
388.48	425.98
388.67	437.68
388.86	454.06
389.06	524.28
389.25	461.09
389.45	425.98
389.64	484.49
389.84	451.72
390.03	531.30
390.22	482.15
390.42	493.85
390.61	458.74
390.81	510.24
391.00	580.45
391.19	512.58
391.39	507.90
391.58	475.13
391.78	533.64
391.97	510.24
392.16	538.32
392.36	622.58
392.55	559.39
392.75	540.66
392.94	550.03
393.13	585.13
393.33	540.66
393.52	531.30
393.71	547.69
393.91	538.32
394.10	622.58
394.29	580.45
394.49	543.00
394.68	620.24
394.88	606.20
395.07	638.97
395.26	573.43
395.46	543.00
395.65	629.60
395.84	603.86
396.04	613.22
396.23	573.43
396.42	688.12
396.62	746.63
396.81	608.54
397.00	636.63
397.19	573.43
397.39	671.73
397.58	610.88
397.77	791.10
397.97	657.69
398.16	692.80
398.35	699.82
398.55	695.14
398.74	620.24
398.93	807.48
399.12	685.78
399.32	699.82
399.51	718.54
399.70	786.42
399.90	777.06
400.09	781.74
400.28	821.53
400.47	779.40
400.67	741.95
400.86	781.74
401.05	720.88
401.24	725.57
401.44	791.10
401.63	833.23
401.82	870.68
402.01	842.59
402.21	854.30
402.40	819.19
402.59	940.90
402.78	774.72
402.97	805.14
403.17	877.70
403.36	910.47
403.55	866.00
403.74	837.91
403.93	887.06
404.13	863.66
404.32	954.94
404.51	854.30
404.70	842.59
404.89	866.00
405.09	1043.88
405.28	887.06
405.47	994.73
405.66	961.96
405.85	919.83
406.05	957.28
406.24	947.92
406.43	1067.28
406.62	1088.35
406.81	1146.86
407.00	1053.24
407.20	959.62
407.39	1013.45
407.58	1083.67
407.77	1064.94
407.96	1121.12
408.15	1036.86
408.34	1142.18
408.54	1097.71
408.73	1060.26
408.92	1158.57
409.11	1095.37
409.30	1247.51
409.49	1125.80
409.68	1027.50
409.87	1022.81
410.07	1137.50
410.26	1177.29
410.45	1181.97
410.64	1165.59
410.83	1121.12
411.02	1235.80
411.21	1231.12
411.40	1242.82
411.59	1324.74
411.78	1259.21
411.98	1266.23
412.17	1296.66
412.36	1282.61
412.55	1317.72
412.74	1317.72
412.93	1301.34
413.12	1334.11
413.31	1401.98
413.50	1324.74
413.69	1366.87
413.88	1535.39
414.07	1406.66
414.26	1526.03
414.45	1451.13
414.64	1537.73
414.83	1582.20
415.02	1458.15
415.22	1535.39
415.41	1507.30
415.60	1596.25
415.79	1547.09
415.98	1631.35
416.17	1533.05
416.36	1563.48
416.55	1612.63
416.74	1680.50
416.93	1617.31
417.12	1689.87
417.31	1659.44
417.50	1710.93
417.69	1771.79
417.88	1631.35
418.07	1603.27
418.26	1823.28
418.45	1778.81
418.64	1818.60
418.83	1823.28
419.02	1825.62
419.21	1973.07
419.39	1891.15
419.58	1706.25
419.77	1863.07
419.96	1781.15
420.15	1853.70
420.34	1870.09
420.53	1858.39
420.72	1797.53
420.91	1881.79
421.10	1849.02
421.29	1895.83
421.48	1933.28
421.67	2026.90
421.86	1916.90
422.05	1996.48
422.24	1933.28
422.43	1961.37
422.61	1952.01
422.80	1984.77
422.99	1959.03
423.18	1961.37
423.37	2031.58
423.56	2017.54
423.75	1989.46
423.94	1949.67
424.13	1846.68
424.32	1877.11
424.50	1944.99
424.69	2120.53
424.88	2162.66
425.07	1980.09
425.26	1968.39
425.45	2043.29
425.64	1975.41
425.83	2047.97
426.01	2134.57
426.20	2045.63
426.39	2040.95
426.58	2059.67
426.77	1963.71
426.96	2073.71
427.15	1961.37
427.33	2104.14
427.52	2038.61
427.71	2230.53
427.90	2059.67
428.09	2080.74
428.28	2108.82
428.46	2256.28
428.65	2188.40
428.84	2310.11
429.03	2291.38
429.22	2181.38
429.40	2307.77
429.59	2289.04
429.78	2099.46
429.97	2143.93
430.16	2094.78
430.34	2207.13
430.53	2232.87
430.72	2289.04
430.91	2382.67
431.10	2272.66
431.28	2373.30
431.47	2359.26
431.66	2331.17
431.85	2331.17
432.03	2305.43
432.22	2403.73
432.41	2406.07
432.60	2361.60
432.79	2349.90
432.97	2455.22
433.16	2490.33
433.35	2509.05
433.54	2553.52
433.72	2509.05
433.91	2473.95
434.10	2492.67
434.28	2459.90
434.47	2497.35
434.66	2558.21
434.85	2544.16
435.03	2614.38
435.22	2602.68
435.41	2654.17
435.59	2708.00
435.78	2623.74
435.97	2787.58
436.16	2633.10
436.34	2670.55
436.53	2544.16
436.72	2789.92
436.90	2633.10
437.09	2726.72
437.28	2614.38
437.46	2722.04
437.65	2698.64
437.84	2759.49
438.02	2677.57
438.21	2808.64
438.40	2724.38
438.58	2885.88
438.77	2902.26
438.96	2911.63
439.14	2935.03
439.33	2864.82
439.52	3059.08
439.70	2885.88
439.89	3054.40
440.08	2991.20
440.26	2963.12
440.45	2946.73
440.63	3122.27
440.82	3129.30
441.01	3091.85
441.19	3169.09
441.38	3197.17
441.57	3084.83
441.75	3150.36
441.94	3185.47
442.12	3222.92
442.31	3307.18
442.50	3288.45
442.68	3328.24
442.87	3323.56
443.05	3337.60
443.24	3353.99
443.43	3297.81
443.61	3304.84
443.80	3459.31
443.98	3405.48
444.17	3232.28
444.35	3489.74
444.54	3501.44
444.73	3541.23
444.91	3454.63
445.10	3372.71
445.28	3382.07
445.47	3339.94
445.65	3346.97
445.84	3501.44
446.02	3466.33
446.21	3541.23
446.39	3447.61
446.58	3503.78
446.77	3459.31
446.95	3496.76
447.14	3506.12
447.32	3459.31
447.51	3555.27
447.69	3407.82
447.88	3541.23
448.06	3442.93
448.25	3438.25
448.43	3548.25
448.62	3442.93
448.80	3616.13
448.99	3562.30
449.17	3562.30
449.36	3599.74
449.54	3531.87
449.73	3770.60
449.91	3698.05
450.10	3730.81
450.28	3723.79
450.46	3623.15
450.65	3822.09
450.83	3880.61
451.02	3707.41
451.20	3829.12
451.39	3747.20
451.57	3712.09
451.76	3695.71
451.94	3824.44
452.13	3850.18
452.31	3908.69
452.49	3852.52
452.68	3880.61
452.86	3798.69
453.05	3880.61
453.23	3857.20
453.42	3925.08
453.60	3892.31
453.78	3761.24
453.97	3955.51
454.15	4121.68
454.34	3955.51
454.52	3936.78
454.70	3899.33
454.89	3840.82
455.07	3845.50
455.26	4063.17
455.44	4046.79
455.62	4117.00
455.81	4166.15
455.99	4112.32
456.17	4049.13
456.36	4021.04
456.54	4039.76
456.73	4198.92
456.91	4327.65
457.09	4241.05
457.28	4203.60
457.46	4262.12
457.64	4248.07
457.83	4210.62
458.01	4227.01
458.19	4454.04
458.38	4301.90
458.56	4404.89
458.74	4266.80
458.93	4318.29
459.11	4416.59
459.29	4386.16
459.48	4461.06
459.66	4432.97
459.84	4561.70
460.03	4535.96
460.21	4615.54
460.39	4552.34
460.57	4578.09
460.76	4608.51
460.94	4547.66
461.12	4610.86
461.31	4631.92
461.49	4573.41
461.67	4594.47
461.85	4681.07
462.04	4774.69
462.22	4685.75
462.40	4711.50
462.59	4730.22
462.77	4809.80
462.95	4730.22
463.13	4901.08
463.32	4762.99
463.50	4882.36
463.68	4884.70
463.86	4966.62
464.05	4713.84
464.23	4880.02
464.41	4795.76
464.59	4814.48
464.78	4802.78
464.96	4910.44
465.14	4910.44
465.32	4751.29
465.50	5018.11
465.69	4910.44
465.87	4992.36
466.05	5020.45
466.23	4915.12
466.41	5055.56
466.60	5160.88
466.78	5097.69
466.96	5013.43
467.14	4987.68
467.32	5069.60
467.51	5203.01
467.69	4985.34
467.87	4947.89
468.05	5085.98
468.23	4985.34
468.41	5039.17
468.60	5397.28
468.78	5247.48
468.96	5170.24
469.14	5210.03
469.32	5203.01
469.50	5149.18
469.69	5298.97
469.87	5472.17
470.05	5425.36
470.23	5521.32
470.41	5446.43
470.59	5308.34
470.77	5355.15
470.95	5582.18
471.14	5734.31
471.32	5476.85
471.50	5624.31
471.68	5652.39
471.86	5591.54
472.04	5556.43
472.22	5830.27
472.40	5729.63
472.58	5905.17
472.77	5886.45
472.95	5776.44
473.13	5968.37
473.31	5596.22
473.49	5696.86
473.67	5713.25
473.85	5795.17
474.03	5919.21
474.21	5914.53
474.39	5893.47
474.57	5944.96
474.75	6193.06
474.93	6237.53
475.12	6080.71
475.30	5991.77
475.48	6272.64
475.66	6045.60
475.84	6279.66
476.02	6274.98
476.20	6384.98
476.38	6394.34
476.56	6396.68
476.74	6443.49
476.92	6609.67
477.10	6455.20
477.28	6546.48
477.46	6628.40
477.64	6785.21
477.82	6785.21
478.00	6970.12
478.18	6899.90
478.36	6993.52
478.54	6974.80
478.72	7028.63
478.90	7124.59
479.08	7108.21
479.26	7087.14
479.44	7269.70
479.62	7335.24
479.80	7356.30
479.98	7330.56
480.16	7632.49
480.34	7445.24
480.52	7618.44
480.70	7658.23
480.88	7492.05
481.06	7620.78
481.24	7625.47
481.41	7681.64
481.59	7786.96
481.77	7962.50
481.95	7782.28
482.13	7911.01
482.31	7990.59
482.49	8212.94
482.67	8182.51
482.85	8348.69
483.03	8423.59
483.21	8552.32
483.39	8482.10
483.57	8552.32
483.74	8702.11
483.92	8727.86
484.10	8641.26
484.28	8868.29
484.46	8940.85
484.64	9060.21
484.82	9013.40
485.00	8999.36
485.18	9252.14
485.35	9317.67
485.53	9530.66
485.71	9446.40
485.89	9685.14
486.07	9317.67
486.25	9537.68
486.43	9607.90
486.61	9682.80
486.78	9727.27
486.96	9970.68
487.14	9994.09
487.32	9961.32
487.50	10188.35
487.68	10211.76
487.85	10328.78
488.03	10349.85
488.21	10483.26
488.39	10530.07
488.57	10523.05
488.75	10583.90
488.92	10789.87
489.10	10885.83
489.28	10707.95
489.46	11009.88
489.64	10743.06
489.81	11396.07
489.99	11255.64
490.17	11389.05
490.35	11288.40
490.53	11269.68
490.70	11330.53
490.88	11719.06
491.06	11857.15
491.24	11768.21
491.41	11555.22
491.59	11784.60
491.77	12098.23
491.95	12044.40
492.13	12131.00
492.30	12161.42
492.48	12276.11
492.66	12372.07
492.84	12145.04
493.01	12519.53
493.19	12578.04
493.37	12674.00
493.54	12585.06
493.72	12629.53
493.90	12559.31
494.08	12940.82
494.25	12915.08
494.43	12924.44
494.61	13291.90
494.79	13209.98
494.96	13170.19
495.14	13378.50
495.32	13624.26
495.49	13671.07
495.67	13638.30
495.85	13851.29
496.02	13799.80
496.20	13769.37
496.38	13799.80
496.55	13837.25
496.73	14139.18
496.91	14097.05
497.09	14169.60
497.26	14209.39
497.44	14183.65
497.62	14279.61
497.79	14373.23
497.97	14546.43
498.14	14731.33
498.32	14682.18
498.50	14764.10
498.67	14759.42
498.85	14817.93
499.03	14839.00
499.20	14862.40
499.38	15164.33
499.56	15463.92
499.73	15147.95
499.91	15276.68
500.08	15194.76
500.26	15250.93
500.44	15344.55
500.61	15440.51
500.79	15337.53
500.97	15810.32
501.14	15655.84
501.32	15943.73
501.49	15580.95
501.67	15700.31
501.84	15854.79
502.02	15852.45
502.20	15761.17
502.37	16119.27
502.55	16149.70
502.72	16163.74
502.90	16023.31
503.07	16290.13
503.25	16250.34
503.43	16229.27
503.60	16065.44
503.78	16339.28
503.95	16453.97
504.13	16428.22
504.30	16379.07
504.48	16395.45
504.65	16833.13
504.83	16755.90
505.01	17062.51
505.18	16901.01
505.36	17219.32
505.53	16875.26
505.71	16823.77
505.88	17170.17
506.06	16865.90
506.23	17188.89
506.41	17378.48
506.58	17053.14
506.76	17216.98
506.93	17338.69
507.11	17261.45
507.28	17153.79
507.46	17495.50
507.63	17687.43
507.81	17525.93
507.98	17504.87
508.16	17795.09
508.33	17493.16
508.50	17769.35
508.68	17832.54
508.85	17860.63
509.03	18136.81
509.20	17898.08
509.38	18176.60
509.55	18104.04
509.73	18043.19
509.90	18157.88
510.08	17898.08
510.25	18059.57
510.42	18696.20
510.60	18829.61
510.77	18743.01
510.95	18518.32
511.12	18806.20
511.30	18691.52
511.47	18693.86
511.64	18871.74
511.82	18998.13
511.99	18838.97
512.17	19012.17
512.34	19040.26
512.51	18796.84
512.69	19068.34
512.86	19276.65
513.04	19475.60
513.21	19482.62
513.38	19234.52
513.56	19293.04
513.73	19290.70
513.90	19510.71
514.08	19318.78
514.25	19660.50
514.43	19482.62
514.60	19667.52
514.77	19585.60
514.95	19924.98
515.12	19625.39
515.29	19882.85
515.47	19915.62
515.64	20133.29
515.81	19908.60
515.99	20100.52
516.16	19761.14
516.33	20470.33
516.51	20332.23
516.68	20262.02
516.85	20013.92
517.03	20453.94
517.20	20390.75
517.37	20514.80
517.54	20505.43
517.72	20367.34
517.89	20465.64
518.06	20444.58
518.24	20629.48
518.41	20540.54
518.58	20538.20
518.75	20411.81
518.93	20601.40
519.10	20856.51
519.27	21095.25
519.45	21022.69
519.62	20786.30
519.79	21085.89
519.96	21078.86
520.14	21053.12
520.31	20940.77
520.48	21336.32
520.65	21151.42
520.83	21366.75
521.00	21181.85
521.17	21055.46
521.34	21319.94
521.52	21546.97
521.69	21483.78
521.86	21642.93
522.03	21472.07
522.20	21717.83
522.38	21837.20
522.55	21537.61
522.72	21755.28
522.89	21802.09
523.07	22087.64
523.24	21682.72
523.41	22221.05
523.58	21881.67
523.75	22340.41
523.92	22050.19
524.10	21743.58
524.27	22108.70
524.44	22204.66
524.61	22670.43
524.78	22314.67
524.96	22347.44
525.13	22553.40
525.30	22480.85
525.47	22553.40
525.64	22434.03
525.81	22377.86
525.98	22768.73
526.16	22567.45
526.33	22651.70
526.50	22483.19
526.67	22391.91
526.84	22665.75
527.01	22621.28
527.18	22974.70
527.36	22986.40
527.53	22714.90
527.70	23281.31
527.87	23374.93
528.04	23136.20
528.21	23264.92
528.38	22813.20
528.55	23370.25
528.72	23227.48
528.89	23145.56
529.07	23482.59
529.24	22960.66
529.41	23620.69
529.58	23229.82
529.75	23391.31
529.92	23264.92
530.09	23033.21
530.26	23562.17
530.43	23679.20
530.60	23522.38
530.77	23613.66
530.94	23887.51
531.11	23510.68
531.28	23520.04
531.46	23552.81
531.63	23779.84
531.80	23859.42
531.97	23955.38
532.14	24070.07
532.31	23608.98
532.48	23943.68
532.65	23913.25
532.82	24081.77
532.99	24088.79
533.16	24070.07
533.33	24243.27
533.50	24182.42
533.67	24334.55
533.84	24243.27
534.01	24311.14
534.18	24306.46
534.35	24041.98
534.52	24503.07
534.69	24418.81
534.86	24442.21
535.03	24664.57
535.20	24526.47
535.37	24734.78
535.54	24617.75
535.71	24505.41
535.88	24575.62
536.05	24297.10
536.22	24678.61
536.38	24992.24
536.55	24929.05
536.72	24545.20
536.89	25116.29
537.06	24758.19
537.23	25223.95
537.40	24734.78
537.57	25212.25
537.74	25238.00
537.91	25397.15
538.08	25263.74
538.25	25074.16
538.42	25020.33
538.59	25458.01
538.75	25324.60
538.92	24891.60
539.09	25348.00
539.26	25364.39
539.43	25193.53
539.60	25226.29
539.77	25069.48
539.94	25156.08
540.11	25280.13
540.28	25518.86
540.44	25216.93
540.61	25340.98
540.78	25474.39
540.95	25539.93
541.12	25748.23
541.29	25673.34
541.46	25532.90
541.62	25558.65
541.79	25188.85
541.96	25322.26
542.13	25741.21
542.30	26043.14
542.47	25837.17
542.63	25926.11
542.80	25942.50
542.97	26431.67
543.14	25961.22
543.31	25734.19
543.48	26071.23
543.64	26216.34
543.81	26199.96
543.98	26597.85
544.15	26099.31
544.32	26389.54
544.48	26642.32
544.65	26279.54
544.82	26539.33
544.99	26120.38
545.16	26122.72
545.32	26527.63
545.49	26909.14
545.66	26899.78
545.83	26663.38
546.00	26780.41
546.16	26546.36
546.33	26569.76
546.50	26291.24
546.67	26656.36
546.83	26551.04
547.00	26560.40
547.17	26902.12
547.34	26780.41
547.50	26962.97
547.67	26869.35
547.84	26862.33
548.00	26869.35
548.17	26806.16
548.34	26991.06
548.51	27335.12
548.67	26855.31
548.84	27580.87
549.01	26991.06
549.18	27005.10
549.34	27140.85
549.51	27077.66
549.68	26984.04
549.84	27185.32
550.01	27204.05
550.18	27227.45
550.34	27337.46
550.51	27557.47
550.68	27412.35
550.84	26981.70
551.01	27328.10
551.18	27388.95
551.34	27318.73
551.51	27377.25
551.68	27505.98
551.84	27243.84
552.01	27545.76
552.18	27527.04
552.34	27627.68
552.51	27573.85
552.68	27426.40
552.84	27625.34
553.01	27988.13
553.18	27644.07
553.34	27805.56
553.51	27580.87
553.67	27920.25
553.84	28086.43
554.01	27871.10
554.17	27557.47
554.34	27821.95
554.51	27871.10
554.67	28105.15
554.84	27786.84
555.00	27995.15
555.17	27779.82
555.33	27761.09
555.50	27805.56
555.67	27992.81
555.83	28196.43
556.00	27864.08
556.16	28311.12
556.33	28180.05
556.50	28034.94
556.66	28280.69
556.83	27882.80
556.99	28718.37
557.16	28503.04
557.32	28498.36
557.49	27964.72
557.65	27875.78
557.82	27938.97
557.98	28194.09
558.15	28156.64
558.32	28299.42
558.48	28130.90
558.65	28634.11
558.81	28170.69
558.98	28603.69
559.14	28318.14
559.31	28582.62
559.47	28400.06
559.64	28030.26
559.80	28758.16
559.97	28556.88
560.13	28694.97
560.30	28460.91
560.46	28465.60
560.63	28641.14
560.79	28634.11
560.96	28563.90
561.12	28629.43
561.29	28308.78
561.45	28505.38
561.61	28748.80
561.78	28734.76
561.94	28910.30
562.11	28971.15
562.27	28795.61
562.44	28645.82
562.60	28620.07
562.77	28701.99
562.93	28863.49
563.10	29032.00
563.26	28903.28
563.42	28816.68
563.59	28744.12
563.75	28713.69
563.92	28884.55
564.08	28774.55
564.24	29252.02
564.41	28697.31
564.57	28952.43
564.74	28905.62
564.90	28786.25
565.07	28992.22
565.23	29097.54
565.39	29123.29
565.56	29039.03
565.72	28966.47
565.88	28580.28
566.05	29270.74
566.21	28795.61
566.38	28606.03
566.54	29123.29
566.70	29387.77
566.87	29537.56
567.03	29008.60
567.19	29511.81
567.36	29312.87
567.52	29069.45
567.68	29172.44
567.85	29249.67
568.01	28788.59
568.17	29064.77
568.34	29270.74
568.50	29319.89
568.66	29153.71
568.83	29102.22
568.99	29022.64
569.15	29317.55
569.32	28826.04
569.48	29078.82
569.64	28891.57
569.81	29240.31
569.97	29109.24
570.13	29446.28
570.30	29041.37
570.46	29319.89
570.62	29008.60
570.78	29256.70
570.95	29312.87
571.11	29387.77
571.27	29125.63
571.43	29167.76
571.60	29406.49
571.76	29156.05
571.92	29701.40
572.09	29497.77
572.25	29097.54
572.41	29355.00
572.57	29053.07
572.74	29785.66
572.90	29535.22
573.06	29207.55
573.22	29500.11
573.38	29315.21
573.55	29340.96
573.71	29603.10
573.87	29560.97
574.03	28982.85
574.20	29259.04
574.36	29207.55
574.52	29446.28
574.68	29160.73
574.84	29567.99
575.01	29488.41
575.17	29242.65
575.33	29472.03
575.49	29366.70
575.65	29326.91
575.82	29827.79
575.98	29537.56
576.14	29720.12
576.30	29720.12
576.46	29205.20
576.62	29165.42
576.79	29422.87
576.95	29172.44
577.11	29495.43
577.27	29783.32
577.43	29841.83
577.59	29404.15
577.75	29476.71
577.92	29455.64
578.08	29694.38
578.24	29317.55
578.40	29479.05
578.56	29535.22
578.72	29921.41
578.88	29404.15
579.04	29853.53
579.21	29591.39
579.37	29556.28
579.53	29890.98
579.69	29717.78
579.85	29598.41
580.01	29544.58
580.17	29628.84
580.33	29752.89
580.49	29535.22
580.65	29933.11
580.82	29848.85
580.98	29462.66
581.14	29993.97
581.30	29860.55
581.46	29984.60
581.62	29692.04
581.78	29275.42
581.94	29390.11
582.10	29951.84
582.26	29577.35
582.42	29563.31
582.58	30075.88
582.74	29855.87
582.90	29738.85
583.06	29685.01
583.22	29567.99
583.38	29483.73
583.54	29453.30
583.70	29326.91
583.86	29998.65
584.02	29717.78
584.18	29677.99
584.34	29827.79
584.50	29771.61
584.66	29500.11
584.82	29460.32
584.98	29500.11
585.14	29785.66
585.30	29249.67
585.46	29516.50
585.62	29408.83
585.78	29834.81
585.94	29333.93
586.10	29898.00
586.26	29947.15
586.42	29720.12
586.58	29977.58
586.74	29553.94
586.90	29589.05
587.06	29659.27
587.22	29542.24
587.38	29944.81
587.54	29898.00
587.70	29759.91
587.86	30024.39
588.02	30000.99
588.18	30010.35
588.34	29776.30
588.49	29706.08
588.65	29670.97
588.81	29642.88
588.97	30237.38
589.13	29806.72
589.29	29832.47
589.45	29895.66
589.61	30281.85
589.77	30139.08
589.93	29989.28
590.08	30005.67
590.24	29912.05
590.40	30183.55
590.56	29972.90
590.72	29944.81
590.88	29802.04
591.04	30054.82
591.20	30391.86
591.35	30529.95
591.51	30429.30
591.67	30239.72
591.83	30455.05
591.99	30103.97
592.15	30328.66
592.31	30363.77
592.46	30059.50
592.62	30012.69
592.78	29921.41
592.94	29570.33
593.10	29998.65
593.26	30263.13
593.41	30052.48
593.57	30061.84
593.73	30333.34
593.89	30047.80
594.05	30218.66
594.20	30230.36
594.36	30183.55
594.52	29809.06
594.68	30419.94
594.84	29907.37
594.99	30429.30
595.15	30267.81
595.31	30731.23
595.47	30045.46
595.62	30450.37
595.78	30164.82
595.94	29956.52
596.10	30169.51
596.25	30050.14
596.41	29809.06
596.57	29706.08
596.73	30382.49
596.88	30178.87
597.04	30300.58
597.20	30237.38
597.36	30394.20
597.51	30412.92
597.67	30148.44
597.83	30113.33
597.99	30609.53
598.14	30298.23
598.30	30132.06
598.46	30356.75
598.61	29912.05
598.77	30059.50
598.93	30382.49
599.09	30157.80
599.24	30759.32
599.40	30703.15
599.56	30675.06
599.71	29879.28
599.87	30436.33
600.03	30038.44
600.18	30188.23
600.34	30361.43
600.50	30424.62
600.65	30211.64
600.81	30373.13
600.97	30511.22
601.12	30469.09
601.28	30403.56
601.44	30394.20
601.59	30532.29
601.75	30099.29
601.91	30644.63
602.06	30139.08
602.22	30513.56
602.37	30462.07
602.53	30466.75
602.69	30424.62
602.84	30536.97
603.00	30490.16
603.16	30319.30
603.31	30525.27
603.47	30562.72
603.62	29933.11
603.78	30085.25
603.94	30508.88
604.09	30036.09
604.25	30122.69
604.40	29830.13
604.56	30118.01
604.71	30551.01
604.87	30354.41
605.03	30426.96
605.18	30246.74
605.34	30228.02
605.49	30354.41
605.65	30309.94
605.80	29860.55
605.96	30424.62
606.12	30103.97
606.27	30347.39
606.43	30120.35
606.58	30396.54
606.74	30518.25
606.89	30284.19
607.05	30525.27
607.20	30319.30
607.36	30820.17
607.51	30125.04
607.67	30005.67
607.82	29930.77
607.98	30338.02
608.13	30267.81
608.29	30157.80
608.44	30206.95
608.60	29982.26
608.75	30246.74
608.91	30433.99
609.06	29701.40
609.22	30045.46
609.37	30094.61
609.53	30059.50
609.68	30061.84
609.84	29982.26
609.99	29844.17
610.15	29869.92
610.30	30281.85
610.46	29977.58
610.61	30017.37
610.76	30000.99
610.92	30272.49
611.07	29970.56
611.23	29869.92
611.38	30309.94
611.54	30005.67
611.69	29565.65
611.84	29717.78
612.00	29677.99
612.15	29949.50
612.31	29975.24
612.46	29919.07
612.62	29696.72
612.77	29876.94
612.92	29949.50
613.08	29598.41
613.23	29539.90
613.39	30232.70
613.54	29631.18
613.69	29455.64
613.85	29670.97
614.00	29858.21
614.15	29809.06
614.31	29795.02
614.46	30033.75
614.62	29670.97
614.77	29621.82
614.92	29596.07
615.08	29553.94
615.23	29741.19
615.38	29886.30
615.54	29607.78
615.69	29406.49
615.84	29525.86
616.00	29769.27
616.15	29462.66
616.30	29855.87
616.46	29345.64
616.61	29537.56
616.76	29668.63
616.92	29544.58
617.07	29642.88
617.22	29298.83
617.37	29401.81
617.53	29490.75
617.68	29125.63
617.83	29144.35
617.99	29116.26
618.14	29118.60
618.29	29244.99
618.45	29418.19
618.60	29020.30
618.75	29537.56
618.90	29347.98
619.06	29207.55
619.21	29319.89
619.36	29457.98
619.51	29003.92
619.67	28992.22
619.82	28814.34
619.97	29216.91
620.12	29191.16
620.28	28694.97
620.43	29032.00
620.58	29434.58
620.73	29310.53
620.89	29298.83
621.04	29890.98
621.19	29048.39
621.34	29212.23
621.49	28999.24
621.65	29083.50
621.80	28819.02
621.95	28994.56
622.10	28933.70
622.25	28849.44
622.41	29237.97
622.56	28793.27
622.71	28968.81
622.86	28786.25
623.01	28924.34
623.16	28872.85
623.32	28758.16
623.47	28393.04
623.62	28776.89
623.77	28545.17
623.92	28685.61
624.07	28409.42
624.23	28748.80
624.38	29039.03
624.53	28893.91
624.68	28793.27
624.83	28886.89
624.98	28765.18
625.13	28837.74
625.29	28737.10
625.44	28388.36
625.59	28133.24
625.74	28489.00
625.89	28273.67
626.04	28182.39
626.19	28268.99
626.34	28577.94
626.49	28390.70
626.65	28563.90
626.80	28327.50
626.95	28390.70
627.10	28231.54
627.25	28418.78
627.40	28339.21
627.55	28247.93
627.70	28641.14
627.85	28088.77
628.00	28301.76
628.15	28135.58
628.30	28191.75
628.45	28367.29
628.60	27861.74
628.76	28421.13
628.91	28208.14
629.06	28144.94
629.21	27943.66
629.36	28322.82
629.51	28154.30
629.66	27992.81
629.81	28091.11
629.96	28039.62
630.11	27882.80
630.26	27885.14
630.41	27754.07
630.56	27735.35
630.71	27955.36
630.86	28023.23
631.01	28011.53
631.16	27929.61
631.31	27962.38
631.46	27641.73
631.61	28098.13
631.76	27927.27
631.91	27627.68
632.06	27990.47
632.21	27639.39
632.36	27838.33
632.51	27365.54
632.66	27887.48
632.81	27285.97
632.96	27730.67
633.10	27714.28
633.25	27672.15
633.40	27833.65
633.55	27414.69
633.70	27534.06
633.85	27505.98
634.00	27442.78
634.15	27225.11
634.30	27583.21
634.45	27346.82
634.60	27466.19
634.75	27267.24
634.90	27360.86
635.05	27548.11
635.19	27318.73
635.34	28016.21
635.49	27318.73
635.64	27480.23
635.79	27461.51
635.94	27440.44
636.09	27384.27
636.24	27218.09
636.39	27410.01
636.53	27428.74
636.68	27136.17
636.83	26869.35
636.98	27339.80
637.13	27180.64
637.28	27513.00
637.43	26859.99
637.57	27278.94
637.72	27040.21
637.87	26817.86
638.02	27374.91
638.17	27171.28
638.32	27192.34
638.46	26600.19
638.61	26909.14
638.76	26834.24
638.91	26553.38
639.06	26637.64
639.20	26986.38
639.35	27477.89
639.50	27171.28
639.65	27218.09
639.80	27072.98
639.94	27035.53
640.09	27087.02
640.24	27023.83
640.39	26775.73
640.54	26778.07
640.68	27173.62
640.83	26651.68
640.98	26487.84
641.13	26572.10
641.27	26796.79
641.42	26808.50
641.57	26815.52
641.72	26815.52
641.86	27040.21
642.01	26899.78
642.16	26595.51
642.31	26768.71
642.45	26644.66
642.60	26410.60
642.75	26244.43
642.90	26279.54
643.04	26579.12
643.19	26148.46
643.34	26597.85
643.48	26232.72
643.63	26377.84
643.78	26595.51
643.93	26534.65
644.07	26621.25
644.22	26651.68
644.37	26485.50
644.51	26719.56
644.66	26539.33
644.81	26260.81
644.95	26426.99
645.10	26363.79
645.25	25993.99
645.39	26478.48
645.54	26291.24
645.69	26405.92
645.83	26469.12
645.98	26246.77
646.13	26345.07
646.27	26431.67
646.42	26181.23
646.57	26438.69
646.71	26544.02
646.86	25909.73
647.00	25954.20
647.15	25586.74
647.30	25926.11
647.44	25982.29
647.59	26003.35
647.74	26068.89
647.88	26216.34
648.03	26125.06
648.17	26122.72
648.32	26160.17
648.47	26141.44
648.61	26019.74
648.76	26338.05
648.90	26291.24
649.05	25989.31
649.20	25848.88
649.34	26103.99
649.49	25282.47
649.63	25720.15
649.78	25898.03
649.92	25378.43
650.07	26125.06
650.21	25860.58
650.36	25680.36
650.51	25734.19
650.65	26045.48
650.80	25883.98
650.94	25607.80
651.09	25603.12
651.23	25408.86
651.38	25682.70
651.52	25706.10
651.67	25448.64
651.81	25359.70
651.96	25631.21
652.10	25242.68
652.25	25612.48
652.39	25303.53
652.54	25876.96
652.68	25455.67
652.83	25792.70
652.97	25703.76
653.12	25158.42
653.26	25570.35
653.41	25579.71
653.55	25041.39
653.70	25528.22
653.84	25607.80
653.99	25165.44
654.13	25170.12
654.27	25088.20
654.42	25165.44
654.56	25106.93
654.71	25628.87
654.85	25352.68
655.00	25308.21
655.14	25233.32
655.29	25254.38
655.43	24989.90
655.57	25149.06
655.72	24910.32
655.86	25310.55
656.01	25085.86
656.15	24851.81
656.30	24924.36
656.44	24800.32
656.58	24996.92
656.73	25111.61
656.87	25165.44
657.01	24959.47
657.16	25109.27
657.30	25362.04
657.45	25195.87
657.59	24992.24
657.73	24706.70
657.88	25158.42
658.02	24650.52
658.16	24996.92
658.31	24861.17
658.45	24730.10
658.60	24641.16
658.74	24428.17
658.88	24781.59
659.03	24496.05
659.17	24711.38
659.31	24769.89
659.46	24613.07
659.60	24606.05
659.74	24519.45
659.89	24854.15
660.03	24322.85
660.17	24381.36
660.32	24526.47
660.46	24137.94
660.60	24123.90
660.74	24095.82
660.89	24313.48
661.03	24102.84
661.17	24240.93
661.32	24269.01
661.46	24250.29
661.60	24233.91
661.74	24168.37
661.89	24297.10
662.03	24266.67
662.17	24191.78
662.31	24006.87
662.46	23950.70
662.60	23910.91
662.74	24023.26
662.88	23819.63
663.03	23899.21
663.17	23726.01
663.31	23337.48
663.45	23454.51
663.60	23307.05
663.74	23721.33
663.88	23861.76
664.02	23454.51
664.17	23927.30
664.31	23747.08
664.45	23529.41
664.59	23953.04
664.73	23800.91
664.88	23445.15
665.02	23091.73
665.16	23583.24
665.30	23475.57
665.44	23285.99
665.59	23180.67
665.73	23367.91
665.87	22977.04
666.01	23253.22
666.15	23360.89
666.29	23040.23
666.44	22794.48
666.58	22984.06
666.72	23101.09
666.86	23302.37
667.00	23147.90
667.14	23126.83
667.28	22988.74
667.43	22878.74
667.57	23084.70
667.71	22651.70
667.85	22654.05
667.99	22719.58
668.13	22698.52
668.27	22700.86
668.41	22693.83
668.56	22590.85
668.70	22647.02
668.84	22698.52
668.98	22363.82
669.12	22328.71
669.26	22623.62
669.40	22541.70
669.54	22656.39
669.68	22359.14
669.82	22199.98
669.96	22178.92
670.10	22031.46
670.25	22059.55
670.39	22050.19
670.53	21851.24
670.67	22185.94
670.81	22270.20
670.95	22157.85
671.09	22075.93
671.23	21701.45
671.37	21797.41
671.51	21940.18
671.65	22197.64
671.79	21427.60
671.93	21930.82
672.07	21926.14
672.21	21745.92
672.35	21563.36
672.49	21216.96
672.63	21413.56
672.77	21401.86
672.91	21605.49
673.05	21439.31
673.19	21441.65
673.33	21511.86
673.47	21504.84
673.61	21401.86
673.75	21303.56
673.89	21308.24
674.03	20908.01
674.17	21153.76
674.31	21020.35
674.45	21163.12
674.59	21104.61
674.73	21158.44
674.87	20863.54
675.01	20856.51
675.15	20741.83
675.29	20650.55
675.43	20601.40
675.56	20790.98
675.70	20809.70
675.84	20465.64
675.98	20163.72
676.12	20699.70
676.26	20929.07
676.40	20821.41
676.54	20475.01
676.68	20259.68
676.82	19704.97
676.96	20348.62
677.10	20205.84
677.23	20308.83
677.37	20177.76
677.51	20002.22
677.65	19953.07
677.79	20114.56
677.93	19756.46
678.07	19924.98
678.21	19625.39
678.34	19805.61
678.48	19564.54
678.62	19679.22
678.76	19604.33
678.90	19704.97
679.04	19716.67
679.18	19538.79
679.31	19302.40
679.45	18958.34
679.59	19051.96
679.73	18745.35
679.87	19068.34
680.00	18874.08
680.14	19145.58
680.28	18721.95
680.42	18644.71
680.56	18853.02
680.70	18808.54
680.83	18757.05
680.97	18733.65
681.11	18485.55
681.25	18642.37
681.39	18434.06
681.52	18534.70
681.66	18239.79
681.80	18366.18
681.94	18019.78
682.07	18312.35
682.21	18293.63
682.35	17837.22
682.49	17745.94
682.62	18057.23
682.76	17591.47
682.90	17867.65
683.04	18071.28
683.17	17687.43
683.31	17790.41
683.45	17867.65
683.59	17729.56
683.72	17575.08
683.86	17675.73
684.00	17514.23
684.13	17593.81
684.27	17139.74
684.41	17298.90
684.55	17160.81
684.68	17020.38
684.82	17048.46
684.96	17165.49
685.09	17018.04
685.23	16877.60
685.37	17233.36
685.50	16954.84
685.64	17034.42
685.78	16996.97
685.91	17036.76
686.05	16945.48
686.19	16765.26
686.32	16795.68
686.46	16367.37
686.60	16404.81
686.73	16381.41
686.87	16596.74
687.01	16240.98
687.14	16205.87
687.28	16098.20
687.42	15833.72
687.55	16128.63
687.69	16180.12
687.82	15974.16
687.96	15775.21
688.10	15744.78
688.23	15676.91
688.37	15571.58
688.50	15714.36
688.64	15850.11
688.78	15517.75
688.91	15697.97
689.05	15583.29
689.18	15646.48
689.32	15101.14
689.46	15147.95
689.59	15126.88
689.73	15641.80
689.86	15059.01
690.00	14998.15
690.13	15316.47
690.27	15185.40
690.41	15288.38
690.54	14932.62
690.68	14874.10
690.81	15066.03
690.95	15101.14
691.08	14848.36
691.22	14820.27
691.35	14684.52
691.49	14710.27
691.62	14576.86
691.76	14478.55
691.89	14291.31
692.03	14333.44
692.16	14228.12
692.30	14099.39
692.43	14324.08
692.57	14225.78
692.70	14244.50
692.84	14005.77
692.97	13933.21
693.11	13991.72
693.24	13998.74
693.38	14001.08
693.51	14200.03
693.65	13722.56
693.78	13635.96
693.92	13671.07
694.05	13579.79
694.19	13570.43
694.32	13319.99
694.45	13579.79
694.59	13322.33
694.72	13231.05
694.86	13343.39
694.99	12952.52
695.13	13273.18
695.26	13231.05
695.39	13018.06
695.53	12980.61
695.66	13273.18
695.80	12931.46
695.93	13083.59
696.07	12697.41
696.20	13214.66
696.33	12730.17
696.47	12566.34
696.60	12730.17
696.73	12863.58
696.87	12730.17
697.00	12585.06
697.14	12545.27
697.27	12421.22
697.40	12358.03
697.54	12280.79
697.67	12257.39
697.80	11899.28
697.94	11948.43
698.07	11939.07
698.21	11981.20
698.34	11815.02
698.47	12196.53
698.61	12060.78
698.74	11819.71
698.87	12121.63
699.01	11690.98
699.14	11681.61
699.27	11751.83
699.40	11625.44
699.54	11513.10
699.67	11552.88
699.80	11496.71
699.94	11447.56
700.07	11412.45
700.20	11145.63
700.34	11213.51
700.47	11117.54
700.60	11063.71
700.73	11405.43
700.87	11358.62
701.00	10934.98
701.13	10773.49
701.26	10794.55
701.40	11070.73
701.53	11070.73
701.66	11049.67
701.79	10792.21
701.93	10684.55
702.06	10832.00
702.19	10677.52
702.32	10445.81
702.46	10593.26
702.59	10310.06
702.72	10462.19
702.85	10443.47
702.99	10246.87
703.12	10293.68
703.25	10251.55
703.38	10307.72
703.51	10244.52
703.65	10167.29
703.78	10296.02
703.91	10174.31
704.04	10134.52
704.17	10045.58
704.31	9947.28
704.44	9991.75
704.57	9788.12
704.70	9781.10
704.83	9865.36
704.96	9699.18
705.10	9657.05
705.23	9544.70
>>>>>End Processed Spectral Data<<<<<
