SpectraSuite Data File
++++++++++++++++++++++++++++++++++++
Date: Fri Oct 18 13:58:22 GMT-05:00 2013
User: bianchi
Dark Spectrum Present: No
Reference Spectrum Present: No
Number of Sampled Component Spectra: 1
Spectrometers: USB2+H05261
Integration Time (usec): 50000 (USB2+H05261)
Spectra Averaged: 1 (USB2+H05261)
Boxcar Smoothing: 0 (USB2+H05261)
Correct for Electrical Dark: No (USB2+H05261)
Strobe/Lamp Enabled: No (USB2+H05261)
Correct for Detector Non-linearity: No (USB2+H05261)
Correct for Stray Light: No (USB2+H05261)
Number of Pixels in Processed Spectrum: 2048
>>>>>Begin Processed Spectral Data<<<<<
365.73	0.00
365.92	0.00
366.12	0.00
366.32	0.00
366.52	0.00
366.72	0.00
366.91	0.00
367.11	0.00
367.31	0.00
367.51	0.00
367.70	0.00
367.90	0.00
368.10	0.00
368.30	0.00
368.49	0.00
368.69	0.00
368.89	0.00
369.09	0.00
369.28	0.00
369.48	0.00
369.68	0.00
369.87	0.00
370.07	0.00
370.27	0.00
370.47	0.00
370.66	88.94
370.86	133.41
371.06	32.77
371.25	135.75
371.45	191.92
371.65	205.97
371.84	156.82
372.04	107.66
372.24	154.48
372.44	102.98
372.63	161.50
372.83	184.90
373.03	194.26
373.22	210.65
373.42	187.24
373.62	280.86
373.81	201.29
374.01	248.10
374.21	217.67
374.40	205.97
374.60	273.84
374.79	224.69
374.99	283.20
375.19	222.35
375.38	280.86
375.58	257.46
375.78	236.39
375.97	325.33
376.17	290.23
376.37	257.46
376.56	245.76
376.76	215.33
376.95	301.93
377.15	266.82
377.35	299.59
377.54	294.91
377.74	266.82
377.93	297.25
378.13	276.18
378.33	301.93
378.52	269.16
378.72	220.01
378.91	325.33
379.11	327.68
379.31	280.86
379.50	248.10
379.70	280.86
379.89	330.02
380.09	285.55
380.28	283.20
380.48	280.86
380.68	271.50
380.87	341.72
381.07	262.14
381.26	341.72
381.46	304.27
381.65	297.25
381.85	337.04
382.04	346.40
382.24	311.29
382.43	353.42
382.63	285.55
382.83	292.57
383.02	374.49
383.22	304.27
383.41	379.17
383.61	397.89
383.80	402.57
384.00	318.31
384.19	372.15
384.39	404.91
384.58	374.49
384.78	348.74
384.97	344.06
385.17	381.51
385.36	395.55
385.56	376.83
385.75	362.78
385.95	463.43
386.14	458.74
386.34	393.21
386.53	456.40
386.72	341.72
386.92	414.27
387.11	442.36
387.31	479.81
387.50	327.68
387.70	418.96
387.89	383.85
388.09	510.24
388.28	416.62
388.48	472.79
388.67	454.06
388.86	482.15
389.06	435.34
389.25	472.79
389.45	489.17
389.64	411.93
389.84	430.66
390.03	479.81
390.22	507.90
390.42	507.90
390.61	468.11
390.81	559.39
391.00	451.72
391.19	533.64
391.39	559.39
391.58	547.69
391.78	547.69
391.97	503.22
392.16	510.24
392.36	578.11
392.55	500.87
392.75	535.98
392.94	510.24
393.13	547.69
393.33	610.88
393.52	571.09
393.71	484.49
393.91	566.41
394.10	606.20
394.29	599.18
394.49	554.71
394.68	641.31
394.88	540.66
395.07	594.50
395.26	615.56
395.46	596.84
395.65	662.37
395.84	657.69
396.04	660.03
396.23	575.77
396.42	617.90
396.62	617.90
396.81	678.76
397.00	720.88
397.19	631.94
397.39	671.73
397.58	669.39
397.77	695.14
397.97	744.29
398.16	699.82
398.35	683.44
398.55	655.35
398.74	744.29
398.93	615.56
399.12	753.65
399.32	690.46
399.51	676.41
399.70	671.73
399.90	690.46
400.09	786.42
400.28	788.76
400.47	697.48
400.67	786.42
400.86	868.34
401.05	784.08
401.24	800.46
401.44	814.51
401.63	795.78
401.82	805.14
402.01	723.23
402.21	763.01
402.40	833.23
402.59	781.74
402.78	816.85
402.97	837.91
403.17	805.14
403.36	851.96
403.55	823.87
403.74	875.36
403.93	821.53
404.13	894.08
404.32	964.30
404.51	851.96
404.70	884.72
404.89	851.96
405.09	950.26
405.28	929.19
405.47	964.30
405.66	915.15
405.85	1029.84
406.05	971.32
406.24	1029.84
406.43	929.19
406.62	1036.86
406.81	1088.35
407.00	1018.13
407.20	976.00
407.39	933.87
407.58	1053.24
407.77	1043.88
407.96	1100.05
408.15	1123.46
408.34	1020.47
408.54	1116.44
408.73	1064.94
408.92	1071.97
409.11	1050.90
409.30	1149.20
409.49	1064.94
409.68	1172.61
409.87	1156.22
410.07	1205.38
410.26	1135.16
410.45	1114.10
410.64	1153.88
410.83	1226.44
411.02	1184.31
411.21	1268.57
411.40	1200.69
411.59	1299.00
411.78	1259.21
411.98	1327.08
412.17	1303.68
412.36	1259.21
412.55	1277.93
412.74	1315.38
412.93	1294.32
413.12	1324.74
413.31	1430.07
413.50	1303.68
413.69	1495.60
413.88	1348.15
414.07	1392.62
414.26	1467.52
414.45	1448.79
414.64	1479.22
414.83	1420.71
415.02	1423.05
415.22	1488.58
415.41	1577.52
415.60	1535.39
415.79	1481.56
415.98	1467.52
416.17	1458.15
416.36	1568.16
416.55	1624.33
416.74	1593.90
416.93	1666.46
417.12	1584.54
417.31	1603.27
417.50	1717.95
417.69	1771.79
417.88	1675.82
418.07	1692.21
418.26	1722.63
418.45	1720.29
418.64	1799.87
418.83	1830.30
419.02	1767.10
419.21	1755.40
419.39	1820.94
419.58	1839.66
419.77	1867.75
419.96	1785.83
420.15	1870.09
420.34	1933.28
420.53	1902.86
420.72	1830.30
420.91	1818.60
421.10	1872.43
421.29	2031.58
421.48	1933.28
421.67	1975.41
421.86	1928.60
422.05	1968.39
422.24	1998.82
422.43	1935.62
422.61	2043.29
422.80	2022.22
422.99	2015.20
423.18	1968.39
423.37	2094.78
423.56	1942.64
423.75	2033.93
423.94	1926.26
424.13	1961.37
424.32	1872.43
424.50	2038.61
424.69	2083.08
424.88	2047.97
425.07	2050.31
425.26	1977.75
425.45	2017.54
425.64	2036.27
425.83	2059.67
426.01	1989.46
426.20	2097.12
426.39	2031.58
426.58	2050.31
426.77	2043.29
426.96	1959.03
427.15	2141.59
427.33	2136.91
427.52	2183.72
427.71	2083.08
427.90	2169.68
428.09	2221.17
428.28	2099.46
428.46	2242.23
428.65	2277.34
428.84	2263.30
429.03	2307.77
429.22	2162.66
429.40	2169.68
429.59	2232.87
429.78	2165.00
429.97	2174.36
430.16	2146.27
430.34	2179.04
430.53	2260.96
430.72	2275.00
430.91	2282.02
431.10	2333.51
431.28	2277.34
431.47	2349.90
431.66	2333.51
431.85	2394.37
432.03	2448.20
432.22	2511.39
432.41	2293.72
432.60	2478.63
432.79	2499.69
432.97	2455.22
433.16	2504.37
433.35	2443.52
433.54	2448.20
433.72	2487.99
433.91	2401.39
434.10	2495.01
434.28	2516.08
434.47	2431.82
434.66	2499.69
434.85	2621.40
435.03	2656.51
435.22	2541.82
435.41	2597.99
435.59	2593.31
435.78	2602.68
435.97	2555.86
436.16	2733.75
436.34	2635.44
436.53	2792.26
436.72	2789.92
436.90	2654.17
437.09	2801.62
437.28	2679.91
437.46	2661.19
437.65	2789.92
437.84	2759.49
438.02	2736.09
438.21	2750.13
438.40	2752.47
438.58	2815.66
438.77	2925.67
438.96	2890.56
439.14	3009.93
439.33	2935.03
439.52	2939.71
439.70	2977.16
439.89	3054.40
440.08	3096.53
440.26	2928.01
440.45	3000.57
440.63	3162.06
440.82	3042.70
441.01	3096.53
441.19	3068.44
441.38	3368.03
441.57	3353.99
441.75	3206.53
441.94	3258.03
442.12	3164.40
442.31	3410.16
442.50	3339.94
442.68	3229.94
442.87	3335.26
443.05	3243.98
443.24	3253.34
443.43	3353.99
443.61	3356.33
443.80	3452.29
443.98	3318.88
444.17	3187.81
444.35	3449.95
444.54	3478.04
444.73	3524.85
444.91	3379.73
445.10	3344.63
445.28	3461.65
445.47	3475.70
445.65	3433.57
445.84	3438.25
446.02	3552.93
446.21	3478.04
446.39	3524.85
446.58	3506.12
446.77	3379.73
446.95	3410.16
447.14	3454.63
447.32	3545.91
447.51	3466.33
447.69	3370.37
447.88	3618.47
448.06	3442.93
448.25	3445.27
448.43	3534.21
448.62	3599.74
448.80	3599.74
448.99	3517.83
449.17	3613.79
449.36	3571.66
449.54	3590.38
449.73	3777.62
449.91	3730.81
450.10	3681.66
450.28	3709.75
450.46	3669.96
450.65	3719.11
450.83	3681.66
451.02	3798.69
451.20	3665.28
451.39	3709.75
451.57	3772.94
451.76	3768.26
451.94	3833.80
452.13	3950.82
452.31	3812.73
452.49	3730.81
452.68	3733.15
452.86	3784.65
453.05	4053.81
453.23	3845.50
453.42	3934.44
453.60	3691.02
453.78	3868.91
453.97	3826.78
454.15	3882.95
454.34	3819.75
454.52	3871.25
454.70	3948.48
454.89	4156.79
455.07	4114.66
455.26	3925.08
455.44	4004.66
455.62	4039.76
455.81	4098.28
455.99	4114.66
456.17	4067.85
456.36	4154.45
456.54	4194.24
456.73	4140.41
456.91	4269.14
457.09	4306.59
457.28	4435.32
457.46	4339.35
457.64	4227.01
457.83	4353.40
458.01	4161.47
458.19	4248.07
458.38	4320.63
458.56	4358.08
458.74	4402.55
458.93	4416.59
459.11	4365.10
459.29	4383.82
459.48	4463.40
459.66	4585.11
459.84	4603.83
460.03	4582.77
460.21	4631.92
460.39	4498.51
460.57	4489.15
460.76	4521.92
460.94	4624.90
461.12	4638.94
461.31	4461.06
461.49	4493.83
461.67	4550.00
461.85	4744.27
462.04	4599.15
462.22	4800.44
462.40	4812.14
462.59	4643.62
462.77	4762.99
462.95	4676.39
463.13	4798.10
463.32	4847.25
463.50	4805.12
463.68	4784.06
463.86	4828.53
464.05	4711.50
464.23	4809.80
464.41	4823.84
464.59	4730.22
464.78	5095.35
464.96	4877.68
465.14	4910.44
465.32	4915.12
465.50	5025.13
465.69	4978.32
465.87	4971.30
466.05	5057.90
466.23	5046.20
466.41	5041.51
466.60	5032.15
466.78	5018.11
466.96	4947.89
467.14	4936.19
467.32	5170.24
467.51	5139.82
467.69	4978.32
467.87	5151.52
468.05	5282.59
468.23	5104.71
468.41	5125.77
468.60	5114.07
468.78	5238.12
468.96	5291.95
469.14	5240.46
469.32	5310.68
469.50	5085.98
469.69	5294.29
469.87	5252.16
470.05	5373.87
470.23	5408.98
470.41	5320.04
470.59	5586.86
470.77	5378.55
470.95	5376.21
471.14	5446.43
471.32	5495.58
471.50	5724.95
471.68	5526.00
471.86	5439.40
472.04	5469.83
472.22	5633.67
472.40	5607.92
472.58	5617.29
472.77	5734.31
472.95	5811.55
473.13	5930.92
473.31	5858.36
473.49	5650.05
473.67	5893.47
473.85	5959.00
474.03	5956.66
474.21	5926.24
474.39	6061.99
474.57	5895.81
474.75	6097.10
474.93	6197.74
475.12	6080.71
475.30	6263.27
475.48	6022.20
475.66	6195.40
475.84	6335.83
476.02	6373.28
476.20	6260.93
476.38	6445.84
476.56	6527.75
476.74	6483.28
476.92	6530.09
477.10	6614.35
477.28	6640.10
477.46	6539.46
477.64	6612.01
477.82	6710.32
478.00	6810.96
478.18	6888.20
478.36	6890.54
478.54	6991.18
478.72	6974.80
478.90	7016.93
479.08	7297.79
479.26	7061.40
479.44	7194.81
479.62	7400.77
479.80	7279.07
479.98	7447.58
480.16	7529.50
480.34	7353.96
480.52	7611.42
480.70	7665.25
480.88	7545.89
481.06	7770.58
481.24	7583.34
481.41	7655.89
481.59	7829.09
481.77	7967.18
481.95	8030.38
482.13	7976.55
482.31	8030.38
482.49	8180.17
482.67	8231.66
482.85	8533.59
483.03	8468.06
483.21	8557.00
483.39	8622.53
483.57	8430.61
483.74	8643.60
483.92	8667.00
484.10	8596.79
484.28	8830.84
484.46	9046.17
484.64	9170.22
484.82	8975.95
485.00	8985.32
485.18	9511.94
485.35	9317.67
485.53	9460.45
485.71	9460.45
485.89	9511.94
486.07	9383.21
486.25	9675.77
486.43	9411.29
486.61	9565.77
486.78	10068.98
486.96	9823.23
487.14	10118.14
487.32	10076.01
487.50	10190.69
487.68	10307.72
487.85	10286.65
488.03	10340.49
488.21	10602.63
488.39	10562.84
488.57	10649.44
488.75	10506.66
488.92	10707.95
489.10	10839.02
489.28	10902.22
489.46	10993.50
489.64	10956.05
489.81	11391.39
489.99	11325.85
490.17	11344.58
490.35	11339.90
490.53	11428.84
490.70	11836.09
490.88	11595.01
491.06	11534.16
491.24	11838.43
491.41	11932.05
491.59	11899.28
491.77	12056.10
491.95	12028.01
492.13	12088.87
492.30	12351.01
492.48	12187.17
492.66	12177.81
492.84	12369.73
493.01	12493.78
493.19	12575.70
493.37	12554.63
493.54	12681.02
493.72	12779.32
493.90	12896.35
494.08	12961.89
494.25	12924.44
494.43	12964.23
494.61	13137.43
494.79	13348.08
494.96	13167.85
495.14	13167.85
495.32	13420.63
495.49	13575.11
495.67	13392.55
495.85	13912.14
496.02	13738.94
496.20	14068.96
496.38	13799.80
496.55	13898.10
496.73	13998.74
496.91	13884.06
497.09	14193.01
497.26	14286.63
497.44	14169.60
497.62	14279.61
497.79	14626.01
497.97	14527.71
498.14	14555.79
498.32	14937.30
498.50	15124.54
498.67	14796.87
498.85	14864.74
499.03	14991.13
499.20	15147.95
499.38	14857.72
499.56	15023.90
499.73	15159.65
499.91	15297.74
500.08	15393.70
500.26	15136.24
500.44	15590.31
500.61	15344.55
500.79	15325.83
500.97	15653.50
501.14	15534.14
501.32	15543.50
501.49	15447.54
501.67	15592.65
501.84	15829.04
502.02	15726.06
502.20	15939.05
502.37	16070.12
502.55	16006.92
502.72	16133.31
502.90	16154.38
503.07	15976.50
503.25	16039.69
503.43	16219.91
503.60	16521.84
503.78	16393.11
503.95	16460.99
504.13	16545.25
504.30	16922.07
504.48	16713.77
504.65	16587.38
504.83	16889.31
505.01	16952.50
505.18	16732.49
505.36	17069.53
505.53	16720.79
505.71	17046.12
505.88	17128.04
506.06	16781.64
506.23	17249.75
506.41	17289.54
506.58	17301.24
506.76	17277.83
506.93	17502.53
507.11	17415.93
507.28	17359.75
507.46	17436.99
507.63	17640.62
507.81	17689.77
507.98	17657.00
508.16	17813.82
508.33	17671.04
508.50	17797.43
508.68	17799.77
508.85	18078.30
509.03	17862.97
509.20	18216.39
509.38	18038.51
509.55	18239.79
509.73	18099.36
509.90	18569.81
510.08	18157.88
510.25	18267.88
510.42	18312.35
510.60	18288.95
510.77	18478.53
510.95	18546.40
511.12	18265.54
511.30	18558.11
511.47	18506.62
511.64	18719.60
511.82	18834.29
511.99	18857.70
512.17	19049.62
512.34	18787.48
512.51	18920.89
512.69	18953.66
512.86	19143.24
513.04	19051.96
513.21	19199.41
513.38	19438.15
513.56	19136.22
513.73	19227.50
513.90	19431.13
514.08	19459.21
514.25	19803.27
514.43	19403.04
514.60	19695.61
514.77	19775.19
514.95	19983.49
515.12	19618.37
515.29	19601.99
515.47	19819.66
515.64	19901.58
515.81	20002.22
515.99	20002.22
516.16	20198.82
516.33	20245.63
516.51	20109.88
516.68	20046.69
516.85	20039.67
517.03	20257.34
517.20	20250.32
517.37	20271.38
517.54	20517.14
517.72	20460.96
517.89	20421.17
518.06	20402.45
518.24	20463.30
518.41	20526.50
518.58	20582.67
518.75	20727.78
518.93	20781.62
519.10	20585.01
519.27	20938.43
519.45	20678.63
519.62	20926.73
519.79	20821.41
519.96	21125.68
520.14	21102.27
520.31	21144.40
520.48	21315.26
520.65	21219.30
520.83	21214.62
521.00	21511.86
521.17	21041.42
521.34	21116.31
521.52	21343.35
521.69	21451.01
521.86	21474.42
522.03	21830.18
522.20	21495.48
522.38	21687.40
522.55	21802.09
522.72	21928.48
522.89	21745.92
523.07	21898.05
523.24	21940.18
523.41	22207.00
523.58	21886.35
523.75	22167.21
523.92	21811.45
524.10	21783.37
524.27	21984.65
524.44	22260.84
524.61	22537.02
524.78	22239.77
524.96	22553.40
525.13	22427.01
525.30	22492.55
525.47	22422.33
525.64	22511.27
525.81	22738.30
525.98	22876.40
526.16	22745.33
526.33	22670.43
526.50	22757.03
526.67	22548.72
526.84	22579.15
527.01	22600.21
527.18	22609.58
527.36	22724.26
527.53	23054.28
527.70	23070.66
527.87	23190.03
528.04	22885.76
528.21	23339.82
528.38	23218.11
528.55	23033.21
528.72	23126.83
528.89	23468.55
529.07	23201.73
529.24	23220.45
529.41	23105.77
529.58	23269.61
529.75	23440.47
529.92	23201.73
530.09	23309.40
530.26	23681.54
530.43	23559.83
530.60	23388.97
530.77	23576.22
530.94	23702.61
531.11	23489.62
531.28	23482.59
531.46	23726.01
531.63	23744.73
531.80	23922.62
531.97	24135.60
532.14	23915.59
532.31	24081.77
532.48	23910.91
532.65	23910.91
532.82	23908.57
532.99	24135.60
533.16	24004.53
533.33	24336.89
533.50	23896.87
533.67	24290.08
533.84	23939.00
534.01	24034.96
534.18	24247.95
534.35	24388.38
534.52	24304.12
534.69	24421.15
534.86	24393.06
535.03	24034.96
535.20	24290.08
535.37	24348.59
535.54	24631.80
535.71	24428.17
535.88	24395.40
536.05	24606.05
536.22	24290.08
536.38	24886.92
536.55	24968.84
536.72	24751.17
536.89	24793.29
537.06	25008.62
537.23	25055.43
537.40	24835.42
537.57	25277.79
537.74	25034.37
537.91	25090.54
538.08	24903.30
538.25	25188.85
538.42	25046.07
538.59	24959.47
538.75	25221.61
538.92	24793.29
539.09	25619.50
539.26	25177.14
539.43	25340.98
539.60	25600.78
539.77	25371.41
539.94	25450.99
540.11	25467.37
540.28	25544.61
540.44	25214.59
540.61	25607.80
540.78	25441.62
540.95	25809.09
541.12	25626.53
541.29	25661.63
541.46	25795.04
541.62	25600.78
541.79	25380.77
541.96	25357.36
542.13	25406.52
542.30	25586.74
542.47	25895.69
542.63	26052.50
542.80	26480.82
542.97	26230.38
543.14	26281.88
543.31	25937.82
543.48	26176.55
543.64	26405.92
543.81	26153.15
543.98	26483.16
544.15	26464.44
544.32	26230.38
544.48	26686.79
544.65	26197.62
544.82	26525.29
544.99	26354.43
545.16	26078.25
545.32	25785.68
545.49	26600.19
545.66	26700.83
545.83	26382.52
546.00	26801.47
546.16	26754.66
546.33	26398.90
546.50	26284.22
546.67	26403.58
546.83	26307.62
547.00	26661.04
547.17	26845.94
547.34	26827.22
547.50	27019.14
547.67	26728.92
547.84	26822.54
548.00	26965.31
548.17	27054.25
548.34	26841.26
548.51	26920.84
548.67	27115.11
548.84	27077.66
549.01	26850.63
549.18	27016.80
549.34	27012.12
549.51	26623.59
549.68	26742.96
549.84	27040.21
550.01	27180.64
550.18	26733.60
550.34	27283.62
550.51	27601.94
550.68	27552.79
550.84	27000.42
551.01	27126.81
551.18	27379.59
551.34	27175.96
551.51	27489.59
551.68	27360.86
551.84	27887.48
552.01	27482.57
552.18	27496.61
552.34	27365.54
552.51	27964.72
552.68	27758.75
552.84	27585.55
553.01	27505.98
553.18	27480.23
553.34	28016.21
553.51	27620.66
553.67	27782.16
553.84	27843.01
554.01	27728.33
554.17	27676.83
554.34	27683.86
554.51	27576.19
554.67	27714.28
554.84	27683.86
555.00	27538.74
555.17	27737.69
555.33	27791.52
555.50	28198.77
555.67	27889.82
555.83	27997.49
556.00	27552.79
556.16	28107.49
556.33	28215.16
556.50	28283.03
556.66	28603.69
556.83	28311.12
556.99	28449.21
557.16	28292.40
557.32	28009.19
557.49	28624.75
557.65	28105.15
557.82	27880.46
557.98	28201.11
558.15	28280.69
558.32	28371.97
558.48	28201.11
558.65	28786.25
558.81	28414.10
558.98	28421.13
559.14	28610.71
559.31	28208.14
559.47	28519.43
559.64	28219.84
559.80	28713.69
559.97	28730.08
560.13	28545.17
560.30	28657.52
560.46	28280.69
560.63	28395.38
560.79	28397.72
560.96	28540.49
561.12	28582.62
561.29	28624.75
561.45	28751.14
561.61	28793.27
561.78	28449.21
561.94	28556.88
562.11	28713.69
562.27	28481.98
562.44	28699.65
562.60	28643.48
562.77	28638.80
562.93	28741.78
563.10	28889.23
563.26	28664.54
563.42	28851.78
563.59	28493.68
563.75	28680.92
563.92	28641.14
564.08	28659.86
564.24	29013.28
564.41	28638.80
564.57	28692.63
564.74	28613.05
564.90	28968.81
565.07	28720.71
565.23	28952.43
565.39	29205.20
565.56	28837.74
565.72	28856.46
565.88	29160.73
566.05	28690.29
566.21	28435.17
566.38	28758.16
566.54	28910.30
566.70	29060.09
566.87	29247.33
567.03	28919.66
567.19	29649.91
567.36	29415.85
567.52	29078.82
567.68	29254.36
567.85	29024.98
568.01	29109.24
568.17	29095.20
568.34	28973.49
568.50	29139.67
568.66	29296.49
568.83	29127.97
568.99	28996.90
569.15	29146.69
569.32	29219.25
569.48	29055.41
569.64	29104.56
569.81	29315.21
569.97	28957.11
570.13	29507.13
570.30	29214.57
570.46	29291.80
570.62	29333.93
570.78	29099.88
570.95	29156.05
571.11	29516.50
571.27	29020.30
571.43	29017.96
571.60	29291.80
571.76	28865.83
571.92	29057.75
572.09	29315.21
572.25	29184.14
572.41	28811.99
572.57	29270.74
572.74	29312.87
572.90	29439.26
573.06	29244.99
573.22	29226.27
573.38	29514.16
573.55	29350.32
573.71	29703.74
573.87	29876.94
574.03	29221.59
574.20	29535.22
574.36	29315.21
574.52	29104.56
574.68	29270.74
574.84	29362.02
575.01	29322.23
575.17	29429.90
575.33	29237.97
575.49	29378.40
575.65	29270.74
575.82	29453.30
575.98	29493.09
576.14	29823.11
576.30	29472.03
576.46	29563.31
576.62	29771.61
576.79	29516.50
576.95	29476.71
577.11	29376.06
577.27	29170.10
577.43	29827.79
577.59	29214.57
577.75	29563.31
577.92	29308.19
578.08	29347.98
578.24	29102.22
578.40	29537.56
578.56	29596.07
578.72	29687.36
578.88	29406.49
579.04	30071.20
579.21	29647.57
579.37	29207.55
579.53	29521.18
579.69	29134.99
579.85	29359.68
580.01	29326.91
580.17	29357.34
580.33	29738.85
580.49	29214.57
580.65	29780.98
580.82	29479.05
580.98	29867.58
581.14	29474.37
581.30	29780.98
581.46	29504.79
581.62	29518.84
581.78	29731.83
581.94	29799.70
582.10	29366.70
582.26	29638.20
582.42	29441.60
582.58	29743.53
582.74	29610.12
582.90	29535.22
583.06	29453.30
583.22	29912.05
583.38	29472.03
583.54	29467.34
583.70	29474.37
583.86	29680.33
584.02	29596.07
584.18	30052.48
584.34	29352.66
584.50	30120.35
584.66	29465.00
584.82	29741.19
584.98	29654.59
585.14	29652.25
585.30	29411.17
585.46	29940.13
585.62	29713.10
585.78	29869.92
585.94	29652.25
586.10	30071.20
586.26	29677.99
586.42	29862.90
586.58	29937.79
586.74	29549.26
586.90	29465.00
587.06	29497.77
587.22	29731.83
587.38	29661.61
587.54	30052.48
587.70	30057.16
587.86	29855.87
588.02	30000.99
588.18	30298.23
588.34	29727.14
588.49	29633.52
588.65	29811.40
588.81	29603.10
588.97	29930.77
589.13	29626.50
589.29	29645.23
589.45	29881.62
589.61	29816.08
589.77	30061.84
589.93	29968.22
590.08	29890.98
590.24	30136.74
590.40	30099.29
590.56	30040.78
590.72	29928.43
590.88	29734.17
591.04	29898.00
591.20	30169.51
591.35	30036.09
591.51	30270.15
591.67	30085.25
591.83	30302.92
591.99	29874.60
592.15	29872.26
592.31	29965.88
592.46	29862.90
592.62	30150.78
592.78	29951.84
592.94	29811.40
593.10	30000.99
593.26	30218.66
593.41	29862.90
593.57	30127.38
593.73	29771.61
593.89	30508.88
594.05	30197.59
594.20	29956.52
594.36	29986.94
594.52	29795.02
594.68	30061.84
594.84	29795.02
594.99	29979.92
595.15	30380.15
595.31	30504.20
595.47	30047.80
595.62	30132.06
595.78	30338.02
595.94	30183.55
596.10	30340.36
596.25	29858.21
596.41	29755.23
596.57	29799.70
596.73	30221.00
596.88	30047.80
597.04	30176.53
597.20	30459.73
597.36	29998.65
597.51	30408.24
597.67	29949.50
597.83	29762.25
597.99	30300.58
598.14	29977.58
598.30	30192.91
598.46	30108.65
598.61	30462.07
598.77	30005.67
598.93	30192.91
599.09	30202.27
599.24	30501.86
599.40	30345.05
599.56	30059.50
599.71	30195.25
599.87	30742.94
600.03	30349.73
600.18	30064.18
600.34	30305.26
600.50	29788.00
600.65	30476.12
600.81	29979.92
600.97	30511.22
601.12	30529.95
601.28	30272.49
601.44	30300.58
601.59	30541.65
601.75	30061.84
601.91	30188.23
602.06	29954.18
602.22	30356.75
602.37	30050.14
602.53	30146.10
602.69	30368.45
602.84	30270.15
603.00	30426.96
603.16	30366.11
603.31	30249.08
603.47	30319.30
603.62	30366.11
603.78	30237.38
603.94	29834.81
604.09	30221.00
604.25	30073.54
604.40	30185.89
604.56	30436.33
604.71	30323.98
604.87	30487.82
605.03	30253.76
605.18	30061.84
605.34	30342.70
605.49	30073.54
605.65	30249.08
605.80	30319.30
605.96	30478.46
606.12	30204.61
606.27	30125.04
606.43	29614.80
606.58	30494.84
606.74	30302.92
606.89	30277.17
607.05	30377.81
607.20	30635.27
607.36	30333.34
607.51	30277.17
607.67	30008.01
607.82	29832.47
607.98	29839.49
608.13	30000.99
608.29	30293.55
608.44	29860.55
608.60	30125.04
608.75	30167.16
608.91	30398.88
609.06	30045.46
609.22	30206.95
609.37	30101.63
609.53	30054.82
609.68	29919.07
609.84	29780.98
609.99	29804.38
610.15	30199.93
610.30	29799.70
610.46	30136.74
610.61	29497.77
610.76	30415.26
610.92	30377.81
611.07	29329.25
611.23	29640.54
611.38	30022.05
611.54	29720.12
611.69	29575.01
611.84	29752.89
612.00	29355.00
612.15	29570.33
612.31	29802.04
612.46	29731.83
612.62	29907.37
612.77	29813.74
612.92	30036.09
613.08	29912.05
613.23	29757.57
613.39	29757.57
613.54	29352.66
613.69	29638.20
613.85	29621.82
614.00	29708.42
614.15	29813.74
614.31	29986.94
614.46	30099.29
614.62	29893.32
614.77	29727.14
614.92	29862.90
615.08	29813.74
615.23	29741.19
615.38	29598.41
615.54	29099.88
615.69	29659.27
615.84	29156.05
616.00	29507.13
616.15	29425.22
616.30	29635.86
616.46	29567.99
616.61	29429.90
616.76	29579.69
616.92	29441.60
617.07	29502.45
617.22	29355.00
617.37	29228.61
617.53	29635.86
617.68	29387.77
617.83	29153.71
617.99	29446.28
618.14	29425.22
618.29	29448.62
618.45	29483.73
618.60	29284.78
618.75	29179.46
618.90	29472.03
619.06	29312.87
619.21	29165.42
619.36	29244.99
619.51	28889.23
619.67	28973.49
619.82	28545.17
619.97	28966.47
620.12	29104.56
620.28	29048.39
620.43	29179.46
620.58	28954.77
620.73	29170.10
620.89	29151.37
621.04	28994.56
621.19	29020.30
621.34	29053.07
621.49	29263.72
621.65	28861.15
621.80	28704.33
621.95	28318.14
622.10	28844.76
622.25	28783.91
622.41	28893.91
622.56	28673.90
622.71	29212.23
622.86	29013.28
623.01	28694.97
623.16	28807.31
623.32	28851.78
623.47	28442.19
623.62	28819.02
623.77	28706.67
623.92	28524.11
624.07	28608.37
624.23	28774.55
624.38	29156.05
624.53	28432.83
624.68	28957.11
624.83	29163.08
624.98	28884.55
625.13	28922.00
625.29	28875.19
625.44	28886.89
625.59	28416.44
625.74	28261.97
625.89	28053.66
626.04	28458.57
626.19	28187.07
626.34	28379.00
626.49	27880.46
626.65	28280.69
626.80	28177.71
626.95	28636.45
627.10	28322.82
627.25	28322.82
627.40	28393.04
627.55	28051.32
627.70	28105.15
627.85	28449.21
628.00	27917.91
628.15	28381.34
628.30	28016.21
628.45	27861.74
628.60	28112.17
628.76	28030.26
628.91	28161.33
629.06	28322.82
629.21	27906.21
629.36	28327.50
629.51	28261.97
629.66	28058.34
629.81	27775.14
629.96	27728.33
630.11	28102.81
630.26	27880.46
630.41	27967.06
630.56	27978.76
630.71	28243.24
630.86	27997.49
631.01	27950.68
631.16	28128.56
631.31	27662.79
631.46	27545.76
631.61	27934.29
631.76	27901.53
631.91	28034.94
632.06	27527.04
632.21	27520.02
632.36	27749.39
632.51	27571.51
632.66	28002.17
632.81	27548.11
632.96	27576.19
633.10	27578.53
633.25	27466.19
633.40	27615.98
633.55	27433.42
633.70	27147.87
633.85	27339.80
634.00	27601.94
634.15	27323.41
634.30	27529.38
634.45	27140.85
634.60	27639.39
634.75	27419.38
634.90	27236.81
635.05	27676.83
635.19	27700.24
635.34	27480.23
635.49	27515.34
635.64	27646.41
635.79	27225.11
635.94	27035.53
636.09	27400.65
636.24	26876.37
636.39	27136.17
636.53	27173.62
636.68	26930.20
636.83	27417.04
636.98	27152.55
637.13	27325.75
637.28	27356.18
637.43	27421.72
637.57	27545.76
637.72	26927.86
637.87	27112.77
638.02	26955.95
638.17	26953.61
638.32	26834.24
638.46	26586.15
638.61	26822.54
638.76	26969.99
638.91	26962.97
639.06	26881.05
639.20	26836.58
639.35	27094.04
639.50	27040.21
639.65	26778.07
639.80	26899.78
639.94	27098.72
640.09	26916.16
640.24	27309.37
640.39	26824.88
640.54	26717.22
640.68	26883.39
640.83	27215.75
640.98	26768.71
641.13	26473.80
641.27	26579.12
641.42	26771.05
641.57	26792.11
641.72	26969.99
641.86	26527.63
642.01	26520.61
642.16	26827.22
642.31	26593.17
642.45	26876.37
642.60	26265.49
642.75	26286.56
642.90	26324.01
643.04	26300.60
643.19	26586.15
643.34	26684.45
643.48	26183.57
643.63	26698.49
643.78	26469.12
643.93	26480.82
644.07	26387.20
644.22	26789.77
644.37	26487.84
644.51	26375.50
644.66	26513.59
644.81	26356.77
644.95	26375.50
645.10	26120.38
645.25	26441.03
645.39	26237.41
645.54	26258.47
645.69	26274.85
645.83	25876.96
645.98	26141.44
646.13	26422.31
646.27	26183.57
646.42	26527.63
646.57	26164.85
646.71	26176.55
646.86	26085.27
647.00	26235.06
647.15	26291.24
647.30	26047.82
647.44	25792.70
647.59	25977.61
647.74	25867.60
647.88	25722.49
648.03	26092.29
648.17	26094.63
648.32	26080.59
648.47	26197.62
648.61	25872.28
648.76	26302.94
648.90	26099.31
649.05	26129.74
649.20	26089.95
649.34	25633.55
649.49	25612.48
649.63	25497.80
649.78	25727.17
649.92	25694.40
650.07	26256.13
650.21	25795.04
650.36	25675.68
650.51	25743.55
650.65	25862.92
650.80	25673.34
650.94	25659.29
651.09	25708.44
651.23	25270.76
651.38	25638.23
651.52	25762.28
651.67	25448.64
651.81	25642.91
651.96	25385.45
652.10	25560.99
652.25	25663.97
652.39	25511.84
652.54	25610.14
652.68	25486.09
652.83	25565.67
652.97	25837.17
653.12	25490.77
653.26	25369.07
653.41	25235.66
653.55	25364.39
653.70	25240.34
653.84	25216.93
653.99	25303.53
654.13	25228.63
654.27	25443.96
654.42	25158.42
654.56	25404.17
654.71	25195.87
654.85	25411.20
655.00	24971.18
655.14	24776.91
655.29	25221.61
655.43	25043.73
655.57	25280.13
655.72	25249.70
655.86	24847.13
656.01	24891.60
656.15	24386.04
656.30	24891.60
656.44	24933.73
656.58	24678.61
656.73	24924.36
656.87	25130.33
657.01	24900.96
657.16	25188.85
657.30	25172.46
657.45	25013.31
657.59	25123.31
657.73	24762.87
657.88	24751.17
658.02	24491.37
658.16	24563.92
658.31	24765.21
658.45	24573.28
658.60	24444.56
658.74	24512.43
658.88	24397.74
659.03	24615.41
659.17	24500.73
659.31	24547.54
659.46	24519.45
659.60	24762.87
659.74	24905.64
659.89	24407.11
660.03	24437.53
660.17	24367.32
660.32	24149.65
660.46	24294.76
660.60	24306.46
660.74	24088.79
660.89	24252.63
661.03	24114.54
661.17	24074.75
661.32	24053.69
661.46	24547.54
661.60	24547.54
661.74	24217.52
661.89	24526.47
662.03	24266.67
662.17	23892.19
662.31	24163.69
662.46	23974.11
662.60	23971.77
662.74	24046.66
662.88	23833.68
663.03	23812.61
663.17	23541.11
663.31	23562.17
663.45	23536.43
663.60	23747.08
663.74	23637.07
663.88	23758.78
664.02	23618.35
664.17	23660.48
664.31	23477.91
664.45	23454.51
664.59	23489.62
664.73	23534.09
664.88	23377.27
665.02	23293.01
665.16	23171.30
665.30	23175.98
665.44	22974.70
665.59	23218.11
665.73	22967.68
665.87	23271.95
666.01	23311.74
666.15	23477.91
666.29	23037.89
666.44	23229.82
666.58	23161.94
666.72	22801.50
666.86	22993.42
667.00	23222.80
667.14	22988.74
667.28	23096.41
667.43	22794.48
667.57	22967.68
667.71	22661.07
667.85	22731.28
667.99	22759.37
668.13	22740.64
668.27	22871.72
668.41	23068.32
668.56	22300.62
668.70	22824.90
668.84	22750.01
668.98	22408.29
669.12	22707.88
669.26	22838.95
669.40	22600.21
669.54	22487.87
669.68	22427.01
669.82	22120.40
669.96	22340.41
670.10	22272.54
670.25	21776.34
670.39	22071.25
670.53	21944.86
670.67	21907.41
670.81	22267.86
670.95	21855.92
671.09	21998.70
671.23	22057.21
671.37	22043.17
671.51	21965.93
671.65	22127.42
671.79	21898.05
671.93	21614.85
672.07	21640.59
672.21	21647.61
672.35	21699.11
672.49	21537.61
672.63	21195.89
672.77	21596.12
672.91	21436.97
673.05	21338.66
673.19	21355.05
673.33	21289.51
673.47	21137.38
673.61	21130.36
673.75	21427.60
673.89	21245.04
674.03	21099.93
674.17	20835.45
674.31	21202.91
674.45	21167.80
674.59	20936.09
674.73	21020.35
674.87	20723.10
675.01	20776.94
675.15	20746.51
675.29	20648.21
675.43	20180.10
675.56	20489.05
675.70	20828.43
675.84	20765.23
675.98	20435.22
676.12	20893.96
676.26	20582.67
676.40	20716.08
676.54	20587.35
676.68	20294.79
676.82	20044.35
676.96	20226.91
677.10	19955.41
677.23	19880.51
677.37	20093.50
677.51	19831.36
677.65	19775.19
677.79	19634.75
677.93	19969.45
678.07	19716.67
678.21	19704.97
678.34	19768.16
678.48	19506.02
678.62	19733.06
678.76	19587.94
678.90	19601.99
679.04	19389.00
679.18	19431.13
679.31	18948.98
679.45	19325.80
679.59	19040.26
679.73	18944.30
679.87	18855.36
680.00	18829.61
680.14	18932.59
680.28	18883.44
680.42	18831.95
680.56	18909.19
680.70	18827.27
680.83	18930.25
680.97	18520.66
681.11	18731.31
681.25	18530.02
681.39	18267.88
681.52	18565.13
681.66	18675.13
681.80	18312.35
681.94	18349.80
682.07	18099.36
682.21	18305.33
682.35	17935.53
682.49	17774.03
682.62	17596.15
682.76	17987.02
682.90	18038.51
683.04	17802.11
683.17	17961.27
683.31	17724.88
683.45	17631.26
683.59	17750.62
683.72	17706.15
683.86	17408.90
684.00	17324.65
684.13	17092.93
684.27	17219.32
684.41	17130.38
684.55	17207.62
684.68	17121.02
684.82	17081.23
684.96	16966.54
685.09	17003.99
685.23	16800.37
685.37	16982.93
685.50	17261.45
685.64	17252.09
685.78	16943.14
685.91	16847.18
686.05	16833.13
686.19	16774.62
686.32	17139.74
686.46	16566.31
686.60	16381.41
686.73	16367.37
686.87	16297.15
687.01	16203.53
687.14	16109.91
687.28	16306.51
687.42	15807.98
687.55	16044.37
687.69	15903.94
687.82	16027.99
687.96	16006.92
688.10	15887.56
688.23	16004.58
688.37	15819.68
688.50	15969.48
688.64	15838.41
688.78	15707.34
688.91	15470.94
689.05	15470.94
689.18	15473.28
689.32	15042.62
689.46	15026.24
689.59	15503.71
689.73	15356.25
689.86	15211.14
690.00	14839.00
690.13	15243.91
690.27	15143.27
690.41	15147.95
690.54	14984.11
690.68	15183.06
690.81	15047.30
690.95	14939.64
691.08	14677.50
691.22	14810.91
691.35	14724.31
691.49	14654.09
691.62	14764.10
691.76	14380.25
691.89	14389.61
692.03	14160.24
692.16	14160.24
692.30	14178.97
692.43	14153.22
692.57	14111.09
692.70	14139.18
692.84	13998.74
692.97	14099.39
693.11	13900.44
693.24	13951.93
693.38	13640.64
693.51	14054.92
693.65	13778.73
693.78	13809.16
693.92	13834.91
694.05	13729.58
694.19	13383.18
694.32	13336.37
694.45	13376.16
694.59	13071.89
694.72	13287.22
694.86	13076.57
694.99	13097.64
695.13	12858.90
695.26	13165.51
695.39	13004.02
695.53	13046.15
695.66	13036.78
695.80	12849.54
695.93	12830.82
696.07	12947.84
696.20	12868.27
696.33	12842.52
696.47	12695.07
696.60	12650.60
696.73	12475.06
696.87	12603.78
697.00	12697.41
697.14	12341.64
697.27	12493.78
697.40	12100.57
697.54	12418.88
697.67	12154.40
697.80	12329.94
697.94	12166.10
698.07	12025.67
698.21	12044.40
698.34	11978.86
698.47	11967.16
698.61	11695.66
698.74	12128.66
698.87	11955.46
699.01	11761.19
699.14	11868.86
699.27	11648.85
699.40	11517.78
699.54	11496.71
699.67	11599.70
699.80	11424.15
699.94	11281.38
700.07	11379.68
700.20	11162.01
700.34	11194.78
700.47	11250.96
700.60	10967.75
700.73	11234.57
700.87	11059.03
701.00	11007.54
701.13	10860.09
701.26	10906.90
701.40	11187.76
701.53	10927.96
701.66	11028.60
701.79	10696.25
701.93	10668.16
702.06	10766.46
702.19	10707.95
702.32	10801.57
702.46	10396.66
702.59	10380.28
702.72	10551.14
702.85	10356.87
702.99	10284.31
703.12	10424.75
703.25	10153.24
703.38	10298.36
703.51	10277.29
703.65	10270.27
703.78	10193.03
703.91	10068.98
704.04	9905.15
704.17	10019.83
704.31	9825.57
704.44	9769.40
704.57	9865.36
704.70	9895.78
704.83	9731.95
704.96	9619.60
705.10	9563.43
705.23	9415.98
>>>>>End Processed Spectral Data<<<<<
