SpectraSuite Data File
++++++++++++++++++++++++++++++++++++
Date: Fri Oct 18 13:58:13 GMT-05:00 2013
User: bianchi
Dark Spectrum Present: No
Reference Spectrum Present: No
Number of Sampled Component Spectra: 1
Spectrometers: USB2+H05261
Integration Time (usec): 50000 (USB2+H05261)
Spectra Averaged: 1 (USB2+H05261)
Boxcar Smoothing: 0 (USB2+H05261)
Correct for Electrical Dark: No (USB2+H05261)
Strobe/Lamp Enabled: No (USB2+H05261)
Correct for Detector Non-linearity: No (USB2+H05261)
Correct for Stray Light: No (USB2+H05261)
Number of Pixels in Processed Spectrum: 2048
>>>>>Begin Processed Spectral Data<<<<<
365.73	0.00
365.92	0.00
366.12	0.00
366.32	0.00
366.52	0.00
366.72	0.00
366.91	0.00
367.11	0.00
367.31	0.00
367.51	0.00
367.70	0.00
367.90	0.00
368.10	0.00
368.30	0.00
368.49	0.00
368.69	0.00
368.89	0.00
369.09	0.00
369.28	0.00
369.48	0.00
369.68	0.00
369.87	0.00
370.07	0.00
370.27	0.00
370.47	0.00
370.66	112.35
370.86	117.03
371.06	81.92
371.25	196.60
371.45	119.37
371.65	145.11
371.84	191.92
372.04	112.35
372.24	222.35
372.44	182.56
372.63	266.82
372.83	245.76
373.03	224.69
373.22	264.48
373.42	203.63
373.62	191.92
373.81	194.26
374.01	229.37
374.21	273.84
374.40	278.52
374.60	245.76
374.79	236.39
374.99	250.44
375.19	227.03
375.38	297.25
375.58	276.18
375.78	227.03
375.97	224.69
376.17	285.55
376.37	189.58
376.56	245.76
376.76	271.50
376.95	231.71
377.15	313.63
377.35	353.42
377.54	322.99
377.74	365.12
377.93	259.80
378.13	369.80
378.33	287.89
378.52	360.44
378.72	327.68
378.91	334.70
379.11	339.38
379.31	327.68
379.50	306.61
379.70	348.74
379.89	271.50
380.09	358.10
380.28	334.70
380.48	313.63
380.68	313.63
380.87	290.23
381.07	308.95
381.26	287.89
381.46	348.74
381.65	353.42
381.85	397.89
382.04	341.72
382.24	367.46
382.43	266.82
382.63	423.64
382.83	320.65
383.02	367.46
383.22	376.83
383.41	379.17
383.61	365.12
383.80	418.96
384.00	337.04
384.19	337.04
384.39	433.00
384.58	348.74
384.78	346.40
384.97	341.72
385.17	411.93
385.36	346.40
385.56	454.06
385.75	341.72
385.95	374.49
386.14	449.38
386.34	388.53
386.53	433.00
386.72	386.19
386.92	437.68
387.11	430.66
387.31	365.12
387.50	418.96
387.70	458.74
387.89	388.53
388.09	447.04
388.28	433.00
388.48	517.26
388.67	533.64
388.86	512.58
389.06	496.19
389.25	468.11
389.45	454.06
389.64	435.34
389.84	477.47
390.03	486.83
390.22	458.74
390.42	498.53
390.61	496.19
390.81	491.51
391.00	470.45
391.19	519.60
391.39	433.00
391.58	475.13
391.78	540.66
391.97	517.26
392.16	540.66
392.36	606.20
392.55	559.39
392.75	543.00
392.94	543.00
393.13	510.24
393.33	510.24
393.52	617.90
393.71	620.24
393.91	641.31
394.10	580.45
394.29	573.43
394.49	615.56
394.68	627.26
394.88	592.16
395.07	667.05
395.26	667.05
395.46	613.22
395.65	629.60
395.84	671.73
396.04	690.46
396.23	592.16
396.42	664.71
396.62	657.69
396.81	732.59
397.00	603.86
397.19	634.29
397.39	718.54
397.58	603.86
397.77	641.31
397.97	702.16
398.16	730.25
398.35	704.50
398.55	802.80
398.74	702.16
398.93	723.23
399.12	760.67
399.32	655.35
399.51	770.04
399.70	812.17
399.90	814.51
400.09	758.33
400.28	734.93
400.47	767.70
400.67	835.57
400.86	805.14
401.05	763.01
401.24	732.59
401.44	812.17
401.63	854.30
401.82	805.14
402.01	840.25
402.21	791.10
402.40	882.38
402.59	856.64
402.78	866.00
402.97	826.21
403.17	863.66
403.36	866.00
403.55	826.21
403.74	891.74
403.93	868.34
404.13	924.51
404.32	987.71
404.51	917.49
404.70	954.94
404.89	971.32
405.09	1055.58
405.28	880.04
405.47	1022.81
405.66	1043.88
405.85	1004.09
406.05	1022.81
406.24	1001.75
406.43	990.05
406.62	1039.20
406.81	1144.52
407.00	1057.92
407.20	985.37
407.39	1004.09
407.58	1034.52
407.77	1123.46
407.96	1132.82
408.15	1158.57
408.34	964.30
408.54	1095.37
408.73	1062.60
408.92	1160.91
409.11	1121.12
409.30	1273.25
409.49	1146.86
409.68	1177.29
409.87	1191.33
410.07	1240.48
410.26	1219.42
410.45	1184.31
410.64	1174.95
410.83	1226.44
411.02	1252.19
411.21	1296.66
411.40	1338.79
411.59	1263.89
411.78	1350.49
411.98	1294.32
412.17	1362.19
412.36	1317.72
412.55	1334.11
412.74	1352.83
412.93	1357.51
413.12	1401.98
413.31	1425.39
413.50	1434.75
413.69	1394.96
413.88	1610.29
414.07	1462.83
414.26	1521.35
414.45	1448.79
414.64	1542.41
414.83	1626.67
415.02	1544.75
415.22	1591.56
415.41	1584.54
415.60	1600.93
415.79	1678.16
415.98	1654.76
416.17	1643.06
416.36	1640.72
416.55	1633.69
416.74	1706.25
416.93	1593.90
417.12	1746.04
417.31	1720.29
417.50	1713.27
417.69	1788.17
417.88	1736.68
418.07	1715.61
418.26	1813.92
418.45	1806.89
418.64	1797.53
418.83	1797.53
419.02	1849.02
419.21	1909.88
419.39	1893.49
419.58	1806.89
419.77	1961.37
419.96	1849.02
420.15	1853.70
420.34	1912.22
420.53	1888.81
420.72	1947.33
420.91	2003.50
421.10	2008.18
421.29	2080.74
421.48	1900.52
421.67	2022.22
421.86	1846.68
422.05	1977.75
422.24	1989.46
422.43	2045.63
422.61	1926.26
422.80	2059.67
422.99	2080.74
423.18	2045.63
423.37	2059.67
423.56	2108.82
423.75	2052.65
423.94	2045.63
424.13	1947.33
424.32	1996.48
424.50	2094.78
424.69	2125.21
424.88	2160.31
425.07	2062.01
425.26	2113.50
425.45	1994.14
425.64	2026.90
425.83	2120.53
426.01	2167.34
426.20	1989.46
426.39	2202.44
426.58	2193.08
426.77	2111.16
426.96	2143.93
427.15	2115.84
427.33	2193.08
427.52	2024.56
427.71	2174.36
427.90	2090.10
428.09	2150.95
428.28	2310.11
428.46	2162.66
428.65	2256.28
428.84	2303.09
429.03	2368.62
429.22	2165.00
429.40	2256.28
429.59	2232.87
429.78	2143.93
429.97	2146.27
430.16	2239.89
430.34	2270.32
430.53	2443.52
430.72	2375.64
430.91	2368.62
431.10	2352.24
431.28	2366.28
431.47	2396.71
431.66	2495.01
431.85	2457.56
432.03	2436.50
432.22	2452.88
432.41	2457.56
432.60	2438.84
432.79	2485.65
432.97	2375.64
433.16	2497.35
433.35	2483.31
433.54	2562.89
433.72	2518.42
433.91	2462.24
434.10	2574.59
434.28	2485.65
434.47	2677.57
434.66	2539.48
434.85	2539.48
435.03	2724.38
435.22	2546.50
435.41	2684.59
435.59	2771.19
435.78	2614.38
435.97	2747.79
436.16	2754.81
436.34	2686.94
436.53	2672.89
436.72	2930.35
436.90	2771.19
437.09	2754.81
437.28	2640.12
437.46	2778.22
437.65	2920.99
437.84	2829.71
438.02	2773.53
438.21	2850.77
438.40	2808.64
438.58	2829.71
438.77	3012.27
438.96	2902.26
439.14	2876.52
439.33	2984.18
439.52	2986.52
439.70	2998.23
439.89	3021.63
440.08	3075.46
440.26	3171.43
440.45	3157.38
440.63	3183.13
440.82	3290.79
441.01	3077.80
441.19	3192.49
441.38	3105.89
441.57	3325.90
441.75	3323.56
441.94	3272.07
442.12	3279.09
442.31	3356.33
442.50	3251.00
442.68	3449.95
442.87	3405.48
443.05	3365.69
443.24	3386.76
443.43	3405.48
443.61	3466.33
443.80	3681.66
443.98	3307.18
444.17	3379.73
444.35	3449.95
444.54	3524.85
444.73	3445.27
444.91	3456.97
445.10	3379.73
445.28	3552.93
445.47	3536.55
445.65	3613.79
445.84	3510.80
446.02	3515.48
446.21	3496.76
446.39	3447.61
446.58	3557.61
446.77	3529.53
446.95	3454.63
447.14	3412.50
447.32	3651.24
447.51	3609.11
447.69	3583.36
447.88	3449.95
448.06	3681.66
448.25	3571.66
448.43	3517.83
448.62	3442.93
448.80	3531.87
448.99	3548.25
449.17	3604.42
449.36	3590.38
449.54	3658.26
449.73	3749.54
449.91	3850.18
450.10	3686.34
450.28	3911.04
450.46	3758.90
450.65	3864.22
450.83	3875.93
451.02	3777.62
451.20	3801.03
451.39	3850.18
451.57	3742.52
451.76	3723.79
451.94	3815.07
452.13	3887.63
452.31	4011.68
452.49	3779.97
452.68	4049.13
452.86	3922.74
453.05	3861.88
453.23	3990.61
453.42	4028.06
453.60	3880.61
453.78	4009.34
453.97	3887.63
454.15	4051.47
454.34	4002.32
454.52	4149.77
454.70	4112.32
454.89	4070.19
455.07	4133.39
455.26	4208.28
455.44	4170.83
455.62	4138.07
455.81	4222.33
455.99	4304.25
456.17	4196.58
456.36	4269.14
456.54	4332.33
456.73	4273.82
456.91	4482.13
457.09	4465.74
457.28	4461.06
457.46	4259.78
457.64	4318.29
457.83	4374.46
458.01	4510.21
458.19	4573.41
458.38	4428.29
458.56	4660.01
458.74	4538.30
458.93	4475.10
459.11	4526.60
459.29	4451.70
459.48	4542.98
459.66	4615.54
459.84	4720.86
460.03	4819.16
460.21	4585.11
460.39	4660.01
460.57	4608.51
460.76	4627.24
460.94	4678.73
461.12	4772.35
461.31	4772.35
461.49	4641.28
461.67	4681.07
461.85	4858.95
462.04	4727.88
462.22	5181.95
462.40	4952.57
462.59	4875.34
462.77	4940.87
462.95	4847.25
463.13	4830.87
463.32	4938.53
463.50	5104.71
463.68	5006.41
463.86	4985.34
464.05	4844.91
464.23	5060.24
464.41	5114.07
464.59	5013.43
464.78	5259.18
464.96	4959.60
465.14	4772.35
465.32	5069.60
465.50	5085.98
465.69	5043.85
465.87	5198.33
466.05	4950.23
466.23	5043.85
466.41	5221.74
466.60	5240.46
466.78	5193.65
466.96	5205.35
467.14	5270.89
467.32	5275.57
467.51	5238.12
467.69	5107.05
467.87	5174.92
468.05	5242.80
468.23	5184.29
468.41	5193.65
468.60	5338.76
468.78	5399.62
468.96	5125.77
469.14	5380.89
469.32	5371.53
469.50	5291.95
469.69	5554.09
469.87	5460.47
470.05	5509.62
470.23	5399.62
470.41	5621.97
470.59	5359.83
470.77	5652.39
470.95	5626.65
471.14	5549.41
471.32	5717.93
471.50	5778.78
471.68	5678.14
471.86	5832.62
472.04	5853.68
472.22	5912.19
472.40	5783.46
472.58	5905.17
472.77	6043.26
472.95	5975.39
473.13	5987.09
473.31	6073.69
473.49	6047.94
473.67	5944.96
473.85	6066.67
474.03	6167.31
474.21	6019.86
474.39	6267.95
474.57	6094.76
474.75	6190.72
474.93	6188.38
475.12	6197.74
475.30	6434.13
475.48	6274.98
475.66	6476.26
475.84	6480.94
476.02	6539.46
476.20	6668.19
476.38	6707.98
476.56	6633.08
476.74	6780.53
476.92	6668.19
477.10	6736.06
477.28	6710.32
477.46	6693.93
477.64	6719.68
477.82	6857.77
478.00	7337.58
478.18	7265.02
478.36	7103.53
478.54	7028.63
478.72	7190.13
478.90	7375.03
479.08	7421.84
479.26	7368.01
479.44	7468.65
479.62	7585.68
479.80	7527.16
479.98	7527.16
480.16	7667.60
480.34	7655.89
480.52	7775.26
480.70	7644.19
480.88	7833.77
481.06	7920.37
481.24	7747.17
481.41	8049.10
481.59	8018.68
481.77	8205.92
481.95	8318.26
482.13	8351.03
482.31	8248.05
482.49	8596.79
482.67	8449.33
482.85	8674.03
483.03	8669.34
483.21	8835.52
483.39	8903.40
483.57	8856.59
483.74	8795.73
483.92	8901.06
484.10	8711.47
484.28	9207.67
484.46	9210.01
484.64	9530.66
484.82	9214.69
485.00	9247.46
485.18	9373.85
485.35	9628.96
485.53	9839.61
485.71	9612.58
485.89	9839.61
486.07	9771.74
486.25	9947.28
486.43	9905.15
486.61	9914.51
486.78	9966.00
486.96	10122.82
487.14	10347.51
487.32	10129.84
487.50	10403.68
487.68	10296.02
487.85	10530.07
488.03	10609.65
488.21	10972.43
488.39	11005.20
488.57	10979.45
488.75	10846.04
488.92	11145.63
489.10	11150.31
489.28	10944.34
489.46	11279.04
489.64	11442.88
489.81	11566.93
489.99	11709.70
490.17	11468.62
490.35	11742.47
490.53	11719.06
490.70	11913.33
490.88	11840.77
491.06	11918.01
491.24	11969.50
491.41	11957.80
491.59	12346.33
491.77	12383.77
491.95	12395.48
492.13	12339.30
492.30	12716.13
492.48	12449.31
492.66	12503.14
492.84	12734.85
493.01	12716.13
493.19	12718.47
493.37	12926.78
493.54	13102.32
493.72	13118.70
493.90	13172.54
494.08	13259.13
494.25	13664.05
494.43	13408.93
494.61	13689.79
494.79	13750.65
494.96	13682.77
495.14	13893.42
495.32	13846.61
495.49	13933.21
495.67	14083.00
495.85	14094.71
496.02	14003.43
496.20	14097.05
496.38	14295.99
496.55	14342.80
496.73	14483.24
496.91	14129.81
497.09	14579.20
497.26	14939.64
497.44	14754.74
497.62	14525.36
497.79	14827.29
497.97	14705.59
498.14	15147.95
498.32	15063.69
498.50	15194.76
498.67	15215.82
498.85	15274.34
499.03	15213.48
499.20	15536.48
499.38	15648.82
499.56	15552.86
499.73	15672.23
499.91	15751.81
500.08	15990.54
500.26	15793.94
500.44	15810.32
500.61	15892.24
500.79	15875.85
500.97	16107.57
501.14	16294.81
501.32	16383.75
501.49	16077.14
501.67	16498.44
501.84	16376.73
502.02	16276.09
502.20	16456.31
502.37	16556.95
502.55	16542.91
502.72	16535.88
502.90	16753.55
503.07	16676.32
503.25	16585.04
503.43	16744.19
503.60	16950.16
503.78	17158.47
503.95	16954.84
504.13	17153.79
504.30	16975.91
504.48	17184.21
504.65	17193.58
504.83	17294.22
505.01	17572.74
505.18	17209.96
505.36	17647.64
505.53	17600.83
505.71	17539.97
505.88	17298.90
506.06	17605.51
506.23	17963.61
506.41	17490.82
506.58	17722.54
506.76	17848.93
506.93	17764.67
507.11	17825.52
507.28	18059.57
507.46	18068.94
507.63	18197.67
507.81	18324.05
507.98	18050.21
508.16	18370.86
508.33	18047.87
508.50	18424.70
508.68	18270.22
508.85	18508.96
509.03	18478.53
509.20	18637.69
509.38	18750.03
509.55	18911.53
509.73	18771.10
509.90	18717.26
510.08	19033.24
510.25	19150.26
510.42	18937.27
510.60	19180.69
510.77	19353.89
510.95	19108.13
511.12	18984.09
511.30	19021.53
511.47	19384.32
511.64	19241.54
511.82	19541.13
511.99	19278.99
512.17	19339.85
512.34	19672.20
512.51	19885.19
512.69	19501.34
512.86	19784.55
513.04	19723.69
513.21	19946.05
513.38	20142.65
513.56	20112.22
513.73	19962.43
513.90	20093.50
514.08	19496.66
514.25	19978.81
514.43	20196.48
514.60	20566.29
514.77	20477.35
514.95	20489.05
515.12	20336.91
515.29	20493.73
515.47	20498.41
515.64	20379.04
515.81	20388.41
515.99	20690.34
516.16	20879.92
516.33	21025.03
516.51	20833.11
516.68	20819.07
516.85	20959.50
517.03	20816.72
517.20	20996.95
517.37	20842.47
517.54	21020.35
517.72	20954.82
517.89	21099.93
518.06	21174.83
518.24	21551.65
518.41	21064.82
518.58	21036.74
518.75	21242.70
518.93	21495.48
519.10	21303.56
519.27	21481.44
519.45	21481.44
519.62	21324.62
519.79	21727.19
519.96	21832.52
520.14	21788.05
520.31	21645.27
520.48	22190.62
520.65	21860.60
520.83	21928.48
521.00	21942.52
521.17	22047.85
521.34	22005.72
521.52	22375.52
521.69	21654.64
521.86	22419.99
522.03	22427.01
522.20	22436.38
522.38	22295.94
522.55	22672.77
522.72	22057.21
522.89	22394.25
523.07	22616.60
523.24	22831.93
523.41	22824.90
523.58	22370.84
523.75	23049.60
523.92	22548.72
524.10	22616.60
524.27	22860.01
524.44	22867.03
524.61	22827.24
524.78	23070.66
524.96	22895.12
525.13	22864.69
525.30	22932.57
525.47	23077.68
525.64	23239.18
525.81	23140.88
525.98	23475.57
526.16	23194.71
526.33	23515.36
526.50	23707.29
526.67	23388.97
526.84	23466.21
527.01	23309.40
527.18	23639.41
527.36	23384.29
527.53	23761.12
527.70	24077.09
527.87	24105.18
528.04	23601.96
528.21	23697.92
528.38	23660.48
528.55	24269.01
528.72	23971.77
528.89	24257.31
529.07	24121.56
529.24	23805.59
529.41	24259.65
529.58	24058.37
529.75	23931.98
529.92	24166.03
530.09	24341.57
530.26	24479.66
530.43	24360.30
530.60	24236.25
530.77	24304.12
530.94	24339.23
531.11	24215.18
531.28	24287.74
531.46	24297.10
531.63	24409.45
531.80	24503.07
531.97	24627.12
532.14	24580.31
532.31	24692.65
532.48	24734.78
532.65	24769.89
532.82	24858.83
532.99	24479.66
533.16	24709.04
533.33	25247.36
533.50	25280.13
533.67	25284.81
533.84	25088.20
534.01	24978.20
534.18	24971.18
534.35	25106.93
534.52	24823.72
534.69	25401.83
534.86	25413.54
535.03	24821.38
535.20	25308.21
535.37	25380.77
535.54	25467.37
535.71	25017.99
535.88	25488.43
536.05	25371.41
536.22	25797.38
536.38	25678.02
536.55	25748.23
536.72	25586.74
536.89	25834.83
537.06	25462.69
537.23	25748.23
537.40	25869.94
537.57	25706.10
537.74	25596.10
537.91	25968.24
538.08	25844.20
538.25	25701.42
538.42	26293.58
538.59	26178.89
538.75	25792.70
538.92	25834.83
539.09	25986.97
539.26	26295.92
539.43	26036.12
539.60	26225.70
539.77	26181.23
539.94	26211.66
540.11	25986.97
540.28	26384.86
540.44	26239.75
540.61	26040.80
540.78	26391.88
540.95	26476.14
541.12	26307.62
541.29	26597.85
541.46	26572.10
541.62	26274.85
541.79	26604.87
541.96	26569.76
542.13	26256.13
542.30	26843.60
542.47	26874.03
542.63	26820.20
542.80	26916.16
542.97	27330.44
543.14	26726.58
543.31	26845.94
543.48	26916.16
543.64	27201.71
543.81	27417.04
543.98	27353.84
544.15	27021.48
544.32	27360.86
544.48	27480.23
544.65	27292.99
544.82	27300.01
544.99	26920.84
545.16	27344.48
545.32	27513.00
545.49	27557.47
545.66	27569.17
545.83	27222.77
546.00	27828.97
546.16	27615.98
546.33	27255.54
546.50	26977.01
546.67	27374.91
546.83	27417.04
547.00	27615.98
547.17	27676.83
547.34	27395.97
547.50	28027.92
547.67	27880.46
547.84	27803.22
548.00	28093.45
548.17	27920.25
548.34	27538.74
548.51	28025.57
548.67	28098.13
548.84	28098.13
549.01	27957.70
549.18	27758.75
549.34	28318.14
549.51	28250.27
549.68	28063.02
549.84	28315.80
550.01	28025.57
550.18	27772.80
550.34	28041.96
550.51	28451.55
550.68	28231.54
550.84	27997.49
551.01	28056.00
551.18	27831.31
551.34	27819.61
551.51	28437.51
551.68	28271.33
551.84	28247.93
552.01	28613.05
552.18	28563.90
552.34	28531.13
552.51	28788.59
552.68	28381.34
552.84	28362.61
553.01	28856.46
553.18	28224.52
553.34	28802.63
553.51	28664.54
553.67	28678.58
553.84	29177.12
554.01	28673.90
554.17	28685.61
554.34	28954.77
554.51	28947.75
554.67	28533.47
554.84	28732.42
555.00	28732.42
555.17	29003.92
555.33	28811.99
555.50	28643.48
555.67	28910.30
555.83	28943.06
556.00	28793.27
556.16	29369.04
556.33	29137.33
556.50	29247.33
556.66	29420.53
556.83	29453.30
556.99	29413.51
557.16	29427.56
557.32	29282.44
557.49	29560.97
557.65	29022.64
557.82	29413.51
557.98	29205.20
558.15	29111.58
558.32	29390.11
558.48	29493.09
558.65	29610.12
558.81	29752.89
558.98	29535.22
559.14	29350.32
559.31	29165.42
559.47	29221.59
559.64	29455.64
559.80	29373.72
559.97	29565.65
560.13	29446.28
560.30	29362.02
560.46	29607.78
560.63	29776.30
560.79	29624.16
560.96	29607.78
561.12	29385.43
561.29	29619.48
561.45	29486.07
561.61	29752.89
561.78	29727.14
561.94	29879.28
562.11	29827.79
562.27	29598.41
562.44	29441.60
562.60	29530.54
562.77	29645.23
562.93	29586.71
563.10	29902.68
563.26	29872.26
563.42	29848.85
563.59	30059.50
563.75	29788.00
563.92	30045.46
564.08	29713.10
564.24	30008.01
564.41	29865.24
564.57	29390.11
564.74	29727.14
564.90	29724.80
565.07	29977.58
565.23	29523.52
565.39	30005.67
565.56	30213.98
565.72	29785.66
565.88	29717.78
566.05	29869.92
566.21	29727.14
566.38	29949.50
566.54	30157.80
566.70	30157.80
566.87	30415.26
567.03	30015.03
567.19	30342.70
567.36	30221.00
567.52	30185.89
567.68	29890.98
567.85	29820.77
568.01	30164.82
568.17	30398.88
568.34	30270.15
568.50	30085.25
568.66	30202.27
568.83	30286.53
568.99	30426.96
569.15	30209.29
569.32	30237.38
569.48	29961.20
569.64	30125.04
569.81	30246.74
569.97	30281.85
570.13	31058.91
570.30	30160.14
570.46	30279.51
570.62	30508.88
570.78	30312.28
570.95	30008.01
571.11	30721.87
571.27	30359.09
571.43	29965.88
571.60	30494.84
571.76	30108.65
571.92	30586.12
572.09	30878.69
572.25	30656.34
572.41	30274.83
572.57	30675.06
572.74	30040.78
572.90	30426.96
573.06	30174.19
573.22	30293.55
573.38	30188.23
573.55	30602.50
573.71	30817.83
573.87	30752.30
574.03	30515.90
574.20	30366.11
574.36	30429.30
574.52	30331.00
574.68	30340.36
574.84	30256.11
575.01	30740.60
575.17	30340.36
575.33	30684.42
575.49	30015.03
575.65	31000.40
575.82	30707.83
575.98	30340.36
576.14	30864.64
576.30	30759.32
576.46	30504.20
576.62	30419.94
576.79	30824.86
576.95	30515.90
577.11	31103.38
577.27	30565.06
577.43	30522.93
577.59	30504.20
577.75	30604.84
577.92	30485.48
578.08	30628.25
578.24	30492.50
578.40	30625.91
578.56	30572.08
578.72	30515.90
578.88	30796.77
579.04	30745.28
579.21	30572.08
579.37	30803.79
579.53	30717.19
579.69	30370.79
579.85	30717.19
580.01	30710.17
580.17	30387.18
580.33	30588.46
580.49	30857.62
580.65	30593.14
580.82	30752.30
580.98	30733.57
581.14	30565.06
581.30	30450.37
581.46	30668.04
581.62	30590.80
581.78	30504.20
581.94	30651.66
582.10	30480.80
582.26	30693.79
582.42	30679.74
582.58	31222.75
582.74	30724.21
582.90	31019.12
583.06	31110.40
583.22	30969.97
583.38	30391.86
583.54	30810.81
583.70	30656.34
583.86	30581.44
584.02	30525.27
584.18	30586.12
584.34	30991.03
584.50	30927.84
584.66	30558.03
584.82	30735.92
584.98	31012.10
585.14	30941.88
585.30	30623.57
585.46	30927.84
585.62	30684.42
585.78	30808.47
585.94	30555.69
586.10	30735.92
586.26	30665.70
586.42	31044.87
586.58	31232.11
586.74	31021.46
586.90	30855.28
587.06	30583.78
587.22	30817.83
587.38	30913.80
587.54	30967.63
587.70	31407.65
587.86	30841.24
588.02	30976.99
588.18	31215.72
588.34	31555.10
588.49	30960.61
588.65	30923.16
588.81	30604.84
588.97	30604.84
589.13	31021.46
589.29	30857.62
589.45	30969.97
589.61	31051.89
589.77	31447.44
589.93	31171.25
590.08	31189.98
590.24	31211.04
590.40	31321.05
590.56	31021.46
590.72	30766.34
590.88	30869.33
591.04	30740.60
591.20	31379.56
591.35	31307.01
591.51	31852.35
591.67	31094.02
591.83	31206.36
591.99	30906.77
592.15	31136.15
592.31	31206.36
592.46	30909.11
592.62	31005.08
592.78	31208.70
592.94	31021.46
593.10	31136.15
593.26	31351.48
593.41	31456.80
593.57	31206.36
593.73	31278.92
593.89	31433.39
594.05	31215.72
594.20	31285.94
594.36	30888.05
594.52	31112.74
594.68	31468.50
594.84	30932.52
594.99	31206.36
595.15	31349.14
595.31	31756.39
595.47	31072.95
595.62	31475.52
595.78	31110.40
595.94	31573.83
596.10	31234.45
596.25	31065.93
596.41	31274.24
596.57	31180.62
596.73	31428.71
596.88	30958.27
597.04	31431.05
597.20	31646.38
597.36	31632.34
597.51	31349.14
597.67	31143.17
597.83	31442.76
597.99	31283.60
598.14	31358.50
598.30	31335.09
598.46	31374.88
598.61	31796.18
598.77	31374.88
598.93	31826.60
599.09	31365.52
599.24	31777.45
599.40	31433.39
599.56	31564.46
599.71	31349.14
599.87	31442.76
600.03	31246.15
600.18	31260.20
600.34	31236.79
600.50	31325.73
600.65	31541.06
600.81	31646.38
600.97	31309.35
601.12	31641.70
601.28	31892.14
601.44	31440.42
601.59	31573.83
601.75	31349.14
601.91	31290.62
602.06	31618.30
602.22	31480.21
602.37	31192.32
602.53	31232.11
602.69	31700.22
602.84	31480.21
603.00	31793.84
603.16	31625.32
603.31	31321.05
603.47	31292.96
603.62	31276.58
603.78	31456.80
603.94	31189.98
604.09	31260.20
604.25	31463.82
604.40	31655.75
604.56	31377.22
604.71	31814.90
604.87	31367.86
605.03	31571.49
605.18	31512.97
605.34	31452.12
605.49	31002.74
605.65	31477.86
605.80	31096.36
605.96	31339.77
606.12	31290.62
606.27	31199.34
606.43	31089.34
606.58	31613.62
606.74	31281.26
606.89	31225.09
607.05	31344.45
607.20	31613.62
607.36	31487.23
607.51	31679.15
607.67	30962.95
607.82	31023.80
607.98	30869.33
608.13	31426.37
608.29	31580.85
608.44	31236.79
608.60	31433.39
608.75	31335.09
608.91	31578.51
609.06	31407.65
609.22	31489.57
609.37	31051.89
609.53	30962.95
609.68	31318.71
609.84	30871.67
609.99	31171.25
610.15	31119.76
610.30	31063.59
610.46	31047.21
610.61	31026.14
610.76	31290.62
610.92	31140.83
611.07	31428.71
611.23	31131.47
611.38	31061.25
611.54	30976.99
611.69	31180.62
611.84	30852.94
612.00	30862.30
612.15	30984.01
612.31	31283.60
612.46	31201.68
612.62	31400.63
612.77	31047.21
612.92	31147.85
613.08	31400.63
613.23	30944.22
613.39	31108.06
613.54	30855.28
613.69	30962.95
613.85	30820.17
614.00	30845.92
614.15	30349.73
614.31	31082.31
614.46	30621.23
614.62	31007.42
614.77	30822.51
614.92	30735.92
615.08	30850.60
615.23	31058.91
615.38	31047.21
615.54	30384.83
615.69	30438.67
615.84	30300.58
616.00	30850.60
616.15	30548.67
616.30	30897.41
616.46	30759.32
616.61	30735.92
616.76	30679.74
616.92	30768.68
617.07	30710.17
617.22	30663.36
617.37	30490.16
617.53	30485.48
617.68	30476.12
617.83	30216.32
617.99	30581.44
618.14	30492.50
618.29	30742.94
618.45	30558.03
618.60	30471.43
618.75	30429.30
618.90	30267.81
619.06	30424.62
619.21	30548.67
619.36	30335.68
619.51	30368.45
619.67	30242.06
619.82	30373.13
619.97	30658.68
620.12	30314.62
620.28	30199.93
620.43	29907.37
620.58	30251.42
620.73	30429.30
620.89	30644.63
621.04	30824.86
621.19	30204.61
621.34	30178.87
621.49	29837.15
621.65	30323.98
621.80	30143.76
621.95	29895.66
622.10	30305.26
622.25	30338.02
622.41	30012.69
622.56	29785.66
622.71	30221.00
622.86	30567.40
623.01	30171.85
623.16	30213.98
623.32	29874.60
623.47	30110.99
623.62	30012.69
623.77	29928.43
623.92	30122.69
624.07	30068.86
624.23	29811.40
624.38	29984.60
624.53	30188.23
624.68	29970.56
624.83	30024.39
624.98	29965.88
625.13	30031.41
625.29	29797.36
625.44	30043.12
625.59	29689.70
625.74	29511.81
625.89	29792.68
626.04	29277.76
626.19	29460.32
626.34	29427.56
626.49	29184.14
626.65	29675.65
626.80	29675.65
626.95	29511.81
627.10	29244.99
627.25	29474.37
627.40	29436.92
627.55	29256.70
627.70	29291.80
627.85	29282.44
628.00	29223.93
628.15	29104.56
628.30	29310.53
628.45	29305.85
628.60	29411.17
628.76	29301.17
628.91	29244.99
629.06	29383.09
629.21	29312.87
629.36	29188.82
629.51	29156.05
629.66	29097.54
629.81	29069.45
629.96	29088.18
630.11	29109.24
630.26	28926.68
630.41	28985.19
630.56	28886.89
630.71	29165.42
630.86	29345.64
631.01	28999.24
631.16	29228.61
631.31	29170.10
631.46	28795.61
631.61	29032.00
631.76	28989.88
631.91	28929.02
632.06	28716.03
632.21	28657.52
632.36	28933.70
632.51	28559.22
632.66	29242.65
632.81	28816.68
632.96	29104.56
633.10	29144.35
633.25	29015.62
633.40	28781.57
633.55	28786.25
633.70	28250.27
633.85	28861.15
634.00	28669.22
634.15	28849.44
634.30	28517.09
634.45	28493.68
634.60	28690.29
634.75	28325.16
634.90	28599.01
635.05	28479.64
635.19	28535.81
635.34	29006.26
635.49	28755.82
635.64	28734.76
635.79	28772.21
635.94	28388.36
636.09	28360.27
636.24	28348.57
636.39	28594.32
636.53	28070.04
636.68	28245.58
636.83	28481.98
636.98	28133.24
637.13	28301.76
637.28	28442.19
637.43	28203.46
637.57	28243.24
637.72	28158.99
637.87	28252.61
638.02	28428.15
638.17	28095.79
638.32	27990.47
638.46	28053.66
638.61	28041.96
638.76	27894.50
638.91	27983.44
639.06	27552.79
639.20	28325.16
639.35	27709.60
639.50	28034.94
639.65	28397.72
639.80	28290.06
639.94	28205.80
640.09	28086.43
640.24	27868.76
640.39	27950.68
640.54	27672.15
640.68	27749.39
640.83	27807.90
640.98	27395.97
641.13	27704.92
641.27	28187.07
641.42	27941.32
641.57	27754.07
641.72	27618.32
641.86	27749.39
642.01	27969.40
642.16	27716.62
642.31	27534.06
642.45	27859.40
642.60	27438.10
642.75	27594.92
642.90	27555.13
643.04	27718.96
643.19	27297.67
643.34	27634.71
643.48	27725.99
643.63	27590.24
643.78	27520.02
643.93	27440.44
644.07	27941.32
644.22	27566.83
644.37	27672.15
644.51	27527.04
644.66	27789.18
644.81	27419.38
644.95	27182.98
645.10	27257.88
645.25	27405.33
645.39	27037.87
645.54	27508.32
645.69	27494.27
645.83	27257.88
645.98	27599.60
646.13	27667.47
646.27	27192.34
646.42	27115.11
646.57	27166.60
646.71	27309.37
646.86	27438.10
647.00	27264.90
647.15	27028.51
647.30	26955.95
647.44	27080.00
647.59	27318.73
647.74	27117.45
647.88	27009.78
648.03	26960.63
648.17	27281.28
648.32	27281.28
648.47	26859.99
648.61	27110.43
648.76	27475.55
648.90	27218.09
649.05	27089.36
649.20	26595.51
649.34	26675.09
649.49	27009.78
649.63	26682.11
649.78	26827.22
649.92	26284.22
650.07	26916.16
650.21	26574.44
650.36	26565.08
650.51	26738.28
650.65	26881.05
650.80	27136.17
650.94	26740.62
651.09	26515.93
651.23	26761.69
651.38	27005.10
651.52	26712.53
651.67	26422.31
651.81	26469.12
651.96	26391.88
652.10	26637.64
652.25	26637.64
652.39	26728.92
652.54	26623.59
652.68	26689.13
652.83	26625.93
652.97	26658.70
653.12	26724.24
653.26	26621.25
653.41	26675.09
653.55	26162.51
653.70	26122.72
653.84	26359.11
653.99	26324.01
654.13	26293.58
654.27	26298.26
654.42	26501.89
654.56	26342.73
654.71	26607.21
654.85	26483.16
655.00	25968.24
655.14	26647.00
655.29	26024.42
655.43	26286.56
655.57	26302.94
655.72	26167.19
655.86	26176.55
656.01	26298.26
656.15	26080.59
656.30	26324.01
656.44	26216.34
656.58	25876.96
656.73	26162.51
656.87	26132.08
657.01	26031.44
657.16	26490.18
657.30	26085.27
657.45	25799.73
657.59	26244.43
657.73	25724.83
657.88	25858.24
658.02	25902.71
658.16	25645.25
658.31	25663.97
658.45	25661.63
658.60	25514.18
658.74	25797.38
658.88	25797.38
659.03	25596.10
659.17	25750.57
659.31	25586.74
659.46	25717.81
659.60	25689.72
659.74	25799.73
659.89	25614.82
660.03	25661.63
660.17	25628.87
660.32	25544.61
660.46	25535.24
660.60	25289.49
660.74	24929.05
660.89	25165.44
661.03	25146.72
661.17	25193.53
661.32	25345.66
661.46	25247.36
661.60	24830.74
661.74	25317.57
661.89	25551.63
662.03	25123.31
662.17	25340.98
662.31	24996.92
662.46	25202.89
662.60	25104.59
662.74	24854.15
662.88	25219.27
663.03	24570.94
663.17	24680.95
663.31	24540.52
663.45	24456.26
663.60	24664.57
663.74	24542.86
663.88	24786.27
664.02	24540.52
664.17	24678.61
664.31	24437.53
664.45	24568.60
664.59	24594.35
664.73	24697.33
664.88	24423.49
665.02	24294.76
665.16	24320.51
665.30	24907.98
665.44	24400.08
665.59	24156.67
665.73	24189.44
665.87	23826.65
666.01	24521.79
666.15	24121.56
666.29	23922.62
666.44	24315.83
666.58	23992.83
666.72	23761.12
666.86	23967.09
667.00	24212.84
667.14	23814.95
667.28	24004.53
667.43	24081.77
667.57	23908.57
667.71	23693.24
667.85	24058.37
667.99	23653.45
668.13	23440.47
668.27	23536.43
668.41	23840.70
668.56	23651.11
668.70	23367.91
668.84	23896.87
668.98	23590.26
669.12	23527.06
669.26	23431.10
669.40	23194.71
669.54	23637.07
669.68	23564.51
669.82	23271.95
669.96	22953.63
670.10	23117.47
670.25	23005.13
670.39	22939.59
670.53	22986.40
670.67	23054.28
670.81	23171.30
670.95	22679.79
671.09	23047.26
671.23	23019.17
671.37	23005.13
671.51	23051.94
671.65	22750.01
671.79	22955.97
671.93	22789.80
672.07	22759.37
672.21	22665.75
672.35	22445.74
672.49	22183.60
672.63	22347.44
672.77	22389.56
672.91	22513.61
673.05	22024.44
673.19	22410.63
673.33	22288.92
673.47	22302.96
673.61	22419.99
673.75	22059.55
673.89	22579.15
674.03	22338.07
674.17	22094.66
674.31	22251.47
674.45	22150.83
674.59	22045.51
674.73	21832.52
674.87	21549.31
675.01	21727.19
675.15	22080.61
675.29	21598.46
675.43	21603.14
675.56	21504.84
675.70	21762.30
675.84	21649.96
675.98	21219.30
676.12	21628.89
676.26	21685.06
676.40	21364.41
676.54	21542.29
676.68	21289.51
676.82	21036.74
676.96	21046.10
677.10	21383.13
677.23	20893.96
677.37	20943.11
677.51	20933.75
677.65	20912.69
677.79	20833.11
677.93	20645.87
678.07	20507.77
678.21	20587.35
678.34	20587.35
678.48	20435.22
678.62	20229.25
678.76	20526.50
678.90	20308.83
679.04	20489.05
679.18	20463.30
679.31	20037.33
679.45	19487.30
679.59	20077.12
679.73	19857.10
679.87	19723.69
680.00	19721.35
680.14	19784.55
680.28	19740.08
680.42	19606.67
680.56	19618.37
680.70	19623.05
680.83	19618.37
680.97	19623.05
681.11	19489.64
681.25	19124.52
681.39	19222.82
681.52	19208.78
681.66	19070.68
681.80	18913.87
681.94	19145.58
682.07	19044.94
682.21	18850.67
682.35	18899.83
682.49	18647.05
682.62	18586.19
682.76	18761.73
682.90	18537.04
683.04	18665.77
683.17	18555.77
683.31	18590.88
683.45	18302.99
683.59	18422.36
683.72	18445.76
683.86	18396.61
684.00	18160.22
684.13	18155.54
684.27	18080.64
684.41	17975.31
684.55	18188.30
684.68	17869.99
684.82	17809.14
684.96	17944.89
685.09	17378.48
685.23	17722.54
685.37	17483.80
685.50	17535.29
685.64	17879.35
685.78	17532.95
685.91	17418.27
686.05	17675.73
686.19	17610.19
686.32	17703.81
686.46	17067.19
686.60	16884.62
686.73	17153.79
686.87	17121.02
687.01	17043.78
687.14	17053.14
687.28	16664.61
687.42	16788.66
687.55	16486.73
687.69	16844.84
687.82	16849.52
687.96	16688.02
688.10	16538.23
688.23	16533.54
688.37	16388.43
688.50	16669.30
688.64	16325.24
688.78	16163.74
688.91	16023.31
689.05	16072.46
689.18	16418.86
689.32	15894.58
689.46	15997.56
689.59	15857.13
689.73	15903.94
689.86	15943.73
690.00	15777.55
690.13	15770.53
690.27	15639.46
690.41	15578.61
690.54	15510.73
690.68	15494.35
690.81	15578.61
690.95	15618.39
691.08	15726.06
691.22	15557.54
691.35	15641.80
691.49	15440.51
691.62	15382.00
691.76	15089.43
691.89	15077.73
692.03	14869.42
692.16	15016.88
692.30	14799.21
692.43	14785.16
692.57	14628.35
692.70	14558.13
692.84	14796.87
692.97	14616.65
693.11	14462.17
693.24	14670.48
693.38	14778.14
693.51	14361.53
693.65	14403.66
693.78	14310.04
693.92	14300.67
694.05	14235.14
694.19	14017.47
694.32	14015.13
694.45	13792.78
694.59	13898.10
694.72	13774.05
694.86	13764.69
694.99	13741.29
695.13	13675.75
695.26	13652.34
695.39	13338.71
695.53	13862.99
695.66	13434.68
695.80	13383.18
695.93	13397.23
696.07	13544.68
696.20	13523.62
696.33	13437.02
696.47	13439.36
696.60	13191.26
696.73	13048.49
696.87	13362.12
697.00	13167.85
697.14	12856.56
697.27	12699.75
697.40	12886.99
697.54	12903.37
697.67	12767.62
697.80	12535.91
697.94	12566.34
698.07	12587.40
698.21	12477.40
698.34	12514.84
698.47	12564.00
698.61	12592.08
698.74	12629.53
698.87	12203.55
699.01	12112.27
699.14	12294.83
699.27	12142.70
699.40	12011.63
699.54	11983.54
699.67	12449.31
699.80	11880.56
699.94	11651.19
700.07	11859.49
700.20	11758.85
700.34	11695.66
700.47	11683.95
700.60	11400.75
700.73	11744.81
700.87	11866.52
701.00	11541.18
701.13	11726.08
701.26	11520.12
701.40	11356.28
701.53	11447.56
701.66	11445.22
701.79	11297.77
701.93	11197.12
702.06	10993.50
702.19	11035.63
702.32	10944.34
702.46	10923.28
702.59	10918.60
702.72	10977.11
702.85	11021.58
702.99	10792.21
703.12	10745.40
703.25	10595.61
703.38	10693.91
703.51	10562.84
703.65	10729.02
703.78	10649.44
703.91	10593.26
704.04	10359.21
704.17	10604.97
704.31	10499.64
704.44	10359.21
704.57	10317.08
704.70	10155.58
704.83	10052.60
704.96	10127.50
705.10	10010.47
705.23	9874.72
>>>>>End Processed Spectral Data<<<<<
