SpectraSuite Data File
++++++++++++++++++++++++++++++++++++
Date: Fri Oct 18 13:58:24 GMT-05:00 2013
User: bianchi
Dark Spectrum Present: No
Reference Spectrum Present: No
Number of Sampled Component Spectra: 1
Spectrometers: USB2+H05261
Integration Time (usec): 50000 (USB2+H05261)
Spectra Averaged: 1 (USB2+H05261)
Boxcar Smoothing: 0 (USB2+H05261)
Correct for Electrical Dark: No (USB2+H05261)
Strobe/Lamp Enabled: No (USB2+H05261)
Correct for Detector Non-linearity: No (USB2+H05261)
Correct for Stray Light: No (USB2+H05261)
Number of Pixels in Processed Spectrum: 2048
>>>>>Begin Processed Spectral Data<<<<<
365.73	0.00
365.92	0.00
366.12	0.00
366.32	0.00
366.52	0.00
366.72	0.00
366.91	0.00
367.11	0.00
367.31	0.00
367.51	0.00
367.70	0.00
367.90	0.00
368.10	0.00
368.30	0.00
368.49	0.00
368.69	0.00
368.89	0.00
369.09	0.00
369.28	0.00
369.48	0.00
369.68	0.00
369.87	0.00
370.07	0.00
370.27	0.00
370.47	0.00
370.66	119.37
370.86	91.28
371.06	142.77
371.25	154.48
371.45	107.66
371.65	117.03
371.84	161.50
372.04	79.58
372.24	170.86
372.44	212.99
372.63	201.29
372.83	229.37
373.03	208.31
373.22	196.60
373.42	187.24
373.62	231.71
373.81	227.03
374.01	177.88
374.21	243.42
374.40	241.08
374.60	222.35
374.79	212.99
374.99	222.35
375.19	189.58
375.38	236.39
375.58	297.25
375.78	227.03
375.97	344.06
376.17	273.84
376.37	227.03
376.56	212.99
376.76	313.63
376.95	252.78
377.15	346.40
377.35	264.48
377.54	255.12
377.74	301.93
377.93	257.46
378.13	308.95
378.33	264.48
378.52	257.46
378.72	285.55
378.91	341.72
379.11	262.14
379.31	294.91
379.50	313.63
379.70	337.04
379.89	348.74
380.09	271.50
380.28	341.72
380.48	259.80
380.68	222.35
380.87	257.46
381.07	308.95
381.26	313.63
381.46	327.68
381.65	299.59
381.85	294.91
382.04	341.72
382.24	325.33
382.43	353.42
382.63	409.59
382.83	278.52
383.02	393.21
383.22	334.70
383.41	383.85
383.61	325.33
383.80	402.57
384.00	283.20
384.19	341.72
384.39	395.55
384.58	339.38
384.78	376.83
384.97	358.10
385.17	360.44
385.36	339.38
385.56	404.91
385.75	393.21
385.95	390.87
386.14	470.45
386.34	325.33
386.53	407.25
386.72	416.62
386.92	444.70
387.11	348.74
387.31	470.45
387.50	292.57
387.70	374.49
387.89	386.19
388.09	414.27
388.28	430.66
388.48	388.53
388.67	496.19
388.86	449.38
389.06	418.96
389.25	374.49
389.45	395.55
389.64	505.56
389.84	437.68
390.03	484.49
390.22	493.85
390.42	503.22
390.61	528.96
390.81	533.64
391.00	545.34
391.19	538.32
391.39	491.51
391.58	458.74
391.78	472.79
391.97	547.69
392.16	526.62
392.36	526.62
392.55	589.82
392.75	505.56
392.94	535.98
393.13	489.17
393.33	510.24
393.52	550.03
393.71	538.32
393.91	533.64
394.10	559.39
394.29	503.22
394.49	606.20
394.68	599.18
394.88	512.58
395.07	641.31
395.26	599.18
395.46	620.24
395.65	594.50
395.84	648.33
396.04	613.22
396.23	500.87
396.42	573.43
396.62	662.37
396.81	643.65
397.00	664.71
397.19	531.30
397.39	638.97
397.58	692.80
397.77	624.92
397.97	629.60
398.16	692.80
398.35	725.57
398.55	690.46
398.74	727.91
398.93	746.63
399.12	737.27
399.32	692.80
399.51	695.14
399.70	746.63
399.90	734.93
400.09	692.80
400.28	830.89
400.47	826.21
400.67	816.85
400.86	760.67
401.05	828.55
401.24	755.99
401.44	842.59
401.63	847.27
401.82	791.10
402.01	816.85
402.21	812.17
402.40	912.81
402.59	812.17
402.78	828.55
402.97	873.02
403.17	931.53
403.36	896.43
403.55	734.93
403.74	805.14
403.93	856.64
404.13	940.90
404.32	898.77
404.51	940.90
404.70	954.94
404.89	908.13
405.09	994.73
405.28	968.98
405.47	961.96
405.66	983.02
405.85	1022.81
406.05	959.62
406.24	861.32
406.43	1022.81
406.62	1013.45
406.81	1069.62
407.00	952.60
407.20	978.34
407.39	933.87
407.58	1027.50
407.77	1055.58
407.96	1071.97
408.15	1111.75
408.34	1018.13
408.54	1130.48
408.73	961.96
408.92	1196.01
409.11	1132.82
409.30	1137.50
409.49	1100.05
409.68	1118.78
409.87	1160.91
410.07	1095.37
410.26	1205.38
410.45	1172.61
410.64	1142.18
410.83	1205.38
411.02	1238.14
411.21	1299.00
411.40	1231.12
411.59	1310.70
411.78	1261.55
411.98	1268.57
412.17	1266.23
412.36	1259.21
412.55	1425.39
412.74	1317.72
412.93	1387.94
413.12	1364.53
413.31	1350.49
413.50	1404.32
413.69	1336.45
413.88	1441.77
414.07	1444.11
414.26	1385.60
414.45	1448.79
414.64	1294.32
414.83	1472.20
415.02	1563.48
415.22	1547.09
415.41	1446.45
415.60	1521.35
415.79	1558.80
415.98	1591.56
416.17	1579.86
416.36	1570.50
416.55	1509.65
416.74	1523.69
416.93	1652.42
417.12	1624.33
417.31	1638.38
417.50	1617.31
417.69	1727.32
417.88	1715.61
418.07	1736.68
418.26	1708.59
418.45	1694.55
418.64	1781.15
418.83	1792.85
419.02	1699.23
419.21	1746.04
419.39	1739.02
419.58	1781.15
419.77	1853.70
419.96	1968.39
420.15	1891.15
420.34	1781.15
420.53	1900.52
420.72	2012.86
420.91	1867.75
421.10	1846.68
421.29	1858.39
421.48	1930.94
421.67	1874.77
421.86	2024.56
422.05	2017.54
422.24	1956.69
422.43	1937.96
422.61	2010.52
422.80	1970.73
422.99	1909.88
423.18	1977.75
423.37	2031.58
423.56	2043.29
423.75	2008.18
423.94	2033.93
424.13	1867.75
424.32	1963.71
424.50	2052.65
424.69	2003.50
424.88	2047.97
425.07	2054.99
425.26	1966.05
425.45	2003.50
425.64	1980.09
425.83	2073.71
426.01	2083.08
426.20	2050.31
426.39	1952.01
426.58	2019.88
426.77	2085.42
426.96	2087.76
427.15	2043.29
427.33	2165.00
427.52	2080.74
427.71	2101.80
427.90	2111.16
428.09	2218.83
428.28	2207.13
428.46	2120.53
428.65	2200.10
428.84	2200.10
429.03	2214.15
429.22	2092.44
429.40	2314.79
429.59	2303.09
429.78	2150.95
429.97	2125.21
430.16	2232.87
430.34	2284.36
430.53	2279.68
430.72	2340.54
430.91	2225.85
431.10	2244.57
431.28	2300.75
431.47	2275.00
431.66	2352.24
431.85	2303.09
432.03	2469.27
432.22	2403.73
432.41	2469.27
432.60	2504.37
432.79	2401.39
432.97	2370.96
433.16	2452.88
433.35	2462.24
433.54	2438.84
433.72	2665.87
433.91	2455.22
434.10	2422.45
434.28	2487.99
434.47	2495.01
434.66	2607.36
434.85	2623.74
435.03	2555.86
435.22	2462.24
435.41	2724.38
435.59	2619.06
435.78	2583.95
435.97	2684.59
436.16	2647.15
436.34	2541.82
436.53	2628.42
436.72	2717.36
436.90	2679.91
437.09	2733.75
437.28	2621.40
437.46	2731.41
437.65	2724.38
437.84	2768.85
438.02	2766.51
438.21	2726.72
438.40	2705.66
438.58	2810.98
438.77	2705.66
438.96	2792.26
439.14	2920.99
439.33	2972.48
439.52	2944.39
439.70	2995.89
439.89	2977.16
440.08	2911.63
440.26	3211.22
440.45	2906.95
440.63	3016.95
440.82	3075.46
441.01	3089.51
441.19	3136.32
441.38	3211.22
441.57	3220.58
441.75	3183.13
441.94	3248.66
442.12	3180.79
442.31	3236.96
442.50	3274.41
442.68	3321.22
442.87	3300.16
443.05	3293.13
443.24	3234.62
443.43	3370.37
443.61	3363.35
443.80	3356.33
443.98	3180.79
444.17	3272.07
444.35	3302.50
444.54	3384.41
444.73	3431.23
444.91	3449.95
445.10	3426.54
445.28	3368.03
445.47	3351.65
445.65	3372.71
445.84	3475.70
446.02	3435.91
446.21	3482.72
446.39	3377.39
446.58	3475.70
446.77	3370.37
446.95	3438.25
447.14	3485.06
447.32	3337.60
447.51	3403.14
447.69	3503.78
447.88	3396.12
448.06	3435.91
448.25	3534.21
448.43	3686.34
448.62	3517.83
448.80	3435.91
448.99	3452.29
449.17	3506.12
449.36	3559.95
449.54	3623.15
449.73	3655.92
449.91	3782.31
450.10	3716.77
450.28	3826.78
450.46	3674.64
450.65	3674.64
450.83	3901.67
451.02	3660.60
451.20	3737.84
451.39	3641.87
451.57	3819.75
451.76	3672.30
451.94	3789.33
452.13	3791.67
452.31	3918.06
452.49	3838.48
452.68	3892.31
452.86	3808.05
453.05	3920.40
453.23	4049.13
453.42	3733.15
453.60	3836.14
453.78	3894.65
453.97	3693.37
454.15	4046.79
454.34	3941.46
454.52	3943.80
454.70	3899.33
454.89	3964.87
455.07	3957.85
455.26	3957.85
455.44	4044.45
455.62	4107.64
455.81	4133.39
455.99	4079.55
456.17	4100.62
456.36	4161.47
456.54	4180.20
456.73	4147.43
456.91	4203.60
457.09	4287.86
457.28	4227.01
457.46	4306.59
457.64	4332.33
457.83	4145.09
458.01	4187.22
458.19	4255.09
458.38	4320.63
458.56	4325.31
458.74	4400.21
458.93	4390.84
459.11	4294.88
459.29	4388.50
459.48	4479.79
459.66	4461.06
459.84	4381.48
460.03	4643.62
460.21	4390.84
460.39	4683.41
460.57	4332.33
460.76	4440.00
460.94	4662.35
461.12	4550.00
461.31	4571.07
461.49	4512.55
461.67	4447.02
461.85	4627.24
462.04	4486.81
462.22	4744.27
462.40	4744.27
462.59	4823.84
462.77	4641.28
462.95	4840.23
463.13	4751.29
463.32	4828.53
463.50	4856.61
463.68	4798.10
463.86	4774.69
464.05	4807.46
464.23	4774.69
464.41	4856.61
464.59	4814.48
464.78	4968.96
464.96	4950.23
465.14	4938.53
465.32	4915.12
465.50	4990.02
465.69	4992.36
465.87	4919.81
466.05	4929.17
466.23	4840.23
466.41	5011.09
466.60	5088.32
466.78	4954.91
466.96	4929.17
467.14	4896.40
467.32	4985.34
467.51	5179.61
467.69	4957.25
467.87	5130.45
468.05	5224.08
468.23	5165.56
468.41	5254.50
468.60	5198.33
468.78	5165.56
468.96	5242.80
469.14	5366.85
469.32	5336.42
469.50	5078.96
469.69	5210.03
469.87	5256.84
470.05	5291.95
470.23	5547.07
470.41	5387.91
470.59	5371.53
470.77	5369.19
470.95	5439.40
471.14	5341.10
471.32	5371.53
471.50	5570.48
471.68	5462.81
471.86	5731.97
472.04	5762.40
472.22	5666.44
472.40	5591.54
472.58	5678.14
472.77	5778.78
472.95	5846.66
473.13	5973.05
473.31	5753.04
473.49	5797.51
473.67	5764.74
473.85	5837.30
474.03	5912.19
474.21	5909.85
474.39	6078.37
474.57	5998.79
474.75	5989.43
474.93	6047.94
475.12	6040.92
475.30	6106.46
475.48	6179.01
475.66	6314.77
475.84	6296.04
476.02	6293.70
476.20	6317.11
476.38	6443.49
476.56	6401.37
476.74	6530.09
476.92	6499.67
477.10	6464.56
477.28	6637.76
477.46	6703.29
477.64	6590.95
477.82	6719.68
478.00	6836.70
478.18	6923.30
478.36	7007.56
478.54	7045.01
478.72	6979.48
478.90	7023.95
479.08	6965.43
479.26	7077.78
479.44	7056.72
479.62	7288.43
479.80	7295.45
479.98	7281.41
480.16	7400.77
480.34	7445.24
480.52	7529.50
480.70	7520.14
480.88	7581.00
481.06	7499.08
481.24	7756.54
481.41	7644.19
481.59	8086.55
481.77	8037.40
481.95	7957.82
482.13	8067.83
482.31	8131.02
482.49	8180.17
482.67	8002.29
482.85	8374.44
483.03	8493.80
483.21	8456.36
483.39	8475.08
483.57	8603.81
483.74	8505.51
483.92	8526.57
484.10	8500.83
484.28	8681.05
484.46	8898.72
484.64	8982.98
484.82	8826.16
485.00	9046.17
485.18	9153.84
485.35	9303.63
485.53	9102.34
485.71	9294.27
485.89	9584.49
486.07	9451.08
486.25	9654.71
486.43	9535.34
486.61	9650.03
486.78	9949.62
486.96	9568.11
487.14	9926.21
487.32	9856.00
487.50	9989.41
487.68	10139.20
487.85	10305.38
488.03	10370.91
488.21	10485.60
488.39	10413.04
488.57	10516.03
488.75	10478.58
488.92	10761.78
489.10	10705.61
489.28	10927.96
489.46	11227.55
489.64	10757.10
489.81	11007.54
489.99	11124.57
490.17	11272.02
490.35	11435.86
490.53	11421.81
490.70	11517.78
490.88	11686.29
491.06	11667.57
491.24	11679.27
491.41	11918.01
491.59	11651.19
491.77	11878.22
491.95	11925.03
492.13	12004.61
492.30	12152.06
492.48	12109.93
492.66	12077.16
492.84	12334.62
493.01	12486.76
493.19	12475.06
493.37	12564.00
493.54	12784.01
493.72	12919.76
493.90	12695.07
494.08	12940.82
494.25	12943.16
494.43	12767.62
494.61	13200.62
494.79	12926.78
494.96	13336.37
495.14	13231.05
495.32	13343.39
495.49	13760.01
495.67	13275.52
495.85	13605.53
496.02	13568.09
496.20	13626.60
496.38	13715.54
496.55	13830.23
496.73	14185.99
496.91	13640.64
497.09	14017.47
497.26	14190.67
497.44	14232.80
497.62	14108.75
497.79	14338.12
497.97	14506.64
498.14	14712.61
498.32	14703.25
498.50	14401.32
498.67	14846.02
498.85	14679.84
499.03	14806.23
499.20	14839.00
499.38	14979.43
499.56	14991.13
499.73	14808.57
499.91	15405.41
500.08	15211.14
500.26	15159.65
500.44	15115.18
500.61	15337.53
500.79	15290.72
500.97	15473.28
501.14	15775.21
501.32	15602.01
501.49	15374.98
501.67	15587.97
501.84	15646.48
502.02	15946.07
502.20	15974.16
502.37	16311.19
502.55	15929.69
502.72	16147.36
502.90	15887.56
503.07	16027.99
503.25	16308.85
503.43	16343.96
503.60	16205.87
503.78	16383.75
503.95	16315.87
504.13	16336.94
504.30	16631.85
504.48	16472.69
504.65	16634.19
504.83	16751.21
505.01	16723.13
505.18	16980.59
505.36	16915.05
505.53	16744.19
505.71	16915.05
505.88	16992.29
506.06	16816.75
506.23	17352.73
506.41	16971.22
506.58	17067.19
506.76	17319.96
506.93	17369.12
507.11	17139.74
507.28	17479.12
507.46	17326.99
507.63	17692.11
507.81	17448.69
507.98	17324.65
508.16	17713.17
508.33	17802.11
508.50	17900.42
508.68	18043.19
508.85	18160.22
509.03	17813.82
509.20	17921.48
509.38	18129.79
509.55	18429.38
509.73	18150.85
509.90	18263.20
510.08	18129.79
510.25	18015.10
510.42	18202.35
510.60	18492.57
510.77	18649.39
510.95	18625.98
511.12	18352.14
511.30	18656.41
511.47	18494.91
511.64	18771.10
511.82	18731.31
511.99	18527.68
512.17	19115.16
512.34	18920.89
512.51	19119.84
512.69	18892.80
512.86	19192.39
513.04	19264.95
513.21	19468.58
513.38	19356.23
513.56	19470.92
513.73	19576.24
513.90	19414.74
514.08	19089.41
514.25	19545.81
514.43	19754.12
514.60	19503.68
514.77	19932.00
514.95	19763.48
515.12	19454.53
515.29	19349.21
515.47	19913.28
515.64	19768.16
515.81	19997.54
515.99	19948.39
516.16	20030.30
516.33	20032.65
516.51	20023.28
516.68	19929.66
516.85	20243.29
517.03	20540.54
517.20	20313.51
517.37	20306.49
517.54	20641.18
517.72	20334.57
517.89	20259.68
518.06	20538.20
518.24	20446.92
518.41	20325.21
518.58	20676.29
518.75	20486.71
518.93	20915.03
519.10	20500.75
519.27	21034.39
519.45	20786.30
519.62	20889.28
519.79	20933.75
519.96	20790.98
520.14	21120.99
520.31	21200.57
520.48	21008.65
520.65	20896.30
520.83	21163.12
521.00	21420.58
521.17	21228.66
521.34	21177.17
521.52	21235.68
521.69	21476.76
521.86	21462.71
522.03	21500.16
522.20	21530.59
522.38	21310.58
522.55	21376.11
522.72	21579.74
522.89	21778.68
523.07	22047.85
523.24	21703.79
523.41	21797.41
523.58	21710.81
523.75	22010.40
523.92	21717.83
524.10	21778.68
524.27	22057.21
524.44	22387.22
524.61	22281.90
524.78	22045.51
524.96	22235.09
525.13	22466.80
525.30	22181.26
525.47	22228.07
525.64	22263.18
525.81	22499.57
525.98	22581.49
526.16	22698.52
526.33	22654.05
526.50	22565.10
526.67	22410.63
526.84	22647.02
527.01	22377.86
527.18	22611.92
527.36	22937.25
527.53	22537.02
527.70	23044.91
527.87	22909.16
528.04	22806.18
528.21	23033.21
528.38	23091.73
528.55	23307.05
528.72	23187.69
528.89	23028.53
529.07	23019.17
529.24	23154.92
529.41	23616.01
529.58	23407.70
529.75	23183.01
529.92	23183.01
530.09	23314.08
530.26	23484.94
530.43	23117.47
530.60	23489.62
530.77	23564.51
530.94	23475.57
531.11	23438.12
531.28	23639.41
531.46	23573.88
531.63	23669.84
531.80	23693.24
531.97	23854.74
532.14	23627.71
532.31	23707.29
532.48	23903.89
532.65	23784.52
532.82	23695.58
532.99	24189.44
533.16	23683.88
533.33	24088.79
533.50	24325.19
533.67	24020.92
533.84	24018.58
534.01	24034.96
534.18	23995.17
534.35	24219.86
534.52	24402.43
534.69	24367.32
534.86	24568.60
535.03	24025.60
535.20	24491.37
535.37	24629.46
535.54	24463.28
535.71	24044.32
535.88	24627.12
536.05	24627.12
536.22	24608.39
536.38	24786.27
536.55	24737.12
536.72	24624.78
536.89	24524.13
537.06	24648.18
537.23	24879.89
537.40	24875.21
537.57	24465.62
537.74	24929.05
537.91	24875.21
538.08	25268.42
538.25	24673.93
538.42	25120.97
538.59	25399.49
538.75	25116.29
538.92	25022.67
539.09	25099.90
539.26	25092.88
539.43	25137.35
539.60	25165.44
539.77	25078.84
539.94	25270.76
540.11	25633.55
540.28	25184.16
540.44	25043.73
540.61	25020.33
540.78	24980.54
540.95	25350.34
541.12	25619.50
541.29	25626.53
541.46	25724.83
541.62	25364.39
541.79	25413.54
541.96	25380.77
542.13	25741.21
542.30	25743.55
542.47	25539.93
542.63	25645.25
542.80	26015.05
542.97	25867.60
543.14	26417.63
543.31	26111.02
543.48	25689.72
543.64	26377.84
543.81	26270.17
543.98	26298.26
544.15	26022.08
544.32	26188.25
544.48	26476.14
544.65	26335.71
544.82	26258.47
544.99	26031.44
545.16	26115.70
545.32	25949.52
545.49	26705.51
545.66	26607.21
545.83	26672.74
546.00	26307.62
546.16	26625.93
546.33	26457.42
546.50	26237.41
546.67	26761.69
546.83	26202.30
547.00	26757.00
547.17	26881.05
547.34	26710.19
547.50	26801.47
547.67	27026.17
547.84	27000.42
548.00	27129.15
548.17	26951.27
548.34	26850.63
548.51	27435.76
548.67	27030.85
548.84	27192.34
549.01	26754.66
549.18	27185.32
549.34	27178.30
549.51	26803.82
549.68	26881.05
549.84	27173.62
550.01	27103.40
550.18	27075.32
550.34	27199.37
550.51	27197.02
550.68	27094.04
550.84	26941.91
551.01	27201.71
551.18	26705.51
551.34	27054.25
551.51	27138.51
551.68	27211.07
551.84	27201.71
552.01	27346.82
552.18	27812.59
552.34	27014.46
552.51	27232.13
552.68	27510.66
552.84	27529.38
553.01	27517.68
553.18	27431.08
553.34	27576.19
553.51	27714.28
553.67	27550.45
553.84	27974.08
554.01	27515.34
554.17	28126.22
554.34	27775.14
554.51	27812.59
554.67	27711.94
554.84	27871.10
555.00	27665.13
555.17	27599.60
555.33	27903.87
555.50	27866.42
555.67	27948.34
555.83	27676.83
556.00	27854.72
556.16	28084.09
556.33	28002.17
556.50	27796.20
556.66	28100.47
556.83	27728.33
556.99	28233.88
557.16	28610.71
557.32	28151.96
557.49	28276.01
557.65	28046.64
557.82	27995.15
557.98	27934.29
558.15	28086.43
558.32	28409.42
558.48	28257.29
558.65	28486.66
558.81	28641.14
558.98	28507.72
559.14	28315.80
559.31	28215.16
559.47	28121.54
559.64	28741.78
559.80	28334.53
559.97	28479.64
560.13	28411.76
560.30	28711.35
560.46	28320.48
560.63	28395.38
560.79	28261.97
560.96	28510.07
561.12	28870.51
561.29	28318.14
561.45	28278.35
561.61	28744.12
561.78	28283.03
561.94	28891.57
562.11	28474.96
562.27	28910.30
562.44	28599.01
562.60	28655.18
562.77	28542.83
562.93	28339.21
563.10	28407.08
563.26	28751.14
563.42	28959.45
563.59	28563.90
563.75	28701.99
563.92	28737.10
564.08	28624.75
564.24	28774.55
564.41	28236.22
564.57	28540.49
564.74	28821.36
564.90	29015.62
565.07	29048.39
565.23	28863.49
565.39	28762.84
565.56	29233.29
565.72	28697.31
565.88	28943.06
566.05	28781.57
566.21	28830.72
566.38	29010.94
566.54	29008.60
566.70	29024.98
566.87	29345.64
567.03	29226.27
567.19	29132.65
567.36	28889.23
567.52	28666.88
567.68	29074.13
567.85	28655.18
568.01	29139.67
568.17	28882.21
568.34	29366.70
568.50	29151.37
568.66	28950.09
568.83	29479.05
568.99	28910.30
569.15	28947.75
569.32	28844.76
569.48	28533.47
569.64	28973.49
569.81	28943.06
569.97	28978.17
570.13	29151.37
570.30	29406.49
570.46	29020.30
570.62	29123.29
570.78	29123.29
570.95	28947.75
571.11	29261.38
571.27	28755.82
571.43	28936.04
571.60	29181.80
571.76	29104.56
571.92	29212.23
572.09	29198.18
572.25	29500.11
572.41	29163.08
572.57	29142.01
572.74	29436.92
572.90	28926.68
573.06	29090.52
573.22	29631.18
573.38	29172.44
573.55	28964.13
573.71	29883.96
573.87	29502.45
574.03	28954.77
574.20	29216.91
574.36	29109.24
574.52	29324.57
574.68	29097.54
574.84	29317.55
575.01	29244.99
575.17	29446.28
575.33	29336.27
575.49	29109.24
575.65	29792.68
575.82	29481.39
575.98	29249.67
576.14	29317.55
576.30	29263.72
576.46	29088.18
576.62	29619.48
576.79	29205.20
576.95	29261.38
577.11	29537.56
577.27	29280.10
577.43	29376.06
577.59	29474.37
577.75	29390.11
577.92	29282.44
578.08	28952.43
578.24	29542.24
578.40	29535.22
578.56	29523.52
578.72	29455.64
578.88	29567.99
579.04	29703.74
579.21	29317.55
579.37	29652.25
579.53	29322.23
579.69	29542.24
579.85	29296.49
580.01	29626.50
580.17	29401.81
580.33	29465.00
580.49	29605.44
580.65	30003.33
580.82	29701.40
580.98	29715.44
581.14	29525.86
581.30	29926.09
581.46	29181.80
581.62	29605.44
581.78	29373.72
581.94	29532.88
582.10	29326.91
582.26	29317.55
582.42	29457.98
582.58	29546.92
582.74	29670.97
582.90	29481.39
583.06	29722.46
583.22	29553.94
583.38	29350.32
583.54	29514.16
583.70	29422.87
583.86	29380.74
584.02	29329.25
584.18	29532.88
584.34	29434.58
584.50	29820.77
584.66	29214.57
584.82	29436.92
584.98	29600.76
585.14	29359.68
585.30	29233.29
585.46	29455.64
585.62	29432.24
585.78	29624.16
585.94	29408.83
586.10	29621.82
586.26	29457.98
586.42	29883.96
586.58	29806.72
586.74	29921.41
586.90	29565.65
587.06	28840.08
587.22	29652.25
587.38	29724.80
587.54	30115.67
587.70	29977.58
587.86	29956.52
588.02	30068.86
588.18	29841.83
588.34	29921.41
588.49	29947.15
588.65	30043.12
588.81	29287.12
588.97	29457.98
589.13	29795.02
589.29	29497.77
589.45	29947.15
589.61	30232.70
589.77	30019.71
589.93	30054.82
590.08	29872.26
590.24	29762.25
590.40	30078.22
590.56	29956.52
590.72	29731.83
590.88	29677.99
591.04	29841.83
591.20	30213.98
591.35	30103.97
591.51	29898.00
591.67	30082.91
591.83	30431.65
591.99	30281.85
592.15	29919.07
592.31	29851.19
592.46	29860.55
592.62	30036.09
592.78	29764.59
592.94	30092.27
593.10	29549.26
593.26	30213.98
593.41	29926.09
593.57	30066.52
593.73	29748.21
593.89	29848.85
594.05	30223.34
594.20	29867.58
594.36	30202.27
594.52	29654.59
594.68	29886.30
594.84	30038.44
594.99	30153.12
595.15	29998.65
595.31	30696.13
595.47	30026.73
595.62	30089.93
595.78	30000.99
595.94	29717.78
596.10	30209.29
596.25	30096.95
596.41	30148.44
596.57	29659.27
596.73	30064.18
596.88	29975.24
597.04	30157.80
597.20	30401.22
597.36	30312.28
597.51	30150.78
597.67	29914.39
597.83	30136.74
597.99	30593.14
598.14	30012.69
598.30	29968.22
598.46	30291.21
598.61	29933.11
598.77	30054.82
598.93	30181.21
599.09	30066.52
599.24	30782.73
599.40	30457.39
599.56	30174.19
599.71	30398.88
599.87	30396.54
600.03	30284.19
600.18	30574.42
600.34	29844.17
600.50	30232.70
600.65	30082.91
600.81	30450.37
600.97	30209.29
601.12	30157.80
601.28	30284.19
601.44	30082.91
601.59	30352.07
601.75	30022.05
601.91	30300.58
602.06	30314.62
602.22	29919.07
602.37	30087.59
602.53	30146.10
602.69	30572.08
602.84	30066.52
603.00	30368.45
603.16	30637.61
603.31	30478.46
603.47	30230.36
603.62	29979.92
603.78	30045.46
603.94	30047.80
604.09	30230.36
604.25	30354.41
604.40	30171.85
604.56	30228.02
604.71	30345.05
604.87	30174.19
605.03	30569.74
605.18	30162.48
605.34	29951.84
605.49	29860.55
605.65	29802.04
605.80	29734.17
605.96	30017.37
606.12	29937.79
606.27	29979.92
606.43	30300.58
606.58	30167.16
606.74	30143.76
606.89	30202.27
607.05	30333.34
607.20	30316.96
607.36	29869.92
607.51	30300.58
607.67	29839.49
607.82	30237.38
607.98	29549.26
608.13	30101.63
608.29	30223.34
608.44	29916.73
608.60	29905.02
608.75	30213.98
608.91	29984.60
609.06	29865.24
609.22	30312.28
609.37	29935.45
609.53	29802.04
609.68	29802.04
609.84	29626.50
609.99	29532.88
610.15	29685.01
610.30	29942.47
610.46	30218.66
610.61	29818.42
610.76	29518.84
610.92	30078.22
611.07	29708.42
611.23	30038.44
611.38	29699.06
611.54	29195.84
611.69	29612.46
611.84	29432.24
612.00	29418.19
612.15	29504.79
612.31	29589.05
612.46	29244.99
612.62	29912.05
612.77	29748.21
612.92	30167.16
613.08	29408.83
613.23	29923.75
613.39	30125.04
613.54	29535.22
613.69	29226.27
613.85	29638.20
614.00	29525.86
614.15	29579.69
614.31	29567.99
614.46	29720.12
614.62	29778.64
614.77	29706.08
614.92	29673.31
615.08	29326.91
615.23	29575.01
615.38	29586.71
615.54	28847.10
615.69	29399.47
615.84	29364.36
616.00	29460.32
616.15	29226.27
616.30	29333.93
616.46	29553.94
616.61	29439.26
616.76	29474.37
616.92	29184.14
617.07	29228.61
617.22	29085.84
617.37	29553.94
617.53	29425.22
617.68	29422.87
617.83	29228.61
617.99	29088.18
618.14	29298.83
618.29	29481.39
618.45	29263.72
618.60	29261.38
618.75	29324.57
618.90	29113.92
619.06	29024.98
619.21	28711.35
619.36	29383.09
619.51	28734.76
619.67	29216.91
619.82	28638.80
619.97	28971.15
620.12	28643.48
620.28	28730.08
620.43	29158.39
620.58	29064.77
620.73	29228.61
620.89	28800.29
621.04	29163.08
621.19	28844.76
621.34	28797.95
621.49	29017.96
621.65	29127.97
621.80	28891.57
621.95	28414.10
622.10	28641.14
622.25	28968.81
622.41	28884.55
622.56	28624.75
622.71	28971.15
622.86	28823.70
623.01	29158.39
623.16	28797.95
623.32	28819.02
623.47	28545.17
623.62	29046.05
623.77	28652.84
623.92	28404.74
624.07	28795.61
624.23	28814.34
624.38	28540.49
624.53	28964.13
624.68	28701.99
624.83	28769.86
624.98	28776.89
625.13	28493.68
625.29	28716.03
625.44	28465.60
625.59	28170.69
625.74	28371.97
625.89	28018.55
626.04	28498.36
626.19	28189.41
626.34	28095.79
626.49	28025.57
626.65	28481.98
626.80	28428.15
626.95	28397.72
627.10	28308.78
627.25	28332.18
627.40	28297.08
627.55	27770.46
627.70	28002.17
627.85	28023.23
628.00	27929.61
628.15	28177.71
628.30	28287.71
628.45	28133.24
628.60	28257.29
628.76	28355.59
628.91	28070.04
629.06	28301.76
629.21	28121.54
629.36	28051.32
629.51	27875.78
629.66	28332.18
629.81	27901.53
629.96	27957.70
630.11	27857.06
630.26	27740.03
630.41	27527.04
630.56	27447.46
630.71	27817.27
630.86	27875.78
631.01	27857.06
631.16	27747.05
631.31	27697.90
631.46	27826.63
631.61	27686.20
631.76	27651.09
631.91	27615.98
632.06	27676.83
632.21	27356.18
632.36	27690.88
632.51	27372.57
632.66	27428.74
632.81	27564.49
632.96	27587.89
633.10	27814.93
633.25	27662.79
633.40	27615.98
633.55	27562.15
633.70	27101.06
633.85	27566.83
634.00	27241.50
634.15	27498.95
634.30	27103.40
634.45	27126.81
634.60	27410.01
634.75	27278.94
634.90	27494.27
635.05	27454.48
635.19	27239.15
635.34	27761.09
635.49	27552.79
635.64	27300.01
635.79	27257.88
635.94	27180.64
636.09	27133.83
636.24	27236.81
636.39	27047.23
636.53	27255.54
636.68	27159.58
636.83	27145.53
636.98	27316.39
637.13	26953.61
637.28	27321.07
637.43	27096.38
637.57	27410.01
637.72	27012.12
637.87	27051.91
638.02	26995.74
638.17	26838.92
638.32	26906.80
638.46	26899.78
638.61	26871.69
638.76	26497.20
638.91	26675.09
639.06	26794.45
639.20	26836.58
639.35	26764.03
639.50	26553.38
639.65	27377.25
639.80	27157.24
639.94	26382.52
640.09	27150.21
640.24	26761.69
640.39	26951.27
640.54	26668.06
640.68	26658.70
640.83	26595.51
640.98	26476.14
641.13	26143.78
641.27	26426.99
641.42	26546.36
641.57	26536.99
641.72	26553.38
641.86	26342.73
642.01	26457.42
642.16	26401.24
642.31	26228.04
642.45	26560.40
642.60	26118.04
642.75	26335.71
642.90	26185.91
643.04	26167.19
643.19	26553.38
643.34	26242.09
643.48	26010.37
643.63	26635.30
643.78	26354.43
643.93	26342.73
644.07	26277.19
644.22	26691.47
644.37	26202.30
644.51	26544.02
644.66	26286.56
644.81	26096.97
644.95	26457.42
645.10	26199.96
645.25	25795.04
645.39	25834.83
645.54	26277.19
645.69	26075.91
645.83	26026.76
645.98	26075.91
646.13	25806.75
646.27	25972.92
646.42	25991.65
646.57	26174.21
646.71	26155.49
646.86	25916.75
647.00	26115.70
647.15	25816.11
647.30	26003.35
647.44	25781.00
647.59	26237.41
647.74	25895.69
647.88	25755.26
648.03	26359.11
648.17	26101.65
648.32	25717.81
648.47	26321.66
648.61	26064.21
648.76	26108.68
648.90	25998.67
649.05	25834.83
649.20	25729.51
649.34	25825.47
649.49	25324.60
649.63	25626.53
649.78	25425.24
649.92	25238.00
650.07	26087.61
650.21	25331.62
650.36	25811.43
650.51	25652.27
650.65	25748.23
650.80	25589.08
650.94	25844.20
651.09	25397.15
651.23	25310.55
651.38	25509.50
651.52	25259.06
651.67	25390.13
651.81	25254.38
651.96	25436.94
652.10	25460.35
652.25	25565.67
652.39	25785.68
652.54	25474.39
652.68	25401.83
652.83	25434.60
652.97	25436.94
653.12	25537.59
653.26	25165.44
653.41	25479.07
653.55	25280.13
653.70	25029.69
653.84	25135.01
653.99	25177.14
654.13	24980.54
654.27	25200.55
654.42	25373.75
654.56	25102.25
654.71	25118.63
654.85	25057.78
655.00	24950.11
655.14	25167.78
655.29	24765.21
655.43	25181.82
655.57	24865.85
655.72	25046.07
655.86	25109.27
656.01	25406.52
656.15	25097.56
656.30	24872.87
656.44	24975.86
656.58	24783.93
656.73	24748.82
656.87	24933.73
657.01	25113.95
657.16	24879.89
657.30	25125.65
657.45	24559.24
657.59	25053.09
657.73	24823.72
657.88	24599.03
658.02	24690.31
658.16	24704.35
658.31	24542.86
658.45	24629.46
658.60	24198.80
658.74	24376.68
658.88	24620.10
659.03	24393.06
659.17	24776.91
659.31	24884.58
659.46	24491.37
659.60	24297.10
659.74	24531.15
659.89	24437.53
660.03	24081.77
660.17	24374.34
660.32	24278.38
660.46	24243.27
660.60	23814.95
660.74	23934.32
660.89	24196.46
661.03	23859.42
661.17	24123.90
661.32	23913.25
661.46	24212.84
661.60	24023.26
661.74	23931.98
661.89	24280.72
662.03	24046.66
662.17	23871.12
662.31	23854.74
662.46	23852.40
662.60	24154.33
662.74	23812.61
662.88	23803.25
663.03	23880.49
663.17	23618.35
663.31	23215.77
663.45	23426.42
663.60	23852.40
663.74	23356.21
663.88	23601.96
664.02	23723.67
664.17	23927.30
664.31	23637.07
664.45	23311.74
664.59	23726.01
664.73	23758.78
664.88	23140.88
665.02	22869.37
665.16	23386.63
665.30	23379.61
665.44	23487.28
665.59	23262.58
665.73	23218.11
665.87	22663.41
666.01	23190.03
666.15	23204.07
666.29	23171.30
666.44	23194.71
666.58	23023.85
666.72	23054.28
666.86	23047.26
667.00	23157.26
667.14	22815.54
667.28	22623.62
667.43	22707.88
667.57	22623.62
667.71	22618.94
667.85	23016.83
667.99	22714.90
668.13	22637.66
668.27	22904.48
668.41	22654.05
668.56	22321.69
668.70	22104.02
668.84	22700.86
668.98	22527.66
669.12	22412.97
669.26	22445.74
669.40	22911.50
669.54	22214.02
669.68	22373.18
669.82	22185.94
669.96	22265.52
670.10	22347.44
670.25	22164.87
670.39	21830.18
670.53	21638.25
670.67	21818.47
670.81	22010.40
670.95	21860.60
671.09	22089.98
671.23	21813.79
671.37	21968.27
671.51	21813.79
671.65	22141.47
671.79	21675.70
671.93	21717.83
672.07	21839.54
672.21	21954.22
672.35	21338.66
672.49	21446.33
672.63	21350.37
672.77	21092.91
672.91	21053.12
673.05	21249.72
673.19	21158.44
673.33	21214.62
673.47	21099.93
673.61	21528.25
673.75	21118.65
673.89	21069.50
674.03	20730.12
674.17	20961.84
674.31	20992.26
674.45	21013.33
674.59	21078.86
674.73	21025.03
674.87	20830.77
675.01	20641.18
675.15	20812.04
675.29	20711.40
675.43	20400.11
675.56	20711.40
675.70	20568.63
675.84	20641.18
675.98	20009.24
676.12	20353.30
676.26	20657.57
676.40	20451.60
676.54	20301.81
676.68	20217.55
676.82	19915.62
676.96	20273.72
677.10	20006.90
677.23	20163.72
677.37	19880.51
677.51	19953.07
677.65	19880.51
677.79	19566.88
677.93	19681.56
678.07	19861.79
678.21	19606.67
678.34	19847.74
678.48	19648.80
678.62	19342.19
678.76	19412.40
678.90	19314.10
679.04	19061.32
679.18	19283.67
679.31	19023.87
679.45	19063.66
679.59	18647.05
679.73	18902.17
679.87	18857.70
680.00	18703.22
680.14	18621.30
680.28	18895.14
680.42	18787.48
680.56	18700.88
680.70	18885.78
680.83	18668.11
680.97	18824.93
681.11	18712.58
681.25	18494.91
681.39	18391.93
681.52	18391.93
681.66	18457.46
681.80	18045.53
681.94	18211.71
682.07	18298.31
682.21	17956.59
682.35	17647.64
682.49	17509.55
682.62	17816.16
682.76	17729.56
682.90	17961.27
683.04	17802.11
683.17	17984.68
683.31	17975.31
683.45	17706.15
683.59	17834.88
683.72	17664.02
683.86	17362.09
684.00	17479.12
684.13	17254.43
684.27	17116.34
684.41	17247.41
684.55	17029.74
684.68	17006.33
684.82	16751.21
684.96	16875.26
685.09	16875.26
685.23	16851.86
685.37	16683.34
685.50	16774.62
685.64	16968.88
685.78	16505.46
685.91	16821.43
686.05	16819.09
686.19	16748.87
686.32	16812.07
686.46	16652.91
686.60	16369.71
686.73	16166.08
686.87	16358.00
687.01	15971.82
687.14	16191.83
687.28	16053.73
687.42	16112.25
687.55	16077.14
687.69	15833.72
687.82	15997.56
687.96	15782.23
688.10	15875.85
688.23	15779.89
688.37	15712.02
688.50	15672.23
688.64	15740.10
688.78	15669.89
688.91	15356.25
689.05	15353.91
689.18	15342.21
689.32	15159.65
689.46	15260.29
689.59	15157.31
689.73	15051.99
689.86	15089.43
690.00	15241.57
690.13	15091.77
690.27	15147.95
690.41	14972.41
690.54	14733.67
690.68	14967.73
690.81	14885.81
690.95	14803.89
691.08	14558.13
691.22	14803.89
691.35	14679.84
691.49	14569.83
691.62	14457.49
691.76	14431.74
691.89	14413.02
692.03	14127.47
692.16	14132.15
692.30	14012.79
692.43	14120.45
692.57	13858.31
692.70	14148.54
692.84	14036.19
692.97	13902.78
693.11	13984.70
693.24	14064.28
693.38	13965.98
693.51	13710.86
693.65	13717.88
693.78	13502.55
693.92	13687.45
694.05	13575.11
694.19	13495.53
694.32	13413.61
694.45	13373.82
694.59	13172.54
694.72	13282.54
694.86	13207.64
694.99	12957.21
695.13	13032.10
695.26	13001.68
695.39	12863.58
695.53	13095.30
695.66	12886.99
695.80	12989.97
695.93	12861.24
696.07	12798.05
696.20	12938.48
696.33	12741.88
696.47	12858.90
696.60	12622.51
696.73	12549.95
696.87	12449.31
697.00	12409.52
697.14	12432.93
697.27	12173.13
697.40	12212.92
697.54	12084.19
697.67	12184.83
697.80	11939.07
697.94	12147.38
698.07	11997.59
698.21	11988.22
698.34	11910.99
698.47	12152.06
698.61	11976.52
698.74	11950.78
698.87	11889.92
699.01	11564.59
699.14	11679.27
699.27	11737.79
699.40	11412.45
699.54	11468.62
699.67	11510.75
699.80	11489.69
699.94	11480.33
700.07	11527.14
700.20	11232.23
700.34	11037.97
700.47	11185.42
700.60	11117.54
700.73	11005.20
700.87	10913.92
701.00	10850.72
701.13	11096.48
701.26	11211.17
701.40	10869.45
701.53	10824.98
701.66	10745.40
701.79	10626.03
701.93	10562.84
702.06	10501.98
702.19	10644.76
702.32	10523.05
702.46	10345.17
702.59	10420.06
702.72	10422.41
702.85	10260.91
702.99	10478.58
703.12	10324.10
703.25	10078.35
703.38	10061.96
703.51	10150.90
703.65	10026.86
703.78	10326.44
703.91	10211.76
704.04	10010.47
704.17	9966.00
704.31	9870.04
704.44	9795.14
704.57	9912.17
704.70	9792.80
704.83	9675.77
704.96	9554.07
705.10	9525.98
705.23	9493.21
>>>>>End Processed Spectral Data<<<<<
