SpectraSuite Data File
++++++++++++++++++++++++++++++++++++
Date: Fri Oct 18 13:58:16 GMT-05:00 2013
User: bianchi
Dark Spectrum Present: No
Reference Spectrum Present: No
Number of Sampled Component Spectra: 1
Spectrometers: USB2+H05261
Integration Time (usec): 50000 (USB2+H05261)
Spectra Averaged: 1 (USB2+H05261)
Boxcar Smoothing: 0 (USB2+H05261)
Correct for Electrical Dark: No (USB2+H05261)
Strobe/Lamp Enabled: No (USB2+H05261)
Correct for Detector Non-linearity: No (USB2+H05261)
Correct for Stray Light: No (USB2+H05261)
Number of Pixels in Processed Spectrum: 2048
>>>>>Begin Processed Spectral Data<<<<<
365.73	0.00
365.92	0.00
366.12	0.00
366.32	0.00
366.52	0.00
366.72	0.00
366.91	0.00
367.11	0.00
367.31	0.00
367.51	0.00
367.70	0.00
367.90	0.00
368.10	0.00
368.30	0.00
368.49	0.00
368.69	0.00
368.89	0.00
369.09	0.00
369.28	0.00
369.48	0.00
369.68	0.00
369.87	0.00
370.07	0.00
370.27	0.00
370.47	0.00
370.66	23.41
370.86	77.24
371.06	149.79
371.25	140.43
371.45	173.20
371.65	133.41
371.84	196.60
372.04	250.44
372.24	208.31
372.44	142.77
372.63	161.50
372.83	222.35
373.03	257.46
373.22	159.16
373.42	229.37
373.62	189.58
373.81	259.80
374.01	299.59
374.21	234.05
374.40	262.14
374.60	276.18
374.79	231.71
374.99	107.66
375.19	238.73
375.38	290.23
375.58	238.73
375.78	203.63
375.97	203.63
376.17	315.97
376.37	243.42
376.56	292.57
376.76	227.03
376.95	306.61
377.15	198.95
377.35	292.57
377.54	250.44
377.74	217.67
377.93	273.84
378.13	259.80
378.33	271.50
378.52	234.05
378.72	262.14
378.91	297.25
379.11	332.36
379.31	280.86
379.50	285.55
379.70	290.23
379.89	241.08
380.09	243.42
380.28	278.52
380.48	388.53
380.68	339.38
380.87	287.89
381.07	362.78
381.26	318.31
381.46	308.95
381.65	353.42
381.85	376.83
382.04	294.91
382.24	341.72
382.43	304.27
382.63	362.78
382.83	369.80
383.02	358.10
383.22	430.66
383.41	353.42
383.61	369.80
383.80	348.74
384.00	287.89
384.19	337.04
384.39	409.59
384.58	414.27
384.78	489.17
384.97	355.76
385.17	327.68
385.36	360.44
385.56	454.06
385.75	423.64
385.95	428.32
386.14	344.06
386.34	360.44
386.53	440.02
386.72	423.64
386.92	423.64
387.11	390.87
387.31	493.85
387.50	369.80
387.70	440.02
387.89	496.19
388.09	451.72
388.28	346.40
388.48	444.70
388.67	425.98
388.86	418.96
389.06	430.66
389.25	545.34
389.45	528.96
389.64	475.13
389.84	437.68
390.03	468.11
390.22	491.51
390.42	425.98
390.61	470.45
390.81	463.43
391.00	465.77
391.19	557.05
391.39	421.30
391.58	575.77
391.78	561.73
391.97	505.56
392.16	498.53
392.36	613.22
392.55	587.47
392.75	617.90
392.94	533.64
393.13	578.11
393.33	458.74
393.52	615.56
393.71	505.56
393.91	493.85
394.10	564.07
394.29	528.96
394.49	669.39
394.68	535.98
394.88	571.09
395.07	496.19
395.26	571.09
395.46	566.41
395.65	580.45
395.84	678.76
396.04	683.44
396.23	543.00
396.42	655.35
396.62	617.90
396.81	671.73
397.00	578.11
397.19	674.07
397.39	650.67
397.58	653.01
397.77	655.35
397.97	723.23
398.16	627.26
398.35	730.25
398.55	601.52
398.74	692.80
398.93	770.04
399.12	662.37
399.32	643.65
399.51	645.99
399.70	697.48
399.90	767.70
400.09	699.82
400.28	739.61
400.47	725.57
400.67	751.31
400.86	758.33
401.05	711.52
401.24	746.63
401.44	791.10
401.63	866.00
401.82	713.86
402.01	812.17
402.21	798.12
402.40	758.33
402.59	826.21
402.78	774.72
402.97	800.46
403.17	873.02
403.36	826.21
403.55	868.34
403.74	889.40
403.93	931.53
404.13	880.04
404.32	882.38
404.51	971.32
404.70	889.40
404.89	922.17
405.09	1006.43
405.28	964.30
405.47	910.47
405.66	952.60
405.85	931.53
406.05	943.24
406.24	1041.54
406.43	968.98
406.62	976.00
406.81	1039.20
407.00	1034.52
407.20	1057.92
407.39	1036.86
407.58	950.26
407.77	1006.43
407.96	1041.54
408.15	1074.31
408.34	1076.65
408.54	1006.43
408.73	964.30
408.92	1151.54
409.11	992.39
409.30	1121.12
409.49	1207.72
409.68	1081.33
409.87	1121.12
410.07	1242.82
410.26	1163.25
410.45	1139.84
410.64	1186.65
410.83	1205.38
411.02	1256.87
411.21	1184.31
411.40	1263.89
411.59	1256.87
411.78	1186.65
411.98	1224.10
412.17	1266.23
412.36	1242.82
412.55	1385.60
412.74	1341.13
412.93	1306.02
413.12	1238.14
413.31	1364.53
413.50	1383.26
413.69	1345.81
413.88	1383.26
414.07	1547.09
414.26	1397.30
414.45	1350.49
414.64	1394.96
414.83	1427.73
415.02	1535.39
415.22	1661.78
415.41	1547.09
415.60	1540.07
415.79	1514.33
415.98	1680.50
416.17	1692.21
416.36	1603.27
416.55	1605.61
416.74	1643.06
416.93	1650.08
417.12	1582.20
417.31	1582.20
417.50	1727.32
417.69	1764.76
417.88	1739.02
418.07	1678.16
418.26	1692.21
418.45	1666.46
418.64	1732.00
418.83	1820.94
419.02	1818.60
419.21	1837.32
419.39	1877.11
419.58	1713.27
419.77	1736.68
419.96	1820.94
420.15	1799.87
420.34	1926.26
420.53	1771.79
420.72	2008.18
420.91	1886.47
421.10	2050.31
421.29	1898.17
421.48	1956.69
421.67	1970.73
421.86	1844.34
422.05	1970.73
422.24	2008.18
422.43	1989.46
422.61	2045.63
422.80	1949.67
422.99	2097.12
423.18	1984.77
423.37	2017.54
423.56	1996.48
423.75	1994.14
423.94	1940.30
424.13	1799.87
424.32	1973.07
424.50	2050.31
424.69	2010.52
424.88	2120.53
425.07	2043.29
425.26	1994.14
425.45	1940.30
425.64	2071.37
425.83	1987.11
426.01	2127.55
426.20	2071.37
426.39	2071.37
426.58	1998.82
426.77	2097.12
426.96	2162.66
427.15	2125.21
427.33	2148.61
427.52	2157.97
427.71	2122.87
427.90	2097.12
428.09	2092.44
428.28	2143.93
428.46	2225.85
428.65	2228.19
428.84	2188.40
429.03	2312.45
429.22	2108.82
429.40	2207.13
429.59	2228.19
429.78	2129.89
429.97	2181.38
430.16	2202.44
430.34	2270.32
430.53	2335.85
430.72	2338.20
430.91	2214.15
431.10	2284.36
431.28	2310.11
431.47	2352.24
431.66	2427.14
431.85	2363.94
432.03	2438.84
432.22	2497.35
432.41	2443.52
432.60	2448.20
432.79	2597.99
432.97	2431.82
433.16	2455.22
433.35	2443.52
433.54	2581.61
433.72	2546.50
433.91	2555.86
434.10	2548.84
434.28	2490.33
434.47	2523.10
434.66	2518.42
434.85	2523.10
435.03	2457.56
435.22	2572.25
435.41	2708.00
435.59	2661.19
435.78	2658.85
435.97	2682.25
436.16	2588.63
436.34	2551.18
436.53	2705.66
436.72	2726.72
436.90	2658.85
437.09	2766.51
437.28	2705.66
437.46	2785.24
437.65	2712.68
437.84	2705.66
438.02	2818.00
438.21	2705.66
438.40	2726.72
438.58	2710.34
438.77	2810.98
438.96	2888.22
439.14	2836.73
439.33	2878.86
439.52	2768.85
439.70	2813.32
439.89	3040.36
440.08	2981.84
440.26	2991.20
440.45	3075.46
440.63	3101.21
440.82	3141.00
441.01	3126.96
441.19	3056.74
441.38	3082.49
441.57	3176.11
441.75	3267.39
441.94	3267.39
442.12	3300.16
442.31	3258.03
442.50	3236.96
442.68	3316.54
442.87	3393.78
443.05	3218.24
443.24	3372.71
443.43	3463.99
443.61	3400.80
443.80	3492.08
443.98	3344.63
444.17	3290.79
444.35	3468.67
444.54	3499.10
444.73	3400.80
444.91	3339.94
445.10	3417.18
445.28	3344.63
445.47	3449.95
445.65	3417.18
445.84	3466.33
446.02	3365.69
446.21	3524.85
446.39	3375.05
446.58	3557.61
446.77	3564.64
446.95	3503.78
447.14	3510.80
447.32	3529.53
447.51	3527.19
447.69	3531.87
447.88	3480.38
448.06	3492.08
448.25	3531.87
448.43	3508.46
448.62	3445.27
448.80	3562.30
448.99	3471.01
449.17	3597.40
449.36	3522.51
449.54	3688.68
449.73	3716.77
449.91	3637.19
450.10	3726.13
450.28	3700.39
450.46	3660.60
450.65	3641.87
450.83	3831.46
451.02	3908.69
451.20	3803.37
451.39	3786.99
451.57	3646.55
451.76	3859.54
451.94	3754.22
452.13	3768.26
452.31	3887.63
452.49	3789.33
452.68	3887.63
452.86	3772.94
453.05	3857.20
453.23	3953.16
453.42	3868.91
453.60	3822.09
453.78	4025.72
453.97	3990.61
454.15	3906.35
454.34	3819.75
454.52	4002.32
454.70	4049.13
454.89	3861.88
455.07	4009.34
455.26	4056.15
455.44	4007.00
455.62	4079.55
455.81	4072.53
455.99	4152.11
456.17	4114.66
456.36	4109.98
456.54	4194.24
456.73	4135.73
456.91	4100.62
457.09	4250.41
457.28	4358.08
457.46	4283.18
457.64	4341.69
457.83	4449.36
458.01	4304.25
458.19	4437.66
458.38	4344.03
458.56	4355.74
458.74	4362.76
458.93	4360.42
459.11	4386.16
459.29	4472.76
459.48	4442.34
459.66	4596.81
459.84	4615.54
460.03	4566.39
460.21	4526.60
460.39	4379.14
460.57	4580.43
460.76	4456.38
460.94	4706.82
461.12	4636.60
461.31	4592.13
461.49	4477.44
461.67	4493.83
461.85	4739.58
462.04	4657.67
462.22	4929.17
462.40	4702.14
462.59	4634.26
462.77	4739.58
462.95	4777.03
463.13	4870.65
463.32	4718.52
463.50	4706.82
463.68	4901.08
463.86	4910.44
464.05	4744.27
464.23	4924.49
464.41	4926.83
464.59	4814.48
464.78	4922.15
464.96	4870.65
465.14	4968.96
465.32	5006.41
465.50	4840.23
465.69	4903.42
465.87	4910.44
466.05	4844.91
466.23	4940.87
466.41	4959.60
466.60	5163.22
466.78	5018.11
466.96	4966.62
467.14	4973.64
467.32	5132.79
467.51	5256.84
467.69	5055.56
467.87	5158.54
468.05	5102.37
468.23	5020.45
468.41	4961.94
468.60	5207.69
468.78	5093.01
468.96	5245.14
469.14	5317.70
469.32	5270.89
469.50	5184.29
469.69	5296.63
469.87	5380.89
470.05	5376.21
470.23	5490.90
470.41	5481.53
470.59	5453.45
470.77	5397.28
470.95	5565.79
471.14	5572.82
471.32	5418.34
471.50	5631.33
471.68	5570.48
471.86	5612.60
472.04	5640.69
472.22	5783.46
472.40	5565.79
472.58	5624.31
472.77	5776.44
472.95	5769.42
473.13	5863.04
473.31	5809.21
473.49	5879.43
473.67	5935.60
473.85	5682.82
474.03	6017.52
474.21	6242.21
474.39	6001.13
474.57	6125.18
474.75	6190.72
474.93	6136.88
475.12	6083.05
475.30	6127.52
475.48	6125.18
475.66	6303.06
475.84	6317.11
476.02	6438.81
476.20	6448.18
476.38	6637.76
476.56	6424.77
476.74	6539.46
476.92	6483.28
477.10	6509.03
477.28	6539.46
477.46	6534.78
477.64	6834.36
477.82	6672.87
478.00	6888.20
478.18	6853.09
478.36	6909.26
478.54	6899.90
478.72	7009.90
478.90	7222.89
479.08	7267.36
479.26	7119.91
479.44	7133.95
479.62	7321.20
479.80	7344.60
479.98	7311.83
480.16	7414.82
480.34	7517.80
480.52	7693.34
480.70	7541.21
480.88	7449.93
481.06	7723.77
481.24	7779.94
481.41	7857.18
481.59	7793.98
481.77	7894.63
481.95	7922.71
482.13	7913.35
482.31	8131.02
482.49	8191.88
482.67	8224.64
482.85	8318.26
483.03	8437.63
483.21	8575.72
483.39	8535.93
483.57	8627.21
483.74	8655.30
483.92	8819.14
484.10	8734.88
484.28	8681.05
484.46	8910.42
484.64	9158.52
484.82	8929.14
485.00	9116.39
485.18	9263.84
485.35	9357.46
485.53	9329.38
485.71	9357.46
485.89	9446.40
486.07	9675.77
486.25	9696.84
486.43	9790.46
486.61	9989.41
486.78	9837.27
486.96	9905.15
487.14	10155.58
487.32	9795.14
487.50	10139.20
487.68	10019.83
487.85	10228.14
488.03	10544.11
488.21	10604.97
488.39	10576.88
488.57	10682.20
488.75	10558.16
488.92	10899.87
489.10	10981.79
489.28	11002.86
489.46	10995.84
489.64	11105.84
489.81	11321.17
489.99	11311.81
490.17	11398.41
490.35	11236.91
490.53	11449.90
490.70	11501.39
490.88	11461.60
491.06	11976.52
491.24	11714.38
491.41	11644.17
491.59	12175.47
491.77	12058.44
491.95	11868.86
492.13	12018.65
492.30	12365.05
492.48	12198.87
492.66	12243.34
492.84	12325.26
493.01	12442.29
493.19	12442.29
493.37	12690.38
493.54	12741.88
493.72	12959.55
493.90	12774.64
494.08	12837.84
494.25	12954.87
494.43	13298.92
494.61	13383.18
494.79	13338.71
494.96	13429.99
495.14	13188.92
495.32	13511.91
495.49	13617.24
495.67	13659.37
495.85	13413.61
496.02	14052.58
496.20	13951.93
496.38	13701.50
496.55	13961.30
496.73	14097.05
496.91	14260.88
497.09	14094.71
497.26	14232.80
497.44	14218.75
497.62	14429.40
497.79	14366.21
497.97	14457.49
498.14	14525.36
498.32	14974.75
498.50	14738.35
498.67	14801.55
498.85	15026.24
499.03	14874.10
499.20	14906.87
499.38	15194.76
499.56	15241.57
499.73	15426.47
499.91	15578.61
500.08	15508.39
500.26	15384.34
500.44	15454.56
500.61	15683.93
500.79	15531.80
500.97	15686.27
501.14	15852.45
501.32	15548.18
501.49	15800.96
501.67	15733.08
501.84	15840.75
502.02	15929.69
502.20	16049.05
502.37	16212.89
502.55	15889.90
502.72	16025.65
502.90	16166.08
503.07	16208.21
503.25	15957.77
503.43	16070.12
503.60	16531.20
503.78	16573.33
503.95	16568.65
504.13	16526.52
504.30	16566.31
504.48	16744.19
504.65	16673.98
504.83	16776.96
505.01	16973.56
505.18	16821.43
505.36	17158.47
505.53	16987.61
505.71	16954.84
505.88	17097.61
506.06	16936.12
506.23	17174.85
506.41	17245.07
506.58	17205.28
506.76	17046.12
506.93	17626.57
507.11	17163.15
507.28	17561.04
507.46	17350.39
507.63	17652.32
507.81	17724.88
507.98	17813.82
508.16	17715.51
508.33	17909.78
508.50	17776.37
508.68	17982.34
508.85	17874.67
509.03	18054.89
509.20	18380.23
509.38	18581.51
509.55	18178.94
509.73	18174.26
509.90	17958.93
510.08	18242.14
510.25	18284.26
510.42	18359.16
510.60	18579.17
510.77	18480.87
510.95	18464.49
511.12	18532.36
511.30	18324.05
511.47	18803.86
511.64	18607.26
511.82	19194.73
511.99	19044.94
512.17	19094.09
512.34	19049.62
512.51	19201.76
512.69	18934.93
512.86	19328.14
513.04	19302.40
513.21	19590.28
513.38	19482.62
513.56	19405.38
513.73	19227.50
513.90	19456.87
514.08	19281.33
514.25	19506.02
514.43	19627.73
514.60	19864.13
514.77	19763.48
514.95	19957.75
515.12	19674.54
515.29	19967.11
515.47	19784.55
515.64	19981.15
515.81	19948.39
515.99	19971.79
516.16	20341.60
516.33	20460.96
516.51	20308.83
516.68	20107.54
516.85	20262.02
517.03	20463.30
517.20	20496.07
517.37	20411.81
517.54	20339.26
517.72	20493.73
517.89	20402.45
518.06	20374.36
518.24	20692.68
518.41	20442.24
518.58	20816.72
518.75	20847.15
518.93	20936.09
519.10	20889.28
519.27	20896.30
519.45	21060.14
519.62	21003.97
519.79	21137.38
519.96	21113.97
520.14	21015.67
520.31	21034.39
520.48	21315.26
520.65	21137.38
520.83	21458.03
521.00	20945.45
521.17	21355.05
521.34	21296.53
521.52	21397.18
521.69	21731.87
521.86	21521.23
522.03	21830.18
522.20	21776.34
522.38	21745.92
522.55	21736.56
522.72	21537.61
522.89	21752.94
523.07	22345.09
523.24	21905.07
523.41	22183.60
523.58	22052.53
523.75	22333.39
523.92	21788.05
524.10	22122.74
524.27	21813.79
524.44	22305.31
524.61	22558.08
524.78	22534.68
524.96	22307.65
525.13	22506.59
525.30	22611.92
525.47	22541.70
525.64	22295.94
525.81	22405.95
525.98	22717.24
526.16	22710.22
526.33	22778.09
526.50	22459.78
526.67	22803.84
526.84	22696.17
527.01	22810.86
527.18	22967.68
527.36	22647.02
527.53	23033.21
527.70	23302.37
527.87	23370.25
528.04	23164.28
528.21	23044.91
528.38	23054.28
528.55	23243.86
528.72	23243.86
528.89	23075.34
529.07	23316.42
529.24	23463.87
529.41	23236.84
529.58	23697.92
529.75	23386.63
529.92	23630.05
530.09	23477.91
530.26	23742.39
530.43	23653.45
530.60	23330.46
530.77	23424.08
530.94	23770.48
531.11	23475.57
531.28	23903.89
531.46	23679.20
531.63	23751.76
531.80	23805.59
531.97	23775.16
532.14	23995.17
532.31	24067.73
532.48	24084.11
532.65	24074.75
532.82	24203.48
532.99	23836.02
533.16	24144.97
533.33	24264.33
533.50	24493.71
533.67	24177.73
533.84	23831.33
534.01	24348.59
534.18	24114.54
534.35	24449.24
534.52	24814.36
534.69	24437.53
534.86	24629.46
535.03	24503.07
535.20	24507.75
535.37	24835.42
535.54	24479.66
535.71	24694.99
535.88	24725.42
536.05	24699.67
536.22	25085.86
536.38	25184.16
536.55	24760.53
536.72	24940.75
536.89	24664.57
537.06	24938.41
537.23	24835.42
537.40	24734.78
537.57	24716.06
537.74	25160.76
537.91	25102.25
538.08	25275.45
538.25	25200.55
538.42	24662.22
538.59	25507.16
538.75	24933.73
538.92	25078.84
539.09	25252.04
539.26	25369.07
539.43	25418.22
539.60	25586.74
539.77	25345.66
539.94	25673.34
540.11	25577.37
540.28	25488.43
540.44	25535.24
540.61	25085.86
540.78	25460.35
540.95	25418.22
541.12	25600.78
541.29	25778.66
541.46	25851.22
541.62	25481.41
541.79	25539.93
541.96	25516.52
542.13	25649.93
542.30	25741.21
542.47	25755.26
542.63	26101.65
542.80	25984.63
542.97	26265.49
543.14	26403.58
543.31	26235.06
543.48	26230.38
543.64	26391.88
543.81	26307.62
543.98	26703.17
544.15	26459.76
544.32	26824.88
544.48	26614.23
544.65	26122.72
544.82	26515.93
544.99	26066.55
545.16	26309.96
545.32	26246.77
545.49	27281.28
545.66	26682.11
545.83	26590.83
546.00	27152.55
546.16	26656.36
546.33	26281.88
546.50	26438.69
546.67	26771.05
546.83	26316.98
547.00	26958.29
547.17	26677.43
547.34	26913.82
547.50	26590.83
547.67	27494.27
547.84	27194.68
548.00	27026.17
548.17	27278.94
548.34	26867.01
548.51	27218.09
548.67	27009.78
548.84	27201.71
549.01	27346.82
549.18	27206.39
549.34	27056.59
549.51	27005.10
549.68	26906.80
549.84	26874.03
550.01	27515.34
550.18	27456.82
550.34	27168.94
550.51	27253.20
550.68	27295.33
550.84	27185.32
551.01	27267.24
551.18	27393.63
551.34	27087.02
551.51	27300.01
551.68	27300.01
551.84	27412.35
552.01	27527.04
552.18	27623.00
552.34	27646.41
552.51	27838.33
552.68	27300.01
552.84	27470.87
553.01	27810.25
553.18	27812.59
553.34	27786.84
553.51	27594.92
553.67	27835.99
553.84	28208.14
554.01	27981.10
554.17	27990.47
554.34	28226.86
554.51	27995.15
554.67	27999.83
554.84	27941.32
555.00	27871.10
555.17	27733.01
555.33	28158.99
555.50	27835.99
555.67	28060.68
555.83	28386.02
556.00	28039.62
556.16	28250.27
556.33	27810.25
556.50	28259.63
556.66	28912.64
556.83	27992.81
556.99	28212.82
557.16	28685.61
557.32	28697.31
557.49	28460.91
557.65	28187.07
557.82	28292.40
557.98	28505.38
558.15	28371.97
558.32	28489.00
558.48	28425.81
558.65	28444.53
558.81	28187.07
558.98	28400.06
559.14	28601.35
559.31	28664.54
559.47	28591.98
559.64	28521.77
559.80	28407.08
559.97	28765.18
560.13	28535.81
560.30	28847.10
560.46	28900.94
560.63	28547.51
560.79	28814.34
560.96	29188.82
561.12	28776.89
561.29	28201.11
561.45	28858.81
561.61	28788.59
561.78	29003.92
561.94	28741.78
562.11	29001.58
562.27	28690.29
562.44	28996.90
562.60	28608.37
562.77	28783.91
562.93	28697.31
563.10	29200.52
563.26	28704.33
563.42	29329.25
563.59	28865.83
563.75	28945.41
563.92	29032.00
564.08	28563.90
564.24	28591.98
564.41	29055.41
564.57	28746.46
564.74	29102.22
564.90	29172.44
565.07	29003.92
565.23	28989.88
565.39	28903.28
565.56	29338.62
565.72	28720.71
565.88	29223.93
566.05	28936.04
566.21	29532.88
566.38	29275.42
566.54	29179.46
566.70	28996.90
566.87	29436.92
567.03	29076.48
567.19	29336.27
567.36	29357.34
567.52	29329.25
567.68	29177.12
567.85	29156.05
568.01	29209.89
568.17	29509.47
568.34	29853.53
568.50	29626.50
568.66	29509.47
568.83	29640.54
568.99	29336.27
569.15	29331.59
569.32	29008.60
569.48	29039.03
569.64	29240.31
569.81	28900.94
569.97	29399.47
570.13	29406.49
570.30	29364.36
570.46	29436.92
570.62	29273.08
570.78	29085.84
570.95	29209.89
571.11	29071.79
571.27	29151.37
571.43	29675.65
571.60	29567.99
571.76	29619.48
571.92	29675.65
572.09	29825.45
572.25	29502.45
572.41	29963.54
572.57	29642.88
572.74	29771.61
572.90	29591.39
573.06	29097.54
573.22	29315.21
573.38	29790.34
573.55	29521.18
573.71	29596.07
573.87	29755.23
574.03	29675.65
574.20	29692.04
574.36	29125.63
574.52	29310.53
574.68	29551.60
574.84	29696.72
575.01	29542.24
575.17	29670.97
575.33	29343.30
575.49	29387.77
575.65	29677.99
575.82	29692.04
575.98	29560.97
576.14	29872.26
576.30	29586.71
576.46	29759.91
576.62	29357.34
576.79	29654.59
576.95	29408.83
577.11	29853.53
577.27	29778.64
577.43	29448.62
577.59	29605.44
577.75	29923.75
577.92	29235.63
578.08	29294.14
578.24	29481.39
578.40	29504.79
578.56	29567.99
578.72	29823.11
578.88	30164.82
579.04	30052.48
579.21	29682.67
579.37	29556.28
579.53	29851.19
579.69	29436.92
579.85	29434.58
580.01	29853.53
580.17	29326.91
580.33	29900.34
580.49	29986.94
580.65	29930.77
580.82	29823.11
580.98	30010.35
581.14	29874.60
581.30	29638.20
581.46	29607.78
581.62	29666.29
581.78	29525.86
581.94	30052.48
582.10	29624.16
582.26	29675.65
582.42	29907.37
582.58	29923.75
582.74	30022.05
582.90	29825.45
583.06	29989.28
583.22	29942.47
583.38	29436.92
583.54	30160.14
583.70	29645.23
583.86	30045.46
584.02	29593.73
584.18	29813.74
584.34	29621.82
584.50	29956.52
584.66	29883.96
584.82	29834.81
584.98	29869.92
585.14	29675.65
585.30	30019.71
585.46	29436.92
585.62	29589.05
585.78	29993.97
585.94	29900.34
586.10	29764.59
586.26	29951.84
586.42	29823.11
586.58	30204.61
586.74	29972.90
586.90	29287.12
587.06	29785.66
587.22	30057.16
587.38	29640.54
587.54	30066.52
587.70	29916.73
587.86	30120.35
588.02	29933.11
588.18	29984.60
588.34	30188.23
588.49	29748.21
588.65	29865.24
588.81	29853.53
588.97	30160.14
589.13	29766.93
589.29	29717.78
589.45	29949.50
589.61	30082.91
589.77	30162.48
589.93	30543.99
590.08	30110.99
590.24	30621.23
590.40	30246.74
590.56	30630.59
590.72	29968.22
590.88	30314.62
591.04	30099.29
591.20	30628.25
591.35	30478.46
591.51	30466.75
591.67	30558.03
591.83	30553.35
591.99	30342.70
592.15	30387.18
592.31	30157.80
592.46	30108.65
592.62	30129.72
592.78	30235.04
592.94	30387.18
593.10	30171.85
593.26	30267.81
593.41	30272.49
593.57	30033.75
593.73	30267.81
593.89	30335.68
594.05	30469.09
594.20	29970.56
594.36	30228.02
594.52	29905.02
594.68	30436.33
594.84	30218.66
594.99	30183.55
595.15	30078.22
595.31	30522.93
595.47	30185.89
595.62	30824.86
595.78	30206.95
595.94	30546.33
596.10	30595.48
596.25	30136.74
596.41	30410.58
596.57	30352.07
596.73	30148.44
596.88	30171.85
597.04	30670.38
597.20	30637.61
597.36	30412.92
597.51	30366.11
597.67	30448.03
597.83	30281.85
597.99	30389.52
598.14	30143.76
598.30	29993.97
598.46	30724.21
598.61	30572.08
598.77	30438.67
598.93	30670.38
599.09	30328.66
599.24	30499.52
599.40	30558.03
599.56	30670.38
599.71	30384.83
599.87	30789.75
600.03	30218.66
600.18	30382.49
600.34	30066.52
600.50	30078.22
600.65	30410.58
600.81	30656.34
600.97	30551.01
601.12	31016.78
601.28	30710.17
601.44	30560.37
601.59	30586.12
601.75	30686.76
601.91	30670.38
602.06	30195.25
602.22	30672.72
602.37	30480.80
602.53	30218.66
602.69	30595.48
602.84	30778.04
603.00	30483.14
603.16	30422.28
603.31	30302.92
603.47	30314.62
603.62	30359.09
603.78	30419.94
603.94	30253.76
604.09	30321.64
604.25	30099.29
604.40	30064.18
604.56	30391.86
604.71	30595.48
604.87	30555.69
605.03	30504.20
605.18	30836.56
605.34	30462.07
605.49	30232.70
605.65	30157.80
605.80	30139.08
605.96	30293.55
606.12	30373.13
606.27	30490.16
606.43	30527.61
606.58	30478.46
606.74	30373.13
606.89	30593.14
607.05	30473.78
607.20	30492.50
607.36	30455.05
607.51	30572.08
607.67	30312.28
607.82	29900.34
607.98	30082.91
608.13	30134.40
608.29	30274.83
608.44	30342.70
608.60	30047.80
608.75	30291.21
608.91	30213.98
609.06	30419.94
609.22	30155.46
609.37	30221.00
609.53	30314.62
609.68	30195.25
609.84	30064.18
609.99	30148.44
610.15	30031.41
610.30	30382.49
610.46	30008.01
610.61	30319.30
610.76	30216.32
610.92	30284.19
611.07	30284.19
611.23	30127.38
611.38	29909.71
611.54	30246.74
611.69	29773.95
611.84	29855.87
612.00	29610.12
612.15	29883.96
612.31	30263.13
612.46	29785.66
612.62	29961.20
612.77	30059.50
612.92	30307.60
613.08	29549.26
613.23	30174.19
613.39	29947.15
613.54	29677.99
613.69	29813.74
613.85	29909.71
614.00	29914.39
614.15	29963.54
614.31	29741.19
614.46	30307.60
614.62	30064.18
614.77	29567.99
614.92	29879.28
615.08	30054.82
615.23	29738.85
615.38	29734.17
615.54	29677.99
615.69	29572.67
615.84	29394.79
616.00	29479.05
616.15	29708.42
616.30	29855.87
616.46	29605.44
616.61	29755.23
616.76	29757.57
616.92	29362.02
617.07	29652.25
617.22	29710.76
617.37	29523.52
617.53	29249.67
617.68	29418.19
617.83	29518.84
617.99	29567.99
618.14	29865.24
618.29	29645.23
618.45	29172.44
618.60	29549.26
618.75	29488.41
618.90	29769.27
619.06	29362.02
619.21	29329.25
619.36	29415.85
619.51	29223.93
619.67	29097.54
619.82	29301.17
619.97	29441.60
620.12	29226.27
620.28	29350.32
620.43	29132.65
620.58	29514.16
620.73	29570.33
620.89	29462.66
621.04	29333.93
621.19	29263.72
621.34	29315.21
621.49	28858.81
621.65	29223.93
621.80	29308.19
621.95	28978.17
622.10	28903.28
622.25	29127.97
622.41	29347.98
622.56	29069.45
622.71	29333.93
622.86	29050.73
623.01	28975.83
623.16	29029.66
623.32	28985.19
623.47	29282.44
623.62	29291.80
623.77	28559.22
623.92	29027.32
624.07	28620.07
624.23	28807.31
624.38	29062.43
624.53	29074.13
624.68	28851.78
624.83	29247.33
624.98	28954.77
625.13	28617.73
625.29	28856.46
625.44	28987.53
625.59	28044.30
625.74	28521.77
625.89	28390.70
626.04	28804.97
626.19	28751.14
626.34	28734.76
626.49	28442.19
626.65	28734.76
626.80	28624.75
626.95	28584.96
627.10	28706.67
627.25	28638.80
627.40	28762.84
627.55	28236.22
627.70	28327.50
627.85	28493.68
628.00	28187.07
628.15	28093.45
628.30	28322.82
628.45	28624.75
628.60	28231.54
628.76	28556.88
628.91	28336.87
629.06	28570.92
629.21	28559.22
629.36	28397.72
629.51	28491.34
629.66	28449.21
629.81	27974.08
629.96	28086.43
630.11	27922.59
630.26	27969.40
630.41	27946.00
630.56	28189.41
630.71	27821.95
630.86	27988.13
631.01	27936.63
631.16	28067.70
631.31	27498.95
631.46	27765.78
631.61	27978.76
631.76	28046.64
631.91	27779.82
632.06	27688.54
632.21	27597.26
632.36	27924.93
632.51	27690.88
632.66	27821.95
632.81	27452.14
632.96	27931.95
633.10	27988.13
633.25	27995.15
633.40	27861.74
633.55	27903.87
633.70	27929.61
633.85	27302.35
634.00	27316.39
634.15	27487.25
634.30	27590.24
634.45	27805.56
634.60	27730.67
634.75	27730.67
634.90	27534.06
635.05	27513.00
635.19	27835.99
635.34	27548.11
635.49	27576.19
635.64	27585.55
635.79	27847.69
635.94	27747.05
636.09	27777.48
636.24	27051.91
636.39	27152.55
636.53	27199.37
636.68	27084.68
636.83	27140.85
636.98	27580.87
637.13	27370.22
637.28	27494.27
637.43	27510.66
637.57	27412.35
637.72	27227.45
637.87	27222.77
638.02	27517.68
638.17	27222.77
638.32	27278.94
638.46	27307.03
638.61	26930.20
638.76	27117.45
638.91	27150.21
639.06	27051.91
639.20	27019.14
639.35	26906.80
639.50	27201.71
639.65	27435.76
639.80	27637.05
639.94	27019.14
640.09	27065.96
640.24	27180.64
640.39	26827.22
640.54	26742.96
640.68	26618.91
640.83	27243.84
640.98	26656.36
641.13	26457.42
641.27	27005.10
641.42	26733.60
641.57	26731.26
641.72	27143.19
641.86	26635.30
642.01	26792.11
642.16	26703.17
642.31	26426.99
642.45	26635.30
642.60	26382.52
642.75	26558.06
642.90	26546.36
643.04	26410.60
643.19	26469.12
643.34	27108.08
643.48	26941.91
643.63	26441.03
643.78	26799.13
643.93	26476.14
644.07	26593.17
644.22	26579.12
644.37	26518.27
644.51	26225.70
644.66	26338.05
644.81	26586.15
644.95	26377.84
645.10	26298.26
645.25	26370.82
645.39	26356.77
645.54	26047.82
645.69	26307.62
645.83	26359.11
645.98	26324.01
646.13	26370.82
646.27	26441.03
646.42	26160.17
646.57	26171.87
646.71	26214.00
646.86	26190.59
647.00	26403.58
647.15	26363.79
647.30	25991.65
647.44	25722.49
647.59	26033.78
647.74	26211.66
647.88	26118.04
648.03	25738.87
648.17	26403.58
648.32	26132.08
648.47	26459.76
648.61	26352.09
648.76	26171.87
648.90	26197.62
649.05	26494.86
649.20	25715.47
649.34	25715.47
649.49	25706.10
649.63	25781.00
649.78	25825.47
649.92	25776.32
650.07	25937.82
650.21	25893.35
650.36	25933.14
650.51	26038.46
650.65	26153.15
650.80	25727.17
650.94	26017.40
651.09	25399.49
651.23	25673.34
651.38	25741.21
651.52	25486.09
651.67	25701.42
651.81	25879.30
651.96	25998.67
652.10	25762.28
652.25	25586.74
652.39	25986.97
652.54	25565.67
652.68	25867.60
652.83	25584.40
652.97	25848.88
653.12	25699.08
653.26	25465.03
653.41	25745.89
653.55	25364.39
653.70	25238.00
653.84	25610.14
653.99	25610.14
654.13	25530.56
654.27	25151.40
654.42	25507.16
654.56	25523.54
654.71	25537.59
654.85	25186.50
655.00	25479.07
655.14	25326.94
655.29	25373.75
655.43	25221.61
655.57	25240.34
655.72	25343.32
655.86	25048.41
656.01	25472.05
656.15	25315.23
656.30	25308.21
656.44	25336.30
656.58	24982.88
656.73	25118.63
656.87	25195.87
657.01	25130.33
657.16	25193.53
657.30	25233.32
657.45	24959.47
657.59	25263.74
657.73	25137.35
657.88	25242.68
658.02	25001.60
658.16	24947.77
658.31	24751.17
658.45	24992.24
658.60	24723.08
658.74	24837.76
658.88	24940.75
659.03	24821.38
659.17	24680.95
659.31	24774.57
659.46	24987.56
659.60	25212.25
659.74	25064.80
659.89	24587.33
660.03	24872.87
660.17	24615.41
660.32	24563.92
660.46	24451.58
660.60	24587.33
660.74	24716.06
660.89	24339.23
661.03	24112.20
661.17	24449.24
661.32	24215.18
661.46	24816.70
661.60	24446.90
661.74	24212.84
661.89	24575.62
662.03	24327.53
662.17	24231.57
662.31	24009.22
662.46	24428.17
662.60	23983.47
662.74	24308.80
662.88	24212.84
663.03	24018.58
663.17	24133.26
663.31	23480.25
663.45	24065.39
663.60	23517.70
663.74	24058.37
663.88	23700.26
664.02	23639.41
664.17	23798.57
664.31	23765.80
664.45	23821.97
664.59	23744.73
664.73	23831.33
664.88	23702.61
665.02	23377.27
665.16	23433.44
665.30	23396.00
665.44	23592.60
665.59	23356.21
665.73	23377.27
665.87	23449.83
666.01	23187.69
666.15	23311.74
666.29	23330.46
666.44	23459.19
666.58	23087.04
666.72	23262.58
666.86	23293.01
667.00	23288.33
667.14	23173.64
667.28	23124.49
667.43	23084.70
667.57	22808.52
667.71	22916.19
667.85	23073.00
667.99	22625.96
668.13	22721.92
668.27	22918.53
668.41	23030.87
668.56	22644.68
668.70	22838.95
668.84	22944.27
668.98	22747.67
669.12	22707.88
669.26	22813.20
669.40	22707.88
669.54	22436.38
669.68	22295.94
669.82	22396.59
669.96	22436.38
670.10	22092.32
670.25	22185.94
670.39	22452.76
670.53	22520.63
670.67	22120.40
670.81	22190.62
670.95	22141.47
671.09	22246.79
671.23	21909.75
671.37	21965.93
671.51	22075.93
671.65	22263.18
671.79	22216.36
671.93	21947.20
672.07	21902.73
672.21	22080.61
672.35	21778.68
672.49	21511.86
672.63	21626.55
672.77	21537.61
672.91	21364.41
673.05	21348.03
673.19	21577.40
673.33	21254.40
673.47	21493.14
673.61	21488.46
673.75	21310.58
673.89	21326.96
674.03	21443.99
674.17	21123.33
674.31	21259.09
674.45	21280.15
674.59	21387.82
674.73	21238.02
674.87	21142.06
675.01	21078.86
675.15	20814.38
675.29	20772.25
675.43	20975.88
675.56	21015.67
675.70	20835.45
675.84	20695.02
675.98	20339.26
676.12	20917.37
676.26	20676.29
676.40	20561.61
676.54	20863.54
676.68	20482.03
676.82	20449.26
676.96	20346.28
677.10	20304.15
677.23	20140.31
677.37	20156.69
677.51	20205.84
677.65	20098.18
677.79	19910.94
677.93	19917.96
678.07	19733.06
678.21	19744.76
678.34	19915.62
678.48	19768.16
678.62	19826.68
678.76	19510.71
678.90	19623.05
679.04	19555.18
679.18	19438.15
679.31	19073.03
679.45	19344.53
679.59	19145.58
679.73	18625.98
679.87	19241.54
680.00	18960.68
680.14	18993.45
680.28	19056.64
680.42	19117.50
680.56	18984.09
680.70	19033.24
680.83	19063.66
680.97	18642.37
681.11	18644.71
681.25	18611.94
681.39	18696.20
681.52	18651.73
681.66	18588.53
681.80	18274.90
681.94	18389.59
682.07	18354.48
682.21	18169.58
682.35	18143.83
682.49	18064.25
682.62	18132.13
682.76	17874.67
682.90	17977.65
683.04	17877.01
683.17	18277.24
683.31	17764.67
683.45	18211.71
683.59	17886.37
683.72	17823.18
683.86	17764.67
684.00	17343.37
684.13	17565.72
684.27	17198.26
684.41	17429.97
684.55	17247.41
684.68	17249.75
684.82	17151.45
684.96	17003.99
685.09	17088.25
685.23	17308.26
685.37	16992.29
685.50	16917.39
685.64	17015.69
685.78	17092.93
685.91	16746.53
686.05	16959.52
686.19	16606.10
686.32	17062.51
686.46	16809.73
686.60	16269.06
686.73	16327.58
686.87	16339.28
687.01	16482.05
687.14	16325.24
687.28	16112.25
687.42	16446.94
687.55	16313.53
687.69	16105.23
687.82	16006.92
687.96	15992.88
688.10	15892.24
688.23	16032.67
688.37	15976.50
688.50	15768.19
688.64	15936.71
688.78	15550.52
688.91	15782.23
689.05	15613.71
689.18	15580.95
689.32	15276.68
689.46	15499.03
689.59	15477.96
689.73	15442.85
689.86	15459.24
690.00	15438.17
690.13	15143.27
690.27	15037.94
690.41	15059.01
690.54	15073.05
690.68	15082.41
690.81	15023.90
690.95	14918.57
691.08	14881.13
691.22	14862.40
691.35	14862.40
691.49	14909.21
691.62	14539.41
691.76	14743.03
691.89	14471.53
692.03	14366.21
692.16	14457.49
692.30	14293.65
692.43	14057.26
692.57	14127.47
692.70	14099.39
692.84	14253.86
692.97	14080.66
693.11	14183.65
693.24	13926.19
693.38	13951.93
693.51	13792.78
693.65	13895.76
693.78	13919.17
693.92	13628.94
694.05	13373.82
694.19	13642.98
694.32	13937.89
694.45	13549.36
694.59	13523.62
694.72	13348.08
694.86	13324.67
694.99	13092.96
695.13	13406.59
695.26	13296.58
695.39	13071.89
695.53	13338.71
695.66	13114.02
695.80	13233.39
695.93	13219.35
696.07	13027.42
696.20	12971.25
696.33	12762.94
696.47	12732.51
696.60	12638.89
696.73	12627.19
696.87	12784.01
697.00	12779.32
697.14	12362.71
697.27	12402.50
697.40	12510.16
697.54	12301.86
697.67	12201.21
697.80	12264.41
697.94	11822.05
698.07	12006.95
698.21	12081.85
698.34	11913.33
698.47	12102.91
698.61	11948.43
698.74	11887.58
698.87	11915.67
699.01	11932.05
699.14	11726.08
699.27	11782.26
699.40	11810.34
699.54	11426.50
699.67	11541.18
699.80	11531.82
699.94	11583.31
700.07	11360.96
700.20	11225.21
700.34	11157.33
700.47	11267.34
700.60	11082.44
700.73	11108.18
700.87	11185.42
701.00	11112.86
701.13	11019.24
701.26	11052.01
701.40	11126.91
701.53	10860.09
701.66	10761.78
701.79	10977.11
701.93	10871.79
702.06	10640.08
702.19	10827.32
702.32	10525.39
702.46	10768.80
702.59	10445.81
702.72	10534.75
702.85	10420.06
702.99	10391.98
703.12	10476.24
703.25	10270.27
703.38	10237.50
703.51	10197.71
703.65	10164.95
703.78	10169.63
703.91	10022.17
704.04	10340.49
704.17	10111.11
704.31	10143.88
704.44	10242.18
704.57	9881.74
704.70	9860.68
704.83	9809.19
704.96	9804.50
705.10	9706.20
705.23	9734.29
>>>>>End Processed Spectral Data<<<<<
