SpectraSuite Data File
++++++++++++++++++++++++++++++++++++
Date: Fri Oct 18 13:58:35 GMT-05:00 2013
User: bianchi
Dark Spectrum Present: No
Reference Spectrum Present: No
Number of Sampled Component Spectra: 1
Spectrometers: USB2+H05261
Integration Time (usec): 50000 (USB2+H05261)
Spectra Averaged: 1 (USB2+H05261)
Boxcar Smoothing: 0 (USB2+H05261)
Correct for Electrical Dark: No (USB2+H05261)
Strobe/Lamp Enabled: No (USB2+H05261)
Correct for Detector Non-linearity: No (USB2+H05261)
Correct for Stray Light: No (USB2+H05261)
Number of Pixels in Processed Spectrum: 2048
>>>>>Begin Processed Spectral Data<<<<<
365.73	0.00
365.92	0.00
366.12	0.00
366.32	0.00
366.52	0.00
366.72	0.00
366.91	0.00
367.11	0.00
367.31	0.00
367.51	0.00
367.70	0.00
367.90	0.00
368.10	0.00
368.30	0.00
368.49	0.00
368.69	0.00
368.89	0.00
369.09	0.00
369.28	0.00
369.48	0.00
369.68	0.00
369.87	0.00
370.07	0.00
370.27	0.00
370.47	0.00
370.66	30.43
370.86	114.69
371.06	60.85
371.25	159.16
371.45	91.28
371.65	145.11
371.84	147.45
372.04	196.60
372.24	196.60
372.44	135.75
372.63	135.75
372.83	241.08
373.03	203.63
373.22	201.29
373.42	194.26
373.62	259.80
373.81	203.63
374.01	276.18
374.21	250.44
374.40	191.92
374.60	182.56
374.79	297.25
374.99	224.69
375.19	245.76
375.38	245.76
375.58	248.10
375.78	245.76
375.97	273.84
376.17	325.33
376.37	287.89
376.56	255.12
376.76	266.82
376.95	227.03
377.15	262.14
377.35	222.35
377.54	294.91
377.74	173.20
377.93	276.18
378.13	280.86
378.33	231.71
378.52	283.20
378.72	280.86
378.91	348.74
379.11	290.23
379.31	266.82
379.50	313.63
379.70	245.76
379.89	304.27
380.09	252.78
380.28	294.91
380.48	215.33
380.68	285.55
380.87	304.27
381.07	311.29
381.26	365.12
381.46	360.44
381.65	259.80
381.85	311.29
382.04	327.68
382.24	292.57
382.43	238.73
382.63	348.74
382.83	367.46
383.02	362.78
383.22	376.83
383.41	374.49
383.61	374.49
383.80	339.38
384.00	294.91
384.19	339.38
384.39	367.46
384.58	346.40
384.78	414.27
384.97	320.65
385.17	325.33
385.36	444.70
385.56	388.53
385.75	402.57
385.95	440.02
386.14	395.55
386.34	416.62
386.53	444.70
386.72	383.85
386.92	383.85
387.11	475.13
387.31	411.93
387.50	388.53
387.70	388.53
387.89	468.11
388.09	409.59
388.28	486.83
388.48	397.89
388.67	449.38
388.86	484.49
389.06	465.77
389.25	545.34
389.45	383.85
389.64	482.15
389.84	503.22
390.03	470.45
390.22	491.51
390.42	489.17
390.61	416.62
390.81	470.45
391.00	430.66
391.19	547.69
391.39	535.98
391.58	461.09
391.78	472.79
391.97	461.09
392.16	557.05
392.36	524.28
392.55	631.94
392.75	465.77
392.94	578.11
393.13	514.92
393.33	540.66
393.52	669.39
393.71	514.92
393.91	580.45
394.10	566.41
394.29	547.69
394.49	564.07
394.68	643.65
394.88	540.66
395.07	624.92
395.26	610.88
395.46	601.52
395.65	648.33
395.84	676.41
396.04	741.95
396.23	657.69
396.42	578.11
396.62	631.94
396.81	617.90
397.00	624.92
397.19	702.16
397.39	634.29
397.58	713.86
397.77	674.07
397.97	636.63
398.16	709.18
398.35	681.10
398.55	685.78
398.74	678.76
398.93	842.59
399.12	681.10
399.32	671.73
399.51	760.67
399.70	699.82
399.90	660.03
400.09	674.07
400.28	734.93
400.47	699.82
400.67	809.83
400.86	772.38
401.05	723.23
401.24	896.43
401.44	746.63
401.63	849.61
401.82	793.44
402.01	706.84
402.21	788.76
402.40	847.27
402.59	833.23
402.78	830.89
402.97	812.17
403.17	854.30
403.36	809.83
403.55	784.08
403.74	821.53
403.93	917.49
404.13	894.08
404.32	840.25
404.51	980.68
404.70	973.66
404.89	875.36
405.09	924.51
405.28	929.19
405.47	908.13
405.66	1018.13
405.85	929.19
406.05	999.41
406.24	922.17
406.43	919.83
406.62	922.17
406.81	992.39
407.00	987.71
407.20	966.64
407.39	1018.13
407.58	1062.60
407.77	1048.56
407.96	1011.11
408.15	1107.07
408.34	1135.16
408.54	985.37
408.73	1078.99
408.92	1170.27
409.11	997.07
409.30	1156.22
409.49	1160.91
409.68	1086.01
409.87	1181.97
410.07	1170.27
410.26	1226.44
410.45	1093.03
410.64	1156.22
410.83	1196.01
411.02	1226.44
411.21	1263.89
411.40	1179.63
411.59	1282.61
411.78	1184.31
411.98	1188.99
412.17	1219.42
412.36	1299.00
412.55	1266.23
412.74	1254.53
412.93	1310.70
413.12	1308.36
413.31	1378.58
413.50	1306.02
413.69	1345.81
413.88	1427.73
414.07	1509.65
414.26	1476.88
414.45	1488.58
414.64	1486.24
414.83	1549.43
415.02	1451.13
415.22	1558.80
415.41	1530.71
415.60	1551.78
415.79	1598.59
415.98	1619.65
416.17	1547.09
416.36	1596.25
416.55	1579.86
416.74	1607.95
416.93	1624.33
417.12	1657.10
417.31	1598.59
417.50	1767.10
417.69	1769.44
417.88	1764.76
418.07	1689.87
418.26	1764.76
418.45	1715.61
418.64	1769.44
418.83	1813.92
419.02	1732.00
419.21	1851.36
419.39	1776.47
419.58	1753.06
419.77	1755.40
419.96	1762.42
420.15	1898.17
420.34	1818.60
420.53	1844.34
420.72	1832.64
420.91	1891.15
421.10	1942.64
421.29	1994.14
421.48	1935.62
421.67	1837.32
421.86	1989.46
422.05	1989.46
422.24	1909.88
422.43	2031.58
422.61	1984.77
422.80	1998.82
422.99	2076.06
423.18	2040.95
423.37	2146.27
423.56	2174.36
423.75	2026.90
423.94	1891.15
424.13	1893.49
424.32	1888.81
424.50	1975.41
424.69	2005.84
424.88	2092.44
425.07	2038.61
425.26	1970.73
425.45	1987.11
425.64	2010.52
425.83	1970.73
426.01	2043.29
426.20	2080.74
426.39	2008.18
426.58	2209.47
426.77	2090.10
426.96	2143.93
427.15	2094.78
427.33	2186.06
427.52	2235.21
427.71	2143.93
427.90	2115.84
428.09	2069.03
428.28	2204.78
428.46	2209.47
428.65	2282.02
428.84	2202.44
429.03	2263.30
429.22	2244.57
429.40	2272.66
429.59	2263.30
429.78	2162.66
429.97	2202.44
430.16	2237.55
430.34	2321.81
430.53	2289.04
430.72	2300.75
430.91	2251.60
431.10	2289.04
431.28	2401.39
431.47	2298.41
431.66	2448.20
431.85	2338.20
432.03	2368.62
432.22	2441.18
432.41	2298.41
432.60	2429.48
432.79	2382.67
432.97	2555.86
433.16	2495.01
433.35	2396.71
433.54	2307.77
433.72	2560.55
433.91	2434.16
434.10	2427.14
434.28	2492.67
434.47	2551.18
434.66	2424.80
434.85	2560.55
435.03	2637.78
435.22	2609.70
435.41	2635.44
435.59	2504.37
435.78	2658.85
435.97	2572.25
436.16	2668.21
436.34	2609.70
436.53	2752.47
436.72	2691.62
436.90	2808.64
437.09	2668.21
437.28	2637.78
437.46	2658.85
437.65	2663.53
437.84	2815.66
438.02	2841.41
438.21	2649.49
438.40	2808.64
438.58	2752.47
438.77	2881.20
438.96	2832.05
439.14	2981.84
439.33	2916.31
439.52	2841.41
439.70	2951.42
439.89	2935.03
440.08	2988.86
440.26	3030.99
440.45	2970.14
440.63	3075.46
440.82	3082.49
441.01	3143.34
441.19	3089.51
441.38	3201.85
441.57	3194.83
441.75	3295.47
441.94	3145.68
442.12	3204.19
442.31	3173.77
442.50	3262.71
442.68	3358.67
442.87	3288.45
443.05	3206.53
443.24	3410.16
443.43	3346.97
443.61	3353.99
443.80	3461.65
443.98	3309.52
444.17	3274.41
444.35	3325.90
444.54	3368.03
444.73	3494.42
444.91	3281.43
445.10	3363.35
445.28	3337.60
445.47	3351.65
445.65	3499.10
445.84	3494.42
446.02	3393.78
446.21	3410.16
446.39	3520.17
446.58	3623.15
446.77	3468.67
446.95	3435.91
447.14	3435.91
447.32	3602.08
447.51	3482.72
447.69	3571.66
447.88	3372.71
448.06	3559.95
448.25	3585.70
448.43	3534.21
448.62	3454.63
448.80	3440.59
448.99	3487.40
449.17	3639.53
449.36	3428.88
449.54	3609.11
449.73	3578.68
449.91	3646.55
450.10	3714.43
450.28	3590.38
450.46	3646.55
450.65	3763.58
450.83	3744.86
451.02	3702.73
451.20	3838.48
451.39	3826.78
451.57	3714.43
451.76	3653.58
451.94	3808.05
452.13	3808.05
452.31	3880.61
452.49	3754.22
452.68	3791.67
452.86	3803.37
453.05	3878.27
453.23	3885.29
453.42	3702.73
453.60	3953.16
453.78	3936.78
453.97	3861.88
454.15	3840.82
454.34	3861.88
454.52	4009.34
454.70	4004.66
454.89	4025.72
455.07	4002.32
455.26	3946.14
455.44	3873.59
455.62	3911.04
455.81	4112.32
455.99	4154.45
456.17	4217.65
456.36	4266.80
456.54	4168.49
456.73	4236.37
456.91	4395.53
457.09	4271.48
457.28	4306.59
457.46	4168.49
457.64	4210.62
457.83	4245.73
458.01	4215.30
458.19	4367.44
458.38	4276.16
458.56	4409.57
458.74	4271.48
458.93	4353.40
459.11	4465.74
459.29	4400.21
459.48	4395.53
459.66	4402.55
459.84	4414.25
460.03	4662.35
460.21	4428.29
460.39	4685.75
460.57	4528.94
460.76	4683.41
460.94	4571.07
461.12	4519.57
461.31	4601.49
461.49	4566.39
461.67	4545.32
461.85	4777.03
462.04	4734.90
462.22	4683.41
462.40	4667.03
462.59	4737.24
462.77	4774.69
462.95	4802.78
463.13	4865.97
463.32	4734.90
463.50	4786.40
463.68	4800.44
463.86	4727.88
464.05	4704.48
464.23	4737.24
464.41	4915.12
464.59	4652.98
464.78	4877.68
464.96	4854.27
465.14	5025.13
465.32	5011.09
465.50	4961.94
465.69	4945.55
465.87	4957.25
466.05	5050.88
466.23	5104.71
466.41	5062.58
466.60	5130.45
466.78	4966.62
466.96	4908.10
467.14	5015.77
467.32	5078.96
467.51	5315.36
467.69	4905.76
467.87	5036.83
468.05	5245.14
468.23	5177.26
468.41	5125.77
468.60	5060.24
468.78	5228.76
468.96	5135.14
469.14	5242.80
469.32	5210.03
469.50	5144.50
469.69	5228.76
469.87	5338.76
470.05	5331.74
470.23	5345.78
470.41	5291.95
470.59	5425.36
470.77	5392.59
470.95	5511.96
471.14	5521.32
471.32	5397.28
471.50	5486.22
471.68	5516.64
471.86	5516.64
472.04	5540.05
472.22	5617.29
472.40	5586.86
472.58	5746.02
472.77	5776.44
472.95	5825.59
473.13	5832.62
473.31	5760.06
473.49	5748.36
473.67	5956.66
473.85	5898.15
474.03	6038.58
474.21	5806.87
474.39	5813.89
474.57	6059.65
474.75	6111.14
474.93	6111.14
475.12	6083.05
475.30	6141.57
475.48	6010.50
475.66	6078.37
475.84	6260.93
476.02	6225.82
476.20	6258.59
476.38	6361.58
476.56	6520.73
476.74	6340.51
476.92	6572.22
477.10	6347.53
477.28	6623.72
477.46	6581.59
477.64	6869.47
477.82	6654.14
478.00	6878.83
478.18	6935.01
478.36	7009.90
478.54	6986.50
478.72	7066.08
478.90	7206.51
479.08	7201.83
479.26	7157.36
479.44	7323.54
479.62	7152.68
479.80	7192.47
479.98	7419.50
480.16	7475.67
480.34	7599.72
480.52	7866.54
480.70	7496.74
480.88	7517.80
481.06	7637.17
481.24	7384.39
481.41	7627.81
481.59	7887.61
481.77	7887.61
481.95	8081.87
482.13	8002.29
482.31	8093.57
482.49	8273.79
482.67	8109.96
482.85	8234.00
483.03	8383.80
483.21	8594.45
483.39	8486.78
483.57	8500.83
483.74	8620.19
483.92	8678.71
484.10	8514.87
484.28	8868.29
484.46	8971.27
484.64	9104.68
484.82	9036.81
485.00	9074.26
485.18	9245.12
485.35	9341.08
485.53	9294.27
485.71	9245.12
485.89	9530.66
486.07	9518.96
486.25	9551.73
486.43	9598.54
486.61	9713.22
486.78	9923.87
486.96	9731.95
487.14	9921.53
487.32	9886.42
487.50	10017.49
487.68	9984.73
487.85	10200.05
488.03	10310.06
488.21	10408.36
488.39	10604.97
488.57	10567.52
488.75	10785.19
488.92	10721.99
489.10	10920.94
489.28	10747.74
489.46	11049.67
489.64	10817.96
489.81	11274.36
489.99	11178.40
490.17	11276.70
490.35	11400.75
490.53	11246.27
490.70	11506.07
490.88	11637.14
491.06	11618.42
491.24	11651.19
491.41	11693.32
491.59	11693.32
491.77	11971.84
491.95	12175.47
492.13	12269.09
492.30	12105.25
492.48	12353.35
492.66	12198.87
492.84	12212.92
493.01	12388.46
493.19	12451.65
493.37	12575.70
493.54	12437.61
493.72	12784.01
493.90	12716.13
494.08	12814.43
494.25	13107.00
494.43	13039.12
494.61	12924.44
494.79	13195.94
494.96	13259.13
495.14	13233.39
495.32	13448.72
495.49	13694.47
495.67	13460.42
495.85	13776.39
496.02	13652.34
496.20	13778.73
496.38	13893.42
496.55	13921.51
496.73	14129.81
496.91	14148.54
497.09	14279.61
497.26	14073.64
497.44	14033.85
497.62	14047.90
497.79	14478.55
497.97	14401.32
498.14	14803.89
498.32	14555.79
498.50	14609.62
498.67	14949.00
498.85	14651.75
499.03	14981.77
499.20	14815.59
499.38	14855.38
499.56	15164.33
499.73	15248.59
499.91	15276.68
500.08	15367.96
500.26	15145.61
500.44	15358.60
500.61	15293.06
500.79	15309.44
500.97	15618.39
501.14	15782.23
501.32	15815.00
501.49	15779.89
501.67	15466.26
501.84	15791.59
502.02	15782.23
502.20	16091.18
502.37	15941.39
502.55	16006.92
502.72	16205.87
502.90	16112.25
503.07	16032.67
503.25	16365.03
503.43	16507.80
503.60	16348.64
503.78	16631.85
503.95	16517.16
504.13	16638.87
504.30	16744.19
504.48	16664.61
504.65	16582.70
504.83	16847.18
505.01	17029.74
505.18	16924.41
505.36	16788.66
505.53	16819.09
505.71	16999.31
505.88	17359.75
506.06	16842.50
506.23	17104.64
506.41	17177.19
506.58	17411.25
506.76	17348.05
506.93	17537.63
507.11	17062.51
507.28	17664.02
507.46	17570.40
507.63	17504.87
507.81	17738.92
507.98	17699.13
508.16	17827.86
508.33	17834.88
508.50	17933.18
508.68	17956.59
508.85	17942.55
509.03	17867.65
509.20	18307.67
509.38	18347.46
509.55	18225.75
509.73	18066.60
509.90	18668.11
510.08	18237.45
510.25	18523.00
510.42	18405.97
510.60	18523.00
510.77	18604.92
510.95	18417.68
511.12	18506.62
511.30	18696.20
511.47	18607.26
511.64	18541.72
511.82	18885.78
511.99	18799.18
512.17	18925.57
512.34	18787.48
512.51	19087.07
512.69	19087.07
512.86	19136.22
513.04	19344.53
513.21	19482.62
513.38	19447.51
513.56	19278.99
513.73	19264.95
513.90	19351.55
514.08	19447.51
514.25	19730.72
514.43	19587.94
514.60	19590.28
514.77	19580.92
514.95	19915.62
515.12	19506.02
515.29	19641.78
515.47	19763.48
515.64	19861.79
515.81	19789.23
515.99	20077.12
516.16	20285.42
516.33	19927.32
516.51	20222.23
516.68	19950.73
516.85	20325.21
517.03	20390.75
517.20	20470.33
517.37	20437.56
517.54	20388.41
517.72	20404.79
517.89	20772.25
518.06	20594.37
518.24	20224.57
518.41	20507.77
518.58	20882.26
518.75	20793.32
518.93	20627.14
519.10	20992.26
519.27	20929.07
519.45	20622.46
519.62	20692.68
519.79	20828.43
519.96	21022.69
520.14	21097.59
520.31	21181.85
520.48	21125.68
520.65	21371.43
520.83	21652.30
521.00	21123.33
521.17	21429.94
521.34	21462.71
521.52	21221.64
521.69	21324.62
521.86	21970.61
522.03	21553.99
522.20	21659.32
522.38	21614.85
522.55	21357.39
522.72	21900.39
522.89	21769.32
523.07	22094.66
523.24	21820.81
523.41	22113.38
523.58	22106.36
523.75	22047.85
523.92	21954.22
524.10	21968.27
524.27	22312.33
524.44	22375.52
524.61	22490.21
524.78	22118.06
524.96	22370.84
525.13	22576.81
525.30	22328.71
525.47	22391.91
525.64	22457.44
525.81	22906.82
525.98	22691.49
526.16	22799.16
526.33	22923.21
526.50	23084.70
526.67	22675.11
526.84	22499.57
527.01	22780.43
527.18	22728.94
527.36	23056.62
527.53	23049.60
527.70	23089.38
527.87	23407.70
528.04	23307.05
528.21	22855.33
528.38	23047.26
528.55	23047.26
528.72	23222.80
528.89	23473.23
529.07	23257.90
529.24	23274.29
529.41	23391.31
529.58	23337.48
529.75	23358.55
529.92	23501.32
530.09	23428.76
530.26	23623.03
530.43	23854.74
530.60	23548.13
530.77	23777.50
530.94	23763.46
531.11	23566.85
531.28	23442.81
531.46	23793.89
531.63	23784.52
531.80	23707.29
531.97	23995.17
532.14	23814.95
532.31	23983.47
532.48	23903.89
532.65	23882.83
532.82	23910.91
532.99	24112.20
533.16	23690.90
533.33	23871.12
533.50	24702.01
533.67	24610.73
533.84	24320.51
534.01	23885.17
534.18	23924.96
534.35	24318.17
534.52	24641.16
534.69	24467.96
534.86	24868.19
535.03	24320.51
535.20	24580.31
535.37	24851.81
535.54	24734.78
535.71	24699.67
535.88	24840.11
536.05	24751.17
536.22	24989.90
536.38	24816.70
536.55	24713.72
536.72	24772.23
536.89	24737.12
537.06	24582.65
537.23	25001.60
537.40	25120.97
537.57	25064.80
537.74	24755.85
537.91	25287.15
538.08	25013.31
538.25	24828.40
538.42	25191.19
538.59	25090.54
538.75	24793.29
538.92	25125.65
539.09	25039.05
539.26	25352.68
539.43	25338.64
539.60	25373.75
539.77	25352.68
539.94	25727.17
540.11	25373.75
540.28	25509.50
540.44	25504.82
540.61	25415.88
540.78	25408.86
540.95	25731.85
541.12	25458.01
541.29	25404.17
541.46	25755.26
541.62	25795.04
541.79	25785.68
541.96	25535.24
542.13	25560.99
542.30	26075.91
542.47	25991.65
542.63	25862.92
542.80	26150.81
542.97	26078.25
543.14	26075.91
543.31	25970.58
543.48	25855.90
543.64	26185.91
543.81	26689.13
543.98	26300.60
544.15	26089.95
544.32	26331.03
544.48	26499.55
544.65	26225.70
544.82	26457.42
544.99	26096.97
545.16	26277.19
545.32	26544.02
545.49	26803.82
545.66	26658.70
545.83	26913.82
546.00	26941.91
546.16	26644.66
546.33	26534.65
546.50	26771.05
546.67	26698.49
546.83	26529.97
547.00	26848.29
547.17	26583.80
547.34	27161.92
547.50	27056.59
547.67	26618.91
547.84	27084.68
548.00	26937.23
548.17	27012.12
548.34	26932.54
548.51	27042.55
548.67	27417.04
548.84	26969.99
549.01	27058.93
549.18	26937.23
549.34	26871.69
549.51	26965.31
549.68	27447.46
549.84	27016.80
550.01	27379.59
550.18	26827.22
550.34	27288.31
550.51	27318.73
550.68	27452.14
550.84	27178.30
551.01	27468.53
551.18	27292.99
551.34	27138.51
551.51	27503.64
551.68	27620.66
551.84	27646.41
552.01	27660.45
552.18	28039.62
552.34	27552.79
552.51	27688.54
552.68	27613.64
552.84	27679.18
553.01	27564.49
553.18	27800.88
553.34	27910.89
553.51	27494.27
553.67	27950.68
553.84	28182.39
554.01	28037.28
554.17	28053.66
554.34	28048.98
554.51	27835.99
554.67	27775.14
554.84	27658.11
555.00	27580.87
555.17	28053.66
555.33	27910.89
555.50	28013.87
555.67	28004.51
555.83	27548.11
556.00	27594.92
556.16	28105.15
556.33	28205.80
556.50	28573.26
556.66	28285.37
556.83	28182.39
556.99	28589.64
557.16	28561.56
557.32	28353.25
557.49	28386.02
557.65	28201.11
557.82	28245.58
557.98	28212.82
558.15	28498.36
558.32	28444.53
558.48	28315.80
558.65	28542.83
558.81	28514.75
558.98	28371.97
559.14	28283.03
559.31	28512.41
559.47	28341.55
559.64	28652.84
559.80	28795.61
559.97	28723.05
560.13	28629.43
560.30	28472.62
560.46	28634.11
560.63	28587.30
560.79	28641.14
560.96	28374.31
561.12	28704.33
561.29	28678.58
561.45	28591.98
561.61	28439.85
561.78	28783.91
561.94	28643.48
562.11	28952.43
562.27	29172.44
562.44	28870.51
562.60	28776.89
562.77	29088.18
562.93	28662.20
563.10	28982.85
563.26	28673.90
563.42	28971.15
563.59	28776.89
563.75	28690.29
563.92	28826.04
564.08	28837.74
564.24	28978.17
564.41	28549.85
564.57	28912.64
564.74	29170.10
564.90	29179.46
565.07	28943.06
565.23	29120.95
565.39	29200.52
565.56	29027.32
565.72	29235.63
565.88	28957.11
566.05	28783.91
566.21	29223.93
566.38	29111.58
566.54	28863.49
566.70	29053.07
566.87	29380.74
567.03	29359.68
567.19	29530.54
567.36	29324.57
567.52	29287.12
567.68	29223.93
567.85	29174.78
568.01	29090.52
568.17	29331.59
568.34	29305.85
568.50	29247.33
568.66	29235.63
568.83	29214.57
568.99	29209.89
569.15	29237.97
569.32	29296.49
569.48	29013.28
569.64	29156.05
569.81	29034.35
569.97	29324.57
570.13	29633.52
570.30	29184.14
570.46	29237.97
570.62	29310.53
570.78	28966.47
570.95	29209.89
571.11	29406.49
571.27	29146.69
571.43	29235.63
571.60	29495.43
571.76	29439.26
571.92	29322.23
572.09	29273.08
572.25	29514.16
572.41	29298.83
572.57	29701.40
572.74	29338.62
572.90	29284.78
573.06	29502.45
573.22	29345.64
573.38	29979.92
573.55	29247.33
573.71	29408.83
573.87	29677.99
574.03	29663.95
574.20	29593.73
574.36	29390.11
574.52	29256.70
574.68	29347.98
574.84	29593.73
575.01	29495.43
575.17	29523.52
575.33	29731.83
575.49	29237.97
575.65	29502.45
575.82	29619.48
575.98	29553.94
576.14	29338.62
576.30	29546.92
576.46	29453.30
576.62	29558.63
576.79	29429.90
576.95	29422.87
577.11	29165.42
577.27	29647.57
577.43	29645.23
577.59	29579.69
577.75	29490.75
577.92	29259.04
578.08	29514.16
578.24	29717.78
578.40	29638.20
578.56	29663.95
578.72	29584.37
578.88	30000.99
579.04	29982.26
579.21	29516.50
579.37	29532.88
579.53	29909.71
579.69	29500.11
579.85	29462.66
580.01	29846.51
580.17	29439.26
580.33	29778.64
580.49	29701.40
580.65	29773.95
580.82	29998.65
580.98	29766.93
581.14	29788.00
581.30	29792.68
581.46	29048.39
581.62	29788.00
581.78	29944.81
581.94	29820.77
582.10	29422.87
582.26	29663.95
582.42	30000.99
582.58	29769.27
582.74	29991.62
582.90	29951.84
583.06	29565.65
583.22	29352.66
583.38	29488.41
583.54	29998.65
583.70	29860.55
583.86	29722.46
584.02	29617.14
584.18	29795.02
584.34	29612.46
584.50	29972.90
584.66	29713.10
584.82	29631.18
584.98	29546.92
585.14	29483.73
585.30	29542.24
585.46	29813.74
585.62	29546.92
585.78	29748.21
585.94	29713.10
586.10	29600.76
586.26	30017.37
586.42	30000.99
586.58	29668.63
586.74	29879.28
586.90	29682.67
587.06	29104.56
587.22	29956.52
587.38	30012.69
587.54	30019.71
587.70	29841.83
587.86	30003.33
588.02	30345.05
588.18	30050.14
588.34	30012.69
588.49	30162.48
588.65	29748.21
588.81	29809.06
588.97	30279.51
589.13	29816.08
589.29	30094.61
589.45	30153.12
589.61	29874.60
589.77	30132.06
589.93	30270.15
590.08	30150.78
590.24	30012.69
590.40	30345.05
590.56	30022.05
590.72	30141.42
590.88	29893.32
591.04	30120.35
591.20	30010.35
591.35	30228.02
591.51	30705.49
591.67	30286.53
591.83	30497.18
591.99	30249.08
592.15	30321.64
592.31	30352.07
592.46	30075.88
592.62	29769.27
592.78	29855.87
592.94	30015.03
593.10	30581.44
593.26	30293.55
593.41	30160.14
593.57	30256.11
593.73	30417.60
593.89	30621.23
594.05	30319.30
594.20	30274.83
594.36	30281.85
594.52	30338.02
594.68	29771.61
594.84	29979.92
594.99	30539.31
595.15	30017.37
595.31	30235.04
595.47	30143.76
595.62	30714.85
595.78	30431.65
595.94	30066.52
596.10	30328.66
596.25	29963.54
596.41	30043.12
596.57	30199.93
596.73	30455.05
596.88	30326.32
597.04	30541.65
597.20	30501.86
597.36	30333.34
597.51	30576.76
597.67	30604.84
597.83	30284.19
597.99	30361.43
598.14	30125.04
598.30	30213.98
598.46	30225.68
598.61	30469.09
598.77	30228.02
598.93	30602.50
599.09	30565.06
599.24	30576.76
599.40	30665.70
599.56	30316.96
599.71	30438.67
599.87	30213.98
600.03	30497.18
600.18	30146.10
600.34	30457.39
600.50	30291.21
600.65	30251.42
600.81	30565.06
600.97	30216.32
601.12	30473.78
601.28	30237.38
601.44	30532.29
601.59	30686.76
601.75	30424.62
601.91	30520.59
602.06	30206.95
602.22	30438.67
602.37	30244.40
602.53	30209.29
602.69	30843.58
602.84	30394.20
603.00	30298.23
603.16	30188.23
603.31	30408.24
603.47	30513.56
603.62	30099.29
603.78	30665.70
603.94	30195.25
604.09	30204.61
604.25	30565.06
604.40	30644.63
604.56	30476.12
604.71	30621.23
604.87	30448.03
605.03	30452.71
605.18	30256.11
605.34	30714.85
605.49	30251.42
605.65	30309.94
605.80	30010.35
605.96	30307.60
606.12	30242.06
606.27	30735.92
606.43	30389.52
606.58	30417.60
606.74	30134.40
606.89	30405.90
607.05	30518.25
607.20	30366.11
607.36	29710.76
607.51	30593.14
607.67	30281.85
607.82	30164.82
607.98	29846.51
608.13	30199.93
608.29	29916.73
608.44	29979.92
608.60	30038.44
608.75	30506.54
608.91	30326.32
609.06	30108.65
609.22	30536.97
609.37	29626.50
609.53	29993.97
609.68	30260.79
609.84	30015.03
609.99	30078.22
610.15	29776.30
610.30	30068.86
610.46	29998.65
610.61	29993.97
610.76	30242.06
610.92	29905.02
611.07	30176.53
611.23	29933.11
611.38	30239.72
611.54	29853.53
611.69	29944.81
611.84	30115.67
612.00	30143.76
612.15	29731.83
612.31	29958.86
612.46	29923.75
612.62	30022.05
612.77	29785.66
612.92	30293.55
613.08	29659.27
613.23	30113.33
613.39	29947.15
613.54	29694.38
613.69	29589.05
613.85	29902.68
614.00	30267.81
614.15	29919.07
614.31	29874.60
614.46	30075.88
614.62	29996.31
614.77	29914.39
614.92	30171.85
615.08	29731.83
615.23	29673.31
615.38	29699.06
615.54	29394.79
615.69	29624.16
615.84	29511.81
616.00	29619.48
616.15	29619.48
616.30	29586.71
616.46	29986.94
616.61	29668.63
616.76	29895.66
616.92	29563.31
617.07	29532.88
617.22	29542.24
617.37	29668.63
617.53	29584.37
617.68	29600.76
617.83	29174.78
617.99	29378.40
618.14	29123.29
618.29	29331.59
618.45	29418.19
618.60	29549.26
618.75	29289.46
618.90	29268.40
619.06	29509.47
619.21	29214.57
619.36	29579.69
619.51	29500.11
619.67	29015.62
619.82	29090.52
619.97	29366.70
620.12	28936.04
620.28	28629.43
620.43	29457.98
620.58	29230.95
620.73	29565.65
620.89	29359.68
621.04	29560.97
621.19	29144.35
621.34	29053.07
621.49	29193.50
621.65	28980.51
621.80	29333.93
621.95	28786.25
622.10	29022.64
622.25	29179.46
622.41	29240.31
622.56	29249.67
622.71	29340.96
622.86	28886.89
623.01	28734.76
623.16	28952.43
623.32	28758.16
623.47	28833.06
623.62	28741.78
623.77	28776.89
623.92	29092.86
624.07	28608.37
624.23	28568.58
624.38	28620.07
624.53	28797.95
624.68	29076.48
624.83	28945.41
624.98	28823.70
625.13	28753.48
625.29	28774.55
625.44	28800.29
625.59	28575.60
625.74	28322.82
625.89	28575.60
626.04	28341.55
626.19	28470.28
626.34	28528.79
626.49	28025.57
626.65	28435.17
626.80	28957.11
626.95	28837.74
627.10	28465.60
627.25	28489.00
627.40	28182.39
627.55	28023.23
627.70	28264.31
627.85	27892.16
628.00	28058.34
628.15	28257.29
628.30	27976.42
628.45	28156.64
628.60	28229.20
628.76	28629.43
628.91	28318.14
629.06	28018.55
629.21	28121.54
629.36	28004.51
629.51	28121.54
629.66	27882.80
629.81	28250.27
629.96	27880.46
630.11	27913.23
630.26	28027.92
630.41	28123.88
630.56	28070.04
630.71	28065.36
630.86	27955.36
631.01	28201.11
631.16	28268.99
631.31	28198.77
631.46	27988.13
631.61	28025.57
631.76	28088.77
631.91	27920.25
632.06	27770.46
632.21	27653.43
632.36	28011.53
632.51	27440.44
632.66	27864.08
632.81	27344.48
632.96	27627.68
633.10	27978.76
633.25	27899.19
633.40	27704.92
633.55	27564.49
633.70	27398.31
633.85	27709.60
634.00	27489.59
634.15	27646.41
634.30	27309.37
634.45	27505.98
634.60	27456.82
634.75	27597.26
634.90	27627.68
635.05	27814.93
635.19	27522.36
635.34	27786.84
635.49	27686.20
635.64	27583.21
635.79	27470.87
635.94	27475.55
636.09	27384.27
636.24	27108.08
636.39	27075.32
636.53	27555.13
636.68	27175.96
636.83	27454.48
636.98	27388.95
637.13	27379.59
637.28	27630.02
637.43	27309.37
637.57	27304.69
637.72	27468.53
637.87	27405.33
638.02	27459.16
638.17	27206.39
638.32	26993.40
638.46	26984.04
638.61	26731.26
638.76	27164.26
638.91	27051.91
639.06	26895.10
639.20	27054.25
639.35	27314.05
639.50	27122.13
639.65	27208.73
639.80	27110.43
639.94	27122.13
640.09	27316.39
640.24	26740.62
640.39	26948.93
640.54	26857.65
640.68	26354.43
640.83	26881.05
640.98	27040.21
641.13	26473.80
641.27	27080.00
641.42	27211.07
641.57	26890.41
641.72	26335.71
641.86	26237.41
642.01	26494.86
642.16	26588.49
642.31	26625.93
642.45	26609.55
642.60	26565.08
642.75	26153.15
642.90	26536.99
643.04	26625.93
643.19	26401.24
643.34	26747.64
643.48	26476.14
643.63	26281.88
643.78	26719.56
643.93	26455.08
644.07	26359.11
644.22	26656.36
644.37	26602.53
644.51	26600.19
644.66	26649.34
644.81	26284.22
644.95	26319.32
645.10	26218.68
645.25	26118.04
645.39	26412.95
645.54	26324.01
645.69	26279.54
645.83	26888.07
645.98	26015.05
646.13	26345.07
646.27	26824.88
646.42	26038.46
646.57	25993.99
646.71	26164.85
646.86	26480.82
647.00	26260.81
647.15	26029.10
647.30	26253.79
647.44	25956.54
647.59	26005.69
647.74	26614.23
647.88	25989.31
648.03	26342.73
648.17	26242.09
648.32	26419.97
648.47	26298.26
648.61	25893.35
648.76	26352.09
648.90	26286.56
649.05	25905.05
649.20	25968.24
649.34	26064.21
649.49	25846.54
649.63	25340.98
649.78	25898.03
649.92	25507.16
650.07	26071.23
650.21	25853.56
650.36	25752.91
650.51	25799.73
650.65	25909.73
650.80	26033.78
650.94	25795.04
651.09	25701.42
651.23	25703.76
651.38	25710.78
651.52	25853.56
651.67	25439.28
651.81	25748.23
651.96	25720.15
652.10	25940.16
652.25	25589.08
652.39	26036.12
652.54	25862.92
652.68	25809.09
652.83	26008.03
652.97	25785.68
653.12	25867.60
653.26	25638.23
653.41	25406.52
653.55	25067.14
653.70	25282.47
653.84	25312.89
653.99	25324.60
654.13	25223.95
654.27	25333.96
654.42	25776.32
654.56	25537.59
654.71	25612.48
654.85	25135.01
655.00	25446.30
655.14	25216.93
655.29	25418.22
655.43	25296.51
655.57	25495.46
655.72	25186.50
655.86	25207.57
656.01	24980.54
656.15	24931.39
656.30	25092.88
656.44	24816.70
656.58	25099.90
656.73	25064.80
656.87	25039.05
657.01	24833.08
657.16	25385.45
657.30	25326.94
657.45	25118.63
657.59	25078.84
657.73	24711.38
657.88	25238.00
658.02	24765.21
658.16	24924.36
658.31	24879.89
658.45	25003.94
658.60	24414.13
658.74	24465.62
658.88	24460.94
659.03	24470.30
659.17	24713.72
659.31	24657.54
659.46	24680.95
659.60	24772.23
659.74	24596.69
659.89	24610.73
660.03	24648.18
660.17	24678.61
660.32	24439.87
660.46	24456.26
660.60	24334.55
660.74	24341.57
660.89	24414.13
661.03	24287.74
661.17	23931.98
661.32	24215.18
661.46	24819.04
661.60	24231.57
661.74	24374.34
661.89	24250.29
662.03	24339.23
662.17	24224.54
662.31	23585.58
662.46	24723.08
662.60	24140.29
662.74	24133.26
662.88	23644.09
663.03	23765.80
663.17	24065.39
663.31	23480.25
663.45	23379.61
663.60	23608.98
663.74	23864.10
663.88	23765.80
664.02	23604.30
664.17	23955.38
664.31	23590.26
664.45	23611.32
664.59	23826.65
664.73	23976.45
664.88	24023.26
665.02	23431.10
665.16	23433.44
665.30	23335.14
665.44	23391.31
665.59	23040.23
665.73	23239.18
665.87	23321.10
666.01	23543.45
666.15	23140.88
666.29	23206.41
666.44	23300.03
666.58	23328.12
666.72	22845.97
666.86	23014.49
667.00	23183.01
667.14	23044.91
667.28	22963.00
667.43	23087.04
667.57	23023.85
667.71	22899.80
667.85	22817.88
667.99	22831.93
668.13	22852.99
668.27	22995.76
668.41	22930.23
668.56	22588.51
668.70	22625.96
668.84	22684.47
668.98	22731.28
669.12	22389.56
669.26	22635.32
669.40	22370.84
669.54	22574.47
669.68	22583.83
669.82	22574.47
669.96	22057.21
670.10	22199.98
670.25	22359.14
670.39	22155.51
670.53	22005.72
670.67	22539.36
670.81	22111.04
670.95	22345.09
671.09	21975.29
671.23	22218.71
671.37	21909.75
671.51	22260.84
671.65	21956.57
671.79	21940.18
671.93	21811.45
672.07	21827.84
672.21	22164.87
672.35	21785.71
672.49	21287.17
672.63	21673.36
672.77	21443.99
672.91	21397.18
673.05	21568.04
673.19	21436.97
673.33	21682.72
673.47	21898.05
673.61	21401.86
673.75	21303.56
673.89	21446.33
674.03	21467.39
674.17	21727.19
674.31	21413.56
674.45	20973.54
674.59	21193.55
674.73	20938.43
674.87	21153.76
675.01	20608.42
675.15	21074.18
675.29	20936.09
675.43	20961.84
675.56	20847.15
675.70	20835.45
675.84	20610.76
675.98	20137.97
676.12	20915.03
676.26	20744.17
676.40	20695.02
676.54	20617.78
676.68	20500.75
676.82	20130.95
676.96	20315.85
677.10	20475.01
677.23	20159.03
677.37	20238.61
677.51	20119.24
677.65	19852.42
677.79	19899.23
677.93	19847.74
678.07	19812.63
678.21	19777.53
678.34	19609.01
678.48	19777.53
678.62	19700.29
678.76	19847.74
678.90	19346.87
679.04	19501.34
679.18	19466.24
679.31	19426.45
679.45	18988.77
679.59	19084.73
679.73	19180.69
679.87	19150.26
680.00	19105.79
680.14	18820.25
680.28	18703.22
680.42	18806.20
680.56	19098.77
680.70	19105.79
680.83	18848.33
680.97	18838.97
681.11	18677.48
681.25	18654.07
681.39	18597.90
681.52	18567.47
681.66	18356.82
681.80	18293.63
681.94	18265.54
682.07	18459.81
682.21	17937.87
682.35	17916.80
682.49	18209.37
682.62	17909.78
682.76	18064.25
682.90	18127.45
683.04	18171.92
683.17	18157.88
683.31	17926.16
683.45	17645.30
683.59	17750.62
683.72	17928.50
683.86	17734.24
684.00	17219.32
684.13	17469.76
684.27	17577.42
684.41	17441.67
684.55	17198.26
684.68	17106.98
684.82	17198.26
684.96	16863.56
685.09	17048.46
685.23	16912.71
685.37	16699.72
685.50	17165.49
685.64	17050.80
685.78	16945.48
685.91	16926.75
686.05	16886.97
686.19	16828.45
686.32	16961.86
686.46	16383.75
686.60	16203.53
686.73	16339.28
686.87	16425.88
687.01	16322.90
687.14	16238.64
687.28	16035.01
687.42	16030.33
687.55	16088.84
687.69	16194.17
687.82	15978.84
687.96	16159.06
688.10	15824.36
688.23	16156.72
688.37	15901.60
688.50	15728.40
688.64	15847.77
688.78	15648.82
688.91	15370.30
689.05	15630.10
689.18	15541.16
689.32	15014.54
689.46	15286.04
689.59	15344.55
689.73	15449.88
689.86	15014.54
690.00	15267.31
690.13	15379.66
690.27	15103.48
690.41	15133.90
690.54	14787.50
690.68	15176.03
690.81	14944.32
690.95	14977.09
691.08	15021.56
691.22	15080.07
691.35	14862.40
691.49	14981.77
691.62	14752.40
691.76	14623.67
691.89	14527.71
692.03	14239.82
692.16	14403.66
692.30	14295.99
692.43	14377.91
692.57	14019.81
692.70	14300.67
692.84	14181.31
692.97	14026.83
693.11	14176.62
693.24	13977.68
693.38	14050.24
693.51	14181.31
693.65	14012.79
693.78	14090.02
693.92	13909.80
694.05	13699.16
694.19	13535.32
694.32	13760.01
694.45	13767.03
694.59	13411.27
694.72	13317.65
694.86	13263.82
694.99	13305.95
695.13	13359.78
695.26	13296.58
695.39	13102.32
695.53	13069.55
695.66	13191.26
695.80	12788.69
695.93	13095.30
696.07	12702.09
696.20	12989.97
696.33	12994.65
696.47	12636.55
696.60	12957.21
696.73	12704.43
696.87	12741.88
697.00	12592.08
697.14	12503.14
697.27	12257.39
697.40	12322.92
697.54	12138.02
697.67	12444.63
697.80	12334.62
697.94	12161.42
698.07	12154.40
698.21	12077.16
698.34	11901.62
698.47	11943.75
698.61	12166.10
698.74	12042.06
698.87	11808.00
699.01	11962.48
699.14	11782.26
699.27	11962.48
699.40	11721.40
699.54	11580.97
699.67	11721.40
699.80	11499.05
699.94	11456.92
700.07	11260.32
700.20	11126.91
700.34	11288.40
700.47	11112.86
700.60	11103.50
700.73	11229.89
700.87	11131.59
701.00	10986.47
701.13	10892.85
701.26	11300.11
701.40	11040.31
701.53	10984.13
701.66	10981.79
701.79	10890.51
701.93	10724.33
702.06	10766.46
702.19	10576.88
702.32	10548.79
702.46	10307.72
702.59	10555.82
702.72	10317.08
702.85	10424.75
702.99	10253.89
703.12	10331.12
703.25	10228.14
703.38	10183.67
703.51	10090.05
703.65	10099.41
703.78	10146.22
703.91	10181.33
704.04	10162.61
704.17	10106.43
704.31	10033.88
704.44	10092.39
704.57	9884.08
704.70	9753.01
704.83	9647.69
704.96	9893.44
705.10	9533.00
705.23	9638.33
>>>>>End Processed Spectral Data<<<<<
