SpectraSuite Data File
++++++++++++++++++++++++++++++++++++
Date: Fri Oct 18 13:58:36 GMT-05:00 2013
User: bianchi
Dark Spectrum Present: No
Reference Spectrum Present: No
Number of Sampled Component Spectra: 1
Spectrometers: USB2+H05261
Integration Time (usec): 50000 (USB2+H05261)
Spectra Averaged: 1 (USB2+H05261)
Boxcar Smoothing: 0 (USB2+H05261)
Correct for Electrical Dark: No (USB2+H05261)
Strobe/Lamp Enabled: No (USB2+H05261)
Correct for Detector Non-linearity: No (USB2+H05261)
Correct for Stray Light: No (USB2+H05261)
Number of Pixels in Processed Spectrum: 2048
>>>>>Begin Processed Spectral Data<<<<<
365.73	0.00
365.92	0.00
366.12	0.00
366.32	0.00
366.52	0.00
366.72	0.00
366.91	0.00
367.11	0.00
367.31	0.00
367.51	0.00
367.70	0.00
367.90	0.00
368.10	0.00
368.30	0.00
368.49	0.00
368.69	0.00
368.89	0.00
369.09	0.00
369.28	0.00
369.48	0.00
369.68	0.00
369.87	0.00
370.07	0.00
370.27	0.00
370.47	0.00
370.66	93.62
370.86	102.98
371.06	175.54
371.25	168.52
371.45	93.62
371.65	161.50
371.84	201.29
372.04	194.26
372.24	187.24
372.44	156.82
372.63	147.45
372.83	227.03
373.03	203.63
373.22	227.03
373.42	198.95
373.62	283.20
373.81	205.97
374.01	170.86
374.21	287.89
374.40	229.37
374.60	236.39
374.79	262.14
374.99	262.14
375.19	290.23
375.38	292.57
375.58	266.82
375.78	243.42
375.97	313.63
376.17	322.99
376.37	252.78
376.56	224.69
376.76	189.58
376.95	252.78
377.15	250.44
377.35	203.63
377.54	297.25
377.74	341.72
377.93	339.38
378.13	315.97
378.33	280.86
378.52	407.25
378.72	388.53
378.91	330.02
379.11	327.68
379.31	236.39
379.50	276.18
379.70	353.42
379.89	351.08
380.09	294.91
380.28	266.82
380.48	334.70
380.68	248.10
380.87	285.55
381.07	283.20
381.26	397.89
381.46	369.80
381.65	330.02
381.85	395.55
382.04	330.02
382.24	353.42
382.43	322.99
382.63	367.46
382.83	313.63
383.02	388.53
383.22	451.72
383.41	313.63
383.61	503.22
383.80	365.12
384.00	433.00
384.19	365.12
384.39	348.74
384.58	374.49
384.78	404.91
384.97	318.31
385.17	320.65
385.36	390.87
385.56	362.78
385.75	372.15
385.95	418.96
386.14	425.98
386.34	477.47
386.53	397.89
386.72	372.15
386.92	416.62
387.11	428.32
387.31	421.30
387.50	372.15
387.70	379.17
387.89	428.32
388.09	365.12
388.28	461.09
388.48	475.13
388.67	440.02
388.86	484.49
389.06	472.79
389.25	444.70
389.45	491.51
389.64	472.79
389.84	428.32
390.03	463.43
390.22	470.45
390.42	482.15
390.61	465.77
390.81	416.62
391.00	423.64
391.19	437.68
391.39	463.43
391.58	559.39
391.78	517.26
391.97	528.96
392.16	482.15
392.36	545.34
392.55	491.51
392.75	507.90
392.94	538.32
393.13	531.30
393.33	573.43
393.52	620.24
393.71	547.69
393.91	554.71
394.10	535.98
394.29	575.77
394.49	624.92
394.68	582.79
394.88	601.52
395.07	601.52
395.26	601.52
395.46	636.63
395.65	643.65
395.84	653.01
396.04	685.78
396.23	678.76
396.42	582.79
396.62	606.20
396.81	683.44
397.00	674.07
397.19	573.43
397.39	662.37
397.58	751.31
397.77	622.58
397.97	667.05
398.16	720.88
398.35	763.01
398.55	781.74
398.74	751.31
398.93	641.31
399.12	751.31
399.32	763.01
399.51	753.65
399.70	770.04
399.90	793.44
400.09	751.31
400.28	805.14
400.47	882.38
400.67	795.78
400.86	692.80
401.05	791.10
401.24	816.85
401.44	734.93
401.63	788.76
401.82	814.51
402.01	753.65
402.21	774.72
402.40	823.87
402.59	830.89
402.78	819.19
402.97	760.67
403.17	816.85
403.36	819.19
403.55	868.34
403.74	959.62
403.93	877.70
404.13	898.77
404.32	903.45
404.51	870.68
404.70	957.28
404.89	875.36
405.09	908.13
405.28	905.79
405.47	922.17
405.66	954.94
405.85	1025.15
406.05	952.60
406.24	964.30
406.43	1025.15
406.62	1020.47
406.81	1069.62
407.00	1039.20
407.20	1041.54
407.39	1036.86
407.58	1046.22
407.77	1043.88
407.96	1078.99
408.15	1057.92
408.34	1095.37
408.54	1071.97
408.73	1081.33
408.92	1067.28
409.11	1135.16
409.30	1179.63
409.49	1060.26
409.68	1198.35
409.87	1097.71
410.07	1174.95
410.26	1203.04
410.45	1273.25
410.64	1221.76
410.83	1200.69
411.02	1263.89
411.21	1263.89
411.40	1341.13
411.59	1291.98
411.78	1327.08
411.98	1242.82
412.17	1310.70
412.36	1280.27
412.55	1320.06
412.74	1394.96
412.93	1263.89
413.12	1313.04
413.31	1329.42
413.50	1416.02
413.69	1437.09
413.88	1406.66
414.07	1385.60
414.26	1432.41
414.45	1416.02
414.64	1455.81
414.83	1472.20
415.02	1565.82
415.22	1575.18
415.41	1507.30
415.60	1607.95
415.79	1593.90
415.98	1542.41
416.17	1633.69
416.36	1664.12
416.55	1586.88
416.74	1689.87
416.93	1598.59
417.12	1610.29
417.31	1750.72
417.50	1708.59
417.69	1717.95
417.88	1694.55
418.07	1762.42
418.26	1764.76
418.45	1771.79
418.64	1799.87
418.83	1785.83
419.02	1769.44
419.21	1926.26
419.39	1809.23
419.58	1706.25
419.77	1825.62
419.96	1830.30
420.15	1846.68
420.34	1898.17
420.53	1935.62
420.72	1872.43
420.91	1907.54
421.10	2017.54
421.29	1977.75
421.48	1788.17
421.67	1919.24
421.86	1940.30
422.05	2038.61
422.24	2010.52
422.43	1905.20
422.61	1947.33
422.80	1961.37
422.99	1998.82
423.18	2083.08
423.37	1937.96
423.56	2043.29
423.75	2167.34
423.94	2076.06
424.13	1872.43
424.32	1893.49
424.50	1989.46
424.69	2022.22
424.88	1940.30
425.07	1959.03
425.26	2071.37
425.45	2001.16
425.64	2092.44
425.83	2094.78
426.01	2019.88
426.20	2010.52
426.39	1989.46
426.58	1973.07
426.77	2162.66
426.96	2113.50
427.15	2181.38
427.33	2169.68
427.52	2155.63
427.71	2190.74
427.90	2104.14
428.09	2101.80
428.28	2169.68
428.46	2282.02
428.65	2085.42
428.84	2200.10
429.03	2251.60
429.22	2153.29
429.40	2319.47
429.59	2296.07
429.78	2183.72
429.97	2157.97
430.16	2228.19
430.34	2438.84
430.53	2382.67
430.72	2296.07
430.91	2319.47
431.10	2183.72
431.28	2300.75
431.47	2354.58
431.66	2394.37
431.85	2197.76
432.03	2462.24
432.22	2504.37
432.41	2466.92
432.60	2476.29
432.79	2459.90
432.97	2438.84
433.16	2569.91
433.35	2476.29
433.54	2480.97
433.72	2497.35
433.91	2583.95
434.10	2413.09
434.28	2429.48
434.47	2555.86
434.66	2555.86
434.85	2686.94
435.03	2513.74
435.22	2572.25
435.41	2635.44
435.59	2661.19
435.78	2705.66
435.97	2635.44
436.16	2729.06
436.34	2703.32
436.53	2665.87
436.72	2768.85
436.90	2644.81
437.09	2773.53
437.28	2778.22
437.46	2729.06
437.65	2665.87
437.84	2792.26
438.02	2789.92
438.21	2754.81
438.40	2850.77
438.58	2890.56
438.77	2829.71
438.96	2853.11
439.14	2949.08
439.33	2981.84
439.52	3073.12
439.70	3101.21
439.89	3026.31
440.08	3026.31
440.26	3040.36
440.45	2993.55
440.63	3131.64
440.82	3260.37
441.01	3169.09
441.19	3040.36
441.38	3211.22
441.57	3300.16
441.75	3246.32
441.94	3286.11
442.12	3185.47
442.31	3330.58
442.50	3400.80
442.68	3342.28
442.87	3503.78
443.05	3281.43
443.24	3428.88
443.43	3391.44
443.61	3426.54
443.80	3545.91
443.98	3314.20
444.17	3227.60
444.35	3435.91
444.54	3618.47
444.73	3325.90
444.91	3342.28
445.10	3330.58
445.28	3391.44
445.47	3501.44
445.65	3552.93
445.84	3379.73
446.02	3552.93
446.21	3576.34
446.39	3447.61
446.58	3595.06
446.77	3524.85
446.95	3566.98
447.14	3478.04
447.32	3501.44
447.51	3452.29
447.69	3545.91
447.88	3536.55
448.06	3618.47
448.25	3480.38
448.43	3623.15
448.62	3438.25
448.80	3531.87
448.99	3534.21
449.17	3520.17
449.36	3667.62
449.54	3698.05
449.73	3735.50
449.91	3845.50
450.10	3735.50
450.28	3597.40
450.46	3751.88
450.65	3676.98
450.83	3794.01
451.02	3714.43
451.20	3829.12
451.39	3829.12
451.57	3726.13
451.76	3669.96
451.94	3840.82
452.13	3850.18
452.31	3850.18
452.49	3948.48
452.68	3878.27
452.86	3904.01
453.05	3943.80
453.23	3932.10
453.42	3887.63
453.60	3985.93
453.78	3878.27
453.97	3889.97
454.15	3948.48
454.34	3934.44
454.52	4018.70
454.70	4011.68
454.89	3896.99
455.07	3978.91
455.26	4093.60
455.44	4149.77
455.62	4140.41
455.81	4203.60
455.99	4182.54
456.17	4081.89
456.36	4315.95
456.54	4135.73
456.73	4053.81
456.91	4353.40
457.09	4327.65
457.28	4248.07
457.46	4215.30
457.64	4397.87
457.83	4322.97
458.01	4217.65
458.19	4381.48
458.38	4390.84
458.56	4393.19
458.74	4425.95
458.93	4505.53
459.11	4355.74
459.29	4367.44
459.48	4479.79
459.66	4531.28
459.84	4629.58
460.03	4706.82
460.21	4568.73
460.39	4493.83
460.57	4489.15
460.76	4744.27
460.94	4615.54
461.12	4517.23
461.31	4531.28
461.49	4568.73
461.67	4648.30
461.85	4823.84
462.04	4746.61
462.22	4627.24
462.40	4858.95
462.59	4755.97
462.77	4772.35
462.95	4716.18
463.13	4760.65
463.32	4830.87
463.50	4887.04
463.68	4821.50
463.86	4922.15
464.05	4784.06
464.23	4688.09
464.41	4992.36
464.59	4784.06
464.78	4994.70
464.96	4851.93
465.14	4819.16
465.32	5008.75
465.50	5013.43
465.69	5060.24
465.87	4971.30
466.05	5083.64
466.23	5036.83
466.41	5081.30
466.60	5184.29
466.78	5046.20
466.96	5020.45
467.14	5090.67
467.32	5123.43
467.51	5151.52
467.69	5179.61
467.87	5355.15
468.05	5212.37
468.23	5097.69
468.41	5210.03
468.60	5142.16
468.78	5313.02
468.96	5104.71
469.14	5174.92
469.32	5458.13
469.50	5191.31
469.69	5420.68
469.87	5549.41
470.05	5579.84
470.23	5518.98
470.41	5432.38
470.59	5614.95
470.77	5537.71
470.95	5507.28
471.14	5540.05
471.32	5434.72
471.50	5563.45
471.68	5701.54
471.86	5563.45
472.04	5593.88
472.22	5827.93
472.40	5607.92
472.58	5785.80
472.77	5734.31
472.95	5795.17
473.13	6129.86
473.31	5790.49
473.49	5858.36
473.67	5893.47
473.85	5919.21
474.03	6085.39
474.21	6026.88
474.39	5975.39
474.57	6143.91
474.75	6057.31
474.93	6277.32
475.12	6094.76
475.30	6342.85
475.48	6277.32
475.66	6270.30
475.84	6368.60
476.02	6249.23
476.20	6321.79
476.38	6466.90
476.56	6532.44
476.74	6717.34
476.92	6656.48
477.10	6445.84
477.28	6651.80
477.46	6541.80
477.64	6820.32
477.82	6684.57
478.00	6920.96
478.18	7026.29
478.36	6967.77
478.54	7028.63
478.72	7119.91
478.90	7183.10
479.08	7211.19
479.26	7211.19
479.44	7297.79
479.62	7592.70
479.80	7339.92
479.98	7365.67
480.16	7595.04
480.34	7442.90
480.52	7555.25
480.70	7735.47
480.88	7667.60
481.06	7822.07
481.24	7761.22
481.41	7880.58
481.59	8035.06
481.77	8142.72
481.95	8081.87
482.13	8222.30
482.31	8091.23
482.49	8131.02
482.67	8226.98
482.85	8472.74
483.03	8571.04
483.21	8542.96
483.39	8606.15
483.57	8737.22
483.74	8718.50
483.92	8676.37
484.10	8596.79
484.28	8823.82
484.46	8952.55
484.64	9158.52
484.82	9039.15
485.00	9004.04
485.18	9441.72
485.35	9315.33
485.53	9418.32
485.71	9455.76
485.89	9621.94
486.07	9603.22
486.25	9427.68
486.43	9720.24
486.61	9760.03
486.78	10043.24
486.96	9783.44
487.14	9991.75
487.32	10087.71
487.50	10167.29
487.68	10427.09
487.85	10244.52
488.03	10509.01
488.21	10544.11
488.39	10649.44
488.57	10588.58
488.75	10869.45
488.92	10813.28
489.10	10998.18
489.28	11061.37
489.46	11033.29
489.64	11019.24
489.81	11344.58
489.99	11194.78
490.17	11407.77
490.35	11412.45
490.53	11627.78
490.70	11618.42
490.88	11611.40
491.06	11845.45
491.24	11723.74
491.41	12035.03
491.59	11969.50
491.77	12102.91
491.95	12084.19
492.13	12325.26
492.30	12512.50
492.48	12343.99
492.66	12297.17
492.84	12095.89
493.01	12549.95
493.19	12734.85
493.37	12709.11
493.54	12936.14
493.72	13184.24
493.90	13067.21
494.08	12847.20
494.25	13191.26
494.43	13046.15
494.61	13153.81
494.79	13530.64
494.96	13217.01
495.14	13144.45
495.32	13544.68
495.49	13671.07
495.67	13783.41
495.85	13755.33
496.02	13958.96
496.20	14005.77
496.38	14047.90
496.55	13888.74
496.73	14361.53
496.91	14202.37
497.09	14272.59
497.26	14487.92
497.44	14279.61
497.62	14450.47
497.79	14656.43
497.97	14747.72
498.14	14747.72
498.32	14604.94
498.50	14712.61
498.67	14979.43
498.85	14883.47
499.03	14850.70
499.20	14909.21
499.38	15171.35
499.56	15363.28
499.73	15246.25
499.91	15447.54
500.08	15674.57
500.26	15241.57
500.44	15578.61
500.61	15499.03
500.79	15536.48
500.97	15838.41
501.14	16130.97
501.32	15925.00
501.49	15910.96
501.67	15824.36
501.84	16056.08
502.02	16098.20
502.20	16498.44
502.37	16044.37
502.55	16126.29
502.72	16229.27
502.90	16093.52
503.07	16308.85
503.25	16423.54
503.43	16519.50
503.60	16716.11
503.78	16559.29
503.95	16631.85
504.13	16776.96
504.30	16648.23
504.48	16898.67
504.65	16706.74
504.83	16950.16
505.01	17006.33
505.18	17231.02
505.36	17163.15
505.53	17289.54
505.71	17163.15
505.88	17095.27
506.06	17188.89
506.23	17441.67
506.41	17465.08
506.58	17359.75
506.76	17326.99
506.93	17619.55
507.11	17380.82
507.28	17535.29
507.46	17841.90
507.63	17752.96
507.81	18033.83
507.98	17977.65
508.16	17926.16
508.33	17994.04
508.50	17888.71
508.68	17916.80
508.85	17928.50
509.03	18118.09
509.20	18272.56
509.38	18298.31
509.55	18389.59
509.73	18293.63
509.90	18284.26
510.08	18279.58
510.25	18583.85
510.42	18445.76
510.60	18679.82
510.77	18878.76
510.95	18967.70
511.12	18792.16
511.30	18684.50
511.47	18881.10
511.64	18607.26
511.82	19021.53
511.99	19054.30
512.17	19166.65
512.34	18972.38
512.51	19468.58
512.69	19381.98
512.86	19288.35
513.04	19407.72
513.21	19545.81
513.38	19304.74
513.56	19573.90
513.73	19220.48
513.90	19405.38
514.08	19583.26
514.25	19967.11
514.43	19960.09
514.60	19913.28
514.77	19763.48
514.95	20093.50
515.12	19609.01
515.29	19672.20
515.47	19943.70
515.64	20196.48
515.81	20079.46
515.99	20343.94
516.16	20301.81
516.33	20034.99
516.51	20425.86
516.68	20645.87
516.85	20262.02
517.03	20388.41
517.20	20589.69
517.37	20500.75
517.54	20491.39
517.72	20737.15
517.89	20844.81
518.06	20643.52
518.24	20489.05
518.41	20908.01
518.58	20905.66
518.75	20917.37
518.93	20800.34
519.10	21139.72
519.27	21221.64
519.45	21010.99
519.62	21069.50
519.79	20680.97
519.96	21193.55
520.14	21600.80
520.31	21205.25
520.48	21558.67
520.65	20982.90
520.83	21745.92
521.00	21504.84
521.17	21546.97
521.34	21579.74
521.52	21961.25
521.69	21762.30
521.86	21898.05
522.03	21582.08
522.20	21902.73
522.38	22026.78
522.55	21940.18
522.72	22026.78
522.89	21921.46
523.07	22120.40
523.24	22153.17
523.41	22228.07
523.58	21769.32
523.75	22499.57
523.92	22349.78
524.10	22132.11
524.27	22380.20
524.44	22555.74
524.61	22370.84
524.78	22597.87
524.96	22628.30
525.13	22691.49
525.30	22427.01
525.47	22773.41
525.64	22497.23
525.81	22874.06
525.98	23070.66
526.16	22752.35
526.33	22586.17
526.50	23138.54
526.67	22864.69
526.84	22787.46
527.01	22747.67
527.18	22899.80
527.36	23115.13
527.53	23403.02
527.70	23592.60
527.87	23311.74
528.04	22918.53
528.21	23576.22
528.38	23262.58
528.55	23220.45
528.72	23379.61
528.89	23367.91
529.07	23400.68
529.24	23332.80
529.41	23695.58
529.58	23309.40
529.75	23606.64
529.92	23599.62
530.09	23410.04
530.26	23557.49
530.43	23971.77
530.60	23967.09
530.77	23929.64
530.94	24128.58
531.11	24041.98
531.28	24006.87
531.46	23953.04
531.63	24006.87
531.80	24203.48
531.97	24379.02
532.14	24334.55
532.31	24053.69
532.48	24243.27
532.65	24308.80
532.82	24074.75
532.99	24013.90
533.16	23997.51
533.33	24463.28
533.50	24341.57
533.67	24465.62
533.84	24224.54
534.01	24484.34
534.18	24224.54
534.35	24687.97
534.52	24659.88
534.69	24374.34
534.86	24559.24
535.03	24364.98
535.20	24584.99
535.37	24704.35
535.54	24655.20
535.71	24767.55
535.88	24968.84
536.05	24599.03
536.22	25085.86
536.38	25319.92
536.55	25212.25
536.72	24929.05
536.89	24678.61
537.06	25088.20
537.23	25228.63
537.40	25200.55
537.57	25048.41
537.74	25380.77
537.91	25577.37
538.08	25275.45
538.25	25352.68
538.42	25476.73
538.59	24959.47
538.75	25294.17
538.92	25383.11
539.09	25373.75
539.26	25846.54
539.43	25579.71
539.60	25453.33
539.77	25692.06
539.94	25713.13
540.11	25694.40
540.28	25598.44
540.44	25453.33
540.61	25685.04
540.78	25652.27
540.95	25865.26
541.12	25729.51
541.29	25652.27
541.46	25914.41
541.62	25675.68
541.79	25944.84
541.96	25661.63
542.13	26052.50
542.30	25937.82
542.47	25956.54
542.63	26251.45
542.80	26082.93
542.97	26476.14
543.14	26349.75
543.31	26181.23
543.48	26541.68
543.64	26581.46
543.81	26670.40
543.98	26588.49
544.15	26497.20
544.32	26618.91
544.48	26586.15
544.65	26806.16
544.82	26464.44
544.99	26541.68
545.16	26604.87
545.32	26464.44
545.49	26618.91
545.66	27044.89
545.83	27147.87
546.00	26749.98
546.16	26934.88
546.33	26962.97
546.50	26429.33
546.67	26965.31
546.83	26696.15
547.00	26689.13
547.17	26857.65
547.34	27054.25
547.50	26845.94
547.67	27782.16
547.84	27372.57
548.00	27353.84
548.17	27517.68
548.34	27391.29
548.51	27552.79
548.67	27255.54
548.84	27782.16
549.01	27138.51
549.18	27164.26
549.34	26904.46
549.51	27292.99
549.68	27651.09
549.84	27269.58
550.01	27475.55
550.18	27260.22
550.34	27789.18
550.51	27599.60
550.68	27840.67
550.84	27599.60
551.01	27377.25
551.18	27463.85
551.34	27742.37
551.51	28105.15
551.68	27573.85
551.84	27667.47
552.01	27992.81
552.18	27892.16
552.34	27953.02
552.51	27838.33
552.68	27843.01
552.84	28027.92
553.01	27981.10
553.18	27934.29
553.34	28173.03
553.51	28184.73
553.67	27964.72
553.84	28519.43
554.01	28112.17
554.17	28093.45
554.34	28142.60
554.51	27833.65
554.67	28081.75
554.84	28046.64
555.00	28154.30
555.17	27866.42
555.33	28264.31
555.50	28109.83
555.67	28102.81
555.83	27936.63
556.00	28147.28
556.16	28411.76
556.33	28156.64
556.50	28196.43
556.66	28458.57
556.83	28772.21
556.99	28437.51
557.16	28458.57
557.32	28554.54
557.49	28409.42
557.65	28533.47
557.82	28587.30
557.98	28893.91
558.15	28737.10
558.32	28706.67
558.48	28123.88
558.65	28542.83
558.81	28856.46
558.98	28765.18
559.14	28505.38
559.31	28528.79
559.47	28381.34
559.64	29048.39
559.80	28519.43
559.97	28772.21
560.13	28432.83
560.30	29216.91
560.46	28603.69
560.63	28875.19
560.79	28842.42
560.96	28599.01
561.12	29181.80
561.29	28816.68
561.45	28678.58
561.61	29195.84
561.78	29067.11
561.94	29008.60
562.11	28835.40
562.27	29134.99
562.44	29027.32
562.60	29102.22
562.77	28954.77
562.93	28975.83
563.10	29455.64
563.26	28638.80
563.42	29125.63
563.59	29041.37
563.75	29357.34
563.92	29088.18
564.08	29340.96
564.24	29170.10
564.41	29303.51
564.57	28975.83
564.74	29179.46
564.90	29083.50
565.07	29326.91
565.23	29359.68
565.39	29209.89
565.56	29497.77
565.72	29287.12
565.88	29390.11
566.05	29528.20
566.21	29113.92
566.38	28875.19
566.54	29202.86
566.70	29642.88
566.87	29582.03
567.03	29039.03
567.19	29628.84
567.36	29364.36
567.52	29392.45
567.68	29355.00
567.85	29427.56
568.01	29455.64
568.17	29312.87
568.34	29614.80
568.50	29385.43
568.66	29567.99
568.83	29514.16
568.99	29560.97
569.15	29450.96
569.32	29336.27
569.48	29170.10
569.64	29773.95
569.81	29450.96
569.97	29450.96
570.13	29645.23
570.30	29443.94
570.46	29406.49
570.62	29397.13
570.78	29497.77
570.95	29284.78
571.11	29333.93
571.27	29319.89
571.43	29490.75
571.60	29514.16
571.76	29795.02
571.92	29727.14
572.09	29598.41
572.25	30017.37
572.41	29582.03
572.57	29795.02
572.74	29888.64
572.90	29668.63
573.06	29699.06
573.22	29488.41
573.38	29668.63
573.55	29694.38
573.71	29919.07
573.87	30211.64
574.03	29661.61
574.20	29635.86
574.36	29600.76
574.52	29558.63
574.68	29577.35
574.84	29809.06
575.01	29680.33
575.17	29673.31
575.33	29240.31
575.49	29652.25
575.65	29783.32
575.82	29825.45
575.98	30139.08
576.14	30164.82
576.30	29949.50
576.46	29642.88
576.62	29467.34
576.79	30031.41
576.95	29418.19
577.11	29694.38
577.27	29944.81
577.43	30129.72
577.59	30396.54
577.75	29834.81
577.92	29811.40
578.08	29734.17
578.24	29626.50
578.40	30015.03
578.56	29869.92
578.72	29741.19
578.88	30284.19
579.04	30237.38
579.21	29977.58
579.37	29610.12
579.53	30071.20
579.69	29689.70
579.85	30197.59
580.01	29993.97
580.17	29397.13
580.33	29490.75
580.49	29490.75
580.65	29947.15
580.82	30384.83
580.98	29923.75
581.14	29869.92
581.30	30206.95
581.46	29905.02
581.62	29820.77
581.78	29549.26
581.94	29986.94
582.10	30246.74
582.26	29778.64
582.42	30167.16
582.58	30342.70
582.74	30043.12
582.90	30281.85
583.06	30178.87
583.22	29954.18
583.38	30024.39
583.54	29687.36
583.70	30237.38
583.86	29888.64
584.02	29610.12
584.18	30094.61
584.34	30202.27
584.50	30286.53
584.66	30047.80
584.82	29687.36
584.98	30239.72
585.14	30073.54
585.30	30237.38
585.46	30024.39
585.62	29621.82
585.78	30019.71
585.94	30015.03
586.10	30134.40
586.26	30237.38
586.42	30258.45
586.58	30326.32
586.74	29837.15
586.90	29790.34
587.06	29748.21
587.22	29926.09
587.38	30146.10
587.54	29935.45
587.70	30932.52
587.86	30366.11
588.02	30284.19
588.18	30586.12
588.34	30331.00
588.49	30433.99
588.65	29610.12
588.81	30171.85
588.97	30333.34
589.13	30068.86
589.29	29972.90
589.45	29979.92
589.61	30375.47
589.77	30508.88
589.93	30115.67
590.08	30476.12
590.24	30529.95
590.40	30096.95
590.56	30644.63
590.72	30085.25
590.88	30185.89
591.04	30532.29
591.20	30611.87
591.35	30583.78
591.51	30775.70
591.67	30565.06
591.83	30756.98
591.99	30616.55
592.15	30579.10
592.31	30511.22
592.46	30246.74
592.62	30071.20
592.78	30576.76
592.94	30431.65
593.10	30466.75
593.26	30410.58
593.41	30593.14
593.57	30675.06
593.73	30560.37
593.89	31175.94
594.05	30565.06
594.20	30373.13
594.36	30618.89
594.52	30389.52
594.68	30331.00
594.84	30356.75
594.99	30476.12
595.15	30361.43
595.31	30766.34
595.47	30558.03
595.62	30946.56
595.78	30749.96
595.94	30682.08
596.10	30775.70
596.25	30534.63
596.41	30401.22
596.57	30602.50
596.73	30576.76
596.88	30284.19
597.04	30714.85
597.20	30583.78
597.36	30953.58
597.51	31112.74
597.67	30558.03
597.83	30700.81
597.99	30567.40
598.14	30581.44
598.30	30323.98
598.46	30455.05
598.61	30911.46
598.77	30609.53
598.93	30766.34
599.09	30661.02
599.24	30934.86
599.40	31138.49
599.56	30815.49
599.71	30562.72
599.87	30953.58
600.03	30668.04
600.18	30448.03
600.34	30609.53
600.50	30668.04
600.65	30747.62
600.81	30766.34
600.97	31405.31
601.12	31007.42
601.28	31005.08
601.44	30672.72
601.59	30735.92
601.75	30754.64
601.91	30869.33
602.06	30696.13
602.22	30661.02
602.37	30785.07
602.53	30375.47
602.69	30920.82
602.84	30646.97
603.00	30857.62
603.16	30670.38
603.31	30766.34
603.47	30845.92
603.62	30710.17
603.78	30609.53
603.94	30752.30
604.09	30551.01
604.25	30359.09
604.40	30778.04
604.56	30331.00
604.71	31012.10
604.87	30618.89
605.03	30871.67
605.18	30869.33
605.34	30300.58
605.49	30761.66
605.65	30487.82
605.80	30373.13
605.96	30623.57
606.12	30195.25
606.27	30789.75
606.43	30937.20
606.58	30412.92
606.74	30829.54
606.89	31189.98
607.05	30869.33
607.20	30583.78
607.36	30710.17
607.51	31101.04
607.67	30398.88
607.82	30333.34
607.98	30632.93
608.13	30515.90
608.29	30347.39
608.44	30628.25
608.60	30740.60
608.75	30595.48
608.91	30143.76
609.06	30408.24
609.22	30567.40
609.37	30309.94
609.53	30342.70
609.68	30415.26
609.84	30218.66
609.99	30110.99
610.15	30361.43
610.30	30466.75
610.46	30309.94
610.61	30206.95
610.76	30211.64
610.92	30448.03
611.07	30532.29
611.23	30274.83
611.38	30108.65
611.54	30368.45
611.69	30328.66
611.84	29792.68
612.00	29668.63
612.15	30043.12
612.31	30520.59
612.46	30412.92
612.62	30312.28
612.77	30125.04
612.92	30623.57
613.08	29933.11
613.23	30253.76
613.39	29984.60
613.54	30015.03
613.69	30562.72
613.85	29659.27
614.00	30239.72
614.15	30068.86
614.31	30129.72
614.46	30075.88
614.62	30199.93
614.77	30270.15
614.92	30211.64
615.08	29919.07
615.23	30181.21
615.38	29991.62
615.54	29715.44
615.69	29579.69
615.84	29841.83
616.00	29844.17
616.15	29755.23
616.30	30031.41
616.46	30199.93
616.61	29923.75
616.76	30101.63
616.92	29886.30
617.07	30040.78
617.22	29947.15
617.37	29570.33
617.53	29998.65
617.68	29933.11
617.83	29727.14
617.99	29811.40
618.14	29776.30
618.29	30033.75
618.45	29617.14
618.60	29851.19
618.75	29675.65
618.90	29846.51
619.06	29682.67
619.21	29345.64
619.36	29465.00
619.51	29378.40
619.67	29621.82
619.82	29364.36
619.97	29701.40
620.12	29296.49
620.28	29219.25
620.43	29528.20
620.58	29720.12
620.73	29387.77
620.89	29579.69
621.04	29769.27
621.19	29413.51
621.34	29254.36
621.49	29273.08
621.65	29142.01
621.80	29633.52
621.95	29050.73
622.10	29296.49
622.25	29521.18
622.41	29453.30
622.56	29441.60
622.71	29303.51
622.86	29308.19
623.01	29331.59
623.16	29092.86
623.32	29167.76
623.47	29132.65
623.62	28727.74
623.77	29343.30
623.92	29436.92
624.07	29010.94
624.23	28877.53
624.38	29233.29
624.53	29067.11
624.68	29420.53
624.83	29394.79
624.98	29298.83
625.13	29060.09
625.29	29003.92
625.44	29118.60
625.59	28973.49
625.74	28879.87
625.89	28580.28
626.04	28711.35
626.19	28570.92
626.34	28659.86
626.49	28563.90
626.65	28538.15
626.80	29132.65
626.95	28638.80
627.10	28507.72
627.25	28980.51
627.40	28758.16
627.55	28734.76
627.70	28388.36
627.85	28491.34
628.00	28952.43
628.15	28465.60
628.30	28577.94
628.45	28278.35
628.60	28451.55
628.76	28847.10
628.91	28673.90
629.06	28278.35
629.21	28800.29
629.36	28416.44
629.51	28418.78
629.66	28308.78
629.81	28369.63
629.96	28266.65
630.11	28123.88
630.26	28264.31
630.41	28046.64
630.56	28247.93
630.71	28320.48
630.86	28205.80
631.01	28601.35
631.16	28217.50
631.31	28112.17
631.46	28088.77
631.61	28510.07
631.76	28364.95
631.91	27843.01
632.06	27873.44
632.21	28236.22
632.36	28013.87
632.51	27798.54
632.66	27819.61
632.81	27920.25
632.96	28374.31
633.10	28109.83
633.25	28325.16
633.40	28355.59
633.55	28077.07
633.70	28009.19
633.85	27704.92
634.00	27372.57
634.15	27826.63
634.30	27840.67
634.45	27646.41
634.60	27838.33
634.75	28011.53
634.90	27615.98
635.05	27611.30
635.19	27784.50
635.34	27749.39
635.49	27988.13
635.64	28074.73
635.79	27634.71
635.94	27431.08
636.09	27903.87
636.24	27824.29
636.39	27527.04
636.53	27463.85
636.68	27536.40
636.83	27730.67
636.98	27466.19
637.13	27585.55
637.28	27683.86
637.43	27592.58
637.57	27662.79
637.72	27508.32
637.87	27384.27
638.02	27709.60
638.17	27349.16
638.32	27300.01
638.46	27283.62
638.61	27344.48
638.76	27140.85
638.91	26918.50
639.06	27168.94
639.20	27447.46
639.35	27410.01
639.50	27424.06
639.65	27531.72
639.80	27248.52
639.94	27351.50
640.09	27168.94
640.24	27094.04
640.39	27456.82
640.54	27124.47
640.68	26918.50
640.83	27182.98
640.98	27140.85
641.13	27012.12
641.27	26969.99
641.42	26916.16
641.57	26953.61
641.72	27051.91
641.86	27119.79
642.01	27009.78
642.16	26927.86
642.31	26609.55
642.45	26864.67
642.60	26817.86
642.75	26602.53
642.90	26593.17
643.04	26885.73
643.19	26754.66
643.34	26618.91
643.48	26787.43
643.63	26843.60
643.78	26785.09
643.93	27033.19
644.07	27260.22
644.22	26885.73
644.37	26216.34
644.51	26761.69
644.66	26747.64
644.81	26693.81
644.95	26466.78
645.10	26583.80
645.25	26834.24
645.39	26471.46
645.54	26773.39
645.69	26593.17
645.83	26698.49
645.98	26569.76
646.13	26733.60
646.27	26515.93
646.42	26490.18
646.57	26443.37
646.71	26536.99
646.86	26455.08
647.00	26551.04
647.15	26242.09
647.30	26279.54
647.44	26490.18
647.59	26604.87
647.74	26345.07
647.88	26534.65
648.03	26558.06
648.17	26761.69
648.32	26174.21
648.47	26209.32
648.61	26841.26
648.76	26424.65
648.90	26244.43
649.05	26164.85
649.20	26492.52
649.34	26211.66
649.49	25825.47
649.63	25869.94
649.78	26324.01
649.92	26089.95
650.07	26298.26
650.21	26122.72
650.36	26176.55
650.51	25942.50
650.65	26188.25
650.80	26017.40
650.94	26281.88
651.09	25425.24
651.23	25914.41
651.38	26022.08
651.52	25633.55
651.67	25729.51
651.81	25923.77
651.96	25965.90
652.10	25848.88
652.25	25804.41
652.39	25893.35
652.54	26073.57
652.68	25937.82
652.83	26438.69
652.97	25977.61
653.12	26010.37
653.26	25806.75
653.41	25727.17
653.55	25846.54
653.70	25762.28
653.84	25996.33
653.99	25720.15
654.13	25851.22
654.27	25544.61
654.42	25582.06
654.56	25352.68
654.71	25507.16
654.85	25663.97
655.00	25434.60
655.14	25724.83
655.29	25439.28
655.43	25607.80
655.57	25521.20
655.72	25521.20
655.86	25525.88
656.01	25570.35
656.15	25226.29
656.30	25371.41
656.44	25507.16
656.58	25165.44
656.73	25240.34
656.87	25525.88
657.01	25357.36
657.16	25446.30
657.30	25350.34
657.45	25308.21
657.59	25387.79
657.73	25441.62
657.88	25673.34
658.02	25387.79
658.16	25259.06
658.31	25448.64
658.45	24975.86
658.60	24638.82
658.74	24898.62
658.88	25043.73
659.03	25006.28
659.17	25296.51
659.31	24842.45
659.46	25032.03
659.60	24809.68
659.74	25139.69
659.89	24996.92
660.03	24954.79
660.17	24844.79
660.32	24510.09
660.46	24748.82
660.60	24577.97
660.74	24477.32
660.89	24629.46
661.03	24243.27
661.17	24460.94
661.32	24425.83
661.46	24842.45
661.60	24631.80
661.74	24844.79
661.89	24474.98
662.03	24439.87
662.17	24430.51
662.31	24308.80
662.46	24364.98
662.60	24439.87
662.74	24329.87
662.88	24144.97
663.03	24261.99
663.17	23718.99
663.31	23817.29
663.45	24142.63
663.60	24201.14
663.74	24128.58
663.88	24243.27
664.02	23978.79
664.17	24266.67
664.31	23641.75
664.45	23812.61
664.59	24084.11
664.73	23737.71
664.88	23828.99
665.02	23379.61
665.16	23541.11
665.30	23669.84
665.44	23426.42
665.59	23316.42
665.73	23381.95
665.87	23285.99
666.01	23503.66
666.15	23604.30
666.29	23330.46
666.44	23697.92
666.58	23412.38
666.72	22885.76
666.86	23271.95
667.00	23438.12
667.14	23253.22
667.28	23241.52
667.43	23164.28
667.57	23293.01
667.71	23084.70
667.85	22838.95
667.99	22813.20
668.13	22522.98
668.27	22761.71
668.41	23065.98
668.56	22637.66
668.70	23063.64
668.84	22857.67
668.98	22913.84
669.12	22689.15
669.26	23166.62
669.40	22740.64
669.54	22700.86
669.68	22494.89
669.82	22628.30
669.96	22469.14
670.10	22597.87
670.25	22759.37
670.39	22403.61
670.53	22265.52
670.67	22263.18
670.81	22600.21
670.95	22405.95
671.09	22398.93
671.23	22476.16
671.37	22396.59
671.51	22218.71
671.65	22129.77
671.79	22551.06
671.93	21972.95
672.07	22097.00
672.21	22089.98
672.35	22073.59
672.49	21764.64
672.63	21813.79
672.77	21757.62
672.91	21986.99
673.05	21926.14
673.19	21998.70
673.33	21633.57
673.47	21741.24
673.61	21956.57
673.75	21525.91
673.89	21472.07
674.03	21427.60
674.17	21607.83
674.31	21860.60
674.45	21308.24
674.59	21125.68
674.73	21460.37
674.87	21291.85
675.01	21181.85
675.15	21495.48
675.29	21062.48
675.43	20798.00
675.56	20947.79
675.70	21111.63
675.84	21032.05
675.98	20278.40
676.12	21181.85
676.26	21139.72
676.40	20856.51
676.54	20727.78
676.68	20748.85
676.82	20037.33
676.96	20542.88
677.10	20386.07
677.23	20238.61
677.37	20006.90
677.51	20205.84
677.65	20072.43
677.79	19857.10
677.93	20056.05
678.07	19819.66
678.21	19894.55
678.34	19840.72
678.48	19676.88
678.62	19552.84
678.76	19709.65
678.90	19740.08
679.04	19665.18
679.18	19520.07
679.31	19407.72
679.45	19122.18
679.59	19080.05
679.73	19410.06
679.87	19131.54
680.00	19150.26
680.14	19374.95
680.28	19000.47
680.42	19056.64
680.56	19161.97
680.70	19183.03
680.83	19213.46
680.97	18967.70
681.11	19021.53
681.25	18871.74
681.39	18794.50
681.52	18757.05
681.66	18759.39
681.80	18838.97
681.94	18625.98
682.07	18305.33
682.21	18515.98
682.35	18338.10
682.49	18097.02
682.62	18230.43
682.76	18389.59
682.90	18155.54
683.04	18143.83
683.17	18139.15
683.31	17982.34
683.45	18235.11
683.59	18272.56
683.72	17762.33
683.86	17893.40
684.00	17778.71
684.13	17628.92
684.27	17516.57
684.41	17420.61
684.55	17364.43
684.68	17633.60
684.82	17001.65
684.96	17287.20
685.09	17219.32
685.23	17238.05
685.37	17355.07
685.50	17252.09
685.64	17385.50
685.78	16938.46
685.91	17123.36
686.05	16919.73
686.19	17123.36
686.32	17179.53
686.46	16898.67
686.60	16559.29
686.73	16507.80
686.87	16673.98
687.01	16549.93
687.14	16336.94
687.28	16266.72
687.42	16549.93
687.55	16409.50
687.69	16283.11
687.82	16189.49
687.96	16379.07
688.10	15992.88
688.23	16072.46
688.37	15915.64
688.50	16093.52
688.64	16042.03
688.78	16016.29
688.91	15971.82
689.05	15683.93
689.18	15676.91
689.32	15353.91
689.46	15403.07
689.59	15421.79
689.73	15609.03
689.86	15756.49
690.00	15075.39
690.13	15386.68
690.27	15475.62
690.41	15243.91
690.54	14979.43
690.68	15051.99
690.81	15365.62
690.95	15080.07
691.08	15248.59
691.22	14932.62
691.35	14853.04
691.49	14958.36
691.62	14707.93
691.76	14698.56
691.89	14616.65
692.03	14604.94
692.16	14394.29
692.30	14548.77
692.43	14352.16
692.57	14422.38
692.70	14380.25
692.84	14457.49
692.97	14097.05
693.11	14288.97
693.24	14047.90
693.38	13879.38
693.51	13996.40
693.65	13895.76
693.78	13891.08
693.92	13745.97
694.05	13813.84
694.19	13748.31
694.32	13785.76
694.45	13563.40
694.59	13303.60
694.72	13434.68
694.86	13341.05
694.99	13254.45
695.13	13324.67
695.26	13390.20
695.39	13146.79
695.53	13317.65
695.66	13275.52
695.80	13057.85
695.93	13331.69
696.07	13399.57
696.20	13048.49
696.33	12959.55
696.47	13036.78
696.60	12879.97
696.73	12774.64
696.87	12812.09
697.00	12571.02
697.14	12713.79
697.27	12678.68
697.40	12407.18
697.54	12107.59
697.67	12358.03
697.80	12524.21
697.94	12058.44
698.07	12203.55
698.21	12004.61
698.34	12285.47
698.47	12313.56
698.61	12067.80
698.74	12194.19
698.87	12175.47
699.01	11894.60
699.14	11885.24
699.27	11925.03
699.40	11836.09
699.54	11667.57
699.67	11639.48
699.80	11531.82
699.94	11447.56
700.07	11758.85
700.20	11412.45
700.34	11386.71
700.47	11325.85
700.60	11440.54
700.73	11250.96
700.87	11225.21
701.00	11180.74
701.13	11370.32
701.26	11103.50
701.40	11410.11
701.53	11145.63
701.66	11276.70
701.79	10895.19
701.93	11000.52
702.06	10600.29
702.19	10621.35
702.32	10595.61
702.46	10424.75
702.59	10665.82
702.72	10445.81
702.85	10232.82
702.99	10403.68
703.12	10525.39
703.25	10230.48
703.38	10429.43
703.51	10303.04
703.65	10235.16
703.78	10239.84
703.91	10373.25
704.04	10335.81
704.17	10296.02
704.31	10104.09
704.44	9909.83
704.57	10033.88
704.70	9977.70
704.83	9696.84
704.96	9844.29
705.10	9760.03
705.23	9638.33
>>>>>End Processed Spectral Data<<<<<
