SpectraSuite Data File
++++++++++++++++++++++++++++++++++++
Date: Fri Oct 18 13:58:15 GMT-05:00 2013
User: bianchi
Dark Spectrum Present: No
Reference Spectrum Present: No
Number of Sampled Component Spectra: 1
Spectrometers: USB2+H05261
Integration Time (usec): 50000 (USB2+H05261)
Spectra Averaged: 1 (USB2+H05261)
Boxcar Smoothing: 0 (USB2+H05261)
Correct for Electrical Dark: No (USB2+H05261)
Strobe/Lamp Enabled: No (USB2+H05261)
Correct for Detector Non-linearity: No (USB2+H05261)
Correct for Stray Light: No (USB2+H05261)
Number of Pixels in Processed Spectrum: 2048
>>>>>Begin Processed Spectral Data<<<<<
365.73	0.00
365.92	0.00
366.12	0.00
366.32	0.00
366.52	0.00
366.72	0.00
366.91	0.00
367.11	0.00
367.31	0.00
367.51	0.00
367.70	0.00
367.90	0.00
368.10	0.00
368.30	0.00
368.49	0.00
368.69	0.00
368.89	0.00
369.09	0.00
369.28	0.00
369.48	0.00
369.68	0.00
369.87	0.00
370.07	0.00
370.27	0.00
370.47	0.00
370.66	140.43
370.86	98.30
371.06	177.88
371.25	105.32
371.45	126.39
371.65	117.03
371.84	112.35
372.04	95.96
372.24	201.29
372.44	210.65
372.63	168.52
372.83	194.26
373.03	201.29
373.22	191.92
373.42	138.09
373.62	266.82
373.81	154.48
374.01	266.82
374.21	208.31
374.40	212.99
374.60	227.03
374.79	177.88
374.99	215.33
375.19	287.89
375.38	285.55
375.58	269.16
375.78	224.69
375.97	325.33
376.17	318.31
376.37	245.76
376.56	262.14
376.76	191.92
376.95	259.80
377.15	294.91
377.35	285.55
377.54	210.65
377.74	271.50
377.93	311.29
378.13	264.48
378.33	334.70
378.52	390.87
378.72	262.14
378.91	301.93
379.11	320.65
379.31	248.10
379.50	346.40
379.70	250.44
379.89	353.42
380.09	318.31
380.28	294.91
380.48	241.08
380.68	360.44
380.87	299.59
381.07	259.80
381.26	355.76
381.46	407.25
381.65	369.80
381.85	290.23
382.04	339.38
382.24	297.25
382.43	313.63
382.63	320.65
382.83	315.97
383.02	390.87
383.22	304.27
383.41	306.61
383.61	372.15
383.80	365.12
384.00	395.55
384.19	421.30
384.39	372.15
384.58	393.21
384.78	299.59
384.97	355.76
385.17	393.21
385.36	355.76
385.56	313.63
385.75	374.49
385.95	369.80
386.14	372.15
386.34	393.21
386.53	351.08
386.72	388.53
386.92	437.68
387.11	322.99
387.31	430.66
387.50	388.53
387.70	409.59
387.89	372.15
388.09	416.62
388.28	404.91
388.48	449.38
388.67	449.38
388.86	437.68
389.06	454.06
389.25	411.93
389.45	433.00
389.64	395.55
389.84	456.40
390.03	468.11
390.22	521.94
390.42	447.04
390.61	566.41
390.81	503.22
391.00	503.22
391.19	552.37
391.39	477.47
391.58	512.58
391.78	545.34
391.97	493.85
392.16	578.11
392.36	498.53
392.55	512.58
392.75	545.34
392.94	641.31
393.13	510.24
393.33	575.77
393.52	571.09
393.71	592.16
393.91	610.88
394.10	601.52
394.29	491.51
394.49	517.26
394.68	592.16
394.88	601.52
395.07	601.52
395.26	571.09
395.46	528.96
395.65	685.78
395.84	678.76
396.04	660.03
396.23	629.60
396.42	624.92
396.62	681.10
396.81	695.14
397.00	688.12
397.19	664.71
397.39	636.63
397.58	727.91
397.77	655.35
397.97	678.76
398.16	531.30
398.35	786.42
398.55	629.60
398.74	695.14
398.93	674.07
399.12	653.01
399.32	723.23
399.51	674.07
399.70	779.40
399.90	739.61
400.09	702.16
400.28	814.51
400.47	727.91
400.67	763.01
400.86	702.16
401.05	786.42
401.24	748.97
401.44	798.12
401.63	779.40
401.82	676.41
402.01	851.96
402.21	781.74
402.40	784.08
402.59	835.57
402.78	870.68
402.97	870.68
403.17	884.72
403.36	880.04
403.55	788.76
403.74	910.47
403.93	819.19
404.13	863.66
404.32	968.98
404.51	910.47
404.70	959.62
404.89	858.98
405.09	952.60
405.28	901.11
405.47	933.87
405.66	968.98
405.85	1015.79
406.05	990.05
406.24	908.13
406.43	1015.79
406.62	1013.45
406.81	1036.86
407.00	1048.56
407.20	985.37
407.39	959.62
407.58	1093.03
407.77	1086.01
407.96	1067.28
408.15	1039.20
408.34	1043.88
408.54	1146.86
408.73	1055.58
408.92	1062.60
409.11	1128.14
409.30	1205.38
409.49	1186.65
409.68	1074.31
409.87	1214.74
410.07	1181.97
410.26	1167.93
410.45	1174.95
410.64	1252.19
410.83	1142.18
411.02	1167.93
411.21	1235.80
411.40	1238.14
411.59	1273.25
411.78	1256.87
411.98	1310.70
412.17	1214.74
412.36	1256.87
412.55	1313.04
412.74	1383.26
412.93	1359.85
413.12	1371.55
413.31	1483.90
413.50	1362.19
413.69	1446.45
413.88	1554.12
414.07	1390.28
414.26	1366.87
414.45	1481.56
414.64	1479.22
414.83	1481.56
415.02	1530.71
415.22	1458.15
415.41	1568.16
415.60	1586.88
415.79	1680.50
415.98	1551.78
416.17	1593.90
416.36	1537.73
416.55	1619.65
416.74	1558.80
416.93	1577.52
417.12	1788.17
417.31	1727.32
417.50	1788.17
417.69	1727.32
417.88	1593.90
418.07	1741.36
418.26	1561.14
418.45	1736.68
418.64	1844.34
418.83	1743.70
419.02	1806.89
419.21	1827.96
419.39	1858.39
419.58	1820.94
419.77	1865.41
419.96	1834.98
420.15	1881.79
420.34	1746.04
420.53	1760.08
420.72	1853.70
420.91	1961.37
421.10	1923.92
421.29	1989.46
421.48	1895.83
421.67	1839.66
421.86	1914.56
422.05	1907.54
422.24	1879.45
422.43	1961.37
422.61	2071.37
422.80	1926.26
422.99	2045.63
423.18	2040.95
423.37	2038.61
423.56	2026.90
423.75	1984.77
423.94	1832.64
424.13	1928.60
424.32	1886.47
424.50	2066.69
424.69	2139.25
424.88	2008.18
425.07	2054.99
425.26	1952.01
425.45	2083.08
425.64	1947.33
425.83	2029.24
426.01	2033.93
426.20	2118.18
426.39	2113.50
426.58	2125.21
426.77	2143.93
426.96	2127.55
427.15	2122.87
427.33	2092.44
427.52	2090.10
427.71	2176.70
427.90	2066.69
428.09	2099.46
428.28	2139.25
428.46	2258.62
428.65	2279.68
428.84	2270.32
429.03	2216.49
429.22	2282.02
429.40	2286.70
429.59	2270.32
429.78	2040.95
429.97	2256.28
430.16	2193.08
430.34	2387.35
430.53	2354.58
430.72	2289.04
430.91	2223.51
431.10	2230.53
431.28	2389.69
431.47	2471.61
431.66	2333.51
431.85	2286.70
432.03	2373.30
432.22	2450.54
432.41	2429.48
432.60	2438.84
432.79	2399.05
432.97	2525.44
433.16	2469.27
433.35	2511.39
433.54	2495.01
433.72	2590.97
433.91	2441.18
434.10	2539.48
434.28	2579.27
434.47	2574.59
434.66	2560.55
434.85	2459.90
435.03	2663.53
435.22	2476.29
435.41	2626.08
435.59	2614.38
435.78	2607.36
435.97	2628.42
436.16	2686.94
436.34	2677.57
436.53	2754.81
436.72	2757.15
436.90	2752.47
437.09	2839.07
437.28	2654.17
437.46	2675.23
437.65	2764.17
437.84	2775.88
438.02	2738.43
438.21	2691.62
438.40	2754.81
438.58	2960.78
438.77	2888.22
438.96	2895.24
439.14	2925.67
439.33	2932.69
439.52	2902.26
439.70	2911.63
439.89	2951.42
440.08	2937.37
440.26	2972.48
440.45	3042.70
440.63	2937.37
440.82	3138.66
441.01	3112.91
441.19	3157.38
441.38	3133.98
441.57	3171.43
441.75	3279.09
441.94	3157.38
442.12	3328.24
442.31	3330.58
442.50	3311.86
442.68	3368.03
442.87	3239.30
443.05	3105.89
443.24	3325.90
443.43	3447.61
443.61	3400.80
443.80	3536.55
443.98	3192.49
444.17	3232.28
444.35	3368.03
444.54	3489.74
444.73	3356.33
444.91	3463.99
445.10	3417.18
445.28	3400.80
445.47	3447.61
445.65	3332.92
445.84	3449.95
446.02	3473.36
446.21	3494.42
446.39	3407.82
446.58	3375.05
446.77	3421.86
446.95	3421.86
447.14	3492.08
447.32	3405.48
447.51	3426.54
447.69	3499.10
447.88	3564.64
448.06	3597.40
448.25	3499.10
448.43	3581.02
448.62	3431.23
448.80	3641.87
448.99	3499.10
449.17	3693.37
449.36	3613.79
449.54	3555.27
449.73	3681.66
449.91	3625.49
450.10	3707.41
450.28	3714.43
450.46	3772.94
450.65	3854.86
450.83	3749.54
451.02	3702.73
451.20	3908.69
451.39	3775.28
451.57	3763.58
451.76	3686.34
451.94	3669.96
452.13	3817.41
452.31	3866.56
452.49	3761.24
452.68	3829.12
452.86	3770.60
453.05	3819.75
453.23	3939.12
453.42	3829.12
453.60	3803.37
453.78	3918.06
453.97	3939.12
454.15	4028.06
454.34	3960.19
454.52	4030.40
454.70	3943.80
454.89	4088.92
455.07	4140.41
455.26	4135.73
455.44	4049.13
455.62	4091.26
455.81	4058.49
455.99	4133.39
456.17	4145.09
456.36	4014.02
456.54	4212.96
456.73	4203.60
456.91	4367.44
457.09	4060.83
457.28	4388.50
457.46	4238.71
457.64	4374.46
457.83	4229.35
458.01	4168.49
458.19	4393.19
458.38	4329.99
458.56	4339.35
458.74	4456.38
458.93	4337.01
459.11	4337.01
459.29	4561.70
459.48	4444.68
459.66	4512.55
459.84	4582.77
460.03	4519.57
460.21	4475.10
460.39	4627.24
460.57	4519.57
460.76	4582.77
460.94	4737.24
461.12	4655.33
461.31	4727.88
461.49	4669.37
461.67	4652.98
461.85	4706.82
462.04	4709.16
462.22	4802.78
462.40	4657.67
462.59	4709.16
462.77	4711.50
462.95	4851.93
463.13	4699.80
463.32	4830.87
463.50	4830.87
463.68	4884.70
463.86	4870.65
464.05	4861.29
464.23	4767.67
464.41	5015.77
464.59	4723.20
464.78	5104.71
464.96	4952.57
465.14	4868.31
465.32	4812.14
465.50	4933.85
465.69	5027.47
465.87	5011.09
466.05	4983.00
466.23	4887.04
466.41	5013.43
466.60	5193.65
466.78	5081.30
466.96	5069.60
467.14	5102.37
467.32	5013.43
467.51	5193.65
467.69	5128.11
467.87	5165.56
468.05	5305.99
468.23	5149.18
468.41	5217.05
468.60	5163.22
468.78	5240.46
468.96	5097.69
469.14	5167.90
469.32	5320.04
469.50	5322.38
469.69	5298.97
469.87	5497.92
470.05	5348.12
470.23	5446.43
470.41	5460.47
470.59	5507.28
470.77	5444.09
470.95	5612.60
471.14	5640.69
471.32	5439.40
471.50	5678.14
471.68	5643.03
471.86	5542.39
472.04	5612.60
472.22	5795.17
472.40	5703.89
472.58	5738.99
472.77	5717.93
472.95	5659.42
473.13	5834.96
473.31	5736.65
473.49	5802.19
473.67	5753.04
473.85	5741.33
474.03	6120.50
474.21	5687.50
474.39	6101.78
474.57	6019.86
474.75	6094.76
474.93	6169.65
475.12	6099.44
475.30	6120.50
475.48	6242.21
475.66	6349.87
475.84	6263.27
476.02	6216.46
476.20	6244.55
476.38	6497.33
476.56	6438.81
476.74	6518.39
476.92	6609.67
477.10	6450.52
477.28	6885.86
477.46	6633.08
477.64	6682.23
477.82	6733.72
478.00	6993.52
478.18	6848.41
478.36	6883.52
478.54	7059.06
478.72	6885.86
478.90	7143.32
479.08	7227.57
479.26	7414.82
479.44	7377.37
479.62	7211.19
479.80	7597.38
479.98	7480.35
480.16	7473.33
480.34	7356.30
480.52	7573.97
480.70	7648.87
480.88	7564.61
481.06	7805.69
481.24	7456.95
481.41	7693.34
481.59	7793.98
481.77	8074.85
481.95	7894.63
482.13	8135.70
482.31	7962.50
482.49	8135.70
482.67	8156.77
482.85	8407.20
483.03	8552.32
483.21	8444.65
483.39	8669.34
483.57	8472.74
483.74	8531.25
483.92	8601.47
484.10	8617.85
484.28	8894.04
484.46	8807.44
484.64	9006.38
484.82	9109.36
485.00	9100.00
485.18	9207.67
485.35	9444.06
485.53	9343.42
485.71	9502.58
485.89	9654.71
486.07	9745.99
486.25	9490.87
486.43	9727.27
486.61	9757.69
486.78	9968.34
486.96	9844.29
487.14	10045.58
487.32	10026.86
487.50	9998.77
487.68	10127.50
487.85	10303.04
488.03	10469.22
488.21	10658.80
488.39	10380.28
488.57	10551.14
488.75	10953.71
488.92	10867.11
489.10	11131.59
489.28	10984.13
489.46	11063.71
489.64	11012.22
489.81	11169.04
489.99	11178.40
490.17	11367.98
490.35	11473.31
490.53	11503.73
490.70	11634.80
490.88	11674.59
491.06	11730.76
491.24	11833.75
491.41	11988.22
491.59	11988.22
491.77	11969.50
491.95	12287.81
492.13	12290.15
492.30	12278.45
492.48	12372.07
492.66	12484.42
492.84	12283.13
493.01	12472.71
493.19	12505.48
493.37	12774.64
493.54	12793.37
493.72	12741.88
493.90	12933.80
494.08	13097.64
494.25	13006.36
494.43	13282.54
494.61	13338.71
494.79	13109.34
494.96	13004.02
495.14	13193.60
495.32	13385.52
495.49	13507.23
495.67	13497.87
495.85	13767.03
496.02	13706.18
496.20	14092.37
496.38	13738.94
496.55	14104.07
496.73	14106.41
496.91	14054.92
497.09	13970.66
497.26	14324.08
497.44	14228.12
497.62	14396.64
497.79	14759.42
497.97	14523.02
498.14	14506.64
498.32	14946.66
498.50	14878.79
498.67	15176.03
498.85	14871.76
499.03	14925.60
499.20	15143.27
499.38	15147.95
499.56	15054.33
499.73	15300.08
499.91	15234.55
500.08	15335.19
500.26	15321.15
500.44	15480.30
500.61	15541.16
500.79	15662.86
500.97	15587.97
501.14	15623.08
501.32	15831.38
501.49	15988.20
501.67	15798.62
501.84	15772.87
502.02	15852.45
502.20	16147.36
502.37	16250.34
502.55	16159.06
502.72	16271.40
502.90	16137.99
503.07	16077.14
503.25	16294.81
503.43	16411.84
503.60	16704.40
503.78	16407.16
503.95	16594.40
504.13	16545.25
504.30	16404.81
504.48	16636.53
504.65	16737.17
504.83	16786.32
505.01	16940.80
505.18	16828.45
505.36	16896.33
505.53	17025.06
505.71	17085.91
505.88	17092.93
506.06	16903.35
506.23	17289.54
506.41	17326.99
506.58	17362.09
506.76	17376.14
506.93	17589.13
507.11	17565.72
507.28	17439.33
507.46	17404.22
507.63	17659.34
507.81	17867.65
507.98	17717.86
508.16	17565.72
508.33	17769.35
508.50	17694.45
508.68	17635.94
508.85	18094.68
509.03	18003.40
509.20	17975.31
509.38	18373.21
509.55	18232.77
509.73	18237.45
509.90	18403.63
510.08	18272.56
510.25	18537.04
510.42	18661.09
510.60	18768.76
510.77	18548.75
510.95	18693.86
511.12	18698.54
511.30	18726.63
511.47	18750.03
511.64	19168.99
511.82	19037.92
511.99	18682.16
512.17	19096.43
512.34	19049.62
512.51	19449.85
512.69	19054.30
512.86	19332.82
513.04	19253.25
513.21	19419.42
513.38	19531.77
513.56	19433.47
513.73	19513.05
513.90	19400.70
514.08	19400.70
514.25	19665.18
514.43	19669.86
514.60	19894.55
514.77	19674.54
514.95	19740.08
515.12	19644.12
515.29	19653.48
515.47	19620.71
515.64	20056.05
515.81	20030.30
515.99	20201.16
516.16	20355.64
516.33	20348.62
516.51	20439.90
516.68	20416.49
516.85	20109.88
517.03	20348.62
517.20	20556.93
517.37	20259.68
517.54	20510.11
517.72	20922.05
517.89	20283.08
518.06	20610.76
518.24	20767.57
518.41	20388.41
518.58	20592.03
518.75	20577.99
518.93	20900.98
519.10	20725.44
519.27	20819.07
519.45	20910.35
519.62	21078.86
519.79	21179.51
519.96	20987.58
520.14	21245.04
520.31	21132.70
520.48	21216.96
520.65	21596.12
520.83	21401.86
521.00	21422.92
521.17	21268.45
521.34	21331.64
521.52	21617.19
521.69	21490.80
521.86	21652.30
522.03	21898.05
522.20	22183.60
522.38	21986.99
522.55	21530.59
522.72	21668.68
522.89	22054.87
523.07	22118.06
523.24	22150.83
523.41	22422.33
523.58	22010.40
523.75	22347.44
523.92	22218.71
524.10	22012.74
524.27	22129.77
524.44	22546.38
524.61	22665.75
524.78	22408.29
524.96	22302.96
525.13	22508.93
525.30	22785.12
525.47	22710.22
525.64	22527.66
525.81	22665.75
525.98	22857.67
526.16	22551.06
526.33	22747.67
526.50	23084.70
526.67	22845.97
526.84	22731.28
527.01	23140.88
527.18	22785.12
527.36	23051.94
527.53	22937.25
527.70	23044.91
527.87	23470.89
528.04	23070.66
528.21	23154.92
528.38	23349.18
528.55	23234.50
528.72	23297.69
528.89	23421.74
529.07	23316.42
529.24	23662.82
529.41	23552.81
529.58	23426.42
529.75	23388.97
529.92	23775.16
530.09	23456.85
530.26	23756.44
530.43	23819.63
530.60	23431.10
530.77	23676.86
530.94	23630.05
531.11	23695.58
531.28	23660.48
531.46	23578.56
531.63	23639.41
531.80	23924.96
531.97	23749.42
532.14	23805.59
532.31	24063.05
532.48	24489.03
532.65	24086.45
532.82	23985.81
532.99	24198.80
533.16	24128.58
533.33	24535.84
533.50	24159.01
533.67	24121.56
533.84	24456.26
534.01	24435.19
534.18	24416.47
534.35	24341.57
534.52	24512.43
534.69	24446.90
534.86	24713.72
535.03	24472.64
535.20	24367.32
535.37	24634.14
535.54	24634.14
535.71	24805.00
535.88	24563.92
536.05	24694.99
536.22	24886.92
536.38	25186.50
536.55	24996.92
536.72	24912.66
536.89	24809.68
537.06	24954.79
537.23	25167.78
537.40	25123.31
537.57	24727.76
537.74	25275.45
537.91	25401.83
538.08	25186.50
538.25	25135.01
538.42	25179.48
538.59	25247.36
538.75	24964.15
538.92	25385.45
539.09	25284.81
539.26	25411.20
539.43	25806.75
539.60	25343.32
539.77	25401.83
539.94	25699.08
540.11	25663.97
540.28	25209.91
540.44	25280.13
540.61	25795.04
540.78	25329.28
540.95	25680.36
541.12	25898.03
541.29	25565.67
541.46	25563.33
541.62	25362.04
541.79	25668.66
541.96	25476.73
542.13	25804.41
542.30	25783.34
542.47	26349.75
542.63	26536.99
542.80	26214.00
542.97	26450.39
543.14	26218.68
543.31	26305.28
543.48	26244.43
543.64	26848.29
543.81	26256.13
543.98	26394.22
544.15	26651.68
544.32	26740.62
544.48	26787.43
544.65	26417.63
544.82	26485.50
544.99	26588.49
545.16	26244.43
545.32	26707.85
545.49	26771.05
545.66	26862.33
545.83	27061.27
546.00	26689.13
546.16	26731.26
546.33	26511.25
546.50	26295.92
546.67	26682.11
546.83	26693.81
547.00	26583.80
547.17	26855.31
547.34	27009.78
547.50	26792.11
547.67	27072.98
547.84	27201.71
548.00	27150.21
548.17	27304.69
548.34	27143.19
548.51	27470.87
548.67	27332.78
548.84	27213.41
549.01	27407.67
549.18	27262.56
549.34	27564.49
549.51	27108.08
549.68	27028.51
549.84	27187.66
550.01	26995.74
550.18	27040.21
550.34	27534.06
550.51	27630.02
550.68	27576.19
550.84	27344.48
551.01	27702.58
551.18	27159.58
551.34	27342.14
551.51	27587.89
551.68	27662.79
551.84	27728.33
552.01	27943.66
552.18	27821.95
552.34	27828.97
552.51	27950.68
552.68	27683.86
552.84	27758.75
553.01	27763.43
553.18	28058.34
553.34	28109.83
553.51	27908.55
553.67	28034.94
553.84	28364.95
554.01	27882.80
554.17	27969.40
554.34	27749.39
554.51	27716.62
554.67	28364.95
554.84	27770.46
555.00	27960.04
555.17	27807.90
555.33	28484.32
555.50	28203.46
555.67	28287.71
555.83	28180.05
556.00	27978.76
556.16	28601.35
556.33	27955.36
556.50	28432.83
556.66	28290.06
556.83	28360.27
556.99	28402.40
557.16	28676.24
557.32	28755.82
557.49	28580.28
557.65	28121.54
557.82	28390.70
557.98	28184.73
558.15	28610.71
558.32	28254.95
558.48	28795.61
558.65	28421.13
558.81	28826.04
558.98	28964.13
559.14	28746.46
559.31	28575.60
559.47	28882.21
559.64	28467.94
559.80	28659.86
559.97	28840.08
560.13	28781.57
560.30	28875.19
560.46	28430.49
560.63	28465.60
560.79	28940.72
560.96	29057.75
561.12	28666.88
561.29	28446.87
561.45	28631.77
561.61	28610.71
561.78	28922.00
561.94	29027.32
562.11	29380.74
562.27	28882.21
562.44	28629.43
562.60	28994.56
562.77	28809.65
562.93	28697.31
563.10	28929.02
563.26	28835.40
563.42	29097.54
563.59	28723.05
563.75	29034.35
563.92	29041.37
564.08	28769.86
564.24	28851.78
564.41	29137.33
564.57	28907.96
564.74	28882.21
564.90	29249.67
565.07	29392.45
565.23	28987.53
565.39	29198.18
565.56	29074.13
565.72	28978.17
565.88	29465.00
566.05	29158.39
566.21	28737.10
566.38	28926.68
566.54	28898.59
566.70	29378.40
566.87	29771.61
567.03	29490.75
567.19	29214.57
567.36	29577.35
567.52	29380.74
567.68	28959.45
567.85	29244.99
568.01	29284.78
568.17	29214.57
568.34	29413.51
568.50	29476.71
568.66	29764.59
568.83	29390.11
568.99	29214.57
569.15	29429.90
569.32	29230.95
569.48	29022.64
569.64	29256.70
569.81	29443.94
569.97	29467.34
570.13	29153.71
570.30	29685.01
570.46	29139.67
570.62	29600.76
570.78	29500.11
570.95	29364.36
571.11	29523.52
571.27	29060.09
571.43	29610.12
571.60	29467.34
571.76	29130.31
571.92	29488.41
572.09	29457.98
572.25	29748.21
572.41	29708.42
572.57	29305.85
572.74	29827.79
572.90	29256.70
573.06	29336.27
573.22	29514.16
573.38	29453.30
573.55	29387.77
573.71	29675.65
573.87	29745.87
574.03	29755.23
574.20	29696.72
574.36	29851.19
574.52	29982.26
574.68	29586.71
574.84	29439.26
575.01	29591.39
575.17	29701.40
575.33	29780.98
575.49	29551.60
575.65	29656.93
575.82	29448.62
575.98	29090.52
576.14	29855.87
576.30	29865.24
576.46	29692.04
576.62	29731.83
576.79	29642.88
576.95	29310.53
577.11	29677.99
577.27	29729.48
577.43	30347.39
577.59	29736.51
577.75	29624.16
577.92	29883.96
578.08	29626.50
578.24	29420.53
578.40	29706.08
578.56	29549.26
578.72	29689.70
578.88	30403.56
579.04	30122.69
579.21	29706.08
579.37	29556.28
579.53	30082.91
579.69	29479.05
579.85	29727.14
580.01	29710.76
580.17	29785.66
580.33	29556.28
580.49	29584.37
580.65	29837.15
580.82	30438.67
580.98	29841.83
581.14	30101.63
581.30	29764.59
581.46	29780.98
581.62	29589.05
581.78	29661.61
581.94	29649.91
582.10	29752.89
582.26	29886.30
582.42	30096.95
582.58	29694.38
582.74	29752.89
582.90	29706.08
583.06	29883.96
583.22	29654.59
583.38	29827.79
583.54	29858.21
583.70	29727.14
583.86	29942.47
584.02	29663.95
584.18	30031.41
584.34	30291.21
584.50	30202.27
584.66	29757.57
584.82	29708.42
584.98	29872.26
585.14	30024.39
585.30	29626.50
585.46	29947.15
585.62	29523.52
585.78	30073.54
585.94	30094.61
586.10	30345.05
586.26	30066.52
586.42	30171.85
586.58	29930.77
586.74	30094.61
586.90	29663.95
587.06	29881.62
587.22	30134.40
587.38	30132.06
587.54	29933.11
587.70	30473.78
587.86	30223.34
588.02	30272.49
588.18	30265.47
588.34	30277.17
588.49	30176.53
588.65	29977.58
588.81	29975.24
588.97	29762.25
589.13	29806.72
589.29	30103.97
589.45	30181.21
589.61	30120.35
589.77	30504.20
589.93	30443.35
590.08	30398.88
590.24	29675.65
590.40	30293.55
590.56	30377.81
590.72	30082.91
590.88	29921.41
591.04	30347.39
591.20	30286.53
591.35	30415.26
591.51	30459.73
591.67	30366.11
591.83	30429.30
591.99	30553.35
592.15	30525.27
592.31	30450.37
592.46	30218.66
592.62	30305.26
592.78	30024.39
592.94	30082.91
593.10	30225.68
593.26	30459.73
593.41	30726.55
593.57	30363.77
593.73	30422.28
593.89	30328.66
594.05	30593.14
594.20	30504.20
594.36	30024.39
594.52	30501.86
594.68	30455.05
594.84	30286.53
594.99	30508.88
595.15	30677.40
595.31	30941.88
595.47	30604.84
595.62	30309.94
595.78	30433.99
595.94	30579.10
596.10	30558.03
596.25	30265.47
596.41	30291.21
596.57	30281.85
596.73	30448.03
596.88	30497.18
597.04	30309.94
597.20	30747.62
597.36	30764.00
597.51	30464.41
597.67	29874.60
597.83	30497.18
597.99	30618.89
598.14	30326.32
598.30	30579.10
598.46	30436.33
598.61	30754.64
598.77	30473.78
598.93	30370.79
599.09	30590.80
599.24	30939.54
599.40	30576.76
599.56	30682.08
599.71	30836.56
599.87	30787.41
600.03	30581.44
600.18	30377.81
600.34	30408.24
600.50	30611.87
600.65	30384.83
600.81	30548.67
600.97	30494.84
601.12	30700.81
601.28	30345.05
601.44	30728.89
601.59	30913.80
601.75	30820.17
601.91	30340.36
602.06	30665.70
602.22	30080.56
602.37	30455.05
602.53	30614.21
602.69	30597.82
602.84	30852.94
603.00	30810.81
603.16	30424.62
603.31	30492.50
603.47	30558.03
603.62	30328.66
603.78	30548.67
603.94	30375.47
604.09	30553.35
604.25	30703.15
604.40	30462.07
604.56	30459.73
604.71	30817.83
604.87	30375.47
605.03	30450.37
605.18	31199.34
605.34	30433.99
605.49	30040.78
605.65	30637.61
605.80	30115.67
605.96	30483.14
606.12	30508.88
606.27	30724.21
606.43	30328.66
606.58	30609.53
606.74	30235.04
606.89	30574.42
607.05	30969.97
607.20	30822.51
607.36	30342.70
607.51	30508.88
607.67	30518.25
607.82	30302.92
607.98	30113.33
608.13	30316.96
608.29	30389.52
608.44	30033.75
608.60	30471.43
608.75	30396.54
608.91	30558.03
609.06	30092.27
609.22	30841.24
609.37	30298.23
609.53	30096.95
609.68	29909.71
609.84	30012.69
609.99	30305.26
610.15	30017.37
610.30	30136.74
610.46	30036.09
610.61	30323.98
610.76	30029.07
610.92	30391.86
611.07	29972.90
611.23	29921.41
611.38	29727.14
611.54	29701.40
611.69	29898.00
611.84	30096.95
612.00	29773.95
612.15	30022.05
612.31	30244.40
612.46	29816.08
612.62	30405.90
612.77	30127.38
612.92	30139.08
613.08	30125.04
613.23	30258.45
613.39	29855.87
613.54	30195.25
613.69	29642.88
613.85	30003.33
614.00	29951.84
614.15	30036.09
614.31	29687.36
614.46	29895.66
614.62	29996.31
614.77	30047.80
614.92	29996.31
615.08	29963.54
615.23	30249.08
615.38	29914.39
615.54	29638.20
615.69	29809.06
615.84	29780.98
616.00	29654.59
616.15	29500.11
616.30	29837.15
616.46	29867.58
616.61	29825.45
616.76	30038.44
616.92	29661.61
617.07	29942.47
617.22	29881.62
617.37	29130.31
617.53	29769.27
617.68	29621.82
617.83	29633.52
617.99	29514.16
618.14	29589.05
618.29	29666.29
618.45	29104.56
618.60	29694.38
618.75	29441.60
618.90	29659.27
619.06	29694.38
619.21	29567.99
619.36	29720.12
619.51	29254.36
619.67	28966.47
619.82	29521.18
619.97	29289.46
620.12	29378.40
620.28	28980.51
620.43	29535.22
620.58	29811.40
620.73	29427.56
620.89	29411.17
621.04	29584.37
621.19	29287.12
621.34	29163.08
621.49	28943.06
621.65	29408.83
621.80	29312.87
621.95	29184.14
622.10	29039.03
622.25	28690.29
622.41	28893.91
622.56	29097.54
622.71	29270.74
622.86	29214.57
623.01	29170.10
623.16	28961.79
623.32	29109.24
623.47	28938.38
623.62	29043.71
623.77	29017.96
623.92	28786.25
624.07	28896.25
624.23	28807.31
624.38	29081.16
624.53	29024.98
624.68	29057.75
624.83	29090.52
624.98	29003.92
625.13	28744.12
625.29	29125.63
625.44	28961.79
625.59	28699.65
625.74	28542.83
625.89	28727.74
626.04	28739.44
626.19	28376.66
626.34	28727.74
626.49	28421.13
626.65	28566.24
626.80	28929.02
626.95	28517.09
627.10	28395.38
627.25	28940.72
627.40	28514.75
627.55	28610.71
627.70	28240.90
627.85	28687.95
628.00	28276.01
628.15	28957.11
628.30	28184.73
628.45	28472.62
628.60	28521.77
628.76	28617.73
628.91	28437.51
629.06	28360.27
629.21	28500.70
629.36	28130.90
629.51	28336.87
629.66	28271.33
629.81	28182.39
629.96	28325.16
630.11	28063.02
630.26	28016.21
630.41	28023.23
630.56	27957.70
630.71	28205.80
630.86	28004.51
631.01	28641.14
631.16	27943.66
631.31	28175.37
631.46	28086.43
631.61	28278.35
631.76	27857.06
631.91	27917.91
632.06	27852.38
632.21	27749.39
632.36	27976.42
632.51	27733.01
632.66	28166.01
632.81	28009.19
632.96	28048.98
633.10	27992.81
633.25	27751.73
633.40	28079.41
633.55	27850.03
633.70	27875.78
633.85	27339.80
634.00	27466.19
634.15	27503.64
634.30	27576.19
634.45	27473.21
634.60	27826.63
634.75	28130.90
634.90	27456.82
635.05	27653.43
635.19	27770.46
635.34	27962.38
635.49	28203.46
635.64	27765.78
635.79	27639.39
635.94	27520.02
636.09	27431.08
636.24	27318.73
636.39	27140.85
636.53	27592.58
636.68	27491.93
636.83	27222.77
636.98	27290.65
637.13	27487.25
637.28	27166.60
637.43	27405.33
637.57	27384.27
637.72	27344.48
637.87	27513.00
638.02	27124.47
638.17	27213.41
638.32	27253.20
638.46	27009.78
638.61	27108.08
638.76	27030.85
638.91	26986.38
639.06	27395.97
639.20	27173.62
639.35	27094.04
639.50	27459.16
639.65	27573.85
639.80	27105.74
639.94	27365.54
640.09	27164.26
640.24	27630.02
640.39	27143.19
640.54	27000.42
640.68	26932.54
640.83	27264.90
640.98	26927.86
641.13	26586.15
641.27	27173.62
641.42	26920.84
641.57	26583.80
641.72	26977.01
641.86	26754.66
642.01	26838.92
642.16	26651.68
642.31	26752.32
642.45	27192.34
642.60	26553.38
642.75	26340.39
642.90	26588.49
643.04	26719.56
643.19	26464.44
643.34	26768.71
643.48	27007.44
643.63	26731.26
643.78	26689.13
643.93	26848.29
644.07	26382.52
644.22	26932.54
644.37	26644.66
644.51	26583.80
644.66	26712.53
644.81	26403.58
644.95	26356.77
645.10	26565.08
645.25	26068.89
645.39	26342.73
645.54	26412.95
645.69	26036.12
645.83	26162.51
645.98	26464.44
646.13	26536.99
646.27	26485.50
646.42	26092.29
646.57	26300.60
646.71	26225.70
646.86	26125.06
647.00	26080.59
647.15	26115.70
647.30	26127.40
647.44	26010.37
647.59	26073.57
647.74	25919.09
647.88	26335.71
648.03	26251.45
648.17	26204.64
648.32	26206.98
648.47	26223.36
648.61	25984.63
648.76	26125.06
648.90	26108.68
649.05	26309.96
649.20	26043.14
649.34	25680.36
649.49	25720.15
649.63	25937.82
649.78	25652.27
649.92	25720.15
650.07	26228.04
650.21	25731.85
650.36	26167.19
650.51	25954.20
650.65	26244.43
650.80	25893.35
650.94	25848.88
651.09	25982.29
651.23	25757.60
651.38	25591.42
651.52	25696.74
651.67	25851.22
651.81	25701.42
651.96	25935.48
652.10	25783.34
652.25	25738.87
652.39	26120.38
652.54	25825.47
652.68	26150.81
652.83	25635.89
652.97	25963.56
653.12	25507.16
653.26	25532.90
653.41	25841.85
653.55	25584.40
653.70	25488.43
653.84	25483.75
653.99	25394.81
654.13	25329.28
654.27	25596.10
654.42	25301.19
654.56	25352.68
654.71	25717.81
654.85	25467.37
655.00	25465.03
655.14	25514.18
655.29	25369.07
655.43	25727.17
655.57	25270.76
655.72	25039.05
655.86	25434.60
656.01	25350.34
656.15	25413.54
656.30	25027.35
656.44	25219.27
656.58	24952.45
656.73	25200.55
656.87	24858.83
657.01	25156.08
657.16	25645.25
657.30	25064.80
657.45	25167.78
657.59	24975.86
657.73	25181.82
657.88	25205.23
658.02	25064.80
658.16	24779.25
658.31	25221.61
658.45	25022.67
658.60	24723.08
658.74	24973.52
658.88	24835.42
659.03	24968.84
659.17	24819.04
659.31	24980.54
659.46	24964.15
659.60	25092.88
659.74	24629.46
659.89	24472.64
660.03	24694.99
660.17	24748.82
660.32	24573.28
660.46	24435.19
660.60	24140.29
660.74	24191.78
660.89	24463.28
661.03	24439.87
661.17	24355.61
661.32	24577.97
661.46	24219.86
661.60	24470.30
661.74	24716.06
661.89	24318.17
662.03	24589.67
662.17	24290.08
662.31	24563.92
662.46	24182.42
662.60	24362.64
662.74	24231.57
662.88	24175.39
663.03	23906.23
663.17	23882.83
663.31	23435.78
663.45	23803.25
663.60	23765.80
663.74	24002.19
663.88	23772.82
664.02	23906.23
664.17	23999.85
664.31	23438.12
664.45	23679.20
664.59	23637.07
664.73	23630.05
664.88	23529.41
665.02	23211.09
665.16	23524.72
665.30	23742.39
665.44	23297.69
665.59	23536.43
665.73	23531.75
665.87	23222.80
666.01	23058.96
666.15	23281.31
666.29	23321.10
666.44	23250.88
666.58	23229.82
666.72	22963.00
666.86	23419.40
667.00	23267.27
667.14	23101.09
667.28	23084.70
667.43	22899.80
667.57	23288.33
667.71	23019.17
667.85	23028.53
667.99	22965.34
668.13	22698.52
668.27	22778.09
668.41	22974.70
668.56	23190.03
668.70	22855.33
668.84	22698.52
668.98	22654.05
669.12	22621.28
669.26	22661.07
669.40	22888.10
669.54	22829.59
669.68	22211.68
669.82	22700.86
669.96	22235.09
670.10	22469.14
670.25	22469.14
670.39	22305.31
670.53	22352.12
670.67	22457.44
670.81	21916.78
670.95	22349.78
671.09	22216.36
671.23	22593.19
671.37	22265.52
671.51	22387.22
671.65	22647.02
671.79	22265.52
671.93	22019.76
672.07	22249.13
672.21	21783.37
672.35	21558.67
672.49	21612.51
672.63	21401.86
672.77	21514.20
672.91	21509.52
673.05	21724.85
673.19	21511.86
673.33	21872.31
673.47	21645.27
673.61	21521.23
673.75	21233.34
673.89	21198.23
674.03	21385.47
674.17	21261.43
674.31	21565.70
674.45	21120.99
674.59	21336.32
674.73	21333.98
674.87	21027.37
675.01	20898.64
675.15	20753.53
675.29	21090.57
675.43	20877.58
675.56	20940.77
675.70	20805.02
675.84	20673.95
675.98	20257.34
676.12	20685.65
676.26	20854.17
676.40	20652.89
676.54	20746.51
676.68	20561.61
676.82	20154.35
676.96	20524.16
677.10	20245.63
677.23	20339.26
677.37	20187.12
677.51	20372.02
677.65	19910.94
677.79	20257.34
677.93	20037.33
678.07	19908.60
678.21	19716.67
678.34	19751.78
678.48	19756.46
678.62	19728.38
678.76	19503.68
678.90	19496.66
679.04	19674.54
679.18	19389.00
679.31	19143.24
679.45	19229.84
679.59	19426.45
679.73	19311.76
679.87	18932.59
680.00	18946.64
680.14	19222.82
680.28	19077.71
680.42	18822.59
680.56	19164.31
680.70	18909.19
680.83	18855.36
680.97	18906.85
681.11	18773.44
681.25	18869.40
681.39	18771.10
681.52	18527.68
681.66	18520.66
681.80	18604.92
681.94	18424.70
682.07	18230.43
682.21	18370.86
682.35	18354.48
682.49	18066.60
682.62	17975.31
682.76	17862.97
682.90	18090.00
683.04	17806.80
683.17	18143.83
683.31	18054.89
683.45	18188.30
683.59	18185.96
683.72	17582.10
683.86	17806.80
684.00	17649.98
684.13	17486.14
684.27	17741.26
684.41	17317.62
684.55	17378.48
684.68	17158.47
684.82	17074.21
684.96	17062.51
685.09	17128.04
685.23	16842.50
685.37	17135.06
685.50	17165.49
685.64	17088.25
685.78	16718.45
685.91	16748.87
686.05	17228.68
686.19	16964.20
686.32	16868.24
686.46	16886.97
686.60	16421.20
686.73	16561.63
686.87	16336.94
687.01	16421.20
687.14	16585.04
687.28	16175.44
687.42	16248.00
687.55	16027.99
687.69	16084.16
687.82	16137.99
687.96	16109.91
688.10	16107.57
688.23	16161.40
688.37	16009.26
688.50	15868.83
688.64	15803.30
688.78	15861.81
688.91	15662.86
689.05	15667.55
689.18	15569.24
689.32	15374.98
689.46	15513.07
689.59	15461.58
689.73	15297.74
689.86	15353.91
690.00	15075.39
690.13	15300.08
690.27	15185.40
690.41	15583.29
690.54	15297.74
690.68	14890.49
690.81	14930.28
690.95	15297.74
691.08	15124.54
691.22	15089.43
691.35	14789.85
691.49	14881.13
691.62	14651.75
691.76	14527.71
691.89	14574.52
692.03	14286.63
692.16	14298.33
692.30	14246.84
692.43	14501.96
692.57	14300.67
692.70	14075.98
692.84	14193.01
692.97	14214.07
693.11	14169.60
693.24	14099.39
693.38	14176.62
693.51	14068.96
693.65	13783.41
693.78	13783.41
693.92	13671.07
694.05	13895.76
694.19	13352.76
694.32	13841.93
694.45	13481.49
694.59	13341.05
694.72	13371.48
694.86	13514.25
694.99	13193.60
695.13	13142.11
695.26	12996.99
695.39	13018.06
695.53	12989.97
695.66	13177.22
695.80	13053.17
695.93	13217.01
696.07	13125.72
696.20	13228.71
696.33	13039.12
696.47	12978.27
696.60	12786.35
696.73	12472.71
696.87	12844.86
697.00	12571.02
697.14	12463.35
697.27	12416.54
697.40	12411.86
697.54	12294.83
697.67	12444.63
697.80	12133.34
697.94	12091.21
698.07	11995.25
698.21	11995.25
698.34	12271.43
698.47	12056.10
698.61	12006.95
698.74	11969.50
698.87	12210.57
699.01	11910.99
699.14	11627.78
699.27	11857.15
699.40	11712.04
699.54	11686.29
699.67	11580.97
699.80	11719.06
699.94	11506.07
700.07	11337.56
700.20	11279.04
700.34	11206.48
700.47	11157.33
700.60	11234.57
700.73	11351.60
700.87	11042.65
701.00	11105.84
701.13	11131.59
701.26	11183.08
701.40	11040.31
701.53	10902.22
701.66	10890.51
701.79	10757.10
701.93	10843.70
702.06	10560.50
702.19	10721.99
702.32	10537.09
702.46	10595.61
702.59	10602.63
702.72	10457.51
702.85	10356.87
702.99	10682.20
703.12	10312.40
703.25	10246.87
703.38	10253.89
703.51	10483.26
703.65	10382.62
703.78	10157.92
703.91	10235.16
704.04	10132.18
704.17	10546.45
704.31	10092.39
704.44	10134.52
704.57	9951.96
704.70	9909.83
704.83	9607.90
704.96	9783.44
705.10	9554.07
705.23	9612.58
>>>>>End Processed Spectral Data<<<<<
