SpectraSuite Data File
++++++++++++++++++++++++++++++++++++
Date: Fri Oct 18 13:58:15 GMT-05:00 2013
User: bianchi
Dark Spectrum Present: No
Reference Spectrum Present: No
Number of Sampled Component Spectra: 1
Spectrometers: USB2+H05261
Integration Time (usec): 50000 (USB2+H05261)
Spectra Averaged: 1 (USB2+H05261)
Boxcar Smoothing: 0 (USB2+H05261)
Correct for Electrical Dark: No (USB2+H05261)
Strobe/Lamp Enabled: No (USB2+H05261)
Correct for Detector Non-linearity: No (USB2+H05261)
Correct for Stray Light: No (USB2+H05261)
Number of Pixels in Processed Spectrum: 2048
>>>>>Begin Processed Spectral Data<<<<<
365.73	0.00
365.92	0.00
366.12	0.00
366.32	0.00
366.52	0.00
366.72	0.00
366.91	0.00
367.11	0.00
367.31	0.00
367.51	0.00
367.70	0.00
367.90	0.00
368.10	0.00
368.30	0.00
368.49	0.00
368.69	0.00
368.89	0.00
369.09	0.00
369.28	0.00
369.48	0.00
369.68	0.00
369.87	0.00
370.07	0.00
370.27	0.00
370.47	0.00
370.66	53.83
370.86	124.05
371.06	51.49
371.25	53.83
371.45	117.03
371.65	135.75
371.84	112.35
372.04	161.50
372.24	161.50
372.44	177.88
372.63	191.92
372.83	149.79
373.03	227.03
373.22	248.10
373.42	236.39
373.62	196.60
373.81	220.01
374.01	255.12
374.21	238.73
374.40	243.42
374.60	262.14
374.79	264.48
374.99	285.55
375.19	283.20
375.38	313.63
375.58	154.48
375.78	220.01
375.97	283.20
376.17	339.38
376.37	231.71
376.56	283.20
376.76	290.23
376.95	245.76
377.15	337.04
377.35	201.29
377.54	227.03
377.74	264.48
377.93	301.93
378.13	308.95
378.33	241.08
378.52	299.59
378.72	194.26
378.91	306.61
379.11	330.02
379.31	280.86
379.50	248.10
379.70	231.71
379.89	360.44
380.09	278.52
380.28	252.78
380.48	255.12
380.68	248.10
380.87	313.63
381.07	341.72
381.26	348.74
381.46	290.23
381.65	280.86
381.85	351.08
382.04	280.86
382.24	360.44
382.43	341.72
382.63	308.95
382.83	311.29
383.02	365.12
383.22	304.27
383.41	369.80
383.61	379.17
383.80	362.78
384.00	344.06
384.19	318.31
384.39	313.63
384.58	390.87
384.78	414.27
384.97	390.87
385.17	379.17
385.36	332.36
385.56	334.70
385.75	388.53
385.95	341.72
386.14	381.51
386.34	404.91
386.53	369.80
386.72	461.09
386.92	388.53
387.11	440.02
387.31	346.40
387.50	472.79
387.70	428.32
387.89	498.53
388.09	475.13
388.28	421.30
388.48	425.98
388.67	564.07
388.86	421.30
389.06	351.08
389.25	400.23
389.45	440.02
389.64	472.79
389.84	463.43
390.03	472.79
390.22	472.79
390.42	505.56
390.61	475.13
390.81	484.49
391.00	449.38
391.19	503.22
391.39	482.15
391.58	554.71
391.78	486.83
391.97	517.26
392.16	498.53
392.36	526.62
392.55	552.37
392.75	582.79
392.94	575.77
393.13	566.41
393.33	545.34
393.52	503.22
393.71	585.13
393.91	645.99
394.10	552.37
394.29	580.45
394.49	641.31
394.68	528.96
394.88	521.94
395.07	610.88
395.26	596.84
395.46	564.07
395.65	657.69
395.84	610.88
396.04	664.71
396.23	559.39
396.42	739.61
396.62	615.56
396.81	636.63
397.00	566.41
397.19	613.22
397.39	608.54
397.58	669.39
397.77	603.86
397.97	608.54
398.16	617.90
398.35	713.86
398.55	718.54
398.74	704.50
398.93	730.25
399.12	737.27
399.32	716.20
399.51	613.22
399.70	812.17
399.90	748.97
400.09	751.31
400.28	767.70
400.47	720.88
400.67	763.01
400.86	746.63
401.05	809.83
401.24	814.51
401.44	751.31
401.63	791.10
401.82	828.55
402.01	779.40
402.21	828.55
402.40	784.08
402.59	744.29
402.78	863.66
402.97	877.70
403.17	835.57
403.36	936.21
403.55	882.38
403.74	851.96
403.93	842.59
404.13	924.51
404.32	898.77
404.51	884.72
404.70	903.45
404.89	952.60
405.09	922.17
405.28	903.45
405.47	968.98
405.66	950.26
405.85	898.77
406.05	1032.18
406.24	976.00
406.43	1020.47
406.62	1001.75
406.81	1032.18
407.00	968.98
407.20	1027.50
407.39	952.60
407.58	1118.78
407.77	1069.62
407.96	1053.24
408.15	1055.58
408.34	1078.99
408.54	1109.41
408.73	1020.47
408.92	1095.37
409.11	1128.14
409.30	1067.28
409.49	1153.88
409.68	1078.99
409.87	1053.24
410.07	1090.69
410.26	1163.25
410.45	1217.08
410.64	1118.78
410.83	1226.44
411.02	1233.46
411.21	1242.82
411.40	1200.69
411.59	1256.87
411.78	1219.42
411.98	1294.32
412.17	1270.91
412.36	1287.29
412.55	1310.70
412.74	1352.83
412.93	1315.38
413.12	1282.61
413.31	1401.98
413.50	1390.28
413.69	1390.28
413.88	1446.45
414.07	1488.58
414.26	1437.09
414.45	1472.20
414.64	1493.26
414.83	1528.37
415.02	1519.01
415.22	1514.33
415.41	1509.65
415.60	1472.20
415.79	1610.29
415.98	1495.60
416.17	1565.82
416.36	1631.35
416.55	1572.84
416.74	1638.38
416.93	1591.56
417.12	1533.05
417.31	1708.59
417.50	1701.57
417.69	1760.08
417.88	1741.36
418.07	1739.02
418.26	1699.23
418.45	1753.06
418.64	1795.19
418.83	1818.60
419.02	1767.10
419.21	1811.57
419.39	1757.74
419.58	1785.83
419.77	1776.47
419.96	1827.96
420.15	1867.75
420.34	1923.92
420.53	1975.41
420.72	1949.67
420.91	1872.43
421.10	1940.30
421.29	1980.09
421.48	1893.49
421.67	1893.49
421.86	1884.13
422.05	1956.69
422.24	2017.54
422.43	2050.31
422.61	1989.46
422.80	1914.56
422.99	2022.22
423.18	1994.14
423.37	1982.43
423.56	1973.07
423.75	1921.58
423.94	1937.96
424.13	1900.52
424.32	1715.61
424.50	1980.09
424.69	2064.35
424.88	1954.35
425.07	1977.75
425.26	2017.54
425.45	2026.90
425.64	2099.46
425.83	2076.06
426.01	1977.75
426.20	1970.73
426.39	2099.46
426.58	1982.43
426.77	2017.54
426.96	2059.67
427.15	2099.46
427.33	2186.06
427.52	2139.25
427.71	2118.18
427.90	2104.14
428.09	2085.42
428.28	2237.55
428.46	2282.02
428.65	2118.18
428.84	2211.81
429.03	2282.02
429.22	2078.40
429.40	2197.76
429.59	2256.28
429.78	2073.71
429.97	2183.72
430.16	2181.38
430.34	2326.49
430.53	2307.77
430.72	2270.32
430.91	2300.75
431.10	2326.49
431.28	2392.03
431.47	2345.22
431.66	2370.96
431.85	2314.79
432.03	2429.48
432.22	2576.93
432.41	2363.94
432.60	2518.42
432.79	2448.20
432.97	2396.71
433.16	2410.75
433.35	2445.86
433.54	2633.10
433.72	2607.36
433.91	2546.50
434.10	2569.91
434.28	2658.85
434.47	2478.63
434.66	2607.36
434.85	2480.97
435.03	2523.10
435.22	2644.81
435.41	2686.94
435.59	2710.34
435.78	2663.53
435.97	2567.57
436.16	2658.85
436.34	2644.81
436.53	2647.15
436.72	2780.56
436.90	2719.70
437.09	2810.98
437.28	2677.57
437.46	2750.13
437.65	2729.06
437.84	2724.38
438.02	2764.17
438.21	2782.90
438.40	2691.62
438.58	2930.35
438.77	2878.86
438.96	2890.56
439.14	2864.82
439.33	2972.48
439.52	3096.53
439.70	3016.95
439.89	2909.29
440.08	2988.86
440.26	3077.80
440.45	3030.99
440.63	3110.57
440.82	3162.06
441.01	3124.62
441.19	3159.72
441.38	3063.76
441.57	3169.09
441.75	3272.07
441.94	3274.41
442.12	3269.73
442.31	3229.94
442.50	3190.15
442.68	3269.73
442.87	3332.92
443.05	3346.97
443.24	3349.31
443.43	3323.56
443.61	3342.28
443.80	3487.40
443.98	3279.09
444.17	3325.90
444.35	3361.01
444.54	3449.95
444.73	3541.23
444.91	3438.25
445.10	3426.54
445.28	3471.01
445.47	3442.93
445.65	3431.23
445.84	3527.19
446.02	3569.32
446.21	3365.69
446.39	3323.56
446.58	3342.28
446.77	3543.57
446.95	3520.17
447.14	3555.27
447.32	3471.01
447.51	3421.86
447.69	3590.38
447.88	3426.54
448.06	3545.91
448.25	3494.42
448.43	3545.91
448.62	3393.78
448.80	3555.27
448.99	3693.37
449.17	3627.83
449.36	3485.06
449.54	3737.84
449.73	3627.83
449.91	3723.79
450.10	3660.60
450.28	3733.15
450.46	3754.22
450.65	3770.60
450.83	3742.52
451.02	3695.71
451.20	3871.25
451.39	3815.07
451.57	3712.09
451.76	3796.35
451.94	3906.35
452.13	3805.71
452.31	3840.82
452.49	3761.24
452.68	3798.69
452.86	3768.26
453.05	3948.48
453.23	4021.04
453.42	3845.50
453.60	3779.97
453.78	3810.39
453.97	3866.56
454.15	3819.75
454.34	3962.53
454.52	3847.84
454.70	4053.81
454.89	4145.09
455.07	4065.51
455.26	4203.60
455.44	4234.03
455.62	4112.32
455.81	4114.66
455.99	3978.91
456.17	4133.39
456.36	4159.13
456.54	4294.88
456.73	4147.43
456.91	4259.78
457.09	4311.27
457.28	4400.21
457.46	4248.07
457.64	4292.54
457.83	4205.94
458.01	4372.12
458.19	4283.18
458.38	4301.90
458.56	4337.01
458.74	4472.76
458.93	4418.93
459.11	4547.66
459.29	4379.14
459.48	4552.34
459.66	4470.42
459.84	4475.10
460.03	4432.97
460.21	4538.30
460.39	4512.55
460.57	4372.12
460.76	4573.41
460.94	4744.27
461.12	4507.87
461.31	4594.47
461.49	4524.26
461.67	4538.30
461.85	4578.09
462.04	4634.26
462.22	4945.55
462.40	4697.46
462.59	4809.80
462.77	4704.48
462.95	4690.43
463.13	4868.31
463.32	4699.80
463.50	4758.31
463.68	4697.46
463.86	4997.04
464.05	4758.31
464.23	4943.21
464.41	4851.93
464.59	4777.03
464.78	4849.59
464.96	5039.17
465.14	4957.25
465.32	4968.96
465.50	4959.60
465.69	5055.56
465.87	4983.00
466.05	5022.79
466.23	4992.36
466.41	5039.17
466.60	5151.52
466.78	4971.30
466.96	4980.66
467.14	5160.88
467.32	5205.35
467.51	5121.09
467.69	4968.96
467.87	5203.01
468.05	5210.03
468.23	5158.54
468.41	5081.30
468.60	5181.95
468.78	5228.76
468.96	5174.92
469.14	5275.57
469.32	5371.53
469.50	5128.11
469.69	5249.82
469.87	5341.10
470.05	5357.49
470.23	5355.15
470.41	5364.51
470.59	5462.81
470.77	5558.77
470.95	5455.79
471.14	5383.23
471.32	5352.81
471.50	5514.30
471.68	5617.29
471.86	5736.65
472.04	5591.54
472.22	5750.70
472.40	5582.18
472.58	5727.29
472.77	5785.80
472.95	5895.81
473.13	5886.45
473.31	5811.55
473.49	5851.34
473.67	5921.56
473.85	5895.81
474.03	6031.56
474.21	5888.79
474.39	6139.23
474.57	6090.07
474.75	6293.70
474.93	6221.14
475.12	6193.06
475.30	6307.74
475.48	6347.53
475.66	6218.80
475.84	6452.86
476.02	6242.21
476.20	6427.11
476.38	6375.62
476.56	6445.84
476.74	6476.26
476.92	6441.15
477.10	6562.86
477.28	6679.89
477.46	6593.29
477.64	6715.00
477.82	6679.89
478.00	6986.50
478.18	6899.90
478.36	6892.88
478.54	6956.07
478.72	6890.54
478.90	7112.89
479.08	7178.42
479.26	7229.91
479.44	7260.34
479.62	7218.21
479.80	7346.94
479.98	7581.00
480.16	7522.48
480.34	7541.21
480.52	7618.44
480.70	7578.65
480.88	7524.82
481.06	7730.79
481.24	7618.44
481.41	7625.47
481.59	7885.26
481.77	7960.16
481.95	7901.65
482.13	8091.23
482.31	8070.17
482.49	8091.23
482.67	8271.45
482.85	8346.35
483.03	8458.70
483.21	8423.59
483.39	8482.10
483.57	8463.38
483.74	8734.88
483.92	8734.88
484.10	8557.00
484.28	8807.44
484.46	9088.30
484.64	9294.27
484.82	8957.23
485.00	8903.40
485.18	9282.56
485.35	9523.64
485.53	9315.33
485.71	9291.93
485.89	9451.08
486.07	9472.15
486.25	9582.15
486.43	9561.09
486.61	9809.19
486.78	9659.39
486.96	10033.88
487.14	9991.75
487.32	10076.01
487.50	9968.34
487.68	10125.16
487.85	10457.51
488.03	10455.17
488.21	10555.82
488.39	10689.23
488.57	10771.15
488.75	10684.55
488.92	10946.69
489.10	10829.66
489.28	10949.03
489.46	11089.46
489.64	10944.34
489.81	11325.85
489.99	11269.68
490.17	11234.57
490.35	11248.61
490.53	11489.69
490.70	11468.62
490.88	11669.91
491.06	11899.28
491.24	11611.40
491.41	11660.55
491.59	11971.84
491.77	11960.14
491.95	11964.82
492.13	12301.86
492.30	12505.48
492.48	12065.46
492.66	12297.17
492.84	12264.41
493.01	12512.50
493.19	12500.80
493.37	12507.82
493.54	12842.52
493.72	13050.83
493.90	12978.27
494.08	12879.97
494.25	13011.04
494.43	13018.06
494.61	13270.84
494.79	13252.11
494.96	13338.71
495.14	13247.43
495.32	13827.88
495.49	13500.21
495.67	13425.31
495.85	13579.79
496.02	13804.48
496.20	13799.80
496.38	13830.23
496.55	13834.91
496.73	13977.68
496.91	14005.77
497.09	13949.59
497.26	14281.95
497.44	14424.72
497.62	14609.62
497.79	14494.94
497.97	14565.15
498.14	14640.05
498.32	14906.87
498.50	14707.93
498.67	14951.34
498.85	14602.60
499.03	15033.26
499.20	15012.20
499.38	14794.53
499.56	14988.79
499.73	15403.07
499.91	15403.07
500.08	15302.42
500.26	15192.42
500.44	15564.56
500.61	15171.35
500.79	15660.52
500.97	15520.09
501.14	15920.32
501.32	15573.92
501.49	15882.88
501.67	15749.46
501.84	15723.72
502.02	15669.89
502.20	16205.87
502.37	15831.38
502.55	15990.54
502.72	16018.63
502.90	16266.72
503.07	16233.96
503.25	16116.93
503.43	16414.18
503.60	16566.31
503.78	16468.01
503.95	16339.28
504.13	16456.31
504.30	16491.41
504.48	16563.97
504.65	16566.31
504.83	16762.92
505.01	17055.48
505.18	16510.14
505.36	17179.53
505.53	17074.21
505.71	16886.97
505.88	17139.74
506.06	16996.97
506.23	17106.98
506.41	17444.01
506.58	17633.60
506.76	17191.23
506.93	17193.58
507.11	17472.10
507.28	17764.67
507.46	17432.31
507.63	17799.77
507.81	17802.11
507.98	17820.84
508.16	17893.40
508.33	17759.98
508.50	17818.50
508.68	17509.55
508.85	18015.10
509.03	17935.53
509.20	18277.24
509.38	18251.50
509.55	18361.50
509.73	18363.84
509.90	18265.54
510.08	18157.88
510.25	18375.55
510.42	18588.53
510.60	18415.34
510.77	18548.75
510.95	18602.58
511.12	18331.08
511.30	18328.74
511.47	18703.22
511.64	18965.36
511.82	18815.57
511.99	18902.17
512.17	19295.38
512.34	19063.66
512.51	18986.43
512.69	19288.35
512.86	19239.20
513.04	19215.80
513.21	19307.08
513.38	19550.49
513.56	19204.10
513.73	19494.32
513.90	19323.46
514.08	19377.30
514.25	19552.84
514.43	19648.80
514.60	20020.94
514.77	19770.51
514.95	19990.52
515.12	19662.84
515.29	19791.57
515.47	19880.51
515.64	20025.62
515.81	19784.55
515.99	20446.92
516.16	20294.79
516.33	20350.96
516.51	20470.33
516.68	20144.99
516.85	19999.88
517.03	20336.91
517.20	20336.91
517.37	20688.00
517.54	20608.42
517.72	20411.81
517.89	20744.17
518.06	20409.47
518.24	20294.79
518.41	20629.48
518.58	20975.88
518.75	20503.09
518.93	20748.85
519.10	20910.35
519.27	21020.35
519.45	20725.44
519.62	20828.43
519.79	21062.48
519.96	20912.69
520.14	21242.70
520.31	21113.97
520.48	21528.25
520.65	21331.64
520.83	21317.60
521.00	21671.02
521.17	21336.32
521.34	21348.03
521.52	21638.25
521.69	21404.20
521.86	21561.02
522.03	21687.40
522.20	21884.01
522.38	21582.08
522.55	21687.40
522.72	21909.75
522.89	21675.70
523.07	21659.32
523.24	21972.95
523.41	22108.70
523.58	22047.85
523.75	22300.62
523.92	21771.66
524.10	22106.36
524.27	22286.58
524.44	22209.34
524.61	22581.49
524.78	22494.89
524.96	22567.45
525.13	22150.83
525.30	22492.55
525.47	22548.72
525.64	22452.76
525.81	22480.85
525.98	22967.68
526.16	22684.47
526.33	22796.82
526.50	22726.60
526.67	22504.25
526.84	22829.59
527.01	22576.81
527.18	22780.43
527.36	22848.31
527.53	23183.01
527.70	23161.94
527.87	23300.03
528.04	23187.69
528.21	23433.44
528.38	22904.48
528.55	23115.13
528.72	23159.60
528.89	23248.54
529.07	23293.01
529.24	23012.15
529.41	23473.23
529.58	23063.64
529.75	23087.04
529.92	23522.38
530.09	23524.72
530.26	23538.77
530.43	23644.09
530.60	23651.11
530.77	23543.45
530.94	23562.17
531.11	23662.82
531.28	23807.93
531.46	23789.20
531.63	23616.01
531.80	23941.34
531.97	23929.64
532.14	23983.47
532.31	23590.26
532.48	24161.35
532.65	24198.80
532.82	24044.32
532.99	24304.12
533.16	24229.23
533.33	24357.96
533.50	24601.37
533.67	24357.96
533.84	24215.18
534.01	24264.33
534.18	24261.99
534.35	24620.10
534.52	24594.35
534.69	24318.17
534.86	24570.94
535.03	24355.61
535.20	24737.12
535.37	24624.78
535.54	24556.90
535.71	24465.62
535.88	24556.90
536.05	24765.21
536.22	24905.64
536.38	24994.58
536.55	24800.32
536.72	24992.24
536.89	24582.65
537.06	25198.21
537.23	25240.34
537.40	24690.31
537.57	24842.45
537.74	25181.82
537.91	25125.65
538.08	25252.04
538.25	24812.02
538.42	25348.00
538.59	25422.90
538.75	24786.27
538.92	25362.04
539.09	25326.94
539.26	25113.95
539.43	25214.59
539.60	25324.60
539.77	25663.97
539.94	25429.92
540.11	25280.13
540.28	25420.56
540.44	25270.76
540.61	25336.30
540.78	25518.86
540.95	25551.63
541.12	25467.37
541.29	25933.14
541.46	25720.15
541.62	25600.78
541.79	25689.72
541.96	25362.04
542.13	25706.10
542.30	25893.35
542.47	25858.24
542.63	26108.68
542.80	26108.68
542.97	25816.11
543.14	26199.96
543.31	26342.73
543.48	26122.72
543.64	26508.91
543.81	26852.97
543.98	26434.01
544.15	26347.41
544.32	26324.01
544.48	26838.92
544.65	26473.80
544.82	26424.65
544.99	26050.16
545.16	26583.80
545.32	26387.20
545.49	26595.51
545.66	26637.64
545.83	26815.52
546.00	26787.43
546.16	26316.98
546.33	26342.73
546.50	26321.66
546.67	26639.98
546.83	26431.67
547.00	26668.06
547.17	26703.17
547.34	26932.54
547.50	26948.93
547.67	27225.11
547.84	27159.58
548.00	26780.41
548.17	26855.31
548.34	26951.27
548.51	26993.40
548.67	27012.12
548.84	27288.31
549.01	26955.95
549.18	27091.70
549.34	27037.87
549.51	27211.07
549.68	27072.98
549.84	27101.06
550.01	27028.51
550.18	27342.14
550.34	27496.61
550.51	27634.71
550.68	27332.78
550.84	27381.93
551.01	27658.11
551.18	27353.84
551.34	27229.79
551.51	27723.65
551.68	27461.51
551.84	27786.84
552.01	27374.91
552.18	27969.40
552.34	27538.74
552.51	27819.61
552.68	27843.01
552.84	27496.61
553.01	28027.92
553.18	27889.82
553.34	27742.37
553.51	27520.02
553.67	28011.53
553.84	28074.73
554.01	27908.55
554.17	28041.96
554.34	27915.57
554.51	27899.19
554.67	27695.56
554.84	27786.84
555.00	27843.01
555.17	27964.72
555.33	28236.22
555.50	27899.19
555.67	27807.90
555.83	28210.48
556.00	27630.02
556.16	28306.44
556.33	27735.35
556.50	28503.04
556.66	28369.63
556.83	27990.47
556.99	28430.49
557.16	28334.53
557.32	28425.81
557.49	28276.01
557.65	28301.76
557.82	28212.82
557.98	28505.38
558.15	28329.84
558.32	28432.83
558.48	28503.04
558.65	28624.75
558.81	28428.15
558.98	28765.18
559.14	28400.06
559.31	28357.93
559.47	28481.98
559.64	28692.63
559.80	28634.11
559.97	28741.78
560.13	28570.92
560.30	28767.52
560.46	28732.42
560.63	28477.30
560.79	28704.33
560.96	28723.05
561.12	29022.64
561.29	28650.50
561.45	28641.14
561.61	28591.98
561.78	28931.36
561.94	28879.87
562.11	29022.64
562.27	28606.03
562.44	28772.21
562.60	28914.98
562.77	28631.77
562.93	28816.68
563.10	28912.64
563.26	28975.83
563.42	29069.45
563.59	29083.50
563.75	28849.44
563.92	29273.08
564.08	28744.12
564.24	28631.77
564.41	28699.65
564.57	28828.38
564.74	28795.61
564.90	29294.14
565.07	28723.05
565.23	29092.86
565.39	29221.59
565.56	29027.32
565.72	29071.79
565.88	28893.91
566.05	29048.39
566.21	28914.98
566.38	28842.42
566.54	29233.29
566.70	29228.61
566.87	29355.00
567.03	29490.75
567.19	29076.48
567.36	29387.77
567.52	29151.37
567.68	29085.84
567.85	28929.02
568.01	29043.71
568.17	29268.40
568.34	29347.98
568.50	29460.32
568.66	29675.65
568.83	29661.61
568.99	29284.78
569.15	29092.86
569.32	29165.42
569.48	29212.23
569.64	29113.92
569.81	29617.14
569.97	29270.74
570.13	29584.37
570.30	29259.04
570.46	29486.07
570.62	29474.37
570.78	29242.65
570.95	29310.53
571.11	29565.65
571.27	29303.51
571.43	28975.83
571.60	29427.56
571.76	29352.66
571.92	29617.14
572.09	29364.36
572.25	29450.96
572.41	29729.48
572.57	29565.65
572.74	29558.63
572.90	29394.79
573.06	29607.78
573.22	29413.51
573.38	29549.26
573.55	29418.19
573.71	29759.91
573.87	29544.58
574.03	29284.78
574.20	29460.32
574.36	29521.18
574.52	29589.05
574.68	29326.91
574.84	29237.97
575.01	29752.89
575.17	29362.02
575.33	29408.83
575.49	29132.65
575.65	29921.41
575.82	29640.54
575.98	29876.94
576.14	29724.80
576.30	29394.79
576.46	29408.83
576.62	29181.80
576.79	29745.87
576.95	30024.39
577.11	29729.48
577.27	29497.77
577.43	29844.17
577.59	29521.18
577.75	29769.27
577.92	29071.79
578.08	29420.53
578.24	29659.27
578.40	29647.57
578.56	29394.79
578.72	30010.35
578.88	29956.52
579.04	30352.07
579.21	29399.47
579.37	29961.20
579.53	29949.50
579.69	29399.47
579.85	29584.37
580.01	29560.97
580.17	29167.76
580.33	29619.48
580.49	29392.45
580.65	29701.40
580.82	29755.23
580.98	29907.37
581.14	29675.65
581.30	29961.20
581.46	29755.23
581.62	29504.79
581.78	29759.91
581.94	29640.54
582.10	29827.79
582.26	29752.89
582.42	29696.72
582.58	29919.07
582.74	29977.58
582.90	29930.77
583.06	29699.06
583.22	29694.38
583.38	29743.53
583.54	29446.28
583.70	29633.52
583.86	29682.67
584.02	29628.84
584.18	29898.00
584.34	30033.75
584.50	29848.85
584.66	29677.99
584.82	29504.79
584.98	29591.39
585.14	29806.72
585.30	29514.16
585.46	29479.05
585.62	29727.14
585.78	29724.80
585.94	29638.20
586.10	29558.63
586.26	29979.92
586.42	30134.40
586.58	29844.17
586.74	29860.55
586.90	29572.67
587.06	29874.60
587.22	29752.89
587.38	29879.28
587.54	29872.26
587.70	30139.08
587.86	29680.33
588.02	30103.97
588.18	30150.78
588.34	30328.66
588.49	29738.85
588.65	29902.68
588.81	29865.24
588.97	29926.09
589.13	30188.23
589.29	30057.16
589.45	30101.63
589.61	29734.17
589.77	30445.69
589.93	30073.54
590.08	30061.84
590.24	30345.05
590.40	30106.31
590.56	30185.89
590.72	29752.89
590.88	29542.24
591.04	30033.75
591.20	30188.23
591.35	30132.06
591.51	30441.01
591.67	30267.81
591.83	30216.32
591.99	30068.86
592.15	30162.48
592.31	30265.47
592.46	29921.41
592.62	29818.42
592.78	30312.28
592.94	30136.74
593.10	30057.16
593.26	30419.94
593.41	30211.64
593.57	30195.25
593.73	30094.61
593.89	30223.34
594.05	30525.27
594.20	30391.86
594.36	30384.83
594.52	30000.99
594.68	30188.23
594.84	30017.37
594.99	29879.28
595.15	30160.14
595.31	30621.23
595.47	30288.87
595.62	30625.91
595.78	30558.03
595.94	30408.24
596.10	30543.99
596.25	30106.31
596.41	29977.58
596.57	30443.35
596.73	30284.19
596.88	30246.74
597.04	30485.48
597.20	30391.86
597.36	30363.77
597.51	30387.18
597.67	30478.46
597.83	30206.95
597.99	30183.55
598.14	30352.07
598.30	30321.64
598.46	30199.93
598.61	30630.59
598.77	30146.10
598.93	30396.54
599.09	30169.51
599.24	30724.21
599.40	30431.65
599.56	30073.54
599.71	30658.68
599.87	30508.88
600.03	30387.18
600.18	29965.88
600.34	30171.85
600.50	30223.34
600.65	30569.74
600.81	30745.28
600.97	30494.84
601.12	30349.73
601.28	30831.88
601.44	30567.40
601.59	30469.09
601.75	30323.98
601.91	30532.29
602.06	29986.94
602.22	30319.30
602.37	30389.52
602.53	30237.38
602.69	30604.84
602.84	30885.71
603.00	30623.57
603.16	30773.36
603.31	30120.35
603.47	30375.47
603.62	30625.91
603.78	30387.18
603.94	30307.60
604.09	30143.76
604.25	30408.24
604.40	30286.53
604.56	30445.69
604.71	30707.83
604.87	30314.62
605.03	30644.63
605.18	30726.55
605.34	30029.07
605.49	30422.28
605.65	30302.92
605.80	30157.80
605.96	30010.35
606.12	29963.54
606.27	30394.20
606.43	30426.96
606.58	30450.37
606.74	30433.99
606.89	30511.22
607.05	30366.11
607.20	30106.31
607.36	30639.95
607.51	30286.53
607.67	30082.91
607.82	29947.15
607.98	30015.03
608.13	30567.40
608.29	30228.02
608.44	30345.05
608.60	30370.79
608.75	30532.29
608.91	30558.03
609.06	30050.14
609.22	30359.09
609.37	29928.43
609.53	29858.21
609.68	30115.67
609.84	30050.14
609.99	29898.00
610.15	30277.17
610.30	29972.90
610.46	30059.50
610.61	30274.83
610.76	30113.33
610.92	30246.74
611.07	29567.99
611.23	29799.70
611.38	29755.23
611.54	29724.80
611.69	29830.13
611.84	30031.41
612.00	29818.42
612.15	29816.08
612.31	30232.70
612.46	29898.00
612.62	29975.24
612.77	29947.15
612.92	30153.12
613.08	29689.70
613.23	29769.27
613.39	30309.94
613.54	29867.58
613.69	29565.65
613.85	29736.51
614.00	29567.99
614.15	29799.70
614.31	29820.77
614.46	29886.30
614.62	29881.62
614.77	29935.45
614.92	29900.34
615.08	29830.13
615.23	29589.05
615.38	30057.16
615.54	29294.14
615.69	29553.94
615.84	29514.16
616.00	29521.18
616.15	29666.29
616.30	29832.47
616.46	29518.84
616.61	30323.98
616.76	29977.58
616.92	29811.40
617.07	29647.57
617.22	29401.81
617.37	29343.30
617.53	29345.64
617.68	29717.78
617.83	29696.72
617.99	29689.70
618.14	29287.12
618.29	29390.11
618.45	29546.92
618.60	29429.90
618.75	29640.54
618.90	29497.77
619.06	29472.03
619.21	29256.70
619.36	29233.29
619.51	29383.09
619.67	29076.48
619.82	28819.02
619.97	29074.13
620.12	29097.54
620.28	28734.76
620.43	29294.14
620.58	29303.51
620.73	29514.16
620.89	29256.70
621.04	29305.85
621.19	28893.91
621.34	29502.45
621.49	28706.67
621.65	28964.13
621.80	28964.13
621.95	28662.20
622.10	29146.69
622.25	29085.84
622.41	28922.00
622.56	29020.30
622.71	29015.62
622.86	29034.35
623.01	28790.93
623.16	28882.21
623.32	28580.28
623.47	29120.95
623.62	29050.73
623.77	28893.91
623.92	28863.49
624.07	28437.51
624.23	28783.91
624.38	28760.50
624.53	29343.30
624.68	28620.07
624.83	28973.49
624.98	28884.55
625.13	28926.68
625.29	28943.06
625.44	28830.72
625.59	28540.49
625.74	28390.70
625.89	28531.13
626.04	28601.35
626.19	28357.93
626.34	28381.34
626.49	28591.98
626.65	28287.71
626.80	28481.98
626.95	28194.09
627.10	28671.56
627.25	28432.83
627.40	28662.20
627.55	28371.97
627.70	27953.02
627.85	28107.49
628.00	28252.61
628.15	28128.56
628.30	28376.66
628.45	28386.02
628.60	28175.37
628.76	28313.46
628.91	27992.81
629.06	28411.76
629.21	28320.48
629.36	28140.26
629.51	28474.96
629.66	28233.88
629.81	27920.25
629.96	27833.65
630.11	27936.63
630.26	28163.67
630.41	28011.53
630.56	27831.31
630.71	27974.08
630.86	27833.65
631.01	28048.98
631.16	28208.14
631.31	27845.35
631.46	27929.61
631.61	27761.09
631.76	28027.92
631.91	27737.69
632.06	27887.48
632.21	27887.48
632.36	27864.08
632.51	27498.95
632.66	27927.27
632.81	27887.48
632.96	27796.20
633.10	27784.50
633.25	28032.60
633.40	27782.16
633.55	27522.36
633.70	27714.28
633.85	27356.18
634.00	27630.02
634.15	27531.72
634.30	27426.40
634.45	27473.21
634.60	27433.42
634.75	27711.94
634.90	27679.18
635.05	27695.56
635.19	27660.45
635.34	27929.61
635.49	27332.78
635.64	27723.65
635.79	27363.20
635.94	27527.04
636.09	27307.03
636.24	27559.81
636.39	26958.29
636.53	27590.24
636.68	27473.21
636.83	27117.45
636.98	27477.89
637.13	27630.02
637.28	27346.82
637.43	27676.83
637.57	27569.17
637.72	27269.58
637.87	27351.50
638.02	27103.40
638.17	27274.26
638.32	26934.88
638.46	27112.77
638.61	27157.24
638.76	27164.26
638.91	27323.41
639.06	27082.34
639.20	26862.33
639.35	27360.86
639.50	27292.99
639.65	27262.56
639.80	27454.48
639.94	27201.71
640.09	27407.67
640.24	27307.03
640.39	27152.55
640.54	26455.08
640.68	26876.37
640.83	26551.04
640.98	26918.50
641.13	26595.51
641.27	26913.82
641.42	26476.14
641.57	27166.60
641.72	26567.42
641.86	26335.71
642.01	26263.15
642.16	26724.24
642.31	26579.12
642.45	26644.66
642.60	26391.88
642.75	26342.73
642.90	26263.15
643.04	26438.69
643.19	26352.09
643.34	26436.35
643.48	26450.39
643.63	26930.20
643.78	26651.68
643.93	26539.33
644.07	26417.63
644.22	26813.18
644.37	26546.36
644.51	26501.89
644.66	26642.32
644.81	26555.72
644.95	26560.40
645.10	26368.48
645.25	26597.85
645.39	26181.23
645.54	26441.03
645.69	26272.51
645.83	26415.29
645.98	26335.71
646.13	26600.19
646.27	26394.22
646.42	26366.13
646.57	26305.28
646.71	26089.95
646.86	26232.72
647.00	26249.11
647.15	26085.27
647.30	26235.06
647.44	26005.69
647.59	26054.84
647.74	26134.42
647.88	25766.96
648.03	26085.27
648.17	26462.10
648.32	26279.54
648.47	26080.59
648.61	25972.92
648.76	26153.15
648.90	26047.82
649.05	26134.42
649.20	26036.12
649.34	25411.20
649.49	25841.85
649.63	25385.45
649.78	25923.77
649.92	25937.82
650.07	25802.07
650.21	25860.58
650.36	25722.49
650.51	25947.18
650.65	26185.91
650.80	25785.68
650.94	25741.21
651.09	25886.32
651.23	25678.02
651.38	25757.60
651.52	25273.10
651.67	25453.33
651.81	25600.78
651.96	25837.17
652.10	25839.51
652.25	25331.62
652.39	25689.72
652.54	25645.25
652.68	25380.77
652.83	25867.60
652.97	26141.44
653.12	25446.30
653.26	25682.70
653.41	25694.40
653.55	25294.17
653.70	25523.54
653.84	25401.83
653.99	25247.36
654.13	25474.39
654.27	25422.90
654.42	25656.95
654.56	25626.53
654.71	25593.76
654.85	25280.13
655.00	25081.18
655.14	25343.32
655.29	25666.31
655.43	25474.39
655.57	25359.70
655.72	25137.35
655.86	25205.23
656.01	25240.34
656.15	25252.04
656.30	25069.48
656.44	25043.73
656.58	24931.39
656.73	25090.54
656.87	25270.76
657.01	25057.78
657.16	24987.56
657.30	25518.86
657.45	25200.55
657.59	24692.65
657.73	24943.09
657.88	25130.33
658.02	25188.85
658.16	24849.47
658.31	24886.92
658.45	25078.84
658.60	24470.30
658.74	24580.31
658.88	24456.26
659.03	24947.77
659.17	24952.45
659.31	24842.45
659.46	24795.64
659.60	24664.57
659.74	24615.41
659.89	24776.91
660.03	24126.24
660.17	24596.69
660.32	24615.41
660.46	24219.86
660.60	24402.43
660.74	24257.31
660.89	24482.00
661.03	24191.78
661.17	24067.73
661.32	24187.10
661.46	24566.26
661.60	24121.56
661.74	24224.54
661.89	24044.32
662.03	24357.96
662.17	24044.32
662.31	24451.58
662.46	24521.79
662.60	24264.33
662.74	23896.87
662.88	23927.30
663.03	23700.26
663.17	23981.13
663.31	23620.69
663.45	23840.70
663.60	23803.25
663.74	23667.50
663.88	23875.80
664.02	23789.20
664.17	23955.38
664.31	23754.10
664.45	23545.79
664.59	23583.24
664.73	23576.22
664.88	23342.16
665.02	23271.95
665.16	23243.86
665.30	23529.41
665.44	23421.74
665.59	23506.00
665.73	23278.97
665.87	23084.70
666.01	23403.02
666.15	23594.94
666.29	23302.37
666.44	23197.05
666.58	23241.52
666.72	23363.23
666.86	23246.20
667.00	23384.29
667.14	23136.20
667.28	23084.70
667.43	22764.05
667.57	23030.87
667.71	22890.44
667.85	23044.91
667.99	23094.07
668.13	22726.60
668.27	22916.19
668.41	23021.51
668.56	22412.97
668.70	22838.95
668.84	22843.63
668.98	23080.02
669.12	22754.69
669.26	22766.39
669.40	22539.36
669.54	22689.15
669.68	22317.01
669.82	22431.69
669.96	22242.11
670.10	22242.11
670.25	22256.15
670.39	22073.59
670.53	22190.62
670.67	22113.38
670.81	22335.73
670.95	21928.48
671.09	21806.77
671.23	21867.63
671.37	22471.48
671.51	22122.74
671.65	22106.36
671.79	22043.17
671.93	21839.54
672.07	21774.00
672.21	22169.55
672.35	21535.27
672.49	21532.93
672.63	21443.99
672.77	21507.18
672.91	21460.37
673.05	21544.63
673.19	21186.53
673.33	21273.13
673.47	21427.60
673.61	21605.49
673.75	21429.94
673.89	21635.91
674.03	21186.53
674.17	21076.52
674.31	21333.98
674.45	21352.71
674.59	21111.63
674.73	21301.22
674.87	20943.11
675.01	20994.61
675.15	20877.58
675.29	20964.18
675.43	21177.17
675.56	20854.17
675.70	21153.76
675.84	20910.35
675.98	20411.81
676.12	21090.57
676.26	20910.35
676.40	20697.36
676.54	20608.42
676.68	20166.06
676.82	20034.99
676.96	20458.62
677.10	20365.00
677.23	19957.75
677.37	20049.03
677.51	20081.80
677.65	20177.76
677.79	19847.74
677.93	20072.43
678.07	20058.39
678.21	19990.52
678.34	19981.15
678.48	19510.71
678.62	19426.45
678.76	19667.52
678.90	19562.20
679.04	19503.68
679.18	19506.02
679.31	19166.65
679.45	19337.51
679.59	19197.07
679.73	19133.88
679.87	18941.96
680.00	19019.19
680.14	18904.51
680.28	18747.69
680.42	19089.41
680.56	19061.32
680.70	18946.64
680.83	19019.19
680.97	18824.93
681.11	18853.02
681.25	18579.17
681.39	18855.36
681.52	18672.79
681.66	18310.01
681.80	18209.37
681.94	18108.72
682.07	18302.99
682.21	17909.78
682.35	17743.60
682.49	18164.90
682.62	17935.53
682.76	18090.00
682.90	18085.32
683.04	18118.09
683.17	17886.37
683.31	17937.87
683.45	17858.29
683.59	17736.58
683.72	17659.34
683.86	17809.14
684.00	17764.67
684.13	17305.92
684.27	17481.46
684.41	17390.18
684.55	17128.04
684.68	16819.09
684.82	17170.17
684.96	16987.61
685.09	17128.04
685.23	17135.06
685.37	17123.36
685.50	17064.85
685.64	17001.65
685.78	16999.31
685.91	16905.69
686.05	16936.12
686.19	16739.51
686.32	16570.99
686.46	16320.56
686.60	16603.76
686.73	16582.70
686.87	16411.84
687.01	16229.27
687.14	16318.22
687.28	16191.83
687.42	16161.40
687.55	16222.25
687.69	15927.35
687.82	15913.30
687.96	16020.97
688.10	16102.89
688.23	16154.38
688.37	15910.96
688.50	16063.10
688.64	15763.51
688.78	15489.67
688.91	15616.05
689.05	15419.45
689.18	15723.72
689.32	15075.39
689.46	15234.55
689.59	15274.34
689.73	15077.73
689.86	15220.50
690.00	15293.06
690.13	15445.20
690.27	15293.06
690.41	15325.83
690.54	14918.57
690.68	14911.55
690.81	15147.95
690.95	14736.01
691.08	14775.80
691.22	14934.96
691.35	14518.34
691.49	14920.92
691.62	14618.99
691.76	14555.79
691.89	14328.76
692.03	14342.80
692.16	14237.48
692.30	13975.34
692.43	14279.61
692.57	14295.99
692.70	14068.96
692.84	14155.56
692.97	14005.77
693.11	14038.53
693.24	13961.30
693.38	13891.08
693.51	13877.04
693.65	13745.97
693.78	13589.15
693.92	14040.87
694.05	13420.63
694.19	13797.46
694.32	13598.51
694.45	13502.55
694.59	13434.68
694.72	13153.81
694.86	13107.00
694.99	12891.67
695.13	13219.35
695.26	13083.59
695.39	13102.32
695.53	13212.32
695.66	13254.45
695.80	12884.65
695.93	13062.53
696.07	12957.21
696.20	12968.91
696.33	12950.18
696.47	12709.11
696.60	12620.17
696.73	12610.81
696.87	12671.66
697.00	12435.27
697.14	12540.59
697.27	12212.92
697.40	12280.79
697.54	12152.06
697.67	12109.93
697.80	12308.88
697.94	12138.02
698.07	12023.33
698.21	12086.53
698.34	11918.01
698.47	12016.31
698.61	12051.42
698.74	11880.56
698.87	12074.82
699.01	11723.74
699.14	11845.45
699.27	11669.91
699.40	11723.74
699.54	11805.66
699.67	11660.55
699.80	11705.02
699.94	11377.34
700.07	11485.01
700.20	11110.52
700.34	11335.21
700.47	11140.95
700.60	11346.92
700.73	11218.19
700.87	11012.22
701.00	11047.33
701.13	11145.63
701.26	10913.92
701.40	11040.31
701.53	10958.39
701.66	11005.20
701.79	10555.82
701.93	10881.15
702.06	10616.67
702.19	10459.85
702.32	10675.18
702.46	10504.32
702.59	10452.83
702.72	10202.40
702.85	10260.91
702.99	10153.24
703.12	10399.00
703.25	10139.20
703.38	10038.56
703.51	10249.21
703.65	10024.51
703.78	10310.06
703.91	10162.61
704.04	10160.27
704.17	10047.92
704.31	10146.22
704.44	9961.32
704.57	9865.36
704.70	9774.08
704.83	9762.37
704.96	9626.62
705.10	9671.09
705.23	9696.84
>>>>>End Processed Spectral Data<<<<<
