SpectraSuite Data File
++++++++++++++++++++++++++++++++++++
Date: Fri Oct 18 13:58:27 GMT-05:00 2013
User: bianchi
Dark Spectrum Present: No
Reference Spectrum Present: No
Number of Sampled Component Spectra: 1
Spectrometers: USB2+H05261
Integration Time (usec): 50000 (USB2+H05261)
Spectra Averaged: 1 (USB2+H05261)
Boxcar Smoothing: 0 (USB2+H05261)
Correct for Electrical Dark: No (USB2+H05261)
Strobe/Lamp Enabled: No (USB2+H05261)
Correct for Detector Non-linearity: No (USB2+H05261)
Correct for Stray Light: No (USB2+H05261)
Number of Pixels in Processed Spectrum: 2048
>>>>>Begin Processed Spectral Data<<<<<
365.73	0.00
365.92	0.00
366.12	0.00
366.32	0.00
366.52	0.00
366.72	0.00
366.91	0.00
367.11	0.00
367.31	0.00
367.51	0.00
367.70	0.00
367.90	0.00
368.10	0.00
368.30	0.00
368.49	0.00
368.69	0.00
368.89	0.00
369.09	0.00
369.28	0.00
369.48	0.00
369.68	0.00
369.87	0.00
370.07	0.00
370.27	0.00
370.47	0.00
370.66	0.00
370.86	102.98
371.06	100.64
371.25	105.32
371.45	135.75
371.65	72.56
371.84	198.95
372.04	166.18
372.24	173.20
372.44	170.86
372.63	241.08
372.83	224.69
373.03	241.08
373.22	220.01
373.42	203.63
373.62	210.65
373.81	264.48
374.01	212.99
374.21	257.46
374.40	170.86
374.60	238.73
374.79	273.84
374.99	222.35
375.19	299.59
375.38	315.97
375.58	238.73
375.78	278.52
375.97	241.08
376.17	250.44
376.37	271.50
376.56	264.48
376.76	231.71
376.95	205.97
377.15	259.80
377.35	276.18
377.54	201.29
377.74	262.14
377.93	269.16
378.13	266.82
378.33	304.27
378.52	266.82
378.72	311.29
378.91	273.84
379.11	255.12
379.31	252.78
379.50	262.14
379.70	278.52
379.89	393.21
380.09	248.10
380.28	264.48
380.48	348.74
380.68	313.63
380.87	290.23
381.07	276.18
381.26	404.91
381.46	339.38
381.65	299.59
381.85	290.23
382.04	294.91
382.24	339.38
382.43	348.74
382.63	362.78
382.83	334.70
383.02	311.29
383.22	381.51
383.41	388.53
383.61	351.08
383.80	322.99
384.00	334.70
384.19	322.99
384.39	365.12
384.58	327.68
384.78	346.40
384.97	400.23
385.17	414.27
385.36	437.68
385.56	411.93
385.75	428.32
385.95	358.10
386.14	402.57
386.34	383.85
386.53	454.06
386.72	365.12
386.92	414.27
387.11	491.51
387.31	472.79
387.50	435.34
387.70	407.25
387.89	449.38
388.09	500.87
388.28	423.64
388.48	367.46
388.67	376.83
388.86	559.39
389.06	440.02
389.25	442.36
389.45	465.77
389.64	390.87
389.84	400.23
390.03	484.49
390.22	456.40
390.42	507.90
390.61	407.25
390.81	479.81
391.00	491.51
391.19	540.66
391.39	482.15
391.58	535.98
391.78	437.68
391.97	489.17
392.16	535.98
392.36	573.43
392.55	507.90
392.75	554.71
392.94	440.02
393.13	545.34
393.33	503.22
393.52	599.18
393.71	545.34
393.91	533.64
394.10	472.79
394.29	566.41
394.49	561.73
394.68	557.05
394.88	587.47
395.07	585.13
395.26	596.84
395.46	627.26
395.65	594.50
395.84	720.88
396.04	613.22
396.23	594.50
396.42	615.56
396.62	683.44
396.81	655.35
397.00	627.26
397.19	699.82
397.39	697.48
397.58	671.73
397.77	692.80
397.97	688.12
398.16	613.22
398.35	683.44
398.55	671.73
398.74	755.99
398.93	650.67
399.12	805.14
399.32	709.18
399.51	638.97
399.70	758.33
399.90	711.52
400.09	737.27
400.28	767.70
400.47	763.01
400.67	770.04
400.86	655.35
401.05	777.06
401.24	777.06
401.44	823.87
401.63	723.23
401.82	777.06
402.01	877.70
402.21	910.47
402.40	777.06
402.59	821.53
402.78	800.46
402.97	924.51
403.17	835.57
403.36	866.00
403.55	861.32
403.74	821.53
403.93	915.15
404.13	889.40
404.32	924.51
404.51	844.93
404.70	961.96
404.89	854.30
405.09	938.55
405.28	875.36
405.47	964.30
405.66	1104.73
405.85	952.60
406.05	1039.20
406.24	933.87
406.43	1036.86
406.62	999.41
406.81	1076.65
407.00	987.71
407.20	929.19
407.39	1050.90
407.58	1015.79
407.77	1057.92
407.96	1029.84
408.15	1053.24
408.34	1093.03
408.54	1142.18
408.73	1043.88
408.92	1104.73
409.11	1076.65
409.30	1104.73
409.49	1181.97
409.68	1158.57
409.87	1228.78
410.07	1170.27
410.26	1193.67
410.45	1097.71
410.64	1090.69
410.83	1146.86
411.02	1188.99
411.21	1266.23
411.40	1153.88
411.59	1291.98
411.78	1181.97
411.98	1146.86
412.17	1263.89
412.36	1238.14
412.55	1254.53
412.74	1277.93
412.93	1387.94
413.12	1329.42
413.31	1472.20
413.50	1303.68
413.69	1296.66
413.88	1423.05
414.07	1357.51
414.26	1495.60
414.45	1432.41
414.64	1453.47
414.83	1418.36
415.02	1612.63
415.22	1617.31
415.41	1572.84
415.60	1465.18
415.79	1554.12
415.98	1493.26
416.17	1647.74
416.36	1509.65
416.55	1561.14
416.74	1610.29
416.93	1696.89
417.12	1727.32
417.31	1652.42
417.50	1612.63
417.69	1788.17
417.88	1722.63
418.07	1652.42
418.26	1696.89
418.45	1703.91
418.64	1764.76
418.83	1820.94
419.02	1741.36
419.21	1816.26
419.39	1916.90
419.58	1849.02
419.77	1757.74
419.96	1755.40
420.15	1746.04
420.34	1837.32
420.53	1886.47
420.72	1907.54
420.91	1881.79
421.10	1942.64
421.29	1984.77
421.48	1809.23
421.67	2005.84
421.86	1902.86
422.05	1867.75
422.24	1966.05
422.43	2038.61
422.61	1966.05
422.80	1980.09
422.99	1956.69
423.18	2015.20
423.37	2052.65
423.56	2134.57
423.75	2015.20
423.94	1942.64
424.13	1879.45
424.32	1921.58
424.50	1954.35
424.69	2111.16
424.88	1996.48
425.07	1982.43
425.26	1996.48
425.45	1966.05
425.64	2019.88
425.83	1989.46
426.01	2050.31
426.20	2003.50
426.39	2050.31
426.58	1968.39
426.77	2045.63
426.96	2069.03
427.15	2062.01
427.33	2087.76
427.52	2097.12
427.71	2139.25
427.90	2069.03
428.09	2193.08
428.28	2115.84
428.46	2176.70
428.65	2090.10
428.84	2218.83
429.03	2246.91
429.22	2118.18
429.40	2242.23
429.59	2270.32
429.78	2101.80
429.97	2195.42
430.16	2272.66
430.34	2448.20
430.53	2328.83
430.72	2403.73
430.91	2298.41
431.10	2211.81
431.28	2277.34
431.47	2354.58
431.66	2420.11
431.85	2244.57
432.03	2497.35
432.22	2469.27
432.41	2385.01
432.60	2457.56
432.79	2373.30
432.97	2415.43
433.16	2399.05
433.35	2424.80
433.54	2476.29
433.72	2553.52
433.91	2480.97
434.10	2459.90
434.28	2523.10
434.47	2544.16
434.66	2551.18
434.85	2602.68
435.03	2630.76
435.22	2609.70
435.41	2663.53
435.59	2586.29
435.78	2661.19
435.97	2726.72
436.16	2537.14
436.34	2565.23
436.53	2621.40
436.72	2850.77
436.90	2562.89
437.09	2640.12
437.28	2689.28
437.46	2698.64
437.65	2759.49
437.84	2649.49
438.02	2698.64
438.21	2850.77
438.40	2583.95
438.58	2792.26
438.77	2857.79
438.96	2829.71
439.14	2993.55
439.33	2869.50
439.52	3040.36
439.70	3068.44
439.89	2923.33
440.08	2895.24
440.26	3073.12
440.45	3180.79
440.63	3028.65
440.82	3124.62
441.01	3066.10
441.19	3000.57
441.38	3138.66
441.57	3176.11
441.75	3297.81
441.94	3234.62
442.12	3220.58
442.31	3370.37
442.50	3403.14
442.68	3220.58
442.87	3290.79
443.05	3384.41
443.24	3424.20
443.43	3358.67
443.61	3417.18
443.80	3368.03
443.98	3386.76
444.17	3325.90
444.35	3286.11
444.54	3480.38
444.73	3438.25
444.91	3459.31
445.10	3485.06
445.28	3309.52
445.47	3269.73
445.65	3541.23
445.84	3473.36
446.02	3426.54
446.21	3522.51
446.39	3454.63
446.58	3456.97
446.77	3545.91
446.95	3272.07
447.14	3454.63
447.32	3487.40
447.51	3501.44
447.69	3459.31
447.88	3562.30
448.06	3522.51
448.25	3524.85
448.43	3611.45
448.62	3346.97
448.80	3452.29
448.99	3660.60
449.17	3632.51
449.36	3529.53
449.54	3637.19
449.73	3639.53
449.91	3698.05
450.10	3548.25
450.28	3779.97
450.46	3791.67
450.65	3791.67
450.83	3765.92
451.02	3695.71
451.20	3801.03
451.39	3749.54
451.57	3770.60
451.76	3543.57
451.94	3728.47
452.13	3744.86
452.31	3859.54
452.49	3737.84
452.68	3885.29
452.86	3871.25
453.05	3929.76
453.23	3927.42
453.42	3840.82
453.60	3953.16
453.78	3817.41
453.97	3831.46
454.15	3836.14
454.34	3981.25
454.52	4105.30
454.70	3896.99
454.89	4021.04
455.07	4063.17
455.26	3962.53
455.44	4124.02
455.62	4067.85
455.81	3953.16
455.99	4102.96
456.17	4229.35
456.36	4245.73
456.54	4149.77
456.73	4215.30
456.91	4276.16
457.09	4145.09
457.28	4414.25
457.46	4210.62
457.64	4374.46
457.83	4203.60
458.01	4128.70
458.19	4414.25
458.38	4315.95
458.56	4346.37
458.74	4435.32
458.93	4395.53
459.11	4482.13
459.29	4442.34
459.48	4437.66
459.66	4540.64
459.84	4615.54
460.03	4561.70
460.21	4662.35
460.39	4550.00
460.57	4470.42
460.76	4601.49
460.94	4587.45
461.12	4512.55
461.31	4568.73
461.49	4409.57
461.67	4566.39
461.85	4779.37
462.04	4662.35
462.22	4863.63
462.40	4599.15
462.59	4720.86
462.77	4669.37
462.95	4741.93
463.13	4809.80
463.32	4821.50
463.50	4788.74
463.68	4861.29
463.86	4697.46
464.05	4657.67
464.23	4798.10
464.41	4964.28
464.59	4922.15
464.78	4802.78
464.96	4961.94
465.14	4800.44
465.32	4983.00
465.50	5069.60
465.69	5032.15
465.87	4926.83
466.05	5001.72
466.23	5027.47
466.41	4938.53
466.60	5247.48
466.78	4894.06
466.96	4947.89
467.14	5039.17
467.32	5149.18
467.51	5282.59
467.69	5114.07
467.87	5001.72
468.05	5195.99
468.23	5095.35
468.41	5102.37
468.60	5235.78
468.78	5149.18
468.96	5254.50
469.14	5172.58
469.32	5298.97
469.50	5139.82
469.69	5334.08
469.87	5514.30
470.05	5511.96
470.23	5310.68
470.41	5334.08
470.59	5390.25
470.77	5322.38
470.95	5383.23
471.14	5509.62
471.32	5404.30
471.50	5416.00
471.68	5432.38
471.86	5432.38
472.04	5493.24
472.22	5743.67
472.40	5610.26
472.58	5614.95
472.77	5823.25
472.95	5628.99
473.13	5877.09
473.31	5774.10
473.49	5839.64
473.67	5598.56
473.85	5867.72
474.03	5935.60
474.21	5949.64
474.39	5975.39
474.57	6012.84
474.75	6141.57
474.93	6282.00
475.12	6078.37
475.30	6223.48
475.48	6005.81
475.66	6141.57
475.84	6244.55
476.02	6258.59
476.20	6190.72
476.38	6602.65
476.56	6509.03
476.74	6532.44
476.92	6511.37
477.10	6485.62
477.28	6626.06
477.46	6399.02
477.64	6684.57
477.82	6825.00
478.00	6848.41
478.18	6853.09
478.36	6909.26
478.54	7012.24
478.72	7023.95
478.90	7096.50
479.08	7234.60
479.26	7330.56
479.44	7063.74
479.62	7321.20
479.80	7250.98
479.98	7496.74
480.16	7651.21
480.34	7478.01
480.52	7609.08
480.70	7602.06
480.88	7550.57
481.06	7676.96
481.24	7494.40
481.41	7740.15
481.59	7934.42
481.77	7999.95
481.95	8065.49
482.13	8074.85
482.31	8091.23
482.49	8212.94
482.67	8145.06
482.85	8322.94
483.03	8468.06
483.21	8528.91
483.39	8557.00
483.57	8521.89
483.74	8690.41
483.92	8678.71
484.10	8601.47
484.28	9158.52
484.46	9029.79
484.64	9158.52
484.82	8800.41
485.00	9214.69
485.18	9186.60
485.35	9310.65
485.53	9233.41
485.71	9294.27
485.89	9598.54
486.07	9394.91
486.25	9462.79
486.43	9631.30
486.61	9451.08
486.78	9720.24
486.96	9701.52
487.14	10031.54
487.32	10071.33
487.50	10015.15
487.68	10340.49
487.85	10235.16
488.03	10279.63
488.21	10377.94
488.39	10471.56
488.57	10518.37
488.75	10604.97
488.92	10473.90
489.10	10932.64
489.28	10810.93
489.46	11199.46
489.64	10953.71
489.81	11103.50
489.99	11438.20
490.17	11489.69
490.35	11407.77
490.53	11391.39
490.70	11431.18
490.88	11473.31
491.06	11592.67
491.24	11625.44
491.41	11798.64
491.59	11714.38
491.77	11974.18
491.95	12072.48
492.13	12098.23
492.30	12173.13
492.48	12149.72
492.66	12187.17
492.84	12439.95
493.01	12465.69
493.19	12540.59
493.37	12798.05
493.54	12706.77
493.72	12643.57
493.90	12723.15
494.08	12971.25
494.25	12954.87
494.43	12924.44
494.61	13158.49
494.79	13432.33
494.96	13249.77
495.14	13266.16
495.32	13376.16
495.49	13362.12
495.67	13769.37
495.85	13666.39
496.02	13525.96
496.20	13898.10
496.38	13692.13
496.55	13855.97
496.73	14237.48
496.91	13921.51
497.09	14270.25
497.26	14146.20
497.44	14169.60
497.62	14246.84
497.79	14324.08
497.97	14303.01
498.14	14548.77
498.32	14663.46
498.50	14679.84
498.67	14754.74
498.85	14750.06
499.03	15096.46
499.20	14892.83
499.38	14934.96
499.56	14878.79
499.73	15150.29
499.91	15192.42
500.08	15440.51
500.26	15234.55
500.44	15403.07
500.61	15527.11
500.79	15484.98
500.97	15676.91
501.14	15508.39
501.32	15679.25
501.49	15583.29
501.67	15679.25
501.84	15740.10
502.02	15917.98
502.20	15857.13
502.37	16042.03
502.55	15903.94
502.72	16037.35
502.90	15992.88
503.07	16063.10
503.25	16339.28
503.43	16140.33
503.60	16318.22
503.78	16418.86
503.95	16086.50
504.13	16472.69
504.30	16325.24
504.48	16570.99
504.65	16465.67
504.83	16631.85
505.01	17006.33
505.18	16681.00
505.36	17422.95
505.53	16688.02
505.71	16795.68
505.88	16898.67
506.06	16835.47
506.23	17263.79
506.41	17214.64
506.58	17357.41
506.76	17305.92
506.93	17130.38
507.11	17366.78
507.28	17284.86
507.46	17268.47
507.63	17502.53
507.81	17551.68
507.98	17804.46
508.16	17687.43
508.33	17837.22
508.50	17528.27
508.68	17771.69
508.85	18148.51
509.03	17834.88
509.20	18080.64
509.38	18352.14
509.55	18195.32
509.73	18127.45
509.90	18155.54
510.08	18356.82
510.25	18169.58
510.42	18345.12
510.60	18508.96
510.77	18499.59
510.95	18986.43
511.12	18565.13
511.30	18684.50
511.47	18555.77
511.64	18948.98
511.82	18895.14
511.99	19026.21
512.17	19124.52
512.34	18937.27
512.51	19192.39
512.69	19098.77
512.86	18881.10
513.04	19171.33
513.21	19463.90
513.38	19529.43
513.56	19548.15
513.73	18993.45
513.90	19342.19
514.08	19536.45
514.25	19740.08
514.43	19604.33
514.60	19531.77
514.77	19744.76
514.95	19747.10
515.12	19992.86
515.29	19723.69
515.47	19679.22
515.64	20025.62
515.81	19814.98
515.99	20116.90
516.16	20484.37
516.33	20058.39
516.51	20437.56
516.68	20084.14
516.85	20086.48
517.03	20037.33
517.20	20659.91
517.37	20379.04
517.54	20215.21
517.72	20617.78
517.89	20582.67
518.06	20776.94
518.24	20397.77
518.41	20489.05
518.58	20823.75
518.75	20606.08
518.93	20734.81
519.10	20847.15
519.27	20926.73
519.45	20936.09
519.62	20936.09
519.79	21137.38
519.96	21291.85
520.14	21163.12
520.31	20886.94
520.48	21158.44
520.65	20985.24
520.83	21603.14
521.00	21200.57
521.17	21252.06
521.34	21376.11
521.52	21467.39
521.69	21638.25
521.86	21458.03
522.03	21612.51
522.20	21745.92
522.38	21502.50
522.55	21448.67
522.72	21809.11
522.89	21886.35
523.07	21979.97
523.24	21741.24
523.41	21986.99
523.58	21776.34
523.75	22052.53
523.92	21858.26
524.10	22043.17
524.27	22118.06
524.44	22059.55
524.61	22405.95
524.78	22302.96
524.96	22221.05
525.13	22382.54
525.30	22218.71
525.47	22590.85
525.64	22190.62
525.81	22787.46
525.98	22710.22
526.16	22813.20
526.33	22494.89
526.50	22625.96
526.67	22522.98
526.84	22394.25
527.01	22953.63
527.18	22672.77
527.36	22988.74
527.53	23080.02
527.70	23218.11
527.87	22836.61
528.04	22988.74
528.21	23002.78
528.38	22881.08
528.55	23054.28
528.72	23274.29
528.89	23164.28
529.07	23381.95
529.24	23344.50
529.41	23445.15
529.58	23248.54
529.75	23332.80
529.92	23506.00
530.09	23580.90
530.26	23349.18
530.43	23522.38
530.60	23377.27
530.77	23594.94
530.94	23854.74
531.11	23344.50
531.28	23438.12
531.46	23569.19
531.63	23779.84
531.80	23740.05
531.97	24060.71
532.14	23943.68
532.31	23880.49
532.48	24126.24
532.65	23700.26
532.82	23723.67
532.99	24081.77
533.16	23953.04
533.33	24332.21
533.50	24297.10
533.67	24369.66
533.84	23915.59
534.01	23997.51
534.18	24140.29
534.35	24395.40
534.52	24313.48
534.69	24444.56
534.86	24638.82
535.03	24133.26
535.20	24498.39
535.37	24463.28
535.54	24577.97
535.71	24460.94
535.88	24505.41
536.05	24624.78
536.22	25062.46
536.38	24318.17
536.55	24905.64
536.72	24732.44
536.89	24573.28
537.06	24451.58
537.23	25006.28
537.40	24966.49
537.57	24910.32
537.74	25394.81
537.91	25193.53
538.08	25160.76
538.25	24833.08
538.42	25120.97
538.59	25205.23
538.75	24739.46
538.92	25025.01
539.09	25163.10
539.26	25195.87
539.43	25139.69
539.60	24854.15
539.77	25273.10
539.94	25359.70
540.11	25352.68
540.28	25589.08
540.44	25352.68
540.61	25504.82
540.78	25387.79
540.95	25514.18
541.12	25682.70
541.29	25802.07
541.46	25633.55
541.62	25401.83
541.79	25607.80
541.96	25411.20
542.13	25446.30
542.30	25738.87
542.47	25626.53
542.63	26206.98
542.80	26206.98
542.97	25940.16
543.14	26225.70
543.31	26436.35
543.48	25916.75
543.64	26302.94
543.81	26492.52
543.98	26352.09
544.15	26335.71
544.32	26724.24
544.48	26412.95
544.65	26501.89
544.82	26211.66
544.99	25975.27
545.16	26450.39
545.32	25923.77
545.49	26654.02
545.66	26920.84
545.83	27049.57
546.00	26506.57
546.16	26497.20
546.33	26384.86
546.50	26244.43
546.67	26792.11
546.83	26267.83
547.00	26625.93
547.17	26780.41
547.34	26796.79
547.50	26749.98
547.67	27143.19
547.84	27021.48
548.00	26927.86
548.17	27054.25
548.34	26665.72
548.51	27094.04
548.67	27323.41
548.84	27190.00
549.01	26927.86
549.18	26948.93
549.34	26684.45
549.51	27377.25
549.68	26611.89
549.84	27199.37
550.01	27262.56
550.18	26768.71
550.34	27131.49
550.51	27725.99
550.68	27377.25
550.84	27126.81
551.01	27440.44
551.18	26885.73
551.34	27101.06
551.51	27402.99
551.68	27681.52
551.84	27517.68
552.01	27250.86
552.18	27665.13
552.34	27522.36
552.51	27463.85
552.68	27618.32
552.84	27527.04
553.01	27541.08
553.18	27552.79
553.34	27681.52
553.51	27721.30
553.67	27824.29
553.84	27843.01
554.01	27941.32
554.17	27747.05
554.34	27480.23
554.51	27608.96
554.67	27992.81
554.84	27903.87
555.00	27819.61
555.17	27943.66
555.33	27946.00
555.50	28219.84
555.67	27927.27
555.83	27651.09
556.00	27943.66
556.16	28273.67
556.33	27871.10
556.50	28046.64
556.66	28224.52
556.83	28287.71
556.99	28128.56
557.16	28428.15
557.32	28404.74
557.49	28306.44
557.65	28369.63
557.82	28084.09
557.98	28121.54
558.15	27985.79
558.32	28297.08
558.48	28149.62
558.65	28060.68
558.81	28489.00
558.98	27953.02
559.14	28070.04
559.31	28474.96
559.47	28386.02
559.64	28439.85
559.80	28425.81
559.97	28198.77
560.13	28568.58
560.30	28400.06
560.46	28673.90
560.63	28421.13
560.79	28643.48
560.96	28711.35
561.12	28566.24
561.29	28404.74
561.45	28538.15
561.61	28620.07
561.78	28648.16
561.94	28762.84
562.11	28877.53
562.27	28645.82
562.44	28685.61
562.60	28706.67
562.77	28701.99
562.93	28479.64
563.10	29151.37
563.26	28767.52
563.42	29076.48
563.59	28613.05
563.75	28594.32
563.92	29308.19
564.08	29067.11
564.24	28739.44
564.41	28587.30
564.57	28620.07
564.74	28687.95
564.90	28847.10
565.07	28762.84
565.23	29195.84
565.39	28926.68
565.56	28992.22
565.72	28685.61
565.88	29076.48
566.05	29102.22
566.21	28662.20
566.38	28732.42
566.54	28723.05
566.70	29322.23
566.87	29343.30
567.03	29338.62
567.19	29287.12
567.36	29422.87
567.52	28865.83
567.68	29029.66
567.85	28950.09
568.01	29266.06
568.17	28966.47
568.34	29111.58
568.50	28957.11
568.66	29027.32
568.83	29289.46
568.99	29134.99
569.15	29067.11
569.32	28886.89
569.48	28931.36
569.64	29216.91
569.81	28629.43
569.97	29312.87
570.13	29570.33
570.30	28840.08
570.46	29443.94
570.62	28971.15
570.78	28968.81
570.95	29221.59
571.11	29523.52
571.27	29088.18
571.43	29429.90
571.60	28954.77
571.76	29411.17
571.92	29244.99
572.09	29399.47
572.25	29216.91
572.41	29083.50
572.57	29362.02
572.74	29411.17
572.90	29359.68
573.06	29432.24
573.22	29149.03
573.38	29450.96
573.55	29355.00
573.71	29656.93
573.87	29415.85
574.03	29212.23
574.20	29427.56
574.36	29647.57
574.52	29376.06
574.68	29390.11
574.84	29193.50
575.01	29336.27
575.17	29305.85
575.33	29298.83
575.49	29427.56
575.65	29722.46
575.82	29270.74
575.98	29380.74
576.14	29839.49
576.30	29259.04
576.46	29287.12
576.62	29516.50
576.79	29628.84
576.95	29289.46
577.11	29127.97
577.27	29635.86
577.43	29322.23
577.59	29362.02
577.75	29825.45
577.92	29324.57
578.08	29221.59
578.24	29411.17
578.40	29329.25
578.56	29429.90
578.72	29736.51
578.88	29600.76
579.04	29816.08
579.21	29329.25
579.37	29579.69
579.53	30022.05
579.69	29469.69
579.85	29301.17
580.01	29369.04
580.17	29357.34
580.33	29633.52
580.49	29467.34
580.65	29476.71
580.82	29895.66
580.98	29713.10
581.14	29542.24
581.30	29598.41
581.46	29371.38
581.62	29696.72
581.78	29244.99
581.94	29635.86
582.10	29357.34
582.26	29556.28
582.42	29507.13
582.58	29647.57
582.74	29839.49
582.90	29860.55
583.06	29563.31
583.22	29874.60
583.38	29799.70
583.54	29572.67
583.70	29532.88
583.86	29757.57
584.02	29156.05
584.18	29577.35
584.34	29479.05
584.50	29766.93
584.66	29776.30
584.82	29390.11
584.98	29570.33
585.14	29230.95
585.30	29404.15
585.46	29582.03
585.62	29537.56
585.78	29867.58
585.94	29275.42
586.10	29539.90
586.26	29748.21
586.42	29783.32
586.58	29790.34
586.74	29551.60
586.90	29530.54
587.06	29605.44
587.22	29633.52
587.38	29743.53
587.54	30017.37
587.70	29993.97
587.86	29659.27
588.02	30080.56
588.18	29823.11
588.34	29827.79
588.49	29902.68
588.65	29619.48
588.81	29986.94
588.97	29425.22
589.13	29811.40
589.29	29855.87
589.45	29572.67
589.61	29790.34
589.77	30134.40
589.93	29961.20
590.08	29895.66
590.24	30141.42
590.40	30015.03
590.56	29853.53
590.72	29628.84
590.88	29790.34
591.04	29958.86
591.20	30026.73
591.35	29951.84
591.51	30122.69
591.67	30047.80
591.83	30235.04
591.99	30110.99
592.15	30068.86
592.31	30209.29
592.46	30328.66
592.62	29886.30
592.78	29806.72
592.94	29806.72
593.10	30082.91
593.26	29792.68
593.41	30253.76
593.57	30190.57
593.73	30221.00
593.89	30265.47
594.05	30141.42
594.20	30256.11
594.36	29954.18
594.52	30078.22
594.68	29979.92
594.84	30143.76
594.99	29942.47
595.15	30548.67
595.31	30331.00
595.47	30380.15
595.62	30167.16
595.78	29888.64
595.94	30132.06
596.10	30216.32
596.25	30174.19
596.41	29947.15
596.57	29979.92
596.73	29916.73
596.88	30089.93
597.04	30370.79
597.20	30321.64
597.36	30527.61
597.51	30766.34
597.67	30377.81
597.83	29827.79
597.99	30129.72
598.14	29701.40
598.30	30265.47
598.46	30150.78
598.61	30169.51
598.77	30527.61
598.93	30410.58
599.09	30127.38
599.24	30419.94
599.40	30433.99
599.56	30218.66
599.71	30157.80
599.87	30487.82
600.03	30190.57
600.18	29876.94
600.34	29759.91
600.50	29930.77
600.65	30160.14
600.81	30244.40
600.97	30527.61
601.12	30520.59
601.28	30597.82
601.44	30646.97
601.59	30307.60
601.75	30209.29
601.91	30621.23
602.06	30363.77
602.22	30497.18
602.37	30101.63
602.53	30057.16
602.69	30387.18
602.84	30036.09
603.00	30560.37
603.16	30553.35
603.31	30176.53
603.47	30242.06
603.62	30609.53
603.78	30436.33
603.94	29993.97
604.09	30532.29
604.25	29745.87
604.40	30031.41
604.56	30295.89
604.71	30471.43
604.87	30466.75
605.03	30536.97
605.18	30492.50
605.34	30359.09
605.49	30146.10
605.65	30045.46
605.80	29923.75
605.96	30333.34
606.12	29986.94
606.27	30277.17
606.43	30045.46
606.58	30352.07
606.74	30558.03
606.89	30068.86
607.05	30302.92
607.20	30607.19
607.36	30108.65
607.51	30115.67
607.67	30211.64
607.82	29902.68
607.98	30115.67
608.13	30103.97
608.29	30024.39
608.44	30150.78
608.60	30221.00
608.75	30122.69
608.91	30068.86
609.06	30312.28
609.22	30113.33
609.37	30045.46
609.53	30005.67
609.68	29865.24
609.84	29862.90
609.99	29694.38
610.15	29944.81
610.30	29942.47
610.46	29792.68
610.61	30059.50
610.76	30429.30
610.92	30031.41
611.07	30197.59
611.23	29586.71
611.38	29907.37
611.54	29820.77
611.69	29670.97
611.84	29677.99
612.00	29635.86
612.15	29755.23
612.31	30008.01
612.46	29551.60
612.62	30047.80
612.77	30057.16
612.92	29851.19
613.08	30017.37
613.23	30071.20
613.39	29645.23
613.54	29851.19
613.69	29797.36
613.85	29244.99
614.00	29759.91
614.15	29748.21
614.31	29853.53
614.46	29830.13
614.62	29748.21
614.77	29984.60
614.92	29453.30
615.08	29420.53
615.23	29553.94
615.38	29476.71
615.54	29326.91
615.69	29626.50
615.84	29600.76
616.00	29977.58
616.15	29296.49
616.30	29841.83
616.46	29446.28
616.61	29717.78
616.76	29483.73
616.92	29558.63
617.07	29345.64
617.22	29310.53
617.37	29380.74
617.53	29521.18
617.68	29390.11
617.83	29102.22
617.99	29039.03
618.14	29420.53
618.29	29411.17
618.45	28966.47
618.60	29167.76
618.75	29195.84
618.90	29132.65
619.06	29006.26
619.21	29184.14
619.36	29188.82
619.51	29076.48
619.67	29076.48
619.82	29022.64
619.97	29362.02
620.12	28685.61
620.28	28912.64
620.43	29256.70
620.58	29434.58
620.73	29308.19
620.89	28947.75
621.04	29095.20
621.19	28996.90
621.34	29090.52
621.49	28912.64
621.65	28608.37
621.80	28917.32
621.95	28814.34
622.10	28645.82
622.25	28922.00
622.41	28835.40
622.56	28912.64
622.71	29123.29
622.86	28980.51
623.01	28917.32
623.16	29015.62
623.32	28999.24
623.47	28650.50
623.62	28606.03
623.77	28725.39
623.92	28826.04
624.07	28828.38
624.23	28652.84
624.38	28620.07
624.53	28716.03
624.68	28811.99
624.83	28620.07
624.98	28910.30
625.13	28807.31
625.29	28704.33
625.44	28390.70
625.59	28299.42
625.74	28388.36
625.89	28563.90
626.04	28589.64
626.19	28039.62
626.34	28533.47
626.49	28158.99
626.65	28116.86
626.80	28610.71
626.95	28521.77
627.10	28540.49
627.25	28116.86
627.40	28453.89
627.55	28463.25
627.70	28196.43
627.85	28095.79
628.00	27896.85
628.15	28016.21
628.30	27742.37
628.45	28130.90
628.60	28538.15
628.76	28357.93
628.91	28341.55
629.06	28357.93
629.21	28327.50
629.36	28489.00
629.51	28088.77
629.66	27803.22
629.81	27630.02
629.96	27707.26
630.11	28084.09
630.26	27857.06
630.41	27882.80
630.56	28091.11
630.71	28158.99
630.86	28039.62
631.01	27775.14
631.16	28170.69
631.31	27871.10
631.46	27662.79
631.61	28020.89
631.76	27899.19
631.91	27821.95
632.06	27604.28
632.21	27494.27
632.36	27857.06
632.51	27417.04
632.66	27728.33
632.81	27292.99
632.96	27562.15
633.10	27611.30
633.25	27803.22
633.40	27599.60
633.55	27697.90
633.70	27381.93
633.85	27484.91
634.00	27201.71
634.15	27384.27
634.30	27580.87
634.45	27180.64
634.60	26883.39
634.75	27281.28
634.90	27314.05
635.05	27527.04
635.19	27487.25
635.34	27283.62
635.49	27473.21
635.64	27915.57
635.79	27402.99
635.94	27208.73
636.09	27459.16
636.24	27215.75
636.39	27129.15
636.53	27307.03
636.68	27175.96
636.83	27014.46
636.98	27122.13
637.13	27208.73
637.28	27424.06
637.43	27569.17
637.57	27082.34
637.72	26838.92
637.87	27264.90
638.02	27035.53
638.17	27168.94
638.32	27117.45
638.46	26888.07
638.61	26796.79
638.76	26918.50
638.91	26937.23
639.06	26998.08
639.20	26969.99
639.35	27007.44
639.50	27229.79
639.65	26876.37
639.80	26967.65
639.94	26883.39
640.09	27199.37
640.24	26878.71
640.39	26923.18
640.54	26838.92
640.68	26735.94
640.83	26228.04
640.98	26412.95
641.13	26373.16
641.27	26962.97
641.42	26616.57
641.57	26644.66
641.72	26457.42
641.86	26513.59
642.01	26209.32
642.16	26586.15
642.31	26466.78
642.45	26349.75
642.60	26277.19
642.75	26242.09
642.90	26396.56
643.04	26300.60
643.19	26417.63
643.34	26749.98
643.48	26284.22
643.63	26773.39
643.78	26555.72
643.93	26352.09
644.07	26340.39
644.22	26270.17
644.37	26232.72
644.51	26333.37
644.66	26471.46
644.81	25905.05
644.95	26534.65
645.10	26087.61
645.25	26455.08
645.39	26539.33
645.54	26150.81
645.69	26253.79
645.83	26335.71
645.98	26244.43
646.13	26228.04
646.27	26178.89
646.42	26073.57
646.57	26401.24
646.71	26218.68
646.86	26047.82
647.00	26197.62
647.15	26190.59
647.30	26249.11
647.44	25535.24
647.59	26211.66
647.74	26026.76
647.88	25692.06
648.03	26066.55
648.17	26288.90
648.32	25778.66
648.47	26211.66
648.61	25830.15
648.76	25961.22
648.90	25656.95
649.05	25841.85
649.20	25759.94
649.34	25666.31
649.49	25298.85
649.63	25446.30
649.78	25549.29
649.92	25729.51
650.07	25584.40
650.21	25493.12
650.36	25708.44
650.51	25933.14
650.65	25799.73
650.80	25668.66
650.94	25556.31
651.09	25434.60
651.23	25263.74
651.38	25078.84
651.52	25397.15
651.67	25614.82
651.81	25671.00
651.96	25242.68
652.10	25488.43
652.25	25427.58
652.39	25741.21
652.54	25589.08
652.68	25565.67
652.83	25862.92
652.97	25575.03
653.12	25502.48
653.26	25628.87
653.41	25216.93
653.55	25352.68
653.70	25020.33
653.84	25057.78
653.99	25280.13
654.13	25160.76
654.27	25282.47
654.42	25432.26
654.56	25233.32
654.71	25340.98
654.85	25184.16
655.00	25277.79
655.14	25142.03
655.29	25118.63
655.43	25296.51
655.57	24910.32
655.72	25359.70
655.86	25041.39
656.01	25280.13
656.15	24886.92
656.30	25205.23
656.44	25013.31
656.58	25067.14
656.73	25160.76
656.87	24692.65
657.01	24919.68
657.16	24992.24
657.30	25048.41
657.45	25048.41
657.59	24889.26
657.73	24992.24
657.88	24954.79
658.02	24137.94
658.16	24561.58
658.31	24603.71
658.45	24404.77
658.60	24463.28
658.74	24704.35
658.88	24556.90
659.03	24533.50
659.17	24458.60
659.31	24556.90
659.46	24470.30
659.60	24573.28
659.74	24617.75
659.89	24276.04
660.03	24470.30
660.17	24456.26
660.32	24184.76
660.46	24180.07
660.60	24245.61
660.74	24051.34
660.89	24313.48
661.03	24095.82
661.17	23901.55
661.32	24482.00
661.46	23964.75
661.60	23920.28
661.74	23920.28
661.89	24573.28
662.03	24505.41
662.17	23967.09
662.31	23728.35
662.46	23784.52
662.60	23838.36
662.74	23868.78
662.88	23901.55
663.03	23541.11
663.17	23559.83
663.31	23852.40
663.45	23608.98
663.60	23718.99
663.74	23433.44
663.88	23651.11
664.02	23592.60
664.17	24016.24
664.31	23573.88
664.45	23379.61
664.59	23541.11
664.73	23711.97
664.88	23396.00
665.02	22796.82
665.16	22923.21
665.30	23255.56
665.44	23548.13
665.59	23349.18
665.73	23360.89
665.87	23194.71
666.01	22939.59
666.15	22808.52
666.29	23351.52
666.44	23269.61
666.58	22799.16
666.72	22771.07
666.86	23040.23
667.00	23426.42
667.14	22600.21
667.28	22700.86
667.43	22588.51
667.57	22785.12
667.71	22761.71
667.85	22724.26
667.99	22623.62
668.13	22707.88
668.27	22618.94
668.41	22848.31
668.56	22405.95
668.70	22565.10
668.84	22661.07
668.98	22518.29
669.12	22661.07
669.26	22473.82
669.40	22452.76
669.54	22347.44
669.68	22277.22
669.82	22263.18
669.96	22075.93
670.10	22029.12
670.25	22066.57
670.39	22162.53
670.53	22031.46
670.67	22066.57
670.81	22038.48
670.95	21722.51
671.09	21834.86
671.23	21921.46
671.37	22260.84
671.51	21862.94
671.65	21865.28
671.79	21797.41
671.93	21558.67
672.07	21975.29
672.21	21659.32
672.35	21462.71
672.49	21378.45
672.63	21476.76
672.77	21404.20
672.91	21575.06
673.05	21219.30
673.19	21282.49
673.33	21429.94
673.47	21261.43
673.61	21682.72
673.75	21451.01
673.89	21385.47
674.03	21191.21
674.17	21294.19
674.31	21163.12
674.45	20952.48
674.59	20919.71
674.73	20999.29
674.87	20814.38
675.01	20959.50
675.15	20769.91
675.29	20709.06
675.43	20673.95
675.56	20561.61
675.70	20596.71
675.84	20765.23
675.98	20222.23
676.12	20594.37
676.26	20519.48
676.40	20517.14
676.54	20531.18
676.68	20456.28
676.82	19751.78
676.96	20416.49
677.10	20390.75
677.23	19740.08
677.37	19932.00
677.51	19763.48
677.65	19934.34
677.79	19594.96
677.93	19665.18
678.07	19468.58
678.21	19431.13
678.34	19475.60
678.48	19337.51
678.62	19257.93
678.76	19449.85
678.90	19468.58
679.04	19775.19
679.18	19414.74
679.31	18897.49
679.45	19281.33
679.59	19257.93
679.73	18843.65
679.87	18724.29
680.00	19014.51
680.14	18625.98
680.28	18827.27
680.42	18775.78
680.56	18778.12
680.70	18775.78
680.83	18778.12
680.97	18609.60
681.11	18363.84
681.25	18616.62
681.39	18434.06
681.52	18497.25
681.66	18679.82
681.80	18246.82
681.94	18338.10
682.07	18368.52
682.21	18125.11
682.35	18075.96
682.49	17624.23
682.62	17937.87
682.76	17987.02
682.90	18029.15
683.04	18101.70
683.17	18019.78
683.31	17422.95
683.45	17891.06
683.59	17657.00
683.72	17420.61
683.86	17752.96
684.00	17109.32
684.13	17565.72
684.27	17212.30
684.41	17418.27
684.55	16975.91
684.68	17008.67
684.82	16872.92
684.96	16891.65
685.09	17095.27
685.23	16996.97
685.37	16636.53
685.50	17111.66
685.64	16945.48
685.78	16865.90
685.91	16802.71
686.05	16608.44
686.19	16849.52
686.32	16681.00
686.46	16727.81
686.60	16290.13
686.73	16573.33
686.87	16407.16
687.01	16145.02
687.14	16027.99
687.28	15861.81
687.42	15836.06
687.55	15971.82
687.69	15887.56
687.82	16070.12
687.96	15845.43
688.10	15826.70
688.23	15978.84
688.37	15714.36
688.50	15737.76
688.64	15693.29
688.78	15616.05
688.91	15634.78
689.05	15337.53
689.18	15508.39
689.32	15014.54
689.46	15328.17
689.59	14932.62
689.73	15211.14
689.86	15374.98
690.00	15314.13
690.13	14925.60
690.27	14822.61
690.41	14752.40
690.54	15157.31
690.68	15089.43
690.81	14885.81
690.95	15007.52
691.08	14785.16
691.22	14710.27
691.35	14565.15
691.49	14679.84
691.62	14380.25
691.76	14312.38
691.89	14277.27
692.03	14150.88
692.16	14202.37
692.30	14176.62
692.43	14125.13
692.57	13940.23
692.70	14029.17
692.84	13633.62
692.97	13907.46
693.11	14190.67
693.24	14038.53
693.38	13975.34
693.51	13893.42
693.65	13860.65
693.78	13628.94
693.92	13647.66
694.05	13516.59
694.19	13568.09
694.32	13535.32
694.45	13167.85
694.59	13380.84
694.72	13235.73
694.86	12947.84
694.99	12952.52
695.13	13163.17
695.26	13111.68
695.39	13022.74
695.53	12952.52
695.66	13022.74
695.80	13001.68
695.93	12908.05
696.07	12985.29
696.20	12837.84
696.33	12826.14
696.47	12531.23
696.60	12781.67
696.73	12587.40
696.87	12561.66
697.00	12643.57
697.14	12313.56
697.27	12301.86
697.40	12411.86
697.54	12215.26
697.67	12123.98
697.80	11784.60
697.94	12180.15
698.07	12063.12
698.21	11798.64
698.34	11988.22
698.47	12044.40
698.61	12002.27
698.74	11800.98
698.87	11934.39
699.01	11714.38
699.14	11606.72
699.27	11698.00
699.40	11786.94
699.54	11517.78
699.67	11419.47
699.80	11105.84
699.94	11400.75
700.07	11590.33
700.20	11162.01
700.34	10993.50
700.47	11206.48
700.60	11276.70
700.73	11269.68
700.87	11225.21
701.00	10867.11
701.13	10789.87
701.26	10927.96
701.40	10862.43
701.53	10864.77
701.66	10930.30
701.79	10745.40
701.93	10738.38
702.06	10939.66
702.19	10408.36
702.32	10476.24
702.46	10436.45
702.59	10335.81
702.72	10387.30
702.85	10249.21
702.99	10296.02
703.12	10356.87
703.25	10333.47
703.38	10181.33
703.51	10293.68
703.65	10370.91
703.78	10354.53
703.91	10059.62
704.04	10267.93
704.17	10050.26
704.31	9902.81
704.44	9966.00
704.57	9998.77
704.70	9902.81
704.83	9626.62
704.96	9572.79
705.10	9493.21
705.23	9514.28
>>>>>End Processed Spectral Data<<<<<
