SpectraSuite Data File
++++++++++++++++++++++++++++++++++++
Date: Fri Oct 18 13:58:01 GMT-05:00 2013
User: bianchi
Dark Spectrum Present: No
Reference Spectrum Present: No
Number of Sampled Component Spectra: 1
Spectrometers: USB2+H05261
Integration Time (usec): 50000 (USB2+H05261)
Spectra Averaged: 1 (USB2+H05261)
Boxcar Smoothing: 0 (USB2+H05261)
Correct for Electrical Dark: No (USB2+H05261)
Strobe/Lamp Enabled: No (USB2+H05261)
Correct for Detector Non-linearity: No (USB2+H05261)
Correct for Stray Light: No (USB2+H05261)
Number of Pixels in Processed Spectrum: 2048
>>>>>Begin Processed Spectral Data<<<<<
365.73	0.00
365.92	0.00
366.12	0.00
366.32	0.00
366.52	0.00
366.72	0.00
366.91	0.00
367.11	0.00
367.31	0.00
367.51	0.00
367.70	0.00
367.90	0.00
368.10	0.00
368.30	0.00
368.49	0.00
368.69	0.00
368.89	0.00
369.09	0.00
369.28	0.00
369.48	0.00
369.68	0.00
369.87	0.00
370.07	0.00
370.27	0.00
370.47	0.00
370.66	60.85
370.86	79.58
371.06	152.13
371.25	138.09
371.45	128.73
371.65	205.97
371.84	154.48
372.04	170.86
372.24	198.95
372.44	198.95
372.63	166.18
372.83	154.48
373.03	191.92
373.22	177.88
373.42	238.73
373.62	271.50
373.81	227.03
374.01	198.95
374.21	255.12
374.40	205.97
374.60	264.48
374.79	224.69
374.99	269.16
375.19	215.33
375.38	241.08
375.58	273.84
375.78	250.44
375.97	278.52
376.17	330.02
376.37	234.05
376.56	301.93
376.76	287.89
376.95	229.37
377.15	252.78
377.35	348.74
377.54	276.18
377.74	318.31
377.93	301.93
378.13	299.59
378.33	266.82
378.52	236.39
378.72	241.08
378.91	355.76
379.11	301.93
379.31	278.52
379.50	292.57
379.70	259.80
379.89	322.99
380.09	259.80
380.28	257.46
380.48	315.97
380.68	259.80
380.87	308.95
381.07	330.02
381.26	365.12
381.46	341.72
381.65	278.52
381.85	353.42
382.04	292.57
382.24	304.27
382.43	339.38
382.63	318.31
382.83	236.39
383.02	355.76
383.22	423.64
383.41	362.78
383.61	381.51
383.80	358.10
384.00	381.51
384.19	388.53
384.39	400.23
384.58	395.55
384.78	294.91
384.97	423.64
385.17	318.31
385.36	383.85
385.56	390.87
385.75	463.43
385.95	376.83
386.14	416.62
386.34	367.46
386.53	407.25
386.72	444.70
386.92	414.27
387.11	397.89
387.31	425.98
387.50	472.79
387.70	435.34
387.89	449.38
388.09	477.47
388.28	430.66
388.48	533.64
388.67	468.11
388.86	596.84
389.06	411.93
389.25	491.51
389.45	442.36
389.64	484.49
389.84	498.53
390.03	550.03
390.22	479.81
390.42	454.06
390.61	491.51
390.81	421.30
391.00	493.85
391.19	500.87
391.39	414.27
391.58	540.66
391.78	500.87
391.97	521.94
392.16	554.71
392.36	547.69
392.55	585.13
392.75	491.51
392.94	559.39
393.13	526.62
393.33	561.73
393.52	465.77
393.71	608.54
393.91	573.43
394.10	594.50
394.29	519.60
394.49	557.05
394.68	627.26
394.88	627.26
395.07	643.65
395.26	617.90
395.46	596.84
395.65	671.73
395.84	603.86
396.04	713.86
396.23	671.73
396.42	650.67
396.62	695.14
396.81	645.99
397.00	765.36
397.19	676.41
397.39	690.46
397.58	716.20
397.77	648.33
397.97	753.65
398.16	674.07
398.35	779.40
398.55	660.03
398.74	695.14
398.93	753.65
399.12	706.84
399.32	690.46
399.51	660.03
399.70	732.59
399.90	753.65
400.09	741.95
400.28	821.53
400.47	821.53
400.67	823.87
400.86	784.08
401.05	779.40
401.24	786.42
401.44	882.38
401.63	788.76
401.82	788.76
402.01	802.80
402.21	765.36
402.40	758.33
402.59	873.02
402.78	849.61
402.97	844.93
403.17	866.00
403.36	861.32
403.55	880.04
403.74	880.04
403.93	968.98
404.13	868.34
404.32	851.96
404.51	863.66
404.70	915.15
404.89	929.19
405.09	1032.18
405.28	938.55
405.47	919.83
405.66	990.05
405.85	987.71
406.05	926.85
406.24	980.68
406.43	968.98
406.62	929.19
406.81	1062.60
407.00	976.00
407.20	999.41
407.39	1076.65
407.58	1060.26
407.77	1046.22
407.96	1041.54
408.15	1071.97
408.34	1064.94
408.54	1074.31
408.73	1109.41
408.92	1179.63
409.11	1078.99
409.30	1163.25
409.49	1132.82
409.68	1165.59
409.87	1210.06
410.07	1221.76
410.26	1233.46
410.45	1158.57
410.64	1125.80
410.83	1221.76
411.02	1219.42
411.21	1221.76
411.40	1275.59
411.59	1289.64
411.78	1238.14
411.98	1203.04
412.17	1301.34
412.36	1273.25
412.55	1334.11
412.74	1303.68
412.93	1423.05
413.12	1289.64
413.31	1373.89
413.50	1341.13
413.69	1427.73
413.88	1460.49
414.07	1446.45
414.26	1390.28
414.45	1308.36
414.64	1369.21
414.83	1521.35
415.02	1462.83
415.22	1486.24
415.41	1617.31
415.60	1558.80
415.79	1469.86
415.98	1549.43
416.17	1682.85
416.36	1547.09
416.55	1589.22
416.74	1565.82
416.93	1575.18
417.12	1750.72
417.31	1633.69
417.50	1636.03
417.69	1640.72
417.88	1689.87
418.07	1631.35
418.26	1715.61
418.45	1760.08
418.64	1795.19
418.83	1778.81
419.02	1708.59
419.21	1849.02
419.39	1825.62
419.58	1898.17
419.77	1785.83
419.96	1785.83
420.15	1806.89
420.34	1816.26
420.53	1823.28
420.72	1888.81
420.91	2003.50
421.10	1935.62
421.29	1963.71
421.48	1923.92
421.67	1956.69
421.86	1926.26
422.05	2010.52
422.24	1935.62
422.43	1877.11
422.61	2022.22
422.80	1935.62
422.99	2047.97
423.18	1968.39
423.37	2017.54
423.56	2066.69
423.75	1998.82
423.94	2064.35
424.13	1853.70
424.32	1954.35
424.50	2010.52
424.69	2160.31
424.88	1982.43
425.07	1879.45
425.26	1982.43
425.45	1956.69
425.64	2033.93
425.83	2066.69
426.01	2087.76
426.20	2143.93
426.39	2022.22
426.58	2078.40
426.77	2073.71
426.96	2062.01
427.15	2054.99
427.33	2092.44
427.52	2090.10
427.71	2155.63
427.90	2129.89
428.09	2141.59
428.28	2232.87
428.46	2181.38
428.65	2258.62
428.84	2251.60
429.03	2272.66
429.22	2097.12
429.40	2284.36
429.59	2321.81
429.78	2169.68
429.97	2155.63
430.16	2148.61
430.34	2328.83
430.53	2340.54
430.72	2368.62
430.91	2314.79
431.10	2307.77
431.28	2380.32
431.47	2366.28
431.66	2417.77
431.85	2363.94
432.03	2366.28
432.22	2502.03
432.41	2406.07
432.60	2436.50
432.79	2424.80
432.97	2490.33
433.16	2530.12
433.35	2490.33
433.54	2516.08
433.72	2389.69
433.91	2530.12
434.10	2630.76
434.28	2511.39
434.47	2621.40
434.66	2572.25
434.85	2399.05
435.03	2668.21
435.22	2572.25
435.41	2686.94
435.59	2619.06
435.78	2677.57
435.97	2696.30
436.16	2750.13
436.34	2658.85
436.53	2675.23
436.72	2670.55
436.90	2602.68
437.09	2825.03
437.28	2708.00
437.46	2775.88
437.65	2801.62
437.84	2689.28
438.02	2808.64
438.21	2712.68
438.40	2729.06
438.58	2864.82
438.77	2895.24
438.96	2855.45
439.14	2881.20
439.33	3066.10
439.52	2942.05
439.70	2930.35
439.89	2995.89
440.08	2974.82
440.26	3087.17
440.45	3094.19
440.63	3066.10
440.82	3052.06
441.01	3054.40
441.19	3103.55
441.38	3173.77
441.57	3169.09
441.75	3206.53
441.94	3440.59
442.12	3272.07
442.31	3337.60
442.50	3311.86
442.68	3258.03
442.87	3368.03
443.05	3368.03
443.24	3494.42
443.43	3426.54
443.61	3384.41
443.80	3506.12
443.98	3342.28
444.17	3309.52
444.35	3522.51
444.54	3421.86
444.73	3485.06
444.91	3407.82
445.10	3407.82
445.28	3428.88
445.47	3384.41
445.65	3480.38
445.84	3328.24
446.02	3545.91
446.21	3393.78
446.39	3456.97
446.58	3475.70
446.77	3405.48
446.95	3272.07
447.14	3454.63
447.32	3679.32
447.51	3449.95
447.69	3548.25
447.88	3630.17
448.06	3531.87
448.25	3407.82
448.43	3667.62
448.62	3581.02
448.80	3449.95
448.99	3574.00
449.17	3698.05
449.36	3541.23
449.54	3566.98
449.73	3723.79
449.91	3641.87
450.10	3688.68
450.28	3904.01
450.46	3742.52
450.65	3684.00
450.83	3882.95
451.02	3639.53
451.20	3824.44
451.39	3740.18
451.57	3742.52
451.76	3726.13
451.94	3920.40
452.13	3918.06
452.31	3875.93
452.49	3777.62
452.68	3805.71
452.86	3896.99
453.05	3967.21
453.23	3983.59
453.42	3871.25
453.60	3758.90
453.78	3934.44
453.97	3873.59
454.15	3866.56
454.34	4009.34
454.52	3889.97
454.70	4135.73
454.89	3953.16
455.07	3934.44
455.26	3974.23
455.44	4098.28
455.62	3967.21
455.81	3981.25
455.99	4145.09
456.17	4184.88
456.36	4063.17
456.54	4257.43
456.73	4269.14
456.91	4318.29
457.09	4402.55
457.28	4383.82
457.46	4311.27
457.64	4346.37
457.83	4259.78
458.01	4231.69
458.19	4409.57
458.38	4411.91
458.56	4444.68
458.74	4430.63
458.93	4292.54
459.11	4498.51
459.29	4592.13
459.48	4533.62
459.66	4559.36
459.84	4493.83
460.03	4557.02
460.21	4381.48
460.39	4606.17
460.57	4610.86
460.76	4585.11
460.94	4636.60
461.12	4636.60
461.31	4688.09
461.49	4657.67
461.67	4674.05
461.85	4645.96
462.04	4613.20
462.22	5160.88
462.40	4861.29
462.59	4926.83
462.77	4755.97
462.95	4760.65
463.13	4833.21
463.32	4870.65
463.50	4631.92
463.68	4945.55
463.86	4861.29
464.05	4884.70
464.23	4833.21
464.41	4835.55
464.59	4945.55
464.78	4990.02
464.96	4950.23
465.14	4870.65
465.32	5039.17
465.50	5128.11
465.69	5107.05
465.87	4908.10
466.05	4964.28
466.23	5102.37
466.41	4954.91
466.60	5170.24
466.78	5043.85
466.96	5116.41
467.14	4987.68
467.32	5097.69
467.51	5174.92
467.69	5027.47
467.87	5179.61
468.05	5294.29
468.23	5121.09
468.41	5125.77
468.60	5235.78
468.78	5282.59
468.96	5088.32
469.14	5305.99
469.32	5341.10
469.50	5203.01
469.69	5193.65
469.87	5394.93
470.05	5547.07
470.23	5291.95
470.41	5420.68
470.59	5584.52
470.77	5460.47
470.95	5432.38
471.14	5696.86
471.32	5444.09
471.50	5605.58
471.68	5741.33
471.86	5582.18
472.04	5586.86
472.22	5905.17
472.40	5570.48
472.58	5750.70
472.77	5722.61
472.95	5654.73
473.13	6094.76
473.31	5746.02
473.49	5891.13
473.67	5757.72
473.85	5973.05
474.03	5980.07
474.21	6038.58
474.39	6244.55
474.57	6059.65
474.75	6125.18
474.93	6076.03
475.12	6129.86
475.30	6279.66
475.48	6179.01
475.66	6120.50
475.84	6303.06
476.02	6396.68
476.20	6363.92
476.38	6539.46
476.56	6532.44
476.74	6612.01
476.92	6567.54
477.10	6619.04
477.28	6633.08
477.46	6541.80
477.64	6635.42
477.82	6885.86
478.00	6881.18
478.18	6691.59
478.36	6822.66
478.54	7138.63
478.72	7080.12
478.90	7262.68
479.08	7262.68
479.26	7405.46
479.44	7241.62
479.62	7286.09
479.80	7253.32
479.98	7419.50
480.16	7531.84
480.34	7672.28
480.52	7756.54
480.70	7616.10
480.88	7489.71
481.06	7882.92
481.24	7730.79
481.41	7726.11
481.59	7976.55
481.77	7913.35
481.95	7974.21
482.13	8140.38
482.31	8086.55
482.49	8208.26
482.67	8191.88
482.85	8409.54
483.03	8423.59
483.21	8748.92
483.39	8475.08
483.57	8444.65
483.74	8753.60
483.92	8678.71
484.10	8622.53
484.28	8980.64
484.46	9210.01
484.64	9329.38
484.82	8849.57
485.00	9170.22
485.18	9324.69
485.35	9483.85
485.53	9350.44
485.71	9432.36
485.89	9722.59
486.07	9734.29
486.25	9638.33
486.43	9715.56
486.61	9710.88
486.78	9879.40
486.96	10064.30
487.14	9923.87
487.32	9966.00
487.50	10171.97
487.68	10162.61
487.85	10356.87
488.03	10464.54
488.21	10707.95
488.39	10745.40
488.57	10806.25
488.75	10773.49
488.92	10832.00
489.10	10925.62
489.28	11176.06
489.46	11164.36
489.64	11000.52
489.81	11426.50
489.99	11475.65
490.17	11494.37
490.35	11531.82
490.53	11501.39
490.70	11611.40
490.88	11712.04
491.06	11857.15
491.24	11880.56
491.41	11822.05
491.59	12194.19
491.77	12271.43
491.95	12285.47
492.13	12222.28
492.30	12594.42
492.48	12306.54
492.66	12437.61
492.84	12327.60
493.01	12587.40
493.19	12610.81
493.37	12727.83
493.54	12989.97
493.72	12849.54
493.90	12940.82
494.08	12681.02
494.25	13228.71
494.43	13287.22
494.61	13357.44
494.79	13434.68
494.96	13296.58
495.14	13600.85
495.32	13642.98
495.49	13724.90
495.67	13671.07
495.85	13935.55
496.02	13755.33
496.20	13958.96
496.38	14122.79
496.55	14019.81
496.73	14562.81
496.91	14225.78
497.09	14270.25
497.26	14445.79
497.44	14539.41
497.62	14455.15
497.79	14553.45
497.97	14649.41
498.14	14745.38
498.32	14824.95
498.50	14895.17
498.67	14808.57
498.85	14920.92
499.03	15133.90
499.20	15091.77
499.38	15250.93
499.56	15161.99
499.73	15442.85
499.91	15426.47
500.08	15461.58
500.26	15283.70
500.44	15452.22
500.61	15800.96
500.79	15690.95
500.97	15756.49
501.14	15852.45
501.32	15929.69
501.49	15864.15
501.67	15831.38
501.84	16126.29
502.02	16273.74
502.20	16072.46
502.37	16358.00
502.55	15971.82
502.72	16294.81
502.90	16233.96
503.07	16428.22
503.25	16145.02
503.43	16276.09
503.60	16615.46
503.78	16269.06
503.95	16676.32
504.13	16753.55
504.30	16681.00
504.48	16673.98
504.65	16851.86
504.83	16964.20
505.01	17121.02
505.18	17132.72
505.36	17357.41
505.53	16865.90
505.71	17142.08
505.88	17554.02
506.06	17032.08
506.23	17146.76
506.41	17366.78
506.58	17397.20
506.76	17561.04
506.93	17584.44
507.11	17362.09
507.28	17525.93
507.46	17743.60
507.63	17853.61
507.81	18078.30
507.98	17617.21
508.16	17837.22
508.33	17898.08
508.50	18033.83
508.68	18071.28
508.85	18155.54
509.03	18473.85
509.20	18504.28
509.38	18298.31
509.55	18302.99
509.73	18363.84
509.90	18483.21
510.08	18305.33
510.25	18272.56
510.42	18609.60
510.60	18728.97
510.77	18567.47
510.95	18881.10
511.12	18754.71
511.30	18710.24
511.47	18782.80
511.64	18904.51
511.82	19154.94
511.99	19066.00
512.17	19262.61
512.34	19058.98
512.51	19435.81
512.69	18956.00
512.86	19094.09
513.04	19391.34
513.21	19489.64
513.38	19445.17
513.56	19463.90
513.73	19791.57
513.90	19686.25
514.08	19232.18
514.25	19915.62
514.43	19796.25
514.60	19852.42
514.77	19742.42
514.95	19857.10
515.12	19819.66
515.29	19609.01
515.47	19908.60
515.64	20456.28
515.81	20177.76
515.99	20292.44
516.16	20613.10
516.33	20503.09
516.51	20341.60
516.68	20425.86
516.85	20432.88
517.03	20421.17
517.20	20360.32
517.37	20786.30
517.54	20346.28
517.72	20854.17
517.89	20723.10
518.06	20723.10
518.24	20783.96
518.41	20608.42
518.58	20751.19
518.75	20886.94
518.93	21359.73
519.10	21137.38
519.27	21245.04
519.45	21102.27
519.62	21413.56
519.79	20861.19
519.96	21432.29
520.14	21528.25
520.31	21177.17
520.48	21603.14
520.65	21324.62
520.83	21701.45
521.00	21584.42
521.17	21476.76
521.34	21584.42
521.52	21516.54
521.69	21731.87
521.86	22012.74
522.03	22059.55
522.20	21888.69
522.38	21783.37
522.55	21769.32
522.72	21893.37
522.89	22115.72
523.07	22258.49
523.24	22045.51
523.41	21905.07
523.58	22171.89
523.75	22382.54
523.92	22132.11
524.10	22216.36
524.27	22328.71
524.44	22286.58
524.61	22508.93
524.78	22719.58
524.96	22628.30
525.13	22441.06
525.30	22677.45
525.47	22642.34
525.64	23318.76
525.81	22668.09
525.98	23051.94
526.16	22583.83
526.33	22986.40
526.50	22855.33
526.67	22698.52
526.84	22918.53
527.01	22850.65
527.18	23276.63
527.36	23372.59
527.53	23150.24
527.70	23353.87
527.87	23681.54
528.04	23171.30
528.21	23218.11
528.38	23295.35
528.55	23428.76
528.72	23335.14
528.89	23513.02
529.07	23751.76
529.24	23749.42
529.41	23775.16
529.58	23763.46
529.75	23639.41
529.92	23601.96
530.09	23676.86
530.26	23831.33
530.43	23836.02
530.60	23852.40
530.77	23704.95
530.94	23828.99
531.11	23800.91
531.28	23632.39
531.46	24004.53
531.63	23779.84
531.80	24299.44
531.97	24332.21
532.14	24247.95
532.31	24065.39
532.48	23873.46
532.65	23971.77
532.82	23981.13
532.99	24123.90
533.16	24301.78
533.33	24194.12
533.50	24896.28
533.67	24458.60
533.84	24357.96
534.01	24388.38
534.18	24519.45
534.35	24779.25
534.52	24795.64
534.69	24627.12
534.86	25010.96
535.03	24592.01
535.20	25139.69
535.37	25181.82
535.54	24807.34
535.71	24947.77
535.88	25202.89
536.05	24933.73
536.22	25088.20
536.38	25025.01
536.55	25116.29
536.72	25043.73
536.89	25057.78
537.06	24947.77
537.23	25378.43
537.40	25142.03
537.57	24957.13
537.74	25317.57
537.91	25343.32
538.08	25268.42
538.25	25167.78
538.42	25415.88
538.59	25752.91
538.75	25598.44
538.92	25544.61
539.09	25633.55
539.26	25582.06
539.43	25481.41
539.60	25816.11
539.77	25600.78
539.94	25757.60
540.11	25434.60
540.28	26202.30
540.44	25685.04
540.61	25546.95
540.78	25848.88
540.95	25724.83
541.12	25872.28
541.29	25750.57
541.46	25879.30
541.62	25687.38
541.79	26274.85
541.96	25797.38
542.13	25970.58
542.30	26078.25
542.47	25888.67
542.63	26029.10
542.80	25942.50
542.97	26829.56
543.14	26506.57
543.31	26462.10
543.48	26445.71
543.64	26532.31
543.81	26539.33
543.98	26780.41
544.15	26742.96
544.32	26625.93
544.48	26838.92
544.65	26918.50
544.82	26513.59
544.99	26263.15
545.16	26515.93
545.32	26785.09
545.49	26820.20
545.66	27192.34
545.83	26946.59
546.00	27314.05
546.16	27281.28
546.33	26724.24
546.50	26808.50
546.67	26661.04
546.83	26890.41
547.00	27061.27
547.17	26855.31
547.34	27159.58
547.50	27351.50
547.67	27562.15
547.84	27105.74
548.00	27557.47
548.17	27580.87
548.34	27264.90
548.51	27520.02
548.67	27489.59
548.84	27866.42
549.01	27676.83
549.18	27250.86
549.34	27431.08
549.51	27262.56
549.68	27625.34
549.84	27307.03
550.01	27363.20
550.18	26995.74
550.34	27831.31
550.51	27496.61
550.68	27747.05
550.84	27662.79
551.01	27789.18
551.18	27386.61
551.34	27740.03
551.51	27653.43
551.68	27971.74
551.84	27627.68
552.01	27903.87
552.18	28229.20
552.34	27737.69
552.51	27838.33
552.68	27803.22
552.84	27871.10
553.01	28006.85
553.18	28098.13
553.34	28030.26
553.51	28056.00
553.67	28428.15
553.84	28451.55
554.01	28367.29
554.17	28084.09
554.34	28091.11
554.51	28077.07
554.67	28332.18
554.84	28339.21
555.00	28109.83
555.17	28201.11
555.33	28238.56
555.50	28177.71
555.67	28276.01
555.83	28634.11
556.00	28114.52
556.16	28491.34
556.33	28329.84
556.50	28173.03
556.66	28556.88
556.83	28460.91
556.99	28943.06
557.16	28631.77
557.32	28842.42
557.49	28725.39
557.65	28498.36
557.82	28849.44
557.98	28538.15
558.15	28533.47
558.32	28980.51
558.48	28643.48
558.65	28840.08
558.81	28622.41
558.98	28926.68
559.14	28685.61
559.31	28503.04
559.47	28809.65
559.64	28999.24
559.80	28950.09
559.97	28762.84
560.13	28863.49
560.30	28987.53
560.46	28975.83
560.63	28868.17
560.79	28793.27
560.96	28933.70
561.12	29081.16
561.29	28933.70
561.45	28819.02
561.61	28821.36
561.78	28889.23
561.94	29221.59
562.11	29434.58
562.27	29198.18
562.44	29305.85
562.60	29118.60
562.77	29137.33
562.93	29144.35
563.10	29057.75
563.26	29202.86
563.42	29329.25
563.59	28940.72
563.75	29017.96
563.92	29266.06
564.08	29085.84
564.24	29057.75
564.41	29205.20
564.57	29287.12
564.74	29193.50
564.90	29223.93
565.07	29230.95
565.23	29345.64
565.39	29371.38
565.56	29226.27
565.72	29663.95
565.88	29404.15
566.05	29357.34
566.21	29476.71
566.38	29713.10
566.54	29294.14
566.70	29369.04
566.87	29869.92
567.03	29535.22
567.19	29647.57
567.36	29624.16
567.52	29507.13
567.68	29317.55
567.85	29516.50
568.01	29570.33
568.17	29298.83
568.34	29839.49
568.50	29371.38
568.66	29792.68
568.83	29963.54
568.99	29399.47
569.15	29324.57
569.32	29586.71
569.48	29352.66
569.64	29809.06
569.81	29589.05
569.97	29926.09
570.13	29745.87
570.30	29652.25
570.46	29713.10
570.62	29537.56
570.78	29647.57
570.95	29610.12
571.11	29802.04
571.27	29254.36
571.43	29123.29
571.60	29532.88
571.76	29462.66
571.92	29486.07
572.09	29876.94
572.25	29642.88
572.41	29872.26
572.57	29631.18
572.74	29710.76
572.90	29493.09
573.06	29872.26
573.22	29773.95
573.38	29645.23
573.55	29640.54
573.71	30237.38
573.87	30426.96
574.03	30251.42
574.20	29762.25
574.36	29771.61
574.52	29947.15
574.68	30024.39
574.84	29865.24
575.01	30017.37
575.17	29926.09
575.33	29696.72
575.49	29685.01
575.65	30202.27
575.82	29912.05
575.98	29776.30
576.14	29788.00
576.30	29834.81
576.46	29942.47
576.62	30099.29
576.79	29603.10
576.95	29975.24
577.11	30054.82
577.27	29968.22
577.43	30167.16
577.59	30024.39
577.75	30113.33
577.92	29802.04
578.08	29682.67
578.24	29624.16
578.40	30078.22
578.56	29965.88
578.72	30347.39
578.88	30284.19
579.04	30061.84
579.21	29890.98
579.37	30026.73
579.53	29881.62
579.69	30029.07
579.85	30089.93
580.01	29703.74
580.17	29921.41
580.33	30354.41
580.49	30103.97
580.65	30471.43
580.82	30024.39
580.98	30483.14
581.14	30319.30
581.30	30232.70
581.46	29736.51
581.62	30010.35
581.78	29666.29
581.94	29979.92
582.10	30162.48
582.26	29923.75
582.42	29928.43
582.58	30221.00
582.74	30038.44
582.90	29900.34
583.06	30139.08
583.22	29984.60
583.38	30031.41
583.54	29926.09
583.70	29989.28
583.86	30167.16
584.02	29813.74
584.18	30015.03
584.34	30340.36
584.50	30164.82
584.66	30108.65
584.82	29579.69
584.98	30286.53
585.14	30221.00
585.30	30064.18
585.46	29942.47
585.62	30260.79
585.78	30319.30
585.94	30174.19
586.10	30323.98
586.26	29731.83
586.42	30181.21
586.58	30597.82
586.74	30338.02
586.90	30373.13
587.06	30298.23
587.22	30050.14
587.38	30279.51
587.54	30452.71
587.70	30749.96
587.86	30298.23
588.02	30401.22
588.18	30771.02
588.34	30309.94
588.49	30347.39
588.65	30169.51
588.81	30113.33
588.97	30162.48
589.13	29898.00
589.29	29977.58
589.45	30221.00
589.61	30424.62
589.77	30630.59
589.93	30345.05
590.08	30403.56
590.24	30316.96
590.40	30401.22
590.56	30359.09
590.72	30433.99
590.88	30309.94
591.04	30326.32
591.20	30651.66
591.35	30656.34
591.51	31026.14
591.67	30775.70
591.83	30754.64
591.99	30761.66
592.15	30412.92
592.31	30490.16
592.46	30548.67
592.62	30422.28
592.78	30387.18
592.94	30558.03
593.10	30515.90
593.26	30700.81
593.41	30565.06
593.57	30808.47
593.73	30897.41
593.89	30939.54
594.05	30218.66
594.20	30443.35
594.36	30735.92
594.52	30110.99
594.68	30403.56
594.84	30532.29
594.99	30675.06
595.15	30726.55
595.31	30913.80
595.47	30841.24
595.62	30827.20
595.78	30677.40
595.94	30794.43
596.10	31012.10
596.25	30497.18
596.41	30274.83
596.57	30677.40
596.73	30672.72
596.88	30735.92
597.04	30691.44
597.20	31063.59
597.36	30761.66
597.51	30611.87
597.67	30375.47
597.83	30892.73
597.99	30590.80
598.14	30693.79
598.30	30490.16
598.46	30735.92
598.61	30799.11
598.77	30740.60
598.93	31063.59
599.09	31094.02
599.24	30616.55
599.40	31257.85
599.56	31054.23
599.71	30918.48
599.87	30494.84
600.03	30986.35
600.18	31047.21
600.34	30684.42
600.50	30740.60
600.65	30693.79
600.81	30899.75
600.97	30967.63
601.12	30792.09
601.28	31091.68
601.44	30768.68
601.59	30864.64
601.75	30689.10
601.91	30705.49
602.06	30651.66
602.22	30881.03
602.37	30637.61
602.53	30756.98
602.69	30799.11
602.84	30672.72
603.00	30806.13
603.16	30881.03
603.31	31040.18
603.47	30806.13
603.62	30806.13
603.78	30747.62
603.94	30443.35
604.09	30588.46
604.25	30719.53
604.40	30796.77
604.56	30724.21
604.71	30939.54
604.87	30665.70
605.03	31201.68
605.18	30670.38
605.34	30611.87
605.49	30670.38
605.65	30892.73
605.80	30600.16
605.96	30380.15
606.12	30581.44
606.27	30920.82
606.43	30448.03
606.58	30834.22
606.74	30719.53
606.89	31159.55
607.05	30984.01
607.20	30632.93
607.36	31094.02
607.51	30801.45
607.67	30609.53
607.82	30712.51
607.98	30845.92
608.13	30623.57
608.29	30253.76
608.44	30604.84
608.60	30642.29
608.75	30597.82
608.91	31021.46
609.06	30167.16
609.22	30639.95
609.37	30101.63
609.53	30384.83
609.68	30424.62
609.84	30331.00
609.99	30572.08
610.15	30651.66
610.30	30541.65
610.46	30590.80
610.61	30338.02
610.76	30696.13
610.92	30569.74
611.07	30499.52
611.23	30609.53
611.38	30110.99
611.54	30148.44
611.69	30094.61
611.84	30368.45
612.00	30000.99
612.15	30600.16
612.31	30246.74
612.46	30441.01
612.62	30433.99
612.77	30408.24
612.92	30436.33
613.08	30122.69
613.23	30457.39
613.39	30258.45
613.54	30408.24
613.69	30274.83
613.85	30195.25
614.00	29982.26
614.15	30288.87
614.31	29982.26
614.46	30366.11
614.62	30197.59
614.77	30455.05
614.92	30057.16
615.08	30059.50
615.23	30286.53
615.38	30239.72
615.54	29640.54
615.69	29919.07
615.84	30174.19
616.00	30359.09
616.15	29902.68
616.30	30490.16
616.46	30169.51
616.61	30408.24
616.76	30380.15
616.92	30139.08
617.07	30288.87
617.22	29659.27
617.37	29898.00
617.53	29933.11
617.68	29797.36
617.83	29869.92
617.99	29699.06
618.14	29806.72
618.29	30029.07
618.45	29912.05
618.60	29759.91
618.75	29619.48
618.90	29813.74
619.06	30118.01
619.21	29750.55
619.36	29450.96
619.51	29385.43
619.67	29516.50
619.82	29383.09
619.97	29663.95
620.12	29689.70
620.28	29605.44
620.43	29577.35
620.58	29916.73
620.73	29851.19
620.89	29193.50
621.04	29813.74
621.19	29460.32
621.34	29502.45
621.49	29137.33
621.65	29125.63
621.80	29544.58
621.95	29261.38
622.10	29502.45
622.25	29305.85
622.41	29071.79
622.56	29273.08
622.71	29575.01
622.86	29830.13
623.01	29177.12
623.16	29282.44
623.32	29158.39
623.47	29509.47
623.62	29282.44
623.77	29469.69
623.92	29420.53
624.07	29149.03
624.23	29069.45
624.38	29226.27
624.53	29198.18
624.68	29390.11
624.83	29338.62
624.98	29366.70
625.13	29071.79
625.29	29294.14
625.44	29446.28
625.59	28779.23
625.74	28687.95
625.89	28760.50
626.04	28980.51
626.19	29064.77
626.34	28875.19
626.49	28826.04
626.65	28924.34
626.80	29226.27
626.95	28947.75
627.10	29198.18
627.25	28814.34
627.40	28802.63
627.55	28893.91
627.70	28758.16
627.85	28697.31
628.00	28414.10
628.15	28804.97
628.30	28451.55
628.45	28594.32
628.60	28521.77
628.76	28311.12
628.91	28952.43
629.06	28692.63
629.21	28793.27
629.36	28716.03
629.51	28308.78
629.66	28582.62
629.81	28386.02
629.96	28713.69
630.11	28203.46
630.26	28308.78
630.41	28325.16
630.56	28371.97
630.71	28418.78
630.86	28580.28
631.01	28512.41
631.16	28641.14
631.31	28460.91
631.46	27920.25
631.61	28435.17
631.76	28339.21
631.91	28315.80
632.06	28283.03
632.21	27969.40
632.36	28348.57
632.51	28095.79
632.66	28369.63
632.81	28273.67
632.96	28168.35
633.10	28261.97
633.25	28189.41
633.40	28135.58
633.55	28238.56
633.70	27885.14
633.85	28126.22
634.00	27817.27
634.15	27950.68
634.30	27742.37
634.45	27938.97
634.60	27775.14
634.75	28187.07
634.90	28105.15
635.05	27630.02
635.19	27924.93
635.34	28084.09
635.49	27950.68
635.64	27938.97
635.79	28130.90
635.94	27850.03
636.09	27835.99
636.24	27981.10
636.39	27775.14
636.53	27447.46
636.68	27576.19
636.83	27566.83
636.98	27803.22
637.13	27950.68
637.28	28048.98
637.43	27931.95
637.57	27662.79
637.72	27538.74
637.87	27758.75
638.02	27852.38
638.17	27466.19
638.32	27679.18
638.46	27641.73
638.61	27190.00
638.76	27098.72
638.91	27283.62
639.06	27597.26
639.20	27316.39
639.35	27405.33
639.50	27388.95
639.65	27861.74
639.80	27831.31
639.94	27534.06
640.09	27702.58
640.24	27274.26
640.39	27255.54
640.54	27138.51
640.68	26932.54
640.83	26829.56
640.98	27049.57
641.13	27049.57
641.27	27192.34
641.42	27042.55
641.57	26969.99
641.72	27147.87
641.86	27019.14
642.01	27030.85
642.16	26890.41
642.31	27047.23
642.45	26955.95
642.60	26632.96
642.75	26508.91
642.90	26843.60
643.04	26782.75
643.19	26778.07
643.34	26820.20
643.48	26904.46
643.63	26733.60
643.78	26867.01
643.93	26897.44
644.07	27154.90
644.22	27171.28
644.37	26962.97
644.51	26881.05
644.66	26869.35
644.81	26712.53
644.95	26731.26
645.10	26799.13
645.25	26487.84
645.39	26642.32
645.54	26789.77
645.69	26733.60
645.83	26628.27
645.98	26972.33
646.13	26611.89
646.27	26876.37
646.42	26834.24
646.57	26452.73
646.71	26574.44
646.86	26668.06
647.00	26401.24
647.15	26675.09
647.30	26101.65
647.44	26284.22
647.59	26391.88
647.74	26288.90
647.88	26614.23
648.03	26522.95
648.17	26728.92
648.32	26387.20
648.47	26558.06
648.61	26546.36
648.76	26328.69
648.90	26410.60
649.05	26471.46
649.20	26118.04
649.34	26368.48
649.49	26169.53
649.63	25841.85
649.78	26068.89
649.92	26010.37
650.07	26232.72
650.21	25993.99
650.36	26015.05
650.51	26265.49
650.65	26429.33
650.80	26331.03
650.94	26352.09
651.09	25998.67
651.23	25874.62
651.38	25907.39
651.52	26134.42
651.67	25769.30
651.81	25888.67
651.96	25949.52
652.10	26115.70
652.25	26169.53
652.39	26019.74
652.54	25759.94
652.68	25865.26
652.83	25919.09
652.97	26349.75
653.12	25902.71
653.26	25568.01
653.41	25879.30
653.55	25621.84
653.70	25715.47
653.84	25565.67
653.99	25729.51
654.13	25738.87
654.27	25638.23
654.42	25919.09
654.56	25631.21
654.71	25640.57
654.85	25628.87
655.00	25937.82
655.14	25355.02
655.29	25874.62
655.43	25640.57
655.57	25736.53
655.72	25617.16
655.86	25757.60
656.01	25436.94
656.15	25212.25
656.30	25535.24
656.44	25467.37
656.58	25516.52
656.73	25343.32
656.87	25233.32
657.01	25621.84
657.16	25586.74
657.30	25551.63
657.45	25401.83
657.59	25450.99
657.73	25568.01
657.88	25116.29
658.02	25017.99
658.16	25324.60
658.31	25067.14
658.45	25111.61
658.60	24884.58
658.74	24940.75
658.88	25029.69
659.03	24936.07
659.17	25057.78
659.31	24940.75
659.46	25020.33
659.60	25235.66
659.74	24973.52
659.89	24875.21
660.03	24893.94
660.17	24837.76
660.32	24980.54
660.46	24599.03
660.60	24474.98
660.74	24519.45
660.89	24666.91
661.03	24357.96
661.17	24526.47
661.32	24709.04
661.46	24823.72
661.60	24580.31
661.74	24526.47
661.89	24786.27
662.03	24479.66
662.17	24439.87
662.31	24517.11
662.46	24372.00
662.60	24409.45
662.74	23929.64
662.88	24334.55
663.03	24304.12
663.17	24217.52
663.31	23810.27
663.45	24233.91
663.60	24116.88
663.74	23950.70
663.88	24261.99
664.02	23943.68
664.17	24023.26
664.31	23967.09
664.45	23927.30
664.59	23878.15
664.73	23838.36
664.88	24065.39
665.02	24002.19
665.16	23971.77
665.30	23620.69
665.44	23929.64
665.59	23445.15
665.73	23564.51
665.87	23529.41
666.01	23447.49
666.15	23742.39
666.29	23410.04
666.44	23391.31
666.58	23414.72
666.72	23365.57
666.86	23433.44
667.00	23590.26
667.14	23197.05
667.28	23381.95
667.43	23566.85
667.57	23187.69
667.71	23229.82
667.85	23192.37
667.99	23054.28
668.13	23175.98
668.27	23447.49
668.41	23255.56
668.56	22895.12
668.70	23133.86
668.84	23021.51
668.98	23232.16
669.12	22939.59
669.26	22986.40
669.40	22965.34
669.54	22951.29
669.68	22761.71
669.82	22522.98
669.96	22707.88
670.10	22424.67
670.25	22391.91
670.39	22363.82
670.53	22632.98
670.67	22621.28
670.81	22618.94
670.95	22560.42
671.09	22625.96
671.23	22590.85
671.37	22221.05
671.51	22487.87
671.65	22380.20
671.79	22438.72
671.93	22073.59
672.07	22408.29
672.21	22232.75
672.35	22043.17
672.49	21619.53
672.63	21846.56
672.77	21766.98
672.91	21755.28
673.05	21895.71
673.19	21561.02
673.33	21678.04
673.47	21823.16
673.61	21930.82
673.75	21500.16
673.89	22104.02
674.03	21493.14
674.17	21759.96
674.31	21703.79
674.45	21483.78
674.59	21472.07
674.73	21427.60
674.87	21223.98
675.01	21366.75
675.15	21282.49
675.29	21036.74
675.43	21109.29
675.56	21057.80
675.70	21039.08
675.84	20774.60
675.98	20683.31
676.12	21111.63
676.26	21113.97
676.40	21046.10
676.54	20652.89
676.68	20800.34
676.82	20414.15
676.96	20676.29
677.10	20421.17
677.23	20545.22
677.37	20257.34
677.51	20432.88
677.65	20147.33
677.79	20030.30
677.93	20184.78
678.07	20318.19
678.21	19857.10
678.34	20032.65
678.48	20016.26
678.62	19983.49
678.76	19704.97
678.90	19967.11
679.04	19793.91
679.18	19793.91
679.31	19456.87
679.45	19534.11
679.59	19185.37
679.73	19215.80
679.87	19377.30
680.00	19206.44
680.14	19229.84
680.28	19096.43
680.42	18965.36
680.56	19623.05
680.70	19082.39
680.83	19080.05
680.97	19194.73
681.11	19250.91
681.25	19023.87
681.39	18778.12
681.52	18904.51
681.66	18623.64
681.80	18572.15
681.94	18815.57
682.07	18670.45
682.21	18551.09
682.35	18637.69
682.49	18520.66
682.62	18008.08
682.76	18207.03
682.90	18242.14
683.04	18293.63
683.17	18050.21
683.31	18398.95
683.45	18211.71
683.59	17827.86
683.72	18162.56
683.86	17905.10
684.00	17820.84
684.13	17596.15
684.27	17905.10
684.41	17694.45
684.55	17635.94
684.68	17607.85
684.82	17163.15
684.96	17277.83
685.09	17502.53
685.23	17151.45
685.37	17092.93
685.50	17149.11
685.64	17205.28
685.78	17214.64
685.91	17209.96
686.05	17331.67
686.19	16767.60
686.32	17008.67
686.46	16702.06
686.60	16669.30
686.73	16608.44
686.87	16875.26
687.01	16585.04
687.14	16547.59
687.28	16297.15
687.42	16093.52
687.55	16376.73
687.69	16189.49
687.82	16503.12
687.96	16325.24
688.10	16088.84
688.23	16432.90
688.37	16112.25
688.50	16259.70
688.64	15873.51
688.78	15740.10
688.91	15845.43
689.05	15999.90
689.18	15742.44
689.32	15208.80
689.46	15594.99
689.59	15594.99
689.73	15513.07
689.86	15433.49
690.00	14993.47
690.13	15602.01
690.27	15227.53
690.41	15318.81
690.54	15257.95
690.68	15166.67
690.81	15384.34
690.95	15267.31
691.08	15007.52
691.22	15044.96
691.35	15152.63
691.49	15293.06
691.62	14815.59
691.76	14895.17
691.89	14626.01
692.03	14398.98
692.16	14497.28
692.30	14532.39
692.43	14530.05
692.57	14408.34
692.70	14366.21
692.84	13970.66
692.97	14368.55
693.11	14338.12
693.24	14396.64
693.38	14092.37
693.51	13928.53
693.65	14083.00
693.78	13977.68
693.92	14115.77
694.05	13760.01
694.19	13729.58
694.32	13729.58
694.45	13624.26
694.59	13540.00
694.72	13331.69
694.86	13369.14
694.99	13144.45
695.13	13383.18
695.26	13369.14
695.39	13205.30
695.53	13481.49
695.66	13287.22
695.80	13298.92
695.93	13069.55
696.07	13195.94
696.20	13294.24
696.33	13254.45
696.47	12898.69
696.60	12936.14
696.73	12816.77
696.87	13008.70
697.00	12830.82
697.14	12566.34
697.27	12596.76
697.40	12423.56
697.54	12510.16
697.67	12262.07
697.80	12402.50
697.94	12035.03
698.07	12114.61
698.21	12135.68
698.34	12133.34
698.47	12215.26
698.61	12238.66
698.74	12142.70
698.87	12180.15
699.01	11943.75
699.14	12035.03
699.27	11922.69
699.40	11960.14
699.54	11564.59
699.67	11653.53
699.80	11590.33
699.94	11763.53
700.07	11583.31
700.20	11576.29
700.34	11550.54
700.47	11389.05
700.60	11435.86
700.73	11559.91
700.87	11269.68
701.00	11192.44
701.13	11314.15
701.26	11396.07
701.40	11040.31
701.53	11201.80
701.66	11059.03
701.79	10860.09
701.93	10874.13
702.06	10513.69
702.19	10848.38
702.32	10569.86
702.46	10871.79
702.59	10677.52
702.72	10504.32
702.85	10675.18
702.99	10415.38
703.12	10523.05
703.25	10406.02
703.38	10567.52
703.51	10431.77
703.65	10567.52
703.78	10265.59
703.91	10366.23
704.04	10286.65
704.17	10115.80
704.31	10260.91
704.44	10118.14
704.57	9926.21
704.70	9968.34
704.83	9881.74
704.96	9792.80
705.10	9928.55
705.23	9764.72
>>>>>End Processed Spectral Data<<<<<
