SpectraSuite Data File
++++++++++++++++++++++++++++++++++++
Date: Fri Oct 18 13:58:39 GMT-05:00 2013
User: bianchi
Dark Spectrum Present: No
Reference Spectrum Present: No
Number of Sampled Component Spectra: 1
Spectrometers: USB2+H05261
Integration Time (usec): 50000 (USB2+H05261)
Spectra Averaged: 1 (USB2+H05261)
Boxcar Smoothing: 0 (USB2+H05261)
Correct for Electrical Dark: No (USB2+H05261)
Strobe/Lamp Enabled: No (USB2+H05261)
Correct for Detector Non-linearity: No (USB2+H05261)
Correct for Stray Light: No (USB2+H05261)
Number of Pixels in Processed Spectrum: 2048
>>>>>Begin Processed Spectral Data<<<<<
365.73	0.00
365.92	0.00
366.12	0.00
366.32	0.00
366.52	0.00
366.72	0.00
366.91	0.00
367.11	0.00
367.31	0.00
367.51	0.00
367.70	0.00
367.90	0.00
368.10	0.00
368.30	0.00
368.49	0.00
368.69	0.00
368.89	0.00
369.09	0.00
369.28	0.00
369.48	0.00
369.68	0.00
369.87	0.00
370.07	0.00
370.27	0.00
370.47	0.00
370.66	88.94
370.86	159.16
371.06	84.26
371.25	95.96
371.45	154.48
371.65	149.79
371.84	138.09
372.04	84.26
372.24	180.22
372.44	128.73
372.63	154.48
372.83	145.11
373.03	215.33
373.22	205.97
373.42	210.65
373.62	234.05
373.81	177.88
374.01	187.24
374.21	241.08
374.40	234.05
374.60	283.20
374.79	198.95
374.99	215.33
375.19	266.82
375.38	287.89
375.58	210.65
375.78	306.61
375.97	266.82
376.17	245.76
376.37	287.89
376.56	245.76
376.76	322.99
376.95	238.73
377.15	208.31
377.35	234.05
377.54	266.82
377.74	255.12
377.93	231.71
378.13	238.73
378.33	311.29
378.52	245.76
378.72	330.02
378.91	299.59
379.11	238.73
379.31	276.18
379.50	280.86
379.70	318.31
379.89	294.91
380.09	231.71
380.28	198.95
380.48	334.70
380.68	297.25
380.87	245.76
381.07	339.38
381.26	353.42
381.46	353.42
381.65	402.57
381.85	353.42
382.04	372.15
382.24	325.33
382.43	402.57
382.63	271.50
382.83	348.74
383.02	360.44
383.22	325.33
383.41	390.87
383.61	451.72
383.80	454.06
384.00	365.12
384.19	369.80
384.39	425.98
384.58	367.46
384.78	327.68
384.97	388.53
385.17	393.21
385.36	428.32
385.56	390.87
385.75	402.57
385.95	437.68
386.14	353.42
386.34	451.72
386.53	454.06
386.72	423.64
386.92	456.40
387.11	433.00
387.31	421.30
387.50	369.80
387.70	423.64
387.89	440.02
388.09	442.36
388.28	505.56
388.48	428.32
388.67	395.55
388.86	454.06
389.06	442.36
389.25	454.06
389.45	437.68
389.64	376.83
389.84	390.87
390.03	449.38
390.22	507.90
390.42	489.17
390.61	479.81
390.81	479.81
391.00	500.87
391.19	454.06
391.39	479.81
391.58	533.64
391.78	503.22
391.97	491.51
392.16	477.47
392.36	538.32
392.55	568.75
392.75	592.16
392.94	486.83
393.13	557.05
393.33	608.54
393.52	503.22
393.71	592.16
393.91	552.37
394.10	547.69
394.29	416.62
394.49	526.62
394.68	573.43
394.88	568.75
395.07	573.43
395.26	543.00
395.46	657.69
395.65	587.47
395.84	641.31
396.04	720.88
396.23	636.63
396.42	622.58
396.62	683.44
396.81	702.16
397.00	678.76
397.19	671.73
397.39	706.84
397.58	650.67
397.77	603.86
397.97	760.67
398.16	751.31
398.35	777.06
398.55	748.97
398.74	711.52
398.93	690.46
399.12	767.70
399.32	725.57
399.51	688.12
399.70	837.91
399.90	690.46
400.09	741.95
400.28	746.63
400.47	765.36
400.67	746.63
400.86	734.93
401.05	784.08
401.24	753.65
401.44	821.53
401.63	732.59
401.82	854.30
402.01	826.21
402.21	723.23
402.40	828.55
402.59	807.48
402.78	809.83
402.97	821.53
403.17	833.23
403.36	889.40
403.55	870.68
403.74	999.41
403.93	877.70
404.13	880.04
404.32	919.83
404.51	880.04
404.70	889.40
404.89	929.19
405.09	901.11
405.28	1025.15
405.47	924.51
405.66	926.85
405.85	966.64
406.05	1020.47
406.24	1001.75
406.43	964.30
406.62	1083.67
406.81	997.07
407.00	971.32
407.20	1022.81
407.39	1055.58
407.58	994.73
407.77	1050.90
407.96	1064.94
408.15	1048.56
408.34	1090.69
408.54	1081.33
408.73	1144.52
408.92	1022.81
409.11	1102.39
409.30	1100.05
409.49	1146.86
409.68	1151.54
409.87	1210.06
410.07	1214.74
410.26	1217.08
410.45	1268.57
410.64	1198.35
410.83	1142.18
411.02	1221.76
411.21	1263.89
411.40	1296.66
411.59	1299.00
411.78	1261.55
411.98	1163.25
412.17	1256.87
412.36	1299.00
412.55	1270.91
412.74	1371.55
412.93	1427.73
413.12	1315.38
413.31	1322.40
413.50	1310.70
413.69	1369.21
413.88	1416.02
414.07	1359.85
414.26	1394.96
414.45	1430.07
414.64	1542.41
414.83	1474.54
415.02	1455.81
415.22	1565.82
415.41	1579.86
415.60	1509.65
415.79	1535.39
415.98	1535.39
416.17	1535.39
416.36	1554.12
416.55	1570.50
416.74	1666.46
416.93	1598.59
417.12	1708.59
417.31	1696.89
417.50	1696.89
417.69	1741.36
417.88	1703.91
418.07	1774.13
418.26	1776.47
418.45	1825.62
418.64	1823.28
418.83	1727.32
419.02	1874.77
419.21	1846.68
419.39	1734.34
419.58	1715.61
419.77	1760.08
419.96	1802.21
420.15	1675.82
420.34	1853.70
420.53	1851.36
420.72	1886.47
420.91	1783.49
421.10	1909.88
421.29	1966.05
421.48	1867.75
421.67	2090.10
421.86	1909.88
422.05	1851.36
422.24	1973.07
422.43	1900.52
422.61	1921.58
422.80	1961.37
422.99	1942.64
423.18	2111.16
423.37	1977.75
423.56	2017.54
423.75	2005.84
423.94	1977.75
424.13	1886.47
424.32	1888.81
424.50	2001.16
424.69	2136.91
424.88	2094.78
425.07	1970.73
425.26	1987.11
425.45	2057.33
425.64	2012.86
425.83	2031.58
426.01	1991.80
426.20	2010.52
426.39	2148.61
426.58	2008.18
426.77	2071.37
426.96	2087.76
427.15	2019.88
427.33	2087.76
427.52	2092.44
427.71	2125.21
427.90	2043.29
428.09	2160.31
428.28	2139.25
428.46	2183.72
428.65	2050.31
428.84	2232.87
429.03	2307.77
429.22	2141.59
429.40	2174.36
429.59	2176.70
429.78	2183.72
429.97	2115.84
430.16	2228.19
430.34	2286.70
430.53	2328.83
430.72	2345.22
430.91	2162.66
431.10	2349.90
431.28	2363.94
431.47	2417.77
431.66	2406.07
431.85	2399.05
432.03	2396.71
432.22	2466.92
432.41	2396.71
432.60	2502.03
432.79	2335.85
432.97	2523.10
433.16	2438.84
433.35	2359.26
433.54	2450.54
433.72	2504.37
433.91	2438.84
434.10	2537.14
434.28	2389.69
434.47	2562.89
434.66	2588.63
434.85	2537.14
435.03	2567.57
435.22	2569.91
435.41	2670.55
435.59	2516.08
435.78	2640.12
435.97	2642.46
436.16	2588.63
436.34	2562.89
436.53	2581.61
436.72	2691.62
436.90	2654.17
437.09	2825.03
437.28	2698.64
437.46	2724.38
437.65	2764.17
437.84	2792.26
438.02	2782.90
438.21	2644.81
438.40	2623.74
438.58	2801.62
438.77	2857.79
438.96	2846.09
439.14	2810.98
439.33	2998.23
439.52	2946.73
439.70	2829.71
439.89	3030.99
440.08	2972.48
440.26	2993.55
440.45	3056.74
440.63	3082.49
440.82	3122.27
441.01	3075.46
441.19	3112.91
441.38	3143.34
441.57	3157.38
441.75	3159.72
441.94	3290.79
442.12	3234.62
442.31	3178.45
442.50	3199.51
442.68	3335.26
442.87	3361.01
443.05	3421.86
443.24	3304.84
443.43	3279.09
443.61	3438.25
443.80	3412.50
443.98	3337.60
444.17	3218.24
444.35	3419.52
444.54	3524.85
444.73	3503.78
444.91	3342.28
445.10	3389.10
445.28	3435.91
445.47	3393.78
445.65	3461.65
445.84	3513.14
446.02	3510.80
446.21	3417.18
446.39	3456.97
446.58	3442.93
446.77	3461.65
446.95	3421.86
447.14	3435.91
447.32	3431.23
447.51	3513.14
447.69	3407.82
447.88	3538.89
448.06	3426.54
448.25	3403.14
448.43	3499.10
448.62	3499.10
448.80	3559.95
448.99	3566.98
449.17	3557.61
449.36	3468.67
449.54	3566.98
449.73	3602.08
449.91	3698.05
450.10	3763.58
450.28	3681.66
450.46	3684.00
450.65	3782.31
450.83	3676.98
451.02	3756.56
451.20	3768.26
451.39	3857.20
451.57	3597.40
451.76	3726.13
451.94	3843.16
452.13	3763.58
452.31	3845.50
452.49	3777.62
452.68	3775.28
452.86	3716.77
453.05	3941.46
453.23	3885.29
453.42	3882.95
453.60	3798.69
453.78	3950.82
453.97	3911.04
454.15	3850.18
454.34	3845.50
454.52	3892.31
454.70	4060.83
454.89	4119.34
455.07	4028.06
455.26	3978.91
455.44	4081.89
455.62	4018.70
455.81	4177.86
455.99	4002.32
456.17	4095.94
456.36	4067.85
456.54	4074.87
456.73	4278.50
456.91	4301.90
457.09	4238.71
457.28	4421.27
457.46	4182.54
457.64	4395.53
457.83	4386.16
458.01	4355.74
458.19	4545.32
458.38	4264.46
458.56	4400.21
458.74	4390.84
458.93	4437.66
459.11	4362.76
459.29	4346.37
459.48	4409.57
459.66	4451.70
459.84	4402.55
460.03	4512.55
460.21	4561.70
460.39	4484.47
460.57	4596.81
460.76	4463.40
460.94	4589.79
461.12	4505.53
461.31	4379.14
461.49	4547.66
461.67	4575.75
461.85	4713.84
462.04	4638.94
462.22	4770.01
462.40	4795.76
462.59	4664.69
462.77	4664.69
462.95	4823.84
463.13	4711.50
463.32	4765.33
463.50	4847.25
463.68	4908.10
463.86	4905.76
464.05	4695.11
464.23	4751.29
464.41	4865.97
464.59	4812.14
464.78	4784.06
464.96	4807.46
465.14	4854.27
465.32	5036.83
465.50	4887.04
465.69	5118.75
465.87	4905.76
466.05	4957.25
466.23	4968.96
466.41	5039.17
466.60	5184.29
466.78	5060.24
466.96	4884.70
467.14	4959.60
467.32	4891.72
467.51	5011.09
467.69	4959.60
467.87	5057.90
468.05	5083.64
468.23	5095.35
468.41	5064.92
468.60	5149.18
468.78	5188.97
468.96	5303.65
469.14	5163.22
469.32	5174.92
469.50	5191.31
469.69	5238.12
469.87	5310.68
470.05	5289.61
470.23	5369.19
470.41	5385.57
470.59	5502.60
470.77	5315.36
470.95	5313.02
471.14	5500.26
471.32	5308.34
471.50	5584.52
471.68	5458.13
471.86	5579.84
472.04	5469.83
472.22	5579.84
472.40	5575.16
472.58	5633.67
472.77	5638.35
472.95	5844.32
473.13	6001.13
473.31	5673.46
473.49	5729.63
473.67	5682.82
473.85	5753.04
474.03	5961.34
474.21	6005.81
474.39	5951.98
474.57	6031.56
474.75	6136.88
474.93	6188.38
475.12	6188.38
475.30	6080.71
475.48	6047.94
475.66	6349.87
475.84	6104.12
476.02	6211.78
476.20	6342.85
476.38	6225.82
476.56	6555.84
476.74	6492.65
476.92	6462.22
477.10	6366.26
477.28	6792.23
477.46	6593.29
477.64	6750.10
477.82	6773.51
478.00	7056.72
478.18	6855.43
478.36	6995.86
478.54	6881.18
478.72	7073.10
478.90	7068.42
479.08	7169.06
479.26	7047.35
479.44	7164.38
479.62	7325.88
479.80	7368.01
479.98	7363.33
480.16	7480.35
480.34	7330.56
480.52	7604.40
480.70	7442.90
480.88	7438.22
481.06	7646.53
481.24	7698.02
481.41	7506.10
481.59	7901.65
481.77	8002.29
481.95	7836.11
482.13	8018.68
482.31	7976.55
482.49	8243.37
482.67	8053.78
482.85	8212.94
483.03	8496.14
483.21	8505.51
483.39	8538.27
483.57	8730.20
483.74	8786.37
483.92	8613.17
484.10	8779.35
484.28	8990.00
484.46	8966.59
484.64	9067.24
484.82	9018.08
485.00	9048.51
485.18	9167.88
485.35	9392.57
485.53	9217.03
485.71	9411.29
485.89	9626.62
486.07	9518.96
486.25	9547.05
486.43	9626.62
486.61	9563.43
486.78	9685.14
486.96	9942.60
487.14	9682.80
487.32	9987.07
487.50	10064.30
487.68	10326.44
487.85	10359.21
488.03	10466.88
488.21	10553.48
488.39	10700.93
488.57	10415.38
488.75	10626.03
488.92	10743.06
489.10	10958.39
489.28	10841.36
489.46	10885.83
489.64	10799.23
489.81	11183.08
489.99	11166.70
490.17	11201.80
490.35	11407.77
490.53	11477.99
490.70	11573.95
490.88	11389.05
491.06	11513.10
491.24	11623.10
491.41	11737.79
491.59	12079.50
491.77	11833.75
491.95	12182.49
492.13	12205.89
492.30	12245.68
492.48	12311.22
492.66	12362.71
492.84	12362.71
493.01	12346.33
493.19	12498.46
493.37	12699.75
493.54	12404.84
493.72	12662.30
493.90	12915.08
494.08	12929.12
494.25	13078.91
494.43	12865.92
494.61	13322.33
494.79	13259.13
494.96	13184.24
495.14	13437.02
495.32	13664.05
495.49	13596.17
495.67	13303.60
495.85	13537.66
496.02	13870.01
496.20	13905.12
496.38	13586.81
496.55	13774.05
496.73	14047.90
496.91	13724.90
497.09	14061.94
497.26	14129.81
497.44	14087.68
497.62	14228.12
497.79	14548.77
497.97	14420.04
498.14	14434.08
498.32	15030.92
498.50	14803.89
498.67	14869.42
498.85	14700.90
499.03	14913.89
499.20	14658.78
499.38	15063.69
499.56	15082.41
499.73	15204.12
499.91	15016.88
500.08	15063.69
500.26	15056.67
500.44	15339.87
500.61	15229.87
500.79	15599.67
500.97	15548.18
501.14	15784.57
501.32	15819.68
501.49	15634.78
501.67	15538.82
501.84	15646.48
502.02	15815.00
502.20	16058.42
502.37	16208.21
502.55	16088.84
502.72	16088.84
502.90	16093.52
503.07	15964.79
503.25	16283.11
503.43	16126.29
503.60	16439.92
503.78	16240.98
503.95	16325.24
504.13	16369.71
504.30	16444.60
504.48	16367.37
504.65	16727.81
504.83	16828.45
505.01	17216.98
505.18	16844.84
505.36	16952.50
505.53	16837.81
505.71	16926.75
505.88	16870.58
506.06	16922.07
506.23	16973.56
506.41	17326.99
506.58	17090.59
506.76	17116.34
506.93	17298.90
507.11	17057.82
507.28	17207.62
507.46	17474.44
507.63	17654.66
507.81	17776.37
507.98	17350.39
508.16	17757.64
508.33	17617.21
508.50	17729.56
508.68	17790.41
508.85	17626.57
509.03	17881.69
509.20	18153.20
509.38	18366.18
509.55	18118.09
509.73	18333.42
509.90	18160.22
510.08	18310.01
510.25	18230.43
510.42	18633.00
510.60	18368.52
510.77	18436.40
510.95	18462.15
511.12	18581.51
511.30	18808.54
511.47	18530.02
511.64	18724.29
511.82	18845.99
511.99	18871.74
512.17	18951.32
512.34	19000.47
512.51	18939.62
512.69	19339.85
512.86	18956.00
513.04	19337.51
513.21	19150.26
513.38	19360.91
513.56	19276.65
513.73	19269.63
513.90	19328.14
514.08	19396.02
514.25	19328.14
514.43	19559.86
514.60	19363.25
514.77	19812.63
514.95	19894.55
515.12	19793.91
515.29	19503.68
515.47	20051.37
515.64	19807.95
515.81	19611.35
515.99	20084.14
516.16	20133.29
516.33	20147.33
516.51	20467.98
516.68	19995.20
516.85	20407.13
517.03	20130.95
517.20	20325.21
517.37	20374.36
517.54	20643.52
517.72	20713.74
517.89	20313.51
518.06	20414.15
518.24	20496.07
518.41	20353.30
518.58	20592.03
518.75	20596.71
518.93	20711.40
519.10	20891.62
519.27	20840.13
519.45	20945.45
519.62	20695.02
519.79	20786.30
519.96	21048.44
520.14	21151.42
520.31	21020.35
520.48	21458.03
520.65	21305.90
520.83	21312.92
521.00	21443.99
521.17	21226.32
521.34	21104.61
521.52	21546.97
521.69	21476.76
521.86	21565.70
522.03	21675.70
522.20	21575.06
522.38	21757.62
522.55	22052.53
522.72	21848.90
522.89	21734.21
523.07	22017.42
523.24	22185.94
523.41	21926.14
523.58	21628.89
523.75	22293.60
523.92	21745.92
524.10	21802.09
524.27	22171.89
524.44	22279.56
524.61	22483.19
524.78	22242.11
524.96	21982.31
525.13	22466.80
525.30	22668.09
525.47	22478.50
525.64	22216.36
525.81	22686.81
525.98	22391.91
526.16	22483.19
526.33	22628.30
526.50	22628.30
526.67	22525.32
526.84	22443.40
527.01	22293.60
527.18	22717.24
527.36	22691.49
527.53	22855.33
527.70	23009.81
527.87	23295.35
528.04	23108.11
528.21	23126.83
528.38	22602.55
528.55	23440.47
528.72	23112.79
528.89	23208.75
529.07	23171.30
529.24	23388.97
529.41	23407.70
529.58	23211.09
529.75	23426.42
529.92	23173.64
530.09	23587.92
530.26	23175.98
530.43	23943.68
530.60	23283.65
530.77	23372.59
530.94	23592.60
531.11	23353.87
531.28	23473.23
531.46	23676.86
531.63	23775.16
531.80	23861.76
531.97	23733.03
532.14	24023.26
532.31	23730.69
532.48	23931.98
532.65	24119.22
532.82	23950.70
532.99	24130.92
533.16	23917.93
533.33	24187.10
533.50	24594.35
533.67	24086.45
533.84	24025.60
534.01	24332.21
534.18	24308.80
534.35	24608.39
534.52	24290.08
534.69	24437.53
534.86	24493.71
535.03	24006.87
535.20	24568.60
535.37	24266.67
535.54	24828.40
535.71	24493.71
535.88	24507.75
536.05	24332.21
536.22	25013.31
536.38	24800.32
536.55	24802.66
536.72	24762.87
536.89	24624.78
537.06	24687.97
537.23	24795.64
537.40	24875.21
537.57	25130.33
537.74	24924.36
537.91	25156.08
538.08	24884.58
538.25	25001.60
538.42	24961.81
538.59	24631.80
538.75	24973.52
538.92	24999.26
539.09	25467.37
539.26	25252.04
539.43	25294.17
539.60	25474.39
539.77	25219.27
539.94	25661.63
540.11	25160.76
540.28	25322.26
540.44	25476.73
540.61	25275.45
540.78	25205.23
540.95	25603.12
541.12	25575.03
541.29	25385.45
541.46	25500.14
541.62	25408.86
541.79	25572.69
541.96	25373.75
542.13	25663.97
542.30	25560.99
542.47	26029.10
542.63	25846.54
542.80	26017.40
542.97	26281.88
543.14	26017.40
543.31	25926.11
543.48	26192.94
543.64	26464.44
543.81	26480.82
543.98	26066.55
544.15	26342.73
544.32	26389.54
544.48	26579.12
544.65	26319.32
544.82	26548.70
544.99	25806.75
545.16	26096.97
545.32	25883.98
545.49	26665.72
545.66	26625.93
545.83	26525.29
546.00	26469.12
546.16	26700.83
546.33	26370.82
546.50	26115.70
546.67	26677.43
546.83	26438.69
547.00	26745.30
547.17	26761.69
547.34	26658.70
547.50	26890.41
547.67	26679.77
547.84	26511.25
548.00	26625.93
548.17	27365.54
548.34	26768.71
548.51	26969.99
548.67	27033.19
548.84	27187.66
549.01	26967.65
549.18	27096.38
549.34	27241.50
549.51	27122.13
549.68	27042.55
549.84	27016.80
550.01	26850.63
550.18	26958.29
550.34	27087.02
550.51	27435.76
550.68	26937.23
550.84	27335.12
551.01	27344.48
551.18	26930.20
551.34	27091.70
551.51	27229.79
551.68	27370.22
551.84	27335.12
552.01	27274.26
552.18	27676.83
552.34	27447.46
552.51	27449.80
552.68	27367.88
552.84	27363.20
553.01	27807.90
553.18	27328.10
553.34	27332.78
553.51	27674.49
553.67	27789.18
553.84	27976.42
554.01	27754.07
554.17	27812.59
554.34	27777.48
554.51	27587.89
554.67	27896.85
554.84	27800.88
555.00	27934.29
555.17	27810.25
555.33	27936.63
555.50	27852.38
555.67	27665.13
555.83	27810.25
556.00	27981.10
556.16	28208.14
556.33	27960.04
556.50	28093.45
556.66	28264.31
556.83	27782.16
556.99	28397.72
557.16	28175.37
557.32	28603.69
557.49	28545.17
557.65	27908.55
557.82	27957.70
557.98	28102.81
558.15	28261.97
558.32	28198.77
558.48	28276.01
558.65	27941.32
558.81	28432.83
558.98	28353.25
559.14	28364.95
559.31	28386.02
559.47	28456.23
559.64	28332.18
559.80	28512.41
559.97	28313.46
560.13	28407.08
560.30	28809.65
560.46	28627.09
560.63	28451.55
560.79	28730.08
560.96	28627.09
561.12	28318.14
561.29	28664.54
561.45	28252.61
561.61	28449.21
561.78	28669.22
561.94	28755.82
562.11	28760.50
562.27	28886.89
562.44	28755.82
562.60	28718.37
562.77	28348.57
562.93	28538.15
563.10	29191.16
563.26	28662.20
563.42	28954.77
563.59	28933.70
563.75	28648.16
563.92	28842.42
564.08	28676.24
564.24	28673.90
564.41	28678.58
564.57	28575.60
564.74	29029.66
564.90	28863.49
565.07	29034.35
565.23	28882.21
565.39	28704.33
565.56	28786.25
565.72	28425.81
565.88	28713.69
566.05	28730.08
566.21	28985.19
566.38	28617.73
566.54	28940.72
566.70	29312.87
566.87	29266.06
567.03	29039.03
567.19	29422.87
567.36	28931.36
567.52	28870.51
567.68	29221.59
567.85	28865.83
568.01	29109.24
568.17	29127.97
568.34	29193.50
568.50	29415.85
568.66	29369.04
568.83	29200.52
568.99	29401.81
569.15	29399.47
569.32	29188.82
569.48	29221.59
569.64	29422.87
569.81	29092.86
569.97	29322.23
570.13	29401.81
570.30	29244.99
570.46	29364.36
570.62	29233.29
570.78	29198.18
570.95	29228.61
571.11	29607.78
571.27	28767.52
571.43	29003.92
571.60	29202.86
571.76	28889.23
571.92	29198.18
572.09	29465.00
572.25	29275.42
572.41	29443.94
572.57	29076.48
572.74	29483.73
572.90	29261.38
573.06	29500.11
573.22	29366.70
573.38	29177.12
573.55	29626.50
573.71	29685.01
573.87	29551.60
574.03	29425.22
574.20	29266.06
574.36	29223.93
574.52	29443.94
574.68	29177.12
574.84	29104.56
575.01	29439.26
575.17	29411.17
575.33	29448.62
575.49	29153.71
575.65	29677.99
575.82	29708.42
575.98	29677.99
576.14	29240.31
576.30	29713.10
576.46	29453.30
576.62	29333.93
576.79	29347.98
576.95	29249.67
577.11	29401.81
577.27	29446.28
577.43	29408.83
577.59	29544.58
577.75	29577.35
577.92	29563.31
578.08	29326.91
578.24	29006.26
578.40	29593.73
578.56	29514.16
578.72	29338.62
578.88	29954.18
579.04	29603.10
579.21	29486.07
579.37	29284.78
579.53	29549.26
579.69	29149.03
579.85	29490.75
580.01	29762.25
580.17	29205.20
580.33	29465.00
580.49	29696.72
580.65	29619.48
580.82	29457.98
580.98	29706.08
581.14	29830.13
581.30	29713.10
581.46	29600.76
581.62	29708.42
581.78	29666.29
581.94	29493.09
582.10	29373.72
582.26	29560.97
582.42	29425.22
582.58	29762.25
582.74	29724.80
582.90	29764.59
583.06	29514.16
583.22	29397.13
583.38	29949.50
583.54	29633.52
583.70	29717.78
583.86	29600.76
584.02	29362.02
584.18	29535.22
584.34	30000.99
584.50	29586.71
584.66	29551.60
584.82	29638.20
584.98	29860.55
585.14	29692.04
585.30	29240.31
585.46	29654.59
585.62	29642.88
585.78	29846.51
585.94	29291.80
586.10	29645.23
586.26	29504.79
586.42	29965.88
586.58	29944.81
586.74	29638.20
586.90	29376.06
587.06	29816.08
587.22	29851.19
587.38	29432.24
587.54	29792.68
587.70	30078.22
587.86	29560.97
588.02	29668.63
588.18	29993.97
588.34	30202.27
588.49	29624.16
588.65	29895.66
588.81	29802.04
588.97	29776.30
589.13	29839.49
589.29	30143.76
589.45	29755.23
589.61	29589.05
589.77	29984.60
589.93	30050.14
590.08	30373.13
590.24	30017.37
590.40	29813.74
590.56	30080.56
590.72	29729.48
590.88	29607.78
591.04	29949.50
591.20	30134.40
591.35	30249.08
591.51	29907.37
591.67	29905.02
591.83	30106.31
591.99	29956.52
592.15	30190.57
592.31	30019.71
592.46	30132.06
592.62	29558.63
592.78	29940.13
592.94	29965.88
593.10	29654.59
593.26	30218.66
593.41	30192.91
593.57	29977.58
593.73	29731.83
593.89	30277.17
594.05	30223.34
594.20	29839.49
594.36	30183.55
594.52	29958.86
594.68	30209.29
594.84	29949.50
594.99	30050.14
595.15	30249.08
595.31	30164.82
595.47	30525.27
595.62	30216.32
595.78	30110.99
595.94	29916.73
596.10	30068.86
596.25	30197.59
596.41	29956.52
596.57	29888.64
596.73	30005.67
596.88	29633.52
597.04	29909.71
597.20	30377.81
597.36	30244.40
597.51	30120.35
597.67	30352.07
597.83	30036.09
597.99	30450.37
598.14	29820.77
598.30	30120.35
598.46	30022.05
598.61	30309.94
598.77	29902.68
598.93	30012.69
599.09	30078.22
599.24	30749.96
599.40	30567.40
599.56	30101.63
599.71	30363.77
599.87	30286.53
600.03	30263.13
600.18	30096.95
600.34	30202.27
600.50	30281.85
600.65	30309.94
600.81	29886.30
600.97	30323.98
601.12	30307.60
601.28	30293.55
601.44	30478.46
601.59	30525.27
601.75	30270.15
601.91	30543.99
602.06	30169.51
602.22	30532.29
602.37	30302.92
602.53	30171.85
602.69	30834.22
602.84	30595.48
603.00	30501.86
603.16	30478.46
603.31	30466.75
603.47	30277.17
603.62	30108.65
603.78	30309.94
603.94	29986.94
604.09	30174.19
604.25	29993.97
604.40	30108.65
604.56	30232.70
604.71	30499.52
604.87	29933.11
605.03	30057.16
605.18	30387.18
605.34	30167.16
605.49	30157.80
605.65	30052.48
605.80	29898.00
605.96	30436.33
606.12	30029.07
606.27	30363.77
606.43	29963.54
606.58	30485.48
606.74	30396.54
606.89	30043.12
607.05	30717.19
607.20	30272.49
607.36	30127.38
607.51	30307.60
607.67	29493.09
607.82	29738.85
607.98	30008.01
608.13	30012.69
608.29	30024.39
608.44	30656.34
608.60	29944.81
608.75	30164.82
608.91	30206.95
609.06	30162.48
609.22	30195.25
609.37	29722.46
609.53	29956.52
609.68	29696.72
609.84	29916.73
609.99	30085.25
610.15	29759.91
610.30	29963.54
610.46	30286.53
610.61	30118.01
610.76	30216.32
610.92	29785.66
611.07	29689.70
611.23	29598.41
611.38	29860.55
611.54	29443.94
611.69	29443.94
611.84	29759.91
612.00	29699.06
612.15	29504.79
612.31	29687.36
612.46	29914.39
612.62	30022.05
612.77	29631.18
612.92	29872.26
613.08	29947.15
613.23	29418.19
613.39	29294.14
613.54	29202.86
613.69	29743.53
613.85	29509.47
614.00	29450.96
614.15	29722.46
614.31	29743.53
614.46	29628.84
614.62	29549.26
614.77	29558.63
614.92	29500.11
615.08	30089.93
615.23	29486.07
615.38	29631.18
615.54	29455.64
615.69	29408.83
615.84	29626.50
616.00	29776.30
616.15	29195.84
616.30	29610.12
616.46	29142.01
616.61	29652.25
616.76	29670.97
616.92	29184.14
617.07	29504.79
617.22	29280.10
617.37	29287.12
617.53	29216.91
617.68	29481.39
617.83	29436.92
617.99	29347.98
618.14	29336.27
618.29	29392.45
618.45	29193.50
618.60	29284.78
618.75	29387.77
618.90	29343.30
619.06	29270.74
619.21	29404.15
619.36	29289.46
619.51	29029.66
619.67	28577.94
619.82	29090.52
619.97	29259.04
620.12	29142.01
620.28	28877.53
620.43	28870.51
620.58	28954.77
620.73	28947.75
620.89	29277.76
621.04	29462.66
621.19	29020.30
621.34	29549.26
621.49	28919.66
621.65	28889.23
621.80	29331.59
621.95	28285.37
622.10	29013.28
622.25	28601.35
622.41	28891.57
622.56	28900.94
622.71	28914.98
622.86	29099.88
623.01	28748.80
623.16	28753.48
623.32	28575.60
623.47	28830.72
623.62	28865.83
623.77	28636.45
623.92	28797.95
624.07	28769.86
624.23	28975.83
624.38	29109.24
624.53	28947.75
624.68	28804.97
624.83	28549.85
624.98	29102.22
625.13	28470.28
625.29	28748.80
625.44	28423.47
625.59	28762.84
625.74	28313.46
625.89	28048.98
626.04	28641.14
626.19	28357.93
626.34	28313.46
626.49	28261.97
626.65	28276.01
626.80	28332.18
626.95	28203.46
627.10	28709.01
627.25	28521.77
627.40	28149.62
627.55	28329.84
627.70	28327.50
627.85	28348.57
628.00	28292.40
628.15	28554.54
628.30	27885.14
628.45	28091.11
628.60	28395.38
628.76	28037.28
628.91	28063.02
629.06	28168.35
629.21	28318.14
629.36	28233.88
629.51	28489.00
629.66	27955.36
629.81	27749.39
629.96	27847.69
630.11	27725.99
630.26	27899.19
630.41	27632.36
630.56	27604.28
630.71	27913.23
630.86	27997.49
631.01	28077.07
631.16	28034.94
631.31	27711.94
631.46	27927.27
631.61	27569.17
631.76	27454.48
631.91	27442.78
632.06	27262.56
632.21	27660.45
632.36	27927.27
632.51	27857.06
632.66	27672.15
632.81	27534.06
632.96	27447.46
633.10	27747.05
633.25	27971.74
633.40	27831.31
633.55	27814.93
633.70	27639.39
633.85	27613.64
634.00	27765.78
634.15	27442.78
634.30	27496.61
634.45	27737.69
634.60	27414.69
634.75	27875.78
634.90	27515.34
635.05	27536.40
635.19	27669.81
635.34	28079.41
635.49	27901.53
635.64	27679.18
635.79	27552.79
635.94	27295.33
636.09	27419.38
636.24	26930.20
636.39	26995.74
636.53	27360.86
636.68	27080.00
636.83	27243.84
636.98	26885.73
637.13	27594.92
637.28	27351.50
637.43	27234.47
637.57	27513.00
637.72	27222.77
637.87	27274.26
638.02	26824.88
638.17	27040.21
638.32	26867.01
638.46	26670.40
638.61	27136.17
638.76	26448.05
638.91	26827.22
639.06	26787.43
639.20	27248.52
639.35	27274.26
639.50	27318.73
639.65	27068.30
639.80	27058.93
639.94	26600.19
640.09	26780.41
640.24	26792.11
640.39	26916.16
640.54	26717.22
640.68	26405.92
640.83	27061.27
640.98	26855.31
641.13	26836.58
641.27	26911.48
641.42	26761.69
641.57	26841.26
641.72	26347.41
641.86	26764.03
642.01	26749.98
642.16	26738.28
642.31	26270.17
642.45	26445.71
642.60	26321.66
642.75	26511.25
642.90	26068.89
643.04	26394.22
643.19	26340.39
643.34	26380.18
643.48	26611.89
643.63	26401.24
643.78	26141.44
643.93	26401.24
644.07	26721.90
644.22	26714.87
644.37	26160.17
644.51	26387.20
644.66	26459.76
644.81	25895.69
644.95	26300.60
645.10	26216.34
645.25	26118.04
645.39	26031.44
645.54	26298.26
645.69	26108.68
645.83	26183.57
645.98	26183.57
646.13	26019.74
646.27	26333.37
646.42	26258.47
646.57	26253.79
646.71	26075.91
646.86	26118.04
647.00	26043.14
647.15	26267.83
647.30	26216.34
647.44	25942.50
647.59	25759.94
647.74	25848.88
647.88	26108.68
648.03	26061.87
648.17	26263.15
648.32	26012.71
648.47	26473.80
648.61	26111.02
648.76	26036.12
648.90	26216.34
649.05	25874.62
649.20	25724.83
649.34	25832.49
649.49	25310.55
649.63	25668.66
649.78	25694.40
649.92	25734.19
650.07	26146.12
650.21	25795.04
650.36	25741.21
650.51	25804.41
650.65	25549.29
650.80	25565.67
650.94	25762.28
651.09	25441.62
651.23	25284.81
651.38	25568.01
651.52	25668.66
651.67	25535.24
651.81	25282.47
651.96	25743.55
652.10	25521.20
652.25	25415.88
652.39	26033.78
652.54	25640.57
652.68	24971.18
652.83	25486.09
652.97	25596.10
653.12	25652.27
653.26	25467.37
653.41	25483.75
653.55	25399.49
653.70	25441.62
653.84	25441.62
653.99	25453.33
654.13	25235.66
654.27	25371.41
654.42	25137.35
654.56	25399.49
654.71	24898.62
654.85	25050.75
655.00	25120.97
655.14	25177.14
655.29	25191.19
655.43	25340.98
655.57	25415.88
655.72	24931.39
655.86	25048.41
656.01	25130.33
656.15	25076.50
656.30	25034.37
656.44	24739.46
656.58	24851.81
656.73	24629.46
656.87	25076.50
657.01	24694.99
657.16	25238.00
657.30	25308.21
657.45	24919.68
657.59	25256.72
657.73	24889.26
657.88	24833.08
658.02	24678.61
658.16	24697.33
658.31	24489.03
658.45	24713.72
658.60	24622.44
658.74	24753.51
658.88	24739.46
659.03	24451.58
659.17	24795.64
659.31	24250.29
659.46	24650.52
659.60	24376.68
659.74	24624.78
659.89	24418.81
660.03	24512.43
660.17	24304.12
660.32	24100.50
660.46	24194.12
660.60	24400.08
660.74	24095.82
660.89	24526.47
661.03	24074.75
661.17	24168.37
661.32	24070.07
661.46	24107.52
661.60	23840.70
661.74	24269.01
661.89	24381.36
662.03	24177.73
662.17	24025.60
662.31	23721.33
662.46	23953.04
662.60	23625.37
662.74	23924.96
662.88	23791.55
663.03	23946.02
663.17	23709.63
663.31	23534.09
663.45	23360.89
663.60	23599.62
663.74	23688.56
663.88	23608.98
664.02	23686.22
664.17	23953.04
664.31	23630.05
664.45	23868.78
664.59	23775.16
664.73	23576.22
664.88	23697.92
665.02	23058.96
665.16	23543.45
665.30	22902.14
665.44	23227.48
665.59	23119.81
665.73	23147.90
665.87	23190.03
666.01	23438.12
666.15	23117.47
666.29	23201.73
666.44	22728.94
666.58	22911.50
666.72	22991.08
666.86	23002.78
667.00	23276.63
667.14	22937.25
667.28	22738.30
667.43	22778.09
667.57	22504.25
667.71	22668.09
667.85	22941.93
667.99	22394.25
668.13	22602.55
668.27	22625.96
668.41	22794.48
668.56	22628.30
668.70	22785.12
668.84	22553.40
668.98	22450.42
669.12	22586.17
669.26	22761.71
669.40	22260.84
669.54	22450.42
669.68	22167.21
669.82	22281.90
669.96	22113.38
670.10	21986.99
670.25	22232.75
670.39	22183.60
670.53	22061.89
670.67	22204.66
670.81	21947.20
670.95	22279.56
671.09	21738.90
671.23	22176.58
671.37	22155.51
671.51	21905.07
671.65	22005.72
671.79	21717.83
671.93	21666.34
672.07	21989.33
672.21	21579.74
672.35	21703.79
672.49	21453.35
672.63	21610.17
672.77	21170.15
672.91	21247.38
673.05	21420.58
673.19	21516.54
673.33	21493.14
673.47	21116.31
673.61	21453.35
673.75	21132.70
673.89	21565.70
674.03	21350.37
674.17	21238.02
674.31	21111.63
674.45	21207.59
674.59	21139.72
674.73	21135.04
674.87	21120.99
675.01	20835.45
675.15	20851.83
675.29	20767.57
675.43	20685.65
675.56	20498.41
675.70	20842.47
675.84	20802.68
675.98	20121.59
676.12	20905.66
676.26	20893.96
676.40	20620.12
676.54	20470.33
676.68	20198.82
676.82	19997.54
676.96	20311.17
677.10	20042.01
677.23	19913.28
677.37	19875.83
677.51	19971.79
677.65	20266.70
677.79	19700.29
677.93	19765.82
678.07	19784.55
678.21	19440.49
678.34	19419.42
678.48	19403.04
678.62	19651.14
678.76	19541.13
678.90	19374.95
679.04	19176.01
679.18	19208.78
679.31	19026.21
679.45	19133.88
679.59	18881.10
679.73	18745.35
679.87	19187.71
680.00	18855.36
680.14	18850.67
680.28	18853.02
680.42	18597.90
680.56	19058.98
680.70	18633.00
680.83	18766.42
680.97	18782.80
681.11	18806.20
681.25	18558.11
681.39	18387.25
681.52	18457.46
681.66	18246.82
681.80	18389.59
681.94	18162.56
682.07	18211.71
682.21	18450.44
682.35	17884.03
682.49	17823.18
682.62	17743.60
682.76	17968.29
682.90	18242.14
683.04	17610.19
683.17	17970.63
683.31	17748.28
683.45	17947.23
683.59	17446.35
683.72	17570.40
683.86	17661.68
684.00	17696.79
684.13	17312.94
684.27	17413.59
684.41	17228.68
684.55	17099.95
684.68	16762.92
684.82	17053.14
684.96	16912.71
685.09	16931.44
685.23	16929.09
685.37	16676.32
685.50	16924.41
685.64	16996.97
685.78	17043.78
685.91	17139.74
686.05	16933.78
686.19	16786.32
686.32	16772.28
686.46	16517.16
686.60	16592.06
686.73	16589.72
686.87	16222.25
687.01	16266.72
687.14	16294.81
687.28	16311.19
687.42	15957.77
687.55	15782.23
687.69	16004.58
687.82	16121.61
687.96	15843.09
688.10	15922.66
688.23	15941.39
688.37	15400.72
688.50	15800.96
688.64	15763.51
688.78	15810.32
688.91	15515.41
689.05	15463.92
689.18	15463.92
689.32	15054.33
689.46	15091.77
689.59	15173.69
689.73	15138.58
689.86	15108.16
690.00	15220.50
690.13	15124.54
690.27	14967.73
690.41	14963.04
690.54	14820.27
690.68	14860.06
690.81	15068.37
690.95	14846.02
691.08	14864.74
691.22	14635.37
691.35	14516.00
691.49	14911.55
691.62	14710.27
691.76	14298.33
691.89	14368.55
692.03	13942.57
692.16	14047.90
692.30	14368.55
692.43	14010.45
692.57	14193.01
692.70	14153.22
692.84	13940.23
692.97	13874.70
693.11	13905.12
693.24	14059.60
693.38	13947.25
693.51	13568.09
693.65	13813.84
693.78	13844.27
693.92	13582.13
694.05	13661.71
694.19	13715.54
694.32	13642.98
694.45	13200.62
694.59	13268.50
694.72	13280.20
694.86	13107.00
694.99	13153.81
695.13	12999.34
695.26	13273.18
695.39	13116.36
695.53	13146.79
695.66	13270.84
695.80	12772.30
695.93	13022.74
696.07	12793.37
696.20	13158.49
696.33	12875.29
696.47	12788.69
696.60	12868.27
696.73	12784.01
696.87	12613.15
697.00	12676.34
697.14	12456.33
697.27	12252.70
697.40	11964.82
697.54	12166.10
697.67	12259.73
697.80	12198.87
697.94	12067.80
698.07	12147.38
698.21	12049.08
698.34	11817.36
698.47	11974.18
698.61	12100.57
698.74	11913.33
698.87	11929.71
699.01	11822.05
699.14	11812.68
699.27	11716.72
699.40	11922.69
699.54	11632.46
699.67	11440.54
699.80	11342.24
699.94	11222.87
700.07	11208.83
700.20	11239.25
700.34	11234.57
700.47	10937.32
700.60	11145.63
700.73	11145.63
700.87	11042.65
701.00	10895.19
701.13	11082.44
701.26	11103.50
701.40	11002.86
701.53	10885.83
701.66	10789.87
701.79	10988.82
701.93	10750.08
702.06	10759.44
702.19	10434.11
702.32	10806.25
702.46	10518.37
702.59	10363.89
702.72	10303.04
702.85	10321.76
702.99	10359.21
703.12	10263.25
703.25	10389.64
703.38	10363.89
703.51	10193.03
703.65	10125.16
703.78	10038.56
703.91	10188.35
704.04	10064.30
704.17	10010.47
704.31	10125.16
704.44	9879.40
704.57	9867.70
704.70	9724.93
704.83	9586.83
704.96	9783.44
705.10	9626.62
705.23	9678.12
>>>>>End Processed Spectral Data<<<<<
