SpectraSuite Data File
++++++++++++++++++++++++++++++++++++
Date: Fri Oct 18 13:58:23 GMT-05:00 2013
User: bianchi
Dark Spectrum Present: No
Reference Spectrum Present: No
Number of Sampled Component Spectra: 1
Spectrometers: USB2+H05261
Integration Time (usec): 50000 (USB2+H05261)
Spectra Averaged: 1 (USB2+H05261)
Boxcar Smoothing: 0 (USB2+H05261)
Correct for Electrical Dark: No (USB2+H05261)
Strobe/Lamp Enabled: No (USB2+H05261)
Correct for Detector Non-linearity: No (USB2+H05261)
Correct for Stray Light: No (USB2+H05261)
Number of Pixels in Processed Spectrum: 2048
>>>>>Begin Processed Spectral Data<<<<<
365.73	0.00
365.92	0.00
366.12	0.00
366.32	0.00
366.52	0.00
366.72	0.00
366.91	0.00
367.11	0.00
367.31	0.00
367.51	0.00
367.70	0.00
367.90	0.00
368.10	0.00
368.30	0.00
368.49	0.00
368.69	0.00
368.89	0.00
369.09	0.00
369.28	0.00
369.48	0.00
369.68	0.00
369.87	0.00
370.07	0.00
370.27	0.00
370.47	0.00
370.66	98.30
370.86	51.49
371.06	145.11
371.25	145.11
371.45	126.39
371.65	180.22
371.84	98.30
372.04	173.20
372.24	187.24
372.44	187.24
372.63	173.20
372.83	161.50
373.03	215.33
373.22	166.18
373.42	243.42
373.62	217.67
373.81	203.63
374.01	283.20
374.21	210.65
374.40	203.63
374.60	220.01
374.79	294.91
374.99	205.97
375.19	278.52
375.38	290.23
375.58	276.18
375.78	294.91
375.97	257.46
376.17	292.57
376.37	215.33
376.56	234.05
376.76	177.88
376.95	227.03
377.15	238.73
377.35	248.10
377.54	241.08
377.74	252.78
377.93	227.03
378.13	325.33
378.33	325.33
378.52	264.48
378.72	250.44
378.91	311.29
379.11	365.12
379.31	299.59
379.50	187.24
379.70	264.48
379.89	301.93
380.09	365.12
380.28	327.68
380.48	259.80
380.68	290.23
380.87	428.32
381.07	379.17
381.26	266.82
381.46	341.72
381.65	311.29
381.85	440.02
382.04	369.80
382.24	332.36
382.43	266.82
382.63	304.27
382.83	337.04
383.02	292.57
383.22	414.27
383.41	358.10
383.61	367.46
383.80	325.33
384.00	437.68
384.19	327.68
384.39	334.70
384.58	355.76
384.78	395.55
384.97	400.23
385.17	390.87
385.36	411.93
385.56	430.66
385.75	423.64
385.95	367.46
386.14	433.00
386.34	332.36
386.53	451.72
386.72	355.76
386.92	423.64
387.11	367.46
387.31	444.70
387.50	409.59
387.70	407.25
387.89	451.72
388.09	390.87
388.28	517.26
388.48	411.93
388.67	489.17
388.86	318.31
389.06	468.11
389.25	538.32
389.45	425.98
389.64	507.90
389.84	447.04
390.03	477.47
390.22	561.73
390.42	400.23
390.61	465.77
390.81	507.90
391.00	454.06
391.19	500.87
391.39	510.24
391.58	449.38
391.78	603.86
391.97	613.22
392.16	592.16
392.36	573.43
392.55	472.79
392.75	543.00
392.94	456.40
393.13	554.71
393.33	554.71
393.52	557.05
393.71	622.58
393.91	587.47
394.10	559.39
394.29	550.03
394.49	585.13
394.68	620.24
394.88	643.65
395.07	634.29
395.26	641.31
395.46	606.20
395.65	641.31
395.84	704.50
396.04	702.16
396.23	685.78
396.42	685.78
396.62	706.84
396.81	732.59
397.00	711.52
397.19	725.57
397.39	723.23
397.58	638.97
397.77	645.99
397.97	641.31
398.16	723.23
398.35	713.86
398.55	716.20
398.74	763.01
398.93	751.31
399.12	702.16
399.32	697.48
399.51	709.18
399.70	748.97
399.90	748.97
400.09	667.05
400.28	741.95
400.47	779.40
400.67	727.91
400.86	830.89
401.05	779.40
401.24	774.72
401.44	880.04
401.63	901.11
401.82	788.76
402.01	849.61
402.21	842.59
402.40	807.48
402.59	760.67
402.78	791.10
402.97	842.59
403.17	739.61
403.36	908.13
403.55	821.53
403.74	840.25
403.93	912.81
404.13	929.19
404.32	877.70
404.51	828.55
404.70	985.37
404.89	889.40
405.09	924.51
405.28	940.90
405.47	1004.09
405.66	814.51
405.85	1001.75
406.05	994.73
406.24	1020.47
406.43	1022.81
406.62	964.30
406.81	1102.39
407.00	1093.03
407.20	1144.52
407.39	1004.09
407.58	961.96
407.77	1027.50
407.96	1100.05
408.15	1060.26
408.34	1102.39
408.54	1069.62
408.73	1174.95
408.92	1191.33
409.11	1179.63
409.30	1174.95
409.49	1104.73
409.68	1142.18
409.87	1144.52
410.07	1254.53
410.26	1205.38
410.45	1235.80
410.64	1280.27
410.83	1224.10
411.02	1270.91
411.21	1296.66
411.40	1200.69
411.59	1287.29
411.78	1179.63
411.98	1308.36
412.17	1282.61
412.36	1188.99
412.55	1224.10
412.74	1462.83
412.93	1240.48
413.12	1310.70
413.31	1451.13
413.50	1406.66
413.69	1423.05
413.88	1399.64
414.07	1439.43
414.26	1371.55
414.45	1348.15
414.64	1490.92
414.83	1577.52
415.02	1533.05
415.22	1549.43
415.41	1549.43
415.60	1521.35
415.79	1474.54
415.98	1556.46
416.17	1596.25
416.36	1589.22
416.55	1647.74
416.74	1591.56
416.93	1631.35
417.12	1636.03
417.31	1636.03
417.50	1802.21
417.69	1748.38
417.88	1813.92
418.07	1657.10
418.26	1650.08
418.45	1767.10
418.64	1849.02
418.83	1760.08
419.02	1860.73
419.21	1783.49
419.39	1851.36
419.58	1806.89
419.77	1834.98
419.96	1842.00
420.15	1863.07
420.34	1907.54
420.53	1980.09
420.72	1956.69
420.91	1825.62
421.10	1909.88
421.29	1923.92
421.48	1966.05
421.67	2026.90
421.86	1947.33
422.05	1961.37
422.24	2008.18
422.43	2066.69
422.61	1966.05
422.80	2012.86
422.99	2094.78
423.18	2062.01
423.37	2106.48
423.56	2045.63
423.75	2052.65
423.94	1982.43
424.13	1940.30
424.32	2015.20
424.50	1940.30
424.69	1987.11
424.88	2150.95
425.07	2080.74
425.26	2005.84
425.45	2036.27
425.64	2001.16
425.83	2012.86
426.01	2094.78
426.20	2085.42
426.39	2104.14
426.58	2080.74
426.77	2050.31
426.96	2017.54
427.15	2120.53
427.33	2132.23
427.52	2062.01
427.71	2106.48
427.90	2043.29
428.09	2256.28
428.28	2176.70
428.46	2279.68
428.65	2260.96
428.84	2216.49
429.03	2293.72
429.22	2342.88
429.40	2413.09
429.59	2256.28
429.78	2106.48
429.97	2174.36
430.16	2174.36
430.34	2277.34
430.53	2366.28
430.72	2321.81
430.91	2225.85
431.10	2356.92
431.28	2434.16
431.47	2410.75
431.66	2502.03
431.85	2368.62
432.03	2455.22
432.22	2553.52
432.41	2422.45
432.60	2448.20
432.79	2483.31
432.97	2457.56
433.16	2427.14
433.35	2459.90
433.54	2544.16
433.72	2513.74
433.91	2471.61
434.10	2553.52
434.28	2483.31
434.47	2527.78
434.66	2661.19
434.85	2513.74
435.03	2640.12
435.22	2715.02
435.41	2764.17
435.59	2696.30
435.78	2663.53
435.97	2647.15
436.16	2605.02
436.34	2715.02
436.53	2670.55
436.72	2684.59
436.90	2726.72
437.09	2719.70
437.28	2794.60
437.46	2778.22
437.65	2705.66
437.84	2766.51
438.02	2860.13
438.21	2796.94
438.40	2724.38
438.58	2747.79
438.77	2918.65
438.96	2771.19
439.14	2965.46
439.33	2986.52
439.52	2939.71
439.70	3035.67
439.89	3091.85
440.08	2946.73
440.26	3087.17
440.45	3112.91
440.63	3068.44
440.82	3173.77
441.01	3052.06
441.19	3218.24
441.38	3122.27
441.57	3267.39
441.75	3290.79
441.94	3442.93
442.12	3325.90
442.31	3304.84
442.50	3332.92
442.68	3286.11
442.87	3372.71
443.05	3375.05
443.24	3419.52
443.43	3459.31
443.61	3459.31
443.80	3592.72
443.98	3405.48
444.17	3225.26
444.35	3323.56
444.54	3510.80
444.73	3555.27
444.91	3407.82
445.10	3428.88
445.28	3562.30
445.47	3452.29
445.65	3522.51
445.84	3492.08
446.02	3377.39
446.21	3566.98
446.39	3435.91
446.58	3520.17
446.77	3466.33
446.95	3403.14
447.14	3424.20
447.32	3480.38
447.51	3482.72
447.69	3606.77
447.88	3625.49
448.06	3562.30
448.25	3559.95
448.43	3585.70
448.62	3751.88
448.80	3520.17
448.99	3485.06
449.17	3590.38
449.36	3578.68
449.54	3693.37
449.73	3728.47
449.91	3630.17
450.10	3693.37
450.28	3815.07
450.46	3908.69
450.65	3712.09
450.83	3854.86
451.02	3801.03
451.20	3765.92
451.39	3801.03
451.57	3742.52
451.76	3733.15
451.94	3770.60
452.13	3908.69
452.31	3836.14
452.49	3875.93
452.68	3878.27
452.86	3847.84
453.05	3857.20
453.23	4112.32
453.42	3887.63
453.60	3936.78
453.78	3988.27
453.97	4030.40
454.15	3957.85
454.34	3859.54
454.52	4067.85
454.70	4070.19
454.89	3971.89
455.07	4035.08
455.26	4028.06
455.44	4189.56
455.62	4156.79
455.81	4079.55
455.99	4093.60
456.17	4248.07
456.36	4119.34
456.54	4245.73
456.73	4086.58
456.91	4346.37
457.09	4339.35
457.28	4470.42
457.46	4308.93
457.64	4325.31
457.83	4358.08
458.01	4397.87
458.19	4456.38
458.38	4372.12
458.56	4498.51
458.74	4409.57
458.93	4388.50
459.11	4489.15
459.29	4454.04
459.48	4564.04
459.66	4449.36
459.84	4550.00
460.03	4631.92
460.21	4550.00
460.39	4461.06
460.57	4519.57
460.76	4573.41
460.94	4578.09
461.12	4674.05
461.31	4648.30
461.49	4599.15
461.67	4681.07
461.85	4793.42
462.04	4819.16
462.22	4758.31
462.40	4823.84
462.59	4713.84
462.77	4807.46
462.95	4809.80
463.13	4634.26
463.32	4641.28
463.50	5011.09
463.68	4931.51
463.86	4987.68
464.05	4957.25
464.23	4786.40
464.41	4917.47
464.59	4924.49
464.78	5025.13
464.96	5085.98
465.14	4791.08
465.32	4903.42
465.50	4901.08
465.69	5252.16
465.87	5142.16
466.05	4952.57
466.23	5156.20
466.41	5282.59
466.60	5095.35
466.78	5097.69
466.96	4999.38
467.14	4933.85
467.32	5123.43
467.51	5212.37
467.69	5076.62
467.87	5224.08
468.05	5195.99
468.23	5146.84
468.41	4952.57
468.60	5280.25
468.78	5203.01
468.96	5195.99
469.14	5181.95
469.32	5343.44
469.50	5266.21
469.69	5416.00
469.87	5537.71
470.05	5280.25
470.23	5518.98
470.41	5383.23
470.59	5549.41
470.77	5530.69
470.95	5514.30
471.14	5579.84
471.32	5502.60
471.50	5502.60
471.68	5542.39
471.86	5614.95
472.04	5692.18
472.22	5926.24
472.40	5514.30
472.58	5628.99
472.77	5654.73
472.95	5935.60
473.13	5989.43
473.31	5678.14
473.49	5951.98
473.67	5923.90
473.85	5865.38
474.03	6092.41
474.21	6026.88
474.39	6010.50
474.57	6132.20
474.75	6221.14
474.93	6256.25
475.12	6277.32
475.30	6251.57
475.48	6244.55
475.66	6462.22
475.84	6326.47
476.02	6396.68
476.20	6356.90
476.38	6345.19
476.56	6750.10
476.74	6600.31
476.92	6490.31
477.10	6579.25
477.28	6782.87
477.46	6635.42
477.64	6696.27
477.82	6960.75
478.00	7063.74
478.18	7021.61
478.36	6937.35
478.54	7204.17
478.72	7108.21
478.90	7199.49
479.08	7276.73
479.26	7241.62
479.44	7433.54
479.62	7218.21
479.80	7330.56
479.98	7562.27
480.16	7756.54
480.34	7555.25
480.52	7775.26
480.70	7702.70
480.88	7796.32
481.06	7695.68
481.24	7737.81
481.41	7646.53
481.59	8095.91
481.77	8184.85
481.95	7992.93
482.13	8210.60
482.31	8081.87
482.49	8257.41
482.67	8428.27
482.85	8383.80
483.03	8833.18
483.21	8414.23
483.39	8645.94
483.57	8730.20
483.74	8709.13
483.92	8741.90
484.10	8720.84
484.28	9125.75
484.46	9280.22
484.64	9308.31
484.82	9027.45
485.00	9334.06
485.18	9366.82
485.35	9334.06
485.53	9525.98
485.71	9287.25
485.89	9809.19
486.07	9507.26
486.25	9514.28
486.43	9692.16
486.61	9720.24
486.78	9893.44
486.96	9905.15
487.14	10132.18
487.32	9958.98
487.50	10307.72
487.68	10099.41
487.85	10281.97
488.03	10429.43
488.21	10466.88
488.39	10710.29
488.57	10778.17
488.75	10824.98
488.92	10981.79
489.10	10712.63
489.28	10937.32
489.46	11143.29
489.64	11218.19
489.81	11492.03
489.99	11400.75
490.17	11442.88
490.35	11709.70
490.53	11609.06
490.70	11819.71
490.88	11667.57
491.06	11815.02
491.24	11639.48
491.41	11735.45
491.59	11866.52
491.77	12002.27
491.95	12283.13
492.13	12325.26
492.30	12273.77
492.48	12362.71
492.66	12552.29
492.84	12697.41
493.01	12727.83
493.19	12755.92
493.37	12723.15
493.54	12603.78
493.72	12999.34
493.90	12791.03
494.08	12996.99
494.25	13041.46
494.43	13242.75
494.61	13224.03
494.79	13242.75
494.96	13193.60
495.14	13486.17
495.32	13490.85
495.49	13680.43
495.67	13919.17
495.85	13610.22
496.02	14059.60
496.20	13935.55
496.38	14099.39
496.55	14017.47
496.73	14480.89
496.91	14457.49
497.09	14431.74
497.26	14457.49
497.44	14499.62
497.62	14637.71
497.79	14766.44
497.97	14684.52
498.14	15054.33
498.32	14927.94
498.50	15178.37
498.67	15246.25
498.85	15037.94
499.03	15248.59
499.20	14972.41
499.38	15140.93
499.56	15234.55
499.73	15218.16
499.91	15611.37
500.08	15569.24
500.26	15091.77
500.44	15290.72
500.61	15330.51
500.79	15646.48
500.97	15751.81
501.14	16035.01
501.32	15728.40
501.49	15995.22
501.67	15850.11
501.84	16011.60
502.02	16016.29
502.20	15943.73
502.37	16121.61
502.55	16175.44
502.72	16360.34
502.90	16332.26
503.07	16250.34
503.25	16098.20
503.43	16397.79
503.60	16704.40
503.78	16688.02
503.95	16765.26
504.13	16683.34
504.30	16659.93
504.48	16503.12
504.65	16912.71
504.83	17163.15
505.01	17144.42
505.18	17149.11
505.36	17214.64
505.53	16985.27
505.71	17516.57
505.88	17231.02
506.06	17200.60
506.23	17411.25
506.41	17605.51
506.58	17507.21
506.76	17422.95
506.93	17605.51
507.11	17692.11
507.28	17851.27
507.46	17530.61
507.63	17577.42
507.81	17834.88
507.98	17991.70
508.16	17806.80
508.33	18001.06
508.50	18139.15
508.68	18164.90
508.85	18251.50
509.03	18153.20
509.20	18743.01
509.38	18373.21
509.55	18242.14
509.73	18476.19
509.90	18576.83
510.08	18647.05
510.25	18555.77
510.42	18558.11
510.60	18530.02
510.77	18693.86
510.95	19033.24
511.12	18597.90
511.30	18712.58
511.47	19138.56
511.64	19009.83
511.82	19082.39
511.99	19154.94
512.17	19213.46
512.34	19419.42
512.51	19351.55
512.69	19597.31
512.86	19414.74
513.04	19534.11
513.21	19711.99
513.38	19969.45
513.56	19543.47
513.73	19726.04
513.90	19831.36
514.08	19702.63
514.25	19903.92
514.43	19515.39
514.60	20060.73
514.77	19791.57
514.95	20058.39
515.12	19793.91
515.29	19946.05
515.47	19946.05
515.64	20315.85
515.81	20177.76
515.99	20051.37
516.16	20346.28
516.33	20386.07
516.51	20559.27
516.68	20774.60
516.85	20046.69
517.03	20467.98
517.20	20669.27
517.37	20730.12
517.54	20943.11
517.72	20732.47
517.89	20762.89
518.06	20875.24
518.24	20854.17
518.41	20982.90
518.58	20709.06
518.75	20720.76
518.93	21125.68
519.10	21069.50
519.27	21434.63
519.45	21116.31
519.62	21591.44
519.79	21238.02
519.96	21099.93
520.14	21411.22
520.31	21341.00
520.48	21352.71
520.65	21305.90
520.83	21561.02
521.00	21652.30
521.17	21369.09
521.34	21247.38
521.52	22033.80
521.69	21886.35
521.86	21680.38
522.03	22143.81
522.20	21605.49
522.38	22195.30
522.55	22129.77
522.72	22366.16
522.89	22141.47
523.07	22515.95
523.24	22118.06
523.41	22492.55
523.58	21970.61
523.75	22047.85
523.92	22139.13
524.10	22260.84
524.27	22452.76
524.44	22260.84
524.61	23126.83
524.78	22553.40
524.96	22651.70
525.13	22602.55
525.30	22349.78
525.47	22621.28
525.64	22993.42
525.81	22747.67
525.98	22948.95
526.16	23131.51
526.33	23147.90
526.50	23192.37
526.67	22740.64
526.84	22897.46
527.01	23073.00
527.18	22939.59
527.36	23335.14
527.53	23051.94
527.70	23723.67
527.87	23484.94
528.04	23318.76
528.21	23506.00
528.38	23213.43
528.55	23297.69
528.72	23538.77
528.89	23681.54
529.07	23683.88
529.24	23814.95
529.41	23264.92
529.58	23749.42
529.75	23573.88
529.92	23711.97
530.09	23892.19
530.26	23726.01
530.43	23887.51
530.60	23749.42
530.77	23833.68
530.94	23873.46
531.11	23866.44
531.28	23833.68
531.46	23971.77
531.63	24030.28
531.80	23992.83
531.97	24116.88
532.14	24137.94
532.31	24013.90
532.48	24369.66
532.65	23950.70
532.82	24247.95
532.99	24400.08
533.16	24383.70
533.33	24730.10
533.50	24589.67
533.67	24489.03
533.84	24435.19
534.01	24404.77
534.18	24526.47
534.35	24601.37
534.52	24549.88
534.69	25029.69
534.86	24861.17
535.03	24620.10
535.20	24765.21
535.37	24945.43
535.54	25003.94
535.71	24592.01
535.88	24875.21
536.05	24947.77
536.22	25301.19
536.38	25362.04
536.55	25369.07
536.72	25373.75
536.89	25060.12
537.06	25315.23
537.23	25448.64
537.40	25081.18
537.57	24961.81
537.74	25118.63
537.91	25394.81
538.08	25530.56
538.25	25441.62
538.42	25465.03
538.59	25696.74
538.75	25331.62
538.92	25759.94
539.09	25825.47
539.26	25879.30
539.43	25853.56
539.60	25748.23
539.77	25773.98
539.94	25724.83
540.11	25446.30
540.28	25806.75
540.44	25500.14
540.61	25827.81
540.78	25642.91
540.95	25841.85
541.12	26169.53
541.29	25900.37
541.46	26183.57
541.62	25797.38
541.79	25710.78
541.96	25724.83
542.13	26214.00
542.30	26209.32
542.47	26089.95
542.63	26490.18
542.80	26511.25
542.97	26366.13
543.14	26462.10
543.31	26501.89
543.48	26263.15
543.64	26740.62
543.81	26637.64
543.98	26815.52
544.15	26904.46
544.32	26504.23
544.48	26663.38
544.65	26431.67
544.82	26892.76
544.99	26579.12
545.16	26618.91
545.32	26862.33
545.49	26965.31
545.66	27040.21
545.83	26745.30
546.00	26913.82
546.16	27204.05
546.33	26705.51
546.50	26892.76
546.67	27154.90
546.83	26749.98
547.00	26836.58
547.17	27047.23
547.34	27204.05
547.50	27061.27
547.67	27115.11
547.84	27274.26
548.00	27295.33
548.17	27288.31
548.34	27035.53
548.51	28194.09
548.67	27740.03
548.84	27562.15
549.01	28025.57
549.18	27658.11
549.34	27283.62
549.51	27173.62
549.68	27503.64
549.84	27702.58
550.01	27686.20
550.18	27529.38
550.34	27880.46
550.51	27613.64
550.68	27821.95
550.84	28023.23
551.01	27700.24
551.18	27747.05
551.34	27264.90
551.51	27623.00
551.68	27564.49
551.84	27768.12
552.01	27779.82
552.18	28217.50
552.34	27936.63
552.51	28245.58
552.68	27934.29
552.84	27728.33
553.01	27962.38
553.18	27644.07
553.34	28109.83
553.51	28226.86
553.67	28231.54
553.84	28252.61
554.01	28510.07
554.17	28027.92
554.34	28418.78
554.51	28208.14
554.67	28189.41
554.84	28589.64
555.00	28311.12
555.17	28379.00
555.33	28203.46
555.50	28130.90
555.67	28348.57
555.83	28231.54
556.00	28187.07
556.16	28428.15
556.33	28439.85
556.50	28591.98
556.66	28753.48
556.83	28503.04
556.99	28821.36
557.16	28788.59
557.32	28889.23
557.49	29177.12
557.65	28460.91
557.82	28379.00
557.98	28697.31
558.15	28737.10
558.32	28835.40
558.48	28854.12
558.65	29151.37
558.81	28767.52
558.98	29048.39
559.14	28854.12
559.31	28788.59
559.47	28678.58
559.64	28629.43
559.80	28851.78
559.97	29125.63
560.13	28751.14
560.30	28584.96
560.46	29158.39
560.63	28943.06
560.79	29202.86
560.96	28886.89
561.12	28840.08
561.29	28685.61
561.45	28840.08
561.61	29193.50
561.78	28896.25
561.94	28877.53
562.11	29401.81
562.27	29453.30
562.44	28931.36
562.60	29146.69
562.77	29043.71
562.93	28959.45
563.10	29399.47
563.26	29116.26
563.42	29525.86
563.59	28996.90
563.75	29481.39
563.92	29317.55
564.08	29226.27
564.24	28872.85
564.41	28994.56
564.57	29420.53
564.74	29064.77
564.90	29315.21
565.07	29687.36
565.23	29261.38
565.39	29039.03
565.56	29390.11
565.72	28856.46
565.88	29692.04
566.05	29050.73
566.21	29408.83
566.38	29347.98
566.54	29647.57
566.70	29839.49
566.87	29642.88
567.03	29549.26
567.19	29823.11
567.36	29443.94
567.52	29443.94
567.68	29392.45
567.85	29474.37
568.01	29179.46
568.17	29223.93
568.34	29694.38
568.50	29954.18
568.66	29949.50
568.83	29553.94
568.99	29181.80
569.15	29528.20
569.32	29797.36
569.48	29329.25
569.64	30064.18
569.81	29972.90
569.97	29411.17
570.13	29696.72
570.30	29724.80
570.46	29926.09
570.62	29331.59
570.78	29752.89
570.95	29762.25
571.11	29696.72
571.27	29603.10
571.43	29408.83
571.60	29986.94
571.76	29656.93
571.92	29905.02
572.09	30010.35
572.25	30082.91
572.41	29411.17
572.57	29729.48
572.74	29755.23
572.90	29699.06
573.06	29848.85
573.22	29788.00
573.38	29839.49
573.55	29654.59
573.71	29867.58
573.87	29825.45
574.03	30094.61
574.20	29617.14
574.36	29825.45
574.52	29940.13
574.68	29685.01
574.84	29813.74
575.01	30050.14
575.17	30066.52
575.33	29827.79
575.49	29715.44
575.65	29869.92
575.82	30309.94
575.98	30087.59
576.14	30033.75
576.30	29743.53
576.46	30188.23
576.62	29638.20
576.79	30197.59
576.95	29989.28
577.11	29724.80
577.27	30298.23
577.43	29834.81
577.59	29811.40
577.75	30171.85
577.92	29722.46
578.08	29549.26
578.24	29759.91
578.40	29832.47
578.56	29926.09
578.72	30066.52
578.88	30029.07
579.04	30366.11
579.21	30113.33
579.37	30082.91
579.53	30022.05
579.69	29890.98
579.85	29940.13
580.01	29912.05
580.17	29729.48
580.33	29972.90
580.49	30274.83
580.65	29956.52
580.82	30235.04
580.98	30134.40
581.14	30031.41
581.30	30160.14
581.46	30405.90
581.62	30139.08
581.78	29951.84
581.94	30047.80
582.10	29930.77
582.26	30008.01
582.42	30216.32
582.58	30366.11
582.74	29993.97
582.90	30260.79
583.06	30059.50
583.22	30216.32
583.38	30143.76
583.54	30000.99
583.70	30305.26
583.86	30419.94
584.02	30204.61
584.18	30286.53
584.34	30237.38
584.50	30216.32
584.66	30059.50
584.82	30155.46
584.98	30075.88
585.14	30050.14
585.30	30185.89
585.46	29930.77
585.62	30087.59
585.78	30331.00
585.94	30242.06
586.10	30246.74
586.26	30316.96
586.42	30368.45
586.58	30239.72
586.74	30511.22
586.90	29951.84
587.06	30015.03
587.22	30347.39
587.38	30181.21
587.54	30298.23
587.70	30469.09
587.86	30153.12
588.02	30394.20
588.18	30696.13
588.34	30408.24
588.49	30668.04
588.65	30352.07
588.81	30206.95
588.97	30134.40
589.13	30382.49
589.29	30162.48
589.45	30321.64
589.61	30740.60
589.77	30569.74
589.93	30866.98
590.08	30522.93
590.24	30700.81
590.40	30646.97
590.56	30799.11
590.72	30370.79
590.88	30405.90
591.04	30754.64
591.20	30373.13
591.35	30590.80
591.51	30670.38
591.67	31000.40
591.83	30352.07
591.99	30684.42
592.15	30677.40
592.31	30417.60
592.46	30249.08
592.62	30366.11
592.78	30394.20
592.94	30499.52
593.10	30359.09
593.26	30593.14
593.41	30703.15
593.57	30342.70
593.73	30689.10
593.89	30368.45
594.05	30698.47
594.20	30295.89
594.36	30384.83
594.52	30359.09
594.68	30398.88
594.84	30623.57
594.99	30569.74
595.15	30717.19
595.31	30665.70
595.47	30590.80
595.62	30852.94
595.78	30551.01
595.94	30766.34
596.10	30962.95
596.25	30663.36
596.41	30377.81
596.57	30225.68
596.73	30656.34
596.88	30356.75
597.04	31021.46
597.20	30993.37
597.36	30749.96
597.51	31079.97
597.67	30541.65
597.83	30782.73
597.99	30782.73
598.14	30560.37
598.30	30635.27
598.46	30958.27
598.61	30644.63
598.77	30604.84
598.93	31147.85
599.09	30984.01
599.24	30862.30
599.40	31058.91
599.56	30890.39
599.71	30756.98
599.87	30684.42
600.03	30572.08
600.18	30909.11
600.34	30534.63
600.50	30597.82
600.65	30820.17
600.81	30998.06
600.97	30890.39
601.12	31344.45
601.28	30759.32
601.44	30902.09
601.59	30789.75
601.75	30768.68
601.91	30618.89
602.06	30864.64
602.22	30639.95
602.37	30588.46
602.53	30710.17
602.69	30869.33
602.84	30632.93
603.00	30881.03
603.16	31407.65
603.31	30850.60
603.47	30981.67
603.62	30927.84
603.78	30738.26
603.94	30855.28
604.09	30771.02
604.25	30799.11
604.40	31047.21
604.56	30675.06
604.71	31040.18
604.87	30525.27
605.03	30874.01
605.18	30864.64
605.34	30710.17
605.49	30876.35
605.65	30543.99
605.80	30366.11
605.96	30808.47
606.12	30618.89
606.27	30632.93
606.43	30574.42
606.58	30911.46
606.74	30766.34
606.89	31007.42
607.05	30677.40
607.20	30885.71
607.36	30995.71
607.51	30483.14
607.67	30782.73
607.82	30295.89
607.98	30597.82
608.13	30588.46
608.29	30347.39
608.44	30738.26
608.60	30586.12
608.75	30623.57
608.91	30794.43
609.06	30845.92
609.22	30995.71
609.37	30611.87
609.53	30321.64
609.68	30822.51
609.84	30188.23
609.99	30321.64
610.15	30331.00
610.30	30513.56
610.46	30543.99
610.61	30558.03
610.76	30635.27
610.92	30574.42
611.07	30679.74
611.23	30375.47
611.38	30597.82
611.54	30368.45
611.69	30267.81
611.84	30010.35
612.00	30284.19
612.15	30089.93
612.31	30340.36
612.46	30321.64
612.62	30237.38
612.77	30132.06
612.92	30384.83
613.08	30169.51
613.23	30185.89
613.39	30099.29
613.54	30265.47
613.69	30253.76
613.85	29961.20
614.00	30291.21
614.15	30183.55
614.31	30094.61
614.46	30270.15
614.62	30213.98
614.77	30010.35
614.92	30237.38
615.08	30129.72
615.23	30309.94
615.38	30031.41
615.54	29830.13
615.69	30106.31
615.84	29790.34
616.00	30066.52
616.15	29759.91
616.30	29940.13
616.46	29762.25
616.61	29876.94
616.76	30237.38
616.92	29516.50
617.07	29921.41
617.22	29748.21
617.37	29998.65
617.53	29883.96
617.68	29970.56
617.83	29797.36
617.99	29820.77
618.14	29462.66
618.29	29890.98
618.45	29905.02
618.60	29823.11
618.75	30082.91
618.90	29944.81
619.06	30038.44
619.21	29631.18
619.36	29916.73
619.51	29383.09
619.67	29736.51
619.82	29357.34
619.97	29919.07
620.12	29212.23
620.28	29270.74
620.43	29855.87
620.58	29879.28
620.73	29617.14
620.89	29881.62
621.04	29848.85
621.19	29961.20
621.34	29593.73
621.49	29567.99
621.65	29319.89
621.80	29420.53
621.95	29406.49
622.10	29289.46
622.25	29198.18
622.41	29502.45
622.56	29284.78
622.71	29631.18
622.86	29584.37
623.01	29495.43
623.16	29303.51
623.32	29090.52
623.47	29132.65
623.62	29329.25
623.77	29549.26
623.92	29345.64
624.07	29097.54
624.23	29104.56
624.38	29357.34
624.53	29385.43
624.68	29305.85
624.83	29750.55
624.98	29390.11
625.13	29132.65
625.29	29565.65
625.44	29015.62
625.59	29062.43
625.74	29111.58
625.89	29167.76
626.04	28687.95
626.19	28767.52
626.34	28510.07
626.49	28613.05
626.65	29008.60
626.80	28992.22
626.95	28943.06
627.10	29078.82
627.25	28999.24
627.40	28676.24
627.55	28432.83
627.70	28795.61
627.85	28690.29
628.00	28673.90
628.15	28793.27
628.30	28900.94
628.45	28671.56
628.60	28503.04
628.76	28446.87
628.91	28828.38
629.06	28776.89
629.21	28854.12
629.36	28699.65
629.51	28362.61
629.66	28732.42
629.81	28325.16
629.96	28701.99
630.11	28250.27
630.26	28573.26
630.41	28144.94
630.56	28383.68
630.71	28526.45
630.86	28414.10
631.01	28727.74
631.16	28683.27
631.31	28437.51
631.46	28484.32
631.61	28533.47
631.76	28645.82
631.91	28229.20
632.06	28276.01
632.21	28044.30
632.36	27962.38
632.51	27990.47
632.66	28474.96
632.81	28116.86
632.96	28481.98
633.10	28301.76
633.25	28142.60
633.40	28116.86
633.55	28247.93
633.70	27903.87
633.85	27669.81
634.00	28102.81
634.15	27838.33
634.30	28170.69
634.45	28369.63
634.60	27861.74
634.75	27887.48
634.90	28205.80
635.05	28126.22
635.19	28105.15
635.34	28123.88
635.49	27906.21
635.64	27887.48
635.79	28046.64
635.94	27838.33
636.09	27927.27
636.24	27283.62
636.39	27777.48
636.53	27405.33
636.68	27513.00
636.83	27843.01
636.98	27707.26
637.13	27580.87
637.28	27931.95
637.43	27742.37
637.57	27751.73
637.72	27428.74
637.87	27651.09
638.02	27101.06
638.17	27590.24
638.32	27646.41
638.46	27381.93
638.61	27421.72
638.76	27117.45
638.91	27555.13
639.06	27227.45
639.20	27520.02
639.35	27372.57
639.50	27398.31
639.65	27524.70
639.80	27171.28
639.94	27129.15
640.09	27531.72
640.24	27915.57
640.39	27318.73
640.54	27332.78
640.68	27173.62
640.83	27218.09
640.98	27234.47
641.13	26920.84
641.27	26829.56
641.42	26764.03
641.57	27110.43
641.72	27159.58
641.86	27037.87
642.01	27232.13
642.16	27098.72
642.31	26843.60
642.45	27019.14
642.60	26993.40
642.75	26813.18
642.90	26691.47
643.04	26986.38
643.19	26663.38
643.34	26693.81
643.48	27056.59
643.63	26909.14
643.78	26785.09
643.93	26824.88
644.07	26607.21
644.22	27068.30
644.37	26955.95
644.51	26969.99
644.66	26806.16
644.81	26618.91
644.95	26705.51
645.10	26548.70
645.25	26749.98
645.39	26759.34
645.54	26747.64
645.69	26466.78
645.83	26649.34
645.98	26583.80
646.13	26309.96
646.27	26834.24
646.42	26700.83
646.57	26494.86
646.71	26508.91
646.86	26544.02
647.00	26312.30
647.15	26639.98
647.30	26768.71
647.44	26335.71
647.59	26515.93
647.74	26918.50
647.88	26513.59
648.03	26586.15
648.17	26595.51
648.32	26738.28
648.47	26757.00
648.61	26274.85
648.76	26677.43
648.90	26054.84
649.05	26459.76
649.20	26307.62
649.34	26066.55
649.49	25844.20
649.63	26415.29
649.78	26316.98
649.92	25891.01
650.07	26621.25
650.21	26192.94
650.36	26256.13
650.51	25970.58
650.65	26281.88
650.80	26595.51
650.94	26319.32
651.09	26181.23
651.23	25841.85
651.38	26103.99
651.52	26038.46
651.67	26111.02
651.81	26099.31
651.96	26157.83
652.10	25940.16
652.25	25752.91
652.39	26256.13
652.54	26363.79
652.68	26141.44
652.83	26356.77
652.97	26171.87
653.12	26050.16
653.26	25804.41
653.41	25855.90
653.55	25605.46
653.70	25493.12
653.84	25993.99
653.99	25965.90
654.13	26141.44
654.27	25748.23
654.42	25867.60
654.56	25654.61
654.71	25736.53
654.85	25399.49
655.00	25759.94
655.14	25792.70
655.29	25975.27
655.43	25706.10
655.57	25420.56
655.72	25738.87
655.86	25570.35
656.01	25535.24
656.15	25706.10
656.30	25584.40
656.44	25727.17
656.58	24861.17
656.73	25315.23
656.87	25490.77
657.01	25518.86
657.16	25617.16
657.30	25233.32
657.45	25881.64
657.59	25184.16
657.73	25277.79
657.88	25483.75
658.02	25364.39
658.16	25436.94
658.31	25387.79
658.45	25333.96
658.60	24943.09
658.74	25144.38
658.88	25259.06
659.03	24966.49
659.17	24910.32
659.31	25076.50
659.46	25078.84
659.60	25029.69
659.74	24975.86
659.89	24912.66
660.03	24716.06
660.17	24709.04
660.32	24467.96
660.46	24786.27
660.60	24702.01
660.74	24592.01
660.89	24540.52
661.03	24203.48
661.17	24577.97
661.32	24453.92
661.46	24739.46
661.60	24884.58
661.74	24865.85
661.89	24519.45
662.03	24727.76
662.17	24819.04
662.31	24336.89
662.46	24285.40
662.60	24261.99
662.74	24247.95
662.88	23990.49
663.03	24182.42
663.17	24159.01
663.31	23740.05
663.45	23887.51
663.60	23910.91
663.74	23828.99
663.88	24189.44
664.02	23894.53
664.17	24137.94
664.31	23929.64
664.45	24079.43
664.59	24261.99
664.73	24226.89
664.88	23707.29
665.02	23424.08
665.16	23632.39
665.30	23620.69
665.44	23744.73
665.59	23510.68
665.73	23555.15
665.87	23302.37
666.01	23920.28
666.15	23845.38
666.29	23714.31
666.44	23807.93
666.58	23445.15
666.72	23274.29
666.86	23300.03
667.00	23269.61
667.14	22974.70
667.28	23337.48
667.43	23384.29
667.57	23356.21
667.71	23080.02
667.85	23311.74
667.99	23353.87
668.13	22731.28
668.27	23262.58
668.41	23133.86
668.56	22913.84
668.70	23220.45
668.84	23215.77
668.98	22948.95
669.12	23014.49
669.26	23080.02
669.40	22742.99
669.54	22869.37
669.68	22930.23
669.82	22834.27
669.96	22874.06
670.10	22459.78
670.25	22967.68
670.39	22576.81
670.53	22263.18
670.67	22129.77
670.81	22253.81
670.95	22443.40
671.09	22204.66
671.23	22609.58
671.37	22342.75
671.51	22520.63
671.65	22471.48
671.79	22211.68
671.93	22132.11
672.07	22012.74
672.21	21956.57
672.35	21949.54
672.49	21968.27
672.63	21785.71
672.77	21561.02
672.91	21888.69
673.05	21937.84
673.19	21708.47
673.33	21961.25
673.47	21994.01
673.61	21664.00
673.75	21736.56
673.89	21687.40
674.03	21385.47
674.17	21685.06
674.31	21720.17
674.45	21254.40
674.59	21329.30
674.73	21336.32
674.87	21270.79
675.01	21088.23
675.15	21078.86
675.29	21238.02
675.43	20856.51
675.56	21135.04
675.70	21053.12
675.84	21209.93
675.98	20421.17
676.12	21254.40
676.26	21282.49
676.40	20999.29
676.54	20465.64
676.68	20786.30
676.82	20790.98
676.96	20505.43
677.10	20720.76
677.23	20451.60
677.37	20140.31
677.51	20390.75
677.65	20276.06
677.79	19950.73
677.93	20121.59
678.07	20203.50
678.21	19751.78
678.34	19817.32
678.48	19917.96
678.62	19878.17
678.76	19686.25
678.90	20013.92
679.04	19351.55
679.18	19653.48
679.31	19527.09
679.45	19817.32
679.59	19545.81
679.73	19187.71
679.87	19190.05
680.00	19180.69
680.14	19283.67
680.28	19192.39
680.42	19199.41
680.56	19101.11
680.70	19208.78
680.83	19264.95
680.97	18967.70
681.11	19136.22
681.25	18958.34
681.39	18848.33
681.52	18717.26
681.66	18614.28
681.80	18607.26
681.94	18623.64
682.07	18518.32
682.21	18424.70
682.35	18342.78
682.49	18391.93
682.62	18001.06
682.76	18010.42
682.90	18347.46
683.04	18335.76
683.17	18216.39
683.31	18160.22
683.45	18129.79
683.59	17877.01
683.72	18146.17
683.86	17902.76
684.00	17813.82
684.13	17767.01
684.27	17750.62
684.41	17640.62
684.55	17525.93
684.68	17371.46
684.82	16889.31
684.96	17467.42
685.09	17444.01
685.23	17245.07
685.37	17060.16
685.50	17231.02
685.64	17294.22
685.78	17259.11
685.91	17071.87
686.05	17270.81
686.19	16688.02
686.32	16854.20
686.46	16657.59
686.60	16622.48
686.73	16910.37
686.87	16648.23
687.01	16765.26
687.14	16690.36
687.28	16482.05
687.42	16346.30
687.55	16446.94
687.69	16645.89
687.82	16004.58
687.96	16252.68
688.10	16358.00
688.23	15983.52
688.37	16119.27
688.50	16086.50
688.64	15953.09
688.78	15985.86
688.91	15672.23
689.05	15829.04
689.18	15826.70
689.32	15587.97
689.46	15597.33
689.59	15421.79
689.73	15782.23
689.86	15566.90
690.00	15578.61
690.13	15279.02
690.27	15379.66
690.41	15281.36
690.54	15159.65
690.68	15569.24
690.81	15197.10
690.95	15248.59
691.08	15412.43
691.22	15131.56
691.35	15009.86
691.49	14916.23
691.62	14614.30
691.76	14757.08
691.89	14771.12
692.03	14511.32
692.16	14363.87
692.30	14508.98
692.43	14293.65
692.57	14258.54
692.70	14270.25
692.84	14274.93
692.97	14373.23
693.11	14284.29
693.24	14075.98
693.38	13853.63
693.51	14118.11
693.65	14169.60
693.78	13907.46
693.92	13916.83
694.05	13834.91
694.19	13717.88
694.32	13603.19
694.45	13422.97
694.59	13586.81
694.72	13425.31
694.86	13511.91
694.99	13345.73
695.13	13467.44
695.26	13378.50
695.39	13153.81
695.53	12980.61
695.66	13312.97
695.80	13315.31
695.93	13170.19
696.07	12989.97
696.20	13394.89
696.33	13193.60
696.47	13132.75
696.60	13022.74
696.73	12830.82
696.87	13029.76
697.00	12596.76
697.14	12601.44
697.27	12629.53
697.40	12697.41
697.54	12418.88
697.67	12241.00
697.80	12294.83
697.94	12498.46
698.07	12194.19
698.21	12231.64
698.34	12236.32
698.47	12297.17
698.61	12074.82
698.74	12215.26
698.87	12030.35
699.01	12163.76
699.14	11896.94
699.27	11749.49
699.40	11754.17
699.54	11981.20
699.67	11779.92
699.80	11669.91
699.94	11712.04
700.07	11538.84
700.20	11515.44
700.34	11145.63
700.47	11456.92
700.60	11391.39
700.73	11438.20
700.87	11330.53
701.00	11370.32
701.13	11393.73
701.26	11323.51
701.40	11398.41
701.53	10998.18
701.66	11159.67
701.79	11066.05
701.93	11070.73
702.06	10780.51
702.19	10635.39
702.32	10878.81
702.46	10621.35
702.59	10588.58
702.72	10707.95
702.85	10429.43
702.99	10532.41
703.12	10389.64
703.25	10363.89
703.38	10394.32
703.51	10406.02
703.65	10548.79
703.78	10221.12
703.91	10539.43
704.04	10396.66
704.17	10256.23
704.31	10164.95
704.44	10277.29
704.57	10188.35
704.70	9923.87
704.83	9741.31
704.96	9788.12
705.10	9795.14
705.23	9900.47
>>>>>End Processed Spectral Data<<<<<
