SpectraSuite Data File
++++++++++++++++++++++++++++++++++++
Date: Fri Oct 18 13:58:41 GMT-05:00 2013
User: bianchi
Dark Spectrum Present: No
Reference Spectrum Present: No
Number of Sampled Component Spectra: 1
Spectrometers: USB2+H05261
Integration Time (usec): 50000 (USB2+H05261)
Spectra Averaged: 1 (USB2+H05261)
Boxcar Smoothing: 0 (USB2+H05261)
Correct for Electrical Dark: No (USB2+H05261)
Strobe/Lamp Enabled: No (USB2+H05261)
Correct for Detector Non-linearity: No (USB2+H05261)
Correct for Stray Light: No (USB2+H05261)
Number of Pixels in Processed Spectrum: 2048
>>>>>Begin Processed Spectral Data<<<<<
365.73	0.00
365.92	0.00
366.12	0.00
366.32	0.00
366.52	0.00
366.72	0.00
366.91	0.00
367.11	0.00
367.31	0.00
367.51	0.00
367.70	0.00
367.90	0.00
368.10	0.00
368.30	0.00
368.49	0.00
368.69	0.00
368.89	0.00
369.09	0.00
369.28	0.00
369.48	0.00
369.68	0.00
369.87	0.00
370.07	0.00
370.27	0.00
370.47	0.00
370.66	51.49
370.86	147.45
371.06	154.48
371.25	86.60
371.45	114.69
371.65	149.79
371.84	201.29
372.04	112.35
372.24	119.37
372.44	159.16
372.63	133.41
372.83	283.20
373.03	168.52
373.22	212.99
373.42	191.92
373.62	222.35
373.81	222.35
374.01	245.76
374.21	217.67
374.40	210.65
374.60	205.97
374.79	217.67
374.99	257.46
375.19	271.50
375.38	290.23
375.58	229.37
375.78	259.80
375.97	210.65
376.17	344.06
376.37	259.80
376.56	252.78
376.76	227.03
376.95	262.14
377.15	339.38
377.35	273.84
377.54	255.12
377.74	224.69
377.93	250.44
378.13	299.59
378.33	311.29
378.52	276.18
378.72	327.68
378.91	351.08
379.11	264.48
379.31	318.31
379.50	341.72
379.70	318.31
379.89	294.91
380.09	257.46
380.28	294.91
380.48	290.23
380.68	327.68
380.87	304.27
381.07	313.63
381.26	320.65
381.46	306.61
381.65	308.95
381.85	344.06
382.04	313.63
382.24	351.08
382.43	381.51
382.63	313.63
382.83	379.17
383.02	372.15
383.22	337.04
383.41	339.38
383.61	276.18
383.80	397.89
384.00	365.12
384.19	353.42
384.39	292.57
384.58	404.91
384.78	308.95
384.97	458.74
385.17	346.40
385.36	308.95
385.56	344.06
385.75	421.30
385.95	376.83
386.14	383.85
386.34	393.21
386.53	376.83
386.72	351.08
386.92	456.40
387.11	381.51
387.31	351.08
387.50	379.17
387.70	430.66
387.89	435.34
388.09	372.15
388.28	472.79
388.48	423.64
388.67	505.56
388.86	428.32
389.06	468.11
389.25	486.83
389.45	475.13
389.64	449.38
389.84	461.09
390.03	472.79
390.22	454.06
390.42	428.32
390.61	428.32
390.81	451.72
391.00	468.11
391.19	512.58
391.39	524.28
391.58	573.43
391.78	526.62
391.97	571.09
392.16	486.83
392.36	601.52
392.55	550.03
392.75	491.51
392.94	580.45
393.13	519.60
393.33	575.77
393.52	566.41
393.71	554.71
393.91	528.96
394.10	538.32
394.29	571.09
394.49	608.54
394.68	650.67
394.88	550.03
395.07	535.98
395.26	601.52
395.46	575.77
395.65	528.96
395.84	596.84
396.04	629.60
396.23	624.92
396.42	653.01
396.62	664.71
396.81	678.76
397.00	638.97
397.19	592.16
397.39	653.01
397.58	739.61
397.77	699.82
397.97	641.31
398.16	634.29
398.35	592.16
398.55	645.99
398.74	702.16
398.93	706.84
399.12	662.37
399.32	674.07
399.51	645.99
399.70	744.29
399.90	683.44
400.09	723.23
400.28	777.06
400.47	720.88
400.67	807.48
400.86	695.14
401.05	746.63
401.24	763.01
401.44	793.44
401.63	823.87
401.82	854.30
402.01	835.57
402.21	737.27
402.40	861.32
402.59	774.72
402.78	884.72
402.97	805.14
403.17	854.30
403.36	849.61
403.55	861.32
403.74	875.36
403.93	830.89
404.13	915.15
404.32	868.34
404.51	929.19
404.70	917.49
404.89	926.85
405.09	1015.79
405.28	957.28
405.47	882.38
405.66	1015.79
405.85	990.05
406.05	976.00
406.24	980.68
406.43	1006.43
406.62	1086.01
406.81	1090.69
407.00	910.47
407.20	1001.75
407.39	957.28
407.58	1064.94
407.77	983.02
407.96	992.39
408.15	1041.54
408.34	1081.33
408.54	1188.99
408.73	1111.75
408.92	1043.88
409.11	1128.14
409.30	1181.97
409.49	1048.56
409.68	1224.10
409.87	1128.14
410.07	1184.31
410.26	1247.51
410.45	1231.12
410.64	1219.42
410.83	1151.54
411.02	1289.64
411.21	1053.24
411.40	1107.07
411.59	1231.12
411.78	1259.21
411.98	1273.25
412.17	1186.65
412.36	1247.51
412.55	1235.80
412.74	1294.32
412.93	1324.74
413.12	1397.30
413.31	1401.98
413.50	1352.83
413.69	1409.00
413.88	1441.77
414.07	1472.20
414.26	1366.87
414.45	1406.66
414.64	1509.65
414.83	1486.24
415.02	1453.47
415.22	1577.52
415.41	1469.86
415.60	1650.08
415.79	1631.35
415.98	1596.25
416.17	1619.65
416.36	1640.72
416.55	1582.20
416.74	1673.48
416.93	1687.53
417.12	1610.29
417.31	1717.95
417.50	1619.65
417.69	1844.34
417.88	1739.02
418.07	1755.40
418.26	1708.59
418.45	1678.16
418.64	1795.19
418.83	1877.11
419.02	1799.87
419.21	1771.79
419.39	1785.83
419.58	1813.92
419.77	1764.76
419.96	1806.89
420.15	1785.83
420.34	1802.21
420.53	1928.60
420.72	1881.79
420.91	1914.56
421.10	1912.22
421.29	1926.26
421.48	1879.45
421.67	1888.81
421.86	1973.07
422.05	1968.39
422.24	1921.58
422.43	1956.69
422.61	2026.90
422.80	2059.67
422.99	2071.37
423.18	2003.50
423.37	1935.62
423.56	2012.86
423.75	2038.61
423.94	1987.11
424.13	1902.86
424.32	2010.52
424.50	1998.82
424.69	2118.18
424.88	2078.40
425.07	1998.82
425.26	1998.82
425.45	1966.05
425.64	2015.20
425.83	2040.95
426.01	2050.31
426.20	2022.22
426.39	2118.18
426.58	2069.03
426.77	2120.53
426.96	2064.35
427.15	2064.35
427.33	2111.16
427.52	2010.52
427.71	1977.75
427.90	2209.47
428.09	2017.54
428.28	2155.63
428.46	2167.34
428.65	2193.08
428.84	2190.74
429.03	2214.15
429.22	2148.61
429.40	2165.00
429.59	2321.81
429.78	2218.83
429.97	2260.96
430.16	2181.38
430.34	2249.25
430.53	2298.41
430.72	2380.32
430.91	2324.15
431.10	2385.01
431.28	2333.51
431.47	2244.57
431.66	2415.43
431.85	2361.60
432.03	2438.84
432.22	2520.76
432.41	2408.41
432.60	2499.69
432.79	2504.37
432.97	2480.97
433.16	2583.95
433.35	2452.88
433.54	2368.62
433.72	2396.71
433.91	2473.95
434.10	2485.65
434.28	2445.86
434.47	2560.55
434.66	2574.59
434.85	2668.21
435.03	2665.87
435.22	2614.38
435.41	2731.41
435.59	2689.28
435.78	2689.28
435.97	2738.43
436.16	2675.23
436.34	2607.36
436.53	2703.32
436.72	2677.57
436.90	2448.20
437.09	2708.00
437.28	2813.32
437.46	2722.04
437.65	2583.95
437.84	2658.85
438.02	2902.26
438.21	2729.06
438.40	2612.04
438.58	2850.77
438.77	2881.20
438.96	2825.03
439.14	2883.54
439.33	2913.97
439.52	2963.12
439.70	2953.76
439.89	3091.85
440.08	3019.29
440.26	3000.57
440.45	3026.31
440.63	3103.55
440.82	3162.06
441.01	3112.91
441.19	3098.87
441.38	3178.45
441.57	3199.51
441.75	3258.03
441.94	3318.88
442.12	3330.58
442.31	3272.07
442.50	3325.90
442.68	3260.37
442.87	3265.05
443.05	3272.07
443.24	3414.84
443.43	3337.60
443.61	3419.52
443.80	3445.27
443.98	3283.77
444.17	3218.24
444.35	3475.70
444.54	3375.05
444.73	3400.80
444.91	3468.67
445.10	3456.97
445.28	3321.22
445.47	3454.63
445.65	3358.67
445.84	3485.06
446.02	3552.93
446.21	3508.46
446.39	3316.54
446.58	3508.46
446.77	3351.65
446.95	3419.52
447.14	3510.80
447.32	3471.01
447.51	3571.66
447.69	3459.31
447.88	3576.34
448.06	3431.23
448.25	3478.04
448.43	3571.66
448.62	3440.59
448.80	3487.40
448.99	3672.30
449.17	3538.89
449.36	3492.08
449.54	3726.13
449.73	3700.39
449.91	3679.32
450.10	3730.81
450.28	3522.51
450.46	3618.47
450.65	3721.45
450.83	3686.34
451.02	3786.99
451.20	3749.54
451.39	3845.50
451.57	3911.04
451.76	3712.09
451.94	3810.39
452.13	3838.48
452.31	3733.15
452.49	3726.13
452.68	3852.52
452.86	3824.44
453.05	3871.25
453.23	3911.04
453.42	3765.92
453.60	3836.14
453.78	3845.50
453.97	4002.32
454.15	3934.44
454.34	3882.95
454.52	3978.91
454.70	3885.29
454.89	4102.96
455.07	4032.74
455.26	4044.45
455.44	4016.36
455.62	3964.87
455.81	4065.51
455.99	4119.34
456.17	4063.17
456.36	4109.98
456.54	4037.42
456.73	4109.98
456.91	4292.54
457.09	4117.00
457.28	4386.16
457.46	4236.37
457.64	4318.29
457.83	4400.21
458.01	4290.20
458.19	4262.12
458.38	4397.87
458.56	4332.33
458.74	4372.12
458.93	4327.65
459.11	4437.66
459.29	4444.68
459.48	4454.04
459.66	4479.79
459.84	4641.28
460.03	4407.23
460.21	4496.17
460.39	4493.83
460.57	4484.47
460.76	4634.26
460.94	4634.26
461.12	4594.47
461.31	4615.54
461.49	4636.60
461.67	4535.96
461.85	4596.81
462.04	4652.98
462.22	4884.70
462.40	4652.98
462.59	4823.84
462.77	4634.26
462.95	4664.69
463.13	4788.74
463.32	4791.08
463.50	4851.93
463.68	4840.23
463.86	4737.24
464.05	4809.80
464.23	4851.93
464.41	4940.87
464.59	4709.16
464.78	4880.02
464.96	5088.32
465.14	4938.53
465.32	4968.96
465.50	5015.77
465.69	5067.26
465.87	4870.65
466.05	4950.23
466.23	5153.86
466.41	5006.41
466.60	5090.67
466.78	5111.73
466.96	4898.74
467.14	4980.66
467.32	5041.51
467.51	5118.75
467.69	4929.17
467.87	5256.84
468.05	5167.90
468.23	5317.70
468.41	5029.81
468.60	5188.97
468.78	5303.65
468.96	5179.61
469.14	5228.76
469.32	5338.76
469.50	5132.79
469.69	5334.08
469.87	5376.21
470.05	5188.97
470.23	5380.89
470.41	5338.76
470.59	5420.68
470.77	5483.88
470.95	5465.15
471.14	5558.77
471.32	5502.60
471.50	5654.73
471.68	5710.91
471.86	5638.35
472.04	5682.82
472.22	5729.63
472.40	5647.71
472.58	5706.23
472.77	5806.87
472.95	5720.27
473.13	6202.42
473.31	5753.04
473.49	5832.62
473.67	5792.83
473.85	5816.23
474.03	5872.40
474.21	5998.79
474.39	6010.50
474.57	5949.64
474.75	6033.90
474.93	6115.82
475.12	6061.99
475.30	6249.23
475.48	6066.67
475.66	6260.93
475.84	6193.06
476.02	6361.58
476.20	6284.34
476.38	6141.57
476.56	6349.87
476.74	6389.66
476.92	6420.09
477.10	6506.69
477.28	6509.03
477.46	6588.61
477.64	6747.76
477.82	6773.51
478.00	6927.99
478.18	6998.20
478.36	6946.71
478.54	7187.79
478.72	7176.08
478.90	7150.34
479.08	7066.08
479.26	7279.07
479.44	7419.50
479.62	7344.60
479.80	7414.82
479.98	7276.73
480.16	7405.46
480.34	7424.18
480.52	7709.72
480.70	7625.47
480.88	7719.09
481.06	7901.65
481.24	7520.14
481.41	7660.57
481.59	7908.67
481.77	7941.44
481.95	7946.12
482.13	8081.87
482.31	7878.24
482.49	8226.98
482.67	8374.44
482.85	8519.55
483.03	8477.42
483.21	8554.66
483.39	8650.62
483.57	8554.66
483.74	8713.81
483.92	8767.65
484.10	8727.86
484.28	8779.35
484.46	8851.91
484.64	9167.88
484.82	9008.72
485.00	9067.24
485.18	9153.84
485.35	9226.39
485.53	9107.02
485.71	9406.61
485.89	9631.30
486.07	9785.78
486.25	9577.47
486.43	9577.47
486.61	9612.58
486.78	10033.88
486.96	10017.49
487.14	10038.56
487.32	9790.46
487.50	10087.71
487.68	10310.06
487.85	10186.01
488.03	10349.85
488.21	10539.43
488.39	10541.77
488.57	10523.05
488.75	10523.05
488.92	10944.34
489.10	11016.90
489.28	10953.71
489.46	11035.63
489.64	11136.27
489.81	11213.51
489.99	11087.12
490.17	11379.68
490.35	11225.21
490.53	11389.05
490.70	11475.65
490.88	11730.76
491.06	11569.27
491.24	11676.93
491.41	11723.74
491.59	11918.01
491.77	11779.92
491.95	12093.55
492.13	12121.63
492.30	12233.98
492.48	12269.09
492.66	12231.64
492.84	12411.86
493.01	12416.54
493.19	12395.48
493.37	12620.17
493.54	12645.91
493.72	12589.74
493.90	12739.54
494.08	12954.87
494.25	13212.32
494.43	13308.29
494.61	13200.62
494.79	13589.15
494.96	13341.05
495.14	13327.01
495.32	13357.44
495.49	13600.85
495.67	13497.87
495.85	13544.68
496.02	13853.63
496.20	13902.78
496.38	13802.14
496.55	13937.89
496.73	14167.26
496.91	14068.96
497.09	13909.80
497.26	14504.30
497.44	14150.88
497.62	14356.85
497.79	14476.21
497.97	14288.97
498.14	14574.52
498.32	14853.04
498.50	14607.28
498.67	14761.76
498.85	14934.96
499.03	14824.95
499.20	14902.19
499.38	14817.93
499.56	15180.71
499.73	15456.90
499.91	15370.30
500.08	15576.27
500.26	15054.33
500.44	15295.40
500.61	15662.86
500.79	15424.13
500.97	15538.82
501.14	15655.84
501.32	15974.16
501.49	15861.81
501.67	15885.22
501.84	15899.26
502.02	16009.26
502.20	16002.24
502.37	16051.39
502.55	15908.62
502.72	16102.89
502.90	16402.47
503.07	16079.48
503.25	16381.41
503.43	16271.40
503.60	16460.99
503.78	16610.78
503.95	16496.10
504.13	16334.60
504.30	16381.41
504.48	16442.26
504.65	16606.10
504.83	16978.25
505.01	16802.71
505.18	16657.59
505.36	17231.02
505.53	16891.65
505.71	16917.39
505.88	17326.99
506.06	17095.27
506.23	17263.79
506.41	17387.84
506.58	17240.39
506.76	17242.73
506.93	17317.62
507.11	17240.39
507.28	17598.49
507.46	17495.50
507.63	17497.84
507.81	17685.09
507.98	17586.79
508.16	17462.74
508.33	17694.45
508.50	17788.07
508.68	17680.41
508.85	17937.87
509.03	18010.42
509.20	18244.48
509.38	17865.31
509.55	18265.54
509.73	18225.75
509.90	18274.90
510.08	18302.99
510.25	18207.03
510.42	18511.30
510.60	18513.64
510.77	18298.31
510.95	18721.95
511.12	18588.53
511.30	18576.83
511.47	18829.61
511.64	18611.94
511.82	18869.40
511.99	18988.77
512.17	18860.04
512.34	18754.71
512.51	19232.18
512.69	18925.57
512.86	18974.72
513.04	19316.44
513.21	19115.16
513.38	19419.42
513.56	19555.18
513.73	19154.94
513.90	19168.99
514.08	19227.50
514.25	19241.54
514.43	19517.73
514.60	19541.13
514.77	19910.94
514.95	20135.63
515.12	19913.28
515.29	19625.39
515.47	19939.02
515.64	20058.39
515.81	19763.48
515.99	20219.89
516.16	20201.16
516.33	20290.10
516.51	20292.44
516.68	20102.86
516.85	20144.99
517.03	20093.50
517.20	20486.71
517.37	20465.64
517.54	20570.97
517.72	20233.93
517.89	20643.52
518.06	20636.50
518.24	20774.60
518.41	20812.04
518.58	20912.69
518.75	21069.50
518.93	21055.46
519.10	20812.04
519.27	20908.01
519.45	20416.49
519.62	20947.79
519.79	20996.95
519.96	20903.32
520.14	21308.24
520.31	20659.91
520.48	21142.06
520.65	21532.93
520.83	21235.68
521.00	21371.43
521.17	21710.81
521.34	21088.23
521.52	21776.34
521.69	21649.96
521.86	21610.17
522.03	21500.16
522.20	21575.06
522.38	21837.20
522.55	21724.85
522.72	21729.53
522.89	21944.86
523.07	21860.60
523.24	21900.39
523.41	22326.37
523.58	22059.55
523.75	22199.98
523.92	22001.04
524.10	22024.44
524.27	22207.00
524.44	22246.79
524.61	22391.91
524.78	22260.84
524.96	22202.32
525.13	22555.74
525.30	22471.48
525.47	22464.46
525.64	22176.58
525.81	22740.64
525.98	22714.90
526.16	22654.05
526.33	22860.01
526.50	22852.99
526.67	22527.66
526.84	22501.91
527.01	22897.46
527.18	22988.74
527.36	23089.38
527.53	22904.48
527.70	23255.56
527.87	23157.26
528.04	23002.78
528.21	23316.42
528.38	23232.16
528.55	23077.68
528.72	23262.58
528.89	23297.69
529.07	23438.12
529.24	23321.10
529.41	23227.48
529.58	23257.90
529.75	23534.09
529.92	23271.95
530.09	23396.00
530.26	23332.80
530.43	23749.42
530.60	23580.90
530.77	23620.69
530.94	23489.62
531.11	23611.32
531.28	23901.55
531.46	23566.85
531.63	23976.45
531.80	23957.72
531.97	24037.30
532.14	24159.01
532.31	23618.35
532.48	24023.26
532.65	23992.83
532.82	24168.37
532.99	24081.77
533.16	24198.80
533.33	24460.94
533.50	24360.30
533.67	24357.96
533.84	24002.19
534.01	24350.93
534.18	24474.98
534.35	24346.25
534.52	24044.32
534.69	24751.17
534.86	24346.25
535.03	24449.24
535.20	24638.82
535.37	24613.07
535.54	24627.12
535.71	24788.61
535.88	24381.36
536.05	24690.31
536.22	24671.59
536.38	24800.32
536.55	25041.39
536.72	25041.39
536.89	24727.76
537.06	24407.11
537.23	24947.77
537.40	24933.73
537.57	25144.38
537.74	25151.40
537.91	25607.80
538.08	25268.42
538.25	25205.23
538.42	25315.23
538.59	25223.95
538.75	25081.18
538.92	25266.08
539.09	25439.28
539.26	25174.80
539.43	25647.59
539.60	25645.25
539.77	25472.05
539.94	25582.06
540.11	25104.59
540.28	25579.71
540.44	25640.57
540.61	25289.49
540.78	25331.62
540.95	25773.98
541.12	25340.98
541.29	26012.71
541.46	25642.91
541.62	25441.62
541.79	25701.42
541.96	25420.56
542.13	25303.53
542.30	25757.60
542.47	25516.52
542.63	25883.98
542.80	26244.43
542.97	26221.02
543.14	26628.27
543.31	26101.65
543.48	25930.80
543.64	26710.19
543.81	26555.72
543.98	26068.89
544.15	26169.53
544.32	26302.94
544.48	26522.95
544.65	26370.82
544.82	26139.10
544.99	26298.26
545.16	26560.40
545.32	26253.79
545.49	26817.86
545.66	26808.50
545.83	26623.59
546.00	26693.81
546.16	26529.97
546.33	26522.95
546.50	26228.04
546.67	26328.69
546.83	26324.01
547.00	26747.64
547.17	26579.12
547.34	26761.69
547.50	26843.60
547.67	27318.73
547.84	26972.33
548.00	27047.23
548.17	27232.13
548.34	27033.19
548.51	27154.90
548.67	27421.72
548.84	27417.04
549.01	27138.51
549.18	27098.72
549.34	27070.64
549.51	27133.83
549.68	27152.55
549.84	27295.33
550.01	26796.79
550.18	27140.85
550.34	27192.34
550.51	27559.81
550.68	27276.60
550.84	27103.40
551.01	27386.61
551.18	27070.64
551.34	27140.85
551.51	27115.11
551.68	27295.33
551.84	27402.99
552.01	27161.92
552.18	27688.54
552.34	27791.52
552.51	27585.55
552.68	27772.80
552.84	27613.64
553.01	27513.00
553.18	27524.70
553.34	27782.16
553.51	27484.91
553.67	28048.98
553.84	27803.22
554.01	27992.81
554.17	28025.57
554.34	27681.52
554.51	27885.14
554.67	28030.26
554.84	27953.02
555.00	28023.23
555.17	27934.29
555.33	28009.19
555.50	28053.66
555.67	27810.25
555.83	27974.08
556.00	27847.69
556.16	28229.20
556.33	28236.22
556.50	27871.10
556.66	27976.42
556.83	28336.87
556.99	28109.83
557.16	28390.70
557.32	28467.94
557.49	28472.62
557.65	28460.91
557.82	28133.24
557.98	28205.80
558.15	28240.90
558.32	28496.02
558.48	28250.27
558.65	28292.40
558.81	28599.01
558.98	28723.05
559.14	28304.10
559.31	28430.49
559.47	28631.77
559.64	28514.75
559.80	28678.58
559.97	28840.08
560.13	28388.36
560.30	28278.35
560.46	28802.63
560.63	28402.40
560.79	28566.24
560.96	28989.88
561.12	28493.68
561.29	28727.74
561.45	28737.10
561.61	29188.82
561.78	28739.44
561.94	28945.41
562.11	28751.14
562.27	28591.98
562.44	28912.64
562.60	28968.81
562.77	28662.20
562.93	28418.78
563.10	29102.22
563.26	28587.30
563.42	29198.18
563.59	28746.46
563.75	28987.53
563.92	29053.07
564.08	28975.83
564.24	29116.26
564.41	28699.65
564.57	28765.18
564.74	29151.37
564.90	29228.61
565.07	29067.11
565.23	28868.17
565.39	29041.37
565.56	28842.42
565.72	29186.48
565.88	28800.29
566.05	28966.47
566.21	29120.95
566.38	29303.51
566.54	29006.26
566.70	29221.59
566.87	29418.19
567.03	29186.48
567.19	29380.74
567.36	29399.47
567.52	29228.61
567.68	29457.98
567.85	28903.28
568.01	29301.17
568.17	29081.16
568.34	29057.75
568.50	29099.88
568.66	28926.68
568.83	29502.45
568.99	28858.81
569.15	29418.19
569.32	29294.14
569.48	29216.91
569.64	29488.41
569.81	29380.74
569.97	29628.84
570.13	29434.58
570.30	29198.18
570.46	29202.86
570.62	29132.65
570.78	29303.51
570.95	29064.77
571.11	29317.55
571.27	28823.70
571.43	29256.70
571.60	29378.40
571.76	29619.48
571.92	29752.89
572.09	29656.93
572.25	29378.40
572.41	29530.54
572.57	29366.70
572.74	29434.58
572.90	29195.84
573.06	29635.86
573.22	29083.50
573.38	29284.78
573.55	29481.39
573.71	29736.51
573.87	29670.97
574.03	29373.72
574.20	29670.97
574.36	29184.14
574.52	29186.48
574.68	29523.52
574.84	29605.44
575.01	29347.98
575.17	29425.22
575.33	29759.91
575.49	29392.45
575.65	29680.33
575.82	29867.58
575.98	29525.86
576.14	29752.89
576.30	29343.30
576.46	29535.22
576.62	29310.53
576.79	29771.61
576.95	29511.81
577.11	29649.91
577.27	29598.41
577.43	29860.55
577.59	29668.63
577.75	29511.81
577.92	29350.32
578.08	29509.47
578.24	29352.66
578.40	29291.80
578.56	29497.77
578.72	29722.46
578.88	29780.98
579.04	29876.94
579.21	29443.94
579.37	29773.95
579.53	29841.83
579.69	29549.26
579.85	29394.79
580.01	29654.59
580.17	29275.42
580.33	29675.65
580.49	29727.14
580.65	29741.19
580.82	29614.80
580.98	29530.54
581.14	29860.55
581.30	29654.59
581.46	29528.20
581.62	29661.61
581.78	29359.68
581.94	29766.93
582.10	29558.63
582.26	29457.98
582.42	29958.86
582.58	29823.11
582.74	29783.32
582.90	29511.81
583.06	29778.64
583.22	29907.37
583.38	29755.23
583.54	30050.14
583.70	29631.18
583.86	29771.61
584.02	29647.57
584.18	29972.90
584.34	29750.55
584.50	29881.62
584.66	30036.09
584.82	29572.67
584.98	29757.57
585.14	29701.40
585.30	29481.39
585.46	29603.10
585.62	29832.47
585.78	29776.30
585.94	29394.79
586.10	29514.16
586.26	29989.28
586.42	30029.07
586.58	29827.79
586.74	29921.41
586.90	30141.42
587.06	29479.05
587.22	29626.50
587.38	29862.90
587.54	29923.75
587.70	29832.47
587.86	30164.82
588.02	30155.46
588.18	30480.80
588.34	30235.04
588.49	29710.76
588.65	29605.44
588.81	29982.26
588.97	29961.20
589.13	29846.51
589.29	30122.69
589.45	29853.53
589.61	30129.72
589.77	30483.14
589.93	29930.77
590.08	30031.41
590.24	30354.41
590.40	30251.42
590.56	30096.95
590.72	30174.19
590.88	30010.35
591.04	30291.21
591.20	30373.13
591.35	30485.48
591.51	30565.06
591.67	30450.37
591.83	30426.96
591.99	29947.15
592.15	30216.32
592.31	30078.22
592.46	29954.18
592.62	30073.54
592.78	30010.35
592.94	30412.92
593.10	30277.17
593.26	29921.41
593.41	30295.89
593.57	29979.92
593.73	30368.45
593.89	30363.77
594.05	30209.29
594.20	30433.99
594.36	30148.44
594.52	30312.28
594.68	29949.50
594.84	30120.35
594.99	30321.64
595.15	30118.01
595.31	30714.85
595.47	30323.98
595.62	30469.09
595.78	30223.34
595.94	30403.56
596.10	29991.62
596.25	30136.74
596.41	30422.28
596.57	30527.61
596.73	30206.95
596.88	30099.29
597.04	30295.89
597.20	30803.79
597.36	30565.06
597.51	30546.33
597.67	30256.11
597.83	30298.23
597.99	30590.80
598.14	30125.04
598.30	30445.69
598.46	30162.48
598.61	30735.92
598.77	30485.48
598.93	30548.67
599.09	30277.17
599.24	30862.30
599.40	30323.98
599.56	30218.66
599.71	30506.54
599.87	30529.95
600.03	30433.99
600.18	29876.94
600.34	30307.60
600.50	29984.60
600.65	30221.00
600.81	30448.03
600.97	30520.59
601.12	30419.94
601.28	30422.28
601.44	30548.67
601.59	30644.63
601.75	30197.59
601.91	30237.38
602.06	30272.49
602.22	30471.43
602.37	30675.06
602.53	30448.03
602.69	30188.23
602.84	30506.54
603.00	30541.65
603.16	30646.97
603.31	30340.36
603.47	30429.30
603.62	30099.29
603.78	30342.70
603.94	30485.48
604.09	30281.85
604.25	30553.35
604.40	30312.28
604.56	30192.91
604.71	30466.75
604.87	30459.73
605.03	30506.54
605.18	30373.13
605.34	30490.16
605.49	29937.79
605.65	30347.39
605.80	30153.12
605.96	30099.29
606.12	29993.97
606.27	30588.46
606.43	29923.75
606.58	30052.48
606.74	30616.55
606.89	30078.22
607.05	30677.40
607.20	30462.07
607.36	30417.60
607.51	29975.24
607.67	30284.19
607.82	29696.72
607.98	30272.49
608.13	30665.70
608.29	29949.50
608.44	29970.56
608.60	30286.53
608.75	30380.15
608.91	30197.59
609.06	30054.82
609.22	30323.98
609.37	29745.87
609.53	30333.34
609.68	30099.29
609.84	30017.37
609.99	30239.72
610.15	30068.86
610.30	30314.62
610.46	29862.90
610.61	30167.16
610.76	30059.50
610.92	30293.55
611.07	30036.09
611.23	29776.30
611.38	29420.53
611.54	29745.87
611.69	29949.50
611.84	29883.96
612.00	29757.57
612.15	29944.81
612.31	30057.16
612.46	30277.17
612.62	30047.80
612.77	29575.01
612.92	30008.01
613.08	30073.54
613.23	29968.22
613.39	29593.73
613.54	29586.71
613.69	30075.88
613.85	29532.88
614.00	29802.04
614.15	29979.92
614.31	29724.80
614.46	29773.95
614.62	29666.29
614.77	29685.01
614.92	30157.80
615.08	29905.02
615.23	29853.53
615.38	29841.83
615.54	29233.29
615.69	29776.30
615.84	29268.40
616.00	29436.92
616.15	29692.04
616.30	29853.53
616.46	29465.00
616.61	29500.11
616.76	29699.06
616.92	29652.25
617.07	29450.96
617.22	29427.56
617.37	29151.37
617.53	29544.58
617.68	29235.63
617.83	29104.56
617.99	29329.25
618.14	29282.44
618.29	29111.58
618.45	29446.28
618.60	29371.38
618.75	29270.74
618.90	29394.79
619.06	29685.01
619.21	29092.86
619.36	29032.00
619.51	29092.86
619.67	28847.10
619.82	28863.49
619.97	29081.16
620.12	29039.03
620.28	29151.37
620.43	29324.57
620.58	29502.45
620.73	28975.83
620.89	29219.25
621.04	29619.48
621.19	29235.63
621.34	29184.14
621.49	28814.34
621.65	28858.81
621.80	29221.59
621.95	29083.50
622.10	28959.45
622.25	28786.25
622.41	28577.94
622.56	28957.11
622.71	29127.97
622.86	28971.15
623.01	28781.57
623.16	28769.86
623.32	28706.67
623.47	29090.52
623.62	28591.98
623.77	28446.87
623.92	29022.64
624.07	28819.02
624.23	28753.48
624.38	29116.26
624.53	28685.61
624.68	28996.90
624.83	28964.13
624.98	29212.23
625.13	28732.42
625.29	28826.04
625.44	28994.56
625.59	28718.37
625.74	28402.40
625.89	28283.03
626.04	28283.03
626.19	28336.87
626.34	28559.22
626.49	28278.35
626.65	28409.42
626.80	29024.98
626.95	28521.77
627.10	28535.81
627.25	28601.35
627.40	28290.06
627.55	28481.98
627.70	28105.15
627.85	28119.20
628.00	28184.73
628.15	28587.30
628.30	28095.79
628.45	28116.86
628.60	28243.24
628.76	28226.86
628.91	28245.58
629.06	28217.50
629.21	28306.44
629.36	28470.28
629.51	28210.48
629.66	28032.60
629.81	28098.13
629.96	27950.68
630.11	28161.33
630.26	27969.40
630.41	28257.29
630.56	27749.39
630.71	28261.97
630.86	28416.44
631.01	28002.17
631.16	27957.70
631.31	27833.65
631.46	28034.94
631.61	28194.09
631.76	28390.70
631.91	27686.20
632.06	27573.85
632.21	27632.36
632.36	27749.39
632.51	27688.54
632.66	27676.83
632.81	27714.28
632.96	27803.22
633.10	28011.53
633.25	28219.84
633.40	27999.83
633.55	27992.81
633.70	27683.86
633.85	27147.87
634.00	27583.21
634.15	27449.80
634.30	27419.38
634.45	27304.69
634.60	27730.67
634.75	27571.51
634.90	27576.19
635.05	27679.18
635.19	27896.85
635.34	27641.73
635.49	27637.05
635.64	27742.37
635.79	27744.71
635.94	27702.58
636.09	27379.59
636.24	27246.18
636.39	27232.13
636.53	27168.94
636.68	27208.73
636.83	27501.29
636.98	27585.55
637.13	27028.51
637.28	27178.30
637.43	27398.31
637.57	27381.93
637.72	27204.05
637.87	27468.53
638.02	27161.92
638.17	27171.28
638.32	27161.92
638.46	27000.42
638.61	27042.55
638.76	27168.94
638.91	27035.53
639.06	27379.59
639.20	27232.13
639.35	27211.07
639.50	27218.09
639.65	27407.67
639.80	27178.30
639.94	27126.81
640.09	27199.37
640.24	27192.34
640.39	26859.99
640.54	26759.34
640.68	26813.18
640.83	26803.82
640.98	26705.51
641.13	26630.62
641.27	27122.13
641.42	26888.07
641.57	26665.72
641.72	26766.37
641.86	26534.65
642.01	26576.78
642.16	26836.58
642.31	26731.26
642.45	26740.62
642.60	26590.83
642.75	26576.78
642.90	26146.12
643.04	26544.02
643.19	26476.14
643.34	26630.62
643.48	26272.51
643.63	26485.50
643.78	26682.11
643.93	26764.03
644.07	26506.57
644.22	26616.57
644.37	26431.67
644.51	26565.08
644.66	26424.65
644.81	26551.04
644.95	26415.29
645.10	26363.79
645.25	26576.78
645.39	26291.24
645.54	26574.44
645.69	26422.31
645.83	26408.26
645.98	25965.90
646.13	26609.55
646.27	26532.31
646.42	26099.31
646.57	26195.28
646.71	26162.51
646.86	26141.44
647.00	26387.20
647.15	26408.26
647.30	25617.16
647.44	25682.70
647.59	25982.29
647.74	26113.36
647.88	25656.95
648.03	26176.55
648.17	26366.13
648.32	26513.59
648.47	26272.51
648.61	26178.89
648.76	26312.30
648.90	26157.83
649.05	25968.24
649.20	25907.39
649.34	25965.90
649.49	25518.86
649.63	25811.43
649.78	25415.88
649.92	26064.21
650.07	25766.96
650.21	26059.52
650.36	25528.22
650.51	25720.15
650.65	25837.17
650.80	25792.70
650.94	25839.51
651.09	25706.10
651.23	25481.41
651.38	25642.91
651.52	25671.00
651.67	25535.24
651.81	25720.15
651.96	25769.30
652.10	25649.93
652.25	25542.27
652.39	25617.16
652.54	25511.84
652.68	25776.32
652.83	25825.47
652.97	25628.87
653.12	25724.83
653.26	25518.86
653.41	25476.73
653.55	25322.26
653.70	25757.60
653.84	25467.37
653.99	25455.67
654.13	25319.92
654.27	25305.87
654.42	25085.86
654.56	25439.28
654.71	25418.22
654.85	25256.72
655.00	25467.37
655.14	25399.49
655.29	25046.07
655.43	24933.73
655.57	25268.42
655.72	25111.61
655.86	25500.14
656.01	25626.53
656.15	25230.98
656.30	25102.25
656.44	25200.55
656.58	24905.64
656.73	24879.89
656.87	24980.54
657.01	24943.09
657.16	25350.34
657.30	24936.07
657.45	25017.99
657.59	25074.16
657.73	24877.55
657.88	25252.04
658.02	24884.58
658.16	25088.20
658.31	25039.05
658.45	24676.27
658.60	24596.69
658.74	24816.70
658.88	24624.78
659.03	24673.93
659.17	24943.09
659.31	24704.35
659.46	24861.17
659.60	25036.71
659.74	24669.25
659.89	24713.72
660.03	24535.84
660.17	24950.11
660.32	24584.99
660.46	24489.03
660.60	24194.12
660.74	24119.22
660.89	24299.44
661.03	24325.19
661.17	24367.32
661.32	24376.68
661.46	24734.78
661.60	24528.81
661.74	24414.13
661.89	24489.03
662.03	24437.53
662.17	24100.50
662.31	23988.15
662.46	23854.74
662.60	23779.84
662.74	24025.60
662.88	23793.89
663.03	23742.39
663.17	23761.12
663.31	23665.16
663.45	23744.73
663.60	23761.12
663.74	23824.31
663.88	23878.15
664.02	23559.83
664.17	23562.17
664.31	23655.79
664.45	23468.55
664.59	23697.92
664.73	23592.60
664.88	23573.88
665.02	22920.87
665.16	23482.59
665.30	23164.28
665.44	23370.25
665.59	23089.38
665.73	23386.63
665.87	23206.41
666.01	23335.14
666.15	23311.74
666.29	23185.35
666.44	23239.18
666.58	23103.43
666.72	23154.92
666.86	23105.77
667.00	23288.33
667.14	22796.82
667.28	23108.11
667.43	23073.00
667.57	22988.74
667.71	22820.22
667.85	22899.80
667.99	22649.36
668.13	22672.77
668.27	22977.04
668.41	22831.93
668.56	22834.27
668.70	23002.78
668.84	22878.74
668.98	22824.90
669.12	22682.13
669.26	22628.30
669.40	22139.13
669.54	22532.34
669.68	22455.10
669.82	22328.71
669.96	22256.15
670.10	22288.92
670.25	22207.00
670.39	22216.36
670.53	22246.79
670.67	21785.71
670.81	22312.33
670.95	22068.91
671.09	22375.52
671.23	21984.65
671.37	22038.48
671.51	21699.11
671.65	22202.32
671.79	21902.73
671.93	21392.50
672.07	21722.51
672.21	21741.24
672.35	21612.51
672.49	21238.02
672.63	21586.76
672.77	21324.62
672.91	21816.13
673.05	21713.15
673.19	21399.52
673.33	21383.13
673.47	21958.91
673.61	21191.21
673.75	21565.70
673.89	21509.52
674.03	21118.65
674.17	21343.35
674.31	21102.27
674.45	21153.76
674.59	21135.04
674.73	21280.15
674.87	20959.50
675.01	20996.95
675.15	21135.04
675.29	20786.30
675.43	20575.65
675.56	20950.14
675.70	20727.78
675.84	20631.82
675.98	20252.66
676.12	20891.62
676.26	20652.89
676.40	20678.63
676.54	20659.91
676.68	20533.52
676.82	20121.59
676.96	20458.62
677.10	20329.89
677.23	20107.54
677.37	19899.23
677.51	19917.96
677.65	20056.05
677.79	19810.29
677.93	19740.08
678.07	19936.68
678.21	19711.99
678.34	19618.37
678.48	19782.21
678.62	19672.20
678.76	19763.48
678.90	19503.68
679.04	19524.75
679.18	19501.34
679.31	19297.72
679.45	19267.29
679.59	18953.66
679.73	19021.53
679.87	19028.56
680.00	18883.44
680.14	18963.02
680.28	19094.09
680.42	18911.53
680.56	18721.95
680.70	18738.33
680.83	18726.63
680.97	18820.25
681.11	18759.39
681.25	18860.04
681.39	18485.55
681.52	18621.30
681.66	18338.10
681.80	18511.30
681.94	18480.87
682.07	18338.10
682.21	18307.67
682.35	18024.47
682.49	18059.57
682.62	18092.34
682.76	17804.46
682.90	17935.53
683.04	18111.07
683.17	17722.54
683.31	18010.42
683.45	18085.32
683.59	17855.95
683.72	17797.43
683.86	17734.24
684.00	17493.16
684.13	17837.22
684.27	17224.00
684.41	17216.98
684.55	17312.94
684.68	16994.63
684.82	17261.45
684.96	17053.14
685.09	16622.48
685.23	16734.83
685.37	17081.23
685.50	17165.49
685.64	17118.68
685.78	17104.64
685.91	16912.71
686.05	16673.98
686.19	16751.21
686.32	17109.32
686.46	16709.08
686.60	16219.91
686.73	16603.76
686.87	16578.01
687.01	16255.02
687.14	16297.15
687.28	16360.34
687.42	16135.65
687.55	16191.83
687.69	16091.18
687.82	16273.74
687.96	15981.18
688.10	15854.79
688.23	15840.75
688.37	15765.85
688.50	15697.97
688.64	15761.17
688.78	15782.23
688.91	15583.29
689.05	15749.46
689.18	15660.52
689.32	15370.30
689.46	15143.27
689.59	15243.91
689.73	15309.44
689.86	15063.69
690.00	15061.35
690.13	15082.41
690.27	15136.24
690.41	15126.88
690.54	15257.95
690.68	15073.05
690.81	15309.44
690.95	15033.26
691.08	14817.93
691.22	14824.95
691.35	15084.75
691.49	14841.34
691.62	14508.98
691.76	14436.42
691.89	14462.17
692.03	14396.64
692.16	14328.76
692.30	14092.37
692.43	14188.33
692.57	13989.38
692.70	14094.71
692.84	14066.62
692.97	14071.30
693.11	13858.31
693.24	13980.02
693.38	14019.81
693.51	13823.20
693.65	13860.65
693.78	13575.11
693.92	13668.73
694.05	13717.88
694.19	13509.57
694.32	13598.51
694.45	13411.27
694.59	13114.02
694.72	13076.57
694.86	13310.63
694.99	12973.59
695.13	13067.21
695.26	13268.50
695.39	13067.21
695.53	13261.48
695.66	13273.18
695.80	13130.41
695.93	13102.32
696.07	12999.34
696.20	12847.20
696.33	12879.97
696.47	12706.77
696.60	12622.51
696.73	12622.51
696.87	12652.94
697.00	12671.66
697.14	12257.39
697.27	12114.61
697.40	12325.26
697.54	12226.96
697.67	12294.83
697.80	12131.00
697.94	12100.57
698.07	12276.11
698.21	11960.14
698.34	11992.90
698.47	11950.78
698.61	11910.99
698.74	11955.46
698.87	12072.48
699.01	11812.68
699.14	11630.12
699.27	11808.00
699.40	11702.68
699.54	11829.07
699.67	11733.11
699.80	11606.72
699.94	11215.85
700.07	11414.79
700.20	11101.16
700.34	11101.16
700.47	11353.94
700.60	11190.10
700.73	11199.46
700.87	10939.66
701.00	10998.18
701.13	11194.78
701.26	11007.54
701.40	11009.88
701.53	10920.94
701.66	10970.09
701.79	10899.87
701.93	10726.68
702.06	10792.21
702.19	10714.97
702.32	10686.89
702.46	10422.41
702.59	10424.75
702.72	10431.77
702.85	10406.02
702.99	10422.41
703.12	10335.81
703.25	10218.78
703.38	10094.73
703.51	10284.31
703.65	9951.96
703.78	9989.41
703.91	10139.20
704.04	10094.73
704.17	10242.18
704.31	10054.94
704.44	10047.92
704.57	9989.41
704.70	9825.57
704.83	9593.86
704.96	9631.30
705.10	9451.08
705.23	9778.76
>>>>>End Processed Spectral Data<<<<<
