SpectraSuite Data File
++++++++++++++++++++++++++++++++++++
Date: Fri Oct 18 13:58:28 GMT-05:00 2013
User: bianchi
Dark Spectrum Present: No
Reference Spectrum Present: No
Number of Sampled Component Spectra: 1
Spectrometers: USB2+H05261
Integration Time (usec): 50000 (USB2+H05261)
Spectra Averaged: 1 (USB2+H05261)
Boxcar Smoothing: 0 (USB2+H05261)
Correct for Electrical Dark: No (USB2+H05261)
Strobe/Lamp Enabled: No (USB2+H05261)
Correct for Detector Non-linearity: No (USB2+H05261)
Correct for Stray Light: No (USB2+H05261)
Number of Pixels in Processed Spectrum: 2048
>>>>>Begin Processed Spectral Data<<<<<
365.73	0.00
365.92	0.00
366.12	0.00
366.32	0.00
366.52	0.00
366.72	0.00
366.91	0.00
367.11	0.00
367.31	0.00
367.51	0.00
367.70	0.00
367.90	0.00
368.10	0.00
368.30	0.00
368.49	0.00
368.69	0.00
368.89	0.00
369.09	0.00
369.28	0.00
369.48	0.00
369.68	0.00
369.87	0.00
370.07	0.00
370.27	0.00
370.47	0.00
370.66	42.13
370.86	98.30
371.06	114.69
371.25	243.42
371.45	121.71
371.65	102.98
371.84	159.16
372.04	205.97
372.24	142.77
372.44	203.63
372.63	236.39
372.83	241.08
373.03	156.82
373.22	201.29
373.42	224.69
373.62	224.69
373.81	140.43
374.01	262.14
374.21	189.58
374.40	285.55
374.60	241.08
374.79	290.23
374.99	210.65
375.19	184.90
375.38	203.63
375.58	313.63
375.78	325.33
375.97	152.13
376.17	290.23
376.37	243.42
376.56	201.29
376.76	227.03
376.95	294.91
377.15	271.50
377.35	262.14
377.54	224.69
377.74	273.84
377.93	278.52
378.13	245.76
378.33	266.82
378.52	304.27
378.72	283.20
378.91	290.23
379.11	259.80
379.31	266.82
379.50	283.20
379.70	264.48
379.89	292.57
380.09	276.18
380.28	339.38
380.48	276.18
380.68	358.10
380.87	393.21
381.07	255.12
381.26	327.68
381.46	283.20
381.65	255.12
381.85	238.73
382.04	311.29
382.24	358.10
382.43	287.89
382.63	271.50
382.83	379.17
383.02	285.55
383.22	365.12
383.41	367.46
383.61	334.70
383.80	369.80
384.00	355.76
384.19	334.70
384.39	360.44
384.58	264.48
384.78	339.38
384.97	416.62
385.17	381.51
385.36	353.42
385.56	330.02
385.75	334.70
385.95	411.93
386.14	376.83
386.34	318.31
386.53	383.85
386.72	285.55
386.92	482.15
387.11	454.06
387.31	402.57
387.50	393.21
387.70	358.10
387.89	395.55
388.09	400.23
388.28	404.91
388.48	472.79
388.67	402.57
388.86	423.64
389.06	477.47
389.25	430.66
389.45	510.24
389.64	461.09
389.84	397.89
390.03	428.32
390.22	454.06
390.42	465.77
390.61	491.51
390.81	496.19
391.00	521.94
391.19	503.22
391.39	500.87
391.58	472.79
391.78	519.60
391.97	500.87
392.16	440.02
392.36	554.71
392.55	528.96
392.75	510.24
392.94	573.43
393.13	484.49
393.33	475.13
393.52	524.28
393.71	543.00
393.91	589.82
394.10	498.53
394.29	456.40
394.49	514.92
394.68	641.31
394.88	578.11
395.07	718.54
395.26	594.50
395.46	650.67
395.65	617.90
395.84	734.93
396.04	699.82
396.23	648.33
396.42	706.84
396.62	601.52
396.81	575.77
397.00	543.00
397.19	695.14
397.39	631.94
397.58	634.29
397.77	601.52
397.97	664.71
398.16	732.59
398.35	695.14
398.55	765.36
398.74	734.93
398.93	737.27
399.12	713.86
399.32	727.91
399.51	767.70
399.70	812.17
399.90	697.48
400.09	744.29
400.28	774.72
400.47	718.54
400.67	816.85
400.86	791.10
401.05	781.74
401.24	751.31
401.44	767.70
401.63	809.83
401.82	809.83
402.01	758.33
402.21	777.06
402.40	870.68
402.59	765.36
402.78	819.19
402.97	793.44
403.17	940.90
403.36	866.00
403.55	856.64
403.74	880.04
403.93	866.00
404.13	966.64
404.32	915.15
404.51	880.04
404.70	926.85
404.89	887.06
405.09	1050.90
405.28	966.64
405.47	837.91
405.66	917.49
405.85	924.51
406.05	926.85
406.24	912.81
406.43	976.00
406.62	1001.75
406.81	1022.81
407.00	1083.67
407.20	952.60
407.39	985.37
407.58	1008.77
407.77	1048.56
407.96	1011.11
408.15	957.28
408.34	1027.50
408.54	1011.11
408.73	1076.65
408.92	1142.18
409.11	1104.73
409.30	1128.14
409.49	1144.52
409.68	1050.90
409.87	1100.05
410.07	1228.78
410.26	1219.42
410.45	1135.16
410.64	1123.46
410.83	1109.41
411.02	1235.80
411.21	1291.98
411.40	1240.48
411.59	1207.72
411.78	1151.54
411.98	1158.57
412.17	1291.98
412.36	1254.53
412.55	1299.00
412.74	1256.87
412.93	1320.06
413.12	1270.91
413.31	1359.85
413.50	1380.92
413.69	1439.43
413.88	1357.51
414.07	1430.07
414.26	1420.71
414.45	1411.34
414.64	1373.89
414.83	1458.15
415.02	1453.47
415.22	1458.15
415.41	1554.12
415.60	1497.94
415.79	1561.14
415.98	1626.67
416.17	1638.38
416.36	1488.58
416.55	1591.56
416.74	1528.37
416.93	1659.44
417.12	1626.67
417.31	1600.93
417.50	1643.06
417.69	1771.79
417.88	1762.42
418.07	1715.61
418.26	1722.63
418.45	1732.00
418.64	1781.15
418.83	1788.17
419.02	1732.00
419.21	1844.34
419.39	1748.38
419.58	1732.00
419.77	1818.60
419.96	1879.45
420.15	1907.54
420.34	1778.81
420.53	1806.89
420.72	1830.30
420.91	1809.23
421.10	1959.03
421.29	1893.49
421.48	1860.73
421.67	1944.99
421.86	1860.73
422.05	1933.28
422.24	1933.28
422.43	1947.33
422.61	2066.69
422.80	1942.64
422.99	1975.41
423.18	1937.96
423.37	2003.50
423.56	1886.47
423.75	1949.67
423.94	1902.86
424.13	1853.70
424.32	1832.64
424.50	1947.33
424.69	2022.22
424.88	2062.01
425.07	1853.70
425.26	1984.77
425.45	2019.88
425.64	1956.69
425.83	1923.92
426.01	2005.84
426.20	1994.14
426.39	2069.03
426.58	2036.27
426.77	1959.03
426.96	2085.42
427.15	2071.37
427.33	2143.93
427.52	2033.93
427.71	2073.71
427.90	2167.34
428.09	2008.18
428.28	2197.76
428.46	2190.74
428.65	2059.67
428.84	2195.42
429.03	2251.60
429.22	2148.61
429.40	2179.04
429.59	2310.11
429.78	2174.36
429.97	2132.23
430.16	2092.44
430.34	2214.15
430.53	2286.70
430.72	2340.54
430.91	2139.25
431.10	2370.96
431.28	2305.43
431.47	2342.88
431.66	2424.80
431.85	2326.49
432.03	2431.82
432.22	2347.56
432.41	2359.26
432.60	2466.92
432.79	2417.77
432.97	2396.71
433.16	2399.05
433.35	2417.77
433.54	2394.37
433.72	2450.54
433.91	2478.63
434.10	2452.88
434.28	2483.31
434.47	2422.45
434.66	2499.69
434.85	2551.18
435.03	2621.40
435.22	2539.48
435.41	2731.41
435.59	2572.25
435.78	2775.88
435.97	2647.15
436.16	2576.93
436.34	2642.46
436.53	2740.77
436.72	2736.09
436.90	2738.43
437.09	2740.77
437.28	2527.78
437.46	2766.51
437.65	2644.81
437.84	2635.44
438.02	2637.78
438.21	2808.64
438.40	2771.19
438.58	2757.15
438.77	2799.28
438.96	2829.71
439.14	2902.26
439.33	2860.13
439.52	2780.56
439.70	2909.29
439.89	3045.04
440.08	2918.65
440.26	2780.56
440.45	2918.65
440.63	2942.05
440.82	3068.44
441.01	2981.84
441.19	3187.81
441.38	3171.43
441.57	3265.05
441.75	3218.24
441.94	3098.87
442.12	3150.36
442.31	3274.41
442.50	3269.73
442.68	3234.62
442.87	3098.87
443.05	3316.54
443.24	3344.63
443.43	3166.74
443.61	3307.18
443.80	3384.41
443.98	3243.98
444.17	3201.85
444.35	3339.94
444.54	3454.63
444.73	3370.37
444.91	3421.86
445.10	3297.81
445.28	3293.13
445.47	3365.69
445.65	3262.71
445.84	3332.92
446.02	3459.31
446.21	3335.26
446.39	3400.80
446.58	3463.99
446.77	3342.28
446.95	3349.31
447.14	3550.59
447.32	3513.14
447.51	3370.37
447.69	3480.38
447.88	3442.93
448.06	3492.08
448.25	3281.43
448.43	3550.59
448.62	3424.20
448.80	3421.86
448.99	3510.80
449.17	3609.11
449.36	3534.21
449.54	3653.58
449.73	3543.57
449.91	3592.72
450.10	3597.40
450.28	3850.18
450.46	3686.34
450.65	3599.74
450.83	3695.71
451.02	3719.11
451.20	3667.62
451.39	3808.05
451.57	3737.84
451.76	3733.15
451.94	3765.92
452.13	3735.50
452.31	3765.92
452.49	3688.68
452.68	3653.58
452.86	3679.32
453.05	3726.13
453.23	3936.78
453.42	3794.01
453.60	3817.41
453.78	3833.80
453.97	3728.47
454.15	3737.84
454.34	3798.69
454.52	3894.65
454.70	3829.12
454.89	3955.51
455.07	3953.16
455.26	3911.04
455.44	4028.06
455.62	4018.70
455.81	3908.69
455.99	3974.23
456.17	4189.56
456.36	4194.24
456.54	4037.42
456.73	4208.28
456.91	4053.81
457.09	4154.45
457.28	4308.93
457.46	4107.64
457.64	4229.35
457.83	4411.91
458.01	4152.11
458.19	4184.88
458.38	4168.49
458.56	4236.37
458.74	4292.54
458.93	4299.56
459.11	4444.68
459.29	4365.10
459.48	4353.40
459.66	4376.80
459.84	4379.14
460.03	4507.87
460.21	4503.19
460.39	4542.98
460.57	4428.29
460.76	4489.15
460.94	4489.15
461.12	4498.51
461.31	4514.89
461.49	4486.81
461.67	4444.68
461.85	4575.75
462.04	4627.24
462.22	4629.58
462.40	4669.37
462.59	4690.43
462.77	4636.60
462.95	4571.07
463.13	4842.57
463.32	4751.29
463.50	4648.30
463.68	4758.31
463.86	4807.46
464.05	4814.48
464.23	4716.18
464.41	4805.12
464.59	4683.41
464.78	4926.83
464.96	4737.24
465.14	4746.61
465.32	4828.53
465.50	4898.74
465.69	4978.32
465.87	4880.02
466.05	4898.74
466.23	4945.55
466.41	4870.65
466.60	4990.02
466.78	4884.70
466.96	4933.85
467.14	4894.06
467.32	4826.18
467.51	5130.45
467.69	5156.20
467.87	5104.71
468.05	5118.75
468.23	5114.07
468.41	5100.03
468.60	4950.23
468.78	5163.22
468.96	4990.02
469.14	5240.46
469.32	5170.24
469.50	4994.70
469.69	5320.04
469.87	5266.21
470.05	5277.91
470.23	5233.44
470.41	5392.59
470.59	5291.95
470.77	5296.63
470.95	5212.37
471.14	5423.02
471.32	5235.78
471.50	5554.09
471.68	5584.52
471.86	5530.69
472.04	5600.90
472.22	5631.33
472.40	5514.30
472.58	5659.42
472.77	5638.35
472.95	5563.45
473.13	5921.56
473.31	5689.84
473.49	5582.18
473.67	5628.99
473.85	5788.14
474.03	5926.24
474.21	5710.91
474.39	5928.58
474.57	5860.70
474.75	5977.73
474.93	6190.72
475.12	6150.93
475.30	6108.80
475.48	6127.52
475.66	6242.21
475.84	6296.04
476.02	6263.27
476.20	6207.10
476.38	6345.19
476.56	6534.78
476.74	6427.11
476.92	6427.11
477.10	6228.17
477.28	6569.88
477.46	6455.20
477.64	6471.58
477.82	6345.19
478.00	7016.93
478.18	6747.76
478.36	6785.21
478.54	6839.05
478.72	6972.46
478.90	6820.32
479.08	6988.84
479.26	7250.98
479.44	7105.87
479.62	7115.23
479.80	7290.77
479.98	7344.60
480.16	7279.07
480.34	7438.22
480.52	7597.38
480.70	7421.84
480.88	7419.50
481.06	7459.29
481.24	7597.38
481.41	7803.35
481.59	7740.15
481.77	7793.98
481.95	7892.29
482.13	8208.26
482.31	7866.54
482.49	8063.15
482.67	7934.42
482.85	8133.36
483.03	8124.00
483.21	8297.20
483.39	8196.56
483.57	8372.10
483.74	8334.65
483.92	8461.04
484.10	8346.35
484.28	8585.08
484.46	8802.75
484.64	8952.55
484.82	8798.07
485.00	8884.67
485.18	9205.33
485.35	9125.75
485.53	9352.78
485.71	9359.80
485.89	9355.12
486.07	9341.08
486.25	9366.82
486.43	9437.04
486.61	9460.45
486.78	9603.22
486.96	9605.56
487.14	9865.36
487.32	9872.38
487.50	9928.55
487.68	10127.50
487.85	10111.11
488.03	10296.02
488.21	10340.49
488.39	10391.98
488.57	10410.70
488.75	10457.51
488.92	10555.82
489.10	10731.36
489.28	10272.61
489.46	10827.32
489.64	10787.53
489.81	11091.80
489.99	11176.06
490.17	11143.29
490.35	11290.74
490.53	11290.74
490.70	11279.04
490.88	11569.27
491.06	11557.57
491.24	11466.28
491.41	11648.85
491.59	11623.10
491.77	11765.87
491.95	11754.17
492.13	11934.39
492.30	12140.36
492.48	12250.36
492.66	12126.32
492.84	12053.76
493.01	12388.46
493.19	12243.34
493.37	12547.61
493.54	12318.24
493.72	12695.07
493.90	12828.48
494.08	12713.79
494.25	12837.84
494.43	12868.27
494.61	12931.46
494.79	13191.26
494.96	13123.38
495.14	13170.19
495.32	13270.84
495.49	13383.18
495.67	13289.56
495.85	13488.51
496.02	13558.72
496.20	13628.94
496.38	13547.02
496.55	13729.58
496.73	13783.41
496.91	13893.42
497.09	13956.61
497.26	14052.58
497.44	13891.08
497.62	14078.32
497.79	14202.37
497.97	14391.95
498.14	14611.96
498.32	14473.87
498.50	14441.11
498.67	14651.75
498.85	14726.65
499.03	14677.50
499.20	14698.56
499.38	14581.54
499.56	14590.90
499.73	15021.56
499.91	15119.86
500.08	15185.40
500.26	15117.52
500.44	15208.80
500.61	14895.17
500.79	15307.10
500.97	15452.22
501.14	15611.37
501.32	15337.53
501.49	15550.52
501.67	15159.65
501.84	15398.38
502.02	15693.29
502.20	15838.41
502.37	15777.55
502.55	15917.98
502.72	16060.76
502.90	15761.17
503.07	15815.00
503.25	15854.79
503.43	15840.75
503.60	16294.81
503.78	16432.90
503.95	16081.82
504.13	16243.32
504.30	16334.60
504.48	16208.21
504.65	16362.69
504.83	16741.85
505.01	16999.31
505.18	16568.65
505.36	16472.69
505.53	16746.53
505.71	16706.74
505.88	16769.94
506.06	16751.21
506.23	16910.37
506.41	16730.15
506.58	16978.25
506.76	16872.92
506.93	16954.84
507.11	16910.37
507.28	17048.46
507.46	17280.18
507.63	17240.39
507.81	17631.26
507.98	17238.05
508.16	17324.65
508.33	17186.55
508.50	17689.77
508.68	17965.95
508.85	17514.23
509.03	17748.28
509.20	17898.08
509.38	18216.39
509.55	17907.44
509.73	18111.07
509.90	18207.03
510.08	17692.11
510.25	18118.09
510.42	18192.98
510.60	18279.58
510.77	18284.26
510.95	18480.87
511.12	18277.24
511.30	18375.55
511.47	18349.80
511.64	18391.93
511.82	18532.36
511.99	18623.64
512.17	18625.98
512.34	18408.31
512.51	18963.02
512.69	18614.28
512.86	18899.83
513.04	19154.94
513.21	19089.41
513.38	19218.14
513.56	19363.25
513.73	18977.06
513.90	18998.13
514.08	19253.25
514.25	18967.70
514.43	19314.10
514.60	19281.33
514.77	19484.96
514.95	19487.30
515.12	19590.28
515.29	19655.82
515.47	19323.46
515.64	19506.02
515.81	19667.52
515.99	19700.29
516.16	19639.44
516.33	19711.99
516.51	19908.60
516.68	19763.48
516.85	20100.52
517.03	19934.34
517.20	19976.47
517.37	20128.61
517.54	20173.08
517.72	20088.82
517.89	19978.81
518.06	20175.42
518.24	20318.19
518.41	20365.00
518.58	20467.98
518.75	20229.25
518.93	20287.76
519.10	20587.35
519.27	20411.81
519.45	20379.04
519.62	20250.32
519.79	20568.63
519.96	20709.06
520.14	20992.26
520.31	20821.41
520.48	20847.15
520.65	20973.54
520.83	20865.88
521.00	20826.09
521.17	20790.98
521.34	20959.50
521.52	21144.40
521.69	21214.62
521.86	21137.38
522.03	21469.73
522.20	21357.39
522.38	21432.29
522.55	20877.58
522.72	21521.23
522.89	21525.91
523.07	21486.12
523.24	21694.43
523.41	21612.51
523.58	21537.61
523.75	21933.16
523.92	21504.84
524.10	21341.00
524.27	21570.38
524.44	22073.59
524.61	22059.55
524.78	21984.65
524.96	22012.74
525.13	21764.64
525.30	21874.65
525.47	22022.10
525.64	22008.06
525.81	22038.48
525.98	22604.89
526.16	22459.78
526.33	22520.63
526.50	22286.58
526.67	22366.16
526.84	22590.85
527.01	22066.57
527.18	22302.96
527.36	22934.91
527.53	22518.29
527.70	22836.61
527.87	22824.90
528.04	22771.07
528.21	22696.17
528.38	22384.88
528.55	22916.19
528.72	22841.29
528.89	22899.80
529.07	22663.41
529.24	22892.78
529.41	23091.73
529.58	22810.86
529.75	23152.58
529.92	22860.01
530.09	23335.14
530.26	23115.13
530.43	23185.35
530.60	23140.88
530.77	23220.45
530.94	23185.35
531.11	23119.81
531.28	22979.38
531.46	23573.88
531.63	23700.26
531.80	23440.47
531.97	23503.66
532.14	23580.90
532.31	23461.53
532.48	23784.52
532.65	23716.65
532.82	23999.85
532.99	23733.03
533.16	23496.64
533.33	23700.26
533.50	24322.85
533.67	24133.26
533.84	23662.82
534.01	23828.99
534.18	23871.12
534.35	24191.78
534.52	23920.28
534.69	24217.52
534.86	24058.37
535.03	24079.43
535.20	24290.08
535.37	24386.04
535.54	23964.75
535.71	23969.43
535.88	24290.08
536.05	24084.11
536.22	24203.48
536.38	24425.83
536.55	24355.61
536.72	24341.57
536.89	24451.58
537.06	24514.77
537.23	24643.50
537.40	24706.70
537.57	24673.93
537.74	24711.38
537.91	24978.20
538.08	25102.25
538.25	24493.71
538.42	24835.42
538.59	24659.88
538.75	24795.64
538.92	24938.41
539.09	24758.19
539.26	25259.06
539.43	25245.02
539.60	25046.07
539.77	24753.51
539.94	24931.39
540.11	24980.54
540.28	24711.38
540.44	25036.71
540.61	25284.81
540.78	25200.55
540.95	24940.75
541.12	25041.39
541.29	25247.36
541.46	25460.35
541.62	25092.88
541.79	25015.65
541.96	24650.52
542.13	25219.27
542.30	25151.40
542.47	25612.48
542.63	25490.77
542.80	25336.30
542.97	26087.61
543.14	25846.54
543.31	25666.31
543.48	25722.49
543.64	25671.00
543.81	25776.32
543.98	25907.39
544.15	26005.69
544.32	25893.35
544.48	26473.80
544.65	26221.02
544.82	25799.73
544.99	25785.68
545.16	25788.02
545.32	26040.80
545.49	26038.46
545.66	26153.15
545.83	26267.83
546.00	26445.71
546.16	26361.45
546.33	25951.86
546.50	25858.24
546.67	26223.36
546.83	26068.89
547.00	25982.29
547.17	26340.39
547.34	26288.90
547.50	26246.77
547.67	26551.04
547.84	26230.38
548.00	26780.41
548.17	26562.74
548.34	26665.72
548.51	26228.04
548.67	27077.66
548.84	26782.75
549.01	26546.36
549.18	26445.71
549.34	26565.08
549.51	26871.69
549.68	26551.04
549.84	26356.77
550.01	26412.95
550.18	26677.43
550.34	26850.63
550.51	26930.20
550.68	27002.76
550.84	26410.60
551.01	27070.64
551.18	26773.39
551.34	26955.95
551.51	26703.17
551.68	26855.31
551.84	27185.32
552.01	27005.10
552.18	27393.63
552.34	27241.50
552.51	27241.50
552.68	26902.12
552.84	27112.77
553.01	27229.79
553.18	27023.83
553.34	27381.93
553.51	27257.88
553.67	27550.45
553.84	27487.25
554.01	27164.26
554.17	27529.38
554.34	27372.57
554.51	27442.78
554.67	27646.41
554.84	27262.56
555.00	27946.00
555.17	27274.26
555.33	27325.75
555.50	27419.38
555.67	27342.14
555.83	27410.01
556.00	27716.62
556.16	27763.43
556.33	27747.05
556.50	27814.93
556.66	27978.76
556.83	27639.39
556.99	28013.87
557.16	27992.81
557.32	27725.99
557.49	27838.33
557.65	27723.65
557.82	27716.62
557.98	27747.05
558.15	27555.13
558.32	27864.08
558.48	27648.75
558.65	27796.20
558.81	28119.20
558.98	27889.82
559.14	27786.84
559.31	27658.11
559.47	28163.67
559.64	28109.83
559.80	28079.41
559.97	28100.47
560.13	28051.32
560.30	28126.22
560.46	28285.37
560.63	27880.46
560.79	28514.75
560.96	28294.74
561.12	27873.44
561.29	28051.32
561.45	28173.03
561.61	28252.61
561.78	28400.06
561.94	28121.54
562.11	28636.45
562.27	28261.97
562.44	28341.55
562.60	28072.39
562.77	27885.14
562.93	28154.30
563.10	28395.38
563.26	28418.78
563.42	28730.08
563.59	28411.76
563.75	28627.09
563.92	28308.78
564.08	28259.63
564.24	28456.23
564.41	28320.48
564.57	28503.04
564.74	28280.69
564.90	28659.86
565.07	28629.43
565.23	28844.76
565.39	28718.37
565.56	28704.33
565.72	28397.72
565.88	28767.52
566.05	28400.06
566.21	28650.50
566.38	28503.04
566.54	28367.29
566.70	28996.90
566.87	28386.02
567.03	28622.41
567.19	28786.25
567.36	28727.74
567.52	28477.30
567.68	28470.28
567.85	28753.48
568.01	28858.81
568.17	28889.23
568.34	28685.61
568.50	28526.45
568.66	28687.95
568.83	29146.69
568.99	28381.34
569.15	28453.89
569.32	28563.90
569.48	28910.30
569.64	28386.02
569.81	28978.17
569.97	28500.70
570.13	28914.98
570.30	28816.68
570.46	28882.21
570.62	28437.51
570.78	28858.81
570.95	28905.62
571.11	28496.02
571.27	28929.02
571.43	28381.34
571.60	28720.71
571.76	28685.61
571.92	28481.98
572.09	28849.44
572.25	28694.97
572.41	29261.38
572.57	28987.53
572.74	28884.55
572.90	29067.11
573.06	28840.08
573.22	28996.90
573.38	28788.59
573.55	28774.55
573.71	28982.85
573.87	29081.16
574.03	28959.45
574.20	29013.28
574.36	28437.51
574.52	28907.96
574.68	28826.04
574.84	28833.06
575.01	29205.20
575.17	29029.66
575.33	28706.67
575.49	28837.74
575.65	29097.54
575.82	29048.39
575.98	28645.82
576.14	28879.87
576.30	29244.99
576.46	28826.04
576.62	28718.37
576.79	29432.24
576.95	28790.93
577.11	29198.18
577.27	29200.52
577.43	29378.40
577.59	29081.16
577.75	29085.84
577.92	28613.05
578.08	28994.56
578.24	28793.27
578.40	29057.75
578.56	28765.18
578.72	29137.33
578.88	29586.71
579.04	29537.56
579.21	29343.30
579.37	28879.87
579.53	29181.80
579.69	29528.20
579.85	28858.81
580.01	28755.82
580.17	28809.65
580.33	29064.77
580.49	29125.63
580.65	29556.28
580.82	29060.09
580.98	29069.45
581.14	29252.02
581.30	29357.34
581.46	28856.46
581.62	28802.63
581.78	29039.03
581.94	29212.23
582.10	28863.49
582.26	29383.09
582.42	29235.63
582.58	29296.49
582.74	29022.64
582.90	29411.17
583.06	29111.58
583.22	28926.68
583.38	28830.72
583.54	29024.98
583.70	28992.22
583.86	29193.50
584.02	28982.85
584.18	29411.17
584.34	29476.71
584.50	29600.76
584.66	29247.33
584.82	29146.69
584.98	29296.49
585.14	29184.14
585.30	29280.10
585.46	29153.71
585.62	28844.76
585.78	29244.99
585.94	28851.78
586.10	29109.24
586.26	29191.16
586.42	29638.20
586.58	29640.54
586.74	29193.50
586.90	29022.64
587.06	29085.84
587.22	29397.13
587.38	29401.81
587.54	29240.31
587.70	29230.95
587.86	29607.78
588.02	29331.59
588.18	29837.15
588.34	29518.84
588.49	29472.03
588.65	29612.46
588.81	29240.31
588.97	29553.94
589.13	29713.10
589.29	29053.07
589.45	29481.39
589.61	29408.83
589.77	30064.18
589.93	30066.52
590.08	29649.91
590.24	29659.27
590.40	29790.34
590.56	29537.56
590.72	29324.57
590.88	29158.39
591.04	29511.81
591.20	29881.62
591.35	29614.80
591.51	30136.74
591.67	29652.25
591.83	29839.49
591.99	29851.19
592.15	29413.51
592.31	29876.94
592.46	29371.38
592.62	29364.36
592.78	29530.54
592.94	29558.63
593.10	29626.50
593.26	29663.95
593.41	29818.42
593.57	29937.79
593.73	30204.61
593.89	29635.86
594.05	29902.68
594.20	29142.01
594.36	29661.61
594.52	29134.99
594.68	29589.05
594.84	29366.70
594.99	30047.80
595.15	29670.97
595.31	29970.56
595.47	29415.85
595.62	29890.98
595.78	29731.83
595.94	29544.58
596.10	29790.34
596.25	29535.22
596.41	29453.30
596.57	29205.20
596.73	29844.17
596.88	29656.93
597.04	30120.35
597.20	30148.44
597.36	29738.85
597.51	30221.00
597.67	29694.38
597.83	29553.94
597.99	29731.83
598.14	29806.72
598.30	29532.88
598.46	29799.70
598.61	29783.32
598.77	29518.84
598.93	29809.06
599.09	29926.09
599.24	30024.39
599.40	30017.37
599.56	30246.74
599.71	30080.56
599.87	29652.25
600.03	29668.63
600.18	29635.86
600.34	29823.11
600.50	29872.26
600.65	29809.06
600.81	29919.07
600.97	30000.99
601.12	30295.89
601.28	29958.86
601.44	30101.63
601.59	29914.39
601.75	29853.53
601.91	29944.81
602.06	29921.41
602.22	29677.99
602.37	29944.81
602.53	30022.05
602.69	30281.85
602.84	29790.34
603.00	29804.38
603.16	30127.38
603.31	29708.42
603.47	29563.31
603.62	29663.95
603.78	29912.05
603.94	29729.48
604.09	29785.66
604.25	29699.06
604.40	29340.96
604.56	30078.22
604.71	29757.57
604.87	29624.16
605.03	29851.19
605.18	29694.38
605.34	29766.93
605.49	29677.99
605.65	29687.36
605.80	29586.71
605.96	29846.51
606.12	29614.80
606.27	29532.88
606.43	30008.01
606.58	29975.24
606.74	29296.49
606.89	29706.08
607.05	29923.75
607.20	29619.48
607.36	29769.27
607.51	29965.88
607.67	29675.65
607.82	29303.51
607.98	29450.96
608.13	29708.42
608.29	29549.26
608.44	29467.34
608.60	29614.80
608.75	29783.32
608.91	29771.61
609.06	29673.31
609.22	29383.09
609.37	29350.32
609.53	29305.85
609.68	29546.92
609.84	29118.60
609.99	29242.65
610.15	29600.76
610.30	29184.14
610.46	28893.91
610.61	30036.09
610.76	29589.05
610.92	29708.42
611.07	29860.55
611.23	29394.79
611.38	29507.13
611.54	29584.37
611.69	29282.44
611.84	29254.36
612.00	29567.99
612.15	29486.07
612.31	29556.28
612.46	29347.98
612.62	29397.13
612.77	29336.27
612.92	29773.95
613.08	29560.97
613.23	29319.89
613.39	29523.52
613.54	29048.39
613.69	29111.58
613.85	28975.83
614.00	29270.74
614.15	29326.91
614.31	29296.49
614.46	29301.17
614.62	29336.27
614.77	29579.69
614.92	29291.80
615.08	29275.42
615.23	29006.26
615.38	29188.82
615.54	28961.79
615.69	29287.12
615.84	29130.31
616.00	29287.12
616.15	28814.34
616.30	29085.84
616.46	28861.15
616.61	29085.84
616.76	29537.56
616.92	29165.42
617.07	29209.89
617.22	28802.63
617.37	29060.09
617.53	28884.55
617.68	28685.61
617.83	28334.53
617.99	28711.35
618.14	28655.18
618.29	28662.20
618.45	28575.60
618.60	28781.57
618.75	28704.33
618.90	28868.17
619.06	28807.31
619.21	28999.24
619.36	28664.54
619.51	28687.95
619.67	28608.37
619.82	28596.67
619.97	28692.63
620.12	28240.90
620.28	28577.94
620.43	28872.85
620.58	28929.02
620.73	28910.30
620.89	28538.15
621.04	28716.03
621.19	28606.03
621.34	28301.76
621.49	28535.81
621.65	28559.22
621.80	28711.35
621.95	28163.67
622.10	28226.86
622.25	28547.51
622.41	28203.46
622.56	28498.36
622.71	28905.62
622.86	28606.03
623.01	28458.57
623.16	28418.78
623.32	28381.34
623.47	28177.71
623.62	28252.61
623.77	28479.64
623.92	28477.30
624.07	27873.44
624.23	28114.52
624.38	28470.28
624.53	28388.36
624.68	28453.89
624.83	28339.21
624.98	28229.20
625.13	27974.08
625.29	28177.71
625.44	28161.33
625.59	28161.33
625.74	27847.69
625.89	28004.51
626.04	27587.89
626.19	28067.70
626.34	27627.68
626.49	27693.22
626.65	27817.27
626.80	27859.40
626.95	27953.02
627.10	27850.03
627.25	27894.50
627.40	27510.66
627.55	27943.66
627.70	27576.19
627.85	27601.94
628.00	27796.20
628.15	27896.85
628.30	27569.17
628.45	27807.90
628.60	27255.54
628.76	28074.73
628.91	27835.99
629.06	27885.14
629.21	27615.98
629.36	27564.49
629.51	27683.86
629.66	27035.53
629.81	27325.75
629.96	27531.72
630.11	27583.21
630.26	27311.71
630.41	27335.12
630.56	27264.90
630.71	27854.72
630.86	27625.34
631.01	27770.46
631.16	27402.99
631.31	27255.54
631.46	27484.91
631.61	27398.31
631.76	27508.32
631.91	27424.06
632.06	27332.78
632.21	27182.98
632.36	27473.21
632.51	27171.28
632.66	27175.96
632.81	27201.71
632.96	27611.30
633.10	27377.25
633.25	27433.42
633.40	27491.93
633.55	27311.71
633.70	27297.67
633.85	27033.19
634.00	26668.06
634.15	26991.06
634.30	26848.29
634.45	27300.01
634.60	26918.50
634.75	27077.66
634.90	26869.35
635.05	27197.02
635.19	26969.99
635.34	27363.20
635.49	27154.90
635.64	27623.00
635.79	26920.84
635.94	26586.15
636.09	26899.78
636.24	26455.08
636.39	26902.12
636.53	26869.35
636.68	26693.81
636.83	26953.61
636.98	26654.02
637.13	27030.85
637.28	26838.92
637.43	26855.31
637.57	26808.50
637.72	26754.66
637.87	26508.91
638.02	26719.56
638.17	26527.63
638.32	26466.78
638.46	26265.49
638.61	26478.48
638.76	26408.26
638.91	26686.79
639.06	26328.69
639.20	26096.97
639.35	26534.65
639.50	26544.02
639.65	26611.89
639.80	26639.98
639.94	26696.15
640.09	26338.05
640.24	26396.56
640.39	25902.71
640.54	26501.89
640.68	26487.84
640.83	26485.50
640.98	25912.07
641.13	26277.19
641.27	26237.41
641.42	26225.70
641.57	26153.15
641.72	26277.19
641.86	26010.37
642.01	26080.59
642.16	26190.59
642.31	26118.04
642.45	26253.79
642.60	25876.96
642.75	25678.02
642.90	25935.48
643.04	25883.98
643.19	26157.83
643.34	25968.24
643.48	25837.17
643.63	25816.11
643.78	25898.03
643.93	26029.10
644.07	26120.38
644.22	25951.86
644.37	25991.65
644.51	26113.36
644.66	26057.18
644.81	25577.37
644.95	25942.50
645.10	25668.66
645.25	25951.86
645.39	25703.76
645.54	26363.79
645.69	25663.97
645.83	25715.47
645.98	25731.85
646.13	26029.10
646.27	25944.84
646.42	25699.08
646.57	25715.47
646.71	25624.18
646.86	25893.35
647.00	25766.96
647.15	25717.81
647.30	25458.01
647.44	25282.47
647.59	25343.32
647.74	25776.32
647.88	25572.69
648.03	25785.68
648.17	25642.91
648.32	25589.08
648.47	25804.41
648.61	25701.42
648.76	25640.57
648.90	25504.82
649.05	25514.18
649.20	25535.24
649.34	25415.88
649.49	25235.66
649.63	25336.30
649.78	24950.11
649.92	25039.05
650.07	25214.59
650.21	25343.32
650.36	25324.60
650.51	24933.73
650.65	25420.56
650.80	25146.72
650.94	25252.04
651.09	25256.72
651.23	25015.65
651.38	24690.31
651.52	25090.54
651.67	25057.78
651.81	25132.67
651.96	24924.36
652.10	25003.94
652.25	25029.69
652.39	25422.90
652.54	25235.66
652.68	24931.39
652.83	25209.91
652.97	25064.80
653.12	25057.78
653.26	24919.68
653.41	25298.85
653.55	24931.39
653.70	24809.68
653.84	24769.89
653.99	25090.54
654.13	25013.31
654.27	24725.42
654.42	24807.34
654.56	24739.46
654.71	24952.45
654.85	24938.41
655.00	24933.73
655.14	25181.82
655.29	24751.17
655.43	24926.71
655.57	24807.34
655.72	24657.54
655.86	24943.09
656.01	24617.75
656.15	24453.92
656.30	24299.44
656.44	24432.85
656.58	24613.07
656.73	24657.54
656.87	24755.85
657.01	24711.38
657.16	24601.37
657.30	24772.23
657.45	24276.04
657.59	24379.02
657.73	24493.71
657.88	24805.00
658.02	24627.12
658.16	24709.04
658.31	24556.90
658.45	24173.05
658.60	24250.29
658.74	23901.55
658.88	24175.39
659.03	24175.39
659.17	24226.89
659.31	23924.96
659.46	24247.95
659.60	24182.42
659.74	24032.62
659.89	23924.96
660.03	24063.05
660.17	24095.82
660.32	23728.35
660.46	23861.76
660.60	23845.38
660.74	23686.22
660.89	23716.65
661.03	23613.66
661.17	23866.44
661.32	23971.77
661.46	24032.62
661.60	23623.03
661.74	23707.29
661.89	23950.70
662.03	23613.66
662.17	23510.68
662.31	23536.43
662.46	23896.87
662.60	23456.85
662.74	23943.68
662.88	23580.90
663.03	23164.28
663.17	23204.07
663.31	23264.92
663.45	23239.18
663.60	23098.75
663.74	23211.09
663.88	23381.95
664.02	23208.75
664.17	23307.05
664.31	23112.79
664.45	23227.48
664.59	23108.11
664.73	23042.57
664.88	23124.49
665.02	22834.27
665.16	22993.42
665.30	22796.82
665.44	22822.56
665.59	22831.93
665.73	22640.00
665.87	22593.19
666.01	23124.49
666.15	22902.14
666.29	22827.24
666.44	22909.16
666.58	22588.51
666.72	22476.16
666.86	22630.64
667.00	22693.83
667.14	22331.05
667.28	22476.16
667.43	22703.20
667.57	22675.11
667.71	22651.70
667.85	22270.20
667.99	21951.88
668.13	22291.26
668.27	22431.69
668.41	22347.44
668.56	21958.91
668.70	22176.58
668.84	22190.62
668.98	22375.52
669.12	22497.23
669.26	21865.28
669.40	21867.63
669.54	22104.02
669.68	22068.91
669.82	21977.63
669.96	21781.03
670.10	21855.92
670.25	21387.82
670.39	21596.12
670.53	21675.70
670.67	21448.67
670.81	21722.51
670.95	21465.05
671.09	21837.20
671.23	21525.91
671.37	21521.23
671.51	21820.81
671.65	21565.70
671.79	21605.49
671.93	21415.90
672.07	21596.12
672.21	21149.08
672.35	21226.32
672.49	20975.88
672.63	21198.23
672.77	20896.30
672.91	20996.95
673.05	20924.39
673.19	21071.84
673.33	21048.44
673.47	20919.71
673.61	21184.19
673.75	20648.21
673.89	20877.58
674.03	20783.96
674.17	20765.23
674.31	20856.51
674.45	20603.74
674.59	20716.08
674.73	20865.88
674.87	20709.06
675.01	20496.07
675.15	20657.57
675.29	20198.82
675.43	20152.01
675.56	20599.05
675.70	20456.28
675.84	20088.82
675.98	19960.09
676.12	20407.13
676.26	20294.79
676.40	20451.60
676.54	19990.52
676.68	19971.79
676.82	19695.61
676.96	19882.85
677.10	19742.42
677.23	19564.54
677.37	19709.65
677.51	19655.82
677.65	19484.96
677.79	19520.07
677.93	19473.26
678.07	19398.36
678.21	19379.64
678.34	19365.59
678.48	19323.46
678.62	19136.22
678.76	19122.18
678.90	18909.19
679.04	19080.05
679.18	18911.53
679.31	18829.61
679.45	18974.72
679.59	18984.09
679.73	18588.53
679.87	18501.93
680.00	18424.70
680.14	18654.07
680.28	18150.85
680.42	18478.53
680.56	18661.09
680.70	18045.53
680.83	18752.37
680.97	18333.42
681.11	18274.90
681.25	18473.85
681.39	18345.12
681.52	18391.93
681.66	18108.72
681.80	17989.36
681.94	17898.08
682.07	18005.74
682.21	17872.33
682.35	17900.42
682.49	17558.70
682.62	17558.70
682.76	17755.30
682.90	17366.78
683.04	17813.82
683.17	17451.03
683.31	17418.27
683.45	17668.70
683.59	17348.05
683.72	17497.84
683.86	17247.41
684.00	17366.78
684.13	17465.08
684.27	17008.67
684.41	17214.64
684.55	16940.80
684.68	16683.34
684.82	16652.91
684.96	16678.66
685.09	16681.00
685.23	16753.55
685.37	16613.12
685.50	16540.57
685.64	16692.70
685.78	16395.45
685.91	16709.08
686.05	16940.80
686.19	16498.44
686.32	16421.20
686.46	16320.56
686.60	15857.13
686.73	15899.26
686.87	16079.48
687.01	16292.47
687.14	15843.09
687.28	15974.16
687.42	15751.81
687.55	15845.43
687.69	15971.82
687.82	15543.50
687.96	15461.58
688.10	15737.76
688.23	15728.40
688.37	15531.80
688.50	15452.22
688.64	15646.48
688.78	15208.80
688.91	15379.66
689.05	15461.58
689.18	15154.97
689.32	15080.07
689.46	15105.82
689.59	15080.07
689.73	15089.43
689.86	15138.58
690.00	14663.46
690.13	15016.88
690.27	14874.10
690.41	14682.18
690.54	14771.12
690.68	14724.31
690.81	14525.36
690.95	14710.27
691.08	14782.82
691.22	14548.77
691.35	14368.55
691.49	14408.34
691.62	14537.07
691.76	14178.97
691.89	14298.33
692.03	14406.00
692.16	13965.98
692.30	14075.98
692.43	13968.32
692.57	13872.36
692.70	13657.03
692.84	13671.07
692.97	13650.00
693.11	13682.77
693.24	13717.88
693.38	13729.58
693.51	13422.97
693.65	13631.28
693.78	13385.52
693.92	13572.77
694.05	13287.22
694.19	13422.97
694.32	13289.56
694.45	13535.32
694.59	12922.10
694.72	13200.62
694.86	12968.91
694.99	13041.46
695.13	12779.32
695.26	13022.74
695.39	12908.05
695.53	12505.48
695.66	12837.84
695.80	12776.98
695.93	12636.55
696.07	12762.94
696.20	12641.23
696.33	12365.05
696.47	12477.40
696.60	12381.43
696.73	12327.60
696.87	12245.68
697.00	12404.84
697.14	12453.99
697.27	11990.56
697.40	12135.68
697.54	11800.98
697.67	11829.07
697.80	11948.43
697.94	11960.14
698.07	11831.41
698.21	11660.55
698.34	11920.35
698.47	11800.98
698.61	11899.28
698.74	11716.72
698.87	11871.20
699.01	11726.08
699.14	11634.80
699.27	11698.00
699.40	11475.65
699.54	11433.52
699.67	11316.49
699.80	11293.08
699.94	11199.46
700.07	10916.26
700.20	11042.65
700.34	10860.09
700.47	10792.21
700.60	10988.82
700.73	10897.53
700.87	10874.13
701.00	10963.07
701.13	10970.09
701.26	10771.15
701.40	10731.36
701.53	10752.42
701.66	10691.57
701.79	10628.37
701.93	10396.66
702.06	10607.31
702.19	10408.36
702.32	10279.63
702.46	10169.63
702.59	10321.76
702.72	10354.53
702.85	10340.49
702.99	10230.48
703.12	10040.90
703.25	9933.23
703.38	9980.04
703.51	10059.62
703.65	9762.37
703.78	9877.06
703.91	9799.82
704.04	9795.14
704.17	9942.60
704.31	9994.09
704.44	9792.80
704.57	10005.79
704.70	9537.68
704.83	9420.66
704.96	9661.73
705.10	9322.35
705.23	9268.52
>>>>>End Processed Spectral Data<<<<<
