SpectraSuite Data File
++++++++++++++++++++++++++++++++++++
Date: Fri Oct 18 13:58:19 GMT-05:00 2013
User: bianchi
Dark Spectrum Present: No
Reference Spectrum Present: No
Number of Sampled Component Spectra: 1
Spectrometers: USB2+H05261
Integration Time (usec): 50000 (USB2+H05261)
Spectra Averaged: 1 (USB2+H05261)
Boxcar Smoothing: 0 (USB2+H05261)
Correct for Electrical Dark: No (USB2+H05261)
Strobe/Lamp Enabled: No (USB2+H05261)
Correct for Detector Non-linearity: No (USB2+H05261)
Correct for Stray Light: No (USB2+H05261)
Number of Pixels in Processed Spectrum: 2048
>>>>>Begin Processed Spectral Data<<<<<
365.73	0.00
365.92	0.00
366.12	0.00
366.32	0.00
366.52	0.00
366.72	0.00
366.91	0.00
367.11	0.00
367.31	0.00
367.51	0.00
367.70	0.00
367.90	0.00
368.10	0.00
368.30	0.00
368.49	0.00
368.69	0.00
368.89	0.00
369.09	0.00
369.28	0.00
369.48	0.00
369.68	0.00
369.87	0.00
370.07	0.00
370.27	0.00
370.47	0.00
370.66	121.71
370.86	58.51
371.06	138.09
371.25	166.18
371.45	81.92
371.65	156.82
371.84	140.43
372.04	177.88
372.24	203.63
372.44	201.29
372.63	173.20
372.83	203.63
373.03	191.92
373.22	231.71
373.42	266.82
373.62	201.29
373.81	259.80
374.01	238.73
374.21	308.95
374.40	229.37
374.60	259.80
374.79	215.33
374.99	222.35
375.19	220.01
375.38	271.50
375.58	271.50
375.78	283.20
375.97	287.89
376.17	234.05
376.37	231.71
376.56	280.86
376.76	304.27
376.95	248.10
377.15	278.52
377.35	322.99
377.54	191.92
377.74	215.33
377.93	315.97
378.13	337.04
378.33	297.25
378.52	306.61
378.72	215.33
378.91	294.91
379.11	315.97
379.31	308.95
379.50	264.48
379.70	341.72
379.89	330.02
380.09	358.10
380.28	269.16
380.48	311.29
380.68	313.63
380.87	262.14
381.07	339.38
381.26	299.59
381.46	318.31
381.65	327.68
381.85	390.87
382.04	299.59
382.24	287.89
382.43	325.33
382.63	313.63
382.83	353.42
383.02	369.80
383.22	259.80
383.41	269.16
383.61	311.29
383.80	458.74
384.00	400.23
384.19	421.30
384.39	325.33
384.58	287.89
384.78	421.30
384.97	402.57
385.17	411.93
385.36	330.02
385.56	388.53
385.75	402.57
385.95	374.49
386.14	358.10
386.34	423.64
386.53	423.64
386.72	383.85
386.92	433.00
387.11	440.02
387.31	449.38
387.50	400.23
387.70	379.17
387.89	416.62
388.09	404.91
388.28	458.74
388.48	414.27
388.67	423.64
388.86	376.83
389.06	468.11
389.25	447.04
389.45	461.09
389.64	433.00
389.84	531.30
390.03	498.53
390.22	498.53
390.42	507.90
390.61	456.40
390.81	550.03
391.00	498.53
391.19	470.45
391.39	484.49
391.58	531.30
391.78	547.69
391.97	554.71
392.16	552.37
392.36	603.86
392.55	538.32
392.75	517.26
392.94	601.52
393.13	559.39
393.33	571.09
393.52	559.39
393.71	629.60
393.91	575.77
394.10	585.13
394.29	550.03
394.49	575.77
394.68	547.69
394.88	655.35
395.07	596.84
395.26	603.86
395.46	580.45
395.65	664.71
395.84	613.22
396.04	739.61
396.23	690.46
396.42	650.67
396.62	622.58
396.81	692.80
397.00	657.69
397.19	716.20
397.39	655.35
397.58	638.97
397.77	667.05
397.97	713.86
398.16	653.01
398.35	697.48
398.55	716.20
398.74	702.16
398.93	788.76
399.12	653.01
399.32	653.01
399.51	695.14
399.70	753.65
399.90	713.86
400.09	744.29
400.28	779.40
400.47	662.37
400.67	779.40
400.86	809.83
401.05	779.40
401.24	821.53
401.44	894.08
401.63	858.98
401.82	840.25
402.01	734.93
402.21	842.59
402.40	767.70
402.59	800.46
402.78	877.70
402.97	889.40
403.17	861.32
403.36	819.19
403.55	856.64
403.74	910.47
403.93	933.87
404.13	887.06
404.32	863.66
404.51	903.45
404.70	926.85
404.89	931.53
405.09	931.53
405.28	938.55
405.47	959.62
405.66	980.68
405.85	912.81
406.05	959.62
406.24	1041.54
406.43	1013.45
406.62	1046.22
406.81	1029.84
407.00	1015.79
407.20	1001.75
407.39	992.39
407.58	1083.67
407.77	1043.88
407.96	1081.33
408.15	1062.60
408.34	1053.24
408.54	1102.39
408.73	1130.48
408.92	1111.75
409.11	1125.80
409.30	1186.65
409.49	1210.06
409.68	1146.86
409.87	1121.12
410.07	1137.50
410.26	1135.16
410.45	1153.88
410.64	1242.82
410.83	1196.01
411.02	1284.95
411.21	1158.57
411.40	1228.78
411.59	1299.00
411.78	1235.80
411.98	1226.44
412.17	1275.59
412.36	1327.08
412.55	1416.02
412.74	1324.74
412.93	1331.76
413.12	1359.85
413.31	1425.39
413.50	1303.68
413.69	1481.56
413.88	1411.34
414.07	1493.26
414.26	1490.92
414.45	1434.75
414.64	1486.24
414.83	1558.80
415.02	1547.09
415.22	1467.52
415.41	1533.05
415.60	1533.05
415.79	1570.50
415.98	1631.35
416.17	1596.25
416.36	1624.33
416.55	1650.08
416.74	1680.50
416.93	1643.06
417.12	1703.91
417.31	1689.87
417.50	1652.42
417.69	1729.66
417.88	1806.89
418.07	1771.79
418.26	1732.00
418.45	1781.15
418.64	1921.58
418.83	1905.20
419.02	1891.15
419.21	1832.64
419.39	1900.52
419.58	1799.87
419.77	1837.32
419.96	1865.41
420.15	1781.15
420.34	1851.36
420.53	2005.84
420.72	1935.62
420.91	1832.64
421.10	1830.30
421.29	1877.11
421.48	1916.90
421.67	1930.94
421.86	1996.48
422.05	2083.08
422.24	1900.52
422.43	2015.20
422.61	2029.24
422.80	2001.16
422.99	2054.99
423.18	2122.87
423.37	2043.29
423.56	2057.33
423.75	2066.69
423.94	2078.40
424.13	1860.73
424.32	1947.33
424.50	2083.08
424.69	2125.21
424.88	2122.87
425.07	1980.09
425.26	1966.05
425.45	2026.90
425.64	2040.95
425.83	2080.74
426.01	2045.63
426.20	2169.68
426.39	2132.23
426.58	2111.16
426.77	2106.48
426.96	2047.97
427.15	2157.97
427.33	2225.85
427.52	2141.59
427.71	2239.89
427.90	2244.57
428.09	2244.57
428.28	2228.19
428.46	2244.57
428.65	2183.72
428.84	2293.72
429.03	2296.07
429.22	2136.91
429.40	2289.04
429.59	2396.71
429.78	2258.62
429.97	2202.44
430.16	2200.10
430.34	2424.80
430.53	2387.35
430.72	2385.01
430.91	2331.17
431.10	2333.51
431.28	2370.96
431.47	2422.45
431.66	2380.32
431.85	2377.98
432.03	2429.48
432.22	2614.38
432.41	2612.04
432.60	2520.76
432.79	2370.96
432.97	2448.20
433.16	2626.08
433.35	2516.08
433.54	2476.29
433.72	2476.29
433.91	2511.39
434.10	2572.25
434.28	2413.09
434.47	2642.46
434.66	2569.91
434.85	2541.82
435.03	2448.20
435.22	2502.03
435.41	2693.96
435.59	2626.08
435.78	2712.68
435.97	2649.49
436.16	2642.46
436.34	2703.32
436.53	2700.98
436.72	2782.90
436.90	2686.94
437.09	2773.53
437.28	2689.28
437.46	2729.06
437.65	2813.32
437.84	2708.00
438.02	2827.37
438.21	2822.69
438.40	2794.60
438.58	2818.00
438.77	2827.37
438.96	2911.63
439.14	3009.93
439.33	2967.80
439.52	2995.89
439.70	3014.61
439.89	3089.51
440.08	3019.29
440.26	2993.55
440.45	3068.44
440.63	2979.50
440.82	3204.19
441.01	3080.14
441.19	3180.79
441.38	3279.09
441.57	3265.05
441.75	3335.26
441.94	3370.37
442.12	3178.45
442.31	3272.07
442.50	3365.69
442.68	3274.41
442.87	3382.07
443.05	3293.13
443.24	3372.71
443.43	3442.93
443.61	3501.44
443.80	3405.48
443.98	3290.79
444.17	3318.88
444.35	3447.61
444.54	3445.27
444.73	3501.44
444.91	3363.35
445.10	3461.65
445.28	3424.20
445.47	3293.13
445.65	3445.27
445.84	3524.85
446.02	3644.21
446.21	3375.05
446.39	3449.95
446.58	3599.74
446.77	3557.61
446.95	3445.27
447.14	3562.30
447.32	3527.19
447.51	3478.04
447.69	3534.21
447.88	3658.26
448.06	3557.61
448.25	3492.08
448.43	3653.58
448.62	3674.64
448.80	3543.57
448.99	3632.51
449.17	3674.64
449.36	3585.70
449.54	3728.47
449.73	3782.31
449.91	3829.12
450.10	3667.62
450.28	3779.97
450.46	3634.85
450.65	3679.32
450.83	3896.99
451.02	3707.41
451.20	3810.39
451.39	3864.22
451.57	3660.60
451.76	3808.05
451.94	3794.01
452.13	3803.37
452.31	3845.50
452.49	3803.37
452.68	4042.11
452.86	3974.23
453.05	3995.29
453.23	3941.46
453.42	3981.25
453.60	3894.65
453.78	3946.14
453.97	3911.04
454.15	3957.85
454.34	3953.16
454.52	4053.81
454.70	4058.49
454.89	4100.62
455.07	4131.05
455.26	4222.33
455.44	4222.33
455.62	4191.90
455.81	4084.23
455.99	4126.36
456.17	4109.98
456.36	4154.45
456.54	4297.22
456.73	4255.09
456.91	4262.12
457.09	4346.37
457.28	4376.80
457.46	4283.18
457.64	4463.40
457.83	4355.74
458.01	4271.48
458.19	4449.36
458.38	4428.29
458.56	4322.97
458.74	4308.93
458.93	4505.53
459.11	4557.02
459.29	4444.68
459.48	4486.81
459.66	4470.42
459.84	4573.41
460.03	4662.35
460.21	4559.36
460.39	4451.70
460.57	4573.41
460.76	4568.73
460.94	4657.67
461.12	4615.54
461.31	4608.51
461.49	4664.69
461.67	4615.54
461.85	4704.48
462.04	4713.84
462.22	5043.85
462.40	4887.04
462.59	4744.27
462.77	4762.99
462.95	4781.71
463.13	4788.74
463.32	4840.23
463.50	4903.42
463.68	4936.19
463.86	4959.60
464.05	4924.49
464.23	4891.72
464.41	4905.76
464.59	4903.42
464.78	5060.24
464.96	4819.16
465.14	4929.17
465.32	4994.70
465.50	5069.60
465.69	5100.03
465.87	5111.73
466.05	4994.70
466.23	4985.34
466.41	5097.69
466.60	5387.91
466.78	5144.50
466.96	4954.91
467.14	5011.09
467.32	5144.50
467.51	5226.42
467.69	5004.07
467.87	5305.99
468.05	5235.78
468.23	5242.80
468.41	5123.43
468.60	5294.29
468.78	5378.55
468.96	5224.08
469.14	5249.82
469.32	5334.08
469.50	5317.70
469.69	5399.62
469.87	5451.11
470.05	5341.10
470.23	5296.63
470.41	5481.53
470.59	5364.51
470.77	5439.40
470.95	5502.60
471.14	5687.50
471.32	5441.75
471.50	5600.90
471.68	5832.62
471.86	5757.72
472.04	5713.25
472.22	5797.51
472.40	5671.12
472.58	5547.07
472.77	5837.30
472.95	5893.47
473.13	5987.09
473.31	5776.44
473.49	6012.84
473.67	5942.62
473.85	5944.96
474.03	6001.13
474.21	5935.60
474.39	5898.15
474.57	6162.63
474.75	6167.31
474.93	6209.44
475.12	6249.23
475.30	6258.59
475.48	6328.81
475.66	6427.11
475.84	6420.09
476.02	6312.42
476.20	6506.69
476.38	6499.67
476.56	6717.34
476.74	6546.48
476.92	6586.27
477.10	6473.92
477.28	6670.53
477.46	6661.16
477.64	6747.76
477.82	6892.88
478.00	6775.85
478.18	6960.75
478.36	7124.59
478.54	7180.76
478.72	7115.23
478.90	7232.26
479.08	7124.59
479.26	7201.83
479.44	7351.62
479.62	7337.58
479.80	7492.05
479.98	7482.69
480.16	7487.37
480.34	7545.89
480.52	7646.53
480.70	7604.40
480.88	7562.27
481.06	7801.01
481.24	7819.73
481.41	7941.44
481.59	8006.97
481.77	7957.82
481.95	8208.26
482.13	8327.63
482.31	8016.33
482.49	8159.11
482.67	8325.29
482.85	8465.72
483.03	8547.64
483.21	8566.36
483.39	8446.99
483.57	8690.41
483.74	8685.73
483.92	8887.01
484.10	8601.47
484.28	8922.12
484.46	9214.69
484.64	9132.77
484.82	9102.34
485.00	9242.78
485.18	9404.27
485.35	9582.15
485.53	9315.33
485.71	9488.53
485.89	9645.35
486.07	9750.67
486.25	9568.11
486.43	9764.72
486.61	9776.42
486.78	9832.59
486.96	10090.05
487.14	10249.21
487.32	10015.15
487.50	10111.11
487.68	10078.35
487.85	10410.70
488.03	10733.70
488.21	10490.28
488.39	10675.18
488.57	10595.61
488.75	10789.87
488.92	11044.99
489.10	11026.26
489.28	10899.87
489.46	11185.42
489.64	11178.40
489.81	11400.75
489.99	11459.26
490.17	11365.64
490.35	11698.00
490.53	11531.82
490.70	11847.79
490.88	11719.06
491.06	11723.74
491.24	11578.63
491.41	12086.53
491.59	12283.13
491.77	12063.12
491.95	12175.47
492.13	12334.62
492.30	12425.90
492.48	12383.77
492.66	12437.61
492.84	12498.46
493.01	12657.62
493.19	12540.59
493.37	13116.36
493.54	13001.68
493.72	12917.42
493.90	13202.96
494.08	12989.97
494.25	13118.70
494.43	12975.93
494.61	13245.09
494.79	13235.73
494.96	13277.86
495.14	13348.08
495.32	13664.05
495.49	13612.56
495.67	13596.17
495.85	13879.38
496.02	13954.27
496.20	13776.39
496.38	13980.02
496.55	14059.60
496.73	14162.58
496.91	14183.65
497.09	14497.28
497.26	14279.61
497.44	14546.43
497.62	14555.79
497.79	14717.29
497.97	14448.13
498.14	14787.50
498.32	15063.69
498.50	15049.64
498.67	14843.68
498.85	14925.60
499.03	14956.02
499.20	15056.67
499.38	15023.90
499.56	15269.66
499.73	15332.85
499.91	15346.89
500.08	15712.02
500.26	15328.17
500.44	15325.83
500.61	15587.97
500.79	15566.90
500.97	15990.54
501.14	16079.48
501.32	15983.52
501.49	15936.71
501.67	15761.17
501.84	15913.30
502.02	16203.53
502.20	16318.22
502.37	16229.27
502.55	16219.91
502.72	16203.53
502.90	16395.45
503.07	16079.48
503.25	16376.73
503.43	16416.52
503.60	16652.91
503.78	16709.08
503.95	16437.58
504.13	16648.23
504.30	16840.15
504.48	16767.60
504.65	16828.45
504.83	17081.23
505.01	17462.74
505.18	17245.07
505.36	17275.49
505.53	17102.29
505.71	17167.83
505.88	17163.15
506.06	17228.68
506.23	17329.33
506.41	17364.43
506.58	17692.11
506.76	17734.24
506.93	17495.50
507.11	17420.61
507.28	17537.63
507.46	17818.50
507.63	17792.75
507.81	18111.07
507.98	17982.34
508.16	17783.39
508.33	17846.58
508.50	18085.32
508.68	18066.60
508.85	17811.48
509.03	18118.09
509.20	18389.59
509.38	18656.41
509.55	18338.10
509.73	18743.01
509.90	18448.10
510.08	18530.02
510.25	18417.68
510.42	18815.57
510.60	19040.26
510.77	19019.19
510.95	19007.49
511.12	18822.59
511.30	18743.01
511.47	18995.79
511.64	18874.08
511.82	19246.23
511.99	19126.86
512.17	19344.53
512.34	19580.92
512.51	19295.38
512.69	19131.54
512.86	19620.71
513.04	19564.54
513.21	19377.30
513.38	19431.13
513.56	19686.25
513.73	19534.11
513.90	19763.48
514.08	19803.27
514.25	19852.42
514.43	19726.04
514.60	19524.75
514.77	19885.19
514.95	20116.90
515.12	19782.21
515.29	20020.94
515.47	20498.41
515.64	20128.61
515.81	20187.12
515.99	20205.84
516.16	20257.34
516.33	20540.54
516.51	20484.37
516.68	20175.42
516.85	20067.75
517.03	20688.00
517.20	20577.99
517.37	20610.76
517.54	20994.61
517.72	21146.74
517.89	20978.22
518.06	20891.62
518.24	21027.37
518.41	20790.98
518.58	20812.04
518.75	21046.10
518.93	21163.12
519.10	21282.49
519.27	21266.11
519.45	20938.43
519.62	21572.72
519.79	21149.08
519.96	21668.68
520.14	21219.30
520.31	21404.20
520.48	21589.10
520.65	21666.34
520.83	21617.19
521.00	21542.29
521.17	21511.86
521.34	21745.92
521.52	21774.00
521.69	22143.81
521.86	21762.30
522.03	21762.30
522.20	22082.95
522.38	22111.04
522.55	22111.04
522.72	22078.27
522.89	22015.08
523.07	22143.81
523.24	22242.11
523.41	22005.72
523.58	21958.91
523.75	22317.01
523.92	22218.71
524.10	22136.79
524.27	22511.27
524.44	22216.36
524.61	22876.40
524.78	22810.86
524.96	22347.44
525.13	22836.61
525.30	22927.89
525.47	22572.13
525.64	22768.73
525.81	22817.88
525.98	22988.74
526.16	23044.91
526.33	22717.24
526.50	22888.10
526.67	23096.41
526.84	22827.24
527.01	22944.27
527.18	22963.00
527.36	23487.28
527.53	23044.91
527.70	23391.31
527.87	23428.76
528.04	23098.75
528.21	23330.46
528.38	23236.84
528.55	23583.24
528.72	23253.22
528.89	23679.20
529.07	23440.47
529.24	23220.45
529.41	23541.11
529.58	23597.28
529.75	23562.17
529.92	23800.91
530.09	23910.91
530.26	24032.62
530.43	23885.17
530.60	23716.65
530.77	23946.02
530.94	23887.51
531.11	23997.51
531.28	23786.86
531.46	24041.98
531.63	24159.01
531.80	24133.26
531.97	24297.10
532.14	24362.64
532.31	24191.78
532.48	24191.78
532.65	24325.19
532.82	24332.21
532.99	24400.08
533.16	24135.60
533.33	24629.46
533.50	24718.40
533.67	24496.05
533.84	24128.58
534.01	24208.16
534.18	24439.87
534.35	24563.92
534.52	24886.92
534.69	24886.92
534.86	24795.64
535.03	24678.61
535.20	24858.83
535.37	24849.47
535.54	24996.92
535.71	24636.48
535.88	24772.23
536.05	25291.83
536.22	24959.47
536.38	25057.78
536.55	25209.91
536.72	25034.37
536.89	25282.47
537.06	24975.86
537.23	25249.70
537.40	25268.42
537.57	24971.18
537.74	25420.56
537.91	25364.39
538.08	25324.60
538.25	25268.42
538.42	25443.96
538.59	25315.23
538.75	25631.21
538.92	25460.35
539.09	25736.53
539.26	25722.49
539.43	25572.69
539.60	25633.55
539.77	25570.35
539.94	26050.16
540.11	25598.44
540.28	25940.16
540.44	25458.01
540.61	25898.03
540.78	25734.19
540.95	26068.89
541.12	25937.82
541.29	25666.31
541.46	25930.80
541.62	25530.56
541.79	25862.92
541.96	25816.11
542.13	25998.67
542.30	26211.66
542.47	26501.89
542.63	26300.60
542.80	26419.97
542.97	26394.22
543.14	26380.18
543.31	26417.63
543.48	26717.22
543.64	26595.51
543.81	26218.68
543.98	26684.45
544.15	26607.21
544.32	26778.07
544.48	26576.78
544.65	26885.73
544.82	26632.96
544.99	26511.25
545.16	26822.54
545.32	26778.07
545.49	27138.51
545.66	27075.32
545.83	27222.77
546.00	26927.86
546.16	26937.23
546.33	27068.30
546.50	26473.80
546.67	26771.05
546.83	26749.98
547.00	27164.26
547.17	26787.43
547.34	27271.92
547.50	27288.31
547.67	27278.94
547.84	26913.82
548.00	27339.80
548.17	27157.24
548.34	27318.73
548.51	27562.15
548.67	27442.78
548.84	27693.22
549.01	27576.19
549.18	27372.57
549.34	27704.92
549.51	27417.04
549.68	27379.59
549.84	27627.68
550.01	27728.33
550.18	27192.34
550.34	27625.34
550.51	27786.84
550.68	27885.14
550.84	27426.40
551.01	27700.24
551.18	27515.34
551.34	27634.71
551.51	27585.55
551.68	27229.79
551.84	27730.67
552.01	27573.85
552.18	28074.73
552.34	27847.69
552.51	27674.49
552.68	28009.19
552.84	28189.41
553.01	27997.49
553.18	27889.82
553.34	28348.57
553.51	27974.08
553.67	28226.86
553.84	28402.40
554.01	28173.03
554.17	27953.02
554.34	28154.30
554.51	27756.41
554.67	28634.11
554.84	28531.13
555.00	27999.83
555.17	28088.77
555.33	28315.80
555.50	28222.18
555.67	28231.54
555.83	28510.07
556.00	28311.12
556.16	28636.45
556.33	28259.63
556.50	28547.51
556.66	28952.43
556.83	28606.03
556.99	28645.82
557.16	28863.49
557.32	28575.60
557.49	28945.41
557.65	28713.69
557.82	28741.78
557.98	28687.95
558.15	28533.47
558.32	29043.71
558.48	28601.35
558.65	28751.14
558.81	28540.49
558.98	28809.65
559.14	29008.60
559.31	28945.41
559.47	28961.79
559.64	28879.87
559.80	28786.25
559.97	29149.03
560.13	28416.44
560.30	28975.83
560.46	28526.45
560.63	29158.39
560.79	28739.44
560.96	28746.46
561.12	29144.35
561.29	28875.19
561.45	28591.98
561.61	29013.28
561.78	29235.63
561.94	29156.05
562.11	29371.38
562.27	29219.25
562.44	28889.23
562.60	28945.41
562.77	28886.89
562.93	29142.01
563.10	29680.33
563.26	28868.17
563.42	29699.06
563.59	29214.57
563.75	29202.86
563.92	29296.49
564.08	28926.68
564.24	29355.00
564.41	29083.50
564.57	28992.22
564.74	29060.09
564.90	29373.72
565.07	29034.35
565.23	29617.14
565.39	29193.50
565.56	29408.83
565.72	29427.56
565.88	29457.98
566.05	29682.67
566.21	29387.77
566.38	29539.90
566.54	29029.66
566.70	29521.18
566.87	29607.78
567.03	29825.45
567.19	29832.47
567.36	29118.60
567.52	29301.17
567.68	29457.98
567.85	29181.80
568.01	29570.33
568.17	29743.53
568.34	29652.25
568.50	29385.43
568.66	29420.53
568.83	29853.53
568.99	29481.39
569.15	29249.67
569.32	29357.34
569.48	29399.47
569.64	29806.72
569.81	29909.71
569.97	29792.68
570.13	29834.81
570.30	29640.54
570.46	29886.30
570.62	29654.59
570.78	29785.66
570.95	29565.65
571.11	29582.03
571.27	29642.88
571.43	29315.21
571.60	29750.55
571.76	29596.07
571.92	29972.90
572.09	29827.79
572.25	29874.60
572.41	29895.66
572.57	29975.24
572.74	29898.00
572.90	29736.51
573.06	29989.28
573.22	29909.71
573.38	30162.48
573.55	29975.24
573.71	30092.27
573.87	29907.37
574.03	29811.40
574.20	29727.14
574.36	29893.32
574.52	29820.77
574.68	29638.20
574.84	29951.84
575.01	30059.50
575.17	30024.39
575.33	29895.66
575.49	30223.34
575.65	29710.76
575.82	30160.14
575.98	29685.01
576.14	29851.19
576.30	29668.63
576.46	29741.19
576.62	30024.39
576.79	30003.33
576.95	29624.16
577.11	29867.58
577.27	30295.89
577.43	30267.81
577.59	29837.15
577.75	30134.40
577.92	29881.62
578.08	29886.30
578.24	29607.78
578.40	30057.16
578.56	29865.24
578.72	30340.36
578.88	30321.64
579.04	29888.64
579.21	30101.63
579.37	30183.55
579.53	30108.65
579.69	29809.06
579.85	29947.15
580.01	29795.02
580.17	30029.07
580.33	29951.84
580.49	30003.33
580.65	29982.26
580.82	30649.32
580.98	29914.39
581.14	30508.88
581.30	30000.99
581.46	29937.79
581.62	30122.69
581.78	29659.27
581.94	30218.66
582.10	29680.33
582.26	30272.49
582.42	30174.19
582.58	29970.56
582.74	29984.60
582.90	30284.19
583.06	30167.16
583.22	29949.50
583.38	30167.16
583.54	29752.89
583.70	29806.72
583.86	29944.81
584.02	30099.29
584.18	29883.96
584.34	30288.87
584.50	30433.99
584.66	30405.90
584.82	29907.37
584.98	30050.14
585.14	29930.77
585.30	29949.50
585.46	29914.39
585.62	30040.78
585.78	30237.38
585.94	29823.11
586.10	30263.13
586.26	30157.80
586.42	30665.70
586.58	30429.30
586.74	30354.41
586.90	29930.77
587.06	29820.77
587.22	30015.03
587.38	30288.87
587.54	30417.60
587.70	30342.70
587.86	30162.48
588.02	30340.36
588.18	30139.08
588.34	30059.50
588.49	30352.07
588.65	30309.94
588.81	30323.98
588.97	30431.65
589.13	30389.52
589.29	30354.41
589.45	30281.85
589.61	30590.80
589.77	30473.78
589.93	30291.21
590.08	30473.78
590.24	30153.12
590.40	30595.48
590.56	30623.57
590.72	30452.71
590.88	30000.99
591.04	30412.92
591.20	30415.26
591.35	30677.40
591.51	30703.15
591.67	30623.57
591.83	30855.28
591.99	30670.38
592.15	30581.44
592.31	30768.68
592.46	30265.47
592.62	30492.50
592.78	30513.56
592.94	30190.57
593.10	30583.78
593.26	30630.59
593.41	30665.70
593.57	30279.51
593.73	30682.08
593.89	30480.80
594.05	30623.57
594.20	30295.89
594.36	30632.93
594.52	30527.61
594.68	30492.50
594.84	30228.02
594.99	31005.08
595.15	30635.27
595.31	30572.08
595.47	30492.50
595.62	30857.62
595.78	30822.51
595.94	30429.30
596.10	30600.16
596.25	30803.79
596.41	30466.75
596.57	30338.02
596.73	30511.22
596.88	30668.04
597.04	30417.60
597.20	30782.73
597.36	30801.45
597.51	30644.63
597.67	31023.80
597.83	30551.01
597.99	30553.35
598.14	30916.14
598.30	30766.34
598.46	30340.36
598.61	30958.27
598.77	30588.46
598.93	30717.19
599.09	30808.47
599.24	30937.20
599.40	30794.43
599.56	30787.41
599.71	30862.30
599.87	31077.63
600.03	30850.60
600.18	30824.86
600.34	31051.89
600.50	30483.14
600.65	30529.95
600.81	30593.14
600.97	31044.87
601.12	30948.90
601.28	30962.95
601.44	30675.06
601.59	30869.33
601.75	30817.83
601.91	31229.77
602.06	30597.82
602.22	30988.69
602.37	31037.84
602.53	30712.51
602.69	31145.51
602.84	30834.22
603.00	30883.37
603.16	31087.00
603.31	30836.56
603.47	30658.68
603.62	30728.89
603.78	30897.41
603.94	30845.92
604.09	30621.23
604.25	30572.08
604.40	30829.54
604.56	30902.09
604.71	30944.22
604.87	30595.48
605.03	30913.80
605.18	30806.13
605.34	30705.49
605.49	30567.40
605.65	30785.07
605.80	30377.81
605.96	30497.18
606.12	30934.86
606.27	30490.16
606.43	30810.81
606.58	30962.95
606.74	30859.96
606.89	30953.58
607.05	30939.54
607.20	30731.23
607.36	30780.39
607.51	30611.87
607.67	30675.06
607.82	30511.22
607.98	30576.76
608.13	30923.16
608.29	30380.15
608.44	30438.67
608.60	30649.32
608.75	30944.22
608.91	30621.23
609.06	30405.90
609.22	30525.27
609.37	30331.00
609.53	30551.01
609.68	30323.98
609.84	30253.76
609.99	30209.29
610.15	30380.15
610.30	30302.92
610.46	30480.80
610.61	30391.86
610.76	30712.51
610.92	30136.74
611.07	30396.54
611.23	30375.47
611.38	30403.56
611.54	30438.67
611.69	30457.39
611.84	30244.40
612.00	30295.89
612.15	30293.55
612.31	30096.95
612.46	30419.94
612.62	30419.94
612.77	30295.89
612.92	30859.96
613.08	30265.47
613.23	30443.35
613.39	29860.55
613.54	30129.72
613.69	29928.43
613.85	30197.59
614.00	30155.46
614.15	30258.45
614.31	30342.70
614.46	30635.27
614.62	30050.14
614.77	30277.17
614.92	29977.58
615.08	30300.58
615.23	30118.01
615.38	30333.34
615.54	29706.08
615.69	29757.57
615.84	29692.04
616.00	30012.69
616.15	29605.44
616.30	29937.79
616.46	30101.63
616.61	29991.62
616.76	30101.63
616.92	30417.60
617.07	29823.11
617.22	30087.59
617.37	29675.65
617.53	29841.83
617.68	29956.52
617.83	29677.99
617.99	29893.32
618.14	29677.99
618.29	29979.92
618.45	29722.46
618.60	29944.81
618.75	29984.60
618.90	29605.44
619.06	30043.12
619.21	29413.51
619.36	29617.14
619.51	29502.45
619.67	29607.78
619.82	29570.33
619.97	29680.33
620.12	29462.66
620.28	29397.13
620.43	29319.89
620.58	29717.78
620.73	29750.55
620.89	29647.57
621.04	29575.01
621.19	29851.19
621.34	29567.99
621.49	29500.11
621.65	29476.71
621.80	29457.98
621.95	29282.44
622.10	29411.17
622.25	29230.95
622.41	29621.82
622.56	29385.43
622.71	29394.79
622.86	29380.74
623.01	29371.38
623.16	29127.97
623.32	29242.65
623.47	29546.92
623.62	29275.42
623.77	29277.76
623.92	29256.70
624.07	29053.07
624.23	29240.31
624.38	29483.73
624.53	29263.72
624.68	29666.29
624.83	29280.10
624.98	28936.04
625.13	28975.83
625.29	29347.98
625.44	29130.31
625.59	28959.45
625.74	28348.57
625.89	28751.14
626.04	28514.75
626.19	28460.91
626.34	28985.19
626.49	28594.32
626.65	28496.02
626.80	29390.11
626.95	29055.41
627.10	28753.48
627.25	28737.10
627.40	28929.02
627.55	28458.57
627.70	28545.17
627.85	28739.44
628.00	28608.37
628.15	28723.05
628.30	28699.65
628.45	28570.92
628.60	28409.42
628.76	28765.18
628.91	28615.39
629.06	28758.16
629.21	28594.32
629.36	28608.37
629.51	28189.41
629.66	28524.11
629.81	28273.67
629.96	28210.48
630.11	28231.54
630.26	28224.52
630.41	28030.26
630.56	28414.10
630.71	28652.84
630.86	28287.71
631.01	28364.95
631.16	28325.16
631.31	28142.60
631.46	28379.00
631.61	28290.06
631.76	28343.89
631.91	27903.87
632.06	28051.32
632.21	28037.28
632.36	28123.88
632.51	28198.77
632.66	28135.58
632.81	27908.55
632.96	28306.44
633.10	28034.94
633.25	28301.76
633.40	27920.25
633.55	28304.10
633.70	28037.28
633.85	27688.54
634.00	27686.20
634.15	28004.51
634.30	28018.55
634.45	27915.57
634.60	27505.98
634.75	27854.72
634.90	27826.63
635.05	27962.38
635.19	27632.36
635.34	27938.97
635.49	28168.35
635.64	28123.88
635.79	27873.44
635.94	27941.32
636.09	27985.79
636.24	27674.49
636.39	27501.29
636.53	27775.14
636.68	27704.92
636.83	27321.07
636.98	27784.50
637.13	27896.85
637.28	27821.95
637.43	27990.47
637.57	27838.33
637.72	27211.07
637.87	27571.51
638.02	27543.42
638.17	27845.35
638.32	27384.27
638.46	27536.40
638.61	27335.12
638.76	27129.15
638.91	27173.62
639.06	27328.10
639.20	27426.40
639.35	27646.41
639.50	27686.20
639.65	27278.94
639.80	27667.47
639.94	27400.65
640.09	27484.91
640.24	27213.41
640.39	26953.61
640.54	27431.08
640.68	27321.07
640.83	27014.46
640.98	27077.66
641.13	26841.26
641.27	27740.03
641.42	27218.09
641.57	27311.71
641.72	27033.19
641.86	27171.28
642.01	26864.67
642.16	26775.73
642.31	26909.14
642.45	26902.12
642.60	27070.64
642.75	26899.78
642.90	26857.65
643.04	26522.95
643.19	26958.29
643.34	26728.92
643.48	26953.61
643.63	26712.53
643.78	26752.32
643.93	26656.36
644.07	27262.56
644.22	26941.91
644.37	26518.27
644.51	26794.45
644.66	26572.10
644.81	26850.63
644.95	26916.16
645.10	26616.57
645.25	26302.94
645.39	26469.12
645.54	26515.93
645.69	26719.56
645.83	26677.43
645.98	26560.40
646.13	26757.00
646.27	26878.71
646.42	26511.25
646.57	26780.41
646.71	26525.29
646.86	26712.53
647.00	26513.59
647.15	26511.25
647.30	26600.19
647.44	26780.41
647.59	27044.89
647.74	26396.56
647.88	26228.04
648.03	26246.77
648.17	26478.48
648.32	26499.55
648.47	26410.60
648.61	26682.11
648.76	26363.79
648.90	26602.53
649.05	26452.73
649.20	26113.36
649.34	26260.81
649.49	26054.84
649.63	26045.48
649.78	26256.13
649.92	26246.77
650.07	26583.80
650.21	26403.58
650.36	26279.54
650.51	26242.09
650.65	26244.43
650.80	26277.19
650.94	26038.46
651.09	26206.98
651.23	26232.72
651.38	26150.81
651.52	26029.10
651.67	26057.18
651.81	25825.47
651.96	26132.08
652.10	25886.32
652.25	25881.64
652.39	26012.71
652.54	26419.97
652.68	26087.61
652.83	26150.81
652.97	26122.72
653.12	25972.92
653.26	25771.64
653.41	26197.62
653.55	25523.54
653.70	25984.63
653.84	25614.82
653.99	25783.34
654.13	25687.38
654.27	25504.82
654.42	25663.97
654.56	25500.14
654.71	25858.24
654.85	26106.34
655.00	26169.53
655.14	25443.96
655.29	25724.83
655.43	25647.59
655.57	25806.75
655.72	25399.49
655.86	25331.62
656.01	25668.66
656.15	25118.63
656.30	25429.92
656.44	25230.98
656.58	25420.56
656.73	25324.60
656.87	25682.70
657.01	25401.83
657.16	25626.53
657.30	25392.47
657.45	25310.55
657.59	25240.34
657.73	25186.50
657.88	25415.88
658.02	25034.37
658.16	24896.28
658.31	25165.44
658.45	25041.39
658.60	24877.55
658.74	24751.17
658.88	25109.27
659.03	24924.36
659.17	25249.70
659.31	25041.39
659.46	24971.18
659.60	25401.83
659.74	25156.08
659.89	24982.88
660.03	24613.07
660.17	24760.53
660.32	24467.96
660.46	24519.45
660.60	24936.07
660.74	24587.33
660.89	24673.93
661.03	24664.57
661.17	24931.39
661.32	24486.68
661.46	24821.38
661.60	24704.35
661.74	24367.32
661.89	24617.75
662.03	24828.40
662.17	24463.28
662.31	24369.66
662.46	24126.24
662.60	24339.23
662.74	24512.43
662.88	24095.82
663.03	24226.89
663.17	24245.61
663.31	24484.34
663.45	24236.25
663.60	24243.27
663.74	23840.70
663.88	24465.62
664.02	24081.77
664.17	24428.17
664.31	23913.25
664.45	23913.25
664.59	23917.93
664.73	24238.59
664.88	24231.57
665.02	23838.36
665.16	23852.40
665.30	23742.39
665.44	23491.96
665.59	23356.21
665.73	23506.00
665.87	23435.78
666.01	23765.80
666.15	23440.47
666.29	23571.54
666.44	23339.82
666.58	23400.68
666.72	23276.63
666.86	23459.19
667.00	23543.45
667.14	23419.40
667.28	23323.44
667.43	23445.15
667.57	23267.27
667.71	23255.56
667.85	23023.85
667.99	23103.43
668.13	23119.81
668.27	23112.79
668.41	23112.79
668.56	22995.76
668.70	23080.02
668.84	23152.58
668.98	22803.84
669.12	23391.31
669.26	23183.01
669.40	22988.74
669.54	22560.42
669.68	22852.99
669.82	22815.54
669.96	22677.45
670.10	22693.83
670.25	22501.91
670.39	22508.93
670.53	22455.10
670.67	22532.34
670.81	22569.79
670.95	22398.93
671.09	22160.19
671.23	22141.47
671.37	22434.03
671.51	22541.70
671.65	22225.73
671.79	22237.43
671.93	21935.50
672.07	21759.96
672.21	22195.30
672.35	22082.95
672.49	21750.60
672.63	21947.20
672.77	21734.21
672.91	21825.50
673.05	21577.40
673.19	21788.05
673.33	21846.56
673.47	21713.15
673.61	21612.51
673.75	21542.29
673.89	21647.61
674.03	21851.24
674.17	21710.81
674.31	21261.43
674.45	21441.65
674.59	21394.84
674.73	21336.32
674.87	21174.83
675.01	21352.71
675.15	20940.77
675.29	21048.44
675.43	21003.97
675.56	21366.75
675.70	21160.78
675.84	21060.14
675.98	20491.39
676.12	21081.21
676.26	21373.77
676.40	20648.21
676.54	20718.42
676.68	20847.15
676.82	20489.05
676.96	20769.91
677.10	20692.68
677.23	20477.35
677.37	20512.46
677.51	20418.83
677.65	20180.10
677.79	19850.08
677.93	20245.63
678.07	20084.14
678.21	19971.79
678.34	19910.94
678.48	19711.99
678.62	19990.52
678.76	19477.94
678.90	19552.84
679.04	19686.25
679.18	19793.91
679.31	19578.58
679.45	19414.74
679.59	19377.30
679.73	19208.78
679.87	19164.31
680.00	19002.81
680.14	18988.77
680.28	19063.66
680.42	19173.67
680.56	18981.74
680.70	18953.66
680.83	19302.40
680.97	18927.91
681.11	19253.25
681.25	18750.03
681.39	18696.20
681.52	18867.06
681.66	18766.42
681.80	18497.25
681.94	18668.11
682.07	18518.32
682.21	18375.55
682.35	18551.09
682.49	18515.98
682.62	18436.40
682.76	18398.95
682.90	18068.94
683.04	18068.94
683.17	18305.33
683.31	17980.00
683.45	17954.25
683.59	18036.17
683.72	17958.93
683.86	17790.41
684.00	17961.27
684.13	17788.07
684.27	17715.51
684.41	17605.51
684.55	17586.79
684.68	17439.33
684.82	17469.76
684.96	17432.31
685.09	17238.05
685.23	17130.38
685.37	17172.51
685.50	17242.73
685.64	16933.78
685.78	16791.00
685.91	17123.36
686.05	17043.78
686.19	16971.22
686.32	17165.49
686.46	16877.60
686.60	16484.39
686.73	16678.66
686.87	16575.67
687.01	16470.35
687.14	16512.48
687.28	16423.54
687.42	16446.94
687.55	16468.01
687.69	16442.26
687.82	16346.30
687.96	16051.39
688.10	16037.35
688.23	16145.02
688.37	16145.02
688.50	16051.39
688.64	15964.79
688.78	16100.55
688.91	15775.21
689.05	15875.85
689.18	15693.29
689.32	15330.51
689.46	15573.92
689.59	15468.60
689.73	15737.76
689.86	15234.55
690.00	15250.93
690.13	15440.51
690.27	15410.09
690.41	15360.94
690.54	15328.17
690.68	15222.84
690.81	15290.72
690.95	15040.28
691.08	14913.89
691.22	15150.29
691.35	14918.57
691.49	14810.91
691.62	14787.50
691.76	14785.16
691.89	14647.07
692.03	14167.26
692.16	14415.36
692.30	14583.88
692.43	14265.57
692.57	14438.76
692.70	14492.60
692.84	14305.35
692.97	14174.28
693.11	14246.84
693.24	14150.88
693.38	14246.84
693.51	14132.15
693.65	14242.16
693.78	14047.90
693.92	14104.07
694.05	13832.57
694.19	13944.91
694.32	13710.86
694.45	13385.52
694.59	13792.78
694.72	13427.65
694.86	13319.99
694.99	13291.90
695.13	13277.86
695.26	13132.75
695.39	13142.11
695.53	13301.26
695.66	13221.69
695.80	13114.02
695.93	13142.11
696.07	13193.60
696.20	12940.82
696.33	13179.56
696.47	13125.72
696.60	12765.28
696.73	12678.68
696.87	12814.43
697.00	12566.34
697.14	12699.75
697.27	12409.52
697.40	12409.52
697.54	12547.61
697.67	12334.62
697.80	12259.73
697.94	12276.11
698.07	12238.66
698.21	12175.47
698.34	12114.61
698.47	12205.89
698.61	11990.56
698.74	11992.90
698.87	12028.01
699.01	12219.94
699.14	11805.66
699.27	11768.21
699.40	11800.98
699.54	11808.00
699.67	11840.77
699.80	11714.38
699.94	11838.43
700.07	11449.90
700.20	11459.26
700.34	11377.34
700.47	11494.37
700.60	11220.53
700.73	11705.02
700.87	11440.54
701.00	11183.08
701.13	11229.89
701.26	11122.23
701.40	11082.44
701.53	11059.03
701.66	10832.00
701.79	11007.54
701.93	11119.89
702.06	10824.98
702.19	10651.78
702.32	10736.04
702.46	10640.08
702.59	10586.24
702.72	10593.26
702.85	10511.35
702.99	10614.33
703.12	10455.17
703.25	10195.37
703.38	10504.32
703.51	10490.28
703.65	10450.49
703.78	10326.44
703.91	10366.23
704.04	10403.68
704.17	10218.78
704.31	10197.71
704.44	9966.00
704.57	9764.72
704.70	10143.88
704.83	9973.02
704.96	9839.61
705.10	9818.55
705.23	9727.27
>>>>>End Processed Spectral Data<<<<<
