SpectraSuite Data File
++++++++++++++++++++++++++++++++++++
Date: Fri Oct 18 13:58:39 GMT-05:00 2013
User: bianchi
Dark Spectrum Present: No
Reference Spectrum Present: No
Number of Sampled Component Spectra: 1
Spectrometers: USB2+H05261
Integration Time (usec): 50000 (USB2+H05261)
Spectra Averaged: 1 (USB2+H05261)
Boxcar Smoothing: 0 (USB2+H05261)
Correct for Electrical Dark: No (USB2+H05261)
Strobe/Lamp Enabled: No (USB2+H05261)
Correct for Detector Non-linearity: No (USB2+H05261)
Correct for Stray Light: No (USB2+H05261)
Number of Pixels in Processed Spectrum: 2048
>>>>>Begin Processed Spectral Data<<<<<
365.73	0.00
365.92	0.00
366.12	0.00
366.32	0.00
366.52	0.00
366.72	0.00
366.91	0.00
367.11	0.00
367.31	0.00
367.51	0.00
367.70	0.00
367.90	0.00
368.10	0.00
368.30	0.00
368.49	0.00
368.69	0.00
368.89	0.00
369.09	0.00
369.28	0.00
369.48	0.00
369.68	0.00
369.87	0.00
370.07	0.00
370.27	0.00
370.47	0.00
370.66	84.26
370.86	74.90
371.06	95.96
371.25	208.31
371.45	107.66
371.65	138.09
371.84	140.43
372.04	107.66
372.24	191.92
372.44	236.39
372.63	173.20
372.83	208.31
373.03	227.03
373.22	140.43
373.42	187.24
373.62	201.29
373.81	212.99
374.01	182.56
374.21	126.39
374.40	292.57
374.60	250.44
374.79	210.65
374.99	278.52
375.19	241.08
375.38	234.05
375.58	269.16
375.78	198.95
375.97	306.61
376.17	273.84
376.37	238.73
376.56	236.39
376.76	278.52
376.95	280.86
377.15	318.31
377.35	259.80
377.54	304.27
377.74	217.67
377.93	241.08
378.13	304.27
378.33	341.72
378.52	271.50
378.72	341.72
378.91	294.91
379.11	264.48
379.31	201.29
379.50	264.48
379.70	287.89
379.89	407.25
380.09	250.44
380.28	252.78
380.48	262.14
380.68	285.55
380.87	308.95
381.07	304.27
381.26	325.33
381.46	418.96
381.65	355.76
381.85	327.68
382.04	369.80
382.24	290.23
382.43	287.89
382.63	330.02
382.83	369.80
383.02	290.23
383.22	388.53
383.41	428.32
383.61	283.20
383.80	344.06
384.00	454.06
384.19	325.33
384.39	425.98
384.58	390.87
384.78	390.87
384.97	341.72
385.17	390.87
385.36	447.04
385.56	348.74
385.75	449.38
385.95	418.96
386.14	395.55
386.34	322.99
386.53	367.46
386.72	386.19
386.92	451.72
387.11	397.89
387.31	393.21
387.50	365.12
387.70	425.98
387.89	367.46
388.09	435.34
388.28	433.00
388.48	444.70
388.67	440.02
388.86	477.47
389.06	463.43
389.25	465.77
389.45	463.43
389.64	456.40
389.84	550.03
390.03	425.98
390.22	423.64
390.42	400.23
390.61	493.85
390.81	500.87
391.00	458.74
391.19	578.11
391.39	486.83
391.58	594.50
391.78	589.82
391.97	557.05
392.16	491.51
392.36	596.84
392.55	559.39
392.75	571.09
392.94	545.34
393.13	444.70
393.33	557.05
393.52	554.71
393.71	608.54
393.91	592.16
394.10	538.32
394.29	603.86
394.49	641.31
394.68	540.66
394.88	624.92
395.07	636.63
395.26	594.50
395.46	629.60
395.65	643.65
395.84	615.56
396.04	657.69
396.23	627.26
396.42	636.63
396.62	606.20
396.81	653.01
397.00	678.76
397.19	643.65
397.39	690.46
397.58	653.01
397.77	627.26
397.97	615.56
398.16	653.01
398.35	725.57
398.55	681.10
398.74	716.20
398.93	739.61
399.12	669.39
399.32	725.57
399.51	725.57
399.70	763.01
399.90	697.48
400.09	748.97
400.28	758.33
400.47	713.86
400.67	837.91
400.86	793.44
401.05	781.74
401.24	828.55
401.44	788.76
401.63	741.95
401.82	795.78
402.01	681.10
402.21	767.70
402.40	770.04
402.59	788.76
402.78	767.70
402.97	870.68
403.17	826.21
403.36	809.83
403.55	830.89
403.74	821.53
403.93	854.30
404.13	868.34
404.32	908.13
404.51	847.27
404.70	959.62
404.89	830.89
405.09	957.28
405.28	1036.86
405.47	950.26
405.66	1071.97
405.85	985.37
406.05	1004.09
406.24	1011.11
406.43	940.90
406.62	945.58
406.81	983.02
407.00	1013.45
407.20	912.81
407.39	1057.92
407.58	1071.97
407.77	1074.31
407.96	1043.88
408.15	1111.75
408.34	1090.69
408.54	1088.35
408.73	1121.12
408.92	1137.50
409.11	1088.35
409.30	1100.05
409.49	1191.33
409.68	1170.27
409.87	1156.22
410.07	1203.04
410.26	1156.22
410.45	1081.33
410.64	1174.95
410.83	1186.65
411.02	1160.91
411.21	1296.66
411.40	1228.78
411.59	1224.10
411.78	1233.46
411.98	1329.42
412.17	1394.96
412.36	1240.48
412.55	1294.32
412.74	1362.19
412.93	1329.42
413.12	1366.87
413.31	1387.94
413.50	1331.76
413.69	1301.34
413.88	1390.28
414.07	1423.05
414.26	1369.21
414.45	1409.00
414.64	1448.79
414.83	1371.55
415.02	1446.45
415.22	1519.01
415.41	1565.82
415.60	1509.65
415.79	1537.73
415.98	1598.59
416.17	1570.50
416.36	1572.84
416.55	1540.07
416.74	1678.16
416.93	1586.88
417.12	1650.08
417.31	1675.82
417.50	1645.40
417.69	1659.44
417.88	1722.63
418.07	1652.42
418.26	1746.04
418.45	1699.23
418.64	1771.79
418.83	1778.81
419.02	1764.76
419.21	1652.42
419.39	1802.21
419.58	1818.60
419.77	1877.11
419.96	1741.36
420.15	1858.39
420.34	1881.79
420.53	1853.70
420.72	1825.62
420.91	1872.43
421.10	1874.77
421.29	1987.11
421.48	1944.99
421.67	1914.56
421.86	1879.45
422.05	1942.64
422.24	1914.56
422.43	1930.94
422.61	1952.01
422.80	1984.77
422.99	1989.46
423.18	1966.05
423.37	2033.93
423.56	1989.46
423.75	1928.60
423.94	1963.71
424.13	1907.54
424.32	1928.60
424.50	1954.35
424.69	2008.18
424.88	2047.97
425.07	2029.24
425.26	1989.46
425.45	2003.50
425.64	1975.41
425.83	2029.24
426.01	2155.63
426.20	2132.23
426.39	2136.91
426.58	2005.84
426.77	2022.22
426.96	1963.71
427.15	2052.65
427.33	2139.25
427.52	1977.75
427.71	2064.35
427.90	2120.53
428.09	2200.10
428.28	2153.29
428.46	2204.78
428.65	2085.42
428.84	2132.23
429.03	2237.55
429.22	2153.29
429.40	2260.96
429.59	2239.89
429.78	2258.62
429.97	2045.63
430.16	2160.31
430.34	2249.25
430.53	2251.60
430.72	2239.89
430.91	2207.13
431.10	2195.42
431.28	2307.77
431.47	2352.24
431.66	2359.26
431.85	2300.75
432.03	2394.37
432.22	2466.92
432.41	2307.77
432.60	2445.86
432.79	2375.64
432.97	2513.74
433.16	2473.95
433.35	2422.45
433.54	2483.31
433.72	2492.67
433.91	2457.56
434.10	2565.23
434.28	2417.77
434.47	2520.76
434.66	2427.14
434.85	2448.20
435.03	2623.74
435.22	2513.74
435.41	2661.19
435.59	2738.43
435.78	2658.85
435.97	2736.09
436.16	2651.83
436.34	2623.74
436.53	2764.17
436.72	2715.02
436.90	2656.51
437.09	2661.19
437.28	2628.42
437.46	2759.49
437.65	2633.10
437.84	2647.15
438.02	2836.73
438.21	2773.53
438.40	2818.00
438.58	2860.13
438.77	2991.20
438.96	2827.37
439.14	2839.07
439.33	2937.37
439.52	2995.89
439.70	2939.71
439.89	2958.44
440.08	2998.23
440.26	2949.08
440.45	3012.27
440.63	3033.33
440.82	3091.85
441.01	3098.87
441.19	3192.49
441.38	3150.36
441.57	3150.36
441.75	3192.49
441.94	3274.41
442.12	3253.34
442.31	3141.00
442.50	3267.39
442.68	3098.87
442.87	3253.34
443.05	3323.56
443.24	3337.60
443.43	3267.39
443.61	3386.76
443.80	3513.14
443.98	3318.88
444.17	3255.69
444.35	3421.86
444.54	3438.25
444.73	3410.16
444.91	3405.48
445.10	3377.39
445.28	3304.84
445.47	3428.88
445.65	3344.63
445.84	3569.32
446.02	3445.27
446.21	3543.57
446.39	3398.46
446.58	3513.14
446.77	3286.11
446.95	3487.40
447.14	3400.80
447.32	3461.65
447.51	3492.08
447.69	3419.52
447.88	3435.91
448.06	3592.72
448.25	3438.25
448.43	3445.27
448.62	3548.25
448.80	3478.04
448.99	3557.61
449.17	3644.21
449.36	3611.45
449.54	3674.64
449.73	3578.68
449.91	3676.98
450.10	3705.07
450.28	3667.62
450.46	3552.93
450.65	3632.51
450.83	3786.99
451.02	3756.56
451.20	3747.20
451.39	3669.96
451.57	3698.05
451.76	3719.11
451.94	3653.58
452.13	3868.91
452.31	3915.72
452.49	3770.60
452.68	3808.05
452.86	3889.97
453.05	3908.69
453.23	4081.89
453.42	3894.65
453.60	3819.75
453.78	3836.14
453.97	3749.54
454.15	3906.35
454.34	3838.48
454.52	3948.48
454.70	3866.56
454.89	3985.93
455.07	3887.63
455.26	3957.85
455.44	4196.58
455.62	4070.19
455.81	3960.19
455.99	4252.75
456.17	4131.05
456.36	4088.92
456.54	4168.49
456.73	4081.89
456.91	4322.97
457.09	4184.88
457.28	4334.67
457.46	4208.28
457.64	4245.73
457.83	4245.73
458.01	4308.93
458.19	4430.63
458.38	4369.78
458.56	4383.82
458.74	4421.27
458.93	4318.29
459.11	4355.74
459.29	4313.61
459.48	4407.23
459.66	4451.70
459.84	4486.81
460.03	4631.92
460.21	4397.87
460.39	4592.13
460.57	4545.32
460.76	4486.81
460.94	4662.35
461.12	4627.24
461.31	4596.81
461.49	4582.77
461.67	4540.64
461.85	4727.88
462.04	4737.24
462.22	4894.06
462.40	4802.78
462.59	4690.43
462.77	4601.49
462.95	4624.90
463.13	4751.29
463.32	4765.33
463.50	4812.14
463.68	4980.66
463.86	4849.59
464.05	4676.39
464.23	4685.75
464.41	4889.38
464.59	4685.75
464.78	5011.09
464.96	4800.44
465.14	4765.33
465.32	4950.23
465.50	5067.26
465.69	4978.32
465.87	4861.29
466.05	5032.15
466.23	5011.09
466.41	4945.55
466.60	5263.86
466.78	5022.79
466.96	4950.23
467.14	5055.56
467.32	5121.09
467.51	5179.61
467.69	5025.13
467.87	5074.28
468.05	5034.49
468.23	5015.77
468.41	5097.69
468.60	5172.58
468.78	5390.25
468.96	5109.39
469.14	5315.36
469.32	5336.42
469.50	5205.35
469.69	5373.87
469.87	5376.21
470.05	5397.28
470.23	5380.89
470.41	5270.89
470.59	5320.04
470.77	5336.42
470.95	5329.40
471.14	5511.96
471.32	5359.83
471.50	5439.40
471.68	5596.22
471.86	5467.49
472.04	5612.60
472.22	5736.65
472.40	5533.03
472.58	5652.39
472.77	5556.43
472.95	5799.85
473.13	5898.15
473.31	5764.74
473.49	5729.63
473.67	5820.91
473.85	5795.17
474.03	5996.45
474.21	6057.31
474.39	5844.32
474.57	6066.67
474.75	6029.22
474.93	6179.01
475.12	6026.88
475.30	6148.59
475.48	6270.30
475.66	6258.59
475.84	6101.78
476.02	6256.25
476.20	6305.40
476.38	6359.24
476.56	6651.80
476.74	6597.97
476.92	6406.05
477.10	6448.18
477.28	6682.23
477.46	6612.01
477.64	6703.29
477.82	6672.87
478.00	6829.68
478.18	6888.20
478.36	6988.84
478.54	6902.24
478.72	6853.09
478.90	7005.22
479.08	7227.57
479.26	7157.36
479.44	7260.34
479.62	7267.36
479.80	7346.94
479.98	7353.96
480.16	7386.73
480.34	7662.91
480.52	7791.64
480.70	7772.92
480.88	7559.93
481.06	7702.70
481.24	7756.54
481.41	7779.94
481.59	7864.20
481.77	7936.76
481.95	7988.25
482.13	8004.63
482.31	8074.85
482.49	8355.71
482.67	8072.51
482.85	8250.39
483.03	8404.86
483.21	8547.64
483.39	8636.58
483.57	8507.85
483.74	8549.98
483.92	8538.27
484.10	8627.21
484.28	8945.53
484.46	9027.45
484.64	9123.41
484.82	8837.86
485.00	9064.89
485.18	9324.69
485.35	9399.59
485.53	9413.63
485.71	9256.82
485.89	9528.32
486.07	9378.53
486.25	9310.65
486.43	9572.79
486.61	9884.08
486.78	9844.29
486.96	10031.54
487.14	9998.77
487.32	9860.68
487.50	10071.33
487.68	10230.48
487.85	10115.80
488.03	10579.22
488.21	10406.02
488.39	10560.50
488.57	10782.85
488.75	10647.10
488.92	10597.95
489.10	10902.22
489.28	10712.63
489.46	10876.47
489.64	11033.29
489.81	11103.50
489.99	11133.93
490.17	11290.74
490.35	11379.68
490.53	11382.03
490.70	11613.74
490.88	11791.62
491.06	11618.42
491.24	11737.79
491.41	11927.37
491.59	11793.96
491.77	12009.29
491.95	11838.43
492.13	12180.15
492.30	12203.55
492.48	12318.24
492.66	12070.14
492.84	12098.23
493.01	12514.84
493.19	12648.26
493.37	12549.95
493.54	12896.35
493.72	12959.55
493.90	12992.31
494.08	12973.59
494.25	12924.44
494.43	12872.95
494.61	13144.45
494.79	13221.69
494.96	13071.89
495.14	13413.61
495.32	13231.05
495.49	13551.70
495.67	13298.92
495.85	13675.75
496.02	13619.58
496.20	13802.14
496.38	13696.82
496.55	13818.52
496.73	14221.10
496.91	14029.17
497.09	14235.14
497.26	14040.87
497.44	14047.90
497.62	14366.21
497.79	14455.15
497.97	14368.55
498.14	14623.67
498.32	14618.99
498.50	14644.73
498.67	14768.78
498.85	14855.38
499.03	14979.43
499.20	14981.77
499.38	14984.11
499.56	15255.61
499.73	14904.53
499.91	15187.74
500.08	15115.18
500.26	15414.77
500.44	15272.00
500.61	15384.34
500.79	15492.01
500.97	15487.32
501.14	15566.90
501.32	15676.91
501.49	15836.06
501.67	15576.27
501.84	15630.10
502.02	15721.38
502.20	15964.79
502.37	15913.30
502.55	16018.63
502.72	16002.24
502.90	15866.49
503.07	16276.09
503.25	16290.13
503.43	16023.31
503.60	16257.36
503.78	16769.94
503.95	16683.34
504.13	16493.76
504.30	16769.94
504.48	16425.88
504.65	16514.82
504.83	16908.03
505.01	16830.79
505.18	16940.80
505.36	17097.61
505.53	17020.38
505.71	16994.63
505.88	17216.98
506.06	16919.73
506.23	17137.40
506.41	17221.66
506.58	17441.67
506.76	17348.05
506.93	17467.42
507.11	17247.41
507.28	17303.58
507.46	17507.21
507.63	17434.65
507.81	17514.23
507.98	17680.41
508.16	17816.16
508.33	17418.27
508.50	18073.62
508.68	18001.06
508.85	18085.32
509.03	17820.84
509.20	18045.53
509.38	18237.45
509.55	18239.79
509.73	18342.78
509.90	18214.05
510.08	18324.05
510.25	18251.50
510.42	18401.29
510.60	18359.16
510.77	18272.56
510.95	18721.95
511.12	18565.13
511.30	18597.90
511.47	18642.37
511.64	18642.37
511.82	18668.11
511.99	18885.78
512.17	18878.76
512.34	18988.77
512.51	18820.25
512.69	19236.86
512.86	19232.18
513.04	19082.39
513.21	19330.48
513.38	19349.21
513.56	19236.86
513.73	19264.95
513.90	19477.94
514.08	19080.05
514.25	19337.51
514.43	19613.69
514.60	19534.11
514.77	19438.15
514.95	19754.12
515.12	19775.19
515.29	19819.66
515.47	19735.40
515.64	19871.15
515.81	19772.85
515.99	20112.22
516.16	20109.88
516.33	20006.90
516.51	20065.41
516.68	20264.36
516.85	20233.93
517.03	20484.37
517.20	20198.82
517.37	20037.33
517.54	20486.71
517.72	20203.50
517.89	20615.44
518.06	20407.13
518.24	20411.81
518.41	20500.75
518.58	20369.68
518.75	20484.37
518.93	20699.70
519.10	20800.34
519.27	20793.32
519.45	20505.43
519.62	20795.66
519.79	21041.42
519.96	20650.55
520.14	21139.72
520.31	21015.67
520.48	21521.23
520.65	21139.72
520.83	21268.45
521.00	21245.04
521.17	21137.38
521.34	20971.20
521.52	21266.11
521.69	21448.67
521.86	21219.30
522.03	21612.51
522.20	21390.16
522.38	21628.89
522.55	21434.63
522.72	21448.67
522.89	21757.62
523.07	21942.52
523.24	21860.60
523.41	22080.61
523.58	21682.72
523.75	21879.33
523.92	22022.10
524.10	21933.16
524.27	22314.67
524.44	22403.61
524.61	22485.53
524.78	22216.36
524.96	21986.99
525.13	22265.52
525.30	22401.27
525.47	22202.32
525.64	22534.68
525.81	22164.87
525.98	22537.02
526.16	22827.24
526.33	22373.18
526.50	22918.53
526.67	22380.20
526.84	22553.40
527.01	22881.08
527.18	22551.06
527.36	22918.53
527.53	22787.46
527.70	23318.76
527.87	23262.58
528.04	22874.06
528.21	22822.56
528.38	22948.95
528.55	23498.98
528.72	22895.12
528.89	23295.35
529.07	23545.79
529.24	23241.52
529.41	23421.74
529.58	23367.91
529.75	23257.90
529.92	23496.64
530.09	23316.42
530.26	23283.65
530.43	23552.81
530.60	23154.92
530.77	23733.03
530.94	23534.09
531.11	23274.29
531.28	23646.43
531.46	23777.50
531.63	23733.03
531.80	23625.37
531.97	23953.04
532.14	24037.30
532.31	23817.29
532.48	23913.25
532.65	24496.05
532.82	23777.50
532.99	23838.36
533.16	23969.43
533.33	24393.06
533.50	24477.32
533.67	24400.08
533.84	23875.80
534.01	24175.39
534.18	24095.82
534.35	24243.27
534.52	24521.79
534.69	24404.77
534.86	24456.26
535.03	24617.75
535.20	24070.07
535.37	24397.74
535.54	24694.99
535.71	24332.21
535.88	24159.01
536.05	24503.07
536.22	24678.61
536.38	24823.72
536.55	25013.31
536.72	24924.36
536.89	24762.87
537.06	24886.92
537.23	24781.59
537.40	24648.18
537.57	24503.07
537.74	24669.25
537.91	25242.68
538.08	24802.66
538.25	25219.27
538.42	24671.59
538.59	25256.72
538.75	24978.20
538.92	25186.50
539.09	25207.57
539.26	25214.59
539.43	25081.18
539.60	25144.38
539.77	25399.49
539.94	25666.31
540.11	25308.21
540.28	25348.00
540.44	25586.74
540.61	25528.22
540.78	25294.17
540.95	25387.79
541.12	25476.73
541.29	25411.20
541.46	25406.52
541.62	25373.75
541.79	25462.69
541.96	25818.45
542.13	25563.33
542.30	25626.53
542.47	25844.20
542.63	26026.76
542.80	26064.21
542.97	25771.64
543.14	26043.14
543.31	25979.95
543.48	26195.28
543.64	26417.63
543.81	26249.11
543.98	26436.35
544.15	26434.01
544.32	26476.14
544.48	26747.64
544.65	26192.94
544.82	26153.15
544.99	25809.09
545.16	26424.65
545.32	26466.78
545.49	26855.31
545.66	26656.36
545.83	26490.18
546.00	26398.90
546.16	26438.69
546.33	26632.96
546.50	26324.01
546.67	26623.59
546.83	26485.50
547.00	26925.52
547.17	26658.70
547.34	26551.04
547.50	26700.83
547.67	26986.38
547.84	26665.72
548.00	26946.59
548.17	27005.10
548.34	27058.93
548.51	27145.53
548.67	26782.75
548.84	27192.34
549.01	27346.82
549.18	27276.60
549.34	26757.00
549.51	27321.07
549.68	27136.17
549.84	27056.59
550.01	27255.54
550.18	27328.10
550.34	27096.38
550.51	27407.67
550.68	27159.58
550.84	27143.19
551.01	27276.60
551.18	27260.22
551.34	27019.14
551.51	27311.71
551.68	27414.69
551.84	27545.76
552.01	27339.80
552.18	27349.16
552.34	27428.74
552.51	27819.61
552.68	27360.86
552.84	27452.14
553.01	27728.33
553.18	27288.31
553.34	27601.94
553.51	27655.77
553.67	27871.10
553.84	27852.38
554.01	27658.11
554.17	28053.66
554.34	28004.51
554.51	27566.83
554.67	28203.46
554.84	27950.68
555.00	27768.12
555.17	28046.64
555.33	27990.47
555.50	27910.89
555.67	27711.94
555.83	27964.72
556.00	28084.09
556.16	28018.55
556.33	27742.37
556.50	28107.49
556.66	28189.41
556.83	28053.66
556.99	28664.54
557.16	28203.46
557.32	28470.28
557.49	28247.93
557.65	28283.03
557.82	28002.17
557.98	27988.13
558.15	28393.04
558.32	28446.87
558.48	28147.28
558.65	28458.57
558.81	28243.24
558.98	28690.29
559.14	28507.72
559.31	28339.21
559.47	28350.91
559.64	28409.42
559.80	27976.42
559.97	28683.27
560.13	28723.05
560.30	28194.09
560.46	28435.17
560.63	28561.56
560.79	28819.02
560.96	28690.29
561.12	27976.42
561.29	28208.14
561.45	28404.74
561.61	28905.62
561.78	28472.62
561.94	28776.89
562.11	28407.08
562.27	28634.11
562.44	28837.74
562.60	28481.98
562.77	28666.88
562.93	28671.56
563.10	28624.75
563.26	28362.61
563.42	29146.69
563.59	28575.60
563.75	28898.59
563.92	29034.35
564.08	28566.24
564.24	28954.77
564.41	28617.73
564.57	28968.81
564.74	28673.90
564.90	28858.81
565.07	28938.38
565.23	28966.47
565.39	29043.71
565.56	29153.71
565.72	28982.85
565.88	28891.57
566.05	28903.28
566.21	28624.75
566.38	28701.99
566.54	29024.98
566.70	28762.84
566.87	29132.65
567.03	28992.22
567.19	29083.50
567.36	29041.37
567.52	28938.38
567.68	29237.97
567.85	29062.43
568.01	28851.78
568.17	28666.88
568.34	29125.63
568.50	29252.02
568.66	29237.97
568.83	29177.12
568.99	29298.83
569.15	29109.24
569.32	28994.56
569.48	28701.99
569.64	29542.24
569.81	29076.48
569.97	29017.96
570.13	29057.75
570.30	29633.52
570.46	29551.60
570.62	29106.90
570.78	28954.77
570.95	29069.45
571.11	29465.00
571.27	28891.57
571.43	29401.81
571.60	29022.64
571.76	29097.54
571.92	29432.24
572.09	29326.91
572.25	29017.96
572.41	29308.19
572.57	29378.40
572.74	29528.20
572.90	29280.10
573.06	29235.63
573.22	29308.19
573.38	29324.57
573.55	29273.08
573.71	29687.36
573.87	29607.78
574.03	29055.41
574.20	29406.49
574.36	29034.35
574.52	29219.25
574.68	28992.22
574.84	29743.53
575.01	29298.83
575.17	29383.09
575.33	29102.22
575.49	29481.39
575.65	29549.26
575.82	29668.63
575.98	29422.87
576.14	29303.51
576.30	29326.91
576.46	29584.37
576.62	29177.12
576.79	29486.07
576.95	29551.60
577.11	29242.65
577.27	29848.85
577.43	29511.81
577.59	29661.61
577.75	29457.98
577.92	29221.59
578.08	29582.03
578.24	29654.59
578.40	29216.91
578.56	29736.51
578.72	29462.66
578.88	29455.64
579.04	30078.22
579.21	29706.08
579.37	29696.72
579.53	29706.08
579.69	29081.16
579.85	29483.73
580.01	29280.10
580.17	29010.94
580.33	29343.30
580.49	29628.84
580.65	29797.36
580.82	29780.98
580.98	29535.22
581.14	29582.03
581.30	30045.46
581.46	29820.77
581.62	29369.04
581.78	29820.77
581.94	29701.40
582.10	29530.54
582.26	29750.55
582.42	29535.22
582.58	29961.20
582.74	29879.28
582.90	29233.29
583.06	29736.51
583.22	29663.95
583.38	29738.85
583.54	29675.65
583.70	29127.97
583.86	29839.49
584.02	29287.12
584.18	29259.04
584.34	29350.32
584.50	30167.16
584.66	29869.92
584.82	29479.05
584.98	30103.97
585.14	29298.83
585.30	29490.75
585.46	29940.13
585.62	30096.95
585.78	29785.66
585.94	29336.27
586.10	29837.15
586.26	29769.27
586.42	30047.80
586.58	29692.04
586.74	29607.78
586.90	29572.67
587.06	29427.56
587.22	29383.09
587.38	29898.00
587.54	29544.58
587.70	30132.06
587.86	29788.00
588.02	29853.53
588.18	30244.40
588.34	29900.34
588.49	30071.20
588.65	29369.04
588.81	29855.87
588.97	29509.47
589.13	29839.49
589.29	29883.96
589.45	30213.98
589.61	29970.56
589.77	30204.61
589.93	29942.47
590.08	30174.19
590.24	30359.09
590.40	29982.26
590.56	29907.37
590.72	30087.59
590.88	29635.86
591.04	30108.65
591.20	30155.46
591.35	29909.71
591.51	30328.66
591.67	30309.94
591.83	29975.24
591.99	29832.47
592.15	29905.02
592.31	30052.48
592.46	29783.32
592.62	29937.79
592.78	29855.87
592.94	30230.36
593.10	29738.85
593.26	30192.91
593.41	30080.56
593.57	30185.89
593.73	29792.68
593.89	29961.20
594.05	29963.54
594.20	30398.88
594.36	30277.17
594.52	29848.85
594.68	30375.47
594.84	29647.57
594.99	30719.53
595.15	30129.72
595.31	30405.90
595.47	29965.88
595.62	30459.73
595.78	30302.92
595.94	30450.37
596.10	30043.12
596.25	30284.19
596.41	29806.72
596.57	29773.95
596.73	30160.14
596.88	30181.21
597.04	30071.20
597.20	30281.85
597.36	30162.48
597.51	30213.98
597.67	30019.71
597.83	30061.84
597.99	30139.08
598.14	30092.27
598.30	30237.38
598.46	29858.21
598.61	30375.47
598.77	29853.53
598.93	30698.47
599.09	30366.11
599.24	30742.94
599.40	30251.42
599.56	30841.24
599.71	30539.31
599.87	30281.85
600.03	29991.62
600.18	30101.63
600.34	30300.58
600.50	30005.67
600.65	29670.97
600.81	30597.82
600.97	30370.79
601.12	30590.80
601.28	30501.86
601.44	30522.93
601.59	30473.78
601.75	30206.95
601.91	30043.12
602.06	30134.40
602.22	30010.35
602.37	29855.87
602.53	30361.43
602.69	30618.89
602.84	30251.42
603.00	30494.84
603.16	30426.96
603.31	30309.94
603.47	30532.29
603.62	30218.66
603.78	30478.46
603.94	30047.80
604.09	30181.21
604.25	30279.51
604.40	30068.86
604.56	30003.33
604.71	30522.93
604.87	30387.18
605.03	30110.99
605.18	30263.13
605.34	30380.15
605.49	30249.08
605.65	30085.25
605.80	30043.12
605.96	30073.54
606.12	29996.31
606.27	30349.73
606.43	30277.17
606.58	30438.67
606.74	30698.47
606.89	30347.39
607.05	30705.49
607.20	30527.61
607.36	30281.85
607.51	29818.42
607.67	30022.05
607.82	30113.33
607.98	29961.20
608.13	29916.73
608.29	30033.75
608.44	30244.40
608.60	29713.10
608.75	30403.56
608.91	29963.54
609.06	29989.28
609.22	30211.64
609.37	29942.47
609.53	29876.94
609.68	29965.88
609.84	29844.17
609.99	29788.00
610.15	29584.37
610.30	29818.42
610.46	30022.05
610.61	30251.42
610.76	30223.34
610.92	29928.43
611.07	30029.07
611.23	29692.04
611.38	29687.36
611.54	29757.57
611.69	29813.74
611.84	29532.88
612.00	29886.30
612.15	29626.50
612.31	30005.67
612.46	29713.10
612.62	30108.65
612.77	29923.75
612.92	29944.81
613.08	29776.30
613.23	29874.60
613.39	29673.31
613.54	29385.43
613.69	29720.12
613.85	29668.63
614.00	30015.03
614.15	29764.59
614.31	29427.56
614.46	29593.73
614.62	29876.94
614.77	29673.31
614.92	29563.31
615.08	29535.22
615.23	30061.84
615.38	29570.33
615.54	29397.13
615.69	29549.26
615.84	29383.09
616.00	29392.45
616.15	29247.33
616.30	29586.71
616.46	29729.48
616.61	29490.75
616.76	29687.36
616.92	29434.58
617.07	29827.79
617.22	29567.99
617.37	29305.85
617.53	29460.32
617.68	29359.68
617.83	29230.95
617.99	29116.26
618.14	29221.59
618.29	29284.78
618.45	29357.34
618.60	29359.68
618.75	29593.73
618.90	29308.19
619.06	29399.47
619.21	29322.23
619.36	29488.41
619.51	29172.44
619.67	28837.74
619.82	28797.95
619.97	29415.85
620.12	28821.36
620.28	29139.67
620.43	29244.99
620.58	29408.83
620.73	29200.52
620.89	29366.70
621.04	29511.81
621.19	29160.73
621.34	28748.80
621.49	29142.01
621.65	28620.07
621.80	28898.59
621.95	28936.04
622.10	28891.57
622.25	29099.88
622.41	28767.52
622.56	28877.53
622.71	28886.89
622.86	28795.61
623.01	28800.29
623.16	28940.72
623.32	28858.81
623.47	28872.85
623.62	28900.94
623.77	28680.92
623.92	28711.35
624.07	28645.82
624.23	28952.43
624.38	28833.06
624.53	28652.84
624.68	28797.95
624.83	28533.47
624.98	28893.91
625.13	28594.32
625.29	28718.37
625.44	28720.71
625.59	28528.79
625.74	28304.10
625.89	28093.45
626.04	28467.94
626.19	28205.80
626.34	27920.25
626.49	28460.91
626.65	28257.29
626.80	28514.75
626.95	28327.50
627.10	28140.26
627.25	28332.18
627.40	28320.48
627.55	28299.42
627.70	28084.09
627.85	28224.52
628.00	28079.41
628.15	28044.30
628.30	27683.86
628.45	28236.22
628.60	28236.22
628.76	28119.20
628.91	27882.80
629.06	28018.55
629.21	28191.75
629.36	28402.40
629.51	27868.76
629.66	27934.29
629.81	27899.19
629.96	28156.64
630.11	27901.53
630.26	28250.27
630.41	28048.98
630.56	27735.35
630.71	28322.82
630.86	27882.80
631.01	28126.22
631.16	27789.18
631.31	27908.55
631.46	27943.66
631.61	27775.14
631.76	27798.54
631.91	27711.94
632.06	27623.00
632.21	27730.67
632.36	27721.30
632.51	27112.77
632.66	27744.71
632.81	27307.03
632.96	27693.22
633.10	28051.32
633.25	27534.06
633.40	27658.11
633.55	27604.28
633.70	27145.53
633.85	27487.25
634.00	27599.60
634.15	27615.98
634.30	27424.06
634.45	27772.80
634.60	27709.60
634.75	27627.68
634.90	27405.33
635.05	27517.68
635.19	27538.74
635.34	27763.43
635.49	27278.94
635.64	27136.17
635.79	27365.54
635.94	27356.18
636.09	27274.26
636.24	27159.58
636.39	26960.63
636.53	27332.78
636.68	27197.02
636.83	27271.92
636.98	27325.75
637.13	27309.37
637.28	27541.08
637.43	27271.92
637.57	27655.77
637.72	27346.82
637.87	26998.08
638.02	27068.30
638.17	26962.97
638.32	27098.72
638.46	26925.52
638.61	27030.85
638.76	26859.99
638.91	27112.77
639.06	26801.47
639.20	26597.85
639.35	26604.87
639.50	27159.58
639.65	27468.53
639.80	27185.32
639.94	26885.73
640.09	27030.85
640.24	27065.96
640.39	26618.91
640.54	26871.69
640.68	26890.41
640.83	26597.85
640.98	26558.06
641.13	26424.65
641.27	26649.34
641.42	26852.97
641.57	26902.12
641.72	27030.85
641.86	26876.37
642.01	26663.38
642.16	26796.79
642.31	26211.66
642.45	26518.27
642.60	26291.24
642.75	25982.29
642.90	26581.46
643.04	26417.63
643.19	26202.30
643.34	26094.63
643.48	26436.35
643.63	26377.84
643.78	26335.71
643.93	26764.03
644.07	26438.69
644.22	26576.78
644.37	26504.23
644.51	25979.95
644.66	26054.84
644.81	26434.01
644.95	26183.57
645.10	26153.15
645.25	26347.41
645.39	26541.68
645.54	26012.71
645.69	25998.67
645.83	26630.62
645.98	26387.20
646.13	26356.77
646.27	26190.59
646.42	26441.03
646.57	26279.54
646.71	25823.13
646.86	26071.23
647.00	26284.22
647.15	26146.12
647.30	25916.75
647.44	25832.49
647.59	25993.99
647.74	25766.96
647.88	25806.75
648.03	26094.63
648.17	25961.22
648.32	26347.41
648.47	25809.09
648.61	25942.50
648.76	26019.74
648.90	25933.14
649.05	25956.54
649.20	25376.09
649.34	25745.89
649.49	25619.50
649.63	25820.79
649.78	25715.47
649.92	25647.59
650.07	25649.93
650.21	25619.50
650.36	25905.05
650.51	25607.80
650.65	25888.67
650.80	25748.23
650.94	25577.37
651.09	25703.76
651.23	25947.18
651.38	25832.49
651.52	25467.37
651.67	25340.98
651.81	25841.85
651.96	25516.52
652.10	25647.59
652.25	25436.94
652.39	25488.43
652.54	25837.17
652.68	25563.33
652.83	25418.22
652.97	25212.25
653.12	25603.12
653.26	25319.92
653.41	25348.00
653.55	25200.55
653.70	25144.38
653.84	25514.18
653.99	25294.17
654.13	24641.16
654.27	25369.07
654.42	25296.51
654.56	25717.81
654.71	25682.70
654.85	25057.78
655.00	25296.51
655.14	25352.68
655.29	25268.42
655.43	25181.82
655.57	25266.08
655.72	24884.58
655.86	24982.88
656.01	25385.45
656.15	24826.06
656.30	25041.39
656.44	24830.74
656.58	25177.14
656.73	24739.46
656.87	24971.18
657.01	25078.84
657.16	25200.55
657.30	25116.29
657.45	25207.57
657.59	24917.34
657.73	25020.33
657.88	24882.24
658.02	25029.69
658.16	24800.32
658.31	24741.80
658.45	24907.98
658.60	24718.40
658.74	24444.56
658.88	24563.92
659.03	24549.88
659.17	24685.63
659.31	24374.34
659.46	24709.04
659.60	24772.23
659.74	24779.25
659.89	24582.65
660.03	24374.34
660.17	24460.94
660.32	24451.58
660.46	24339.23
660.60	24126.24
660.74	24465.62
660.89	24254.97
661.03	24032.62
661.17	23967.09
661.32	24290.08
661.46	24290.08
661.60	24210.50
661.74	24077.09
661.89	24135.60
662.03	24381.36
662.17	24051.34
662.31	24070.07
662.46	23906.23
662.60	23850.06
662.74	23934.32
662.88	23761.12
663.03	24084.11
663.17	23639.41
663.31	23611.32
663.45	23667.50
663.60	23475.57
663.74	23601.96
663.88	23522.38
664.02	23524.72
664.17	23941.34
664.31	23335.14
664.45	23365.57
664.59	23630.05
664.73	23412.38
664.88	23353.87
665.02	23033.21
665.16	23419.40
665.30	23213.43
665.44	23412.38
665.59	23082.36
665.73	23241.52
665.87	23019.17
666.01	23550.47
666.15	23101.09
666.29	23129.17
666.44	23351.52
666.58	22757.03
666.72	22960.66
666.86	22902.14
667.00	22852.99
667.14	22878.74
667.28	23023.85
667.43	22953.63
667.57	22927.89
667.71	22789.80
667.85	22789.80
667.99	22471.48
668.13	22810.86
668.27	22710.22
668.41	22773.41
668.56	22410.63
668.70	22668.09
668.84	22632.98
668.98	22487.87
669.12	22312.33
669.26	22520.63
669.40	22637.66
669.54	22349.78
669.68	22380.20
669.82	22244.45
669.96	22008.06
670.10	21975.29
670.25	22286.58
670.39	22253.81
670.53	21916.78
670.67	21986.99
670.81	22139.13
670.95	21958.91
671.09	21867.63
671.23	21855.92
671.37	21848.90
671.51	22356.80
671.65	21902.73
671.79	21549.31
671.93	21577.40
672.07	21792.73
672.21	21893.37
672.35	21476.76
672.49	21259.09
672.63	21664.00
672.77	21420.58
672.91	21458.03
673.05	21392.50
673.19	21443.99
673.33	21469.73
673.47	21387.82
673.61	21404.20
673.75	21076.52
673.89	21521.23
674.03	21186.53
674.17	21088.23
674.31	21104.61
674.45	21177.17
674.59	21053.12
674.73	21106.95
674.87	20999.29
675.01	20807.36
675.15	20709.06
675.29	20987.58
675.43	20957.16
675.56	20685.65
675.70	20788.64
675.84	20430.54
675.98	20355.64
676.12	20823.75
676.26	20994.61
676.40	20262.02
676.54	20664.59
676.68	20549.90
676.82	19892.21
676.96	20058.39
677.10	20161.37
677.23	19887.53
677.37	19803.27
677.51	20049.03
677.65	19496.66
677.79	19531.77
677.93	19719.01
678.07	19864.13
678.21	19686.25
678.34	19726.04
678.48	19384.32
678.62	19353.89
678.76	19246.23
678.90	19407.72
679.04	19346.87
679.18	19330.48
679.31	18888.12
679.45	19103.45
679.59	19058.98
679.73	19110.47
679.87	18773.44
680.00	18918.55
680.14	18967.70
680.28	19023.87
680.42	18944.30
680.56	18752.37
680.70	18719.60
680.83	18841.31
680.97	18710.24
681.11	18691.52
681.25	18843.65
681.39	18537.04
681.52	18768.76
681.66	18324.05
681.80	18150.85
681.94	18258.52
682.07	18300.65
682.21	18024.47
682.35	17998.72
682.49	17984.68
682.62	17996.38
682.76	17853.61
682.90	17919.14
683.04	17848.93
683.17	17743.60
683.31	18050.21
683.45	18015.10
683.59	17869.99
683.72	17341.03
683.86	17811.48
684.00	17308.26
684.13	17385.50
684.27	17266.13
684.41	17195.92
684.55	17198.26
684.68	16791.00
684.82	17036.76
684.96	17097.61
685.09	16760.58
685.23	16924.41
685.37	17022.72
685.50	16861.22
685.64	17123.36
685.78	16617.80
685.91	16716.11
686.05	16739.51
686.19	16631.85
686.32	16734.83
686.46	16585.04
686.60	16269.06
686.73	16484.39
686.87	16517.16
687.01	16472.69
687.14	16025.65
687.28	15981.18
687.42	16285.45
687.55	15955.43
687.69	16177.78
687.82	16058.42
687.96	16210.55
688.10	15803.30
688.23	16163.74
688.37	15962.45
688.50	15955.43
688.64	15763.51
688.78	15499.03
688.91	15346.89
689.05	15367.96
689.18	15564.56
689.32	15108.16
689.46	15227.53
689.59	15374.98
689.73	15311.78
689.86	15147.95
690.00	14806.23
690.13	15236.89
690.27	15033.26
690.41	15239.23
690.54	15229.87
690.68	15019.22
690.81	15089.43
690.95	14853.04
691.08	14857.72
691.22	14810.91
691.35	14530.05
691.49	14654.09
691.62	14822.61
691.76	14764.10
691.89	14633.03
692.03	14101.73
692.16	14265.57
692.30	14216.41
692.43	14094.71
692.57	14265.57
692.70	14153.22
692.84	14249.18
692.97	13956.61
693.11	13914.48
693.24	13860.65
693.38	13830.23
693.51	14108.75
693.65	13727.24
693.78	13589.15
693.92	13738.94
694.05	13661.71
694.19	13734.26
694.32	13422.97
694.45	13460.42
694.59	13167.85
694.72	13385.52
694.86	13439.36
694.99	13247.43
695.13	13083.59
695.26	12994.65
695.39	12929.12
695.53	12973.59
695.66	13029.76
695.80	13130.41
695.93	12943.16
696.07	12889.33
696.20	13174.88
696.33	12847.20
696.47	12793.37
696.60	12545.27
696.73	12723.15
696.87	12723.15
697.00	12662.30
697.14	12381.43
697.27	12308.88
697.40	12416.54
697.54	12283.13
697.67	12245.68
697.80	12327.60
697.94	11918.01
698.07	11941.41
698.21	11894.60
698.34	12212.92
698.47	12013.97
698.61	11913.33
698.74	11833.75
698.87	11908.65
699.01	11564.59
699.14	11901.62
699.27	11817.36
699.40	11721.40
699.54	11606.72
699.67	11573.95
699.80	11548.20
699.94	11389.05
700.07	11356.28
700.20	11145.63
700.34	11103.50
700.47	10998.18
700.60	10942.00
700.73	11290.74
700.87	11101.16
701.00	11126.91
701.13	11087.12
701.26	11075.42
701.40	11103.50
701.53	10934.98
701.66	10719.65
701.79	10843.70
701.93	10583.90
702.06	10640.08
702.19	10342.83
702.32	10600.29
702.46	10370.91
702.59	10593.26
702.72	10328.78
702.85	10485.60
702.99	10312.40
703.12	9996.43
703.25	10237.50
703.38	10251.55
703.51	10230.48
703.65	10176.65
703.78	10150.90
703.91	10068.98
704.04	10083.03
704.17	10090.05
704.31	10019.83
704.44	9865.36
704.57	9727.27
704.70	9687.48
704.83	9692.16
704.96	9659.39
705.10	9603.22
705.23	9551.73
>>>>>End Processed Spectral Data<<<<<
