SpectraSuite Data File
++++++++++++++++++++++++++++++++++++
Date: Fri Oct 18 13:58:24 GMT-05:00 2013
User: bianchi
Dark Spectrum Present: No
Reference Spectrum Present: No
Number of Sampled Component Spectra: 1
Spectrometers: USB2+H05261
Integration Time (usec): 50000 (USB2+H05261)
Spectra Averaged: 1 (USB2+H05261)
Boxcar Smoothing: 0 (USB2+H05261)
Correct for Electrical Dark: No (USB2+H05261)
Strobe/Lamp Enabled: No (USB2+H05261)
Correct for Detector Non-linearity: No (USB2+H05261)
Correct for Stray Light: No (USB2+H05261)
Number of Pixels in Processed Spectrum: 2048
>>>>>Begin Processed Spectral Data<<<<<
365.73	0.00
365.92	0.00
366.12	0.00
366.32	0.00
366.52	0.00
366.72	0.00
366.91	0.00
367.11	0.00
367.31	0.00
367.51	0.00
367.70	0.00
367.90	0.00
368.10	0.00
368.30	0.00
368.49	0.00
368.69	0.00
368.89	0.00
369.09	0.00
369.28	0.00
369.48	0.00
369.68	0.00
369.87	0.00
370.07	0.00
370.27	0.00
370.47	0.00
370.66	70.22
370.86	107.66
371.06	147.45
371.25	145.11
371.45	135.75
371.65	217.67
371.84	147.45
372.04	189.58
372.24	203.63
372.44	161.50
372.63	138.09
372.83	194.26
373.03	191.92
373.22	205.97
373.42	227.03
373.62	217.67
373.81	201.29
374.01	259.80
374.21	201.29
374.40	252.78
374.60	248.10
374.79	252.78
374.99	198.95
375.19	236.39
375.38	217.67
375.58	236.39
375.78	264.48
375.97	308.95
376.17	283.20
376.37	203.63
376.56	212.99
376.76	301.93
376.95	259.80
377.15	351.08
377.35	266.82
377.54	276.18
377.74	194.26
377.93	227.03
378.13	304.27
378.33	355.76
378.52	203.63
378.72	332.36
378.91	297.25
379.11	280.86
379.31	318.31
379.50	318.31
379.70	252.78
379.89	299.59
380.09	248.10
380.28	292.57
380.48	285.55
380.68	339.38
380.87	292.57
381.07	327.68
381.26	355.76
381.46	330.02
381.65	241.08
381.85	287.89
382.04	266.82
382.24	315.97
382.43	325.33
382.63	285.55
382.83	414.27
383.02	306.61
383.22	308.95
383.41	304.27
383.61	435.34
383.80	292.57
384.00	409.59
384.19	353.42
384.39	362.78
384.58	367.46
384.78	351.08
384.97	388.53
385.17	337.04
385.36	358.10
385.56	311.29
385.75	351.08
385.95	344.06
386.14	393.21
386.34	433.00
386.53	400.23
386.72	440.02
386.92	484.49
387.11	411.93
387.31	397.89
387.50	397.89
387.70	416.62
387.89	334.70
388.09	402.57
388.28	486.83
388.48	404.91
388.67	383.85
388.86	416.62
389.06	421.30
389.25	465.77
389.45	433.00
389.64	411.93
389.84	526.62
390.03	580.45
390.22	435.34
390.42	505.56
390.61	421.30
390.81	479.81
391.00	496.19
391.19	477.47
391.39	498.53
391.58	503.22
391.78	552.37
391.97	440.02
392.16	454.06
392.36	547.69
392.55	589.82
392.75	472.79
392.94	505.56
393.13	500.87
393.33	503.22
393.52	517.26
393.71	482.15
393.91	566.41
394.10	550.03
394.29	433.00
394.49	589.82
394.68	613.22
394.88	531.30
395.07	622.58
395.26	622.58
395.46	580.45
395.65	629.60
395.84	655.35
396.04	713.86
396.23	608.54
396.42	601.52
396.62	643.65
396.81	683.44
397.00	685.78
397.19	683.44
397.39	699.82
397.58	763.01
397.77	704.50
397.97	671.73
398.16	638.97
398.35	671.73
398.55	711.52
398.74	617.90
398.93	748.97
399.12	730.25
399.32	657.69
399.51	755.99
399.70	777.06
399.90	695.14
400.09	690.46
400.28	737.27
400.47	770.04
400.67	816.85
400.86	755.99
401.05	823.87
401.24	748.97
401.44	774.72
401.63	800.46
401.82	816.85
402.01	765.36
402.21	795.78
402.40	807.48
402.59	809.83
402.78	751.31
402.97	751.31
403.17	847.27
403.36	868.34
403.55	800.46
403.74	814.51
403.93	931.53
404.13	812.17
404.32	868.34
404.51	856.64
404.70	877.70
404.89	884.72
405.09	947.92
405.28	968.98
405.47	910.47
405.66	997.07
405.85	999.41
406.05	931.53
406.24	983.02
406.43	978.34
406.62	968.98
406.81	1123.46
407.00	1029.84
407.20	947.92
407.39	1018.13
407.58	978.34
407.77	1107.07
407.96	971.32
408.15	1032.18
408.34	1057.92
408.54	1060.26
408.73	1050.90
408.92	1144.52
409.11	1174.95
409.30	1191.33
409.49	1200.69
409.68	1097.71
409.87	1146.86
410.07	1217.08
410.26	1156.22
410.45	1069.62
410.64	1240.48
410.83	1287.29
411.02	1249.85
411.21	1137.50
411.40	1284.95
411.59	1256.87
411.78	1242.82
411.98	1240.48
412.17	1252.19
412.36	1362.19
412.55	1338.79
412.74	1299.00
412.93	1411.34
413.12	1357.51
413.31	1390.28
413.50	1359.85
413.69	1472.20
413.88	1486.24
414.07	1467.52
414.26	1352.83
414.45	1511.99
414.64	1411.34
414.83	1441.77
415.02	1523.69
415.22	1490.92
415.41	1514.33
415.60	1537.73
415.79	1584.54
415.98	1591.56
416.17	1568.16
416.36	1610.29
416.55	1600.93
416.74	1586.88
416.93	1554.12
417.12	1626.67
417.31	1645.40
417.50	1614.97
417.69	1673.48
417.88	1874.77
418.07	1696.89
418.26	1589.22
418.45	1687.53
418.64	1816.26
418.83	1760.08
419.02	1762.42
419.21	1832.64
419.39	1830.30
419.58	1741.36
419.77	1856.04
419.96	1867.75
420.15	1825.62
420.34	1788.17
420.53	1884.13
420.72	2045.63
420.91	1879.45
421.10	2024.56
421.29	1961.37
421.48	1851.36
421.67	1893.49
421.86	1947.33
422.05	1888.81
422.24	1900.52
422.43	2064.35
422.61	1968.39
422.80	1956.69
422.99	2026.90
423.18	2015.20
423.37	2033.93
423.56	2050.31
423.75	1952.01
423.94	1952.01
424.13	1902.86
424.32	1837.32
424.50	2038.61
424.69	2073.71
424.88	2022.22
425.07	2050.31
425.26	1949.67
425.45	2005.84
425.64	1963.71
425.83	1987.11
426.01	2157.97
426.20	2052.65
426.39	2008.18
426.58	2040.95
426.77	1998.82
426.96	2111.16
427.15	2073.71
427.33	2169.68
427.52	2099.46
427.71	2094.78
427.90	2092.44
428.09	2172.02
428.28	2190.74
428.46	2106.48
428.65	2127.55
428.84	2228.19
429.03	2256.28
429.22	2202.44
429.40	2300.75
429.59	2296.07
429.78	2183.72
429.97	2111.16
430.16	2111.16
430.34	2200.10
430.53	2270.32
430.72	2326.49
430.91	2340.54
431.10	2272.66
431.28	2361.60
431.47	2363.94
431.66	2424.80
431.85	2356.92
432.03	2387.35
432.22	2413.09
432.41	2417.77
432.60	2448.20
432.79	2473.95
432.97	2476.29
433.16	2427.14
433.35	2420.11
433.54	2459.90
433.72	2539.48
433.91	2436.50
434.10	2525.44
434.28	2490.33
434.47	2595.65
434.66	2480.97
434.85	2644.81
435.03	2647.15
435.22	2511.39
435.41	2775.88
435.59	2539.48
435.78	2630.76
435.97	2637.78
436.16	2700.98
436.34	2633.10
436.53	2623.74
436.72	2778.22
436.90	2686.94
437.09	2712.68
437.28	2562.89
437.46	2703.32
437.65	2658.85
437.84	2745.45
438.02	2724.38
438.21	2801.62
438.40	2750.13
438.58	2883.54
438.77	2956.10
438.96	2862.48
439.14	2974.82
439.33	2895.24
439.52	2918.65
439.70	2991.20
439.89	2902.26
440.08	3080.14
440.26	2932.69
440.45	3000.57
440.63	3028.65
440.82	2902.26
441.01	3000.57
441.19	3042.70
441.38	3091.85
441.57	3236.96
441.75	3159.72
441.94	3248.66
442.12	3220.58
442.31	3363.35
442.50	3302.50
442.68	3353.99
442.87	3267.39
443.05	3267.39
443.24	3265.05
443.43	3269.73
443.61	3267.39
443.80	3382.07
443.98	3363.35
444.17	3187.81
444.35	3393.78
444.54	3379.73
444.73	3452.29
444.91	3463.99
445.10	3449.95
445.28	3400.80
445.47	3428.88
445.65	3492.08
445.84	3489.74
446.02	3569.32
446.21	3346.97
446.39	3431.23
446.58	3351.65
446.77	3435.91
446.95	3510.80
447.14	3398.46
447.32	3564.64
447.51	3421.86
447.69	3581.02
447.88	3428.88
448.06	3403.14
448.25	3618.47
448.43	3543.57
448.62	3407.82
448.80	3379.73
448.99	3569.32
449.17	3506.12
449.36	3492.08
449.54	3578.68
449.73	3646.55
449.91	3651.24
450.10	3646.55
450.28	3644.21
450.46	3751.88
450.65	3714.43
450.83	3693.37
451.02	3716.77
451.20	3819.75
451.39	3602.08
451.57	3726.13
451.76	3784.65
451.94	3763.58
452.13	3929.76
452.31	3840.82
452.49	3772.94
452.68	3880.61
452.86	3833.80
453.05	3796.35
453.23	3997.64
453.42	3941.46
453.60	3782.31
453.78	3726.13
453.97	3882.95
454.15	3817.41
454.34	3875.93
454.52	4032.74
454.70	3985.93
454.89	3908.69
455.07	4102.96
455.26	4128.70
455.44	4018.70
455.62	4231.69
455.81	4081.89
455.99	4126.36
456.17	4077.21
456.36	4088.92
456.54	4126.36
456.73	4077.21
456.91	4088.92
457.09	4100.62
457.28	4437.66
457.46	4128.70
457.64	4196.58
457.83	4367.44
458.01	4346.37
458.19	4262.12
458.38	4248.07
458.56	4447.02
458.74	4306.59
458.93	4301.90
459.11	4379.14
459.29	4407.23
459.48	4510.21
459.66	4594.47
459.84	4456.38
460.03	4409.57
460.21	4397.87
460.39	4517.23
460.57	4568.73
460.76	4660.01
460.94	4552.34
461.12	4587.45
461.31	4526.60
461.49	4580.43
461.67	4601.49
461.85	4805.12
462.04	4622.56
462.22	4734.90
462.40	4627.24
462.59	4676.39
462.77	4638.94
462.95	4704.48
463.13	4772.35
463.32	4826.18
463.50	4828.53
463.68	4828.53
463.86	4903.42
464.05	4676.39
464.23	4760.65
464.41	4938.53
464.59	4690.43
464.78	5008.75
464.96	4746.61
465.14	4798.10
465.32	5022.79
465.50	5025.13
465.69	4992.36
465.87	5076.62
466.05	4880.02
466.23	4844.91
466.41	4826.18
466.60	5088.32
466.78	5036.83
466.96	5015.77
467.14	4849.59
467.32	5125.77
467.51	5125.77
467.69	5006.41
467.87	5193.65
468.05	5231.10
468.23	5186.63
468.41	5158.54
468.60	5104.71
468.78	5008.75
468.96	5214.71
469.14	5083.64
469.32	5233.44
469.50	5135.14
469.69	5320.04
469.87	5366.85
470.05	5322.38
470.23	5467.49
470.41	5392.59
470.59	5516.64
470.77	5427.70
470.95	5373.87
471.14	5380.89
471.32	5481.53
471.50	5481.53
471.68	5568.13
471.86	5699.20
472.04	5650.05
472.22	5685.16
472.40	5650.05
472.58	5657.07
472.77	5565.79
472.95	5774.10
473.13	5853.68
473.31	5827.93
473.49	5851.34
473.67	5741.33
473.85	5753.04
474.03	5767.08
474.21	5954.32
474.39	5867.72
474.57	5947.30
474.75	6024.54
474.93	6167.31
475.12	6061.99
475.30	6080.71
475.48	6104.12
475.66	6146.25
475.84	6296.04
476.02	6483.28
476.20	6293.70
476.38	6270.30
476.56	6375.62
476.74	6537.12
476.92	6523.07
477.10	6600.31
477.28	6691.59
477.46	6661.16
477.64	6579.25
477.82	6832.02
478.00	6942.03
478.18	6780.53
478.36	6991.18
478.54	6930.33
478.72	6846.07
478.90	7213.53
479.08	7206.51
479.26	7068.42
479.44	7337.58
479.62	7400.77
479.80	7283.75
479.98	7346.94
480.16	7555.25
480.34	7496.74
480.52	7506.10
480.70	7538.87
480.88	7400.77
481.06	7419.50
481.24	7793.98
481.41	7737.81
481.59	7695.68
481.77	7896.97
481.95	8079.53
482.13	8107.62
482.31	8009.31
482.49	8201.24
482.67	7950.80
482.85	8418.91
483.03	8336.99
483.21	8486.78
483.39	8390.82
483.57	8505.51
483.74	8514.87
483.92	8662.32
484.10	8559.34
484.28	8795.73
484.46	8741.90
484.64	9029.79
484.82	8755.94
485.00	8805.10
485.18	9102.34
485.35	9338.74
485.53	9207.67
485.71	9193.62
485.89	9537.68
486.07	9317.67
486.25	9664.07
486.43	9582.15
486.61	9586.83
486.78	9701.52
486.96	9830.25
487.14	9858.34
487.32	10029.20
487.50	10001.11
487.68	10019.83
487.85	10118.14
488.03	10389.64
488.21	10345.17
488.39	10415.38
488.57	10782.85
488.75	10799.23
488.92	10736.04
489.10	10600.29
489.28	10600.29
489.46	11066.05
489.64	10871.79
489.81	11300.11
489.99	11054.35
490.17	11269.68
490.35	11131.59
490.53	11606.72
490.70	11632.46
490.88	11398.41
491.06	11473.31
491.24	11700.34
491.41	11798.64
491.59	11866.52
491.77	12163.76
491.95	12091.21
492.13	12142.70
492.30	12133.34
492.48	12128.66
492.66	12119.29
492.84	12397.82
493.01	12362.71
493.19	12697.41
493.37	12512.50
493.54	12638.89
493.72	12769.96
493.90	12652.94
494.08	12751.24
494.25	13088.28
494.43	12931.46
494.61	13135.09
494.79	13123.38
494.96	13083.59
495.14	13282.54
495.32	13380.84
495.49	13392.55
495.67	13270.84
495.85	13645.32
496.02	13502.55
496.20	13942.57
496.38	13827.88
496.55	13799.80
496.73	14134.50
496.91	13839.59
497.09	14066.62
497.26	14064.28
497.44	14221.10
497.62	14300.67
497.79	14492.60
497.97	14537.07
498.14	14295.99
498.32	14408.34
498.50	14551.11
498.67	14677.50
498.85	14864.74
499.03	14712.61
499.20	14972.41
499.38	15023.90
499.56	15044.96
499.73	14728.99
499.91	15103.48
500.08	15131.56
500.26	15264.97
500.44	15246.25
500.61	15272.00
500.79	15232.21
500.97	15372.64
501.14	15697.97
501.32	15770.53
501.49	15676.91
501.67	15754.15
501.84	15723.72
502.02	15831.38
502.20	15992.88
502.37	15978.84
502.55	15934.37
502.72	15782.23
502.90	15829.04
503.07	16081.82
503.25	15988.20
503.43	15829.04
503.60	16407.16
503.78	16308.85
503.95	16383.75
504.13	16442.26
504.30	16566.31
504.48	16549.93
504.65	16545.25
504.83	16563.97
505.01	16798.02
505.18	16570.99
505.36	16814.41
505.53	16737.17
505.71	16901.01
505.88	16912.71
506.06	16753.55
506.23	16999.31
506.41	17036.76
506.58	17135.06
506.76	17341.03
506.93	17317.62
507.11	17018.04
507.28	17434.65
507.46	17549.34
507.63	17600.83
507.81	17633.60
507.98	17586.79
508.16	17322.30
508.33	17486.14
508.50	17488.48
508.68	17837.22
508.85	17848.93
509.03	18017.44
509.20	17975.31
509.38	17982.34
509.55	18078.30
509.73	17991.70
509.90	18319.37
510.08	18097.02
510.25	18370.86
510.42	18321.71
510.60	18260.86
510.77	18417.68
510.95	18349.80
511.12	18686.84
511.30	18787.48
511.47	18782.80
511.64	18649.39
511.82	18902.17
511.99	18871.74
512.17	19257.93
512.34	18658.75
512.51	18906.85
512.69	18937.27
512.86	18953.66
513.04	19201.76
513.21	19243.88
513.38	19075.37
513.56	19302.40
513.73	19435.81
513.90	19386.66
514.08	19143.24
514.25	19496.66
514.43	19513.05
514.60	19419.42
514.77	19349.21
514.95	19646.46
515.12	19571.56
515.29	19571.56
515.47	19850.08
515.64	20016.26
515.81	20084.14
515.99	19964.77
516.16	20182.44
516.33	20049.03
516.51	19920.30
516.68	19740.08
516.85	19971.79
517.03	20102.86
517.20	20264.36
517.37	20393.09
517.54	20449.26
517.72	20205.84
517.89	20540.54
518.06	20519.48
518.24	20114.56
518.41	20414.15
518.58	20517.14
518.75	20505.43
518.93	21018.01
519.10	20526.50
519.27	20706.72
519.45	20688.00
519.62	20723.10
519.79	20856.51
519.96	20835.45
520.14	21167.80
520.31	20877.58
520.48	21092.91
520.65	21043.76
520.83	21095.25
521.00	21221.64
521.17	21039.08
521.34	21254.40
521.52	21280.15
521.69	21586.76
521.86	21523.57
522.03	21624.21
522.20	21713.15
522.38	21369.09
522.55	21418.24
522.72	21479.10
522.89	21886.35
523.07	21994.01
523.24	21738.90
523.41	21851.24
523.58	21575.06
523.75	21865.28
523.92	21928.48
524.10	21811.45
524.27	22162.53
524.44	22249.13
524.61	22216.36
524.78	22324.03
524.96	22485.53
525.13	22253.81
525.30	22504.25
525.47	22373.18
525.64	22522.98
525.81	22333.39
525.98	22445.74
526.16	22352.12
526.33	22492.55
526.50	22689.15
526.67	22518.29
526.84	22602.55
527.01	22705.54
527.18	22607.23
527.36	23311.74
527.53	22848.31
527.70	22754.69
527.87	23220.45
528.04	23232.16
528.21	22658.73
528.38	23065.98
528.55	23241.52
528.72	23157.26
528.89	23157.26
529.07	23318.76
529.24	23140.88
529.41	23049.60
529.58	23285.99
529.75	23178.33
529.92	22977.04
530.09	23391.31
530.26	23147.90
530.43	23431.10
530.60	23447.49
530.77	23164.28
530.94	23655.79
531.11	23583.24
531.28	23510.68
531.46	23529.41
531.63	23960.06
531.80	23578.56
531.97	23857.08
532.14	24051.34
532.31	23707.29
532.48	23749.42
532.65	23936.66
532.82	23386.63
532.99	23894.53
533.16	23988.15
533.33	24367.32
533.50	24409.45
533.67	24254.97
533.84	24149.65
534.01	23798.57
534.18	23997.51
534.35	24189.44
534.52	24081.77
534.69	24224.54
534.86	24049.00
535.03	24685.63
535.20	24453.92
535.37	24482.00
535.54	24376.68
535.71	24526.47
535.88	24517.11
536.05	24432.85
536.22	24531.15
536.38	24936.07
536.55	24570.94
536.72	24816.70
536.89	24650.52
537.06	24861.17
537.23	24854.15
537.40	24374.34
537.57	24575.62
537.74	24645.84
537.91	24842.45
538.08	25221.61
538.25	24746.48
538.42	24786.27
538.59	25003.94
538.75	24577.97
538.92	25165.44
539.09	25200.55
539.26	24863.51
539.43	25223.95
539.60	25303.53
539.77	25240.34
539.94	25392.47
540.11	25539.93
540.28	25205.23
540.44	25179.48
540.61	25088.20
540.78	25317.57
540.95	25560.99
541.12	25619.50
541.29	25577.37
541.46	25364.39
541.62	25324.60
541.79	25745.89
541.96	25647.59
542.13	25397.15
542.30	25827.81
542.47	25757.60
542.63	26064.21
542.80	25989.31
542.97	26054.84
543.14	26216.34
543.31	26106.34
543.48	25881.64
543.64	26270.17
543.81	26134.42
543.98	25996.33
544.15	26328.69
544.32	26225.70
544.48	26471.46
544.65	26487.84
544.82	26352.09
544.99	25741.21
545.16	26398.90
545.32	26045.48
545.49	26455.08
545.66	26527.63
545.83	26579.12
546.00	26548.70
546.16	26431.67
546.33	26522.95
546.50	25872.28
546.67	27103.40
546.83	26431.67
547.00	26831.90
547.17	26757.00
547.34	26724.24
547.50	26630.62
547.67	26852.97
547.84	26740.62
548.00	26806.16
548.17	26883.39
548.34	27115.11
548.51	27087.02
548.67	26869.35
548.84	26946.59
549.01	27094.04
549.18	26635.30
549.34	26670.40
549.51	27047.23
549.68	26789.77
549.84	26913.82
550.01	27168.94
550.18	26782.75
550.34	26799.13
550.51	26951.27
550.68	27199.37
550.84	27164.26
551.01	27372.57
551.18	27063.61
551.34	27229.79
551.51	26925.52
551.68	27140.85
551.84	27346.82
552.01	27133.83
552.18	27367.88
552.34	27157.24
552.51	27089.36
552.68	27520.02
552.84	27407.67
553.01	27730.67
553.18	27480.23
553.34	27749.39
553.51	27871.10
553.67	27711.94
553.84	27915.57
554.01	27779.82
554.17	27985.79
554.34	27953.02
554.51	27686.20
554.67	27775.14
554.84	27625.34
555.00	27892.16
555.17	27585.55
555.33	28137.92
555.50	27871.10
555.67	27927.27
555.83	27637.05
556.00	27873.44
556.16	27946.00
556.33	27637.05
556.50	27999.83
556.66	28077.07
556.83	27826.63
556.99	28437.51
557.16	28173.03
557.32	28341.55
557.49	28086.43
557.65	27740.03
557.82	28208.14
557.98	27758.75
558.15	28130.90
558.32	27990.47
558.48	28285.37
558.65	28369.63
558.81	28437.51
558.98	28355.59
559.14	28107.49
559.31	28149.62
559.47	28395.38
559.64	28379.00
559.80	28268.99
559.97	28528.79
560.13	28304.10
560.30	27999.83
560.46	28308.78
560.63	28563.90
560.79	28261.97
560.96	28554.54
561.12	28149.62
561.29	28285.37
561.45	28489.00
561.61	28533.47
561.78	28397.72
561.94	28065.36
562.11	28779.23
562.27	28582.62
562.44	28481.98
562.60	28685.61
562.77	28505.38
562.93	28428.15
563.10	28503.04
563.26	28781.57
563.42	28936.04
563.59	28561.56
563.75	28587.30
563.92	28893.91
564.08	28601.35
564.24	28828.38
564.41	28474.96
564.57	28844.76
564.74	28772.21
564.90	28891.57
565.07	28781.57
565.23	28870.51
565.39	28734.76
565.56	28624.75
565.72	28884.55
565.88	29179.46
566.05	28634.11
566.21	28737.10
566.38	28741.78
566.54	28947.75
566.70	29244.99
566.87	29113.92
567.03	28734.76
567.19	29116.26
567.36	29127.97
567.52	28804.97
567.68	29111.58
567.85	28896.25
568.01	29123.29
568.17	28914.98
568.34	29111.58
568.50	29034.35
568.66	29160.73
568.83	28774.55
568.99	28898.59
569.15	29053.07
569.32	29127.97
569.48	28737.10
569.64	29273.08
569.81	28905.62
569.97	28999.24
570.13	29149.03
570.30	28704.33
570.46	28971.15
570.62	29502.45
570.78	29221.59
570.95	28985.19
571.11	28945.41
571.27	28837.74
571.43	28699.65
571.60	29039.03
571.76	28938.38
571.92	29331.59
572.09	29113.92
572.25	29055.41
572.41	29032.00
572.57	29207.55
572.74	29546.92
572.90	29233.29
573.06	29104.56
573.22	28863.49
573.38	28950.09
573.55	29120.95
573.71	29469.69
573.87	29476.71
574.03	29039.03
574.20	28776.89
574.36	29010.94
574.52	28781.57
574.68	29385.43
574.84	29156.05
575.01	28804.97
575.17	29142.01
575.33	29209.89
575.49	29252.02
575.65	29530.54
575.82	29460.32
575.98	29226.27
576.14	29567.99
576.30	29275.42
576.46	29006.26
576.62	29223.93
576.79	29319.89
576.95	29411.17
577.11	29422.87
577.27	29699.06
577.43	29591.39
577.59	29230.95
577.75	29514.16
577.92	29387.77
578.08	29184.14
578.24	29247.33
578.40	29160.73
578.56	29516.50
578.72	29497.77
578.88	29890.98
579.04	29652.25
579.21	29420.53
579.37	29757.57
579.53	29350.32
579.69	29420.53
579.85	29170.10
580.01	29450.96
580.17	29364.36
580.33	29376.06
580.49	29287.12
580.65	29357.34
580.82	29457.98
580.98	29340.96
581.14	29254.36
581.30	29509.47
581.46	29436.92
581.62	29497.77
581.78	29097.54
581.94	29572.67
582.10	29336.27
582.26	29610.12
582.42	29706.08
582.58	29633.52
582.74	29383.09
582.90	29617.14
583.06	29565.65
583.22	29282.44
583.38	29661.61
583.54	29329.25
583.70	29589.05
583.86	29490.75
584.02	29509.47
584.18	29518.84
584.34	29656.93
584.50	29720.12
584.66	29549.26
584.82	29298.83
584.98	29542.24
585.14	29502.45
585.30	29165.42
585.46	29476.71
585.62	29830.13
585.78	29703.74
585.94	29486.07
586.10	29575.01
586.26	29745.87
586.42	29900.34
586.58	30040.78
586.74	29699.06
586.90	29266.06
587.06	29261.38
587.22	29972.90
587.38	29404.15
587.54	29823.11
587.70	30061.84
587.86	29483.73
588.02	29949.50
588.18	30153.12
588.34	30038.44
588.49	29851.19
588.65	29331.59
588.81	29392.45
588.97	29296.49
589.13	29476.71
589.29	29572.67
589.45	29717.78
589.61	30153.12
589.77	30010.35
589.93	29858.21
590.08	30141.42
590.24	29869.92
590.40	30164.82
590.56	29687.36
590.72	29912.05
590.88	29813.74
591.04	29874.60
591.20	30438.67
591.35	30026.73
591.51	30127.38
591.67	29890.98
591.83	30045.46
591.99	29759.91
592.15	30134.40
592.31	29823.11
592.46	29516.50
592.62	29820.77
592.78	29556.28
592.94	30026.73
593.10	29944.81
593.26	29909.71
593.41	30113.33
593.57	29752.89
593.73	30377.81
593.89	30148.44
594.05	29853.53
594.20	29940.13
594.36	30258.45
594.52	29991.62
594.68	29895.66
594.84	29729.48
594.99	30078.22
595.15	29785.66
595.31	29916.73
595.47	29883.96
595.62	30293.55
595.78	29577.35
595.94	29830.13
596.10	30073.54
596.25	30188.23
596.41	29972.90
596.57	30143.76
596.73	29963.54
596.88	30274.83
597.04	30054.82
597.20	30206.95
597.36	30031.41
597.51	30293.55
597.67	29972.90
597.83	30263.13
597.99	30096.95
598.14	29958.86
598.30	30008.01
598.46	30012.69
598.61	29975.24
598.77	30445.69
598.93	30242.06
599.09	30244.40
599.24	30600.16
599.40	30183.55
599.56	30588.46
599.71	30141.42
599.87	30167.16
600.03	30061.84
600.18	30129.72
600.34	29729.48
600.50	29869.92
600.65	29858.21
600.81	30569.74
600.97	30228.02
601.12	30120.35
601.28	30780.39
601.44	30246.74
601.59	30281.85
601.75	29914.39
601.91	29921.41
602.06	29874.60
602.22	29895.66
602.37	30078.22
602.53	30029.07
602.69	30286.53
602.84	30209.29
603.00	30321.64
603.16	30438.67
603.31	30092.27
603.47	30139.08
603.62	30270.15
603.78	30302.92
603.94	30239.72
604.09	30125.04
604.25	29816.08
604.40	30195.25
604.56	30045.46
604.71	29975.24
604.87	30286.53
605.03	29888.64
605.18	30480.80
605.34	30342.70
605.49	29755.23
605.65	30005.67
605.80	29968.22
605.96	30075.88
606.12	29954.18
606.27	30237.38
606.43	30061.84
606.58	30132.06
606.74	30221.00
606.89	29724.80
607.05	30197.59
607.20	29933.11
607.36	30532.29
607.51	29940.13
607.67	30174.19
607.82	29633.52
607.98	30270.15
608.13	30274.83
608.29	29865.24
608.44	29762.25
608.60	30106.31
608.75	30286.53
608.91	29563.31
609.06	29668.63
609.22	30141.42
609.37	29724.80
609.53	29647.57
609.68	29509.47
609.84	29883.96
609.99	29776.30
610.15	29926.09
610.30	29422.87
610.46	29682.67
610.61	30005.67
610.76	30043.12
610.92	29907.37
611.07	29682.67
611.23	29376.06
611.38	29806.72
611.54	30022.05
611.69	29596.07
611.84	29472.03
612.00	29277.76
612.15	29202.86
612.31	29507.13
612.46	29799.70
612.62	29961.20
612.77	29434.58
612.92	29685.01
613.08	29715.44
613.23	29708.42
613.39	29708.42
613.54	29425.22
613.69	29317.55
613.85	29205.20
614.00	29832.47
614.15	29858.21
614.31	29504.79
614.46	29624.16
614.62	29764.59
614.77	29848.85
614.92	29685.01
615.08	29483.73
615.23	29425.22
615.38	29144.35
615.54	29174.78
615.69	29469.69
615.84	29233.29
616.00	29336.27
616.15	29261.38
616.30	29490.75
616.46	29394.79
616.61	29659.27
616.76	29670.97
616.92	29177.12
617.07	29799.70
617.22	29230.95
617.37	29291.80
617.53	29186.48
617.68	28957.11
617.83	29406.49
617.99	28826.04
618.14	29020.30
618.29	29046.05
618.45	29401.81
618.60	29149.03
618.75	29085.84
618.90	29598.41
619.06	29387.77
619.21	29123.29
619.36	29338.62
619.51	28851.78
619.67	28748.80
619.82	29003.92
619.97	29090.52
620.12	28987.53
620.28	28889.23
620.43	29111.58
620.58	29254.36
620.73	28989.88
620.89	29200.52
621.04	29167.76
621.19	29067.11
621.34	28783.91
621.49	28797.95
621.65	28978.17
621.80	29179.46
621.95	28779.23
622.10	29195.84
622.25	28648.16
622.41	28386.02
622.56	28889.23
622.71	29263.72
622.86	28711.35
623.01	28697.31
623.16	28666.88
623.32	28652.84
623.47	28664.54
623.62	28617.73
623.77	28446.87
623.92	28952.43
624.07	28580.28
624.23	28315.80
624.38	28634.11
624.53	28453.89
624.68	28409.42
624.83	28882.21
624.98	28446.87
625.13	28540.49
625.29	28692.63
625.44	28589.64
625.59	28056.00
625.74	28379.00
625.89	28561.56
626.04	27868.76
626.19	28283.03
626.34	28400.06
626.49	28290.06
626.65	28093.45
626.80	28233.88
626.95	28086.43
627.10	28182.39
627.25	28404.74
627.40	27934.29
627.55	28390.70
627.70	28070.04
627.85	27873.44
628.00	27934.29
628.15	28662.20
628.30	27681.52
628.45	27938.97
628.60	28128.56
628.76	28357.93
628.91	27964.72
629.06	28257.29
629.21	27948.34
629.36	27915.57
629.51	27845.35
629.66	27903.87
629.81	27543.42
629.96	27971.74
630.11	27559.81
630.26	27639.39
630.41	28020.89
630.56	27587.89
630.71	27981.10
630.86	27983.44
631.01	28051.32
631.16	27908.55
631.31	27784.50
631.46	27428.74
631.61	27674.49
631.76	27627.68
631.91	27768.12
632.06	27211.07
632.21	27812.59
632.36	27597.26
632.51	27356.18
632.66	27756.41
632.81	27564.49
632.96	27470.87
633.10	27365.54
633.25	27796.20
633.40	27580.87
633.55	27534.06
633.70	27395.97
633.85	27054.25
634.00	27208.73
634.15	27278.94
634.30	27187.66
634.45	27461.51
634.60	27239.15
634.75	27229.79
634.90	27108.08
635.05	27402.99
635.19	27346.82
635.34	27583.21
635.49	27438.10
635.64	27470.87
635.79	27370.22
635.94	27229.79
636.09	27318.73
636.24	27208.73
636.39	27131.49
636.53	27150.21
636.68	27047.23
636.83	26988.72
636.98	27297.67
637.13	27171.28
637.28	27276.60
637.43	27058.93
637.57	27023.83
637.72	26991.06
637.87	27578.53
638.02	26642.32
638.17	27192.34
638.32	26857.65
638.46	26754.66
638.61	26771.05
638.76	26960.63
638.91	27110.43
639.06	26829.56
639.20	26895.10
639.35	26892.76
639.50	26841.26
639.65	27075.32
639.80	26991.06
639.94	26953.61
640.09	26925.52
640.24	26827.22
640.39	26527.63
640.54	26555.72
640.68	26623.59
640.83	26611.89
640.98	26625.93
641.13	26307.62
641.27	26473.80
641.42	26263.15
641.57	26827.22
641.72	26515.93
641.86	26272.51
642.01	26181.23
642.16	26211.66
642.31	26223.36
642.45	26382.52
642.60	25790.36
642.75	26148.46
642.90	26204.64
643.04	26279.54
643.19	26122.72
643.34	26043.14
643.48	26466.78
643.63	26410.60
643.78	26103.99
643.93	26476.14
644.07	26333.37
644.22	26309.96
644.37	26092.29
644.51	26293.58
644.66	26214.00
644.81	25998.67
644.95	26108.68
645.10	26167.19
645.25	26164.85
645.39	26274.85
645.54	26038.46
645.69	26141.44
645.83	26146.12
645.98	26331.03
646.13	26148.46
646.27	26239.75
646.42	26106.34
646.57	25720.15
646.71	26022.08
646.86	26216.34
647.00	26036.12
647.15	26047.82
647.30	25535.24
647.44	25839.51
647.59	26038.46
647.74	25490.77
647.88	26045.48
648.03	25993.99
648.17	26008.03
648.32	26022.08
648.47	25909.73
648.61	25930.80
648.76	26202.30
648.90	25607.80
649.05	25654.61
649.20	25228.63
649.34	25750.57
649.49	25738.87
649.63	25563.33
649.78	25832.49
649.92	25486.09
650.07	26195.28
650.21	25242.68
650.36	25605.46
650.51	25181.82
650.65	25586.74
650.80	25586.74
650.94	25509.50
651.09	25469.71
651.23	25242.68
651.38	25397.15
651.52	25472.05
651.67	25516.52
651.81	25376.09
651.96	25518.86
652.10	25743.55
652.25	25441.62
652.39	25598.44
652.54	25392.47
652.68	25809.09
652.83	25589.08
652.97	25851.22
653.12	25219.27
653.26	25333.96
653.41	25612.48
653.55	24910.32
653.70	25259.06
653.84	24830.74
653.99	25146.72
654.13	25228.63
654.27	25139.69
654.42	25106.93
654.56	24807.34
654.71	25362.04
654.85	25282.47
655.00	25177.14
655.14	24938.41
655.29	25010.96
655.43	25092.88
655.57	25053.09
655.72	24992.24
655.86	24865.85
656.01	25120.97
656.15	24933.73
656.30	24849.47
656.44	25064.80
656.58	24730.10
656.73	24753.51
656.87	24732.44
657.01	24833.08
657.16	24704.35
657.30	24891.60
657.45	24847.13
657.59	24652.86
657.73	24570.94
657.88	24823.72
658.02	24554.56
658.16	24687.97
658.31	24482.00
658.45	24982.88
658.60	24559.24
658.74	24102.84
658.88	24451.58
659.03	24514.77
659.17	24582.65
659.31	24680.95
659.46	24498.39
659.60	24304.12
659.74	24582.65
659.89	24573.28
660.03	24360.30
660.17	24311.14
660.32	24627.12
660.46	24154.33
660.60	24287.74
660.74	24102.84
660.89	24063.05
661.03	23857.08
661.17	24315.83
661.32	24290.08
661.46	23988.15
661.60	23976.45
661.74	24051.34
661.89	24189.44
662.03	24086.45
662.17	23749.42
662.31	23728.35
662.46	24123.90
662.60	23819.63
662.74	23576.22
662.88	23676.86
663.03	23611.32
663.17	23414.72
663.31	23639.41
663.45	23459.19
663.60	23688.56
663.74	23613.66
663.88	23377.27
664.02	23562.17
664.17	23716.65
664.31	23316.42
664.45	23452.17
664.59	23398.34
664.73	23461.53
664.88	23531.75
665.02	23007.47
665.16	23229.82
665.30	23225.14
665.44	23302.37
665.59	23047.26
665.73	23042.57
665.87	23140.88
666.01	23564.51
666.15	23028.53
666.29	23164.28
666.44	23349.18
666.58	22747.67
666.72	22794.48
666.86	23192.37
667.00	22902.14
667.14	22785.12
667.28	22850.65
667.43	22555.74
667.57	22567.45
667.71	22583.83
667.85	22522.98
667.99	22562.76
668.13	22441.06
668.27	22572.13
668.41	22817.88
668.56	22216.36
668.70	22246.79
668.84	22651.70
668.98	22511.27
669.12	22455.10
669.26	22537.02
669.40	22326.37
669.54	22438.72
669.68	22082.95
669.82	22314.67
669.96	22099.34
670.10	22242.11
670.25	22333.39
670.39	22279.56
670.53	22122.74
670.67	21745.92
670.81	21766.98
670.95	21776.34
671.09	22003.38
671.23	21783.37
671.37	21689.74
671.51	22183.60
671.65	21584.42
671.79	21956.57
671.93	21558.67
672.07	21958.91
672.21	21649.96
672.35	21193.55
672.49	21436.97
672.63	21427.60
672.77	21156.10
672.91	21294.19
673.05	21252.06
673.19	21399.52
673.33	21345.69
673.47	21376.11
673.61	21228.66
673.75	21109.29
673.89	21001.63
674.03	21130.36
674.17	21186.53
674.31	20992.26
674.45	20870.56
674.59	21172.49
674.73	20847.15
674.87	20664.59
675.01	20821.41
675.15	20823.75
675.29	20795.66
675.43	20409.47
675.56	20812.04
675.70	20437.56
675.84	20594.37
675.98	19992.86
676.12	20479.69
676.26	20608.42
676.40	20753.53
676.54	20278.40
676.68	20376.70
676.82	19798.59
676.96	19971.79
677.10	20292.44
677.23	20023.28
677.37	20020.94
677.51	20039.67
677.65	19719.01
677.79	19609.01
677.93	19676.88
678.07	19557.52
678.21	19587.94
678.34	19538.79
678.48	19150.26
678.62	19307.08
678.76	19370.27
678.90	18778.12
679.04	18965.36
679.18	19234.52
679.31	19091.75
679.45	18845.99
679.59	18878.76
679.73	18895.14
679.87	18944.30
680.00	18934.93
680.14	18689.18
680.28	18677.48
680.42	18679.82
680.56	18853.02
680.70	18689.18
680.83	18944.30
680.97	18527.68
681.11	18398.95
681.25	18235.11
681.39	18441.08
681.52	18436.40
681.66	18405.97
681.80	18104.04
681.94	18256.18
682.07	18080.64
682.21	17769.35
682.35	17881.69
682.49	17928.50
682.62	17680.41
682.76	17642.96
682.90	17750.62
683.04	17659.34
683.17	17757.64
683.31	17771.69
683.45	17724.88
683.59	17654.66
683.72	17895.74
683.86	17308.26
684.00	17413.59
684.13	17380.82
684.27	17039.10
684.41	17532.95
684.55	16933.78
684.68	16950.16
684.82	16608.44
684.96	17003.99
685.09	16809.73
685.23	16725.47
685.37	16844.84
685.50	16996.97
685.64	16641.21
685.78	16814.41
685.91	16739.51
686.05	16465.67
686.19	16418.86
686.32	16849.52
686.46	16336.94
686.60	16390.77
686.73	16128.63
686.87	16329.92
687.01	16194.17
687.14	15894.58
687.28	15922.66
687.42	15920.32
687.55	15953.09
687.69	15960.11
687.82	15833.72
687.96	15857.13
688.10	15456.90
688.23	15990.54
688.37	15763.51
688.50	15702.65
688.64	15721.38
688.78	15248.59
688.91	15510.73
689.05	15480.30
689.18	15372.64
689.32	14794.53
689.46	15115.18
689.59	15297.74
689.73	14932.62
689.86	14916.23
690.00	15075.39
690.13	15094.11
690.27	14871.76
690.41	14827.29
690.54	14909.21
690.68	14855.38
690.81	14839.00
690.95	15014.54
691.08	14712.61
691.22	14780.48
691.35	14654.09
691.49	14717.29
691.62	14565.15
691.76	14375.57
691.89	14389.61
692.03	14064.28
692.16	14099.39
692.30	14015.13
692.43	14195.35
692.57	14242.16
692.70	14003.43
692.84	13771.71
692.97	14085.34
693.11	13982.36
693.24	13692.13
693.38	13858.31
693.51	13642.98
693.65	13628.94
693.78	13680.43
693.92	13694.47
694.05	13589.15
694.19	13460.42
694.32	13427.65
694.45	13444.04
694.59	13174.88
694.72	13095.30
694.86	13198.28
694.99	12858.90
695.13	13198.28
695.26	12912.74
695.39	13179.56
695.53	13132.75
695.66	12964.23
695.80	12908.05
695.93	13186.58
696.07	13025.08
696.20	12844.86
696.33	12613.15
696.47	12650.60
696.60	12542.93
696.73	12470.37
696.87	12294.83
697.00	12547.61
697.14	12449.31
697.27	12046.74
697.40	12219.94
697.54	12166.10
697.67	12133.34
697.80	12098.23
697.94	11861.84
698.07	12035.03
698.21	11878.22
698.34	11808.00
698.47	11775.24
698.61	11716.72
698.74	11777.58
698.87	11751.83
699.01	11740.13
699.14	11595.01
699.27	11492.03
699.40	11754.17
699.54	11449.90
699.67	11328.19
699.80	11351.60
699.94	11302.45
700.07	11290.74
700.20	11030.94
700.34	11162.01
700.47	11028.60
700.60	11075.42
700.73	11253.30
700.87	11211.17
701.00	11243.93
701.13	10740.72
701.26	10984.13
701.40	11150.31
701.53	10963.07
701.66	10960.73
701.79	10611.99
701.93	10836.68
702.06	10670.50
702.19	10314.74
702.32	10415.38
702.46	10394.32
702.59	10106.43
702.72	10188.35
702.85	10319.42
702.99	10277.29
703.12	10277.29
703.25	10204.74
703.38	9996.43
703.51	10171.97
703.65	10120.48
703.78	10052.60
703.91	9963.66
704.04	10186.01
704.17	10066.64
704.31	10061.96
704.44	9874.72
704.57	9778.76
704.70	9591.52
704.83	9530.66
704.96	9561.09
705.10	9406.61
705.23	9369.16
>>>>>End Processed Spectral Data<<<<<
