SpectraSuite Data File
++++++++++++++++++++++++++++++++++++
Date: Fri Oct 18 13:58:33 GMT-05:00 2013
User: bianchi
Dark Spectrum Present: No
Reference Spectrum Present: No
Number of Sampled Component Spectra: 1
Spectrometers: USB2+H05261
Integration Time (usec): 50000 (USB2+H05261)
Spectra Averaged: 1 (USB2+H05261)
Boxcar Smoothing: 0 (USB2+H05261)
Correct for Electrical Dark: No (USB2+H05261)
Strobe/Lamp Enabled: No (USB2+H05261)
Correct for Detector Non-linearity: No (USB2+H05261)
Correct for Stray Light: No (USB2+H05261)
Number of Pixels in Processed Spectrum: 2048
>>>>>Begin Processed Spectral Data<<<<<
365.73	0.00
365.92	0.00
366.12	0.00
366.32	0.00
366.52	0.00
366.72	0.00
366.91	0.00
367.11	0.00
367.31	0.00
367.51	0.00
367.70	0.00
367.90	0.00
368.10	0.00
368.30	0.00
368.49	0.00
368.69	0.00
368.89	0.00
369.09	0.00
369.28	0.00
369.48	0.00
369.68	0.00
369.87	0.00
370.07	0.00
370.27	0.00
370.47	0.00
370.66	102.98
370.86	51.49
371.06	149.79
371.25	140.43
371.45	147.45
371.65	170.86
371.84	98.30
372.04	114.69
372.24	93.62
372.44	203.63
372.63	166.18
372.83	205.97
373.03	163.84
373.22	217.67
373.42	168.52
373.62	149.79
373.81	102.98
374.01	273.84
374.21	215.33
374.40	163.84
374.60	276.18
374.79	264.48
374.99	210.65
375.19	252.78
375.38	257.46
375.58	266.82
375.78	201.29
375.97	201.29
376.17	264.48
376.37	269.16
376.56	294.91
376.76	227.03
376.95	299.59
377.15	269.16
377.35	238.73
377.54	259.80
377.74	271.50
377.93	308.95
378.13	227.03
378.33	276.18
378.52	276.18
378.72	393.21
378.91	231.71
379.11	292.57
379.31	168.52
379.50	248.10
379.70	306.61
379.89	215.33
380.09	243.42
380.28	271.50
380.48	273.84
380.68	266.82
380.87	358.10
381.07	273.84
381.26	341.72
381.46	353.42
381.65	278.52
381.85	250.44
382.04	325.33
382.24	297.25
382.43	198.95
382.63	362.78
382.83	339.38
383.02	433.00
383.22	395.55
383.41	248.10
383.61	322.99
383.80	334.70
384.00	397.89
384.19	428.32
384.39	322.99
384.58	327.68
384.78	430.66
384.97	369.80
385.17	332.36
385.36	337.04
385.56	346.40
385.75	346.40
385.95	294.91
386.14	447.04
386.34	402.57
386.53	339.38
386.72	337.04
386.92	451.72
387.11	393.21
387.31	376.83
387.50	393.21
387.70	430.66
387.89	430.66
388.09	393.21
388.28	489.17
388.48	348.74
388.67	491.51
388.86	472.79
389.06	423.64
389.25	423.64
389.45	486.83
389.64	470.45
389.84	425.98
390.03	451.72
390.22	521.94
390.42	503.22
390.61	418.96
390.81	440.02
391.00	437.68
391.19	535.98
391.39	535.98
391.58	547.69
391.78	484.49
391.97	566.41
392.16	561.73
392.36	512.58
392.55	648.33
392.75	461.09
392.94	500.87
393.13	500.87
393.33	636.63
393.52	573.43
393.71	622.58
393.91	491.51
394.10	566.41
394.29	594.50
394.49	528.96
394.68	521.94
394.88	554.71
395.07	610.88
395.26	685.78
395.46	613.22
395.65	624.92
395.84	608.54
396.04	671.73
396.23	674.07
396.42	657.69
396.62	596.84
396.81	610.88
397.00	685.78
397.19	685.78
397.39	575.77
397.58	702.16
397.77	716.20
397.97	617.90
398.16	571.09
398.35	725.57
398.55	727.91
398.74	615.56
398.93	744.29
399.12	613.22
399.32	662.37
399.51	610.88
399.70	779.40
399.90	770.04
400.09	767.70
400.28	763.01
400.47	798.12
400.67	770.04
400.86	798.12
401.05	828.55
401.24	791.10
401.44	849.61
401.63	812.17
401.82	830.89
402.01	718.54
402.21	795.78
402.40	842.59
402.59	802.80
402.78	849.61
402.97	863.66
403.17	819.19
403.36	819.19
403.55	880.04
403.74	915.15
403.93	873.02
404.13	990.05
404.32	912.81
404.51	1020.47
404.70	999.41
404.89	821.53
405.09	1025.15
405.28	880.04
405.47	912.81
405.66	1011.11
405.85	1027.50
406.05	912.81
406.24	931.53
406.43	971.32
406.62	1097.71
406.81	1043.88
407.00	990.05
407.20	1055.58
407.39	1032.18
407.58	997.07
407.77	1029.84
407.96	1121.12
408.15	968.98
408.34	1081.33
408.54	1006.43
408.73	1057.92
408.92	1093.03
409.11	1179.63
409.30	1055.58
409.49	1018.13
409.68	1111.75
409.87	1114.10
410.07	1191.33
410.26	1135.16
410.45	1188.99
410.64	1128.14
410.83	1231.12
411.02	1242.82
411.21	1296.66
411.40	1160.91
411.59	1191.33
411.78	1203.04
411.98	1254.53
412.17	1205.38
412.36	1338.79
412.55	1299.00
412.74	1261.55
412.93	1404.32
413.12	1341.13
413.31	1397.30
413.50	1423.05
413.69	1474.54
413.88	1526.03
414.07	1324.74
414.26	1390.28
414.45	1425.39
414.64	1465.18
414.83	1420.71
415.02	1577.52
415.22	1540.07
415.41	1493.26
415.60	1502.62
415.79	1490.92
415.98	1589.22
416.17	1577.52
416.36	1621.99
416.55	1526.03
416.74	1542.41
416.93	1638.38
417.12	1708.59
417.31	1621.99
417.50	1783.49
417.69	1607.95
417.88	1736.68
418.07	1638.38
418.26	1680.50
418.45	1561.14
418.64	1755.40
418.83	1797.53
419.02	1750.72
419.21	1769.44
419.39	1809.23
419.58	1799.87
419.77	1867.75
419.96	1802.21
420.15	1947.33
420.34	1827.96
420.53	1952.01
420.72	1900.52
420.91	1935.62
421.10	1914.56
421.29	1856.04
421.48	1865.41
421.67	2054.99
421.86	1872.43
422.05	1952.01
422.24	1928.60
422.43	1966.05
422.61	2012.86
422.80	1987.11
422.99	2031.58
423.18	2064.35
423.37	1966.05
423.56	2069.03
423.75	1937.96
423.94	1961.37
424.13	1853.70
424.32	1954.35
424.50	2076.06
424.69	2008.18
424.88	2064.35
425.07	1982.43
425.26	1954.35
425.45	2008.18
425.64	1980.09
425.83	2078.40
426.01	2059.67
426.20	2026.90
426.39	2120.53
426.58	2076.06
426.77	2099.46
426.96	2073.71
427.15	2078.40
427.33	2073.71
427.52	2031.58
427.71	2111.16
427.90	2188.40
428.09	2129.89
428.28	2214.15
428.46	2136.91
428.65	2111.16
428.84	2195.42
429.03	2183.72
429.22	2090.10
429.40	2195.42
429.59	2267.98
429.78	2176.70
429.97	2167.34
430.16	2141.59
430.34	2338.20
430.53	2317.13
430.72	2282.02
430.91	2244.57
431.10	2305.43
431.28	2385.01
431.47	2338.20
431.66	2417.77
431.85	2242.23
432.03	2520.76
432.22	2464.58
432.41	2420.11
432.60	2377.98
432.79	2469.27
432.97	2359.26
433.16	2457.56
433.35	2466.92
433.54	2387.35
433.72	2387.35
433.91	2506.71
434.10	2532.46
434.28	2466.92
434.47	2523.10
434.66	2495.01
434.85	2560.55
435.03	2698.64
435.22	2621.40
435.41	2553.52
435.59	2602.68
435.78	2548.84
435.97	2532.46
436.16	2473.95
436.34	2670.55
436.53	2675.23
436.72	2607.36
436.90	2619.06
437.09	2630.76
437.28	2621.40
437.46	2686.94
437.65	2686.94
437.84	2700.98
438.02	2780.56
438.21	2822.69
438.40	2705.66
438.58	2892.90
438.77	2939.71
438.96	2871.84
439.14	2909.29
439.33	2906.95
439.52	2874.18
439.70	2829.71
439.89	3005.25
440.08	2995.89
440.26	2897.58
440.45	3061.42
440.63	3059.08
440.82	3166.74
441.01	3098.87
441.19	3166.74
441.38	3133.98
441.57	3066.10
441.75	3183.13
441.94	3279.09
442.12	3241.64
442.31	3236.96
442.50	3148.02
442.68	3323.56
442.87	3199.51
443.05	3328.24
443.24	3304.84
443.43	3297.81
443.61	3377.39
443.80	3449.95
443.98	3318.88
444.17	3342.28
444.35	3449.95
444.54	3616.13
444.73	3335.26
444.91	3349.31
445.10	3375.05
445.28	3368.03
445.47	3433.57
445.65	3377.39
445.84	3449.95
446.02	3520.17
446.21	3290.79
446.39	3363.35
446.58	3517.83
446.77	3407.82
446.95	3407.82
447.14	3482.72
447.32	3588.04
447.51	3459.31
447.69	3517.83
447.88	3534.21
448.06	3363.35
448.25	3492.08
448.43	3442.93
448.62	3442.93
448.80	3485.06
448.99	3665.28
449.17	3667.62
449.36	3536.55
449.54	3644.21
449.73	3599.74
449.91	3768.26
450.10	3777.62
450.28	3786.99
450.46	3803.37
450.65	3726.13
450.83	3847.84
451.02	3674.64
451.20	3728.47
451.39	3794.01
451.57	3676.98
451.76	3808.05
451.94	3838.48
452.13	3908.69
452.31	3882.95
452.49	3763.58
452.68	3784.65
452.86	3936.78
453.05	3831.46
453.23	3796.35
453.42	3913.38
453.60	3700.39
453.78	4037.42
453.97	3812.73
454.15	3836.14
454.34	3967.21
454.52	3922.74
454.70	3950.82
454.89	3880.61
455.07	3934.44
455.26	4117.00
455.44	4065.51
455.62	4135.73
455.81	4100.62
455.99	4070.19
456.17	4163.81
456.36	4203.60
456.54	4142.75
456.73	4109.98
456.91	4367.44
457.09	4198.92
457.28	4294.88
457.46	4210.62
457.64	4229.35
457.83	4355.74
458.01	4264.46
458.19	4442.34
458.38	4294.88
458.56	4386.16
458.74	4479.79
458.93	4430.63
459.11	4395.53
459.29	4238.71
459.48	4440.00
459.66	4655.33
459.84	4517.23
460.03	4524.26
460.21	4428.29
460.39	4533.62
460.57	4538.30
460.76	4564.04
460.94	4582.77
461.12	4545.32
461.31	4643.62
461.49	4634.26
461.67	4624.90
461.85	4681.07
462.04	4634.26
462.22	4744.27
462.40	4809.80
462.59	4690.43
462.77	4816.82
462.95	5011.09
463.13	4737.24
463.32	4823.84
463.50	4929.17
463.68	4762.99
463.86	4929.17
464.05	4802.78
464.23	4798.10
464.41	4868.31
464.59	4786.40
464.78	5046.20
464.96	4819.16
465.14	4854.27
465.32	4898.74
465.50	5006.41
465.69	5060.24
465.87	4849.59
466.05	4830.87
466.23	4891.72
466.41	5090.67
466.60	5078.96
466.78	5041.51
466.96	5100.03
467.14	5081.30
467.32	5013.43
467.51	5254.50
467.69	5172.58
467.87	5104.71
468.05	5135.14
468.23	4985.34
468.41	5060.24
468.60	5256.84
468.78	5198.33
468.96	5210.03
469.14	5305.99
469.32	5123.43
469.50	5179.61
469.69	5315.36
469.87	5247.48
470.05	5289.61
470.23	5465.15
470.41	5411.32
470.59	5331.74
470.77	5404.30
470.95	5495.58
471.14	5605.58
471.32	5413.66
471.50	5577.50
471.68	5643.03
471.86	5533.03
472.04	5612.60
472.22	5696.86
472.40	5408.98
472.58	5680.48
472.77	5774.10
472.95	5748.36
473.13	6005.81
473.31	5750.70
473.49	5762.40
473.67	5741.33
473.85	5877.09
474.03	6008.16
474.21	6099.44
474.39	6106.46
474.57	6012.84
474.75	6244.55
474.93	6061.99
475.12	6108.80
475.30	6251.57
475.48	6150.93
475.66	6129.86
475.84	6141.57
476.02	6429.45
476.20	6282.00
476.38	6310.08
476.56	6579.25
476.74	6651.80
476.92	6604.99
477.10	6370.94
477.28	6719.68
477.46	6616.69
477.64	6677.55
477.82	6729.04
478.00	6871.81
478.18	6883.52
478.36	6902.24
478.54	6944.37
478.72	7005.22
478.90	7150.34
479.08	7269.70
479.26	7112.89
479.44	7187.79
479.62	7360.98
479.80	7337.58
479.98	7335.24
480.16	7424.18
480.34	7522.48
480.52	7604.40
480.70	7569.29
480.88	7531.84
481.06	7613.76
481.24	7658.23
481.41	7754.19
481.59	7871.22
481.77	7871.22
481.95	7915.69
482.13	8091.23
482.31	7969.52
482.49	8191.88
482.67	8116.98
482.85	8360.39
483.03	8341.67
483.21	8353.37
483.39	8617.85
483.57	8774.67
483.74	8652.96
483.92	8573.38
484.10	8624.87
484.28	8767.65
484.46	8851.91
484.64	9163.20
484.82	8837.86
485.00	8868.29
485.18	9336.40
485.35	9287.25
485.53	9472.15
485.71	9320.01
485.89	9628.96
486.07	9425.34
486.25	9638.33
486.43	9619.60
486.61	9879.40
486.78	9905.15
486.96	10078.35
487.14	9956.64
487.32	10148.56
487.50	10071.33
487.68	10211.76
487.85	10293.68
488.03	10523.05
488.21	10457.51
488.39	10558.16
488.57	10799.23
488.75	10532.41
488.92	10705.61
489.10	10869.45
489.28	10813.28
489.46	11185.42
489.64	10995.84
489.81	11227.55
489.99	11169.04
490.17	11183.08
490.35	11461.60
490.53	11445.22
490.70	11520.12
490.88	11545.86
491.06	11934.39
491.24	11644.17
491.41	11580.97
491.59	11735.45
491.77	11426.50
491.95	12067.80
492.13	12058.44
492.30	12257.39
492.48	12177.81
492.66	11988.22
492.84	12145.04
493.01	12568.68
493.19	12484.42
493.37	12423.56
493.54	12807.41
493.72	12472.71
493.90	13041.46
494.08	12772.30
494.25	12919.76
494.43	13200.62
494.61	13252.11
494.79	13118.70
494.96	13153.81
495.14	13437.02
495.32	13446.38
495.49	13427.65
495.67	13343.39
495.85	13715.54
496.02	13813.84
496.20	13727.24
496.38	13902.78
496.55	13923.85
496.73	14085.34
496.91	13970.66
497.09	14071.30
497.26	14443.45
497.44	14295.99
497.62	14305.35
497.79	14558.13
497.97	14452.81
498.14	14597.92
498.32	14668.14
498.50	14719.63
498.67	14932.62
498.85	14988.79
499.03	14853.04
499.20	14869.42
499.38	14918.57
499.56	14864.74
499.73	15201.78
499.91	15433.49
500.08	15208.80
500.26	14972.41
500.44	15236.89
500.61	15468.60
500.79	15522.43
500.97	15562.22
501.14	15751.81
501.32	15740.10
501.49	15744.78
501.67	15824.36
501.84	15569.24
502.02	15658.18
502.20	15913.30
502.37	15920.32
502.55	16091.18
502.72	16210.55
502.90	16184.80
503.07	16126.29
503.25	16126.29
503.43	16173.10
503.60	16475.03
503.78	16341.62
503.95	16673.98
504.13	16528.86
504.30	16688.02
504.48	16350.98
504.65	16552.27
504.83	16730.15
505.01	16802.71
505.18	16893.99
505.36	17142.08
505.53	17074.21
505.71	16992.29
505.88	16776.96
506.06	16968.88
506.23	17341.03
506.41	17252.09
506.58	17284.86
506.76	16999.31
506.93	17476.78
507.11	17181.87
507.28	17439.33
507.46	17118.68
507.63	17610.19
507.81	17743.60
507.98	17523.59
508.16	17666.36
508.33	17568.06
508.50	17811.48
508.68	17970.63
508.85	18066.60
509.03	18127.45
509.20	18118.09
509.38	18333.42
509.55	18134.47
509.73	18146.17
509.90	18403.63
510.08	18200.01
510.25	18324.05
510.42	18679.82
510.60	18485.55
510.77	18279.58
510.95	18740.67
511.12	18651.73
511.30	18576.83
511.47	18817.91
511.64	18569.81
511.82	18785.14
511.99	18923.23
512.17	18712.58
512.34	18902.17
512.51	19246.23
512.69	19129.20
512.86	19096.43
513.04	19377.30
513.21	19410.06
513.38	19662.84
513.56	19384.32
513.73	19424.11
513.90	19215.80
514.08	19384.32
514.25	19571.56
514.43	19632.41
514.60	19822.00
514.77	19637.09
514.95	19529.43
515.12	19786.89
515.29	19496.66
515.47	19939.02
515.64	19988.18
515.81	19882.85
515.99	20255.00
516.16	20322.87
516.33	19840.72
516.51	20018.60
516.68	20463.30
516.85	20329.89
517.03	20053.71
517.20	20294.79
517.37	20383.73
517.54	20657.57
517.72	20514.80
517.89	20336.91
518.06	20418.83
518.24	20549.90
518.41	20709.06
518.58	20655.23
518.75	20996.95
518.93	20751.19
519.10	20470.33
519.27	20992.26
519.45	20482.03
519.62	20889.28
519.79	20863.54
519.96	21048.44
520.14	21001.63
520.31	20889.28
520.48	21392.50
520.65	21415.90
520.83	21432.29
521.00	21242.70
521.17	21018.01
521.34	21151.42
521.52	21542.29
521.69	21493.14
521.86	21362.07
522.03	21415.90
522.20	21619.53
522.38	21659.32
522.55	21722.51
522.72	21762.30
522.89	21762.30
523.07	21771.66
523.24	21785.71
523.41	22190.62
523.58	21926.14
523.75	22195.30
523.92	21958.91
524.10	21991.67
524.27	21996.35
524.44	22225.73
524.61	22258.49
524.78	22387.22
524.96	22518.29
525.13	22274.88
525.30	22377.86
525.47	22368.50
525.64	22382.54
525.81	22441.06
525.98	22675.11
526.16	22609.58
526.33	22539.36
526.50	22766.39
526.67	22635.32
526.84	22869.37
527.01	22682.13
527.18	22738.30
527.36	22698.52
527.53	22955.97
527.70	23192.37
527.87	23482.59
528.04	22965.34
528.21	22824.90
528.38	22939.59
528.55	23157.26
528.72	23403.02
528.89	23463.87
529.07	23325.78
529.24	23190.03
529.41	23477.91
529.58	23456.85
529.75	23267.27
529.92	23314.08
530.09	23152.58
530.26	23473.23
530.43	23988.15
530.60	23276.63
530.77	23686.22
530.94	23690.90
531.11	23564.51
531.28	23461.53
531.46	23957.72
531.63	23997.51
531.80	23627.71
531.97	23864.10
532.14	23847.72
532.31	23880.49
532.48	23871.12
532.65	23992.83
532.82	23913.25
532.99	23922.62
533.16	23662.82
533.33	24135.60
533.50	24116.88
533.67	24217.52
533.84	23927.30
534.01	24173.05
534.18	24252.63
534.35	24376.68
534.52	24292.42
534.69	24393.06
534.86	24549.88
535.03	24418.81
535.20	24891.60
535.37	24397.74
535.54	24917.34
535.71	24484.34
535.88	24734.78
536.05	24650.52
536.22	24821.38
536.38	24676.27
536.55	24711.38
536.72	25017.99
536.89	24760.53
537.06	25064.80
537.23	24872.87
537.40	24821.38
537.57	24702.01
537.74	25130.33
537.91	25214.59
538.08	25001.60
538.25	24751.17
538.42	25284.81
538.59	25083.52
538.75	25188.85
538.92	25022.67
539.09	24875.21
539.26	25252.04
539.43	25446.30
539.60	25207.57
539.77	25294.17
539.94	25687.38
540.11	25357.36
540.28	25078.84
540.44	25312.89
540.61	25408.86
540.78	25497.80
540.95	25486.09
541.12	25315.23
541.29	25663.97
541.46	25460.35
541.62	25560.99
541.79	25355.02
541.96	25298.85
542.13	25532.90
542.30	25586.74
542.47	25905.05
542.63	25841.85
542.80	26424.65
542.97	26429.33
543.14	26291.24
543.31	26176.55
543.48	25891.01
543.64	26326.35
543.81	26258.47
543.98	26506.57
544.15	26572.10
544.32	26600.19
544.48	26960.63
544.65	26260.81
544.82	26087.61
544.99	26064.21
545.16	26197.62
545.32	26038.46
545.49	26852.97
545.66	26569.76
545.83	26813.18
546.00	26913.82
546.16	26291.24
546.33	26492.52
546.50	25785.68
546.67	26679.77
546.83	26654.02
547.00	26600.19
547.17	26565.08
547.34	26684.45
547.50	26813.18
547.67	27166.60
547.84	26740.62
548.00	26960.63
548.17	26827.22
548.34	26888.07
548.51	26745.30
548.67	26918.50
548.84	27051.91
549.01	26815.52
549.18	27026.17
549.34	27063.61
549.51	27061.27
549.68	26782.75
549.84	27154.90
550.01	26951.27
550.18	26843.60
550.34	27267.24
550.51	26923.18
550.68	27447.46
550.84	27215.75
551.01	27428.74
551.18	26890.41
551.34	27367.88
551.51	27482.57
551.68	27269.58
551.84	27250.86
552.01	27262.56
552.18	27491.93
552.34	27639.39
552.51	27840.67
552.68	27424.06
552.84	27758.75
553.01	27147.87
553.18	27693.22
553.34	27854.72
553.51	27704.92
553.67	27735.35
553.84	27875.78
554.01	27709.60
554.17	27744.71
554.34	28002.17
554.51	27679.18
554.67	27779.82
554.84	27873.44
555.00	27700.24
555.17	27812.59
555.33	27999.83
555.50	27435.76
555.67	27754.07
555.83	28107.49
556.00	27690.88
556.16	28044.30
556.33	27997.49
556.50	28102.81
556.66	28004.51
556.83	28025.57
556.99	28357.93
557.16	28533.47
557.32	28325.16
557.49	28196.43
557.65	28362.61
557.82	28158.99
557.98	28095.79
558.15	28140.26
558.32	28180.05
558.48	28039.62
558.65	28840.08
558.81	28259.63
558.98	28844.76
559.14	28341.55
559.31	28329.84
559.47	28191.75
559.64	28247.93
559.80	28173.03
559.97	28484.32
560.13	28568.58
560.30	28608.37
560.46	28713.69
560.63	28411.76
560.79	28205.80
560.96	28650.50
561.12	28383.68
561.29	28666.88
561.45	28833.06
561.61	28751.14
561.78	28755.82
561.94	28566.24
562.11	28961.79
562.27	28875.19
562.44	28952.43
562.60	28561.56
562.77	28313.46
562.93	28348.57
563.10	28926.68
563.26	28826.04
563.42	28950.09
563.59	28561.56
563.75	28753.48
563.92	28882.21
564.08	28367.29
564.24	29022.64
564.41	28610.71
564.57	28561.56
564.74	28596.67
564.90	28727.74
565.07	29024.98
565.23	28896.25
565.39	28765.18
565.56	29228.61
565.72	28877.53
565.88	28849.44
566.05	28755.82
566.21	28833.06
566.38	29221.59
566.54	28620.07
566.70	29111.58
566.87	29223.93
567.03	28854.12
567.19	29088.18
567.36	29184.14
567.52	28545.17
567.68	29315.21
567.85	28968.81
568.01	29092.86
568.17	29001.58
568.34	29186.48
568.50	28952.43
568.66	29102.22
568.83	29724.80
568.99	28821.36
569.15	29207.55
569.32	29017.96
569.48	29106.90
569.64	29345.64
569.81	29233.29
569.97	29127.97
570.13	29298.83
570.30	29081.16
570.46	29247.33
570.62	29247.33
570.78	29338.62
570.95	28945.41
571.11	29134.99
571.27	28889.23
571.43	28989.88
571.60	29230.95
571.76	29259.04
571.92	29003.92
572.09	29055.41
572.25	29460.32
572.41	29385.43
572.57	29415.85
572.74	29207.55
572.90	29167.76
573.06	29088.18
573.22	29544.58
573.38	29074.13
573.55	29291.80
573.71	29682.67
573.87	29675.65
574.03	29275.42
574.20	28947.75
574.36	28879.87
574.52	29188.82
574.68	29212.23
574.84	29001.58
575.01	29254.36
575.17	29488.41
575.33	29457.98
575.49	29661.61
575.65	29427.56
575.82	29347.98
575.98	29186.48
576.14	29392.45
576.30	29434.58
576.46	29668.63
576.62	28903.28
576.79	29252.02
576.95	29106.90
577.11	29427.56
577.27	29682.67
577.43	29352.66
577.59	29193.50
577.75	29266.06
577.92	29256.70
578.08	29425.22
578.24	29291.80
578.40	29495.43
578.56	29254.36
578.72	29277.76
578.88	29722.46
579.04	29855.87
579.21	29841.83
579.37	29823.11
579.53	29773.95
579.69	29436.92
579.85	29443.94
580.01	29614.80
580.17	29422.87
580.33	28877.53
580.49	29544.58
580.65	29862.90
580.82	29820.77
580.98	29474.37
581.14	29610.12
581.30	29694.38
581.46	29766.93
581.62	29546.92
581.78	29223.93
581.94	29542.24
582.10	29312.87
582.26	29879.28
582.42	30024.39
582.58	29469.69
582.74	29457.98
582.90	29717.78
583.06	29745.87
583.22	29446.28
583.38	29399.47
583.54	29394.79
583.70	29537.56
583.86	29670.97
584.02	29200.52
584.18	29614.80
584.34	29860.55
584.50	29659.27
584.66	29572.67
584.82	29663.95
584.98	29614.80
585.14	29441.60
585.30	29748.21
585.46	29792.68
585.62	29951.84
585.78	29790.34
585.94	29759.91
586.10	29895.66
586.26	30190.57
586.42	29713.10
586.58	30141.42
586.74	29355.00
586.90	29570.33
587.06	29575.01
587.22	29942.47
587.38	29277.76
587.54	29720.12
587.70	29558.63
587.86	29933.11
588.02	30022.05
588.18	29834.81
588.34	30057.16
588.49	29813.74
588.65	29619.48
588.81	29869.92
588.97	29806.72
589.13	29848.85
589.29	29301.17
589.45	29909.71
589.61	30160.14
589.77	29797.36
589.93	30096.95
590.08	29743.53
590.24	30319.30
590.40	30169.51
590.56	30298.23
590.72	30087.59
590.88	29699.06
591.04	29846.51
591.20	30183.55
591.35	30244.40
591.51	30185.89
591.67	30087.59
591.83	30593.14
591.99	29996.31
592.15	29970.56
592.31	29998.65
592.46	29818.42
592.62	29975.24
592.78	29586.71
592.94	29944.81
593.10	30206.95
593.26	30312.28
593.41	30218.66
593.57	30008.01
593.73	30188.23
593.89	29921.41
594.05	30340.36
594.20	29986.94
594.36	29942.47
594.52	29727.14
594.68	29631.18
594.84	29713.10
594.99	29834.81
595.15	30071.20
595.31	30328.66
595.47	30438.67
595.62	30314.62
595.78	29862.90
595.94	29991.62
596.10	29886.30
596.25	30286.53
596.41	30183.55
596.57	29703.74
596.73	30429.30
596.88	29914.39
597.04	30148.44
597.20	30497.18
597.36	30265.47
597.51	30452.71
597.67	30288.87
597.83	30071.20
597.99	30445.69
598.14	30211.64
598.30	30230.36
598.46	30375.47
598.61	30099.29
598.77	29949.50
598.93	30347.39
599.09	30363.77
599.24	30548.67
599.40	30583.78
599.56	30242.06
599.71	30471.43
599.87	30216.32
600.03	30646.97
600.18	30345.05
600.34	30068.86
600.50	30403.56
600.65	30167.16
600.81	30277.17
600.97	30024.39
601.12	30628.25
601.28	30623.57
601.44	30450.37
601.59	30422.28
601.75	30206.95
601.91	30075.88
602.06	30272.49
602.22	30174.19
602.37	29921.41
602.53	30438.67
602.69	30118.01
602.84	30146.10
603.00	30256.11
603.16	30483.14
603.31	30520.59
603.47	30469.09
603.62	30174.19
603.78	30504.20
603.94	29773.95
604.09	30068.86
604.25	30164.82
604.40	30192.91
604.56	29937.79
604.71	30361.43
604.87	30480.80
605.03	30373.13
605.18	30274.83
605.34	30244.40
605.49	29965.88
605.65	30415.26
605.80	29820.77
605.96	29865.24
606.12	30057.16
606.27	30281.85
606.43	29823.11
606.58	30394.20
606.74	30457.39
606.89	30426.96
607.05	30422.28
607.20	30103.97
607.36	30256.11
607.51	30319.30
607.67	29989.28
607.82	29844.17
607.98	30132.06
608.13	30113.33
608.29	30148.44
608.44	30050.14
608.60	29865.24
608.75	30331.00
608.91	30218.66
609.06	30094.61
609.22	30174.19
609.37	29748.21
609.53	29949.50
609.68	29862.90
609.84	30108.65
609.99	30237.38
610.15	29893.32
610.30	30118.01
610.46	29703.74
610.61	30110.99
610.76	30206.95
610.92	29940.13
611.07	30127.38
611.23	29729.48
611.38	30174.19
611.54	29244.99
611.69	29572.67
611.84	29715.44
612.00	29701.40
612.15	29769.27
612.31	29858.21
612.46	30099.29
612.62	29722.46
612.77	29883.96
612.92	29769.27
613.08	29483.73
613.23	29589.05
613.39	29315.21
613.54	29467.34
613.69	29689.70
613.85	29600.76
614.00	29715.44
614.15	30000.99
614.31	29806.72
614.46	29858.21
614.62	29579.69
614.77	29715.44
614.92	29610.12
615.08	29319.89
615.23	29432.24
615.38	29865.24
615.54	29441.60
615.69	29233.29
615.84	29607.78
616.00	29670.97
616.15	29511.81
616.30	29898.00
616.46	29287.12
616.61	29275.42
616.76	29502.45
616.92	29565.65
617.07	29408.83
617.22	29132.65
617.37	29214.57
617.53	29369.04
617.68	29465.00
617.83	28933.70
617.99	29116.26
618.14	29104.56
618.29	29153.71
618.45	29174.78
618.60	29296.49
618.75	29083.50
618.90	28978.17
619.06	29528.20
619.21	29455.64
619.36	29315.21
619.51	29132.65
619.67	28954.77
619.82	29006.26
619.97	28872.85
620.12	28865.83
620.28	29266.06
620.43	29472.03
620.58	29104.56
620.73	29207.55
620.89	29481.39
621.04	28910.30
621.19	29034.35
621.34	29036.69
621.49	29006.26
621.65	28629.43
621.80	28797.95
621.95	28929.02
622.10	28811.99
622.25	28931.36
622.41	28479.64
622.56	28680.92
622.71	28713.69
622.86	28704.33
623.01	29151.37
623.16	29088.18
623.32	28444.53
623.47	28914.98
623.62	28741.78
623.77	28741.78
623.92	28690.29
624.07	28421.13
624.23	28786.25
624.38	28856.46
624.53	28701.99
624.68	28828.38
624.83	28914.98
624.98	28905.62
625.13	28741.78
625.29	28400.06
625.44	28641.14
625.59	28453.89
625.74	28599.01
625.89	28498.36
626.04	28147.28
626.19	28285.37
626.34	28566.24
626.49	28226.86
626.65	28280.69
626.80	28856.46
626.95	28549.85
627.10	28060.68
627.25	28105.15
627.40	28299.42
627.55	28189.41
627.70	28046.64
627.85	28077.07
628.00	28060.68
628.15	28304.10
628.30	27587.89
628.45	28133.24
628.60	28041.96
628.76	28395.38
628.91	28247.93
629.06	27880.46
629.21	27885.14
629.36	28343.89
629.51	27985.79
629.66	27777.48
629.81	27810.25
629.96	27896.85
630.11	27927.27
630.26	27899.19
630.41	27885.14
630.56	27817.27
630.71	28041.96
630.86	28027.92
631.01	28271.33
631.16	27936.63
631.31	28336.87
631.46	27644.07
631.61	27868.76
631.76	27990.47
631.91	28095.79
632.06	27447.46
632.21	27583.21
632.36	27985.79
632.51	27459.16
632.66	27484.91
632.81	27950.68
632.96	27889.82
633.10	27513.00
633.25	27688.54
633.40	27552.79
633.55	27772.80
633.70	27374.91
633.85	27206.39
634.00	27117.45
634.15	27295.33
634.30	27534.06
634.45	27632.36
634.60	27248.52
634.75	27527.04
634.90	27283.62
635.05	27449.80
635.19	27311.71
635.34	27620.66
635.49	27580.87
635.64	27384.27
635.79	27454.48
635.94	27300.01
636.09	27852.38
636.24	27075.32
636.39	27033.19
636.53	27091.70
636.68	26764.03
636.83	27276.60
636.98	27489.59
637.13	27246.18
637.28	27187.66
637.43	27405.33
637.57	26927.86
637.72	26998.08
637.87	27360.86
638.02	26850.63
638.17	26827.22
638.32	27152.55
638.46	26813.18
638.61	26918.50
638.76	26574.44
638.91	26878.71
639.06	26925.52
639.20	26885.73
639.35	26752.32
639.50	27154.90
639.65	27126.81
639.80	27094.04
639.94	26796.79
640.09	26757.00
640.24	26925.52
640.39	26487.84
640.54	26450.39
640.68	26913.82
640.83	26391.88
640.98	26754.66
641.13	26527.63
641.27	26724.24
641.42	26574.44
641.57	26883.39
641.72	26504.23
641.86	26370.82
642.01	26178.89
642.16	26258.47
642.31	26239.75
642.45	26717.22
642.60	26178.89
642.75	26473.80
642.90	26417.63
643.04	26174.21
643.19	26471.46
643.34	26251.45
643.48	26017.40
643.63	26572.10
643.78	26651.68
643.93	26206.98
644.07	26160.17
644.22	26707.85
644.37	26625.93
644.51	26370.82
644.66	26455.08
644.81	26316.98
644.95	26178.89
645.10	26139.10
645.25	26300.60
645.39	26118.04
645.54	26508.91
645.69	26415.29
645.83	25975.27
645.98	25998.67
646.13	26293.58
646.27	26263.15
646.42	26244.43
646.57	26410.60
646.71	26181.23
646.86	26127.40
647.00	25881.64
647.15	26033.78
647.30	26005.69
647.44	25926.11
647.59	25823.13
647.74	25930.80
647.88	26085.27
648.03	26125.06
648.17	26141.44
648.32	25603.12
648.47	26125.06
648.61	25851.22
648.76	26047.82
648.90	25741.21
649.05	25713.13
649.20	25986.97
649.34	25771.64
649.49	25614.82
649.63	25710.78
649.78	25909.73
649.92	25696.74
650.07	25905.05
650.21	25715.47
650.36	25696.74
650.51	25619.50
650.65	25589.08
650.80	25813.77
650.94	25902.71
651.09	25617.16
651.23	25315.23
651.38	25495.46
651.52	25841.85
651.67	25638.23
651.81	25865.26
651.96	25628.87
652.10	25348.00
652.25	25734.19
652.39	25340.98
652.54	25706.10
652.68	25453.33
652.83	25532.90
652.97	25614.82
653.12	25579.71
653.26	25336.30
653.41	25324.60
653.55	25348.00
653.70	25628.87
653.84	25142.03
653.99	25326.94
654.13	25280.13
654.27	25369.07
654.42	25617.16
654.56	25123.31
654.71	25790.36
654.85	25345.66
655.00	25256.72
655.14	25465.03
655.29	25106.93
655.43	24884.58
655.57	25078.84
655.72	25153.74
655.86	24987.56
656.01	25383.11
656.15	24917.34
656.30	24898.62
656.44	25181.82
656.58	24872.87
656.73	24657.54
656.87	25001.60
657.01	24814.36
657.16	25090.54
657.30	24966.49
657.45	24769.89
657.59	24819.04
657.73	24706.70
657.88	24893.94
658.02	24875.21
658.16	24716.06
658.31	24694.99
658.45	24493.71
658.60	24533.50
658.74	24664.57
658.88	24126.24
659.03	24446.90
659.17	24617.75
659.31	24634.14
659.46	24847.13
659.60	24657.54
659.74	24254.97
659.89	24166.03
660.03	24446.90
660.17	24662.22
660.32	24215.18
660.46	24479.66
660.60	23981.13
660.74	24030.28
660.89	24086.45
661.03	24119.22
661.17	24465.62
661.32	24123.90
661.46	24006.87
661.60	24091.13
661.74	24311.14
661.89	24219.86
662.03	24266.67
662.17	24217.52
662.31	24243.27
662.46	23988.15
662.60	23960.06
662.74	23831.33
662.88	23623.03
663.03	23496.64
663.17	23648.77
663.31	23372.59
663.45	23491.96
663.60	23611.32
663.74	23690.90
663.88	23508.34
664.02	23669.84
664.17	23573.88
664.31	23641.75
664.45	23564.51
664.59	23648.77
664.73	23555.15
664.88	23475.57
665.02	23246.20
665.16	23173.64
665.30	23147.90
665.44	23487.28
665.59	23363.23
665.73	23328.12
665.87	23058.96
666.01	22965.34
666.15	22761.71
666.29	23339.82
666.44	23424.08
666.58	23143.22
666.72	22869.37
666.86	22649.36
667.00	22768.73
667.14	22831.93
667.28	23030.87
667.43	22581.49
667.57	23262.58
667.71	22532.34
667.85	22906.82
667.99	22581.49
668.13	22288.92
668.27	22778.09
668.41	22857.67
668.56	22427.01
668.70	22651.70
668.84	22398.93
668.98	22157.85
669.12	22565.10
669.26	22455.10
669.40	22317.01
669.54	22436.38
669.68	22391.91
669.82	22054.87
669.96	22221.05
670.10	22082.95
670.25	21977.63
670.39	22061.89
670.53	21788.05
670.67	21769.32
670.81	22012.74
670.95	21874.65
671.09	21986.99
671.23	21799.75
671.37	21996.35
671.51	22118.06
671.65	22092.32
671.79	21809.11
671.93	22097.00
672.07	21783.37
672.21	21804.43
672.35	21472.07
672.49	21720.17
672.63	21226.32
672.77	21451.01
672.91	21722.51
673.05	21235.68
673.19	21472.07
673.33	21135.04
673.47	21371.43
673.61	21448.67
673.75	21425.26
673.89	21341.00
674.03	21308.24
674.17	21266.11
674.31	21010.99
674.45	20929.07
674.59	20966.52
674.73	21174.83
674.87	20690.34
675.01	20814.38
675.15	20917.37
675.29	20695.02
675.43	20748.85
675.56	20575.65
675.70	20748.85
675.84	20720.76
675.98	20231.59
676.12	20734.81
676.26	20596.71
676.40	20388.41
676.54	20545.22
676.68	20287.76
676.82	19889.87
676.96	20053.71
677.10	20105.20
677.23	19967.11
677.37	19950.73
677.51	20013.92
677.65	19831.36
677.79	19594.96
677.93	19679.22
678.07	19796.25
678.21	19463.90
678.34	19499.00
678.48	19374.95
678.62	19576.24
678.76	19414.74
678.90	19449.85
679.04	19290.70
679.18	19356.23
679.31	19208.78
679.45	19241.54
679.59	19068.34
679.73	19199.41
679.87	18735.99
680.00	18761.73
680.14	18682.16
680.28	18705.56
680.42	18640.03
680.56	18967.70
680.70	18787.48
680.83	18845.99
680.97	18405.97
681.11	18792.16
681.25	18291.29
681.39	18466.83
681.52	18567.47
681.66	18232.77
681.80	18281.92
681.94	17940.21
682.07	18270.22
682.21	17919.14
682.35	17972.97
682.49	17830.20
682.62	17582.10
682.76	17860.63
682.90	17834.88
683.04	17631.26
683.17	17841.90
683.31	18026.81
683.45	17914.46
683.59	17788.07
683.72	17654.66
683.86	17865.31
684.00	17228.68
684.13	17404.22
684.27	17277.83
684.41	17415.93
684.55	17212.30
684.68	16943.14
684.82	16989.95
684.96	17209.96
685.09	16987.61
685.23	16809.73
685.37	16783.98
685.50	16940.80
685.64	16973.56
685.78	16938.46
685.91	16542.91
686.05	16931.44
686.19	16774.62
686.32	16556.95
686.46	16383.75
686.60	16322.90
686.73	16498.44
686.87	16442.26
687.01	16329.92
687.14	16472.69
687.28	15882.88
687.42	16058.42
687.55	16149.70
687.69	15761.17
687.82	15990.54
687.96	15934.37
688.10	15997.56
688.23	15665.21
688.37	15632.44
688.50	15737.76
688.64	15836.06
688.78	15843.09
688.91	15583.29
689.05	15466.26
689.18	15314.13
689.32	15101.14
689.46	15307.10
689.59	15435.83
689.73	15173.69
689.86	15019.22
690.00	15164.33
690.13	15250.93
690.27	14871.76
690.41	15075.39
690.54	15009.86
690.68	15122.20
690.81	15012.20
690.95	14827.29
691.08	14897.51
691.22	14698.56
691.35	14562.81
691.49	14635.37
691.62	14516.00
691.76	14541.75
691.89	14436.42
692.03	14370.89
692.16	14349.82
692.30	14150.88
692.43	14363.87
692.57	13942.57
692.70	14120.45
692.84	13865.33
692.97	14235.14
693.11	13902.78
693.24	13912.14
693.38	13893.42
693.51	13797.46
693.65	13841.93
693.78	13806.82
693.92	13881.72
694.05	13392.55
694.19	13490.85
694.32	13516.59
694.45	13357.44
694.59	13532.98
694.72	13163.17
694.86	12992.31
694.99	12823.80
695.13	13055.51
695.26	13142.11
695.39	12989.97
695.53	13341.05
695.66	13004.02
695.80	12805.07
695.93	12947.84
696.07	13081.25
696.20	12919.76
696.33	12727.83
696.47	12524.21
696.60	12578.04
696.73	12704.43
696.87	12381.43
697.00	12664.64
697.14	12318.24
697.27	12065.46
697.40	12191.85
697.54	11918.01
697.67	12046.74
697.80	12250.36
697.94	11948.43
698.07	11985.88
698.21	11775.24
698.34	11873.54
698.47	12020.99
698.61	12023.33
698.74	11843.11
698.87	11857.15
699.01	11707.36
699.14	11580.97
699.27	11742.47
699.40	11751.83
699.54	11623.10
699.67	11377.34
699.80	11452.24
699.94	11573.95
700.07	11311.81
700.20	11318.83
700.34	11061.37
700.47	11197.12
700.60	11229.89
700.73	11185.42
700.87	11016.90
701.00	10972.43
701.13	10923.28
701.26	10993.50
701.40	10925.62
701.53	10700.93
701.66	10953.71
701.79	10885.83
701.93	10656.46
702.06	10609.65
702.19	10640.08
702.32	10347.51
702.46	10387.30
702.59	10293.68
702.72	10143.88
702.85	10321.76
702.99	10291.34
703.12	10190.69
703.25	10340.49
703.38	10270.27
703.51	10333.47
703.65	9973.02
703.78	10104.09
703.91	9872.38
704.04	9977.70
704.17	9949.62
704.31	9954.30
704.44	9888.76
704.57	9834.93
704.70	9689.82
704.83	9549.39
704.96	9570.45
705.10	9694.50
705.23	9617.26
>>>>>End Processed Spectral Data<<<<<
