SpectraSuite Data File
++++++++++++++++++++++++++++++++++++
Date: Fri Oct 18 13:58:06 GMT-05:00 2013
User: bianchi
Dark Spectrum Present: No
Reference Spectrum Present: No
Number of Sampled Component Spectra: 1
Spectrometers: USB2+H05261
Integration Time (usec): 50000 (USB2+H05261)
Spectra Averaged: 1 (USB2+H05261)
Boxcar Smoothing: 0 (USB2+H05261)
Correct for Electrical Dark: No (USB2+H05261)
Strobe/Lamp Enabled: No (USB2+H05261)
Correct for Detector Non-linearity: No (USB2+H05261)
Correct for Stray Light: No (USB2+H05261)
Number of Pixels in Processed Spectrum: 2048
>>>>>Begin Processed Spectral Data<<<<<
365.73	0.00
365.92	0.00
366.12	0.00
366.32	0.00
366.52	0.00
366.72	0.00
366.91	0.00
367.11	0.00
367.31	0.00
367.51	0.00
367.70	0.00
367.90	0.00
368.10	0.00
368.30	0.00
368.49	0.00
368.69	0.00
368.89	0.00
369.09	0.00
369.28	0.00
369.48	0.00
369.68	0.00
369.87	0.00
370.07	0.00
370.27	0.00
370.47	0.00
370.66	95.96
370.86	152.13
371.06	173.20
371.25	208.31
371.45	102.98
371.65	173.20
371.84	98.30
372.04	166.18
372.24	128.73
372.44	191.92
372.63	114.69
372.83	201.29
373.03	252.78
373.22	212.99
373.42	222.35
373.62	252.78
373.81	339.38
374.01	210.65
374.21	266.82
374.40	255.12
374.60	194.26
374.79	252.78
374.99	198.95
375.19	220.01
375.38	245.76
375.58	287.89
375.78	215.33
375.97	304.27
376.17	257.46
376.37	241.08
376.56	322.99
376.76	304.27
376.95	269.16
377.15	229.37
377.35	280.86
377.54	313.63
377.74	243.42
377.93	313.63
378.13	322.99
378.33	201.29
378.52	290.23
378.72	325.33
378.91	264.48
379.11	287.89
379.31	283.20
379.50	262.14
379.70	353.42
379.89	285.55
380.09	273.84
380.28	203.63
380.48	315.97
380.68	227.03
380.87	297.25
381.07	365.12
381.26	318.31
381.46	255.12
381.65	234.05
381.85	330.02
382.04	341.72
382.24	292.57
382.43	367.46
382.63	287.89
382.83	280.86
383.02	353.42
383.22	374.49
383.41	301.93
383.61	351.08
383.80	332.36
384.00	348.74
384.19	334.70
384.39	362.78
384.58	266.82
384.78	425.98
384.97	374.49
385.17	360.44
385.36	353.42
385.56	348.74
385.75	397.89
385.95	346.40
386.14	374.49
386.34	379.17
386.53	411.93
386.72	435.34
386.92	451.72
387.11	367.46
387.31	498.53
387.50	414.27
387.70	425.98
387.89	411.93
388.09	449.38
388.28	418.96
388.48	428.32
388.67	486.83
388.86	454.06
389.06	433.00
389.25	463.43
389.45	510.24
389.64	470.45
389.84	463.43
390.03	395.55
390.22	554.71
390.42	461.09
390.61	421.30
390.81	507.90
391.00	526.62
391.19	540.66
391.39	510.24
391.58	528.96
391.78	566.41
391.97	538.32
392.16	564.07
392.36	519.60
392.55	505.56
392.75	550.03
392.94	552.37
393.13	517.26
393.33	545.34
393.52	568.75
393.71	545.34
393.91	578.11
394.10	629.60
394.29	660.03
394.49	582.79
394.68	650.67
394.88	585.13
395.07	645.99
395.26	617.90
395.46	552.37
395.65	645.99
395.84	634.29
396.04	716.20
396.23	638.97
396.42	692.80
396.62	627.26
396.81	681.10
397.00	706.84
397.19	660.03
397.39	702.16
397.58	674.07
397.77	650.67
397.97	720.88
398.16	662.37
398.35	748.97
398.55	723.23
398.74	734.93
398.93	777.06
399.12	711.52
399.32	716.20
399.51	842.59
399.70	695.14
399.90	720.88
400.09	706.84
400.28	713.86
400.47	753.65
400.67	725.57
400.86	727.91
401.05	697.48
401.24	704.50
401.44	807.48
401.63	919.83
401.82	807.48
402.01	800.46
402.21	877.70
402.40	842.59
402.59	741.95
402.78	835.57
402.97	889.40
403.17	940.90
403.36	866.00
403.55	828.55
403.74	856.64
403.93	924.51
404.13	983.02
404.32	868.34
404.51	938.55
404.70	873.02
404.89	950.26
405.09	919.83
405.28	1022.81
405.47	973.66
405.66	976.00
405.85	961.96
406.05	901.11
406.24	1069.62
406.43	999.41
406.62	1081.33
406.81	1013.45
407.00	976.00
407.20	966.64
407.39	1018.13
407.58	1067.28
407.77	1100.05
407.96	1118.78
408.15	1057.92
408.34	1083.67
408.54	1149.20
408.73	1174.95
408.92	1156.22
409.11	1142.18
409.30	1104.73
409.49	1149.20
409.68	1156.22
409.87	1149.20
410.07	1170.27
410.26	1193.67
410.45	1146.86
410.64	1186.65
410.83	1240.48
411.02	1219.42
411.21	1291.98
411.40	1235.80
411.59	1284.95
411.78	1205.38
411.98	1273.25
412.17	1303.68
412.36	1296.66
412.55	1322.40
412.74	1390.28
412.93	1308.36
413.12	1352.83
413.31	1444.11
413.50	1423.05
413.69	1432.41
413.88	1427.73
414.07	1406.66
414.26	1434.75
414.45	1376.24
414.64	1495.60
414.83	1558.80
415.02	1497.94
415.22	1495.60
415.41	1561.14
415.60	1619.65
415.79	1650.08
415.98	1671.14
416.17	1666.46
416.36	1643.06
416.55	1687.53
416.74	1720.29
416.93	1743.70
417.12	1654.76
417.31	1605.61
417.50	1668.80
417.69	1804.55
417.88	1720.29
418.07	1834.98
418.26	1774.13
418.45	1961.37
418.64	1863.07
418.83	1809.23
419.02	1825.62
419.21	1820.94
419.39	1823.28
419.58	1891.15
419.77	1809.23
419.96	1825.62
420.15	1989.46
420.34	1980.09
420.53	1870.09
420.72	1935.62
420.91	2017.54
421.10	1900.52
421.29	1949.67
421.48	1928.60
421.67	1935.62
421.86	1977.75
422.05	1947.33
422.24	2026.90
422.43	1928.60
422.61	2022.22
422.80	1989.46
422.99	2127.55
423.18	1973.07
423.37	2162.66
423.56	2022.22
423.75	1930.94
423.94	2043.29
424.13	1905.20
424.32	1914.56
424.50	2057.33
424.69	2036.27
424.88	2165.00
425.07	2024.56
425.26	1975.41
425.45	1989.46
425.64	2022.22
425.83	2026.90
426.01	2083.08
426.20	1966.05
426.39	1994.14
426.58	2010.52
426.77	2120.53
426.96	2207.13
427.15	2270.32
427.33	2099.46
427.52	2160.31
427.71	2202.44
427.90	2190.74
428.09	2176.70
428.28	2188.40
428.46	2249.25
428.65	2099.46
428.84	2305.43
429.03	2296.07
429.22	2218.83
429.40	2296.07
429.59	2305.43
429.78	2106.48
429.97	2080.74
430.16	2277.34
430.34	2361.60
430.53	2310.11
430.72	2324.15
430.91	2228.19
431.10	2317.13
431.28	2361.60
431.47	2401.39
431.66	2417.77
431.85	2492.67
432.03	2457.56
432.22	2457.56
432.41	2464.58
432.60	2450.54
432.79	2443.52
432.97	2443.52
433.16	2375.64
433.35	2513.74
433.54	2509.05
433.72	2483.31
433.91	2429.48
434.10	2480.97
434.28	2551.18
434.47	2686.94
434.66	2609.70
434.85	2654.17
435.03	2670.55
435.22	2597.99
435.41	2874.18
435.59	2665.87
435.78	2600.34
435.97	2626.08
436.16	2595.65
436.34	2630.76
436.53	2635.44
436.72	2862.48
436.90	2733.75
437.09	2780.56
437.28	2738.43
437.46	2679.91
437.65	2853.11
437.84	2813.32
438.02	2717.36
438.21	2829.71
438.40	2785.24
438.58	2883.54
438.77	2794.60
438.96	2935.03
439.14	2977.16
439.33	2939.71
439.52	2953.76
439.70	2977.16
439.89	2925.67
440.08	3059.08
440.26	3185.47
440.45	3087.17
440.63	3187.81
440.82	3260.37
441.01	3213.56
441.19	3148.02
441.38	3211.22
441.57	3143.34
441.75	3330.58
441.94	3368.03
442.12	3311.86
442.31	3293.13
442.50	3393.78
442.68	3342.28
442.87	3356.33
443.05	3269.73
443.24	3454.63
443.43	3363.35
443.61	3351.65
443.80	3492.08
443.98	3433.57
444.17	3283.77
444.35	3379.73
444.54	3496.76
444.73	3379.73
444.91	3515.48
445.10	3438.25
445.28	3440.59
445.47	3431.23
445.65	3454.63
445.84	3627.83
446.02	3531.87
446.21	3454.63
446.39	3566.98
446.58	3583.36
446.77	3574.00
446.95	3454.63
447.14	3478.04
447.32	3658.26
447.51	3417.18
447.69	3461.65
447.88	3639.53
448.06	3520.17
448.25	3513.14
448.43	3721.45
448.62	3630.17
448.80	3688.68
448.99	3705.07
449.17	3599.74
449.36	3634.85
449.54	3779.97
449.73	3723.79
449.91	3810.39
450.10	3665.28
450.28	3866.56
450.46	3770.60
450.65	3859.54
450.83	3756.56
451.02	3808.05
451.20	3829.12
451.39	3826.78
451.57	3744.86
451.76	3747.20
451.94	3672.30
452.13	3840.82
452.31	3878.27
452.49	3866.56
452.68	3852.52
452.86	3927.42
453.05	3922.74
453.23	3995.29
453.42	3829.12
453.60	3882.95
453.78	4088.92
453.97	3985.93
454.15	4002.32
454.34	4044.45
454.52	3950.82
454.70	4018.70
454.89	4067.85
455.07	3981.25
455.26	3946.14
455.44	4135.73
455.62	4198.92
455.81	4114.66
455.99	4234.03
456.17	4175.52
456.36	4198.92
456.54	4119.34
456.73	4306.59
456.91	4447.02
457.09	4367.44
457.28	4334.67
457.46	4142.75
457.64	4360.42
457.83	4374.46
458.01	4208.28
458.19	4360.42
458.38	4449.36
458.56	4486.81
458.74	4526.60
458.93	4489.15
459.11	4538.30
459.29	4533.62
459.48	4552.34
459.66	4718.52
459.84	4493.83
460.03	4716.18
460.21	4575.75
460.39	4699.80
460.57	4564.04
460.76	4732.56
460.94	4667.03
461.12	4596.81
461.31	4784.06
461.49	4606.17
461.67	4671.71
461.85	4875.34
462.04	4910.44
462.22	5025.13
462.40	4870.65
462.59	4875.34
462.77	4826.18
462.95	4856.61
463.13	4877.68
463.32	4774.69
463.50	4854.27
463.68	4835.55
463.86	4898.74
464.05	4833.21
464.23	4959.60
464.41	4959.60
464.59	4814.48
464.78	4873.00
464.96	4959.60
465.14	4926.83
465.32	5116.41
465.50	5048.54
465.69	5118.75
465.87	4854.27
466.05	5114.07
466.23	5064.92
466.41	5071.94
466.60	5266.21
466.78	5177.26
466.96	5006.41
467.14	5132.79
467.32	5107.05
467.51	5156.20
467.69	5156.20
467.87	5280.25
468.05	5228.76
468.23	5217.05
468.41	5212.37
468.60	5401.96
468.78	5383.23
468.96	5437.06
469.14	5427.70
469.32	5397.28
469.50	5352.81
469.69	5554.09
469.87	5493.24
470.05	5528.35
470.23	5462.81
470.41	5439.40
470.59	5530.69
470.77	5465.15
470.95	5481.53
471.14	5675.80
471.32	5631.33
471.50	5692.18
471.68	5554.09
471.86	5671.12
472.04	5746.02
472.22	5785.80
472.40	5750.70
472.58	5769.42
472.77	5956.66
472.95	5755.38
473.13	6005.81
473.31	5944.96
473.49	5963.68
473.67	6059.65
473.85	5963.68
474.03	6019.86
474.21	6076.03
474.39	6162.63
474.57	6237.53
474.75	6328.81
474.93	6354.55
475.12	6235.19
475.30	6244.55
475.48	6157.95
475.66	6413.07
475.84	6406.05
476.02	6422.43
476.20	6429.45
476.38	6494.99
476.56	6675.21
476.74	6502.01
476.92	6677.55
477.10	6675.21
477.28	6682.23
477.46	6799.26
477.64	6864.79
477.82	6883.52
478.00	6951.39
478.18	7103.53
478.36	7063.74
478.54	6965.43
478.72	7026.29
478.90	7059.06
479.08	7283.75
479.26	7377.37
479.44	7405.46
479.62	7255.66
479.80	7517.80
479.98	7466.31
480.16	7658.23
480.34	7595.04
480.52	7882.92
480.70	7754.19
480.88	7765.90
481.06	7765.90
481.24	7751.85
481.41	7939.10
481.59	8182.51
481.77	8053.78
481.95	8081.87
482.13	8311.24
482.31	8215.28
482.49	8226.98
482.67	8313.58
482.85	8496.14
483.03	8610.83
483.21	8706.79
483.39	8601.47
483.57	8716.16
483.74	8767.65
483.92	8868.29
484.10	8800.41
484.28	8936.17
484.46	9343.42
484.64	9228.73
484.82	8959.57
485.00	9151.49
485.18	9486.19
485.35	9640.67
485.53	9439.38
485.71	9797.48
485.89	9893.44
486.07	9540.02
486.25	9568.11
486.43	9872.38
486.61	9877.06
486.78	9989.41
486.96	10066.64
487.14	10155.58
487.32	10118.14
487.50	10305.38
487.68	10523.05
487.85	10509.01
488.03	10600.29
488.21	10714.97
488.39	11030.94
488.57	10710.29
488.75	10871.79
488.92	11094.14
489.10	11255.64
489.28	11103.50
489.46	11286.06
489.64	11267.34
489.81	11482.67
489.99	11370.32
490.17	11508.41
490.35	11475.65
490.53	11758.85
490.70	11857.15
490.88	11655.87
491.06	11899.28
491.24	11810.34
491.41	12140.36
491.59	12177.81
491.77	12109.93
491.95	12297.17
492.13	12383.77
492.30	12681.02
492.48	12329.94
492.66	12805.07
492.84	12556.97
493.01	12989.97
493.19	12617.83
493.37	12940.82
493.54	12863.58
493.72	12828.48
493.90	12938.48
494.08	13277.86
494.25	13200.62
494.43	13448.72
494.61	13678.09
494.79	13701.50
494.96	13411.27
495.14	13579.79
495.32	13614.90
495.49	14043.21
495.67	14057.26
495.85	13928.53
496.02	14040.87
496.20	13991.72
496.38	14129.81
496.55	14214.07
496.73	14459.83
496.91	14548.77
497.09	14422.38
497.26	14759.42
497.44	14642.39
497.62	14661.12
497.79	14759.42
497.97	14712.61
498.14	14834.32
498.32	15037.94
498.50	14726.65
498.67	15007.52
498.85	15173.69
499.03	15311.78
499.20	15309.44
499.38	15290.72
499.56	15279.02
499.73	15534.14
499.91	15363.28
500.08	15723.72
500.26	15557.54
500.44	15503.71
500.61	15917.98
500.79	15850.11
500.97	15908.62
501.14	16077.14
501.32	15901.60
501.49	15955.43
501.67	16276.09
501.84	16049.05
502.02	16283.11
502.20	16390.77
502.37	16634.19
502.55	16203.53
502.72	16493.76
502.90	16617.80
503.07	16332.26
503.25	16446.94
503.43	16582.70
503.60	16776.96
503.78	16889.31
503.95	16858.88
504.13	16723.13
504.30	16919.73
504.48	16964.20
504.65	16980.59
504.83	16882.28
505.01	17383.16
505.18	17420.61
505.36	17561.04
505.53	17214.64
505.71	17202.94
505.88	17495.50
506.06	17125.70
506.23	17776.37
506.41	17692.11
506.58	17797.43
506.76	18010.42
506.93	17542.32
507.11	17764.67
507.28	17731.90
507.46	17916.80
507.63	17640.62
507.81	18047.87
507.98	18071.28
508.16	18111.07
508.33	17827.86
508.50	18066.60
508.68	18235.11
508.85	18530.02
509.03	18345.12
509.20	18630.66
509.38	18534.70
509.55	18752.37
509.73	18670.45
509.90	18530.02
510.08	18644.71
510.25	18764.07
510.42	18515.98
510.60	18998.13
510.77	19229.84
510.95	19007.49
511.12	19171.33
511.30	18796.84
511.47	19164.31
511.64	19459.21
511.82	19374.95
511.99	19080.05
512.17	19414.74
512.34	19499.00
512.51	19440.49
512.69	19688.59
512.86	19396.02
513.04	19924.98
513.21	19910.94
513.38	19864.13
513.56	19906.26
513.73	19990.52
513.90	19833.70
514.08	19829.02
514.25	19941.36
514.43	19908.60
514.60	20135.63
514.77	20006.90
514.95	20428.20
515.12	19960.09
515.29	20360.32
515.47	20163.72
515.64	20243.29
515.81	20545.22
515.99	20362.66
516.16	20451.60
516.33	20528.84
516.51	20680.97
516.68	20507.77
516.85	20730.12
517.03	20769.91
517.20	20807.36
517.37	20879.92
517.54	20879.92
517.72	21039.08
517.89	20947.79
518.06	20971.20
518.24	20938.43
518.41	20903.32
518.58	21123.33
518.75	21099.93
518.93	21406.54
519.10	21097.59
519.27	21811.45
519.45	21652.30
519.62	21479.10
519.79	21338.66
519.96	21362.07
520.14	21654.64
520.31	21474.42
520.48	21919.12
520.65	21469.73
520.83	21652.30
521.00	22017.42
521.17	21687.40
521.34	21668.68
521.52	22253.81
521.69	21998.70
521.86	22033.80
522.03	22031.46
522.20	22270.20
522.38	22324.03
522.55	22075.93
522.72	22047.85
522.89	22307.65
523.07	22253.81
523.24	22237.43
523.41	22455.10
523.58	22476.16
523.75	22647.02
523.92	22333.39
524.10	22607.23
524.27	22771.07
524.44	22827.24
524.61	22911.50
524.78	23080.02
524.96	22541.70
525.13	22796.82
525.30	22963.00
525.47	22925.55
525.64	22834.27
525.81	23227.48
525.98	23283.65
526.16	22885.76
526.33	23178.33
526.50	23293.01
526.67	23335.14
526.84	23227.48
527.01	23278.97
527.18	23707.29
527.36	23515.36
527.53	23646.43
527.70	24020.92
527.87	23957.72
528.04	23679.20
528.21	24056.03
528.38	23356.21
528.55	23744.73
528.72	23740.05
528.89	23702.61
529.07	23744.73
529.24	23667.50
529.41	23737.71
529.58	23901.55
529.75	24041.98
529.92	23744.73
530.09	24081.77
530.26	24159.01
530.43	24383.70
530.60	24315.83
530.77	24175.39
530.94	24409.45
531.11	24259.65
531.28	24142.63
531.46	24194.12
531.63	24386.04
531.80	24315.83
531.97	24854.15
532.14	24765.21
532.31	24257.31
532.48	24599.03
532.65	24711.38
532.82	24549.88
532.99	24374.34
533.16	24673.93
533.33	24657.54
533.50	25039.05
533.67	24996.92
533.84	24779.25
534.01	24631.80
534.18	24694.99
534.35	25057.78
534.52	24823.72
534.69	25064.80
534.86	25198.21
535.03	25249.70
535.20	25088.20
535.37	25259.06
535.54	25324.60
535.71	25069.48
535.88	25046.07
536.05	25373.75
536.22	25472.05
536.38	25577.37
536.55	25738.87
536.72	25078.84
536.89	25261.40
537.06	25380.77
537.23	25563.33
537.40	25605.46
537.57	25778.66
537.74	25642.91
537.91	25675.68
538.08	25748.23
538.25	25949.52
538.42	25605.46
538.59	26103.99
538.75	25586.74
538.92	25654.61
539.09	25954.20
539.26	26242.09
539.43	26321.66
539.60	25977.61
539.77	26022.08
539.94	26307.62
540.11	26047.82
540.28	26047.82
540.44	25921.43
540.61	25759.94
540.78	26176.55
540.95	26384.86
541.12	26244.43
541.29	26354.43
541.46	26375.50
541.62	26480.82
541.79	26340.39
541.96	25888.67
542.13	26368.48
542.30	26593.17
542.47	26726.58
542.63	26579.12
542.80	26520.61
542.97	26899.78
543.14	26728.92
543.31	26558.06
543.48	26969.99
543.64	26874.03
543.81	26876.37
543.98	26876.37
544.15	27108.08
544.32	27068.30
544.48	27089.36
544.65	26778.07
544.82	26864.67
544.99	26705.51
545.16	27194.68
545.32	27040.21
545.49	26965.31
545.66	27707.26
545.83	27538.74
546.00	27311.71
546.16	26930.20
546.33	26941.91
546.50	27040.21
546.67	27407.67
546.83	27510.66
547.00	27035.53
547.17	27257.88
547.34	27370.22
547.50	27321.07
547.67	27910.89
547.84	27828.97
548.00	27630.02
548.17	28285.37
548.34	27592.58
548.51	27735.35
548.67	27887.48
548.84	27857.06
549.01	27779.82
549.18	27718.96
549.34	27747.05
549.51	27957.70
549.68	27971.74
549.84	27840.67
550.01	27740.03
550.18	27718.96
550.34	27885.14
550.51	27997.49
550.68	28407.08
550.84	28149.62
551.01	27988.13
551.18	27742.37
551.34	27721.30
551.51	28081.75
551.68	27950.68
551.84	28182.39
552.01	28119.20
552.18	28479.64
552.34	28353.25
552.51	28339.21
552.68	28219.84
552.84	28254.95
553.01	28414.10
553.18	28304.10
553.34	28425.81
553.51	28617.73
553.67	28774.55
553.84	28877.53
554.01	28648.16
554.17	28741.78
554.34	28519.43
554.51	28357.93
554.67	28701.99
554.84	28638.80
555.00	28491.34
555.17	28737.10
555.33	28847.10
555.50	28758.16
555.67	28809.65
555.83	28676.24
556.00	28514.75
556.16	28854.12
556.33	28847.10
556.50	28744.12
556.66	29053.07
556.83	28484.32
556.99	29380.74
557.16	28973.49
557.32	28753.48
557.49	29158.39
557.65	29092.86
557.82	28868.17
557.98	28889.23
558.15	29216.91
558.32	28978.17
558.48	29099.88
558.65	29457.98
558.81	29207.55
558.98	29404.15
559.14	29289.46
559.31	28950.09
559.47	29170.10
559.64	29446.28
559.80	29226.27
559.97	29352.66
560.13	29593.73
560.30	29193.50
560.46	29455.64
560.63	29668.63
560.79	29495.43
560.96	29745.87
561.12	29383.09
561.29	29462.66
561.45	29493.09
561.61	29336.27
561.78	29652.25
561.94	29511.81
562.11	29736.51
562.27	29645.23
562.44	29448.62
562.60	29376.06
562.77	29249.67
562.93	29497.77
563.10	29514.16
563.26	29362.02
563.42	29509.47
563.59	29612.46
563.75	30026.73
563.92	29809.06
564.08	29483.73
564.24	29556.28
564.41	29916.73
564.57	29752.89
564.74	29624.16
564.90	29921.41
565.07	29661.61
565.23	29809.06
565.39	29626.50
565.56	30185.89
565.72	29727.14
565.88	29834.81
566.05	29696.72
566.21	29771.61
566.38	29778.64
566.54	29975.24
566.70	30054.82
566.87	30050.14
567.03	30103.97
567.19	30132.06
567.36	30206.95
567.52	30553.35
567.68	30132.06
567.85	29661.61
568.01	30139.08
568.17	29706.08
568.34	30237.38
568.50	30059.50
568.66	29972.90
568.83	30169.51
568.99	30160.14
569.15	29916.73
569.32	29736.51
569.48	29659.27
569.64	30216.32
569.81	29942.47
569.97	29961.20
570.13	30176.53
570.30	29893.32
570.46	30321.64
570.62	30277.17
570.78	29909.71
570.95	29722.46
571.11	30040.78
571.27	30160.14
571.43	29968.22
571.60	30366.11
571.76	29921.41
571.92	30249.08
572.09	30267.81
572.25	30366.11
572.41	30209.29
572.57	30382.49
572.74	30309.94
572.90	29886.30
573.06	30263.13
573.22	30293.55
573.38	30642.29
573.55	30480.80
573.71	30820.17
573.87	30801.45
574.03	30370.79
574.20	30075.88
574.36	30181.21
574.52	30232.70
574.68	29715.44
574.84	30457.39
575.01	30256.11
575.17	30518.25
575.33	30209.29
575.49	30197.59
575.65	30221.00
575.82	30593.14
575.98	30436.33
576.14	30408.24
576.30	30338.02
576.46	30263.13
576.62	30345.05
576.79	30441.01
576.95	29865.24
577.11	30162.48
577.27	30902.09
577.43	30518.25
577.59	30235.04
577.75	30590.80
577.92	30239.72
578.08	30581.44
578.24	30433.99
578.40	30174.19
578.56	30646.97
578.72	30459.73
578.88	31257.85
579.04	30815.49
579.21	30352.07
579.37	30656.34
579.53	30684.42
579.69	30347.39
579.85	30225.68
580.01	30302.92
580.17	29970.56
580.33	30483.14
580.49	30539.31
580.65	30265.47
580.82	30555.69
580.98	31091.68
581.14	30850.60
581.30	30473.78
581.46	30319.30
581.62	30597.82
581.78	30443.35
581.94	30522.93
582.10	30632.93
582.26	30691.44
582.42	30569.74
582.58	30625.91
582.74	30756.98
582.90	30438.67
583.06	30300.58
583.22	30630.59
583.38	30150.78
583.54	30810.81
583.70	30689.10
583.86	30742.94
584.02	30529.95
584.18	30810.81
584.34	30518.25
584.50	30759.32
584.66	31021.46
584.82	30272.49
584.98	30787.41
585.14	30492.50
585.30	30637.61
585.46	30546.33
585.62	30398.88
585.78	30642.29
585.94	30476.12
586.10	31065.93
586.26	30651.66
586.42	31079.97
586.58	30726.55
586.74	30476.12
586.90	30326.32
587.06	30209.29
587.22	30724.21
587.38	30490.16
587.54	30827.20
587.70	31068.27
587.86	31028.48
588.02	31030.82
588.18	31124.44
588.34	30724.21
588.49	30717.19
588.65	30984.01
588.81	30859.96
588.97	30897.41
589.13	30698.47
589.29	30637.61
589.45	30958.27
589.61	31126.78
589.77	31225.09
589.93	30724.21
590.08	31023.80
590.24	31103.38
590.40	31140.83
590.56	31007.42
590.72	30864.64
590.88	30787.41
591.04	30848.26
591.20	30934.86
591.35	30764.00
591.51	31295.30
591.67	31342.11
591.83	31292.96
591.99	31131.47
592.15	30984.01
592.31	31079.97
592.46	31012.10
592.62	31117.42
592.78	30806.13
592.94	31105.72
593.10	30740.60
593.26	31175.94
593.41	31033.16
593.57	31040.18
593.73	30920.82
593.89	31625.32
594.05	31447.44
594.20	30838.90
594.36	31014.44
594.52	31016.78
594.68	30827.20
594.84	30756.98
594.99	31152.53
595.15	31051.89
595.31	31566.81
595.47	31522.34
595.62	31660.43
595.78	30885.71
595.94	30759.32
596.10	31150.19
596.25	31204.02
596.41	30843.58
596.57	31072.95
596.73	31131.47
596.88	31164.23
597.04	31304.67
597.20	31335.09
597.36	31175.94
597.51	31267.22
597.67	30855.28
597.83	31058.91
597.99	31105.72
598.14	31201.68
598.30	31178.28
598.46	31054.23
598.61	31189.98
598.77	31227.43
598.93	31438.08
599.09	30998.06
599.24	31562.12
599.40	31541.06
599.56	31515.31
599.71	30937.20
599.87	30974.65
600.03	31360.84
600.18	31194.66
600.34	31082.31
600.50	31023.80
600.65	31070.61
600.81	31075.29
600.97	31606.59
601.12	31377.22
601.28	31405.31
601.44	31463.82
601.59	31515.31
601.75	31456.80
601.91	31489.57
602.06	31225.09
602.22	30845.92
602.37	31047.21
602.53	31122.10
602.69	31372.54
602.84	31447.44
603.00	31763.41
603.16	31398.29
603.31	31468.50
603.47	31150.19
603.62	31564.46
603.78	31676.81
603.94	31213.38
604.09	31002.74
604.25	31016.78
604.40	31372.54
604.56	31166.57
604.71	31527.02
604.87	31517.65
605.03	31337.43
605.18	31503.61
605.34	31592.55
605.49	31278.92
605.65	31157.21
605.80	30998.06
605.96	31145.51
606.12	30876.35
606.27	31204.02
606.43	31246.15
606.58	31620.64
606.74	31309.35
606.89	31204.02
607.05	31477.86
607.20	31412.33
607.36	31346.79
607.51	31049.55
607.67	30986.35
607.82	30759.32
607.98	31065.93
608.13	30862.30
608.29	31168.91
608.44	31243.81
608.60	31136.15
608.75	31274.24
608.91	31089.34
609.06	31192.32
609.22	31152.53
609.37	30632.93
609.53	31405.31
609.68	31007.42
609.84	30958.27
609.99	31030.82
610.15	31101.04
610.30	30654.00
610.46	30890.39
610.61	31117.42
610.76	31543.40
610.92	31182.96
611.07	31042.53
611.23	31007.42
611.38	30815.49
611.54	30422.28
611.69	30380.15
611.84	30445.69
612.00	30728.89
612.15	30703.15
612.31	30920.82
612.46	31063.59
612.62	30930.18
612.77	30824.86
612.92	31159.55
613.08	31005.08
613.23	31115.08
613.39	30752.30
613.54	30590.80
613.69	31096.36
613.85	30536.97
614.00	30850.60
614.15	31194.66
614.31	30618.89
614.46	30679.74
614.62	31082.31
614.77	31075.29
614.92	30672.72
615.08	30604.84
615.23	30459.73
615.38	30494.84
615.54	30125.04
615.69	30499.52
615.84	30199.93
616.00	30864.64
616.15	30670.38
616.30	30513.56
616.46	30597.82
616.61	30553.35
616.76	30881.03
616.92	30373.13
617.07	30178.87
617.22	30457.39
617.37	29977.58
617.53	30408.24
617.68	30363.77
617.83	30483.14
617.99	30522.93
618.14	30328.66
618.29	30284.19
618.45	30199.93
618.60	30408.24
618.75	30174.19
618.90	30316.96
619.06	30740.60
619.21	29846.51
619.36	30536.97
619.51	30572.08
619.67	29965.88
619.82	30223.34
619.97	30560.37
620.12	29937.79
620.28	29895.66
620.43	30272.49
620.58	30366.11
620.73	30532.29
620.89	30103.97
621.04	30323.98
621.19	30312.28
621.34	30614.21
621.49	29539.90
621.65	30319.30
621.80	30082.91
621.95	29626.50
622.10	30078.22
622.25	29731.83
622.41	29928.43
622.56	30036.09
622.71	30197.59
622.86	29809.06
623.01	30181.21
623.16	30078.22
623.32	29677.99
623.47	30064.18
623.62	29848.85
623.77	29738.85
623.92	29802.04
624.07	29467.34
624.23	29825.45
624.38	29738.85
624.53	29474.37
624.68	29930.77
624.83	30010.35
624.98	29769.27
625.13	29507.13
625.29	30253.76
625.44	29490.75
625.59	29406.49
625.74	29455.64
625.89	29537.56
626.04	29514.16
626.19	29502.45
626.34	29350.32
626.49	29280.10
626.65	29661.61
626.80	29741.19
626.95	29355.00
627.10	29024.98
627.25	29092.86
627.40	28954.77
627.55	29134.99
627.70	29247.33
627.85	29191.16
628.00	29530.54
628.15	29256.70
628.30	29298.83
628.45	29123.29
628.60	29137.33
628.76	29254.36
628.91	29120.95
629.06	28980.51
629.21	29280.10
629.36	29130.31
629.51	29371.38
629.66	28781.57
629.81	28989.88
629.96	29333.93
630.11	29090.52
630.26	29076.48
630.41	28910.30
630.56	28849.44
630.71	29048.39
630.86	28964.13
631.01	29153.71
631.16	29053.07
631.31	28994.56
631.46	28561.56
631.61	28624.75
631.76	28610.71
631.91	28898.59
632.06	28699.65
632.21	28652.84
632.36	29071.79
632.51	28577.94
632.66	28847.10
632.81	28315.80
632.96	28797.95
633.10	28589.64
633.25	28444.53
633.40	28364.95
633.55	28725.39
633.70	28669.22
633.85	28540.49
634.00	28659.86
634.15	28374.31
634.30	28610.71
634.45	28662.20
634.60	28559.22
634.75	28236.22
634.90	28107.49
635.05	28847.10
635.19	28416.44
635.34	28842.42
635.49	28669.22
635.64	28360.27
635.79	28313.46
635.94	28617.73
636.09	29130.31
636.24	28219.84
636.39	28243.24
636.53	28278.35
636.68	27969.40
636.83	27833.65
636.98	28210.48
637.13	28067.70
637.28	28084.09
637.43	28304.10
637.57	28304.10
637.72	28194.09
637.87	28191.75
638.02	28299.42
638.17	27969.40
638.32	27929.61
638.46	28081.75
638.61	27864.08
638.76	27885.14
638.91	27803.22
639.06	27639.39
639.20	28095.79
639.35	28107.49
639.50	27903.87
639.65	28168.35
639.80	28278.35
639.94	27859.40
640.09	27955.36
640.24	27995.15
640.39	27604.28
640.54	27700.24
640.68	27683.86
640.83	27735.35
640.98	27421.72
641.13	27573.85
641.27	27744.71
641.42	27498.95
641.57	28034.94
641.72	27992.81
641.86	27555.13
642.01	27552.79
642.16	27653.43
642.31	27637.05
642.45	27828.97
642.60	27641.73
642.75	27524.70
642.90	27262.56
643.04	27154.90
643.19	27271.92
643.34	27421.72
643.48	27407.67
643.63	27330.44
643.78	27264.90
643.93	27477.89
644.07	27459.16
644.22	27463.85
644.37	27281.28
644.51	27461.51
644.66	27236.81
644.81	27110.43
644.95	27105.74
645.10	27005.10
645.25	26848.29
645.39	27236.81
645.54	27470.87
645.69	26967.65
645.83	27498.95
645.98	27316.39
646.13	27407.67
646.27	27498.95
646.42	27063.61
646.57	27005.10
646.71	27302.35
646.86	27402.99
647.00	27264.90
647.15	26803.82
647.30	27328.10
647.44	26558.06
647.59	26991.06
647.74	27051.91
647.88	26757.00
648.03	27005.10
648.17	27002.76
648.32	27019.14
648.47	27470.87
648.61	27075.32
648.76	27063.61
648.90	27271.92
649.05	27084.68
649.20	26740.62
649.34	26815.52
649.49	26642.32
649.63	26672.74
649.78	26532.31
649.92	26487.84
650.07	26583.80
650.21	26569.76
650.36	27023.83
650.51	26757.00
650.65	26761.69
650.80	26604.87
650.94	26733.60
651.09	26651.68
651.23	26178.89
651.38	26644.66
651.52	26295.92
651.67	26560.40
651.81	26693.81
651.96	26295.92
652.10	26462.10
652.25	26544.02
652.39	26850.63
652.54	27058.93
652.68	26579.12
652.83	26691.47
652.97	26962.97
653.12	26602.53
653.26	25778.66
653.41	26434.01
653.55	26314.64
653.70	26162.51
653.84	26567.42
653.99	26518.27
654.13	26455.08
654.27	26225.70
654.42	26450.39
654.56	26359.11
654.71	26600.19
654.85	26136.76
655.00	26300.60
655.14	26057.18
655.29	26288.90
655.43	26122.72
655.57	25940.16
655.72	25853.56
655.86	26129.74
656.01	26092.29
656.15	26103.99
656.30	26022.08
656.44	25949.52
656.58	25673.34
656.73	26199.96
656.87	25671.00
657.01	26089.95
657.16	25708.44
657.30	26059.52
657.45	26120.38
657.59	25986.97
657.73	25865.26
657.88	25673.34
658.02	25898.03
658.16	25734.19
658.31	25734.19
658.45	25600.78
658.60	25455.67
658.74	25883.98
658.88	25511.84
659.03	25308.21
659.17	25394.81
659.31	25645.25
659.46	25329.28
659.60	25633.55
659.74	25523.54
659.89	25193.53
660.03	25282.47
660.17	25151.40
660.32	25270.76
660.46	25235.66
660.60	24816.70
660.74	25202.89
660.89	25177.14
661.03	25188.85
661.17	25352.68
661.32	25071.82
661.46	25118.63
661.60	25200.55
661.74	25303.53
661.89	25074.16
662.03	25039.05
662.17	24863.51
662.31	25062.46
662.46	24865.85
662.60	24863.51
662.74	24889.26
662.88	24975.86
663.03	24582.65
663.17	24510.09
663.31	24355.61
663.45	24407.11
663.60	24517.11
663.74	24671.59
663.88	24687.97
664.02	24652.86
664.17	24694.99
664.31	24575.62
664.45	24276.04
664.59	24393.06
664.73	24451.58
664.88	24261.99
665.02	24002.19
665.16	24294.76
665.30	24304.12
665.44	24046.66
665.59	24175.39
665.73	24217.52
665.87	23915.59
666.01	24463.28
666.15	24395.40
666.29	23976.45
666.44	23955.38
666.58	23786.86
666.72	24142.63
666.86	24435.19
667.00	24109.86
667.14	23779.84
667.28	23587.92
667.43	23601.96
667.57	23946.02
667.71	23601.96
667.85	23709.63
667.99	23777.50
668.13	23421.74
668.27	23318.76
668.41	23407.70
668.56	23285.99
668.70	23351.52
668.84	23374.93
668.98	23491.96
669.12	23583.24
669.26	23576.22
669.40	23344.50
669.54	23232.16
669.68	23534.09
669.82	22881.08
669.96	23236.84
670.10	22778.09
670.25	22794.48
670.39	22616.60
670.53	22981.72
670.67	22661.07
670.81	23087.04
670.95	23206.41
671.09	22895.12
671.23	22665.75
671.37	23112.79
671.51	22979.38
671.65	23019.17
671.79	22960.66
671.93	22656.39
672.07	22530.00
672.21	22457.44
672.35	22476.16
672.49	22621.28
672.63	22462.12
672.77	22473.82
672.91	22312.33
673.05	22242.11
673.19	22258.49
673.33	22478.50
673.47	22307.65
673.61	22253.81
673.75	22134.45
673.89	22270.20
674.03	22408.29
674.17	21884.01
674.31	21909.75
674.45	21951.88
674.59	22047.85
674.73	21916.78
674.87	21788.05
675.01	21774.00
675.15	21715.49
675.29	21678.04
675.43	21399.52
675.56	21469.73
675.70	21724.85
675.84	21516.54
675.98	21118.65
676.12	21500.16
676.26	21537.61
676.40	21654.64
676.54	21310.58
676.68	21418.24
676.82	20798.00
676.96	21055.46
677.10	21067.16
677.23	20915.03
677.37	21142.06
677.51	21067.16
677.65	20521.82
677.79	20554.58
677.93	20306.49
678.07	20566.29
678.21	20416.49
678.34	20688.00
678.48	20596.71
678.62	20479.69
678.76	20219.89
678.90	20060.73
679.04	20156.69
679.18	20255.00
679.31	19805.61
679.45	20011.58
679.59	19690.93
679.73	19747.10
679.87	19609.01
680.00	19445.17
680.14	19545.81
680.28	19637.09
680.42	19648.80
680.56	19915.62
680.70	19424.11
680.83	19307.08
680.97	19770.51
681.11	19508.37
681.25	19276.65
681.39	19414.74
681.52	19236.86
681.66	19260.27
681.80	18782.80
681.94	19229.84
682.07	19030.90
682.21	19164.31
682.35	18738.33
682.49	18448.10
682.62	18593.22
682.76	18668.11
682.90	18649.39
683.04	18422.36
683.17	18544.06
683.31	18642.37
683.45	18867.06
683.59	18511.30
683.72	18324.05
683.86	18459.81
684.00	18326.39
684.13	18216.39
684.27	17874.67
684.41	17881.69
684.55	17907.44
684.68	17832.54
684.82	17699.13
684.96	17366.78
685.09	17600.83
685.23	17563.38
685.37	17867.65
685.50	17441.67
685.64	17785.73
685.78	17298.90
685.91	17509.55
686.05	17659.34
686.19	17352.73
686.32	17359.75
686.46	17394.86
686.60	17106.98
686.73	16982.93
686.87	17111.66
687.01	17006.33
687.14	16634.19
687.28	16830.79
687.42	16786.32
687.55	16566.31
687.69	16631.85
687.82	16690.36
687.96	16592.06
688.10	16755.90
688.23	16704.40
688.37	16479.71
688.50	16484.39
688.64	16456.31
688.78	16325.24
688.91	16156.72
689.05	16346.30
689.18	16137.99
689.32	15737.76
689.46	15833.72
689.59	15920.32
689.73	15681.59
689.86	15534.14
690.00	15723.72
690.13	15831.38
690.27	15826.70
690.41	15740.10
690.54	15428.81
690.68	15693.29
690.81	15419.45
690.95	15276.68
691.08	15433.49
691.22	15372.64
691.35	15108.16
691.49	15253.27
691.62	15279.02
691.76	15290.72
691.89	15087.09
692.03	14787.50
692.16	14897.51
692.30	14707.93
692.43	14820.27
692.57	14647.07
692.70	14796.87
692.84	14537.07
692.97	14616.65
693.11	14640.05
693.24	14630.69
693.38	14586.22
693.51	14586.22
693.65	14417.70
693.78	14239.82
693.92	14239.82
694.05	14073.64
694.19	14331.10
694.32	14157.90
694.45	14066.62
694.59	14134.50
694.72	13617.24
694.86	13682.77
694.99	13659.37
695.13	13598.51
695.26	13497.87
695.39	13605.53
695.53	13682.77
695.66	13371.48
695.80	13432.33
695.93	13666.39
696.07	13315.31
696.20	13413.61
696.33	13327.01
696.47	13207.64
696.60	13355.10
696.73	13373.82
696.87	13191.26
697.00	12964.23
697.14	12800.39
697.27	12664.64
697.40	12737.20
697.54	12798.05
697.67	12603.78
697.80	12453.99
697.94	12519.53
698.07	12339.30
698.21	12264.41
698.34	12411.86
698.47	12535.91
698.61	12189.51
698.74	12329.94
698.87	12381.43
699.01	12325.26
699.14	11995.25
699.27	12283.13
699.40	12353.35
699.54	12189.51
699.67	12180.15
699.80	11859.49
699.94	11913.33
700.07	11815.02
700.20	11756.51
700.34	11564.59
700.47	11482.67
700.60	11681.61
700.73	11744.81
700.87	11616.08
701.00	11679.27
701.13	11449.90
701.26	11552.88
701.40	11707.36
701.53	11286.06
701.66	11485.01
701.79	11241.59
701.93	11246.27
702.06	11272.02
702.19	11112.86
702.32	10958.39
702.46	10932.64
702.59	10918.60
702.72	10736.04
702.85	10696.25
702.99	10623.69
703.12	10677.52
703.25	10661.14
703.38	10555.82
703.51	10511.35
703.65	10640.08
703.78	10640.08
703.91	10518.37
704.04	10509.01
704.17	10480.92
704.31	10506.66
704.44	10359.21
704.57	10305.38
704.70	10050.26
704.83	10017.49
704.96	9837.27
705.10	10057.28
705.23	9795.14
>>>>>End Processed Spectral Data<<<<<
