SpectraSuite Data File
++++++++++++++++++++++++++++++++++++
Date: Fri Oct 18 13:58:17 GMT-05:00 2013
User: bianchi
Dark Spectrum Present: No
Reference Spectrum Present: No
Number of Sampled Component Spectra: 1
Spectrometers: USB2+H05261
Integration Time (usec): 50000 (USB2+H05261)
Spectra Averaged: 1 (USB2+H05261)
Boxcar Smoothing: 0 (USB2+H05261)
Correct for Electrical Dark: No (USB2+H05261)
Strobe/Lamp Enabled: No (USB2+H05261)
Correct for Detector Non-linearity: No (USB2+H05261)
Correct for Stray Light: No (USB2+H05261)
Number of Pixels in Processed Spectrum: 2048
>>>>>Begin Processed Spectral Data<<<<<
365.73	0.00
365.92	0.00
366.12	0.00
366.32	0.00
366.52	0.00
366.72	0.00
366.91	0.00
367.11	0.00
367.31	0.00
367.51	0.00
367.70	0.00
367.90	0.00
368.10	0.00
368.30	0.00
368.49	0.00
368.69	0.00
368.89	0.00
369.09	0.00
369.28	0.00
369.48	0.00
369.68	0.00
369.87	0.00
370.07	0.00
370.27	0.00
370.47	0.00
370.66	49.15
370.86	77.24
371.06	86.60
371.25	133.41
371.45	72.56
371.65	95.96
371.84	117.03
372.04	173.20
372.24	187.24
372.44	156.82
372.63	201.29
372.83	205.97
373.03	264.48
373.22	182.56
373.42	170.86
373.62	191.92
373.81	259.80
374.01	210.65
374.21	191.92
374.40	285.55
374.60	236.39
374.79	262.14
374.99	205.97
375.19	191.92
375.38	184.90
375.58	234.05
375.78	278.52
375.97	276.18
376.17	327.68
376.37	259.80
376.56	245.76
376.76	318.31
376.95	245.76
377.15	290.23
377.35	290.23
377.54	292.57
377.74	264.48
377.93	243.42
378.13	198.95
378.33	308.95
378.52	266.82
378.72	294.91
378.91	315.97
379.11	220.01
379.31	379.17
379.50	255.12
379.70	330.02
379.89	290.23
380.09	280.86
380.28	273.84
380.48	269.16
380.68	285.55
380.87	231.71
381.07	346.40
381.26	348.74
381.46	315.97
381.65	351.08
381.85	299.59
382.04	292.57
382.24	271.50
382.43	301.93
382.63	313.63
382.83	369.80
383.02	320.65
383.22	358.10
383.41	243.42
383.61	292.57
383.80	386.19
384.00	322.99
384.19	418.96
384.39	353.42
384.58	339.38
384.78	334.70
384.97	337.04
385.17	390.87
385.36	444.70
385.56	433.00
385.75	435.34
385.95	383.85
386.14	393.21
386.34	435.34
386.53	421.30
386.72	374.49
386.92	402.57
387.11	367.46
387.31	418.96
387.50	461.09
387.70	423.64
387.89	454.06
388.09	402.57
388.28	423.64
388.48	444.70
388.67	468.11
388.86	425.98
389.06	411.93
389.25	404.91
389.45	526.62
389.64	395.55
389.84	416.62
390.03	479.81
390.22	425.98
390.42	451.72
390.61	449.38
390.81	463.43
391.00	477.47
391.19	557.05
391.39	521.94
391.58	566.41
391.78	486.83
391.97	566.41
392.16	568.75
392.36	526.62
392.55	540.66
392.75	550.03
392.94	599.18
393.13	568.75
393.33	505.56
393.52	486.83
393.71	627.26
393.91	594.50
394.10	557.05
394.29	559.39
394.49	578.11
394.68	557.05
394.88	585.13
395.07	631.94
395.26	559.39
395.46	608.54
395.65	587.47
395.84	615.56
396.04	660.03
396.23	568.75
396.42	620.24
396.62	671.73
396.81	653.01
397.00	711.52
397.19	627.26
397.39	603.86
397.58	671.73
397.77	692.80
397.97	676.41
398.16	699.82
398.35	685.78
398.55	755.99
398.74	662.37
398.93	795.78
399.12	655.35
399.32	631.94
399.51	730.25
399.70	760.67
399.90	667.05
400.09	692.80
400.28	732.59
400.47	737.27
400.67	800.46
400.86	753.65
401.05	741.95
401.24	844.93
401.44	826.21
401.63	802.80
401.82	791.10
402.01	901.11
402.21	772.38
402.40	858.98
402.59	760.67
402.78	851.96
402.97	851.96
403.17	748.97
403.36	910.47
403.55	833.23
403.74	835.57
403.93	807.48
404.13	917.49
404.32	910.47
404.51	877.70
404.70	896.43
404.89	816.85
405.09	844.93
405.28	929.19
405.47	894.08
405.66	992.39
405.85	891.74
406.05	863.66
406.24	999.41
406.43	1062.60
406.62	992.39
406.81	985.37
407.00	940.90
407.20	1048.56
407.39	994.73
407.58	973.66
407.77	1008.77
407.96	985.37
408.15	1071.97
408.34	985.37
408.54	1046.22
408.73	1086.01
408.92	1090.69
409.11	1050.90
409.30	1146.86
409.49	1186.65
409.68	1093.03
409.87	1004.09
410.07	1205.38
410.26	1107.07
410.45	1076.65
410.64	1123.46
410.83	1186.65
411.02	1261.55
411.21	1238.14
411.40	1231.12
411.59	1249.85
411.78	1287.29
411.98	1277.93
412.17	1268.57
412.36	1324.74
412.55	1224.10
412.74	1366.87
412.93	1299.00
413.12	1341.13
413.31	1507.30
413.50	1446.45
413.69	1404.32
413.88	1320.06
414.07	1401.98
414.26	1404.32
414.45	1434.75
414.64	1376.24
414.83	1497.94
415.02	1561.14
415.22	1500.28
415.41	1549.43
415.60	1516.67
415.79	1537.73
415.98	1591.56
416.17	1479.22
416.36	1554.12
416.55	1706.25
416.74	1533.05
416.93	1631.35
417.12	1694.55
417.31	1607.95
417.50	1755.40
417.69	1664.12
417.88	1708.59
418.07	1699.23
418.26	1804.55
418.45	1739.02
418.64	1858.39
418.83	1856.04
419.02	1825.62
419.21	1860.73
419.39	1842.00
419.58	1755.40
419.77	1771.79
419.96	1830.30
420.15	1839.66
420.34	1928.60
420.53	1795.19
420.72	1825.62
420.91	1865.41
421.10	1834.98
421.29	1877.11
421.48	1921.58
421.67	1980.09
421.86	1867.75
422.05	1895.83
422.24	1994.14
422.43	1959.03
422.61	1963.71
422.80	1991.80
422.99	1926.26
423.18	2031.58
423.37	1989.46
423.56	1937.96
423.75	1930.94
423.94	1975.41
424.13	1877.11
424.32	1905.20
424.50	1994.14
424.69	1996.48
424.88	2022.22
425.07	2071.37
425.26	1975.41
425.45	2038.61
425.64	2017.54
425.83	1982.43
426.01	1963.71
426.20	2038.61
426.39	2108.82
426.58	1984.77
426.77	2066.69
426.96	2069.03
427.15	2043.29
427.33	2197.76
427.52	2040.95
427.71	2181.38
427.90	2099.46
428.09	2181.38
428.28	2207.13
428.46	2207.13
428.65	2251.60
428.84	2275.00
429.03	2260.96
429.22	2183.72
429.40	2136.91
429.59	2289.04
429.78	2153.29
429.97	2026.90
430.16	2228.19
430.34	2326.49
430.53	2338.20
430.72	2319.47
430.91	2258.62
431.10	2359.26
431.28	2356.92
431.47	2249.25
431.66	2352.24
431.85	2352.24
432.03	2417.77
432.22	2408.41
432.41	2289.04
432.60	2509.05
432.79	2403.73
432.97	2483.31
433.16	2469.27
433.35	2385.01
433.54	2502.03
433.72	2569.91
433.91	2457.56
434.10	2551.18
434.28	2399.05
434.47	2553.52
434.66	2597.99
434.85	2684.59
435.03	2640.12
435.22	2628.42
435.41	2605.02
435.59	2665.87
435.78	2775.88
435.97	2518.42
436.16	2775.88
436.34	2654.17
436.53	2740.77
436.72	2700.98
436.90	2696.30
437.09	2700.98
437.28	2679.91
437.46	2712.68
437.65	2839.07
437.84	2801.62
438.02	2738.43
438.21	2743.11
438.40	2693.96
438.58	2813.32
438.77	2895.24
438.96	2717.36
439.14	2909.29
439.33	2925.67
439.52	2885.88
439.70	2935.03
439.89	2904.60
440.08	3019.29
440.26	2916.31
440.45	3052.06
440.63	3014.61
440.82	2993.55
441.01	3026.31
441.19	3136.32
441.38	3150.36
441.57	3239.30
441.75	3185.47
441.94	3218.24
442.12	3365.69
442.31	3361.01
442.50	3288.45
442.68	3164.40
442.87	3335.26
443.05	3391.44
443.24	3311.86
443.43	3412.50
443.61	3241.64
443.80	3414.84
443.98	3276.75
444.17	3232.28
444.35	3372.71
444.54	3478.04
444.73	3356.33
444.91	3337.60
445.10	3456.97
445.28	3311.86
445.47	3337.60
445.65	3295.47
445.84	3513.14
446.02	3496.76
446.21	3428.88
446.39	3382.07
446.58	3435.91
446.77	3461.65
446.95	3391.44
447.14	3442.93
447.32	3433.57
447.51	3438.25
447.69	3398.46
447.88	3489.74
448.06	3379.73
448.25	3358.67
448.43	3602.08
448.62	3487.40
448.80	3517.83
448.99	3590.38
449.17	3538.89
449.36	3555.27
449.54	3602.08
449.73	3641.87
449.91	3620.81
450.10	3777.62
450.28	3606.77
450.46	3667.62
450.65	3674.64
450.83	3761.24
451.02	3749.54
451.20	3756.56
451.39	3819.75
451.57	3819.75
451.76	3716.77
451.94	3609.11
452.13	3854.86
452.31	3829.12
452.49	3852.52
452.68	3838.48
452.86	3934.44
453.05	3932.10
453.23	3915.72
453.42	3817.41
453.60	3812.73
453.78	3803.37
453.97	3871.25
454.15	3932.10
454.34	3983.59
454.52	4002.32
454.70	3882.95
454.89	3871.25
455.07	3925.08
455.26	4086.58
455.44	4138.07
455.62	3894.65
455.81	3990.61
455.99	4098.28
456.17	4067.85
456.36	4173.18
456.54	4102.96
456.73	4100.62
456.91	4313.61
457.09	4315.95
457.28	4276.16
457.46	4243.39
457.64	4332.33
457.83	4353.40
458.01	4278.50
458.19	4360.42
458.38	4329.99
458.56	4479.79
458.74	4306.59
458.93	4327.65
459.11	4475.10
459.29	4315.95
459.48	4421.27
459.66	4390.84
459.84	4393.19
460.03	4423.61
460.21	4526.60
460.39	4475.10
460.57	4360.42
460.76	4561.70
460.94	4465.74
461.12	4674.05
461.31	4482.13
461.49	4542.98
461.67	4519.57
461.85	4727.88
462.04	4620.22
462.22	5064.92
462.40	4594.47
462.59	4650.64
462.77	4753.63
462.95	4657.67
463.13	4760.65
463.32	4746.61
463.50	4788.74
463.68	4854.27
463.86	4915.12
464.05	4751.29
464.23	4755.97
464.41	4739.58
464.59	4718.52
464.78	4903.42
464.96	4809.80
465.14	4685.75
465.32	4809.80
465.50	4849.59
465.69	5118.75
465.87	4947.89
466.05	5020.45
466.23	5027.47
466.41	5043.85
466.60	5233.44
466.78	4973.64
466.96	5078.96
467.14	5041.51
467.32	5060.24
467.51	5280.25
467.69	4999.38
467.87	5200.67
468.05	5200.67
468.23	5198.33
468.41	5102.37
468.60	5074.28
468.78	5322.38
468.96	5214.71
469.14	5418.34
469.32	5287.27
469.50	5130.45
469.69	5121.09
469.87	5425.36
470.05	5320.04
470.23	5420.68
470.41	5369.19
470.59	5411.32
470.77	5385.57
470.95	5343.44
471.14	5397.28
471.32	5476.85
471.50	5481.53
471.68	5589.20
471.86	5430.04
472.04	5542.39
472.22	5689.84
472.40	5500.26
472.58	5724.95
472.77	5706.23
472.95	5715.59
473.13	6071.35
473.31	5724.95
473.49	5900.49
473.67	5865.38
473.85	5966.03
474.03	6047.94
474.21	5923.90
474.39	5987.09
474.57	6120.50
474.75	6122.84
474.93	6040.92
475.12	6129.86
475.30	6010.50
475.48	6204.76
475.66	6190.72
475.84	6310.08
476.02	6356.90
476.20	6436.47
476.38	6427.11
476.56	6527.75
476.74	6544.14
476.92	6389.66
477.10	6738.40
477.28	6619.04
477.46	6569.88
477.64	6700.95
477.82	6738.40
478.00	6885.86
478.18	6839.05
478.36	6902.24
478.54	6972.46
478.72	7063.74
478.90	7206.51
479.08	7220.55
479.26	7265.02
479.44	7358.64
479.62	7152.68
479.80	7307.15
479.98	7218.21
480.16	7332.90
480.34	7356.30
480.52	7599.72
480.70	7590.36
480.88	7463.97
481.06	7681.64
481.24	7606.74
481.41	7712.07
481.59	7866.54
481.77	7957.82
481.95	7925.05
482.13	8056.12
482.31	8051.44
482.49	8224.64
482.67	8285.50
482.85	8287.84
483.03	8336.99
483.21	8557.00
483.39	8283.16
483.57	8542.96
483.74	8479.76
483.92	8601.47
484.10	8557.00
484.28	8830.84
484.46	8938.51
484.64	9109.36
484.82	9008.72
485.00	8999.36
485.18	9210.01
485.35	9401.93
485.53	9240.44
485.71	9277.88
485.89	9542.36
486.07	9406.61
486.25	9488.53
486.43	9509.60
486.61	9645.35
486.78	9781.10
486.96	9848.97
487.14	9947.28
487.32	9949.62
487.50	9734.29
487.68	10279.63
487.85	10300.70
488.03	10403.68
488.21	10438.79
488.39	10459.85
488.57	10342.83
488.75	10726.68
488.92	10792.21
489.10	10846.04
489.28	10923.28
489.46	11105.84
489.64	11019.24
489.81	11304.79
489.99	11037.97
490.17	11213.51
490.35	11566.93
490.53	11524.80
490.70	11658.21
490.88	11693.32
491.06	11695.66
491.24	11466.28
491.41	11705.02
491.59	11964.82
491.77	11878.22
491.95	12051.42
492.13	12035.03
492.30	12161.42
492.48	12126.32
492.66	12262.07
492.84	12341.64
493.01	12325.26
493.19	12620.17
493.37	12395.48
493.54	12573.36
493.72	12823.80
493.90	12702.09
494.08	12889.33
494.25	12786.35
494.43	12865.92
494.61	13273.18
494.79	13268.50
494.96	13233.39
495.14	13050.83
495.32	13174.88
495.49	13336.37
495.67	13469.78
495.85	13762.35
496.02	13558.72
496.20	14033.85
496.38	13752.99
496.55	13872.36
496.73	14061.94
496.91	14005.77
497.09	14228.12
497.26	14195.35
497.44	14284.29
497.62	14335.78
497.79	14427.06
497.97	14420.04
498.14	14787.50
498.32	14958.36
498.50	14733.67
498.67	14761.76
498.85	14909.21
499.03	14846.02
499.20	15213.48
499.38	15358.60
499.56	14813.25
499.73	15332.85
499.91	14970.07
500.08	15150.29
500.26	15138.58
500.44	15309.44
500.61	15328.17
500.79	15470.94
500.97	15688.61
501.14	15960.11
501.32	15908.62
501.49	15903.94
501.67	15894.58
501.84	16056.08
502.02	15967.13
502.20	15873.51
502.37	16011.60
502.55	15864.15
502.72	15892.24
502.90	16437.58
503.07	16107.57
503.25	16477.37
503.43	16077.14
503.60	16453.97
503.78	16535.88
503.95	16294.81
504.13	16505.46
504.30	16760.58
504.48	16690.36
504.65	16788.66
504.83	16739.51
505.01	16802.71
505.18	16915.05
505.36	17104.64
505.53	16987.61
505.71	16854.20
505.88	16872.92
506.06	17027.40
506.23	17137.40
506.41	17034.42
506.58	17362.09
506.76	17259.11
506.93	17275.49
507.11	17142.08
507.28	17458.06
507.46	17413.59
507.63	17624.23
507.81	17556.36
507.98	17549.34
508.16	17745.94
508.33	17493.16
508.50	17675.73
508.68	17923.82
508.85	18153.20
509.03	17839.56
509.20	18181.28
509.38	18244.48
509.55	18253.84
509.73	17905.10
509.90	18277.24
510.08	18394.27
510.25	18288.95
510.42	18319.37
510.60	18808.54
510.77	18176.60
510.95	18429.38
511.12	18642.37
511.30	18611.94
511.47	18845.99
511.64	18778.12
511.82	18785.14
511.99	18726.63
512.17	18897.49
512.34	18806.20
512.51	18979.40
512.69	18953.66
512.86	18941.96
513.04	19124.52
513.21	19145.58
513.38	19332.82
513.56	19557.52
513.73	19288.35
513.90	19222.82
514.08	19403.04
514.25	19360.91
514.43	19456.87
514.60	19749.44
514.77	19903.92
514.95	19861.79
515.12	19587.94
515.29	19592.62
515.47	20077.12
515.64	19924.98
515.81	19983.49
515.99	20032.65
516.16	20184.78
516.33	19957.75
516.51	20112.22
516.68	19812.63
516.85	20365.00
517.03	20376.70
517.20	20538.20
517.37	20570.97
517.54	20568.63
517.72	20601.40
517.89	20271.38
518.06	20540.54
518.24	20592.03
518.41	20498.41
518.58	20638.84
518.75	20915.03
518.93	20821.41
519.10	20781.62
519.27	21064.82
519.45	20636.50
519.62	20645.87
519.79	20835.45
519.96	21020.35
520.14	20800.34
520.31	21010.99
520.48	21348.03
520.65	20863.54
520.83	21343.35
521.00	21542.29
521.17	21163.12
521.34	21191.21
521.52	21462.71
521.69	21525.91
521.86	21729.53
522.03	21748.26
522.20	21678.04
522.38	21624.21
522.55	21909.75
522.72	21420.58
522.89	21867.63
523.07	22307.65
523.24	21493.14
523.41	22394.25
523.58	21802.09
523.75	22171.89
523.92	22136.79
524.10	21926.14
524.27	22015.08
524.44	22625.96
524.61	22312.33
524.78	22574.47
524.96	22242.11
525.13	22553.40
525.30	22618.94
525.47	22127.42
525.64	22434.03
525.81	22546.38
525.98	22883.42
526.16	22712.56
526.33	22932.57
526.50	22906.82
526.67	22487.87
526.84	22651.70
527.01	22647.02
527.18	22670.43
527.36	23278.97
527.53	22750.01
527.70	23316.42
527.87	23332.80
528.04	23056.62
528.21	23136.20
528.38	22904.48
528.55	23241.52
528.72	23131.51
528.89	23150.24
529.07	23433.44
529.24	23285.99
529.41	23428.76
529.58	23168.96
529.75	23798.57
529.92	23433.44
530.09	23332.80
530.26	23592.60
530.43	23534.09
530.60	23454.51
530.77	23477.91
530.94	23721.33
531.11	23756.44
531.28	23658.14
531.46	23393.65
531.63	23723.67
531.80	24070.07
531.97	23857.08
532.14	23943.68
532.31	24049.00
532.48	23754.10
532.65	23789.20
532.82	24114.54
532.99	24051.34
533.16	24027.94
533.33	24159.01
533.50	24388.38
533.67	24123.90
533.84	24067.73
534.01	24086.45
534.18	23744.73
534.35	24470.30
534.52	23974.11
534.69	24397.74
534.86	24517.11
535.03	24723.08
535.20	24425.83
535.37	24379.02
535.54	24559.24
535.71	24505.41
535.88	24624.78
536.05	24631.80
536.22	24732.44
536.38	25064.80
536.55	24842.45
536.72	24877.55
536.89	24833.08
537.06	24559.24
537.23	24685.63
537.40	24950.11
537.57	24575.62
537.74	25266.08
537.91	25109.27
538.08	25177.14
538.25	24828.40
538.42	25034.37
538.59	24989.90
538.75	25001.60
538.92	25130.33
539.09	25235.66
539.26	25373.75
539.43	25357.36
539.60	25589.08
539.77	25563.33
539.94	25811.43
540.11	25490.77
540.28	25242.68
540.44	25422.90
540.61	25776.32
540.78	25532.90
540.95	25656.95
541.12	25359.70
541.29	25532.90
541.46	25781.00
541.62	25692.06
541.79	25905.05
541.96	25525.88
542.13	25781.00
542.30	25654.61
542.47	25968.24
542.63	26611.89
542.80	25944.84
542.97	25881.64
543.14	26551.04
543.31	26359.11
543.48	26324.01
543.64	26314.64
543.81	26228.04
543.98	26312.30
544.15	26522.95
544.32	26455.08
544.48	26649.34
544.65	26216.34
544.82	26270.17
544.99	26242.09
545.16	26476.14
545.32	26010.37
545.49	26548.70
545.66	26761.69
545.83	26628.27
546.00	26436.35
546.16	26651.68
546.33	26338.05
546.50	26368.48
546.67	26745.30
546.83	26298.26
547.00	26398.90
547.17	26731.26
547.34	26600.19
547.50	27112.77
547.67	26888.07
547.84	26876.37
548.00	27080.00
548.17	27122.13
548.34	27000.42
548.51	26852.97
548.67	27138.51
548.84	27037.87
549.01	27007.44
549.18	27197.02
549.34	27154.90
549.51	27023.83
549.68	27175.96
549.84	27229.79
550.01	27131.49
550.18	26728.92
550.34	27164.26
550.51	27449.80
550.68	27524.70
550.84	27063.61
551.01	27646.41
551.18	27194.68
551.34	27175.96
551.51	27276.60
551.68	27702.58
551.84	27445.12
552.01	27599.60
552.18	27690.88
552.34	27721.30
552.51	27529.38
552.68	27697.90
552.84	27424.06
553.01	27887.48
553.18	27002.76
553.34	27782.16
553.51	27718.96
553.67	27899.19
553.84	27800.88
554.01	28044.30
554.17	27901.53
554.34	27702.58
554.51	27850.03
554.67	27749.39
554.84	27669.81
555.00	27571.51
555.17	28166.01
555.33	27660.45
555.50	27679.18
555.67	28252.61
555.83	28151.96
556.00	27854.72
556.16	27995.15
556.33	27828.97
556.50	28259.63
556.66	28327.50
556.83	27913.23
556.99	28070.04
557.16	28414.10
557.32	28641.14
557.49	28290.06
557.65	28123.88
557.82	28383.68
557.98	28194.09
558.15	28409.42
558.32	28158.99
558.48	28755.82
558.65	28437.51
558.81	28313.46
558.98	28521.77
559.14	28535.81
559.31	28081.75
559.47	28301.76
559.64	28137.92
559.80	28526.45
559.97	28575.60
560.13	28264.31
560.30	28350.91
560.46	28659.86
560.63	28294.74
560.79	28524.11
560.96	28467.94
561.12	28339.21
561.29	28610.71
561.45	28671.56
561.61	28652.84
561.78	28655.18
561.94	28699.65
562.11	29081.16
562.27	28629.43
562.44	28360.27
562.60	28643.48
562.77	28629.43
562.93	28542.83
563.10	29298.83
563.26	28673.90
563.42	29041.37
563.59	28608.37
563.75	28961.79
563.92	28922.00
564.08	28849.44
564.24	28720.71
564.41	28914.98
564.57	28687.95
564.74	28730.08
564.90	29095.20
565.07	28814.34
565.23	28910.30
565.39	29317.55
565.56	28931.36
565.72	29090.52
565.88	29219.25
566.05	28830.72
566.21	28966.47
566.38	28856.46
566.54	29137.33
566.70	29537.56
566.87	29085.84
567.03	29198.18
567.19	29425.22
567.36	28891.57
567.52	29158.39
567.68	29057.75
567.85	29071.79
568.01	29708.42
568.17	29146.69
568.34	29188.82
568.50	29099.88
568.66	29193.50
568.83	29474.37
568.99	29202.86
569.15	28987.53
569.32	29149.03
569.48	29104.56
569.64	29460.32
569.81	29109.24
569.97	29284.78
570.13	29385.43
570.30	29062.43
570.46	29551.60
570.62	29280.10
570.78	29184.14
570.95	29106.90
571.11	29287.12
571.27	28914.98
571.43	29163.08
571.60	29399.47
571.76	29462.66
571.92	29544.58
572.09	29668.63
572.25	29212.23
572.41	29366.70
572.57	29521.18
572.74	29401.81
572.90	29422.87
573.06	29331.59
573.22	29521.18
573.38	29345.64
573.55	29628.84
573.71	29530.54
573.87	29399.47
574.03	29415.85
574.20	29675.65
574.36	29645.23
574.52	29397.13
574.68	29556.28
574.84	29703.74
575.01	29434.58
575.17	29570.33
575.33	29586.71
575.49	29228.61
575.65	29638.20
575.82	29507.13
575.98	29366.70
576.14	29500.11
576.30	29586.71
576.46	29308.19
576.62	29483.73
576.79	29661.61
576.95	29467.34
577.11	29759.91
577.27	29560.97
577.43	29659.27
577.59	29699.06
577.75	29584.37
577.92	29298.83
578.08	29553.94
578.24	29237.97
578.40	29343.30
578.56	29514.16
578.72	29612.46
578.88	29572.67
579.04	29764.59
579.21	29544.58
579.37	29312.87
579.53	29682.67
579.69	29479.05
579.85	29600.76
580.01	29996.31
580.17	29624.16
580.33	29343.30
580.49	29689.70
580.65	30134.40
580.82	29752.89
580.98	29951.84
581.14	29895.66
581.30	29778.64
581.46	29631.18
581.62	29799.70
581.78	29233.29
581.94	29785.66
582.10	29432.24
582.26	29752.89
582.42	29811.40
582.58	29757.57
582.74	29783.32
582.90	29181.80
583.06	29427.56
583.22	29352.66
583.38	29694.38
583.54	29965.88
583.70	29584.37
583.86	29869.92
584.02	29680.33
584.18	29336.27
584.34	29935.45
584.50	29923.75
584.66	29476.71
584.82	29635.86
584.98	29685.01
585.14	29408.83
585.30	29944.81
585.46	29895.66
585.62	29724.80
585.78	30106.31
585.94	30115.67
586.10	29825.45
586.26	30036.09
586.42	29977.58
586.58	29993.97
586.74	29731.83
586.90	29743.53
587.06	29502.45
587.22	29816.08
587.38	29759.91
587.54	29525.86
587.70	30188.23
587.86	29907.37
588.02	29713.10
588.18	29919.07
588.34	29701.40
588.49	29689.70
588.65	30223.34
588.81	29771.61
588.97	29771.61
589.13	30181.21
589.29	29879.28
589.45	29954.18
589.61	29975.24
589.77	30000.99
589.93	30125.04
590.08	29940.13
590.24	30405.90
590.40	30457.39
590.56	30436.33
590.72	30235.04
590.88	29977.58
591.04	30033.75
591.20	30118.01
591.35	30230.36
591.51	30548.67
591.67	30265.47
591.83	30480.80
591.99	30335.68
592.15	30169.51
592.31	30492.50
592.46	30047.80
592.62	29762.25
592.78	29909.71
592.94	29776.30
593.10	30017.37
593.26	30143.76
593.41	30265.47
593.57	29848.85
593.73	30300.58
593.89	30178.87
594.05	30235.04
594.20	30099.29
594.36	29886.30
594.52	29977.58
594.68	29972.90
594.84	30366.11
594.99	29970.56
595.15	30305.26
595.31	30359.09
595.47	30263.13
595.62	30380.15
595.78	29926.09
595.94	30302.92
596.10	30679.74
596.25	30162.48
596.41	29895.66
596.57	29888.64
596.73	30272.49
596.88	30115.67
597.04	30204.61
597.20	30307.60
597.36	30455.05
597.51	30700.81
597.67	30221.00
597.83	30101.63
597.99	30560.37
598.14	30719.53
598.30	30611.87
598.46	29930.77
598.61	30401.22
598.77	30309.94
598.93	30558.03
599.09	30265.47
599.24	30635.27
599.40	30522.93
599.56	30771.02
599.71	30672.72
599.87	30356.75
600.03	30103.97
600.18	30199.93
600.34	30249.08
600.50	30118.01
600.65	30211.64
600.81	30422.28
600.97	30562.72
601.12	30752.30
601.28	30508.88
601.44	30532.29
601.59	30473.78
601.75	29813.74
601.91	30562.72
602.06	30150.78
602.22	30052.48
602.37	30003.33
602.53	30717.19
602.69	30522.93
602.84	30405.90
603.00	30429.30
603.16	30171.85
603.31	30300.58
603.47	30387.18
603.62	30525.27
603.78	30155.46
603.94	30099.29
604.09	30455.05
604.25	30483.14
604.40	30218.66
604.56	30099.29
604.71	30382.49
604.87	30108.65
605.03	30698.47
605.18	30473.78
605.34	30370.79
605.49	30176.53
605.65	30518.25
605.80	29883.96
605.96	30281.85
606.12	30047.80
606.27	30251.42
606.43	30295.89
606.58	30586.12
606.74	30099.29
606.89	30375.47
607.05	30340.36
607.20	30403.56
607.36	30331.00
607.51	30487.82
607.67	29940.13
607.82	30125.04
607.98	30160.14
608.13	30382.49
608.29	30375.47
608.44	29881.62
608.60	30094.61
608.75	30338.02
608.91	30291.21
609.06	30270.15
609.22	30246.74
609.37	29996.31
609.53	30108.65
609.68	30015.03
609.84	30218.66
609.99	29844.17
610.15	30162.48
610.30	29989.28
610.46	30052.48
610.61	30354.41
610.76	29979.92
610.92	29993.97
611.07	30052.48
611.23	29790.34
611.38	30036.09
611.54	30036.09
611.69	29661.61
611.84	29701.40
612.00	29881.62
612.15	29656.93
612.31	29979.92
612.46	29584.37
612.62	29989.28
612.77	29975.24
612.92	30080.56
613.08	30036.09
613.23	30162.48
613.39	29848.85
613.54	29621.82
613.69	29813.74
613.85	29757.57
614.00	29523.52
614.15	29736.51
614.31	29876.94
614.46	30113.33
614.62	29816.08
614.77	29956.52
614.92	30057.16
615.08	29764.59
615.23	29881.62
615.38	29392.45
615.54	29523.52
615.69	29563.31
615.84	29652.25
616.00	29846.51
616.15	29553.94
616.30	29713.10
616.46	29858.21
616.61	29404.15
616.76	29933.11
616.92	29720.12
617.07	29640.54
617.22	29649.91
617.37	29429.90
617.53	29549.26
617.68	29326.91
617.83	29649.91
617.99	29514.16
618.14	29085.84
618.29	29514.16
618.45	29586.71
618.60	29448.62
618.75	29228.61
618.90	29425.22
619.06	29446.28
619.21	28936.04
619.36	29259.04
619.51	29355.00
619.67	28982.85
619.82	29071.79
619.97	29132.65
620.12	28996.90
620.28	29244.99
620.43	29303.51
620.58	29275.42
620.73	29132.65
620.89	29612.46
621.04	29448.62
621.19	29235.63
621.34	29067.11
621.49	29149.03
621.65	28793.27
621.80	29200.52
621.95	29172.44
622.10	29032.00
622.25	28407.08
622.41	28596.67
622.56	28692.63
622.71	28982.85
622.86	29202.86
623.01	28432.83
623.16	28882.21
623.32	28900.94
623.47	28835.40
623.62	28910.30
623.77	28442.19
623.92	29017.96
624.07	28739.44
624.23	28596.67
624.38	28819.02
624.53	28584.96
624.68	28971.15
624.83	29001.58
624.98	28793.27
625.13	28615.39
625.29	28636.45
625.44	28804.97
625.59	28463.25
625.74	28095.79
625.89	28538.15
626.04	28753.48
626.19	28781.57
626.34	28315.80
626.49	28341.55
626.65	28570.92
626.80	28556.88
626.95	28360.27
627.10	28306.44
627.25	28666.88
627.40	28371.97
627.55	28196.43
627.70	28407.08
627.85	28219.84
628.00	28149.62
628.15	28276.01
628.30	28346.23
628.45	28456.23
628.60	28137.92
628.76	28194.09
628.91	28126.22
629.06	28173.03
629.21	28182.39
629.36	28456.23
629.51	27669.81
629.66	28060.68
629.81	28081.75
629.96	27910.89
630.11	27875.78
630.26	27992.81
630.41	27847.69
630.56	28348.57
630.71	28114.52
630.86	27772.80
631.01	28271.33
631.16	27913.23
631.31	28112.17
631.46	27812.59
631.61	27955.36
631.76	27740.03
631.91	27845.35
632.06	27440.44
632.21	27489.59
632.36	27707.26
632.51	27377.25
632.66	27522.36
632.81	28116.86
632.96	27639.39
633.10	27765.78
633.25	27917.91
633.40	27840.67
633.55	27758.75
633.70	27489.59
633.85	27564.49
634.00	27410.01
634.15	27765.78
634.30	27651.09
634.45	27625.34
634.60	27395.97
634.75	27527.04
634.90	27271.92
635.05	27627.68
635.19	27538.74
635.34	27688.54
635.49	27555.13
635.64	28072.39
635.79	27402.99
635.94	27683.86
636.09	27693.22
636.24	27321.07
636.39	27337.46
636.53	27264.90
636.68	27140.85
636.83	27166.60
636.98	27367.88
637.13	27459.16
637.28	27330.44
637.43	27316.39
637.57	27388.95
637.72	27421.72
637.87	27311.71
638.02	27187.66
638.17	27143.19
638.32	27028.51
638.46	26700.83
638.61	27012.12
638.76	26871.69
638.91	26878.71
639.06	27068.30
639.20	27178.30
639.35	27005.10
639.50	27440.44
639.65	27239.15
639.80	27243.84
639.94	26890.41
640.09	26965.31
640.24	26932.54
640.39	26810.84
640.54	26742.96
640.68	26670.40
640.83	26707.85
640.98	26829.56
641.13	26632.96
641.27	26796.79
641.42	26799.13
641.57	26803.82
641.72	26817.86
641.86	26661.04
642.01	26644.66
642.16	26878.71
642.31	26522.95
642.45	26616.57
642.60	26387.20
642.75	26403.58
642.90	26419.97
643.04	26651.68
643.19	26377.84
643.34	26611.89
643.48	26637.64
643.63	26632.96
643.78	26782.75
643.93	26927.86
644.07	26740.62
644.22	26717.22
644.37	26799.13
644.51	26579.12
644.66	26183.57
644.81	26476.14
644.95	26157.83
645.10	26525.29
645.25	25745.89
645.39	26239.75
645.54	26326.35
645.69	26302.94
645.83	25930.80
645.98	26452.73
646.13	26513.59
646.27	26284.22
646.42	26398.90
646.57	26146.12
646.71	26405.92
646.86	26036.12
647.00	26183.57
647.15	26199.96
647.30	26211.66
647.44	25862.92
647.59	26487.84
647.74	26363.79
647.88	26237.41
648.03	26085.27
648.17	26265.49
648.32	25996.33
648.47	26274.85
648.61	25713.13
648.76	25975.27
648.90	25893.35
649.05	25930.80
649.20	25998.67
649.34	25996.33
649.49	25975.27
649.63	25855.90
649.78	26071.23
649.92	25523.54
650.07	26136.76
650.21	25846.54
650.36	25898.03
650.51	25443.96
650.65	25820.79
650.80	25458.01
650.94	25858.24
651.09	25900.37
651.23	25656.95
651.38	25862.92
651.52	25568.01
651.67	25692.06
651.81	25837.17
651.96	25523.54
652.10	25717.81
652.25	25825.47
652.39	25806.75
652.54	25500.14
652.68	25568.01
652.83	25766.96
652.97	25528.22
653.12	25755.26
653.26	25371.41
653.41	25488.43
653.55	25340.98
653.70	25387.79
653.84	25497.80
653.99	25013.31
654.13	25427.58
654.27	25273.10
654.42	25467.37
654.56	25474.39
654.71	25474.39
654.85	25666.31
655.00	25591.42
655.14	25167.78
655.29	25039.05
655.43	25270.76
655.57	25268.42
655.72	25102.25
655.86	25326.94
656.01	25261.40
656.15	25193.53
656.30	25333.96
656.44	25191.19
656.58	25284.81
656.73	24931.39
656.87	24947.77
657.01	25198.21
657.16	25305.87
657.30	25273.10
657.45	25436.94
657.59	25179.48
657.73	24978.20
657.88	24856.49
658.02	24592.01
658.16	24615.41
658.31	24816.70
658.45	24610.73
658.60	24877.55
658.74	24828.40
658.88	24734.78
659.03	24828.40
659.17	24627.12
659.31	24849.47
659.46	24580.31
659.60	24828.40
659.74	24702.01
659.89	24435.19
660.03	24322.85
660.17	24629.46
660.32	24137.94
660.46	24474.98
660.60	24112.20
660.74	24547.54
660.89	24308.80
661.03	24121.56
661.17	24280.72
661.32	24159.01
661.46	24690.31
661.60	24130.92
661.74	24159.01
661.89	24383.70
662.03	24163.69
662.17	23831.33
662.31	24053.69
662.46	23754.10
662.60	24098.16
662.74	24079.43
662.88	23833.68
663.03	23887.51
663.17	23812.61
663.31	23578.56
663.45	23667.50
663.60	23630.05
663.74	23573.88
663.88	23733.03
664.02	23374.93
664.17	23634.73
664.31	23828.99
664.45	23969.43
664.59	23709.63
664.73	23826.65
664.88	23374.93
665.02	23592.60
665.16	23747.08
665.30	23503.66
665.44	23417.06
665.59	23220.45
665.73	23360.89
665.87	23358.55
666.01	23274.29
666.15	23356.21
666.29	23143.22
666.44	23323.44
666.58	23068.32
666.72	23030.87
666.86	23091.73
667.00	23185.35
667.14	23295.35
667.28	23030.87
667.43	23014.49
667.57	22801.50
667.71	22799.16
667.85	23033.21
667.99	22876.40
668.13	22979.38
668.27	22939.59
668.41	22780.43
668.56	22665.75
668.70	22471.48
668.84	22754.69
668.98	22703.20
669.12	22895.12
669.26	22642.34
669.40	22443.40
669.54	22567.45
669.68	22506.59
669.82	22059.55
669.96	22120.40
670.10	22136.79
670.25	22265.52
670.39	22122.74
670.53	22211.68
670.67	22104.02
670.81	22015.08
670.95	22300.62
671.09	21949.54
671.23	21841.88
671.37	22195.30
671.51	22078.27
671.65	22136.79
671.79	22047.85
671.93	21631.23
672.07	21982.31
672.21	21785.71
672.35	21474.42
672.49	21811.45
672.63	21640.59
672.77	21392.50
672.91	21795.07
673.05	21724.85
673.19	21163.12
673.33	21406.54
673.47	21352.71
673.61	21724.85
673.75	21425.26
673.89	21448.67
674.03	21345.69
674.17	21116.31
674.31	21296.53
674.45	20833.11
674.59	21022.69
674.73	21020.35
674.87	20732.47
675.01	20933.75
675.15	21043.76
675.29	20772.25
675.43	20655.23
675.56	20758.21
675.70	20716.08
675.84	20416.49
675.98	19983.49
676.12	20549.90
676.26	20886.94
676.40	20503.09
676.54	20643.52
676.68	20519.48
676.82	20161.37
676.96	19988.18
677.10	20152.01
677.23	20205.84
677.37	19917.96
677.51	19927.32
677.65	19800.93
677.79	19711.99
677.93	19838.38
678.07	19735.40
678.21	19655.82
678.34	19838.38
678.48	19386.66
678.62	19700.29
678.76	19744.76
678.90	19255.59
679.04	19651.14
679.18	19456.87
679.31	18838.97
679.45	19239.20
679.59	19232.18
679.73	19403.04
679.87	19028.56
680.00	19021.53
680.14	18939.62
680.28	18918.55
680.42	19211.12
680.56	19021.53
680.70	18813.23
680.83	18948.98
680.97	18944.30
681.11	18775.78
681.25	18759.39
681.39	18574.49
681.52	18471.51
681.66	18471.51
681.80	18263.20
681.94	18387.25
682.07	18462.15
682.21	18136.81
682.35	18148.51
682.49	18097.02
682.62	17940.21
682.76	17989.36
682.90	18010.42
683.04	17649.98
683.17	17837.22
683.31	18029.15
683.45	17834.88
683.59	17797.43
683.72	17635.94
683.86	17748.28
684.00	17579.76
684.13	17649.98
684.27	17425.29
684.41	17455.72
684.55	17268.47
684.68	17053.14
684.82	17090.59
684.96	17205.28
685.09	16982.93
685.23	16889.31
685.37	16779.30
685.50	17034.42
685.64	16884.62
685.78	17085.91
685.91	16872.92
686.05	16898.67
686.19	16898.67
686.32	16531.20
686.46	16526.52
686.60	16430.56
686.73	16608.44
686.87	16486.73
687.01	16379.07
687.14	16121.61
687.28	16091.18
687.42	16156.72
687.55	16130.97
687.69	16198.85
687.82	16070.12
687.96	15763.51
688.10	16013.95
688.23	16100.55
688.37	15927.35
688.50	15690.95
688.64	16063.10
688.78	15667.55
688.91	15459.24
689.05	15330.51
689.18	15438.17
689.32	15084.75
689.46	15431.15
689.59	15428.81
689.73	15206.46
689.86	15176.03
690.00	14949.00
690.13	15157.31
690.27	15253.27
690.41	15075.39
690.54	15229.87
690.68	15070.71
690.81	15044.96
690.95	15075.39
691.08	14972.41
691.22	15117.52
691.35	14864.74
691.49	14946.66
691.62	14630.69
691.76	14752.40
691.89	14595.58
692.03	14200.03
692.16	14235.14
692.30	14431.74
692.43	14106.41
692.57	14349.82
692.70	14204.71
692.84	14185.99
692.97	13944.91
693.11	14113.43
693.24	14094.71
693.38	13865.33
693.51	13816.18
693.65	13820.86
693.78	13650.00
693.92	13874.70
694.05	13596.17
694.19	13406.59
694.32	13387.86
694.45	13465.10
694.59	13336.37
694.72	13200.62
694.86	12987.63
694.99	13195.94
695.13	13249.77
695.26	13291.90
695.39	12809.75
695.53	13041.46
695.66	13097.64
695.80	12898.69
695.93	13102.32
696.07	12982.95
696.20	13130.41
696.33	13029.76
696.47	12610.81
696.60	12746.56
696.73	12655.28
696.87	12652.94
697.00	12758.26
697.14	12610.81
697.27	12245.68
697.40	12219.94
697.54	12456.33
697.67	12107.59
697.80	12131.00
697.94	12072.48
698.07	11988.22
698.21	11719.06
698.34	12030.35
698.47	12145.04
698.61	11824.39
698.74	12016.31
698.87	11728.42
699.01	11789.28
699.14	11819.71
699.27	11700.34
699.40	11873.54
699.54	11604.38
699.67	11496.71
699.80	11531.82
699.94	11545.86
700.07	11426.50
700.20	11517.78
700.34	11255.64
700.47	11248.61
700.60	11105.84
700.73	11098.82
700.87	11112.86
701.00	11140.95
701.13	10988.82
701.26	11187.76
701.40	10965.41
701.53	10817.96
701.66	10920.94
701.79	10736.04
701.93	10707.95
702.06	10714.97
702.19	10588.58
702.32	10576.88
702.46	10537.09
702.59	10501.98
702.72	10406.02
702.85	10485.60
702.99	10633.05
703.12	10277.29
703.25	10237.50
703.38	10377.94
703.51	10209.42
703.65	10157.92
703.78	10272.61
703.91	10134.52
704.04	10263.25
704.17	9844.29
704.31	10120.48
704.44	9905.15
704.57	9778.76
704.70	9720.24
704.83	9596.20
704.96	9753.01
705.10	9474.49
705.23	9373.85
>>>>>End Processed Spectral Data<<<<<
