SpectraSuite Data File
++++++++++++++++++++++++++++++++++++
Date: Fri Oct 18 13:58:32 GMT-05:00 2013
User: bianchi
Dark Spectrum Present: No
Reference Spectrum Present: No
Number of Sampled Component Spectra: 1
Spectrometers: USB2+H05261
Integration Time (usec): 50000 (USB2+H05261)
Spectra Averaged: 1 (USB2+H05261)
Boxcar Smoothing: 0 (USB2+H05261)
Correct for Electrical Dark: No (USB2+H05261)
Strobe/Lamp Enabled: No (USB2+H05261)
Correct for Detector Non-linearity: No (USB2+H05261)
Correct for Stray Light: No (USB2+H05261)
Number of Pixels in Processed Spectrum: 2048
>>>>>Begin Processed Spectral Data<<<<<
365.73	0.00
365.92	0.00
366.12	0.00
366.32	0.00
366.52	0.00
366.72	0.00
366.91	0.00
367.11	0.00
367.31	0.00
367.51	0.00
367.70	0.00
367.90	0.00
368.10	0.00
368.30	0.00
368.49	0.00
368.69	0.00
368.89	0.00
369.09	0.00
369.28	0.00
369.48	0.00
369.68	0.00
369.87	0.00
370.07	0.00
370.27	0.00
370.47	0.00
370.66	79.58
370.86	91.28
371.06	65.54
371.25	184.90
371.45	74.90
371.65	114.69
371.84	117.03
372.04	121.71
372.24	102.98
372.44	166.18
372.63	133.41
372.83	262.14
373.03	187.24
373.22	201.29
373.42	252.78
373.62	182.56
373.81	133.41
374.01	257.46
374.21	243.42
374.40	259.80
374.60	205.97
374.79	159.16
374.99	220.01
375.19	196.60
375.38	327.68
375.58	203.63
375.78	276.18
375.97	243.42
376.17	241.08
376.37	241.08
376.56	189.58
376.76	344.06
376.95	292.57
377.15	318.31
377.35	243.42
377.54	255.12
377.74	241.08
377.93	285.55
378.13	285.55
378.33	308.95
378.52	243.42
378.72	318.31
378.91	276.18
379.11	273.84
379.31	238.73
379.50	292.57
379.70	327.68
379.89	222.35
380.09	379.17
380.28	315.97
380.48	379.17
380.68	332.36
380.87	344.06
381.07	353.42
381.26	341.72
381.46	320.65
381.65	362.78
381.85	351.08
382.04	383.85
382.24	322.99
382.43	248.10
382.63	269.16
382.83	278.52
383.02	334.70
383.22	330.02
383.41	297.25
383.61	362.78
383.80	346.40
384.00	339.38
384.19	315.97
384.39	395.55
384.58	306.61
384.78	306.61
384.97	372.15
385.17	456.40
385.36	411.93
385.56	414.27
385.75	332.36
385.95	351.08
386.14	465.77
386.34	390.87
386.53	386.19
386.72	440.02
386.92	372.15
387.11	491.51
387.31	407.25
387.50	470.45
387.70	454.06
387.89	449.38
388.09	383.85
388.28	470.45
388.48	379.17
388.67	475.13
388.86	451.72
389.06	395.55
389.25	491.51
389.45	447.04
389.64	423.64
389.84	437.68
390.03	484.49
390.22	447.04
390.42	437.68
390.61	505.56
390.81	545.34
391.00	463.43
391.19	521.94
391.39	517.26
391.58	594.50
391.78	517.26
391.97	500.87
392.16	582.79
392.36	477.47
392.55	486.83
392.75	575.77
392.94	580.45
393.13	547.69
393.33	510.24
393.52	540.66
393.71	641.31
393.91	601.52
394.10	540.66
394.29	594.50
394.49	550.03
394.68	594.50
394.88	615.56
395.07	561.73
395.26	603.86
395.46	568.75
395.65	674.07
395.84	615.56
396.04	657.69
396.23	683.44
396.42	622.58
396.62	636.63
396.81	655.35
397.00	697.48
397.19	662.37
397.39	645.99
397.58	730.25
397.77	706.84
397.97	664.71
398.16	765.36
398.35	671.73
398.55	730.25
398.74	716.20
398.93	737.27
399.12	699.82
399.32	596.84
399.51	695.14
399.70	748.97
399.90	741.95
400.09	674.07
400.28	807.48
400.47	767.70
400.67	833.23
400.86	730.25
401.05	800.46
401.24	800.46
401.44	819.19
401.63	795.78
401.82	816.85
402.01	739.61
402.21	772.38
402.40	805.14
402.59	784.08
402.78	816.85
402.97	847.27
403.17	784.08
403.36	840.25
403.55	894.08
403.74	901.11
403.93	961.96
404.13	945.58
404.32	903.45
404.51	950.26
404.70	983.02
404.89	990.05
405.09	957.28
405.28	987.71
405.47	959.62
405.66	1006.43
405.85	929.19
406.05	933.87
406.24	1036.86
406.43	940.90
406.62	997.07
406.81	1022.81
407.00	987.71
407.20	1001.75
407.39	1034.52
407.58	1053.24
407.77	1043.88
407.96	1125.80
408.15	1041.54
408.34	1064.94
408.54	1004.09
408.73	990.05
408.92	1029.84
409.11	1128.14
409.30	1050.90
409.49	1088.35
409.68	1104.73
409.87	1128.14
410.07	1165.59
410.26	1107.07
410.45	1214.74
410.64	1109.41
410.83	1231.12
411.02	1104.73
411.21	1093.03
411.40	1291.98
411.59	1231.12
411.78	1303.68
411.98	1280.27
412.17	1252.19
412.36	1313.04
412.55	1249.85
412.74	1261.55
412.93	1263.89
413.12	1331.76
413.31	1404.32
413.50	1371.55
413.69	1231.12
413.88	1413.68
414.07	1331.76
414.26	1418.36
414.45	1373.89
414.64	1526.03
414.83	1521.35
415.02	1486.24
415.22	1474.54
415.41	1633.69
415.60	1514.33
415.79	1605.61
415.98	1603.27
416.17	1636.03
416.36	1584.54
416.55	1612.63
416.74	1479.22
416.93	1544.75
417.12	1589.22
417.31	1621.99
417.50	1575.18
417.69	1652.42
417.88	1713.27
418.07	1685.19
418.26	1612.63
418.45	1706.25
418.64	1893.49
418.83	1771.79
419.02	1792.85
419.21	1827.96
419.39	1797.53
419.58	1785.83
419.77	1806.89
419.96	1792.85
420.15	1849.02
420.34	1825.62
420.53	1771.79
420.72	1713.27
420.91	1856.04
421.10	1933.28
421.29	1926.26
421.48	1839.66
421.67	1902.86
421.86	1909.88
422.05	1891.15
422.24	1844.34
422.43	1884.13
422.61	1935.62
422.80	1959.03
422.99	2019.88
423.18	1909.88
423.37	2066.69
423.56	2012.86
423.75	2015.20
423.94	2050.31
424.13	1905.20
424.32	1783.49
424.50	2008.18
424.69	2036.27
424.88	2125.21
425.07	1956.69
425.26	1900.52
425.45	1923.92
425.64	2019.88
425.83	2022.22
426.01	2054.99
426.20	2092.44
426.39	1942.64
426.58	2069.03
426.77	2029.24
426.96	2010.52
427.15	2197.76
427.33	2223.51
427.52	2146.27
427.71	2155.63
427.90	2076.06
428.09	2167.34
428.28	2129.89
428.46	2071.37
428.65	2073.71
428.84	2265.64
429.03	2270.32
429.22	2193.08
429.40	2237.55
429.59	2230.53
429.78	2083.08
429.97	2111.16
430.16	2179.04
430.34	2232.87
430.53	2256.28
430.72	2246.91
430.91	2286.70
431.10	2345.22
431.28	2387.35
431.47	2356.92
431.66	2403.73
431.85	2321.81
432.03	2502.03
432.22	2394.37
432.41	2415.43
432.60	2399.05
432.79	2333.51
432.97	2427.14
433.16	2420.11
433.35	2471.61
433.54	2466.92
433.72	2609.70
433.91	2401.39
434.10	2480.97
434.28	2612.04
434.47	2574.59
434.66	2548.84
434.85	2530.12
435.03	2647.15
435.22	2640.12
435.41	2675.23
435.59	2527.78
435.78	2569.91
435.97	2553.52
436.16	2686.94
436.34	2558.21
436.53	2729.06
436.72	2752.47
436.90	2532.46
437.09	2717.36
437.28	2712.68
437.46	2726.72
437.65	2799.28
437.84	2820.35
438.02	2698.64
438.21	2787.58
438.40	2855.45
438.58	2787.58
438.77	2935.03
438.96	2883.54
439.14	2977.16
439.33	2829.71
439.52	2913.97
439.70	2902.26
439.89	3040.36
440.08	2965.46
440.26	3021.63
440.45	3082.49
440.63	3026.31
440.82	3098.87
441.01	2892.90
441.19	3178.45
441.38	3117.59
441.57	3232.28
441.75	3077.80
441.94	3157.38
442.12	3260.37
442.31	3215.90
442.50	3297.81
442.68	3208.87
442.87	3262.71
443.05	3288.45
443.24	3311.86
443.43	3295.47
443.61	3405.48
443.80	3386.76
443.98	3375.05
444.17	3283.77
444.35	3442.93
444.54	3440.59
444.73	3548.25
444.91	3447.61
445.10	3499.10
445.28	3438.25
445.47	3276.75
445.65	3431.23
445.84	3375.05
446.02	3454.63
446.21	3288.45
446.39	3494.42
446.58	3489.74
446.77	3510.80
446.95	3534.21
447.14	3665.28
447.32	3531.87
447.51	3503.78
447.69	3468.67
447.88	3520.17
448.06	3527.19
448.25	3522.51
448.43	3574.00
448.62	3435.91
448.80	3473.36
448.99	3442.93
449.17	3574.00
449.36	3456.97
449.54	3688.68
449.73	3623.15
449.91	3548.25
450.10	3543.57
450.28	3770.60
450.46	3655.92
450.65	3674.64
450.83	3733.15
451.02	3639.53
451.20	3775.28
451.39	3747.20
451.57	3784.65
451.76	3723.79
451.94	3784.65
452.13	3709.75
452.31	3798.69
452.49	3782.31
452.68	3868.91
452.86	3817.41
453.05	3824.44
453.23	3906.35
453.42	3875.93
453.60	3707.41
453.78	3962.53
453.97	3784.65
454.15	3904.01
454.34	3831.46
454.52	3873.59
454.70	3868.91
454.89	4042.11
455.07	3950.82
455.26	4049.13
455.44	4238.71
455.62	3955.51
455.81	4074.87
455.99	4105.30
456.17	4231.69
456.36	4126.36
456.54	4091.26
456.73	4166.15
456.91	4322.97
457.09	4243.39
457.28	4266.80
457.46	4203.60
457.64	4245.73
457.83	4224.67
458.01	4287.86
458.19	4269.14
458.38	4311.27
458.56	4348.72
458.74	4379.14
458.93	4493.83
459.11	4390.84
459.29	4454.04
459.48	4421.27
459.66	4388.50
459.84	4578.09
460.03	4517.23
460.21	4505.53
460.39	4435.32
460.57	4496.17
460.76	4636.60
460.94	4697.46
461.12	4505.53
461.31	4505.53
461.49	4669.37
461.67	4669.37
461.85	4685.75
462.04	4812.14
462.22	4816.82
462.40	4660.01
462.59	4545.32
462.77	4748.95
462.95	4552.34
463.13	4559.36
463.32	4793.42
463.50	4690.43
463.68	4671.71
463.86	4929.17
464.05	4580.43
464.23	4908.10
464.41	4936.19
464.59	4697.46
464.78	4847.25
464.96	4908.10
465.14	4821.50
465.32	4940.87
465.50	4812.14
465.69	4908.10
465.87	4873.00
466.05	5029.81
466.23	4919.81
466.41	5032.15
466.60	5121.09
466.78	5029.81
466.96	4910.44
467.14	4786.40
467.32	4994.70
467.51	5020.45
467.69	5118.75
467.87	4999.38
468.05	5076.62
468.23	5144.50
468.41	5130.45
468.60	5093.01
468.78	5149.18
468.96	5081.30
469.14	5128.11
469.32	5254.50
469.50	5165.56
469.69	5170.24
469.87	5390.25
470.05	5420.68
470.23	5493.24
470.41	5355.15
470.59	5441.75
470.77	5308.34
470.95	5509.62
471.14	5509.62
471.32	5394.93
471.50	5432.38
471.68	5556.43
471.86	5516.64
472.04	5483.88
472.22	5593.88
472.40	5518.98
472.58	5584.52
472.77	5584.52
472.95	5715.59
473.13	5820.91
473.31	5757.72
473.49	5825.59
473.67	5797.51
473.85	5720.27
474.03	5994.11
474.21	6097.10
474.39	6113.48
474.57	6043.26
474.75	5893.47
474.93	6045.60
475.12	6183.70
475.30	5858.36
475.48	6092.41
475.66	6200.08
475.84	6113.48
476.02	6136.88
476.20	6101.78
476.38	6420.09
476.56	6544.14
476.74	6534.78
476.92	6420.09
477.10	6445.84
477.28	6579.25
477.46	6497.33
477.64	6647.12
477.82	6773.51
478.00	7068.42
478.18	6848.41
478.36	6991.18
478.54	6789.89
478.72	6869.47
478.90	6981.82
479.08	7073.10
479.26	6970.12
479.44	7332.90
479.62	7183.10
479.80	7309.49
479.98	7449.93
480.16	7403.11
480.34	7541.21
480.52	7592.70
480.70	7620.78
480.88	7473.33
481.06	7784.62
481.24	7592.70
481.41	7658.23
481.59	8037.40
481.77	7901.65
481.95	8030.38
482.13	8081.87
482.31	7936.76
482.49	8280.82
482.67	8060.80
482.85	8168.47
483.03	8388.48
483.21	8475.08
483.39	8329.97
483.57	8374.44
483.74	8535.93
483.92	8496.14
484.10	8456.36
484.28	8905.74
484.46	8940.85
484.64	9055.53
484.82	8802.75
485.00	8882.33
485.18	9415.98
485.35	9390.23
485.53	9231.07
485.71	9343.42
485.89	9682.80
486.07	9549.39
486.25	9329.38
486.43	9605.56
486.61	9792.80
486.78	9944.94
486.96	9727.27
487.14	10068.98
487.32	9774.08
487.50	9858.34
487.68	10092.39
487.85	10054.94
488.03	10399.00
488.21	10478.58
488.39	10635.39
488.57	10626.03
488.75	10628.37
488.92	10689.23
489.10	10909.24
489.28	10876.47
489.46	11059.03
489.64	10916.26
489.81	11314.15
489.99	11103.50
490.17	11279.04
490.35	11499.05
490.53	11555.22
490.70	11702.68
490.88	11405.43
491.06	11435.86
491.24	11632.46
491.41	11719.06
491.59	11815.02
491.77	11875.88
491.95	11969.50
492.13	12006.95
492.30	12060.78
492.48	12091.21
492.66	12044.40
492.84	12250.36
493.01	12201.21
493.19	12531.23
493.37	12695.07
493.54	12505.48
493.72	12681.02
493.90	12695.07
494.08	12868.27
494.25	12891.67
494.43	13053.17
494.61	13027.42
494.79	13137.43
494.96	13198.28
495.14	13371.48
495.32	13221.69
495.49	13596.17
495.67	13563.40
495.85	13500.21
496.02	13898.10
496.20	13851.29
496.38	13830.23
496.55	13949.59
496.73	13982.36
496.91	13935.55
497.09	13951.93
497.26	14083.00
497.44	14139.18
497.62	14347.48
497.79	14335.78
497.97	14420.04
498.14	14895.17
498.32	14640.05
498.50	14406.00
498.67	14649.41
498.85	14850.70
499.03	15094.11
499.20	14932.62
499.38	15002.83
499.56	14949.00
499.73	15190.08
499.91	15122.20
500.08	15117.52
500.26	15040.28
500.44	15215.82
500.61	15440.51
500.79	15159.65
500.97	15545.84
501.14	15618.39
501.32	15552.86
501.49	15637.12
501.67	15599.67
501.84	15955.43
502.02	15850.11
502.20	15749.46
502.37	15791.59
502.55	15653.50
502.72	16037.35
502.90	16163.74
503.07	16063.10
503.25	16137.99
503.43	16170.76
503.60	16079.48
503.78	16423.54
503.95	16407.16
504.13	16273.74
504.30	16283.11
504.48	16285.45
504.65	16411.84
504.83	16882.28
505.01	16884.62
505.18	16702.06
505.36	16975.91
505.53	16631.85
505.71	16847.18
505.88	17097.61
506.06	16938.46
506.23	17128.04
506.41	17053.14
506.58	17521.25
506.76	17074.21
506.93	17219.32
507.11	17116.34
507.28	17460.40
507.46	17516.57
507.63	17404.22
507.81	17549.34
507.98	17748.28
508.16	17668.70
508.33	17649.98
508.50	17685.09
508.68	17778.71
508.85	18090.00
509.03	17783.39
509.20	17881.69
509.38	18022.12
509.55	18155.54
509.73	17963.61
509.90	18019.78
510.08	18363.84
510.25	18221.07
510.42	18211.71
510.60	18420.02
510.77	18614.28
510.95	18459.81
511.12	18384.91
511.30	18204.69
511.47	18567.47
511.64	18375.55
511.82	19185.37
511.99	18719.60
512.17	18792.16
512.34	18640.03
512.51	18956.00
512.69	18932.59
512.86	18981.74
513.04	19353.89
513.21	19323.46
513.38	19351.55
513.56	18944.30
513.73	19346.87
513.90	19529.43
514.08	19325.80
514.25	19316.44
514.43	19541.13
514.60	19562.20
514.77	19419.42
514.95	19609.01
515.12	19585.60
515.29	19609.01
515.47	19721.35
515.64	19868.81
515.81	19974.13
515.99	20084.14
516.16	19789.23
516.33	19964.77
516.51	20210.53
516.68	20187.12
516.85	19950.73
517.03	20290.10
517.20	20259.68
517.37	20575.65
517.54	19976.47
517.72	20486.71
517.89	20210.53
518.06	20332.23
518.24	20669.27
518.41	20479.69
518.58	20554.58
518.75	20236.27
518.93	20446.92
519.10	20594.37
519.27	20872.90
519.45	21006.31
519.62	20805.02
519.79	20982.90
519.96	20870.56
520.14	20758.21
520.31	21263.77
520.48	20933.75
520.65	20746.51
520.83	21135.04
521.00	21209.93
521.17	21231.00
521.34	21329.30
521.52	21188.87
521.69	21329.30
521.86	21195.89
522.03	21607.83
522.20	21275.47
522.38	21521.23
522.55	21474.42
522.72	21469.73
522.89	21860.60
523.07	21736.56
523.24	21865.28
523.41	22452.76
523.58	21647.61
523.75	21865.28
523.92	21907.41
524.10	21781.03
524.27	22192.96
524.44	22317.01
524.61	22368.50
524.78	22396.59
524.96	21853.58
525.13	22221.05
525.30	22595.53
525.47	22183.60
525.64	22408.29
525.81	22567.45
525.98	22640.00
526.16	22148.49
526.33	22452.76
526.50	22635.32
526.67	22349.78
526.84	22448.08
527.01	22419.99
527.18	22590.85
527.36	22895.12
527.53	22658.73
527.70	22981.72
527.87	22981.72
528.04	22693.83
528.21	22925.55
528.38	23077.68
528.55	22930.23
528.72	23171.30
528.89	23080.02
529.07	23136.20
529.24	23054.28
529.41	23220.45
529.58	23150.24
529.75	22951.29
529.92	23344.50
530.09	23293.01
530.26	23501.32
530.43	23667.50
530.60	23171.30
530.77	23449.83
530.94	23527.06
531.11	23178.33
531.28	23129.17
531.46	23398.34
531.63	23496.64
531.80	23580.90
531.97	23899.21
532.14	23840.70
532.31	23639.41
532.48	23761.12
532.65	24044.32
532.82	23707.29
532.99	23840.70
533.16	23882.83
533.33	24259.65
533.50	24144.97
533.67	24269.01
533.84	24198.80
534.01	24002.19
534.18	23868.78
534.35	24496.05
534.52	24093.47
534.69	24498.39
534.86	24407.11
535.03	24290.08
535.20	24257.31
535.37	24594.35
535.54	24322.85
535.71	24418.81
535.88	24697.33
536.05	24198.80
536.22	24802.66
536.38	25149.06
536.55	24886.92
536.72	24856.49
536.89	24404.77
537.06	24989.90
537.23	24854.15
537.40	24884.58
537.57	24533.50
537.74	24762.87
537.91	24837.76
538.08	24716.06
538.25	24718.40
538.42	24720.74
538.59	24910.32
538.75	24950.11
538.92	25298.85
539.09	24751.17
539.26	25275.45
539.43	25266.08
539.60	25062.46
539.77	25195.87
539.94	25401.83
540.11	25303.53
540.28	25411.20
540.44	25296.51
540.61	25055.43
540.78	25228.63
540.95	25317.57
541.12	25088.20
541.29	25404.17
541.46	25710.78
541.62	25245.02
541.79	25195.87
541.96	25289.49
542.13	25411.20
542.30	25259.06
542.47	25441.62
542.63	25809.09
542.80	25830.15
542.97	26132.08
543.14	26134.42
543.31	26080.59
543.48	25748.23
543.64	26150.81
543.81	26066.55
543.98	26335.71
544.15	26134.42
544.32	25790.36
544.48	26298.26
544.65	26103.99
544.82	26167.19
544.99	26010.37
545.16	26101.65
545.32	26230.38
545.49	26092.29
545.66	26469.12
545.83	26607.21
546.00	26398.90
546.16	26513.59
546.33	26426.99
546.50	26068.89
546.67	26637.64
546.83	26462.10
547.00	26473.80
547.17	26506.57
547.34	26857.65
547.50	26508.91
547.67	26789.77
547.84	26518.27
548.00	26810.84
548.17	26965.31
548.34	26450.39
548.51	26597.85
548.67	27264.90
548.84	27180.64
549.01	27147.87
549.18	27012.12
549.34	26864.67
549.51	26480.82
549.68	26981.70
549.84	26822.54
550.01	27424.06
550.18	26960.63
550.34	27281.28
550.51	27171.28
550.68	27152.55
550.84	27002.76
551.01	27438.10
551.18	27035.53
551.34	27117.45
551.51	27307.03
551.68	27283.62
551.84	27601.94
552.01	27023.83
552.18	27517.68
552.34	27391.29
552.51	27770.46
552.68	27419.38
552.84	27597.26
553.01	27548.11
553.18	27126.81
553.34	27721.30
553.51	27328.10
553.67	27761.09
553.84	27353.84
554.01	28072.39
554.17	27749.39
554.34	27381.93
554.51	27721.30
554.67	27468.53
554.84	27754.07
555.00	27761.09
555.17	27786.84
555.33	27775.14
555.50	27655.77
555.67	27594.92
555.83	27686.20
556.00	28032.60
556.16	28184.73
556.33	27772.80
556.50	28009.19
556.66	28039.62
556.83	28137.92
556.99	28290.06
557.16	28374.31
557.32	28343.89
557.49	28322.82
557.65	27716.62
557.82	27707.26
557.98	28137.92
558.15	28283.03
558.32	28023.23
558.48	28283.03
558.65	28355.59
558.81	28032.60
558.98	28437.51
559.14	28175.37
559.31	28128.56
559.47	28285.37
559.64	28252.61
559.80	28374.31
559.97	28510.07
560.13	28217.50
560.30	28205.80
560.46	28659.86
560.63	28465.60
560.79	28477.30
560.96	28018.55
561.12	28505.38
561.29	28425.81
561.45	28280.69
561.61	28203.46
561.78	28552.20
561.94	28685.61
562.11	28489.00
562.27	28276.01
562.44	28250.27
562.60	28315.80
562.77	28355.59
562.93	28456.23
563.10	28896.25
563.26	28383.68
563.42	28828.38
563.59	28587.30
563.75	28854.12
563.92	28800.29
564.08	28596.67
564.24	28521.77
564.41	28292.40
564.57	28510.07
564.74	28650.50
564.90	28491.34
565.07	28884.55
565.23	28905.62
565.39	28467.94
565.56	28847.10
565.72	28938.38
565.88	28795.61
566.05	28423.47
566.21	28535.81
566.38	28964.13
566.54	29006.26
566.70	28797.95
566.87	29195.84
567.03	29074.13
567.19	28882.21
567.36	28882.21
567.52	28903.28
567.68	28755.82
567.85	28945.41
568.01	29010.94
568.17	28865.83
568.34	29261.38
568.50	29144.35
568.66	28896.25
568.83	29048.39
568.99	28900.94
569.15	28933.70
569.32	29102.22
569.48	28458.57
569.64	28811.99
569.81	28992.22
569.97	28959.45
570.13	28713.69
570.30	28952.43
570.46	29226.27
570.62	29017.96
570.78	28896.25
570.95	28678.58
571.11	28835.40
571.27	28713.69
571.43	29010.94
571.60	29209.89
571.76	28968.81
571.92	29062.43
572.09	29041.37
572.25	29116.26
572.41	29397.13
572.57	29694.38
572.74	29387.77
572.90	29076.48
573.06	29273.08
573.22	29050.73
573.38	28959.45
573.55	29156.05
573.71	29113.92
573.87	29413.51
574.03	29472.03
574.20	29029.66
574.36	29378.40
574.52	29247.33
574.68	29160.73
574.84	29106.90
575.01	29219.25
575.17	29457.98
575.33	29113.92
575.49	29226.27
575.65	29331.59
575.82	29434.58
575.98	29296.49
576.14	29497.77
576.30	29322.23
576.46	29350.32
576.62	29139.67
576.79	29521.18
576.95	29142.01
577.11	29324.57
577.27	29411.17
577.43	29394.79
577.59	29275.42
577.75	29301.17
577.92	29338.62
578.08	29434.58
578.24	29371.38
578.40	29516.50
578.56	29357.34
578.72	29406.49
578.88	29411.17
579.04	29455.64
579.21	29308.19
579.37	29022.64
579.53	29420.53
579.69	29443.94
579.85	29053.07
580.01	29132.65
580.17	29486.07
580.33	29443.94
580.49	29415.85
580.65	29493.09
580.82	29713.10
580.98	29488.41
581.14	29589.05
581.30	29408.83
581.46	29584.37
581.62	29809.06
581.78	29373.72
581.94	29614.80
582.10	29532.88
582.26	29252.02
582.42	29474.37
582.58	29345.64
582.74	29706.08
582.90	29572.67
583.06	29546.92
583.22	29401.81
583.38	29097.54
583.54	29853.53
583.70	29406.49
583.86	29631.18
584.02	29235.63
584.18	29247.33
584.34	29809.06
584.50	29762.25
584.66	29146.69
584.82	29296.49
584.98	29523.52
585.14	29788.00
585.30	29186.48
585.46	29418.19
585.62	29598.41
585.78	29514.16
585.94	29387.77
586.10	29853.53
586.26	29713.10
586.42	29565.65
586.58	29399.47
586.74	29497.77
586.90	29376.06
587.06	29446.28
587.22	29408.83
587.38	29153.71
587.54	29799.70
587.70	29970.56
587.86	29521.18
588.02	30008.01
588.18	29881.62
588.34	29731.83
588.49	29397.13
588.65	29469.69
588.81	29673.31
588.97	29406.49
589.13	29380.74
589.29	29467.34
589.45	29989.28
589.61	29706.08
589.77	29788.00
589.93	29799.70
590.08	29905.02
590.24	29804.38
590.40	29813.74
590.56	30043.12
590.72	29839.49
590.88	29535.22
591.04	30012.69
591.20	30106.31
591.35	30455.05
591.51	30031.41
591.67	30206.95
591.83	30031.41
591.99	30054.82
592.15	29769.27
592.31	29825.45
592.46	29687.36
592.62	29607.78
592.78	29621.82
592.94	29717.78
593.10	29549.26
593.26	30185.89
593.41	29579.69
593.57	29823.11
593.73	29699.06
593.89	30213.98
594.05	30185.89
594.20	29638.20
594.36	29837.15
594.52	29516.50
594.68	29914.39
594.84	29692.04
594.99	29696.72
595.15	30129.72
595.31	30242.06
595.47	29827.79
595.62	30408.24
595.78	29708.42
595.94	30164.82
596.10	30019.71
596.25	30155.46
596.41	29727.14
596.57	29797.36
596.73	30150.78
596.88	29865.24
597.04	30026.73
597.20	29989.28
597.36	30134.40
597.51	30185.89
597.67	30150.78
597.83	30281.85
597.99	29930.77
598.14	29741.19
598.30	29696.72
598.46	29874.60
598.61	30167.16
598.77	30038.44
598.93	30345.05
599.09	29708.42
599.24	30541.65
599.40	30595.48
599.56	30017.37
599.71	30110.99
599.87	29670.97
600.03	30061.84
600.18	29804.38
600.34	29713.10
600.50	29734.17
600.65	29858.21
600.81	30167.16
600.97	30305.26
601.12	30394.20
601.28	30040.78
601.44	30506.54
601.59	30359.09
601.75	29979.92
601.91	30115.67
602.06	29827.79
602.22	29888.64
602.37	30110.99
602.53	30450.37
602.69	30143.76
602.84	30012.69
603.00	30188.23
603.16	30349.73
603.31	30415.26
603.47	30188.23
603.62	30003.33
603.78	30085.25
603.94	30071.20
604.09	30267.81
604.25	29837.15
604.40	30295.89
604.56	30190.57
604.71	30213.98
604.87	29841.83
605.03	29947.15
605.18	30127.38
605.34	30476.12
605.49	29895.66
605.65	29860.55
605.80	29729.48
605.96	29841.83
606.12	29834.81
606.27	30333.34
606.43	30307.60
606.58	29708.42
606.74	30073.54
606.89	30326.32
607.05	30164.82
607.20	30000.99
607.36	29834.81
607.51	30258.45
607.67	29806.72
607.82	30008.01
607.98	29926.09
608.13	29675.65
608.29	29820.77
608.44	29818.42
608.60	29902.68
608.75	30319.30
608.91	30031.41
609.06	30029.07
609.22	29687.36
609.37	30003.33
609.53	29846.51
609.68	29832.47
609.84	29757.57
609.99	29738.85
610.15	29876.94
610.30	29738.85
610.46	29881.62
610.61	29855.87
610.76	29881.62
610.92	29879.28
611.07	29670.97
611.23	29170.10
611.38	29701.40
611.54	29575.01
611.69	29518.84
611.84	29289.46
612.00	29493.09
612.15	29537.56
612.31	29996.31
612.46	29579.69
612.62	29624.16
612.77	29553.94
612.92	29834.81
613.08	29380.74
613.23	29362.02
613.39	29359.68
613.54	29432.24
613.69	29544.58
613.85	29259.04
614.00	29621.82
614.15	29598.41
614.31	29329.25
614.46	29624.16
614.62	29308.19
614.77	29399.47
614.92	29502.45
615.08	29448.62
615.23	29397.13
615.38	29546.92
615.54	29298.83
615.69	29259.04
615.84	28882.21
616.00	29497.77
616.15	29214.57
616.30	29242.65
616.46	28900.94
616.61	29476.71
616.76	29163.08
616.92	29069.45
617.07	29355.00
617.22	28868.17
617.37	28713.69
617.53	29488.41
617.68	29125.63
617.83	28861.15
617.99	29144.35
618.14	29394.79
618.29	29322.23
618.45	29273.08
618.60	29338.62
618.75	29172.44
618.90	29322.23
619.06	29036.69
619.21	28804.97
619.36	28884.55
619.51	28568.58
619.67	28411.76
619.82	28554.54
619.97	28793.27
620.12	28671.56
620.28	28795.61
620.43	29081.16
620.58	29008.60
620.73	29127.97
620.89	28762.84
621.04	29083.50
621.19	28954.77
621.34	28767.52
621.49	28449.21
621.65	28713.69
621.80	29069.45
621.95	28608.37
622.10	28463.25
622.25	28826.04
622.41	29134.99
622.56	28711.35
622.71	29017.96
622.86	28554.54
623.01	28865.83
623.16	28386.02
623.32	28533.47
623.47	28596.67
623.62	28802.63
623.77	28369.63
623.92	28301.76
624.07	28613.05
624.23	28451.55
624.38	28687.95
624.53	28954.77
624.68	28458.57
624.83	28613.05
624.98	28608.37
625.13	28086.43
625.29	28514.75
625.44	28180.05
625.59	28381.34
625.74	28350.91
625.89	28238.56
626.04	28350.91
626.19	28304.10
626.34	28009.19
626.49	28205.80
626.65	28364.95
626.80	28306.44
626.95	28280.69
627.10	28177.71
627.25	28196.43
627.40	28081.75
627.55	28077.07
627.70	27613.64
627.85	28027.92
628.00	27920.25
628.15	27779.82
628.30	28294.74
628.45	27941.32
628.60	27793.86
628.76	27662.79
628.91	27821.95
629.06	27955.36
629.21	27889.82
629.36	27852.38
629.51	28023.23
629.66	27976.42
629.81	27515.34
629.96	27599.60
630.11	27805.56
630.26	27651.09
630.41	27372.57
630.56	27559.81
630.71	27735.35
630.86	27915.57
631.01	27608.96
631.16	27543.42
631.31	27718.96
631.46	27150.21
631.61	27529.38
631.76	27686.20
631.91	27557.47
632.06	27648.75
632.21	27466.19
632.36	27503.64
632.51	27239.15
632.66	27335.12
632.81	27410.01
632.96	27920.25
633.10	27164.26
633.25	27695.56
633.40	27747.05
633.55	27648.75
633.70	27381.93
633.85	27314.05
634.00	27211.07
634.15	27438.10
634.30	27328.10
634.45	27187.66
634.60	27173.62
634.75	27227.45
634.90	27019.14
635.05	27351.50
635.19	27353.84
635.34	27604.28
635.49	27367.88
635.64	27438.10
635.79	27281.28
635.94	27419.38
636.09	27108.08
636.24	27166.60
636.39	27187.66
636.53	26869.35
636.68	26728.92
636.83	26857.65
636.98	27332.78
637.13	27000.42
637.28	27185.32
637.43	27197.02
637.57	27091.70
637.72	26731.26
637.87	27103.40
638.02	27023.83
638.17	26960.63
638.32	26754.66
638.46	26740.62
638.61	26572.10
638.76	26813.18
638.91	26511.25
639.06	26916.16
639.20	26721.90
639.35	26693.81
639.50	26742.96
639.65	26857.65
639.80	26806.16
639.94	26899.78
640.09	26939.57
640.24	26677.43
640.39	26499.55
640.54	26588.49
640.68	26309.96
640.83	26581.46
640.98	26286.56
641.13	25788.02
641.27	26492.52
641.42	26614.23
641.57	26581.46
641.72	26457.42
641.86	26106.34
642.01	26632.96
642.16	26202.30
642.31	25928.45
642.45	26419.97
642.60	25860.58
642.75	26298.26
642.90	26223.36
643.04	26415.29
643.19	26178.89
643.34	25984.63
643.48	26239.75
643.63	26286.56
643.78	26567.42
643.93	26401.24
644.07	26490.18
644.22	26499.55
644.37	25921.43
644.51	26429.33
644.66	26001.01
644.81	26272.51
644.95	26178.89
645.10	26064.21
645.25	26038.46
645.39	25846.54
645.54	26309.96
645.69	25862.92
645.83	26162.51
645.98	26003.35
646.13	26024.42
646.27	26206.98
646.42	26043.14
646.57	25766.96
646.71	25895.69
646.86	25874.62
647.00	25675.68
647.15	25956.54
647.30	25785.68
647.44	25888.67
647.59	25703.76
647.74	25649.93
647.88	25874.62
648.03	25745.89
648.17	26291.24
648.32	25898.03
648.47	25909.73
648.61	25710.78
648.76	25790.36
648.90	25951.86
649.05	25680.36
649.20	25750.57
649.34	25734.19
649.49	25528.22
649.63	25560.99
649.78	25340.98
649.92	25116.29
650.07	25876.96
650.21	25397.15
650.36	25628.87
650.51	25666.31
650.65	25539.93
650.80	25687.38
650.94	25465.03
651.09	25570.35
651.23	25254.38
651.38	25729.51
651.52	24973.52
651.67	25474.39
651.81	25450.99
651.96	25537.59
652.10	25326.94
652.25	25539.93
652.39	25560.99
652.54	25315.23
652.68	25617.16
652.83	25509.50
652.97	25420.56
653.12	25654.61
653.26	25184.16
653.41	25057.78
653.55	25392.47
653.70	25235.66
653.84	25062.46
653.99	25219.27
654.13	25127.99
654.27	24973.52
654.42	25109.27
654.56	24971.18
654.71	25130.33
654.85	24861.17
655.00	25205.23
655.14	25085.86
655.29	25104.59
655.43	24805.00
655.57	25027.35
655.72	25266.08
655.86	25132.67
656.01	25476.73
656.15	24797.98
656.30	24353.27
656.44	24589.67
656.58	24673.93
656.73	24886.92
656.87	24999.26
657.01	25151.40
657.16	24769.89
657.30	24851.81
657.45	24673.93
657.59	24826.06
657.73	24680.95
657.88	24526.47
658.02	24678.61
658.16	24631.80
658.31	24334.55
658.45	24556.90
658.60	24402.43
658.74	24205.82
658.88	24163.69
659.03	24350.93
659.17	24596.69
659.31	24613.07
659.46	24561.58
659.60	24592.01
659.74	24367.32
659.89	24407.11
660.03	24182.42
660.17	24257.31
660.32	23910.91
660.46	23765.80
660.60	23899.21
660.74	23667.50
660.89	24027.94
661.03	23714.31
661.17	23983.47
661.32	24100.50
661.46	24201.14
661.60	24147.31
661.74	24114.54
661.89	24049.00
662.03	23814.95
662.17	24151.99
662.31	23704.95
662.46	23889.85
662.60	23620.69
662.74	23936.66
662.88	23583.24
663.03	23290.67
663.17	23496.64
663.31	23433.44
663.45	23468.55
663.60	23475.57
663.74	23424.08
663.88	23840.70
664.02	23639.41
664.17	23510.68
664.31	23360.89
664.45	23342.16
664.59	23318.76
664.73	23257.90
664.88	23101.09
665.02	23075.34
665.16	23171.30
665.30	22988.74
665.44	22923.21
665.59	23077.68
665.73	23346.84
665.87	23096.41
666.01	23353.87
666.15	22815.54
666.29	23161.94
666.44	23185.35
666.58	22679.79
666.72	22586.17
666.86	23077.68
667.00	22745.33
667.14	23147.90
667.28	22843.63
667.43	22670.43
667.57	22867.03
667.71	22796.82
667.85	22443.40
667.99	22263.18
668.13	22759.37
668.27	22651.70
668.41	22497.23
668.56	22572.13
668.70	22757.03
668.84	22309.99
668.98	22691.49
669.12	22398.93
669.26	22595.53
669.40	22211.68
669.54	22574.47
669.68	22473.82
669.82	22031.46
669.96	21804.43
670.10	21881.67
670.25	21755.28
670.39	21991.67
670.53	21755.28
670.67	21860.60
670.81	22244.45
670.95	21729.53
671.09	21970.61
671.23	21666.34
671.37	22029.12
671.51	22089.98
671.65	21757.62
671.79	21710.81
671.93	21443.99
672.07	21818.47
672.21	21341.00
672.35	21336.32
672.49	21228.66
672.63	21298.88
672.77	21277.81
672.91	21523.57
673.05	21156.10
673.19	21247.38
673.33	21490.80
673.47	21350.37
673.61	21509.52
673.75	21680.38
673.89	21476.76
674.03	21010.99
674.17	20992.26
674.31	21280.15
674.45	20900.98
674.59	21048.44
674.73	20905.66
674.87	20631.82
675.01	20805.02
675.15	20744.17
675.29	20439.90
675.43	20475.01
675.56	20404.79
675.70	20617.78
675.84	20482.03
675.98	20107.54
676.12	20610.76
676.26	20655.23
676.40	20247.97
676.54	20446.92
676.68	20458.62
676.82	19864.13
676.96	19695.61
677.10	20196.48
677.23	19939.02
677.37	19763.48
677.51	19763.48
677.65	19920.30
677.79	19632.41
677.93	19758.80
678.07	19538.79
678.21	19475.60
678.34	19534.11
678.48	19431.13
678.62	19405.38
678.76	19431.13
678.90	19241.54
679.04	19398.36
679.18	19271.97
679.31	19009.83
679.45	18698.54
679.59	19066.00
679.73	18939.62
679.87	18817.91
680.00	18707.90
680.14	19257.93
680.28	18712.58
680.42	18684.50
680.56	18534.70
680.70	18541.72
680.83	18829.61
680.97	18455.12
681.11	18569.81
681.25	18689.18
681.39	18429.38
681.52	18382.57
681.66	17942.55
681.80	18061.91
681.94	18263.20
682.07	18490.23
682.21	17738.92
682.35	17825.52
682.49	17603.17
682.62	17654.66
682.76	18082.98
682.90	17589.13
683.04	17809.14
683.17	17987.02
683.31	17549.34
683.45	17694.45
683.59	17654.66
683.72	17434.65
683.86	17518.91
684.00	17305.92
684.13	17090.59
684.27	17114.00
684.41	17039.10
684.55	17074.21
684.68	17053.14
684.82	16847.18
684.96	16891.65
685.09	16854.20
685.23	16734.83
685.37	16776.96
685.50	16994.63
685.64	16823.77
685.78	16912.71
685.91	16603.76
686.05	16622.48
686.19	16580.36
686.32	16465.67
686.46	16379.07
686.60	16575.67
686.73	16184.80
686.87	16126.29
687.01	16276.09
687.14	15946.07
687.28	15758.83
687.42	15992.88
687.55	16065.44
687.69	15793.94
687.82	15840.75
687.96	15997.56
688.10	15770.53
688.23	15679.25
688.37	15604.35
688.50	15690.95
688.64	15627.76
688.78	15536.48
688.91	15484.98
689.05	15384.34
689.18	15183.06
689.32	15138.58
689.46	15147.95
689.59	15136.24
689.73	14963.04
689.86	14944.32
690.00	15047.30
690.13	15040.28
690.27	14941.98
690.41	15213.48
690.54	14946.66
690.68	14974.75
690.81	14799.21
690.95	14953.68
691.08	14895.17
691.22	14291.31
691.35	14546.43
691.49	14761.76
691.62	14420.04
691.76	14438.76
691.89	14260.88
692.03	14356.85
692.16	14118.11
692.30	13965.98
692.43	13912.14
692.57	13771.71
692.70	14270.25
692.84	13783.41
692.97	13802.14
693.11	13858.31
693.24	13961.30
693.38	14001.08
693.51	13706.18
693.65	13706.18
693.78	13420.63
693.92	13593.83
694.05	13509.57
694.19	13116.36
694.32	13479.15
694.45	13432.33
694.59	13139.77
694.72	13092.96
694.86	13048.49
694.99	13011.04
695.13	12947.84
695.26	13095.30
695.39	12844.86
695.53	13188.92
695.66	12938.48
695.80	12901.03
695.93	12898.69
696.07	12737.20
696.20	12938.48
696.33	12615.49
696.47	12533.57
696.60	12589.74
696.73	12362.71
696.87	12346.33
697.00	12320.58
697.14	12390.80
697.27	12264.41
697.40	12163.76
697.54	12011.63
697.67	11974.18
697.80	12009.29
697.94	11969.50
698.07	11810.34
698.21	11758.85
698.34	12074.82
698.47	12020.99
698.61	11906.31
698.74	11871.20
698.87	11602.04
699.01	11641.82
699.14	11609.06
699.27	11456.92
699.40	11583.31
699.54	11576.29
699.67	11293.08
699.80	11421.81
699.94	11040.31
700.07	11274.36
700.20	10890.51
700.34	10979.45
700.47	10850.72
700.60	11143.29
700.73	11033.29
700.87	10956.05
701.00	10881.15
701.13	11052.01
701.26	10932.64
701.40	11112.86
701.53	10810.93
701.66	10867.11
701.79	10801.57
701.93	10785.19
702.06	10569.86
702.19	10565.18
702.32	10394.32
702.46	10401.34
702.59	10459.85
702.72	10209.42
702.85	10370.91
702.99	10221.12
703.12	10211.76
703.25	10015.15
703.38	9949.62
703.51	10139.20
703.65	10003.45
703.78	10209.42
703.91	10153.24
704.04	10169.63
704.17	9870.04
704.31	9921.53
704.44	9692.16
704.57	9856.00
704.70	9848.97
704.83	9425.34
704.96	9404.27
705.10	9427.68
705.23	9355.12
>>>>>End Processed Spectral Data<<<<<
