SpectraSuite Data File
++++++++++++++++++++++++++++++++++++
Date: Fri Oct 18 13:58:01 GMT-05:00 2013
User: bianchi
Dark Spectrum Present: No
Reference Spectrum Present: No
Number of Sampled Component Spectra: 1
Spectrometers: USB2+H05261
Integration Time (usec): 50000 (USB2+H05261)
Spectra Averaged: 1 (USB2+H05261)
Boxcar Smoothing: 0 (USB2+H05261)
Correct for Electrical Dark: No (USB2+H05261)
Strobe/Lamp Enabled: No (USB2+H05261)
Correct for Detector Non-linearity: No (USB2+H05261)
Correct for Stray Light: No (USB2+H05261)
Number of Pixels in Processed Spectrum: 2048
>>>>>Begin Processed Spectral Data<<<<<
365.73	0.00
365.92	0.00
366.12	0.00
366.32	0.00
366.52	0.00
366.72	0.00
366.91	0.00
367.11	0.00
367.31	0.00
367.51	0.00
367.70	0.00
367.90	0.00
368.10	0.00
368.30	0.00
368.49	0.00
368.69	0.00
368.89	0.00
369.09	0.00
369.28	0.00
369.48	0.00
369.68	0.00
369.87	0.00
370.07	0.00
370.27	0.00
370.47	0.00
370.66	79.58
370.86	91.28
371.06	138.09
371.25	67.88
371.45	128.73
371.65	194.26
371.84	81.92
372.04	201.29
372.24	184.90
372.44	173.20
372.63	212.99
372.83	322.99
373.03	163.84
373.22	212.99
373.42	259.80
373.62	175.54
373.81	241.08
374.01	269.16
374.21	212.99
374.40	248.10
374.60	311.29
374.79	269.16
374.99	182.56
375.19	313.63
375.38	306.61
375.58	205.97
375.78	334.70
375.97	215.33
376.17	297.25
376.37	334.70
376.56	297.25
376.76	269.16
376.95	245.76
377.15	325.33
377.35	220.01
377.54	201.29
377.74	278.52
377.93	208.31
378.13	175.54
378.33	299.59
378.52	238.73
378.72	330.02
378.91	294.91
379.11	299.59
379.31	243.42
379.50	346.40
379.70	320.65
379.89	308.95
380.09	276.18
380.28	290.23
380.48	362.78
380.68	379.17
380.87	308.95
381.07	330.02
381.26	339.38
381.46	358.10
381.65	290.23
381.85	320.65
382.04	383.85
382.24	386.19
382.43	418.96
382.63	379.17
382.83	320.65
383.02	425.98
383.22	292.57
383.41	330.02
383.61	381.51
383.80	339.38
384.00	437.68
384.19	397.89
384.39	374.49
384.58	332.36
384.78	400.23
384.97	341.72
385.17	355.76
385.36	397.89
385.56	409.59
385.75	304.27
385.95	395.55
386.14	404.91
386.34	409.59
386.53	454.06
386.72	355.76
386.92	472.79
387.11	367.46
387.31	348.74
387.50	472.79
387.70	365.12
387.89	390.87
388.09	411.93
388.28	425.98
388.48	430.66
388.67	400.23
388.86	447.04
389.06	435.34
389.25	550.03
389.45	477.47
389.64	447.04
389.84	486.83
390.03	526.62
390.22	496.19
390.42	447.04
390.61	449.38
390.81	493.85
391.00	512.58
391.19	526.62
391.39	505.56
391.58	491.51
391.78	498.53
391.97	601.52
392.16	552.37
392.36	545.34
392.55	498.53
392.75	440.02
392.94	503.22
393.13	538.32
393.33	489.17
393.52	575.77
393.71	533.64
393.91	535.98
394.10	643.65
394.29	550.03
394.49	531.30
394.68	578.11
394.88	550.03
395.07	470.45
395.26	533.64
395.46	655.35
395.65	608.54
395.84	631.94
396.04	657.69
396.23	610.88
396.42	568.75
396.62	688.12
396.81	636.63
397.00	564.07
397.19	681.10
397.39	685.78
397.58	557.05
397.77	617.90
397.97	711.52
398.16	730.25
398.35	739.61
398.55	718.54
398.74	645.99
398.93	767.70
399.12	716.20
399.32	706.84
399.51	737.27
399.70	819.19
399.90	760.67
400.09	732.59
400.28	748.97
400.47	732.59
400.67	805.14
400.86	730.25
401.05	800.46
401.24	746.63
401.44	734.93
401.63	704.50
401.82	854.30
402.01	861.32
402.21	826.21
402.40	819.19
402.59	800.46
402.78	805.14
402.97	866.00
403.17	770.04
403.36	826.21
403.55	931.53
403.74	809.83
403.93	870.68
404.13	835.57
404.32	880.04
404.51	950.26
404.70	936.21
404.89	908.13
405.09	959.62
405.28	954.94
405.47	861.32
405.66	968.98
405.85	896.43
406.05	896.43
406.24	966.64
406.43	1011.11
406.62	992.39
406.81	1039.20
407.00	1064.94
407.20	997.07
407.39	1008.77
407.58	943.24
407.77	1057.92
407.96	1128.14
408.15	1034.52
408.34	1083.67
408.54	1081.33
408.73	1167.93
408.92	1064.94
409.11	1109.41
409.30	1128.14
409.49	1074.31
409.68	1174.95
409.87	1039.20
410.07	1118.78
410.26	1144.52
410.45	1177.29
410.64	1156.22
410.83	1179.63
411.02	1191.33
411.21	1270.91
411.40	1254.53
411.59	1207.72
411.78	1287.29
411.98	1268.57
412.17	1238.14
412.36	1282.61
412.55	1284.95
412.74	1467.52
412.93	1406.66
413.12	1451.13
413.31	1369.21
413.50	1380.92
413.69	1397.30
413.88	1406.66
414.07	1425.39
414.26	1444.11
414.45	1490.92
414.64	1366.87
414.83	1462.83
415.02	1502.62
415.22	1542.41
415.41	1544.75
415.60	1589.22
415.79	1558.80
415.98	1631.35
416.17	1554.12
416.36	1561.14
416.55	1617.31
416.74	1699.23
416.93	1603.27
417.12	1710.93
417.31	1708.59
417.50	1699.23
417.69	1760.08
417.88	1746.04
418.07	1650.08
418.26	1710.93
418.45	1781.15
418.64	1856.04
418.83	1844.34
419.02	1783.49
419.21	1809.23
419.39	1853.70
419.58	1830.30
419.77	1867.75
419.96	1825.62
420.15	1830.30
420.34	1884.13
420.53	1813.92
420.72	1785.83
420.91	1966.05
421.10	1959.03
421.29	1966.05
421.48	1774.13
421.67	1928.60
421.86	1959.03
422.05	1905.20
422.24	1970.73
422.43	1961.37
422.61	2083.08
422.80	2038.61
422.99	1989.46
423.18	2050.31
423.37	2012.86
423.56	2040.95
423.75	2038.61
423.94	1909.88
424.13	1952.01
424.32	1893.49
424.50	2017.54
424.69	2024.56
424.88	2167.34
425.07	1968.39
425.26	1944.99
425.45	1933.28
425.64	1980.09
425.83	1947.33
426.01	2069.03
426.20	1947.33
426.39	2022.22
426.58	2052.65
426.77	2076.06
426.96	2076.06
427.15	2080.74
427.33	2045.63
427.52	2054.99
427.71	2181.38
427.90	2221.17
428.09	2104.14
428.28	2174.36
428.46	2289.04
428.65	2214.15
428.84	2186.06
429.03	2305.43
429.22	2122.87
429.40	2289.04
429.59	2204.78
429.78	2181.38
429.97	2169.68
430.16	2289.04
430.34	2342.88
430.53	2335.85
430.72	2303.09
430.91	2338.20
431.10	2270.32
431.28	2385.01
431.47	2326.49
431.66	2478.63
431.85	2387.35
432.03	2483.31
432.22	2473.95
432.41	2506.71
432.60	2452.88
432.79	2495.01
432.97	2455.22
433.16	2509.05
433.35	2452.88
433.54	2502.03
433.72	2513.74
433.91	2436.50
434.10	2590.97
434.28	2523.10
434.47	2567.57
434.66	2588.63
434.85	2576.93
435.03	2469.27
435.22	2698.64
435.41	2745.45
435.59	2614.38
435.78	2733.75
435.97	2558.21
436.16	2698.64
436.34	2715.02
436.53	2700.98
436.72	2902.26
436.90	2705.66
437.09	2771.19
437.28	2743.11
437.46	2649.49
437.65	2785.24
437.84	2818.00
438.02	2874.18
438.21	2930.35
438.40	2693.96
438.58	2846.09
438.77	2928.01
438.96	2871.84
439.14	2726.72
439.33	3077.80
439.52	2822.69
439.70	2942.05
439.89	2967.80
440.08	2991.20
440.26	3021.63
440.45	3000.57
440.63	3091.85
440.82	3038.02
441.01	3204.19
441.19	3103.55
441.38	3262.71
441.57	3150.36
441.75	3176.11
441.94	3253.34
442.12	3145.68
442.31	3293.13
442.50	3288.45
442.68	3276.75
442.87	3295.47
443.05	3353.99
443.24	3503.78
443.43	3339.94
443.61	3461.65
443.80	3508.46
443.98	3281.43
444.17	3353.99
444.35	3473.36
444.54	3492.08
444.73	3574.00
444.91	3433.57
445.10	3559.95
445.28	3456.97
445.47	3454.63
445.65	3414.84
445.84	3592.72
446.02	3520.17
446.21	3466.33
446.39	3463.99
446.58	3576.34
446.77	3344.63
446.95	3583.36
447.14	3634.85
447.32	3529.53
447.51	3536.55
447.69	3658.26
447.88	3609.11
448.06	3555.27
448.25	3398.46
448.43	3557.61
448.62	3574.00
448.80	3428.88
448.99	3555.27
449.17	3496.76
449.36	3583.36
449.54	3578.68
449.73	3478.04
449.91	3691.02
450.10	3688.68
450.28	3681.66
450.46	3634.85
450.65	3737.84
450.83	3838.48
451.02	3749.54
451.20	3719.11
451.39	3857.20
451.57	3737.84
451.76	3758.90
451.94	3742.52
452.13	3878.27
452.31	3833.80
452.49	3693.37
452.68	3871.25
452.86	4002.32
453.05	3941.46
453.23	3880.61
453.42	3918.06
453.60	3922.74
453.78	4074.87
453.97	3969.55
454.15	3927.42
454.34	3815.07
454.52	3983.59
454.70	4044.45
454.89	4060.83
455.07	3885.29
455.26	4011.68
455.44	4297.22
455.62	4086.58
455.81	4065.51
455.99	4133.39
456.17	4149.77
456.36	4154.45
456.54	4212.96
456.73	4297.22
456.91	4372.12
457.09	4425.95
457.28	4365.10
457.46	4285.52
457.64	4458.72
457.83	4442.34
458.01	4355.74
458.19	4535.96
458.38	4292.54
458.56	4500.85
458.74	4447.02
458.93	4496.17
459.11	4430.63
459.29	4458.72
459.48	4557.02
459.66	4564.04
459.84	4610.86
460.03	4463.40
460.21	4559.36
460.39	4470.42
460.57	4545.32
460.76	4585.11
460.94	4589.79
461.12	4463.40
461.31	4767.67
461.49	4702.14
461.67	4557.02
461.85	4734.90
462.04	4671.71
462.22	4959.60
462.40	4755.97
462.59	4753.63
462.77	4685.75
462.95	4865.97
463.13	4753.63
463.32	4751.29
463.50	4718.52
463.68	4835.55
463.86	4997.04
464.05	4870.65
464.23	4856.61
464.41	5032.15
464.59	4905.76
464.78	5046.20
464.96	4833.21
465.14	4959.60
465.32	5039.17
465.50	5025.13
465.69	5109.39
465.87	4973.64
466.05	4896.40
466.23	5116.41
466.41	5104.71
466.60	4894.06
466.78	5060.24
466.96	4973.64
467.14	4954.91
467.32	5118.75
467.51	5270.89
467.69	4873.00
467.87	5107.05
468.05	5170.24
468.23	5221.74
468.41	5085.98
468.60	5156.20
468.78	5324.72
468.96	5245.14
469.14	5373.87
469.32	5310.68
469.50	5219.39
469.69	5467.49
469.87	5439.40
470.05	5469.83
470.23	5331.74
470.41	5507.28
470.59	5551.75
470.77	5481.53
470.95	5563.45
471.14	5621.97
471.32	5472.17
471.50	5593.88
471.68	5593.88
471.86	5724.95
472.04	5582.18
472.22	5694.52
472.40	5654.73
472.58	5844.32
472.77	5874.74
472.95	5841.98
473.13	6031.56
473.31	5851.34
473.49	5799.85
473.67	5827.93
473.85	6001.13
474.03	6113.48
474.21	6040.92
474.39	6047.94
474.57	5849.00
474.75	6078.37
474.93	6260.93
475.12	6225.82
475.30	6363.92
475.48	6143.91
475.66	6164.97
475.84	6333.49
476.02	6284.34
476.20	6438.81
476.38	6471.58
476.56	6595.63
476.74	6661.16
476.92	6600.31
477.10	6647.12
477.28	6654.14
477.46	6825.00
477.64	6644.78
477.82	6839.05
478.00	7021.61
478.18	7026.29
478.36	7101.19
478.54	7035.65
478.72	7232.26
478.90	7094.16
479.08	7129.27
479.26	7365.67
479.44	7382.05
479.62	7398.43
479.80	7393.75
479.98	7445.24
480.16	7578.65
480.34	7433.54
480.52	7847.82
480.70	7686.32
480.88	7520.14
481.06	7873.56
481.24	7719.09
481.41	7705.04
481.59	7871.22
481.77	8065.49
481.95	8105.28
482.13	7922.71
482.31	8194.22
482.49	8301.88
482.67	8205.92
482.85	8360.39
483.03	8512.53
483.21	8493.80
483.39	8674.03
483.57	8676.37
483.74	8793.39
483.92	8849.57
484.10	8610.83
484.28	9034.47
484.46	9242.78
484.64	9252.14
484.82	9114.05
485.00	9170.22
485.18	9266.18
485.35	9523.64
485.53	9446.40
485.71	9462.79
485.89	9717.90
486.07	9523.64
486.25	9533.00
486.43	9762.37
486.61	9788.12
486.78	9919.19
486.96	9884.08
487.14	9980.04
487.32	10092.39
487.50	10167.29
487.68	10279.63
487.85	10340.49
488.03	10600.29
488.21	10553.48
488.39	10511.35
488.57	10637.73
488.75	10853.06
488.92	10810.93
489.10	11112.86
489.28	11206.48
489.46	11183.08
489.64	11133.93
489.81	11234.57
489.99	11391.39
490.17	11480.33
490.35	11527.14
490.53	11590.33
490.70	11845.45
490.88	11772.89
491.06	11882.90
491.24	11871.20
491.41	11857.15
491.59	11957.80
491.77	12241.00
491.95	12233.98
492.13	12540.59
492.30	12353.35
492.48	12102.91
492.66	12292.49
492.84	12259.73
493.01	12603.78
493.19	12645.91
493.37	12519.53
493.54	12613.15
493.72	12837.84
493.90	12821.45
494.08	13029.76
494.25	13095.30
494.43	13441.70
494.61	13348.08
494.79	13312.97
494.96	13408.93
495.14	13628.94
495.32	13687.45
495.49	13682.77
495.67	13626.60
495.85	13816.18
496.02	13799.80
496.20	13933.21
496.38	13954.27
496.55	13823.20
496.73	14176.62
496.91	14490.26
497.09	14312.38
497.26	14478.55
497.44	14389.61
497.62	14417.70
497.79	14796.87
497.97	14331.10
498.14	14820.27
498.32	14986.45
498.50	15028.58
498.67	15239.23
498.85	14939.64
499.03	14906.87
499.20	15049.64
499.38	15227.53
499.56	15353.91
499.73	15506.05
499.91	15342.21
500.08	15576.27
500.26	15442.85
500.44	15370.30
500.61	15400.72
500.79	15433.49
500.97	15906.28
501.14	15997.56
501.32	15922.66
501.49	16023.31
501.67	15995.22
501.84	15999.90
502.02	16065.44
502.20	16154.38
502.37	16271.40
502.55	16350.98
502.72	16425.88
502.90	16341.62
503.07	16161.40
503.25	16367.37
503.43	16489.07
503.60	16327.58
503.78	16727.81
503.95	16657.59
504.13	16465.67
504.30	17006.33
504.48	17050.80
504.65	16582.70
504.83	16872.92
505.01	17254.43
505.18	17109.32
505.36	17706.15
505.53	17071.87
505.71	17172.51
505.88	17165.49
506.06	17135.06
506.23	17291.88
506.41	17348.05
506.58	17626.57
506.76	17523.59
506.93	17329.33
507.11	17319.96
507.28	17783.39
507.46	17671.04
507.63	17799.77
507.81	18136.81
507.98	17961.27
508.16	17657.00
508.33	17722.54
508.50	17851.27
508.68	17998.72
508.85	18361.50
509.03	18408.31
509.20	18054.89
509.38	18370.86
509.55	18473.85
509.73	18331.08
509.90	18274.90
510.08	18548.75
510.25	18523.00
510.42	18665.77
510.60	18841.31
510.77	18981.74
510.95	18958.34
511.12	18815.57
511.30	18988.77
511.47	19068.34
511.64	19080.05
511.82	19316.44
511.99	19101.11
512.17	19321.12
512.34	19051.96
512.51	19520.07
512.69	19150.26
512.86	19424.11
513.04	19510.71
513.21	19524.75
513.38	19777.53
513.56	19559.86
513.73	19360.91
513.90	19784.55
514.08	19655.82
514.25	19782.21
514.43	19915.62
514.60	19999.88
514.77	20023.28
514.95	20032.65
515.12	19875.83
515.29	19814.98
515.47	19814.98
515.64	20107.54
515.81	20308.83
515.99	20226.91
516.16	20486.71
516.33	20505.43
516.51	20491.39
516.68	20311.17
516.85	20627.14
517.03	20547.56
517.20	20765.23
517.37	20741.83
517.54	20786.30
517.72	20608.42
517.89	20566.29
518.06	20868.22
518.24	20620.12
518.41	20908.01
518.58	21060.14
518.75	20947.79
518.93	21118.65
519.10	20959.50
519.27	21050.78
519.45	21146.74
519.62	21317.60
519.79	21326.96
519.96	21013.33
520.14	21467.39
520.31	21486.12
520.48	21453.35
520.65	21448.67
520.83	21284.83
521.00	21329.30
521.17	21481.44
521.34	21731.87
521.52	21790.39
521.69	21626.55
521.86	22174.24
522.03	22061.89
522.20	21867.63
522.38	21874.65
522.55	21738.90
522.72	21886.35
522.89	22160.19
523.07	22525.32
523.24	22139.13
523.41	22134.45
523.58	21986.99
523.75	22181.26
523.92	22129.77
524.10	22178.92
524.27	22125.08
524.44	22307.65
524.61	22448.08
524.78	22642.34
524.96	22480.85
525.13	22576.81
525.30	22710.22
525.47	22752.35
525.64	22602.55
525.81	22768.73
525.98	22913.84
526.16	22787.46
526.33	22869.37
526.50	23140.88
526.67	23051.94
526.84	22686.81
527.01	22810.86
527.18	23030.87
527.36	23133.86
527.53	23281.31
527.70	23721.33
527.87	23381.95
528.04	23391.31
528.21	23278.97
528.38	23480.25
528.55	23173.64
528.72	23171.30
528.89	23763.46
529.07	23545.79
529.24	23531.75
529.41	23550.47
529.58	23681.54
529.75	23571.54
529.92	23854.74
530.09	23744.73
530.26	23454.51
530.43	23777.50
530.60	23845.38
530.77	23974.11
530.94	23941.34
531.11	23967.09
531.28	23992.83
531.46	24226.89
531.63	23871.12
531.80	23899.21
531.97	24460.94
532.14	24269.01
532.31	24240.93
532.48	24198.80
532.65	24498.39
532.82	24203.48
532.99	24170.71
533.16	24327.53
533.33	24702.01
533.50	24933.73
533.67	24610.73
533.84	24835.42
534.01	24372.00
534.18	24341.57
534.35	24634.14
534.52	24629.46
534.69	25015.65
534.86	25036.71
535.03	24496.05
535.20	24790.95
535.37	25216.93
535.54	25184.16
535.71	24599.03
535.88	25167.78
536.05	24694.99
536.22	25095.22
536.38	25074.16
536.55	25465.03
536.72	25289.49
536.89	24957.13
537.06	24968.84
537.23	25081.18
537.40	24996.92
537.57	25266.08
537.74	25326.94
537.91	25745.89
538.08	25682.70
538.25	25146.72
538.42	25799.73
538.59	25696.74
538.75	25170.12
538.92	25436.94
539.09	25724.83
539.26	25790.36
539.43	25752.91
539.60	25439.28
539.77	25696.74
539.94	26073.57
540.11	25692.06
540.28	25701.42
540.44	25851.22
540.61	25486.09
540.78	25689.72
540.95	25921.43
541.12	25916.75
541.29	26012.71
541.46	26010.37
541.62	25865.26
541.79	26066.55
541.96	25919.09
542.13	26029.10
542.30	26064.21
542.47	26061.87
542.63	26305.28
542.80	26497.20
542.97	26602.53
543.14	26551.04
543.31	26235.06
543.48	26522.95
543.64	26778.07
543.81	26806.16
543.98	26836.58
544.15	26803.82
544.32	26806.16
544.48	26796.79
544.65	26881.05
544.82	26899.78
544.99	26551.04
545.16	26717.22
545.32	27065.96
545.49	27021.48
545.66	26897.44
545.83	27068.30
546.00	27356.18
546.16	26705.51
546.33	27112.77
546.50	26689.13
546.67	27016.80
546.83	26682.11
547.00	27002.76
547.17	26857.65
547.34	27023.83
547.50	27058.93
547.67	27054.25
547.84	27218.09
548.00	27185.32
548.17	27367.88
548.34	27222.77
548.51	27538.74
548.67	27646.41
548.84	27470.87
549.01	27234.47
549.18	27402.99
549.34	27501.29
549.51	27690.88
549.68	27482.57
549.84	27222.77
550.01	27398.31
550.18	27393.63
550.34	27828.97
550.51	28079.41
550.68	27814.93
550.84	27594.92
551.01	27845.35
551.18	27353.84
551.34	27800.88
551.51	27707.26
551.68	28250.27
551.84	28034.94
552.01	27971.74
552.18	27857.06
552.34	27946.00
552.51	27838.33
552.68	27718.96
552.84	28215.16
553.01	28095.79
553.18	28187.07
553.34	28514.75
553.51	28381.34
553.67	28194.09
553.84	28615.39
554.01	28496.02
554.17	27962.38
554.34	28409.42
554.51	28013.87
554.67	28254.95
554.84	28355.59
555.00	28294.74
555.17	28456.23
555.33	28687.95
555.50	28379.00
555.67	28311.12
555.83	28084.09
556.00	28587.30
556.16	28650.50
556.33	28489.00
556.50	28573.26
556.66	28453.89
556.83	28364.95
556.99	28701.99
557.16	28748.80
557.32	28765.18
557.49	28826.04
557.65	28329.84
557.82	28685.61
557.98	28074.73
558.15	28833.06
558.32	28797.95
558.48	28683.27
558.65	28751.14
558.81	28823.70
558.98	28601.35
559.14	28905.62
559.31	29071.79
559.47	28975.83
559.64	29027.32
559.80	29024.98
559.97	29322.23
560.13	29097.54
560.30	28982.85
560.46	28982.85
560.63	28910.30
560.79	28905.62
560.96	29186.48
561.12	28905.62
561.29	28842.42
561.45	29104.56
561.61	28835.40
561.78	29167.76
561.94	28898.59
562.11	29546.92
562.27	29319.89
562.44	28847.10
562.60	29167.76
562.77	29212.23
562.93	28987.53
563.10	29851.19
563.26	29078.82
563.42	29469.69
563.59	29771.61
563.75	29397.13
563.92	29303.51
564.08	29151.37
564.24	29191.16
564.41	29064.77
564.57	29310.53
564.74	29235.63
564.90	29626.50
565.07	29682.67
565.23	29647.57
565.39	29282.44
565.56	29633.52
565.72	29427.56
565.88	29518.84
566.05	29095.20
566.21	29179.46
566.38	29069.45
566.54	29322.23
566.70	29401.81
566.87	29303.51
567.03	29324.57
567.19	29504.79
567.36	29610.12
567.52	29551.60
567.68	29853.53
567.85	29315.21
568.01	29986.94
568.17	29713.10
568.34	29465.00
568.50	29563.31
568.66	29509.47
568.83	29890.98
568.99	29544.58
569.15	29935.45
569.32	29818.42
569.48	29017.96
569.64	29497.77
569.81	29677.99
569.97	29577.35
570.13	29921.41
570.30	29343.30
570.46	29397.13
570.62	29457.98
570.78	29556.28
570.95	29647.57
571.11	29741.19
571.27	29610.12
571.43	29446.28
571.60	29532.88
571.76	29694.38
571.92	30003.33
572.09	29600.76
572.25	29874.60
572.41	29783.32
572.57	30139.08
572.74	29998.65
572.90	29701.40
573.06	29472.03
573.22	29586.71
573.38	29860.55
573.55	29621.82
573.71	30106.31
573.87	30043.12
574.03	29895.66
574.20	29841.83
574.36	29467.34
574.52	29970.56
574.68	30082.91
574.84	29694.38
575.01	29844.17
575.17	29912.05
575.33	29811.40
575.49	30015.03
575.65	30113.33
575.82	30089.93
575.98	30148.44
576.14	30005.67
576.30	29811.40
576.46	29937.79
576.62	29888.64
576.79	29720.12
576.95	30134.40
577.11	29989.28
577.27	30263.13
577.43	30281.85
577.59	29919.07
577.75	30340.36
577.92	29837.15
578.08	29755.23
578.24	29717.78
578.40	30057.16
578.56	30181.21
578.72	30295.89
578.88	30394.20
579.04	30164.82
579.21	30232.70
579.37	30010.35
579.53	30106.31
579.69	29764.59
579.85	29940.13
580.01	29970.56
580.17	29654.59
580.33	29773.95
580.49	29935.45
580.65	29986.94
580.82	30352.07
580.98	30338.02
581.14	30108.65
581.30	30148.44
581.46	29858.21
581.62	30115.67
581.78	29713.10
581.94	30075.88
582.10	29909.71
582.26	29834.81
582.42	30307.60
582.58	30101.63
582.74	29970.56
582.90	30235.04
583.06	30515.90
583.22	30452.71
583.38	29965.88
583.54	30164.82
583.70	30127.38
583.86	30342.70
584.02	30008.01
584.18	30052.48
584.34	30328.66
584.50	30256.11
584.66	29848.85
584.82	30101.63
584.98	30543.99
585.14	29738.85
585.30	29975.24
585.46	29825.45
585.62	29797.36
585.78	30213.98
585.94	29830.13
586.10	30288.87
586.26	30328.66
586.42	30518.25
586.58	30548.67
586.74	30347.39
586.90	29717.78
587.06	30103.97
587.22	30352.07
587.38	30080.56
587.54	30242.06
587.70	30349.73
587.86	30251.42
588.02	30433.99
588.18	30368.45
588.34	30658.68
588.49	30455.05
588.65	30230.36
588.81	29951.84
588.97	30431.65
589.13	30368.45
589.29	30469.09
589.45	30562.72
589.61	30319.30
589.77	30522.93
589.93	30707.83
590.08	30623.57
590.24	30560.37
590.40	31061.25
590.56	30536.97
590.72	30520.59
590.88	30384.83
591.04	30384.83
591.20	30635.27
591.35	30883.37
591.51	30728.89
591.67	30920.82
591.83	30712.51
591.99	31012.10
592.15	30602.50
592.31	30452.71
592.46	30356.75
592.62	30574.42
592.78	30569.74
592.94	30611.87
593.10	30429.30
593.26	30654.00
593.41	30604.84
593.57	30511.22
593.73	30567.40
593.89	30656.34
594.05	30827.20
594.20	30623.57
594.36	31002.74
594.52	30700.81
594.68	30766.34
594.84	30558.03
594.99	30864.64
595.15	30717.19
595.31	30621.23
595.47	30628.25
595.62	30792.09
595.78	30569.74
595.94	30752.30
596.10	30864.64
596.25	30284.19
596.41	30490.16
596.57	30513.56
596.73	30862.30
596.88	30469.09
597.04	30682.08
597.20	30962.95
597.36	30934.86
597.51	31026.14
597.67	30761.66
597.83	30965.29
597.99	30909.11
598.14	30419.94
598.30	30801.45
598.46	30656.34
598.61	31204.02
598.77	30639.95
598.93	30759.32
599.09	30984.01
599.24	31072.95
599.40	30794.43
599.56	30693.79
599.71	30937.20
599.87	31175.94
600.03	31152.53
600.18	30927.84
600.34	30794.43
600.50	30668.04
600.65	30279.51
600.81	31014.44
600.97	30937.20
601.12	30845.92
601.28	31180.62
601.44	30829.54
601.59	30972.31
601.75	30866.98
601.91	30951.24
602.06	30717.19
602.22	30869.33
602.37	30712.51
602.53	30859.96
602.69	30934.86
602.84	30965.29
603.00	30817.83
603.16	30740.60
603.31	30787.41
603.47	30969.97
603.62	30796.77
603.78	31009.76
603.94	31002.74
604.09	30728.89
604.25	30785.07
604.40	30473.78
604.56	30752.30
604.71	30775.70
604.87	30789.75
605.03	31330.41
605.18	30749.96
605.34	30972.31
605.49	30742.94
605.65	30759.32
605.80	30637.61
605.96	30581.44
606.12	30813.15
606.27	30649.32
606.43	30649.32
606.58	30890.39
606.74	31189.98
606.89	30611.87
607.05	30878.69
607.20	30752.30
607.36	30625.91
607.51	30738.26
607.67	30272.49
607.82	30347.39
607.98	30637.61
608.13	30848.26
608.29	30958.27
608.44	30841.24
608.60	30663.36
608.75	30483.14
608.91	30885.71
609.06	30576.76
609.22	30609.53
609.37	30323.98
609.53	30731.23
609.68	30232.70
609.84	30656.34
609.99	30373.13
610.15	30307.60
610.30	30448.03
610.46	30698.47
610.61	30651.66
610.76	30410.58
610.92	30836.56
611.07	30316.96
611.23	30298.23
611.38	30698.47
611.54	30394.20
611.69	30288.87
611.84	30363.77
612.00	30375.47
612.15	30422.28
612.31	30347.39
612.46	30499.52
612.62	30213.98
612.77	30714.85
612.92	30487.82
613.08	30396.54
613.23	30562.72
613.39	30185.89
613.54	30221.00
613.69	30401.22
613.85	30160.14
614.00	30597.82
614.15	30246.74
614.31	30141.42
614.46	30403.56
614.62	30494.84
614.77	30431.65
614.92	30228.02
615.08	30485.48
615.23	30396.54
615.38	30366.11
615.54	29766.93
615.69	29944.81
615.84	29813.74
616.00	30298.23
616.15	30026.73
616.30	30185.89
616.46	30096.95
616.61	30204.61
616.76	30099.29
616.92	30213.98
617.07	29834.81
617.22	30005.67
617.37	29820.77
617.53	30141.42
617.68	29523.52
617.83	29469.69
617.99	29759.91
618.14	29837.15
618.29	29837.15
618.45	29949.50
618.60	29734.17
618.75	30108.65
618.90	29895.66
619.06	30483.14
619.21	29488.41
619.36	29731.83
619.51	30075.88
619.67	29631.18
619.82	29469.69
619.97	29841.83
620.12	29378.40
620.28	29237.97
620.43	29771.61
620.58	29790.34
620.73	29809.06
620.89	29799.70
621.04	29549.26
621.19	29806.72
621.34	29378.40
621.49	29563.31
621.65	29371.38
621.80	29415.85
621.95	29563.31
622.10	29479.05
622.25	29282.44
622.41	28996.90
622.56	29839.49
622.71	29888.64
622.86	29277.76
623.01	29546.92
623.16	29149.03
623.32	29350.32
623.47	29109.24
623.62	29186.48
623.77	29134.99
623.92	29612.46
624.07	29193.50
624.23	29345.64
624.38	29481.39
624.53	29357.34
624.68	29434.58
624.83	29579.69
624.98	29106.90
625.13	29277.76
625.29	29294.14
625.44	29223.93
625.59	28903.28
625.74	29081.16
625.89	29053.07
626.04	29097.54
626.19	29174.78
626.34	28870.51
626.49	28491.34
626.65	28994.56
626.80	29287.12
626.95	29064.77
627.10	28758.16
627.25	28797.95
627.40	28943.06
627.55	28507.72
627.70	28584.96
627.85	28591.98
628.00	28531.13
628.15	28854.12
628.30	28905.62
628.45	28968.81
628.60	28496.02
628.76	29046.05
628.91	28711.35
629.06	28606.03
629.21	28687.95
629.36	28524.11
629.51	28416.44
629.66	28577.94
629.81	28268.99
629.96	28444.53
630.11	28837.74
630.26	28699.65
630.41	27999.83
630.56	28369.63
630.71	28582.62
630.86	28594.32
631.01	28594.32
631.16	28837.74
631.31	28615.39
631.46	28058.34
631.61	28374.31
631.76	28451.55
631.91	28315.80
632.06	28144.94
632.21	28018.55
632.36	28123.88
632.51	27924.93
632.66	28479.64
632.81	28093.45
632.96	28191.75
633.10	28088.77
633.25	28041.96
633.40	28231.54
633.55	28336.87
633.70	28053.66
633.85	27850.03
634.00	28016.21
634.15	28329.84
634.30	28287.71
634.45	27793.86
634.60	27772.80
634.75	28126.22
634.90	27903.87
635.05	28020.89
635.19	27803.22
635.34	28051.32
635.49	27559.81
635.64	28088.77
635.79	27730.67
635.94	27988.13
636.09	27784.50
636.24	27580.87
636.39	27674.49
636.53	27508.32
636.68	27510.66
636.83	27529.38
636.98	28194.09
637.13	27473.21
637.28	28135.58
637.43	27885.14
637.57	27917.91
637.72	27826.63
637.87	27592.58
638.02	27571.51
638.17	27627.68
638.32	27566.83
638.46	27524.70
638.61	27124.47
638.76	27089.36
638.91	27470.87
639.06	27445.12
639.20	27541.08
639.35	27744.71
639.50	27744.71
639.65	27735.35
639.80	27400.65
639.94	27665.13
640.09	27379.59
640.24	27749.39
640.39	27419.38
640.54	26906.80
640.68	27197.02
640.83	27494.27
640.98	27089.36
641.13	26925.52
641.27	27482.57
641.42	27042.55
641.57	27290.65
641.72	27030.85
641.86	27271.92
642.01	27117.45
642.16	26998.08
642.31	26794.45
642.45	27253.20
642.60	26878.71
642.75	26993.40
642.90	26661.04
643.04	26962.97
643.19	26937.23
643.34	27058.93
643.48	27054.25
643.63	27040.21
643.78	26969.99
643.93	27140.85
644.07	26817.86
644.22	27126.81
644.37	26813.18
644.51	27269.58
644.66	26738.28
644.81	26899.78
644.95	26799.13
645.10	26630.62
645.25	27112.77
645.39	26455.08
645.54	26277.19
645.69	26714.87
645.83	26759.34
645.98	26796.79
646.13	26682.11
646.27	26740.62
646.42	26827.22
646.57	26513.59
646.71	26691.47
646.86	26487.84
647.00	26714.87
647.15	26431.67
647.30	26279.54
647.44	26218.68
647.59	26623.59
647.74	26553.38
647.88	26434.01
648.03	26663.38
648.17	26766.37
648.32	26497.20
648.47	26768.71
648.61	26625.93
648.76	26483.16
648.90	26644.66
649.05	26302.94
649.20	26206.98
649.34	26216.34
649.49	26061.87
649.63	26377.84
649.78	26396.56
649.92	26190.59
650.07	26382.52
650.21	26125.06
650.36	26363.79
650.51	26239.75
650.65	26267.83
650.80	26281.88
650.94	26307.62
651.09	26005.69
651.23	25963.56
651.38	25853.56
651.52	26218.68
651.67	26160.17
651.81	26078.25
651.96	26141.44
652.10	26043.14
652.25	25816.11
652.39	26218.68
652.54	26171.87
652.68	25949.52
652.83	25905.05
652.97	26010.37
653.12	25951.86
653.26	25940.16
653.41	25935.48
653.55	25703.76
653.70	25617.16
653.84	25759.94
653.99	25692.06
654.13	25722.49
654.27	25905.05
654.42	25792.70
654.56	25453.33
654.71	25958.88
654.85	25680.36
655.00	25848.88
655.14	25582.06
655.29	25675.68
655.43	25816.11
655.57	25586.74
655.72	25776.32
655.86	25605.46
656.01	25671.00
656.15	25455.67
656.30	25654.61
656.44	25912.07
656.58	25628.87
656.73	25511.84
656.87	25472.05
657.01	25221.61
657.16	25600.78
657.30	25799.73
657.45	25392.47
657.59	25591.42
657.73	25207.57
657.88	25252.04
658.02	25558.65
658.16	25413.54
658.31	25071.82
658.45	25027.35
658.60	24954.79
658.74	25132.67
658.88	25191.19
659.03	24893.94
659.17	25261.40
659.31	25397.15
659.46	25048.41
659.60	25006.28
659.74	25123.31
659.89	24694.99
660.03	24982.88
660.17	25240.34
660.32	24645.84
660.46	24699.67
660.60	24807.34
660.74	24884.58
660.89	24489.03
661.03	24360.30
661.17	24992.24
661.32	24584.99
661.46	24709.04
661.60	24828.40
661.74	24606.05
661.89	24992.24
662.03	24758.19
662.17	24177.73
662.31	24463.28
662.46	24547.54
662.60	24631.80
662.74	24271.36
662.88	24285.40
663.03	24414.13
663.17	24229.23
663.31	23971.77
663.45	24180.07
663.60	24573.28
663.74	24091.13
663.88	24041.98
664.02	24233.91
664.17	24254.97
664.31	23946.02
664.45	23931.98
664.59	23931.98
664.73	23868.78
664.88	24086.45
665.02	23641.75
665.16	23482.59
665.30	23545.79
665.44	23889.85
665.59	23613.66
665.73	23765.80
665.87	23447.49
666.01	23887.51
666.15	23503.66
666.29	23735.37
666.44	23789.20
666.58	23484.94
666.72	23440.47
666.86	23910.91
667.00	23393.65
667.14	23749.42
667.28	23398.34
667.43	23152.58
667.57	23480.25
667.71	23185.35
667.85	23374.93
667.99	23110.45
668.13	23330.46
668.27	23213.43
668.41	23501.32
668.56	22864.69
668.70	23033.21
668.84	23250.88
668.98	22979.38
669.12	23042.57
669.26	23110.45
669.40	22995.76
669.54	23374.93
669.68	22691.49
669.82	23002.78
669.96	22600.21
670.10	22656.39
670.25	22237.43
670.39	22553.40
670.53	22293.60
670.67	22279.56
670.81	22759.37
670.95	22455.10
671.09	22607.23
671.23	22314.67
671.37	22457.44
671.51	22354.46
671.65	22106.36
671.79	22583.83
671.93	22309.99
672.07	22291.26
672.21	21958.91
672.35	21984.65
672.49	21837.20
672.63	21991.67
672.77	21762.30
672.91	21970.61
673.05	21685.06
673.19	21858.26
673.33	21986.99
673.47	21884.01
673.61	22160.19
673.75	21926.14
673.89	21961.25
674.03	21586.76
674.17	21774.00
674.31	21741.24
674.45	21596.12
674.59	21572.72
674.73	21565.70
674.87	21399.52
675.01	21231.00
675.15	21041.42
675.29	21034.39
675.43	21146.74
675.56	21411.22
675.70	21259.09
675.84	21048.44
675.98	20629.48
676.12	21163.12
676.26	21067.16
676.40	21139.72
676.54	20915.03
676.68	20690.34
676.82	20542.88
676.96	20500.75
677.10	20793.32
677.23	20472.67
677.37	20552.24
677.51	20486.71
677.65	20166.06
677.79	20226.91
677.93	20037.33
678.07	20034.99
678.21	20018.60
678.34	20189.46
678.48	20074.77
678.62	19810.29
678.76	19758.80
678.90	19789.23
679.04	19686.25
679.18	20060.73
679.31	19482.62
679.45	19030.90
679.59	19337.51
679.73	19616.03
679.87	19377.30
680.00	19410.06
680.14	19400.70
680.28	19555.18
680.42	19131.54
680.56	19150.26
680.70	19323.46
680.83	19363.25
680.97	18972.38
681.11	19030.90
681.25	18845.99
681.39	18689.18
681.52	19030.90
681.66	18625.98
681.80	18796.84
681.94	18333.42
682.07	18618.96
682.21	18405.97
682.35	18214.05
682.49	18396.61
682.62	18389.59
682.76	18197.67
682.90	18312.35
683.04	18438.74
683.17	18422.36
683.31	18192.98
683.45	18438.74
683.59	18120.43
683.72	18141.49
683.86	17898.08
684.00	17933.18
684.13	17682.75
684.27	17479.12
684.41	17547.00
684.55	17364.43
684.68	17444.01
684.82	17708.49
684.96	17509.55
685.09	17504.87
685.23	17453.37
685.37	17268.47
685.50	17324.65
685.64	17315.28
685.78	17357.41
685.91	17394.86
686.05	17207.62
686.19	17034.42
686.32	16896.33
686.46	16699.72
686.60	16666.95
686.73	16954.84
686.87	16762.92
687.01	16753.55
687.14	16615.46
687.28	16692.70
687.42	16596.74
687.55	16437.58
687.69	16542.91
687.82	16294.81
687.96	16526.52
688.10	16056.08
688.23	16145.02
688.37	16561.63
688.50	15999.90
688.64	16063.10
688.78	16154.38
688.91	15770.53
689.05	15932.03
689.18	15630.10
689.32	15503.71
689.46	15316.47
689.59	15463.92
689.73	15627.76
689.86	15524.77
690.00	15484.98
690.13	15662.86
690.27	15183.06
690.41	15580.95
690.54	15178.37
690.68	15129.22
690.81	15136.24
690.95	15236.89
691.08	15243.91
691.22	15136.24
691.35	15101.14
691.49	14829.63
691.62	14885.81
691.76	14918.57
691.89	14654.09
692.03	14548.77
692.16	14324.08
692.30	14544.09
692.43	14448.13
692.57	14567.49
692.70	14349.82
692.84	14347.48
692.97	14073.64
693.11	14345.14
693.24	14272.59
693.38	14174.28
693.51	14169.60
693.65	14169.60
693.78	13923.85
693.92	14090.02
694.05	13933.21
694.19	13795.12
694.32	13802.14
694.45	13607.87
694.59	13514.25
694.72	13614.90
694.86	13453.40
694.99	13493.19
695.13	13570.43
695.26	13186.58
695.39	13188.92
695.53	13219.35
695.66	13474.46
695.80	13034.44
695.93	13083.59
696.07	13352.76
696.20	13170.19
696.33	13312.97
696.47	12894.01
696.60	12769.96
696.73	13036.78
696.87	12781.67
697.00	12968.91
697.14	12908.05
697.27	12339.30
697.40	12659.96
697.54	12524.21
697.67	12472.71
697.80	12175.47
697.94	12365.05
698.07	12283.13
698.21	12241.00
698.34	12308.88
698.47	12180.15
698.61	12116.95
698.74	12208.23
698.87	12173.13
699.01	12072.48
699.14	12009.29
699.27	11831.41
699.40	11845.45
699.54	11775.24
699.67	11962.48
699.80	11639.48
699.94	11515.44
700.07	11529.48
700.20	11447.56
700.34	11323.51
700.47	11391.39
700.60	11360.96
700.73	11583.31
700.87	11412.45
701.00	11035.63
701.13	11185.42
701.26	11410.11
701.40	11323.51
701.53	11164.36
701.66	11248.61
701.79	10977.11
701.93	11019.24
702.06	10925.62
702.19	10827.32
702.32	10817.96
702.46	10721.99
702.59	10478.58
702.72	10644.76
702.85	10668.16
702.99	10766.46
703.12	10525.39
703.25	10420.06
703.38	10380.28
703.51	10293.68
703.65	10377.94
703.78	10401.34
703.91	10270.27
704.04	10307.72
704.17	10314.74
704.31	10317.08
704.44	10207.08
704.57	10076.01
704.70	9844.29
704.83	9961.32
704.96	9902.81
705.10	9708.54
705.23	9657.05
>>>>>End Processed Spectral Data<<<<<
