SpectraSuite Data File
++++++++++++++++++++++++++++++++++++
Date: Fri Oct 18 13:58:41 GMT-05:00 2013
User: bianchi
Dark Spectrum Present: No
Reference Spectrum Present: No
Number of Sampled Component Spectra: 1
Spectrometers: USB2+H05261
Integration Time (usec): 50000 (USB2+H05261)
Spectra Averaged: 1 (USB2+H05261)
Boxcar Smoothing: 0 (USB2+H05261)
Correct for Electrical Dark: No (USB2+H05261)
Strobe/Lamp Enabled: No (USB2+H05261)
Correct for Detector Non-linearity: No (USB2+H05261)
Correct for Stray Light: No (USB2+H05261)
Number of Pixels in Processed Spectrum: 2048
>>>>>Begin Processed Spectral Data<<<<<
365.73	0.00
365.92	0.00
366.12	0.00
366.32	0.00
366.52	0.00
366.72	0.00
366.91	0.00
367.11	0.00
367.31	0.00
367.51	0.00
367.70	0.00
367.90	0.00
368.10	0.00
368.30	0.00
368.49	0.00
368.69	0.00
368.89	0.00
369.09	0.00
369.28	0.00
369.48	0.00
369.68	0.00
369.87	0.00
370.07	0.00
370.27	0.00
370.47	0.00
370.66	140.43
370.86	121.71
371.06	194.26
371.25	142.77
371.45	140.43
371.65	220.01
371.84	163.84
372.04	168.52
372.24	243.42
372.44	194.26
372.63	191.92
372.83	241.08
373.03	203.63
373.22	203.63
373.42	81.92
373.62	285.55
373.81	271.50
374.01	262.14
374.21	191.92
374.40	147.45
374.60	250.44
374.79	227.03
374.99	271.50
375.19	297.25
375.38	231.71
375.58	201.29
375.78	170.86
375.97	236.39
376.17	360.44
376.37	238.73
376.56	264.48
376.76	327.68
376.95	241.08
377.15	250.44
377.35	234.05
377.54	280.86
377.74	217.67
377.93	243.42
378.13	231.71
378.33	287.89
378.52	255.12
378.72	318.31
378.91	264.48
379.11	322.99
379.31	306.61
379.50	227.03
379.70	278.52
379.89	334.70
380.09	271.50
380.28	264.48
380.48	313.63
380.68	369.80
380.87	304.27
381.07	315.97
381.26	285.55
381.46	388.53
381.65	294.91
381.85	255.12
382.04	315.97
382.24	386.19
382.43	348.74
382.63	299.59
382.83	337.04
383.02	372.15
383.22	318.31
383.41	425.98
383.61	362.78
383.80	425.98
384.00	264.48
384.19	304.27
384.39	322.99
384.58	379.17
384.78	358.10
384.97	334.70
385.17	327.68
385.36	402.57
385.56	355.76
385.75	388.53
385.95	355.76
386.14	395.55
386.34	400.23
386.53	437.68
386.72	386.19
386.92	404.91
387.11	454.06
387.31	418.96
387.50	402.57
387.70	451.72
387.89	489.17
388.09	472.79
388.28	482.15
388.48	416.62
388.67	470.45
388.86	397.89
389.06	451.72
389.25	369.80
389.45	411.93
389.64	402.57
389.84	528.96
390.03	383.85
390.22	447.04
390.42	500.87
390.61	411.93
390.81	500.87
391.00	526.62
391.19	505.56
391.39	540.66
391.58	503.22
391.78	554.71
391.97	528.96
392.16	470.45
392.36	575.77
392.55	519.60
392.75	493.85
392.94	484.49
393.13	571.09
393.33	526.62
393.52	545.34
393.71	512.58
393.91	601.52
394.10	533.64
394.29	603.86
394.49	540.66
394.68	582.79
394.88	648.33
395.07	603.86
395.26	606.20
395.46	547.69
395.65	561.73
395.84	547.69
396.04	617.90
396.23	608.54
396.42	571.09
396.62	699.82
396.81	622.58
397.00	669.39
397.19	723.23
397.39	704.50
397.58	706.84
397.77	610.88
397.97	660.03
398.16	699.82
398.35	704.50
398.55	697.48
398.74	678.76
398.93	744.29
399.12	660.03
399.32	669.39
399.51	690.46
399.70	763.01
399.90	718.54
400.09	727.91
400.28	739.61
400.47	720.88
400.67	805.14
400.86	807.48
401.05	784.08
401.24	772.38
401.44	786.42
401.63	863.66
401.82	737.27
402.01	788.76
402.21	866.00
402.40	828.55
402.59	837.91
402.78	777.06
402.97	856.64
403.17	854.30
403.36	903.45
403.55	807.48
403.74	849.61
403.93	828.55
404.13	901.11
404.32	910.47
404.51	926.85
404.70	908.13
404.89	884.72
405.09	1039.20
405.28	959.62
405.47	978.34
405.66	954.94
405.85	966.64
406.05	889.40
406.24	1032.18
406.43	912.81
406.62	1006.43
406.81	945.58
407.00	954.94
407.20	908.13
407.39	992.39
407.58	905.79
407.77	1060.26
407.96	1008.77
408.15	1029.84
408.34	973.66
408.54	1055.58
408.73	1057.92
408.92	1149.20
409.11	1111.75
409.30	1167.93
409.49	1001.75
409.68	1032.18
409.87	1123.46
410.07	1130.48
410.26	1123.46
410.45	1186.65
410.64	1172.61
410.83	1252.19
411.02	1266.23
411.21	1240.48
411.40	1172.61
411.59	1203.04
411.78	1203.04
411.98	1275.59
412.17	1214.74
412.36	1357.51
412.55	1308.36
412.74	1277.93
412.93	1324.74
413.12	1284.95
413.31	1469.86
413.50	1357.51
413.69	1345.81
413.88	1401.98
414.07	1493.26
414.26	1472.20
414.45	1378.58
414.64	1418.36
414.83	1490.92
415.02	1486.24
415.22	1469.86
415.41	1568.16
415.60	1547.09
415.79	1526.03
415.98	1458.15
416.17	1528.37
416.36	1582.20
416.55	1739.02
416.74	1701.57
416.93	1610.29
417.12	1654.76
417.31	1703.91
417.50	1654.76
417.69	1708.59
417.88	1675.82
418.07	1701.57
418.26	1722.63
418.45	1652.42
418.64	1813.92
418.83	1799.87
419.02	1769.44
419.21	1806.89
419.39	1736.68
419.58	1757.74
419.77	1783.49
419.96	1722.63
420.15	1806.89
420.34	1867.75
420.53	1837.32
420.72	1895.83
420.91	1919.24
421.10	1799.87
421.29	1907.54
421.48	1898.17
421.67	1914.56
421.86	1944.99
422.05	1912.22
422.24	1947.33
422.43	1954.35
422.61	1987.11
422.80	2129.89
422.99	2064.35
423.18	2129.89
423.37	2040.95
423.56	1865.41
423.75	1954.35
423.94	2033.93
424.13	1874.77
424.32	1907.54
424.50	2026.90
424.69	2054.99
424.88	1959.03
425.07	1952.01
425.26	2031.58
425.45	2038.61
425.64	2040.95
425.83	2033.93
426.01	2012.86
426.20	2017.54
426.39	2038.61
426.58	2071.37
426.77	2085.42
426.96	2111.16
427.15	2097.12
427.33	2134.57
427.52	2059.67
427.71	2085.42
427.90	2256.28
428.09	2232.87
428.28	2216.49
428.46	2132.23
428.65	2132.23
428.84	2265.64
429.03	2277.34
429.22	2186.06
429.40	2256.28
429.59	2307.77
429.78	2172.02
429.97	2106.48
430.16	2260.96
430.34	2272.66
430.53	2289.04
430.72	2406.07
430.91	2373.30
431.10	2167.34
431.28	2270.32
431.47	2338.20
431.66	2333.51
431.85	2363.94
432.03	2509.05
432.22	2436.50
432.41	2394.37
432.60	2495.01
432.79	2431.82
432.97	2441.18
433.16	2399.05
433.35	2415.43
433.54	2459.90
433.72	2574.59
433.91	2499.69
434.10	2523.10
434.28	2537.14
434.47	2504.37
434.66	2504.37
434.85	2588.63
435.03	2588.63
435.22	2499.69
435.41	2504.37
435.59	2593.31
435.78	2602.68
435.97	2619.06
436.16	2567.57
436.34	2616.72
436.53	2640.12
436.72	2708.00
436.90	2551.18
437.09	2633.10
437.28	2651.83
437.46	2806.30
437.65	2829.71
437.84	2888.22
438.02	2761.83
438.21	2869.50
438.40	2827.37
438.58	2909.29
438.77	2867.16
438.96	2822.69
439.14	2909.29
439.33	2876.52
439.52	2974.82
439.70	2892.90
439.89	2988.86
440.08	2899.92
440.26	2942.05
440.45	2963.12
440.63	3023.97
440.82	3119.93
441.01	3131.64
441.19	3108.23
441.38	3293.13
441.57	3197.17
441.75	3035.67
441.94	3143.34
442.12	3187.81
442.31	3208.87
442.50	3204.19
442.68	3321.22
442.87	3286.11
443.05	3318.88
443.24	3311.86
443.43	3269.73
443.61	3417.18
443.80	3555.27
443.98	3351.65
444.17	3279.09
444.35	3403.14
444.54	3503.78
444.73	3428.88
444.91	3384.41
445.10	3384.41
445.28	3307.18
445.47	3389.10
445.65	3428.88
445.84	3485.06
446.02	3555.27
446.21	3323.56
446.39	3375.05
446.58	3445.27
446.77	3403.14
446.95	3330.58
447.14	3421.86
447.32	3459.31
447.51	3531.87
447.69	3501.44
447.88	3419.52
448.06	3459.31
448.25	3424.20
448.43	3538.89
448.62	3517.83
448.80	3576.34
448.99	3431.23
449.17	3442.93
449.36	3475.70
449.54	3648.90
449.73	3674.64
449.91	3616.13
450.10	3552.93
450.28	3707.41
450.46	3620.81
450.65	3754.22
450.83	3581.02
451.02	3744.86
451.20	3786.99
451.39	3908.69
451.57	3712.09
451.76	3695.71
451.94	3756.56
452.13	3810.39
452.31	3812.73
452.49	3733.15
452.68	3894.65
452.86	3829.12
453.05	3955.51
453.23	3882.95
453.42	3908.69
453.60	3868.91
453.78	3946.14
453.97	3829.12
454.15	3829.12
454.34	3801.03
454.52	3950.82
454.70	4093.60
454.89	4067.85
455.07	3992.95
455.26	4145.09
455.44	4107.64
455.62	4117.00
455.81	3934.44
455.99	4093.60
456.17	4135.73
456.36	4262.12
456.54	4091.26
456.73	4072.53
456.91	4236.37
457.09	4189.56
457.28	4358.08
457.46	4418.93
457.64	4285.52
457.83	4255.09
458.01	4283.18
458.19	4358.08
458.38	4285.52
458.56	4348.72
458.74	4454.04
458.93	4252.75
459.11	4304.25
459.29	4301.90
459.48	4470.42
459.66	4339.35
459.84	4521.92
460.03	4573.41
460.21	4461.06
460.39	4470.42
460.57	4538.30
460.76	4526.60
460.94	4610.86
461.12	4669.37
461.31	4430.63
461.49	4472.76
461.67	4547.66
461.85	4770.01
462.04	4681.07
462.22	4561.70
462.40	4781.71
462.59	4531.28
462.77	4746.61
462.95	4826.18
463.13	4718.52
463.32	4784.06
463.50	4784.06
463.68	4847.25
463.86	4744.27
464.05	4706.82
464.23	4760.65
464.41	4758.31
464.59	4842.57
464.78	4844.91
464.96	5041.51
465.14	4945.55
465.32	4844.91
465.50	4978.32
465.69	5008.75
465.87	4840.23
466.05	4919.81
466.23	5067.26
466.41	5067.26
466.60	5240.46
466.78	5006.41
466.96	4889.38
467.14	4997.04
467.32	5186.63
467.51	5078.96
467.69	4894.06
467.87	5146.84
468.05	5158.54
468.23	5177.26
468.41	5043.85
468.60	5287.27
468.78	5465.15
468.96	5231.10
469.14	5291.95
469.32	5448.77
469.50	5195.99
469.69	5338.76
469.87	5378.55
470.05	5371.53
470.23	5418.34
470.41	5345.78
470.59	5439.40
470.77	5500.26
470.95	5500.26
471.14	5551.75
471.32	5423.02
471.50	5554.09
471.68	5474.51
471.86	5430.04
472.04	5589.20
472.22	5753.04
472.40	5584.52
472.58	5863.04
472.77	5776.44
472.95	5689.84
473.13	5827.93
473.31	5827.93
473.49	5708.57
473.67	5771.76
473.85	5923.90
474.03	6029.22
474.21	6012.84
474.39	5970.71
474.57	6073.69
474.75	6221.14
474.93	6223.48
475.12	6083.05
475.30	6132.20
475.48	6328.81
475.66	6375.62
475.84	6218.80
476.02	6286.68
476.20	6417.75
476.38	6326.47
476.56	6619.04
476.74	6342.85
476.92	6534.78
477.10	6361.58
477.28	6427.11
477.46	6670.53
477.64	6825.00
477.82	6665.85
478.00	6853.09
478.18	6822.66
478.36	7094.16
478.54	7007.56
478.72	6967.77
478.90	7089.48
479.08	7143.32
479.26	7094.16
479.44	7201.83
479.62	7241.62
479.80	7342.26
479.98	7255.66
480.16	7480.35
480.34	7321.20
480.52	7583.34
480.70	7588.02
480.88	7428.86
481.06	7676.96
481.24	7543.55
481.41	7744.83
481.59	8018.68
481.77	7934.42
481.95	7955.48
482.13	8081.87
482.31	7847.82
482.49	8301.88
482.67	8201.24
482.85	8599.13
483.03	8308.90
483.21	8498.49
483.39	8479.76
483.57	8463.38
483.74	8594.45
483.92	8730.20
484.10	8659.98
484.28	8765.31
484.46	9125.75
484.64	9088.30
484.82	8786.37
485.00	9107.02
485.18	9043.83
485.35	9481.51
485.53	9252.14
485.71	9460.45
485.89	9352.78
486.07	9460.45
486.25	9437.04
486.43	9654.71
486.61	9785.78
486.78	9848.97
486.96	9790.46
487.14	9970.68
487.32	9645.35
487.50	10118.14
487.68	10312.40
487.85	10001.11
488.03	10373.25
488.21	10438.79
488.39	10733.70
488.57	10492.62
488.75	10693.91
488.92	10656.46
489.10	10883.49
489.28	10736.04
489.46	10932.64
489.64	10885.83
489.81	11082.44
489.99	11225.21
490.17	11279.04
490.35	11389.05
490.53	11452.24
490.70	11475.65
490.88	11377.34
491.06	11665.23
491.24	11754.17
491.41	11903.96
491.59	11651.19
491.77	11910.99
491.95	11723.74
492.13	12123.98
492.30	12163.76
492.48	12177.81
492.66	12334.62
492.84	12170.79
493.01	12503.14
493.19	12538.25
493.37	12601.44
493.54	12652.94
493.72	12636.55
493.90	12844.86
494.08	12634.21
494.25	13071.89
494.43	13074.23
494.61	13195.94
494.79	13083.59
494.96	13214.66
495.14	13322.33
495.32	13408.93
495.49	13483.83
495.67	13401.91
495.85	13509.57
496.02	13598.51
496.20	13802.14
496.38	13891.08
496.55	13710.86
496.73	14239.82
496.91	14073.64
497.09	14003.43
497.26	14171.94
497.44	14214.07
497.62	14293.65
497.79	14597.92
497.97	14300.67
498.14	14356.85
498.32	14595.58
498.50	14813.25
498.67	15236.89
498.85	14740.69
499.03	14743.03
499.20	14883.47
499.38	15199.44
499.56	15105.82
499.73	15190.08
499.91	15342.21
500.08	15412.43
500.26	15070.71
500.44	15604.35
500.61	15311.78
500.79	15690.95
500.97	15562.22
501.14	15683.93
501.32	15641.80
501.49	15655.84
501.67	15634.78
501.84	15796.28
502.02	15847.77
502.20	15908.62
502.37	15913.30
502.55	15985.86
502.72	16135.65
502.90	16032.67
503.07	16219.91
503.25	15922.66
503.43	15957.77
503.60	16173.10
503.78	16446.94
503.95	16074.80
504.13	16826.11
504.30	16512.48
504.48	16435.24
504.65	16477.37
504.83	16978.25
505.01	16734.83
505.18	16716.11
505.36	16938.46
505.53	16791.00
505.71	16938.46
505.88	16905.69
506.06	16957.18
506.23	17259.11
506.41	17149.11
506.58	17303.58
506.76	17343.37
506.93	17294.22
507.11	17544.66
507.28	17500.19
507.46	17373.80
507.63	17418.27
507.81	17654.66
507.98	17568.06
508.16	17556.36
508.33	17722.54
508.50	17652.32
508.68	17621.89
508.85	18026.81
509.03	17806.80
509.20	18263.20
509.38	18204.69
509.55	18195.32
509.73	18235.11
509.90	18134.47
510.08	18136.81
510.25	18305.33
510.42	18635.35
510.60	18469.17
510.77	18312.35
510.95	18539.38
511.12	18324.05
511.30	18579.17
511.47	18422.36
511.64	18511.30
511.82	19063.66
511.99	18836.63
512.17	18899.83
512.34	18869.40
512.51	19044.94
512.69	18937.27
512.86	19187.71
513.04	19171.33
513.21	19161.97
513.38	19290.70
513.56	18951.32
513.73	19168.99
513.90	19389.00
514.08	19398.36
514.25	19585.60
514.43	19735.40
514.60	19754.12
514.77	19875.83
514.95	19735.40
515.12	19117.50
515.29	19323.46
515.47	19721.35
515.64	20121.59
515.81	19831.36
515.99	19871.15
516.16	20163.72
516.33	20032.65
516.51	20299.47
516.68	20357.98
516.85	20060.73
517.03	20247.97
517.20	20126.27
517.37	20376.70
517.54	20507.77
517.72	20573.31
517.89	20315.85
518.06	20538.20
518.24	20629.48
518.41	20496.07
518.58	20496.07
518.75	20596.71
518.93	20535.86
519.10	20795.66
519.27	20903.32
519.45	20505.43
519.62	20989.92
519.79	20762.89
519.96	20938.43
520.14	21383.13
520.31	21209.93
520.48	21338.66
520.65	20917.37
520.83	21282.49
521.00	21013.33
521.17	21469.73
521.34	21181.85
521.52	21528.25
521.69	21500.16
521.86	21647.61
522.03	21624.21
522.20	21673.36
522.38	21867.63
522.55	21535.27
522.72	21921.46
522.89	21411.22
523.07	21970.61
523.24	22097.00
523.41	22108.70
523.58	21825.50
523.75	21862.94
523.92	21837.20
524.10	22064.23
524.27	22094.66
524.44	22623.62
524.61	22401.27
524.78	22752.35
524.96	22132.11
525.13	22473.82
525.30	22218.71
525.47	22363.82
525.64	22319.35
525.81	22806.18
525.98	22443.40
526.16	22408.29
526.33	22462.12
526.50	22841.29
526.67	22602.55
526.84	22693.83
527.01	22424.67
527.18	22419.99
527.36	22775.75
527.53	22977.04
527.70	22995.76
527.87	23035.55
528.04	23117.47
528.21	23173.64
528.38	22977.04
528.55	23590.26
528.72	23178.33
528.89	23122.15
529.07	23138.54
529.24	23110.45
529.41	23274.29
529.58	23367.91
529.75	23220.45
529.92	23175.98
530.09	23424.08
530.26	23271.95
530.43	23768.14
530.60	23105.77
530.77	23604.30
530.94	23709.63
531.11	23552.81
531.28	23583.24
531.46	23618.35
531.63	23737.71
531.80	23929.64
531.97	24114.54
532.14	23960.06
532.31	23758.78
532.48	23936.66
532.65	24144.97
532.82	23882.83
532.99	23924.96
533.16	23704.95
533.33	24280.72
533.50	24350.93
533.67	24332.21
533.84	23791.55
534.01	24357.96
534.18	23985.81
534.35	24257.31
534.52	24259.65
534.69	24264.33
534.86	24552.22
535.03	24247.95
535.20	24643.50
535.37	24573.28
535.54	24503.07
535.71	24650.52
535.88	25067.14
536.05	24397.74
536.22	24947.77
536.38	25090.54
536.55	24526.47
536.72	24617.75
536.89	24547.54
537.06	24992.24
537.23	24561.58
537.40	24772.23
537.57	24629.46
537.74	24882.24
537.91	24842.45
538.08	24886.92
538.25	25242.68
538.42	24999.26
538.59	25193.53
538.75	24947.77
538.92	25289.49
539.09	24931.39
539.26	25205.23
539.43	25305.87
539.60	25163.10
539.77	25378.43
539.94	25479.07
540.11	25303.53
540.28	25111.61
540.44	25338.64
540.61	25572.69
540.78	25338.64
540.95	25577.37
541.12	25621.84
541.29	25802.07
541.46	25556.31
541.62	25549.29
541.79	25528.22
541.96	25256.72
542.13	25542.27
542.30	25687.38
542.47	25729.51
542.63	25675.68
542.80	25893.35
542.97	26293.58
543.14	26555.72
543.31	25998.67
543.48	26185.91
543.64	26375.50
543.81	26312.30
543.98	26649.34
544.15	26251.45
544.32	26487.84
544.48	26270.17
544.65	26300.60
544.82	26017.40
544.99	26059.52
545.16	26375.50
545.32	25989.31
545.49	26583.80
545.66	26520.61
545.83	26565.08
546.00	26850.63
546.16	26494.86
546.33	26356.77
546.50	26064.21
546.67	26345.07
546.83	26375.50
547.00	26621.25
547.17	26546.36
547.34	26726.58
547.50	26391.88
547.67	27007.44
547.84	27323.41
548.00	26934.88
548.17	26909.14
548.34	26951.27
548.51	27058.93
548.67	27023.83
548.84	27227.45
549.01	27157.24
549.18	27292.99
549.34	26892.76
549.51	26965.31
549.68	27236.81
549.84	26859.99
550.01	27126.81
550.18	26902.12
550.34	27161.92
550.51	27351.50
550.68	27559.81
550.84	26778.07
551.01	27379.59
551.18	27325.75
551.34	27040.21
551.51	27491.93
551.68	27426.40
551.84	27709.60
552.01	27637.05
552.18	27716.62
552.34	27520.02
552.51	27594.92
552.68	27594.92
552.84	27522.36
553.01	27920.25
553.18	27435.76
553.34	27459.16
553.51	27477.89
553.67	27723.65
553.84	28102.81
554.01	28037.28
554.17	27749.39
554.34	28130.90
554.51	27770.46
554.67	28079.41
554.84	27768.12
555.00	27953.02
555.17	27697.90
555.33	27840.67
555.50	27819.61
555.67	27704.92
555.83	27812.59
556.00	28023.23
556.16	28292.40
556.33	28013.87
556.50	28065.36
556.66	27953.02
556.83	28067.70
556.99	28367.29
557.16	28470.28
557.32	28273.67
557.49	28379.00
557.65	28276.01
557.82	27999.83
557.98	28371.97
558.15	28217.50
558.32	28500.70
558.48	28332.18
558.65	28388.36
558.81	28765.18
558.98	28334.53
559.14	28318.14
559.31	28081.75
559.47	28407.08
559.64	28460.91
559.80	27990.47
559.97	28844.76
560.13	28545.17
560.30	28924.34
560.46	28718.37
560.63	28526.45
560.79	28470.28
560.96	28519.43
561.12	28699.65
561.29	28744.12
561.45	28582.62
561.61	28620.07
561.78	28720.71
561.94	28601.35
562.11	28870.51
562.27	28706.67
562.44	28599.01
562.60	28451.55
562.77	28339.21
562.93	28299.42
563.10	28706.67
563.26	28521.77
563.42	28458.57
563.59	28697.31
563.75	28914.98
563.92	28718.37
564.08	28690.29
564.24	29017.96
564.41	28577.94
564.57	28837.74
564.74	28680.92
564.90	28886.89
565.07	29022.64
565.23	29088.18
565.39	28952.43
565.56	28900.94
565.72	28603.69
565.88	28816.68
566.05	28851.78
566.21	28786.25
566.38	28835.40
566.54	28638.80
566.70	29331.59
566.87	29560.97
567.03	29111.58
567.19	29186.48
567.36	29467.34
567.52	29340.96
567.68	29149.03
567.85	29160.73
568.01	28924.34
568.17	29294.14
568.34	29605.44
568.50	29282.44
568.66	28900.94
568.83	29235.63
568.99	29380.74
569.15	29390.11
569.32	29179.46
569.48	28905.62
569.64	29223.93
569.81	28879.87
569.97	29177.12
570.13	29200.52
570.30	29310.53
570.46	29156.05
570.62	29326.91
570.78	29146.69
570.95	29055.41
571.11	29237.97
571.27	29270.74
571.43	29099.88
571.60	29392.45
571.76	29221.59
571.92	29172.44
572.09	29355.00
572.25	29247.33
572.41	29415.85
572.57	29446.28
572.74	29490.75
572.90	28905.62
573.06	29432.24
573.22	29521.18
573.38	29649.91
573.55	29158.39
573.71	29397.13
573.87	29493.09
574.03	29024.98
574.20	29284.78
574.36	29352.66
574.52	29806.72
574.68	29235.63
574.84	29329.25
575.01	29682.67
575.17	29743.53
575.33	29296.49
575.49	29565.65
575.65	29603.10
575.82	29610.12
575.98	29553.94
576.14	29516.50
576.30	29558.63
576.46	29689.70
576.62	29291.80
576.79	29479.05
576.95	29612.46
577.11	29582.03
577.27	29806.72
577.43	29500.11
577.59	29443.94
577.75	29507.13
577.92	29170.10
578.08	29493.09
578.24	29649.91
578.40	29699.06
578.56	29607.78
578.72	29383.09
578.88	29654.59
579.04	30045.46
579.21	29425.22
579.37	29347.98
579.53	29839.49
579.69	29713.10
579.85	29593.73
580.01	29123.29
580.17	29528.20
580.33	29457.98
580.49	29518.84
580.65	29809.06
580.82	29385.43
580.98	29771.61
581.14	29605.44
581.30	29570.33
581.46	29324.57
581.62	29429.90
581.78	29680.33
581.94	29757.57
582.10	28985.19
582.26	29401.81
582.42	29713.10
582.58	29830.13
582.74	29867.58
582.90	29841.83
583.06	29652.25
583.22	29677.99
583.38	29804.38
583.54	29844.17
583.70	29692.04
583.86	29523.52
584.02	29572.67
584.18	30218.66
584.34	29986.94
584.50	29762.25
584.66	29659.27
584.82	29570.33
584.98	29876.94
585.14	29717.78
585.30	29563.31
585.46	29450.96
585.62	29415.85
585.78	29411.17
585.94	29642.88
586.10	29745.87
586.26	29642.88
586.42	29977.58
586.58	29727.14
586.74	30024.39
586.90	29699.06
587.06	29523.52
587.22	29759.91
587.38	29560.97
587.54	30005.67
587.70	29930.77
587.86	29816.08
588.02	29713.10
588.18	30010.35
588.34	29762.25
588.49	29890.98
588.65	29724.80
588.81	29668.63
588.97	29706.08
589.13	29773.95
589.29	29453.30
589.45	29610.12
589.61	30026.73
589.77	30167.16
589.93	29965.88
590.08	30015.03
590.24	30139.08
590.40	30148.44
590.56	30359.09
590.72	29837.15
590.88	29710.76
591.04	30064.18
591.20	29804.38
591.35	29933.11
591.51	30532.29
591.67	30338.02
591.83	30225.68
591.99	30471.43
592.15	30309.94
592.31	30015.03
592.46	30094.61
592.62	30148.44
592.78	29635.86
592.94	29764.59
593.10	30092.27
593.26	30096.95
593.41	30239.72
593.57	30574.42
593.73	30345.05
593.89	30232.70
594.05	30232.70
594.20	30209.29
594.36	29930.77
594.52	29799.70
594.68	30087.59
594.84	30080.56
594.99	30363.77
595.15	29982.26
595.31	29975.24
595.47	30520.59
595.62	30054.82
595.78	30398.88
595.94	29841.83
596.10	30174.19
596.25	30120.35
596.41	29898.00
596.57	30146.10
596.73	30277.17
596.88	30202.27
597.04	30263.13
597.20	30181.21
597.36	29979.92
597.51	30579.10
597.67	29867.58
597.83	30192.91
597.99	30520.59
598.14	30085.25
598.30	30223.34
598.46	30026.73
598.61	30487.82
598.77	30160.14
598.93	30253.76
599.09	30115.67
599.24	30375.47
599.40	30513.56
599.56	30487.82
599.71	30302.92
599.87	30323.98
600.03	30331.00
600.18	30190.57
600.34	30153.12
600.50	29998.65
600.65	30153.12
600.81	30602.50
600.97	30433.99
601.12	30909.11
601.28	30803.79
601.44	30635.27
601.59	30501.86
601.75	30363.77
601.91	30331.00
602.06	30412.92
602.22	30616.55
602.37	30082.91
602.53	30583.78
602.69	30745.28
602.84	30501.86
603.00	30462.07
603.16	30572.08
603.31	30129.72
603.47	30719.53
603.62	30094.61
603.78	30202.27
603.94	30143.76
604.09	30141.42
604.25	30349.73
604.40	29968.22
604.56	30047.80
604.71	30403.56
604.87	30391.86
605.03	30335.68
605.18	30567.40
605.34	30370.79
605.49	29965.88
605.65	30157.80
605.80	29905.02
605.96	30394.20
606.12	30125.04
606.27	30345.05
606.43	29947.15
606.58	30359.09
606.74	30174.19
606.89	30363.77
607.05	30281.85
607.20	30590.80
607.36	30190.57
607.51	30115.67
607.67	30246.74
607.82	29989.28
607.98	30298.23
608.13	30209.29
608.29	29731.83
608.44	29790.34
608.60	29853.53
608.75	30061.84
608.91	30015.03
609.06	30279.51
609.22	30373.13
609.37	29731.83
609.53	29834.81
609.68	30356.75
609.84	29954.18
609.99	29949.50
610.15	29933.11
610.30	29975.24
610.46	29844.17
610.61	30054.82
610.76	30239.72
610.92	29823.11
611.07	30281.85
611.23	29647.57
611.38	29919.07
611.54	29668.63
611.69	29624.16
611.84	29537.56
612.00	29612.46
612.15	30047.80
612.31	30064.18
612.46	29972.90
612.62	30024.39
612.77	29677.99
612.92	29820.77
613.08	29661.61
613.23	30345.05
613.39	29591.39
613.54	29795.02
613.69	29600.76
613.85	29666.29
614.00	29649.91
614.15	29582.03
614.31	29596.07
614.46	29916.73
614.62	29532.88
614.77	29780.98
614.92	29848.85
615.08	29876.94
615.23	29780.98
615.38	29764.59
615.54	29523.52
615.69	29048.39
615.84	29294.14
616.00	29509.47
616.15	29596.07
616.30	29455.64
616.46	29565.65
616.61	29619.48
616.76	29912.05
616.92	29673.31
617.07	29633.52
617.22	29507.13
617.37	29406.49
617.53	29312.87
617.68	29303.51
617.83	29167.76
617.99	29102.22
618.14	29261.38
618.29	29048.39
618.45	29165.42
618.60	29083.50
618.75	29493.09
618.90	29029.66
619.06	29546.92
619.21	29003.92
619.36	29048.39
619.51	29167.76
619.67	28797.95
619.82	28931.36
619.97	28947.75
620.12	29067.11
620.28	29198.18
620.43	29441.60
620.58	29310.53
620.73	29261.38
620.89	29373.72
621.04	29170.10
621.19	28783.91
621.34	29029.66
621.49	28940.72
621.65	28580.28
621.80	29067.11
621.95	28842.42
622.10	28769.86
622.25	28540.49
622.41	28854.12
622.56	29060.09
622.71	29167.76
622.86	29193.50
623.01	29191.16
623.16	28758.16
623.32	28692.63
623.47	28758.16
623.62	28811.99
623.77	28767.52
623.92	29214.57
624.07	28561.56
624.23	28664.54
624.38	29022.64
624.53	28533.47
624.68	28931.36
624.83	29184.14
624.98	28692.63
625.13	28797.95
625.29	28648.16
625.44	28961.79
625.59	28364.95
625.74	28294.74
625.89	28254.95
626.04	28194.09
626.19	28247.93
626.34	28336.87
626.49	28353.25
626.65	28379.00
626.80	28283.03
626.95	28566.24
627.10	28505.38
627.25	28545.17
627.40	28313.46
627.55	28023.23
627.70	28084.09
627.85	28238.56
628.00	28250.27
628.15	28346.23
628.30	28154.30
628.45	28250.27
628.60	27953.02
628.76	28311.12
628.91	28517.09
629.06	28161.33
629.21	28299.42
629.36	28023.23
629.51	27908.55
629.66	28053.66
629.81	28020.89
629.96	27878.12
630.11	27929.61
630.26	27634.71
630.41	27803.22
630.56	27688.54
630.71	28034.94
630.86	28044.30
631.01	28369.63
631.16	28119.20
631.31	28053.66
631.46	27711.94
631.61	27997.49
631.76	27688.54
631.91	27445.12
632.06	27770.46
632.21	27693.22
632.36	27946.00
632.51	27592.58
632.66	27924.93
632.81	27435.76
632.96	27943.66
633.10	27686.20
633.25	27817.27
633.40	27796.20
633.55	27807.90
633.70	27246.18
633.85	27405.33
634.00	27775.14
634.15	27417.04
634.30	27576.19
634.45	27400.65
634.60	27763.43
634.75	27522.36
634.90	27498.95
635.05	27541.08
635.19	27288.31
635.34	27711.94
635.49	27538.74
635.64	27414.69
635.79	27578.53
635.94	27527.04
636.09	27311.71
636.24	27168.94
636.39	27117.45
636.53	27129.15
636.68	27019.14
636.83	27260.22
636.98	27049.57
637.13	27393.63
637.28	27002.76
637.43	27346.82
637.57	27428.74
637.72	27197.02
637.87	27049.57
638.02	27063.61
638.17	26974.67
638.32	27040.21
638.46	27058.93
638.61	26731.26
638.76	26497.20
638.91	26527.63
639.06	26951.27
639.20	27117.45
639.35	27105.74
639.50	26810.84
639.65	27040.21
639.80	27094.04
639.94	27241.50
640.09	26883.39
640.24	27007.44
640.39	26850.63
640.54	26794.45
640.68	26794.45
640.83	26745.30
640.98	26457.42
641.13	26754.66
641.27	26899.78
641.42	26600.19
641.57	26841.26
641.72	26471.46
641.86	26506.57
642.01	26436.35
642.16	26759.34
642.31	26644.66
642.45	26749.98
642.60	26314.64
642.75	26401.24
642.90	26520.61
643.04	26408.26
643.19	26544.02
643.34	26031.44
643.48	25874.62
643.63	26742.96
643.78	26263.15
643.93	26635.30
644.07	26560.40
644.22	26614.23
644.37	26588.49
644.51	26419.97
644.66	26714.87
644.81	25687.38
644.95	26052.50
645.10	26075.91
645.25	26096.97
645.39	26338.05
645.54	26459.76
645.69	25832.49
645.83	26155.49
645.98	26195.28
646.13	26576.78
646.27	26455.08
646.42	26246.77
646.57	26120.38
646.71	25998.67
646.86	26160.17
647.00	26036.12
647.15	25839.51
647.30	25940.16
647.44	26085.27
647.59	26160.17
647.74	26050.16
647.88	25963.56
648.03	26274.85
648.17	26024.42
648.32	26228.04
648.47	26185.91
648.61	25647.59
648.76	25937.82
648.90	25713.13
649.05	25792.70
649.20	25584.40
649.34	26031.44
649.49	25427.58
649.63	25654.61
649.78	25600.78
649.92	25790.36
650.07	26052.50
650.21	25916.75
650.36	25668.66
650.51	25750.57
650.65	25640.57
650.80	25757.60
650.94	25757.60
651.09	25593.76
651.23	25607.80
651.38	25663.97
651.52	25474.39
651.67	25429.92
651.81	25734.19
651.96	25614.82
652.10	25500.14
652.25	25404.17
652.39	25792.70
652.54	25528.22
652.68	25663.97
652.83	25582.06
652.97	25607.80
653.12	25678.02
653.26	25252.04
653.41	25518.86
653.55	25280.13
653.70	25111.61
653.84	25500.14
653.99	25443.96
654.13	25083.52
654.27	25172.46
654.42	25331.62
654.56	25301.19
654.71	25270.76
654.85	25326.94
655.00	25123.31
655.14	25371.41
655.29	25083.52
655.43	25130.33
655.57	25064.80
655.72	25067.14
655.86	24952.45
656.01	25156.08
656.15	25092.88
656.30	25193.53
656.44	25340.98
656.58	25193.53
656.73	25001.60
656.87	24989.90
657.01	25132.67
657.16	25153.74
657.30	25209.91
657.45	25284.81
657.59	24702.01
657.73	24748.82
657.88	25025.01
658.02	24636.48
658.16	24821.38
658.31	24694.99
658.45	24563.92
658.60	24191.78
658.74	24652.86
658.88	24685.63
659.03	24645.84
659.17	24629.46
659.31	24996.92
659.46	24755.85
659.60	24685.63
659.74	24781.59
659.89	24594.35
660.03	24561.58
660.17	24690.31
660.32	24261.99
660.46	24168.37
660.60	24353.27
660.74	24596.69
660.89	24222.20
661.03	23896.87
661.17	24278.38
661.32	24128.58
661.46	24430.51
661.60	24463.28
661.74	24098.16
661.89	24566.26
662.03	24318.17
662.17	24027.94
662.31	24254.97
662.46	23721.33
662.60	23889.85
662.74	23910.91
662.88	23985.81
663.03	23913.25
663.17	24049.00
663.31	23740.05
663.45	23798.57
663.60	23611.32
663.74	23515.36
663.88	23826.65
664.02	23655.79
664.17	23974.11
664.31	23412.38
664.45	23477.91
664.59	23555.15
664.73	23864.10
664.88	23573.88
665.02	23351.52
665.16	23213.43
665.30	23531.75
665.44	23353.87
665.59	22745.33
665.73	23695.58
665.87	23194.71
666.01	22860.01
666.15	23484.94
666.29	23344.50
666.44	22937.25
666.58	22806.18
666.72	22768.73
666.86	22981.72
667.00	23241.52
667.14	23236.84
667.28	22988.74
667.43	22920.87
667.57	23091.73
667.71	22532.34
667.85	22607.23
667.99	22895.12
668.13	22654.05
668.27	22757.03
668.41	22946.61
668.56	22693.83
668.70	22726.60
668.84	22742.99
668.98	22485.53
669.12	22574.47
669.26	22700.86
669.40	22948.95
669.54	22237.43
669.68	22590.85
669.82	22494.89
669.96	22237.43
670.10	21958.91
670.25	22331.05
670.39	21989.33
670.53	22181.26
670.67	21998.70
670.81	22394.25
670.95	22265.52
671.09	22359.14
671.23	22209.34
671.37	22097.00
671.51	22047.85
671.65	22101.68
671.79	21759.96
671.93	21965.93
672.07	22059.55
672.21	21797.41
672.35	21525.91
672.49	21521.23
672.63	21626.55
672.77	21575.06
672.91	21666.34
673.05	21497.82
673.19	21479.10
673.33	21521.23
673.47	21364.41
673.61	21233.34
673.75	21172.49
673.89	21128.02
674.03	21266.11
674.17	21259.09
674.31	21104.61
674.45	21046.10
674.59	21043.76
674.73	21228.66
674.87	20786.30
675.01	21088.23
675.15	20624.80
675.29	20828.43
675.43	20463.30
675.56	20648.21
675.70	20961.84
675.84	20575.65
675.98	20240.95
676.12	20545.22
676.26	20870.56
676.40	20542.88
676.54	20510.11
676.68	20360.32
676.82	20184.78
676.96	20149.67
677.10	20107.54
677.23	19814.98
677.37	20491.39
677.51	19882.85
677.65	19571.56
677.79	19976.47
677.93	19850.08
678.07	19676.88
678.21	19496.66
678.34	19709.65
678.48	19454.53
678.62	19597.31
678.76	19435.81
678.90	19468.58
679.04	19529.43
679.18	19311.76
679.31	19082.39
679.45	19051.96
679.59	19133.88
679.73	18939.62
679.87	19073.03
680.00	18876.42
680.14	18728.97
680.28	18820.25
680.42	18733.65
680.56	19066.00
680.70	18803.86
680.83	18977.06
680.97	18747.69
681.11	18335.76
681.25	18438.74
681.39	18691.52
681.52	18523.00
681.66	18614.28
681.80	18429.38
681.94	18417.68
682.07	18487.89
682.21	18071.28
682.35	17799.77
682.49	18012.76
682.62	17982.34
682.76	17799.77
682.90	17888.71
683.04	17909.78
683.17	17809.14
683.31	17907.44
683.45	17720.20
683.59	17631.26
683.72	17664.02
683.86	17774.03
684.00	17467.42
684.13	17708.49
684.27	17401.88
684.41	17514.23
684.55	17233.36
684.68	17209.96
684.82	17170.17
684.96	17144.42
685.09	16980.59
685.23	16922.07
685.37	17032.08
685.50	17032.08
685.64	16807.39
685.78	17067.19
685.91	17050.80
686.05	16734.83
686.19	16505.46
686.32	16596.74
686.46	16479.71
686.60	16570.99
686.73	16437.58
686.87	16313.53
687.01	16468.01
687.14	16203.53
687.28	16217.57
687.42	15953.09
687.55	15709.68
687.69	15950.75
687.82	16002.24
687.96	16002.24
688.10	15620.74
688.23	15672.23
688.37	15857.13
688.50	15985.86
688.64	15761.17
688.78	15826.70
688.91	15552.86
689.05	15630.10
689.18	15735.42
689.32	15286.04
689.46	15131.56
689.59	15342.21
689.73	15531.80
689.86	15080.07
690.00	15059.01
690.13	15253.27
690.27	14876.44
690.41	15054.33
690.54	15279.02
690.68	14906.87
690.81	15171.35
690.95	15201.78
691.08	14773.46
691.22	14848.36
691.35	14537.07
691.49	14719.63
691.62	14511.32
691.76	14476.21
691.89	14235.14
692.03	14384.93
692.16	14160.24
692.30	14141.52
692.43	14075.98
692.57	14193.01
692.70	14031.51
692.84	14242.16
692.97	13886.40
693.11	13902.78
693.24	13954.27
693.38	14008.11
693.51	13844.27
693.65	13790.44
693.78	13806.82
693.92	13652.34
694.05	13664.05
694.19	13781.07
694.32	13591.49
694.45	13474.46
694.59	13212.32
694.72	13390.20
694.86	13467.44
694.99	13001.68
695.13	13050.83
695.26	13259.13
695.39	12982.95
695.53	13184.24
695.66	13179.56
695.80	12688.04
695.93	13102.32
696.07	13118.70
696.20	12952.52
696.33	12774.64
696.47	12559.31
696.60	12704.43
696.73	12533.57
696.87	12571.02
697.00	12498.46
697.14	12730.17
697.27	12147.38
697.40	12236.32
697.54	12308.88
697.67	11896.94
697.80	12243.34
697.94	12053.76
698.07	12049.08
698.21	11859.49
698.34	12074.82
698.47	11999.93
698.61	11878.22
698.74	12035.03
698.87	12098.23
699.01	11850.13
699.14	11538.84
699.27	11562.25
699.40	11548.20
699.54	11578.63
699.67	11583.31
699.80	11276.70
699.94	11543.52
700.07	11255.64
700.20	11293.08
700.34	11419.47
700.47	11166.70
700.60	11311.81
700.73	11201.80
700.87	11096.48
701.00	10895.19
701.13	11094.14
701.26	10951.37
701.40	11037.97
701.53	10848.38
701.66	10888.17
701.79	10771.15
701.93	10478.58
702.06	10621.35
702.19	10427.09
702.32	10354.53
702.46	10668.16
702.59	10434.11
702.72	10401.34
702.85	10200.05
702.99	10296.02
703.12	10382.62
703.25	10171.97
703.38	10368.57
703.51	10399.00
703.65	10136.86
703.78	9975.36
703.91	10073.67
704.04	10193.03
704.17	10106.43
704.31	9975.36
704.44	10031.54
704.57	9706.20
704.70	9743.65
704.83	9710.88
704.96	9659.39
705.10	9446.40
705.23	9444.06
>>>>>End Processed Spectral Data<<<<<
