SpectraSuite Data File
++++++++++++++++++++++++++++++++++++
Date: Fri Oct 18 13:58:15 GMT-05:00 2013
User: bianchi
Dark Spectrum Present: No
Reference Spectrum Present: No
Number of Sampled Component Spectra: 1
Spectrometers: USB2+H05261
Integration Time (usec): 50000 (USB2+H05261)
Spectra Averaged: 1 (USB2+H05261)
Boxcar Smoothing: 0 (USB2+H05261)
Correct for Electrical Dark: No (USB2+H05261)
Strobe/Lamp Enabled: No (USB2+H05261)
Correct for Detector Non-linearity: No (USB2+H05261)
Correct for Stray Light: No (USB2+H05261)
Number of Pixels in Processed Spectrum: 2048
>>>>>Begin Processed Spectral Data<<<<<
365.73	39.79
365.92	39.79
366.12	39.79
366.32	0.00
366.52	0.00
366.72	0.00
366.91	0.00
367.11	0.00
367.31	0.00
367.51	0.00
367.70	0.00
367.90	0.00
368.10	0.00
368.30	0.00
368.49	0.00
368.69	0.00
368.89	0.00
369.09	0.00
369.28	0.00
369.48	0.00
369.68	0.00
369.87	0.00
370.07	0.00
370.27	0.00
370.47	0.00
370.66	44.47
370.86	131.07
371.06	117.03
371.25	131.07
371.45	60.85
371.65	173.20
371.84	173.20
372.04	203.63
372.24	107.66
372.44	149.79
372.63	149.79
372.83	245.76
373.03	201.29
373.22	191.92
373.42	194.26
373.62	241.08
373.81	224.69
374.01	182.56
374.21	210.65
374.40	208.31
374.60	271.50
374.79	276.18
374.99	290.23
375.19	250.44
375.38	243.42
375.58	278.52
375.78	264.48
375.97	273.84
376.17	322.99
376.37	217.67
376.56	278.52
376.76	287.89
376.95	236.39
377.15	353.42
377.35	313.63
377.54	280.86
377.74	198.95
377.93	299.59
378.13	229.37
378.33	243.42
378.52	248.10
378.72	346.40
378.91	257.46
379.11	308.95
379.31	208.31
379.50	292.57
379.70	308.95
379.89	306.61
380.09	297.25
380.28	229.37
380.48	304.27
380.68	287.89
380.87	330.02
381.07	320.65
381.26	320.65
381.46	344.06
381.65	341.72
381.85	346.40
382.04	327.68
382.24	330.02
382.43	341.72
382.63	414.27
382.83	287.89
383.02	379.17
383.22	306.61
383.41	341.72
383.61	369.80
383.80	386.19
384.00	280.86
384.19	381.51
384.39	313.63
384.58	421.30
384.78	365.12
384.97	311.29
385.17	374.49
385.36	400.23
385.56	355.76
385.75	393.21
385.95	402.57
386.14	454.06
386.34	433.00
386.53	418.96
386.72	440.02
386.92	372.15
387.11	447.04
387.31	440.02
387.50	430.66
387.70	437.68
387.89	418.96
388.09	407.25
388.28	372.15
388.48	388.53
388.67	468.11
388.86	367.46
389.06	358.10
389.25	425.98
389.45	442.36
389.64	421.30
389.84	500.87
390.03	463.43
390.22	510.24
390.42	477.47
390.61	500.87
390.81	411.93
391.00	416.62
391.19	449.38
391.39	510.24
391.58	545.34
391.78	470.45
391.97	587.47
392.16	519.60
392.36	547.69
392.55	585.13
392.75	531.30
392.94	557.05
393.13	526.62
393.33	573.43
393.52	554.71
393.71	550.03
393.91	594.50
394.10	575.77
394.29	519.60
394.49	528.96
394.68	596.84
394.88	517.26
395.07	601.52
395.26	510.24
395.46	582.79
395.65	660.03
395.84	706.84
396.04	727.91
396.23	699.82
396.42	641.31
396.62	622.58
396.81	688.12
397.00	631.94
397.19	676.41
397.39	571.09
397.58	648.33
397.77	678.76
397.97	674.07
398.16	662.37
398.35	732.59
398.55	681.10
398.74	653.01
398.93	709.18
399.12	688.12
399.32	704.50
399.51	692.80
399.70	711.52
399.90	645.99
400.09	753.65
400.28	788.76
400.47	805.14
400.67	763.01
400.86	741.95
401.05	753.65
401.24	770.04
401.44	772.38
401.63	851.96
401.82	821.53
402.01	772.38
402.21	844.93
402.40	851.96
402.59	805.14
402.78	835.57
402.97	866.00
403.17	908.13
403.36	805.14
403.55	758.33
403.74	891.74
403.93	903.45
404.13	884.72
404.32	863.66
404.51	919.83
404.70	903.45
404.89	889.40
405.09	1015.79
405.28	1001.75
405.47	887.06
405.66	1004.09
405.85	992.39
406.05	1004.09
406.24	964.30
406.43	954.94
406.62	1055.58
406.81	1036.86
407.00	994.73
407.20	1041.54
407.39	983.02
407.58	1074.31
407.77	992.39
407.96	1043.88
408.15	1125.80
408.34	1097.71
408.54	1097.71
408.73	1111.75
408.92	1203.04
409.11	1191.33
409.30	1219.42
409.49	1128.14
409.68	1088.35
409.87	1167.93
410.07	1174.95
410.26	1071.97
410.45	1088.35
410.64	1196.01
410.83	1207.72
411.02	1217.08
411.21	1224.10
411.40	1245.16
411.59	1280.27
411.78	1238.14
411.98	1294.32
412.17	1280.27
412.36	1299.00
412.55	1207.72
412.74	1359.85
412.93	1334.11
413.12	1291.98
413.31	1336.45
413.50	1324.74
413.69	1392.62
413.88	1416.02
414.07	1413.68
414.26	1526.03
414.45	1446.45
414.64	1448.79
414.83	1519.01
415.02	1530.71
415.22	1483.90
415.41	1549.43
415.60	1451.13
415.79	1650.08
415.98	1624.33
416.17	1582.20
416.36	1540.07
416.55	1586.88
416.74	1736.68
416.93	1621.99
417.12	1633.69
417.31	1673.48
417.50	1748.38
417.69	1710.93
417.88	1724.97
418.07	1790.51
418.26	1689.87
418.45	1748.38
418.64	1774.13
418.83	1858.39
419.02	1823.28
419.21	1748.38
419.39	1853.70
419.58	1729.66
419.77	1741.36
419.96	1900.52
420.15	1865.41
420.34	1877.11
420.53	1797.53
420.72	1830.30
420.91	1947.33
421.10	1905.20
421.29	2031.58
421.48	1842.00
421.67	1989.46
421.86	1921.58
422.05	2031.58
422.24	1944.99
422.43	2031.58
422.61	1877.11
422.80	2047.97
422.99	1984.77
423.18	2026.90
423.37	2008.18
423.56	1982.43
423.75	2052.65
423.94	2012.86
424.13	1839.66
424.32	1942.64
424.50	1966.05
424.69	1996.48
424.88	2097.12
425.07	2031.58
425.26	2024.56
425.45	2221.17
425.64	2071.37
425.83	2064.35
426.01	2120.53
426.20	2024.56
426.39	1989.46
426.58	2019.88
426.77	2087.76
426.96	2202.44
427.15	2031.58
427.33	2223.51
427.52	2167.34
427.71	2162.66
427.90	2047.97
428.09	2169.68
428.28	2092.44
428.46	2188.40
428.65	2150.95
428.84	2139.25
429.03	2232.87
429.22	2195.42
429.40	2331.17
429.59	2263.30
429.78	2223.51
429.97	2197.76
430.16	2267.98
430.34	2190.74
430.53	2282.02
430.72	2363.94
430.91	2340.54
431.10	2352.24
431.28	2422.45
431.47	2434.16
431.66	2497.35
431.85	2291.38
432.03	2422.45
432.22	2558.21
432.41	2303.09
432.60	2462.24
432.79	2422.45
432.97	2527.78
433.16	2483.31
433.35	2513.74
433.54	2394.37
433.72	2392.03
433.91	2431.82
434.10	2490.33
434.28	2473.95
434.47	2509.05
434.66	2640.12
434.85	2579.27
435.03	2583.95
435.22	2539.48
435.41	2698.64
435.59	2626.08
435.78	2628.42
435.97	2640.12
436.16	2771.19
436.34	2717.36
436.53	2740.77
436.72	2731.41
436.90	2654.17
437.09	2726.72
437.28	2759.49
437.46	2602.68
437.65	2808.64
437.84	2822.69
438.02	2827.37
438.21	2717.36
438.40	2722.04
438.58	2857.79
438.77	2871.84
438.96	2796.94
439.14	2899.92
439.33	2956.10
439.52	3096.53
439.70	3007.59
439.89	3049.72
440.08	3035.67
440.26	3082.49
440.45	3089.51
440.63	3080.14
440.82	3052.06
441.01	3070.78
441.19	3138.66
441.38	3108.23
441.57	3082.49
441.75	3215.90
441.94	3176.11
442.12	3155.04
442.31	3356.33
442.50	3473.36
442.68	3279.09
442.87	3358.67
443.05	3407.82
443.24	3316.54
443.43	3283.77
443.61	3255.69
443.80	3428.88
443.98	3440.59
444.17	3267.39
444.35	3471.01
444.54	3459.31
444.73	3391.44
444.91	3461.65
445.10	3295.47
445.28	3375.05
445.47	3349.31
445.65	3384.41
445.84	3353.99
446.02	3487.40
446.21	3501.44
446.39	3538.89
446.58	3466.33
446.77	3405.48
446.95	3321.22
447.14	3461.65
447.32	3466.33
447.51	3454.63
447.69	3452.29
447.88	3487.40
448.06	3454.63
448.25	3407.82
448.43	3543.57
448.62	3548.25
448.80	3454.63
448.99	3646.55
449.17	3548.25
449.36	3557.61
449.54	3620.81
449.73	3653.58
449.91	3660.60
450.10	3627.83
450.28	3735.50
450.46	3669.96
450.65	3707.41
450.83	3796.35
451.02	3723.79
451.20	3751.88
451.39	3812.73
451.57	3721.45
451.76	3698.05
451.94	3758.90
452.13	3873.59
452.31	3822.09
452.49	3845.50
452.68	3850.18
452.86	3894.65
453.05	3826.78
453.23	3978.91
453.42	3857.20
453.60	3798.69
453.78	3819.75
453.97	3901.67
454.15	3845.50
454.34	3896.99
454.52	4060.83
454.70	3957.85
454.89	4051.47
455.07	3967.21
455.26	4077.21
455.44	4156.79
455.62	4049.13
455.81	4039.76
455.99	4091.26
456.17	4063.17
456.36	4189.56
456.54	4222.33
456.73	4344.03
456.91	4299.56
457.09	4416.59
457.28	4479.79
457.46	4383.82
457.64	4498.51
457.83	4339.35
458.01	4329.99
458.19	4301.90
458.38	4337.01
458.56	4416.59
458.74	4505.53
458.93	4500.85
459.11	4376.80
459.29	4564.04
459.48	4418.93
459.66	4491.49
459.84	4606.17
460.03	4599.15
460.21	4557.02
460.39	4407.23
460.57	4472.76
460.76	4451.70
460.94	4503.19
461.12	4650.64
461.31	4674.05
461.49	4725.54
461.67	4685.75
461.85	4685.75
462.04	4760.65
462.22	4894.06
462.40	4755.97
462.59	4730.22
462.77	4645.96
462.95	4800.44
463.13	4926.83
463.32	4711.50
463.50	4737.24
463.68	4975.98
463.86	5008.75
464.05	4840.23
464.23	4807.46
464.41	4805.12
464.59	4770.01
464.78	4957.25
464.96	4889.38
465.14	4847.25
465.32	4861.29
465.50	4950.23
465.69	4917.47
465.87	4964.28
466.05	4903.42
466.23	5064.92
466.41	5083.64
466.60	5238.12
466.78	5034.49
466.96	5034.49
467.14	5053.22
467.32	5111.73
467.51	5259.18
467.69	5041.51
467.87	5132.79
468.05	5093.01
468.23	5245.14
468.41	5027.47
468.60	5214.71
468.78	5301.31
468.96	5334.08
469.14	5362.17
469.32	5418.34
469.50	5324.72
469.69	5221.74
469.87	5490.90
470.05	5411.32
470.23	5423.02
470.41	5310.68
470.59	5352.81
470.77	5514.30
470.95	5432.38
471.14	5579.84
471.32	5504.94
471.50	5607.92
471.68	5628.99
471.86	5659.42
472.04	5680.48
472.22	5778.78
472.40	5652.39
472.58	5729.63
472.77	5811.55
472.95	5804.53
473.13	5940.28
473.31	5568.13
473.49	5790.49
473.67	5937.94
473.85	5994.11
474.03	6094.76
474.21	5954.32
474.39	6036.24
474.57	6153.27
474.75	6253.91
474.93	6148.59
475.12	6064.33
475.30	6195.40
475.48	6155.61
475.66	6157.95
475.84	6291.36
476.02	6384.98
476.20	6338.17
476.38	6298.38
476.56	6588.61
476.74	6487.96
476.92	6417.75
477.10	6399.02
477.28	6595.63
477.46	6565.20
477.64	6663.51
477.82	6789.89
478.00	6918.62
478.18	6899.90
478.36	7059.06
478.54	6930.33
478.72	7140.97
478.90	7000.54
479.08	7225.23
479.26	7138.63
479.44	7281.41
479.62	7353.96
479.80	7276.73
479.98	7400.77
480.16	7590.36
480.34	7599.72
480.52	7634.83
480.70	7761.22
480.88	7557.59
481.06	7819.73
481.24	7777.60
481.41	7932.08
481.59	7911.01
481.77	7981.23
481.95	8140.38
482.13	8107.62
482.31	7817.39
482.49	8152.09
482.67	8362.73
482.85	8191.88
483.03	8446.99
483.21	8702.11
483.39	8561.68
483.57	8535.93
483.74	8430.61
483.92	8720.84
484.10	8594.45
484.28	8809.78
484.46	8997.02
484.64	9144.47
484.82	9029.79
485.00	9104.68
485.18	9226.39
485.35	9458.10
485.53	9198.31
485.71	9310.65
485.89	9650.03
486.07	9575.13
486.25	9511.94
486.43	9624.28
486.61	9643.01
486.78	9982.38
486.96	10052.60
487.14	10253.89
487.32	10054.94
487.50	10057.28
487.68	10270.27
487.85	10223.46
488.03	10462.19
488.21	10537.09
488.39	10399.00
488.57	10441.13
488.75	10565.18
488.92	10817.96
489.10	10920.94
489.28	11117.54
489.46	11225.21
489.64	11026.26
489.81	11220.53
489.99	11269.68
490.17	11229.89
490.35	11651.19
490.53	11384.37
490.70	11709.70
490.88	11562.25
491.06	11796.30
491.24	11754.17
491.41	11651.19
491.59	11976.52
491.77	11901.62
491.95	12276.11
492.13	12325.26
492.30	12255.04
492.48	12238.66
492.66	12201.21
492.84	12315.90
493.01	12596.76
493.19	12503.14
493.37	12685.70
493.54	12800.39
493.72	13114.02
493.90	12730.17
494.08	12786.35
494.25	13160.83
494.43	13273.18
494.61	13245.09
494.79	13256.79
494.96	13247.43
495.14	13509.57
495.32	13429.99
495.49	13462.76
495.67	13867.67
495.85	13638.30
496.02	14005.77
496.20	13912.14
496.38	14001.08
496.55	13982.36
496.73	14104.07
496.91	14115.77
497.09	14190.67
497.26	14232.80
497.44	14235.14
497.62	14139.18
497.79	14520.68
497.97	14621.33
498.14	14506.64
498.32	15033.26
498.50	14750.06
498.67	14857.72
498.85	14782.82
499.03	15063.69
499.20	15119.86
499.38	15012.20
499.56	15356.25
499.73	15075.39
499.91	15330.51
500.08	15407.75
500.26	15328.17
500.44	15307.10
500.61	15688.61
500.79	15550.52
500.97	15604.35
501.14	15850.11
501.32	15609.03
501.49	15847.77
501.67	15707.34
501.84	16044.37
502.02	15754.15
502.20	15908.62
502.37	16067.78
502.55	16219.91
502.72	16212.89
502.90	16381.41
503.07	16240.98
503.25	16477.37
503.43	16332.26
503.60	16863.56
503.78	16126.29
503.95	16622.48
504.13	16329.92
504.30	16460.99
504.48	16648.23
504.65	16823.77
504.83	17195.92
505.01	17057.82
505.18	16755.90
505.36	17144.42
505.53	16730.15
505.71	16868.24
505.88	16924.41
506.06	16966.54
506.23	17287.20
506.41	17326.99
506.58	17472.10
506.76	17256.77
506.93	17348.05
507.11	17495.50
507.28	17474.44
507.46	17493.16
507.63	17729.56
507.81	17823.18
507.98	17776.37
508.16	17989.36
508.33	17624.23
508.50	18064.25
508.68	18132.13
508.85	18249.16
509.03	18270.22
509.20	18319.37
509.38	18396.61
509.55	18532.36
509.73	18537.04
509.90	18614.28
510.08	18267.88
510.25	18511.30
510.42	18354.48
510.60	18679.82
510.77	18728.97
510.95	18647.05
511.12	18562.79
511.30	18764.07
511.47	18974.72
511.64	18838.97
511.82	18862.38
511.99	19276.65
512.17	18958.34
512.34	19040.26
512.51	18946.64
512.69	19466.24
512.86	19204.10
513.04	19344.53
513.21	19709.65
513.38	19325.80
513.56	19372.61
513.73	19487.30
513.90	19358.57
514.08	19311.76
514.25	19889.87
514.43	19857.10
514.60	19716.67
514.77	19833.70
514.95	19906.26
515.12	19829.02
515.29	19690.93
515.47	19978.81
515.64	19868.81
515.81	20355.64
515.99	20350.96
516.16	20496.07
516.33	20460.96
516.51	20360.32
516.68	20432.88
516.85	20278.40
517.03	20393.09
517.20	20629.48
517.37	20519.48
517.54	20570.97
517.72	20812.04
517.89	20638.84
518.06	20664.59
518.24	20751.19
518.41	20549.90
518.58	20741.83
518.75	20975.88
518.93	20922.05
519.10	20781.62
519.27	21048.44
519.45	20732.47
519.62	20886.94
519.79	21071.84
519.96	21088.23
520.14	21209.93
520.31	21081.21
520.48	21235.68
520.65	21565.70
520.83	21699.11
521.00	21179.51
521.17	21359.73
521.34	20954.82
521.52	21546.97
521.69	21654.64
521.86	21413.56
522.03	21673.36
522.20	21621.87
522.38	21776.34
522.55	21661.66
522.72	22125.08
522.89	21975.29
523.07	22174.24
523.24	22204.66
523.41	22370.84
523.58	22024.44
523.75	22029.12
523.92	22061.89
524.10	22288.92
524.27	22361.48
524.44	22522.98
524.61	22335.73
524.78	22490.21
524.96	22581.49
525.13	22319.35
525.30	22532.34
525.47	22499.57
525.64	22462.12
525.81	22827.24
525.98	23023.85
526.16	22869.37
526.33	22787.46
526.50	22656.39
526.67	22850.65
526.84	23161.94
527.01	22647.02
527.18	22909.16
527.36	22904.48
527.53	23346.84
527.70	23222.80
527.87	23054.28
528.04	23250.88
528.21	23241.52
528.38	23112.79
528.55	23459.19
528.72	23133.86
528.89	23190.03
529.07	23428.76
529.24	23330.46
529.41	23623.03
529.58	23658.14
529.75	23524.72
529.92	23644.09
530.09	23529.41
530.26	23318.76
530.43	23709.63
530.60	23807.93
530.77	23349.18
530.94	23948.36
531.11	23730.69
531.28	23590.26
531.46	23924.96
531.63	23798.57
531.80	23953.04
531.97	23749.42
532.14	24573.28
532.31	24023.26
532.48	24166.03
532.65	24449.24
532.82	24049.00
532.99	24081.77
533.16	24180.07
533.33	24552.22
533.50	24257.31
533.67	24514.77
533.84	24233.91
534.01	24491.37
534.18	23910.91
534.35	24922.02
534.52	24170.71
534.69	24669.25
534.86	24568.60
535.03	24577.97
535.20	24702.01
535.37	24594.35
535.54	24884.58
535.71	24627.12
535.88	24783.93
536.05	25001.60
536.22	25081.18
536.38	25001.60
536.55	25017.99
536.72	24929.05
536.89	24603.71
537.06	25156.08
537.23	25422.90
537.40	24912.66
537.57	25207.57
537.74	25137.35
537.91	25233.32
538.08	25165.44
538.25	24985.22
538.42	25252.04
538.59	25724.83
538.75	25221.61
538.92	25465.03
539.09	25476.73
539.26	25549.29
539.43	25610.14
539.60	25610.14
539.77	25539.93
539.94	25907.39
540.11	25282.47
540.28	25479.07
540.44	25312.89
540.61	25649.93
540.78	25589.08
540.95	25383.11
541.12	25458.01
541.29	25912.07
541.46	25556.31
541.62	25687.38
541.79	25687.38
541.96	25759.94
542.13	25930.80
542.30	25951.86
542.47	26267.83
542.63	26005.69
542.80	25860.58
542.97	26094.63
543.14	26398.90
543.31	26354.43
543.48	26232.72
543.64	26733.60
543.81	26548.70
543.98	26764.03
544.15	26745.30
544.32	26771.05
544.48	26775.73
544.65	26579.12
544.82	25914.41
544.99	26307.62
545.16	26471.46
545.32	26728.92
545.49	26916.16
545.66	26759.34
545.83	26965.31
546.00	26785.09
546.16	26808.50
546.33	26787.43
546.50	26536.99
546.67	26768.71
546.83	26471.46
547.00	26998.08
547.17	26649.34
547.34	26969.99
547.50	26913.82
547.67	27161.92
547.84	26876.37
548.00	27197.02
548.17	27075.32
548.34	27255.54
548.51	27363.20
548.67	27545.76
548.84	27468.53
549.01	27538.74
549.18	27363.20
549.34	27424.06
549.51	27747.05
549.68	27077.66
549.84	27445.12
550.01	27321.07
550.18	27190.00
550.34	27283.62
550.51	27564.49
550.68	27545.76
550.84	27417.04
551.01	27758.75
551.18	27281.28
551.34	27466.19
551.51	27351.50
551.68	27873.44
551.84	27817.27
552.01	27758.75
552.18	27735.35
552.34	27936.63
552.51	27761.09
552.68	27866.42
552.84	27882.80
553.01	27868.76
553.18	28034.94
553.34	27892.16
553.51	28198.77
553.67	28058.34
553.84	28259.63
554.01	28280.69
554.17	28142.60
554.34	28313.46
554.51	28018.55
554.67	27934.29
554.84	28177.71
555.00	28067.70
555.17	28074.73
555.33	28395.38
555.50	28084.09
555.67	28194.09
555.83	28198.77
556.00	28276.01
556.16	28273.67
556.33	28175.37
556.50	28095.79
556.66	28439.85
556.83	28203.46
556.99	28545.17
557.16	28882.21
557.32	28325.16
557.49	28503.04
557.65	28268.99
557.82	28353.25
557.98	28409.42
558.15	28545.17
558.32	28458.57
558.48	28191.75
558.65	28676.24
558.81	28662.20
558.98	28737.10
559.14	28765.18
559.31	28175.37
559.47	28751.14
559.64	28390.70
559.80	28783.91
559.97	28725.39
560.13	28563.90
560.30	28900.94
560.46	28821.36
560.63	29036.69
560.79	28664.54
560.96	28610.71
561.12	28489.00
561.29	28634.11
561.45	28496.02
561.61	28847.10
561.78	28917.32
561.94	28879.87
562.11	29034.35
562.27	28727.74
562.44	29163.08
562.60	28837.74
562.77	28978.17
562.93	28493.68
563.10	29032.00
563.26	29076.48
563.42	29134.99
563.59	28982.85
563.75	29137.33
563.92	29064.77
564.08	29186.48
564.24	29502.45
564.41	28933.70
564.57	28739.44
564.74	29380.74
564.90	29315.21
565.07	29032.00
565.23	29130.31
565.39	29380.74
565.56	29481.39
565.72	29441.60
565.88	29347.98
566.05	29034.35
566.21	29202.86
566.38	29436.92
566.54	28746.46
566.70	29106.90
566.87	29432.24
567.03	29696.72
567.19	29579.69
567.36	29355.00
567.52	29235.63
567.68	29172.44
567.85	29261.38
568.01	29832.47
568.17	29270.74
568.34	29682.67
568.50	29249.67
568.66	29514.16
568.83	29542.24
568.99	29106.90
569.15	29596.07
569.32	29373.72
569.48	29336.27
569.64	29303.51
569.81	29642.88
569.97	29450.96
570.13	29350.32
570.30	29275.42
570.46	29493.09
570.62	29570.33
570.78	29385.43
570.95	29233.29
571.11	29582.03
571.27	29188.82
571.43	29640.54
571.60	29549.26
571.76	29420.53
571.92	29607.78
572.09	29703.74
572.25	29961.20
572.41	29582.03
572.57	29680.33
572.74	29479.05
572.90	29392.45
573.06	29685.01
573.22	29670.97
573.38	29645.23
573.55	29261.38
573.71	29935.45
573.87	29472.03
574.03	29369.04
574.20	29769.27
574.36	29516.50
574.52	29249.67
574.68	29504.79
574.84	29762.25
575.01	29560.97
575.17	29184.14
575.33	29352.66
575.49	29680.33
575.65	30085.25
575.82	29820.77
575.98	29507.13
576.14	29699.06
576.30	29558.63
576.46	29720.12
576.62	29214.57
576.79	29888.64
576.95	29535.22
577.11	30029.07
577.27	29970.56
577.43	29851.19
577.59	29617.14
577.75	29736.51
577.92	29619.48
578.08	29118.60
578.24	29399.47
578.40	29483.73
578.56	29668.63
578.72	29954.18
578.88	30127.38
579.04	29797.36
579.21	29502.45
579.37	29820.77
579.53	29886.30
579.69	29769.27
579.85	29425.22
580.01	29942.47
580.17	29605.44
580.33	29731.83
580.49	29738.85
580.65	29851.19
580.82	29963.54
580.98	30253.76
581.14	30026.73
581.30	29851.19
581.46	29645.23
581.62	29780.98
581.78	29303.51
581.94	29802.04
582.10	29462.66
582.26	29589.05
582.42	29699.06
582.58	30204.61
582.74	30040.78
582.90	30118.01
583.06	29937.79
583.22	29912.05
583.38	29965.88
583.54	29741.19
583.70	30099.29
583.86	29893.32
584.02	29762.25
584.18	30284.19
584.34	29968.22
584.50	30010.35
584.66	29830.13
584.82	29600.76
584.98	29926.09
585.14	29874.60
585.30	29905.02
585.46	29572.67
585.62	29600.76
585.78	29813.74
585.94	29575.01
586.10	30197.59
586.26	29790.34
586.42	30089.93
586.58	30361.43
586.74	29998.65
586.90	29977.58
587.06	30181.21
587.22	29979.92
587.38	29802.04
587.54	30015.03
587.70	30286.53
587.86	30354.41
588.02	30363.77
588.18	30005.67
588.34	29979.92
588.49	30033.75
588.65	30125.04
588.81	29905.02
588.97	30288.87
589.13	29811.40
589.29	29582.03
589.45	30061.84
589.61	29998.65
589.77	30188.23
589.93	30375.47
590.08	30274.83
590.24	30246.74
590.40	30693.79
590.56	30398.88
590.72	30382.49
590.88	29865.24
591.04	30089.93
591.20	30717.19
591.35	30340.36
591.51	30630.59
591.67	30455.05
591.83	30506.54
591.99	30623.57
592.15	29797.36
592.31	30284.19
592.46	30260.79
592.62	30419.94
592.78	30092.27
592.94	30305.26
593.10	29916.73
593.26	30092.27
593.41	30113.33
593.57	30703.15
593.73	30263.13
593.89	30092.27
594.05	30665.70
594.20	30403.56
594.36	30483.14
594.52	30274.83
594.68	30499.52
594.84	30064.18
594.99	30457.39
595.15	30466.75
595.31	30525.27
595.47	30099.29
595.62	30539.31
595.78	30471.43
595.94	30583.78
596.10	30398.88
596.25	30366.11
596.41	30270.15
596.57	30249.08
596.73	30314.62
596.88	30171.85
597.04	30499.52
597.20	30768.68
597.36	30820.17
597.51	30749.96
597.67	30876.35
597.83	30040.78
597.99	30354.41
598.14	30490.16
598.30	30389.52
598.46	30326.32
598.61	30588.46
598.77	30684.42
598.93	30441.01
599.09	30782.73
599.24	30890.39
599.40	30883.37
599.56	30532.29
599.71	30672.72
599.87	30906.77
600.03	30600.16
600.18	30050.14
600.34	30401.22
600.50	30110.99
600.65	30602.50
600.81	30487.82
600.97	30450.37
601.12	30525.27
601.28	30342.70
601.44	30593.14
601.59	30356.75
601.75	30642.29
601.91	30792.09
602.06	30866.98
602.22	30485.48
602.37	30609.53
602.53	30267.81
602.69	30705.49
602.84	30569.74
603.00	30728.89
603.16	30829.54
603.31	30703.15
603.47	30178.87
603.62	30665.70
603.78	30089.93
603.94	30569.74
604.09	30621.23
604.25	30457.39
604.40	30560.37
604.56	30752.30
604.71	30309.94
604.87	30597.82
605.03	30443.35
605.18	30700.81
605.34	30356.75
605.49	29830.13
605.65	30787.41
605.80	30309.94
605.96	30630.59
606.12	30244.40
606.27	30539.31
606.43	30754.64
606.58	30749.96
606.74	30614.21
606.89	30562.72
607.05	30848.26
607.20	30494.84
607.36	30656.34
607.51	30377.81
607.67	30389.52
607.82	29989.28
607.98	30146.10
608.13	30026.73
608.29	29792.68
608.44	30815.49
608.60	30192.91
608.75	30759.32
608.91	30518.25
609.06	30031.41
609.22	30150.78
609.37	30024.39
609.53	30113.33
609.68	30377.81
609.84	29940.13
609.99	30024.39
610.15	30490.16
610.30	29846.51
610.46	30108.65
610.61	30298.23
610.76	30178.87
610.92	30129.72
611.07	30101.63
611.23	29881.62
611.38	29844.17
611.54	30036.09
611.69	30118.01
611.84	29780.98
612.00	30249.08
612.15	30150.78
612.31	29926.09
612.46	30092.27
612.62	30244.40
612.77	29998.65
612.92	30312.28
613.08	29928.43
613.23	30417.60
613.39	29799.70
613.54	29881.62
613.69	30066.52
613.85	30008.01
614.00	29799.70
614.15	29745.87
614.31	30012.69
614.46	30209.29
614.62	29916.73
614.77	29996.31
614.92	29895.66
615.08	30218.66
615.23	29525.86
615.38	29993.97
615.54	29537.56
615.69	29322.23
615.84	29617.14
616.00	29844.17
616.15	29350.32
616.30	29926.09
616.46	29708.42
616.61	29614.80
616.76	30047.80
616.92	29872.26
617.07	29780.98
617.22	29586.71
617.37	29799.70
617.53	29633.52
617.68	29355.00
617.83	29390.11
617.99	29397.13
618.14	29624.16
618.29	29408.83
618.45	29322.23
618.60	29666.29
618.75	29729.48
618.90	29415.85
619.06	29668.63
619.21	29523.52
619.36	29385.43
619.51	29308.19
619.67	29336.27
619.82	29443.94
619.97	29551.60
620.12	28861.15
620.28	29017.96
620.43	29310.53
620.58	29694.38
620.73	29493.09
620.89	29212.23
621.04	29324.57
621.19	29567.99
621.34	29462.66
621.49	29027.32
621.65	29032.00
621.80	29600.76
621.95	28980.51
622.10	29575.01
622.25	29001.58
622.41	28945.41
622.56	29041.37
622.71	29099.88
622.86	29060.09
623.01	29277.76
623.16	29071.79
623.32	29041.37
623.47	28804.97
623.62	29022.64
623.77	28711.35
623.92	28938.38
624.07	28760.50
624.23	28922.00
624.38	28982.85
624.53	28842.42
624.68	29057.75
624.83	29060.09
624.98	28989.88
625.13	29027.32
625.29	29179.46
625.44	29022.64
625.59	28713.69
625.74	28648.16
625.89	28807.31
626.04	28802.63
626.19	28535.81
626.34	28811.99
626.49	28858.81
626.65	28084.09
626.80	28826.04
626.95	28353.25
627.10	29106.90
627.25	28882.21
627.40	28318.14
627.55	28294.74
627.70	28191.75
627.85	28304.10
628.00	28779.23
628.15	28622.41
628.30	28175.37
628.45	28180.05
628.60	28788.59
628.76	28631.77
628.91	28517.09
629.06	28531.13
629.21	28458.57
629.36	28542.83
629.51	28247.93
629.66	28161.33
629.81	28428.15
629.96	28327.50
630.11	27857.06
630.26	28161.33
630.41	28283.03
630.56	28081.75
630.71	28477.30
630.86	28336.87
631.01	28259.63
631.16	28224.52
631.31	28063.02
631.46	28109.83
631.61	28217.50
631.76	28224.52
631.91	27761.09
632.06	28198.77
632.21	27910.89
632.36	27819.61
632.51	27648.75
632.66	27704.92
632.81	27946.00
632.96	28294.74
633.10	28126.22
633.25	27889.82
633.40	27978.76
633.55	28065.36
633.70	27735.35
633.85	27435.76
634.00	27276.60
634.15	27733.01
634.30	27473.21
634.45	27302.35
634.60	27136.17
634.75	27683.86
634.90	27576.19
635.05	28058.34
635.19	28016.21
635.34	27527.04
635.49	27290.65
635.64	27730.67
635.79	27337.46
635.94	27384.27
636.09	27714.28
636.24	27482.57
636.39	27552.79
636.53	27417.04
636.68	27695.56
636.83	27304.69
636.98	27702.58
637.13	27749.39
637.28	27630.02
637.43	27391.29
637.57	27541.08
637.72	27028.51
637.87	27281.28
638.02	27447.46
638.17	27129.15
638.32	27271.92
638.46	27190.00
638.61	27222.77
638.76	27080.00
638.91	26890.41
639.06	27110.43
639.20	27372.57
639.35	27250.86
639.50	27583.21
639.65	27470.87
639.80	27150.21
639.94	27110.43
640.09	27012.12
640.24	27206.39
640.39	27140.85
640.54	26775.73
640.68	27166.60
640.83	26611.89
640.98	26955.95
641.13	26958.29
641.27	27061.27
641.42	26855.31
641.57	26890.41
641.72	27211.07
641.86	26590.83
642.01	26527.63
642.16	26747.64
642.31	26897.44
642.45	26630.62
642.60	26593.17
642.75	26565.08
642.90	26813.18
643.04	26450.39
643.19	26654.02
643.34	27051.91
643.48	26642.32
643.63	26675.09
643.78	26787.43
643.93	26984.04
644.07	26895.10
644.22	27012.12
644.37	26457.42
644.51	26412.95
644.66	26698.49
644.81	26260.81
644.95	26602.53
645.10	26588.49
645.25	26602.53
645.39	26373.16
645.54	26492.52
645.69	26764.03
645.83	26380.18
645.98	26541.68
646.13	26714.87
646.27	26675.09
646.42	26726.58
646.57	26597.85
646.71	26324.01
646.86	26073.57
647.00	26618.91
647.15	26260.81
647.30	26256.13
647.44	26457.42
647.59	25975.27
647.74	26319.32
647.88	26050.16
648.03	26625.93
648.17	26686.79
648.32	26188.25
648.47	25949.52
648.61	26398.90
648.76	26192.94
648.90	26249.11
649.05	26394.22
649.20	25713.13
649.34	26424.65
649.49	25528.22
649.63	26054.84
649.78	25848.88
649.92	25982.29
650.07	26103.99
650.21	25773.98
650.36	25790.36
650.51	25907.39
650.65	26019.74
650.80	25970.58
650.94	25706.10
651.09	25642.91
651.23	25759.94
651.38	25837.17
651.52	25766.96
651.67	25848.88
651.81	25668.66
651.96	25497.80
652.10	25458.01
652.25	25799.73
652.39	25827.81
652.54	25830.15
652.68	25818.45
652.83	25734.19
652.97	26036.12
653.12	25450.99
653.26	25823.13
653.41	25750.57
653.55	25467.37
653.70	25495.46
653.84	25977.61
653.99	25799.73
654.13	25642.91
654.27	25326.94
654.42	25654.61
654.56	25415.88
654.71	25823.13
654.85	25497.80
655.00	25804.41
655.14	25617.16
655.29	25088.20
655.43	25247.36
655.57	25563.33
655.72	25088.20
655.86	25472.05
656.01	25493.12
656.15	25177.14
656.30	25179.48
656.44	25029.69
656.58	25069.48
656.73	25296.51
656.87	25378.43
657.01	25242.68
657.16	25249.70
657.30	25467.37
657.45	25273.10
657.59	25219.27
657.73	24844.79
657.88	25013.31
658.02	25001.60
658.16	25242.68
658.31	24868.19
658.45	24877.55
658.60	24849.47
658.74	24652.86
658.88	24875.21
659.03	25001.60
659.17	25144.38
659.31	25174.80
659.46	24823.72
659.60	24814.36
659.74	24760.53
659.89	24933.73
660.03	24545.20
660.17	24634.14
660.32	24437.53
660.46	24261.99
660.60	24299.44
660.74	24517.11
660.89	24320.51
661.03	24346.25
661.17	24280.72
661.32	24224.54
661.46	24400.08
661.60	24301.78
661.74	24547.54
661.89	24505.41
662.03	24713.72
662.17	24395.40
662.31	24299.44
662.46	24208.16
662.60	24107.52
662.74	24187.10
662.88	23948.36
663.03	24086.45
663.17	23995.17
663.31	23857.08
663.45	24006.87
663.60	23931.98
663.74	23510.68
663.88	23964.75
664.02	23583.24
664.17	24013.90
664.31	23751.76
664.45	23800.91
664.59	23761.12
664.73	23538.77
664.88	23552.81
665.02	23559.83
665.16	23597.28
665.30	23283.65
665.44	23295.35
665.59	23117.47
665.73	23344.50
665.87	23168.96
666.01	23646.43
666.15	23271.95
666.29	23267.27
666.44	23524.72
666.58	23374.93
666.72	23456.85
666.86	23250.88
667.00	23548.13
667.14	23044.91
667.28	23056.62
667.43	22764.05
667.57	22986.40
667.71	22913.84
667.85	22852.99
667.99	23108.11
668.13	22871.72
668.27	22881.08
668.41	23082.36
668.56	22916.19
668.70	22955.97
668.84	22906.82
668.98	22527.66
669.12	22747.67
669.26	22888.10
669.40	22855.33
669.54	22647.02
669.68	22703.20
669.82	22787.46
669.96	22237.43
670.10	21949.54
670.25	22331.05
670.39	22473.82
670.53	22155.51
670.67	22043.17
670.81	22104.02
670.95	22148.49
671.09	22345.09
671.23	22162.53
671.37	22221.05
671.51	22064.23
671.65	22522.98
671.79	21977.63
671.93	22225.73
672.07	22087.64
672.21	21923.80
672.35	21825.50
672.49	21418.24
672.63	21923.80
672.77	21628.89
672.91	21792.73
673.05	21708.47
673.19	21717.83
673.33	21511.86
673.47	21954.22
673.61	21633.57
673.75	21984.65
673.89	21504.84
674.03	21284.83
674.17	21371.43
674.31	21188.87
674.45	20973.54
674.59	21268.45
674.73	21343.35
674.87	21263.77
675.01	20891.62
675.15	21188.87
675.29	20741.83
675.43	20856.51
675.56	20856.51
675.70	20870.56
675.84	20842.47
675.98	20233.93
676.12	20734.81
676.26	20734.81
676.40	20795.66
676.54	20353.30
676.68	20437.56
676.82	20210.53
676.96	20437.56
677.10	20100.52
677.23	20032.65
677.37	19889.87
677.51	20315.85
677.65	20343.94
677.79	19697.95
677.93	20086.48
678.07	20049.03
678.21	19831.36
678.34	19761.14
678.48	20023.28
678.62	19742.42
678.76	19747.10
678.90	19674.54
679.04	19473.26
679.18	19714.33
679.31	19236.86
679.45	19365.59
679.59	19496.66
679.73	18988.77
679.87	19417.08
680.00	18981.74
680.14	19232.18
680.28	19105.79
680.42	18871.74
680.56	18963.02
680.70	18670.45
680.83	18909.19
680.97	18963.02
681.11	18937.27
681.25	18810.89
681.39	18845.99
681.52	18658.75
681.66	18345.12
681.80	18600.24
681.94	18380.23
682.07	18712.58
682.21	18176.60
682.35	18099.36
682.49	17994.04
682.62	18120.43
682.76	18263.20
682.90	18253.84
683.04	17884.03
683.17	17972.97
683.31	17923.82
683.45	17989.36
683.59	17919.14
683.72	17867.65
683.86	17937.87
684.00	17848.93
684.13	17795.09
684.27	17635.94
684.41	17308.26
684.55	17425.29
684.68	17156.13
684.82	16837.81
684.96	17394.86
685.09	17254.43
685.23	16996.97
685.37	17123.36
685.50	17151.45
685.64	17376.14
685.78	17008.67
685.91	17151.45
686.05	16961.86
686.19	16762.92
686.32	16641.21
686.46	16652.91
686.60	16507.80
686.73	16594.40
686.87	16280.77
687.01	16453.97
687.14	16290.13
687.28	16285.45
687.42	16259.70
687.55	16229.27
687.69	16280.77
687.82	16320.56
687.96	16479.71
688.10	15910.96
688.23	15915.64
688.37	15974.16
688.50	16084.16
688.64	15817.34
688.78	15822.02
688.91	15522.43
689.05	15735.42
689.18	15658.18
689.32	15290.72
689.46	15475.62
689.59	15206.46
689.73	15339.87
689.86	15225.18
690.00	15297.74
690.13	15309.44
690.27	15267.31
690.41	15030.92
690.54	15229.87
690.68	15122.20
690.81	15124.54
690.95	15194.76
691.08	14951.34
691.22	15136.24
691.35	14698.56
691.49	14867.08
691.62	15077.73
691.76	14649.41
691.89	14677.50
692.03	14413.02
692.16	14424.72
692.30	14410.68
692.43	14380.25
692.57	14274.93
692.70	14068.96
692.84	14125.13
692.97	14008.11
693.11	14134.50
693.24	14090.02
693.38	13970.66
693.51	14235.14
693.65	14043.21
693.78	13879.38
693.92	14024.49
694.05	13984.70
694.19	13884.06
694.32	13373.82
694.45	13476.80
694.59	13331.69
694.72	13469.78
694.86	13502.55
694.99	13226.37
695.13	13305.95
695.26	13184.24
695.39	13060.19
695.53	13238.07
695.66	13090.62
695.80	13399.57
695.93	13109.34
696.07	13011.04
696.20	13165.51
696.33	12709.11
696.47	13032.10
696.60	12875.29
696.73	12849.54
696.87	12606.13
697.00	12428.24
697.14	12587.40
697.27	12402.50
697.40	12554.63
697.54	12453.99
697.67	12325.26
697.80	12184.83
697.94	12407.18
698.07	12215.26
698.21	12250.36
698.34	12191.85
698.47	12226.96
698.61	12056.10
698.74	12065.46
698.87	11934.39
699.01	11878.22
699.14	11822.05
699.27	11826.73
699.40	11812.68
699.54	11833.75
699.67	11634.80
699.80	11503.73
699.94	11576.29
700.07	11487.35
700.20	11260.32
700.34	11194.78
700.47	11201.80
700.60	11239.25
700.73	11143.29
700.87	11363.30
701.00	11241.59
701.13	11068.39
701.26	11236.91
701.40	11103.50
701.53	11131.59
701.66	10899.87
701.79	11040.31
701.93	10881.15
702.06	10658.80
702.19	10693.91
702.32	10572.20
702.46	10462.19
702.59	10530.07
702.72	10314.74
702.85	10394.32
702.99	10384.96
703.12	10478.58
703.25	10312.40
703.38	10251.55
703.51	10513.69
703.65	10200.05
703.78	10225.80
703.91	10157.92
704.04	10162.61
704.17	10078.35
704.31	10197.71
704.44	9991.75
704.57	9781.10
704.70	9940.26
704.83	9830.25
704.96	9673.43
705.10	9731.95
705.23	9507.26
>>>>>End Processed Spectral Data<<<<<
