SpectraSuite Data File
++++++++++++++++++++++++++++++++++++
Date: Fri Oct 18 13:58:40 GMT-05:00 2013
User: bianchi
Dark Spectrum Present: No
Reference Spectrum Present: No
Number of Sampled Component Spectra: 1
Spectrometers: USB2+H05261
Integration Time (usec): 50000 (USB2+H05261)
Spectra Averaged: 1 (USB2+H05261)
Boxcar Smoothing: 0 (USB2+H05261)
Correct for Electrical Dark: No (USB2+H05261)
Strobe/Lamp Enabled: No (USB2+H05261)
Correct for Detector Non-linearity: No (USB2+H05261)
Correct for Stray Light: No (USB2+H05261)
Number of Pixels in Processed Spectrum: 2048
>>>>>Begin Processed Spectral Data<<<<<
365.73	0.00
365.92	0.00
366.12	0.00
366.32	0.00
366.52	0.00
366.72	0.00
366.91	0.00
367.11	0.00
367.31	0.00
367.51	0.00
367.70	0.00
367.90	0.00
368.10	0.00
368.30	0.00
368.49	0.00
368.69	0.00
368.89	0.00
369.09	0.00
369.28	0.00
369.48	0.00
369.68	0.00
369.87	0.00
370.07	0.00
370.27	0.00
370.47	0.00
370.66	95.96
370.86	152.13
371.06	152.13
371.25	159.16
371.45	166.18
371.65	102.98
371.84	173.20
372.04	170.86
372.24	196.60
372.44	161.50
372.63	212.99
372.83	264.48
373.03	196.60
373.22	182.56
373.42	215.33
373.62	201.29
373.81	285.55
374.01	175.54
374.21	304.27
374.40	170.86
374.60	285.55
374.79	264.48
374.99	245.76
375.19	224.69
375.38	231.71
375.58	252.78
375.78	262.14
375.97	250.44
376.17	238.73
376.37	311.29
376.56	299.59
376.76	227.03
376.95	294.91
377.15	287.89
377.35	234.05
377.54	217.67
377.74	266.82
377.93	322.99
378.13	353.42
378.33	301.93
378.52	285.55
378.72	250.44
378.91	325.33
379.11	271.50
379.31	301.93
379.50	229.37
379.70	397.89
379.89	287.89
380.09	278.52
380.28	259.80
380.48	301.93
380.68	285.55
380.87	252.78
381.07	376.83
381.26	299.59
381.46	320.65
381.65	344.06
381.85	241.08
382.04	351.08
382.24	390.87
382.43	327.68
382.63	337.04
382.83	337.04
383.02	332.36
383.22	285.55
383.41	339.38
383.61	365.12
383.80	435.34
384.00	353.42
384.19	381.51
384.39	376.83
384.58	379.17
384.78	484.49
384.97	425.98
385.17	449.38
385.36	404.91
385.56	430.66
385.75	362.78
385.95	482.15
386.14	454.06
386.34	414.27
386.53	414.27
386.72	425.98
386.92	444.70
387.11	444.70
387.31	351.08
387.50	407.25
387.70	449.38
387.89	475.13
388.09	395.55
388.28	475.13
388.48	397.89
388.67	507.90
388.86	440.02
389.06	510.24
389.25	372.15
389.45	496.19
389.64	421.30
389.84	472.79
390.03	386.19
390.22	444.70
390.42	411.93
390.61	463.43
390.81	512.58
391.00	547.69
391.19	573.43
391.39	580.45
391.58	463.43
391.78	592.16
391.97	482.15
392.16	533.64
392.36	575.77
392.55	454.06
392.75	543.00
392.94	540.66
393.13	507.90
393.33	484.49
393.52	491.51
393.71	573.43
393.91	550.03
394.10	580.45
394.29	582.79
394.49	608.54
394.68	603.86
394.88	550.03
395.07	725.57
395.26	578.11
395.46	613.22
395.65	739.61
395.84	622.58
396.04	641.31
396.23	624.92
396.42	655.35
396.62	608.54
396.81	662.37
397.00	690.46
397.19	634.29
397.39	683.44
397.58	669.39
397.77	655.35
397.97	641.31
398.16	709.18
398.35	650.67
398.55	674.07
398.74	727.91
398.93	716.20
399.12	723.23
399.32	702.16
399.51	779.40
399.70	781.74
399.90	702.16
400.09	802.80
400.28	734.93
400.47	723.23
400.67	812.17
400.86	777.06
401.05	781.74
401.24	793.44
401.44	788.76
401.63	751.31
401.82	744.29
402.01	884.72
402.21	767.70
402.40	805.14
402.59	805.14
402.78	842.59
402.97	896.43
403.17	809.83
403.36	828.55
403.55	837.91
403.74	894.08
403.93	866.00
404.13	851.96
404.32	933.87
404.51	910.47
404.70	896.43
404.89	917.49
405.09	1011.11
405.28	931.53
405.47	938.55
405.66	978.34
405.85	964.30
406.05	999.41
406.24	905.79
406.43	957.28
406.62	1022.81
406.81	1011.11
407.00	959.62
407.20	1006.43
407.39	983.02
407.58	1032.18
407.77	1123.46
407.96	1062.60
408.15	1130.48
408.34	1067.28
408.54	1041.54
408.73	1090.69
408.92	1036.86
409.11	1069.62
409.30	1071.97
409.49	1069.62
409.68	1069.62
409.87	1149.20
410.07	1128.14
410.26	1121.12
410.45	1217.08
410.64	1172.61
410.83	1214.74
411.02	1174.95
411.21	1181.97
411.40	1151.54
411.59	1217.08
411.78	1196.01
411.98	1259.21
412.17	1294.32
412.36	1303.68
412.55	1238.14
412.74	1376.24
412.93	1432.41
413.12	1324.74
413.31	1397.30
413.50	1385.60
413.69	1453.47
413.88	1437.09
414.07	1423.05
414.26	1472.20
414.45	1490.92
414.64	1446.45
414.83	1523.69
415.02	1509.65
415.22	1488.58
415.41	1575.18
415.60	1591.56
415.79	1598.59
415.98	1490.92
416.17	1584.54
416.36	1568.16
416.55	1636.03
416.74	1584.54
416.93	1600.93
417.12	1673.48
417.31	1682.85
417.50	1736.68
417.69	1689.87
417.88	1769.44
418.07	1650.08
418.26	1813.92
418.45	1696.89
418.64	1823.28
418.83	1834.98
419.02	1748.38
419.21	1790.51
419.39	1799.87
419.58	1872.43
419.77	1790.51
419.96	1884.13
420.15	1853.70
420.34	1877.11
420.53	1872.43
420.72	1788.17
420.91	1907.54
421.10	1834.98
421.29	1860.73
421.48	1877.11
421.67	1867.75
421.86	1930.94
422.05	2057.33
422.24	1912.22
422.43	1961.37
422.61	1987.11
422.80	1980.09
422.99	2001.16
423.18	2036.27
423.37	2010.52
423.56	1975.41
423.75	1959.03
423.94	1895.83
424.13	1837.32
424.32	1893.49
424.50	2094.78
424.69	2031.58
424.88	2043.29
425.07	1975.41
425.26	1975.41
425.45	2057.33
425.64	2111.16
425.83	2012.86
426.01	2132.23
426.20	1966.05
426.39	2003.50
426.58	2120.53
426.77	1980.09
426.96	2012.86
427.15	2073.71
427.33	2188.40
427.52	2207.13
427.71	1998.82
427.90	2094.78
428.09	2073.71
428.28	2242.23
428.46	2127.55
428.65	2179.04
428.84	2221.17
429.03	2211.81
429.22	2258.62
429.40	2237.55
429.59	2246.91
429.78	2132.23
429.97	2211.81
430.16	2209.47
430.34	2251.60
430.53	2321.81
430.72	2396.71
430.91	2275.00
431.10	2258.62
431.28	2310.11
431.47	2289.04
431.66	2459.90
431.85	2394.37
432.03	2361.60
432.22	2363.94
432.41	2452.88
432.60	2483.31
432.79	2359.26
432.97	2342.88
433.16	2513.74
433.35	2443.52
433.54	2436.50
433.72	2473.95
433.91	2314.79
434.10	2504.37
434.28	2420.11
434.47	2607.36
434.66	2569.91
434.85	2495.01
435.03	2513.74
435.22	2595.65
435.41	2665.87
435.59	2581.61
435.78	2619.06
435.97	2658.85
436.16	2679.91
436.34	2689.28
436.53	2846.09
436.72	2775.88
436.90	2609.70
437.09	2731.41
437.28	2576.93
437.46	2736.09
437.65	2738.43
437.84	2892.90
438.02	2853.11
438.21	2888.22
438.40	2719.70
438.58	2871.84
438.77	2949.08
438.96	2773.53
439.14	2916.31
439.33	2906.95
439.52	2911.63
439.70	2963.12
439.89	2913.97
440.08	2913.97
440.26	3059.08
440.45	2942.05
440.63	3112.91
440.82	3112.91
441.01	3047.38
441.19	3133.98
441.38	3269.73
441.57	3070.78
441.75	3197.17
441.94	3286.11
442.12	3201.85
442.31	3246.32
442.50	3321.22
442.68	3342.28
442.87	3328.24
443.05	3283.77
443.24	3293.13
443.43	3482.72
443.61	3361.01
443.80	3602.08
443.98	3180.79
444.17	3176.11
444.35	3447.61
444.54	3492.08
444.73	3459.31
444.91	3407.82
445.10	3485.06
445.28	3342.28
445.47	3363.35
445.65	3459.31
445.84	3634.85
446.02	3396.12
446.21	3396.12
446.39	3473.36
446.58	3482.72
446.77	3555.27
446.95	3447.61
447.14	3503.78
447.32	3527.19
447.51	3609.11
447.69	3421.86
447.88	3674.64
448.06	3487.40
448.25	3440.59
448.43	3576.34
448.62	3611.45
448.80	3548.25
448.99	3534.21
449.17	3517.83
449.36	3566.98
449.54	3700.39
449.73	3719.11
449.91	3705.07
450.10	3637.19
450.28	3829.12
450.46	3672.30
450.65	3786.99
450.83	3754.22
451.02	3655.92
451.20	3803.37
451.39	3920.40
451.57	3763.58
451.76	3831.46
451.94	3705.07
452.13	3801.03
452.31	3843.16
452.49	3864.22
452.68	3861.88
452.86	3983.59
453.05	3772.94
453.23	3964.87
453.42	3772.94
453.60	3829.12
453.78	3815.07
453.97	3847.84
454.15	3873.59
454.34	3913.38
454.52	3932.10
454.70	3992.95
454.89	4077.21
455.07	4032.74
455.26	3929.76
455.44	4102.96
455.62	4117.00
455.81	4023.38
455.99	4032.74
456.17	4081.89
456.36	4060.83
456.54	4264.46
456.73	4320.63
456.91	4264.46
457.09	4315.95
457.28	4421.27
457.46	4140.41
457.64	4262.12
457.83	4407.23
458.01	4234.03
458.19	4306.59
458.38	4322.97
458.56	4465.74
458.74	4454.04
458.93	4414.25
459.11	4449.36
459.29	4344.03
459.48	4479.79
459.66	4437.66
459.84	4451.70
460.03	4711.50
460.21	4741.93
460.39	4547.66
460.57	4465.74
460.76	4685.75
460.94	4606.17
461.12	4493.83
461.31	4608.51
461.49	4507.87
461.67	4652.98
461.85	4547.66
462.04	4681.07
462.22	4695.11
462.40	4606.17
462.59	4755.97
462.77	4692.77
462.95	4786.40
463.13	4812.14
463.32	4709.16
463.50	4713.84
463.68	4786.40
463.86	4676.39
464.05	4669.37
464.23	4746.61
464.41	4894.06
464.59	4833.21
464.78	4812.14
464.96	4784.06
465.14	4814.48
465.32	5008.75
465.50	5004.07
465.69	4980.66
465.87	4870.65
466.05	4889.38
466.23	4936.19
466.41	5053.22
466.60	5085.98
466.78	5088.32
466.96	5053.22
467.14	4919.81
467.32	4957.25
467.51	5107.05
467.69	5097.69
467.87	5034.49
468.05	5067.26
468.23	5191.31
468.41	5123.43
468.60	5226.42
468.78	5249.82
468.96	5198.33
469.14	5266.21
469.32	5146.84
469.50	5153.86
469.69	5387.91
469.87	5313.02
470.05	5392.59
470.23	5324.72
470.41	5231.10
470.59	5446.43
470.77	5277.91
470.95	5514.30
471.14	5551.75
471.32	5425.36
471.50	5605.58
471.68	5687.50
471.86	5593.88
472.04	5481.53
472.22	5703.89
472.40	5533.03
472.58	5589.20
472.77	5610.26
472.95	5827.93
473.13	5874.74
473.31	5760.06
473.49	5654.73
473.67	5827.93
473.85	5909.85
474.03	6008.16
474.21	6010.50
474.39	6045.60
474.57	6069.01
474.75	6045.60
474.93	6113.48
475.12	6113.48
475.30	6066.67
475.48	6286.68
475.66	6246.89
475.84	6272.64
476.02	6251.57
476.20	6319.45
476.38	6396.68
476.56	6497.33
476.74	6530.09
476.92	6466.90
477.10	6532.44
477.28	6537.12
477.46	6597.97
477.64	6607.33
477.82	6850.75
478.00	6942.03
478.18	6895.22
478.36	6995.86
478.54	7052.03
478.72	6864.79
478.90	6965.43
479.08	7042.67
479.26	7342.26
479.44	7229.91
479.62	7283.75
479.80	7346.94
479.98	7297.79
480.16	7344.60
480.34	7527.16
480.52	7723.77
480.70	7492.05
480.88	7616.10
481.06	7768.24
481.24	7840.79
481.41	7634.83
481.59	7831.43
481.77	8072.51
481.95	8070.17
482.13	8011.65
482.31	8065.49
482.49	8105.28
482.67	8168.47
482.85	8198.90
483.03	8332.31
483.21	8549.98
483.39	8659.98
483.57	8667.00
483.74	8697.43
483.92	8531.25
484.10	8777.01
484.28	8723.18
484.46	8903.40
484.64	8861.27
484.82	8971.27
485.00	9081.28
485.18	9181.92
485.35	9202.99
485.53	9495.55
485.71	9408.95
485.89	9441.72
486.07	9556.41
486.25	9514.28
486.43	9549.39
486.61	9657.05
486.78	9701.52
486.96	9839.61
487.14	9916.85
487.32	10120.48
487.50	10214.10
487.68	10251.55
487.85	10071.33
488.03	10356.87
488.21	10333.47
488.39	10391.98
488.57	10684.55
488.75	10588.58
488.92	10705.61
489.10	10860.09
489.28	10759.44
489.46	10867.11
489.64	10890.51
489.81	10939.66
489.99	11185.42
490.17	11295.43
490.35	11396.07
490.53	11475.65
490.70	11599.70
490.88	11515.44
491.06	11538.84
491.24	11836.09
491.41	11672.25
491.59	11798.64
491.77	11978.86
491.95	11852.47
492.13	12147.38
492.30	12250.36
492.48	12315.90
492.66	12138.02
492.84	12332.28
493.01	12444.63
493.19	12128.66
493.37	12571.02
493.54	12835.50
493.72	12676.34
493.90	12723.15
494.08	12978.27
494.25	12844.86
494.43	13043.81
494.61	12978.27
494.79	13111.68
494.96	13074.23
495.14	13130.41
495.32	13528.30
495.49	13680.43
495.67	13479.15
495.85	13748.31
496.02	13797.46
496.20	13872.36
496.38	13851.29
496.55	13980.02
496.73	14202.37
496.91	13898.10
497.09	14211.73
497.26	14155.56
497.44	14214.07
497.62	14370.89
497.79	14384.93
497.97	14539.41
498.14	14506.64
498.32	14665.80
498.50	14717.29
498.67	14808.57
498.85	14860.06
499.03	14916.23
499.20	15073.05
499.38	14810.91
499.56	15171.35
499.73	14806.23
499.91	15225.18
500.08	15391.36
500.26	15456.90
500.44	15227.53
500.61	15283.70
500.79	15412.43
500.97	15456.90
501.14	15417.11
501.32	15737.76
501.49	15772.87
501.67	15747.12
501.84	15770.53
502.02	16053.73
502.20	16095.86
502.37	16119.27
502.55	16056.08
502.72	16137.99
502.90	16088.84
503.07	15812.66
503.25	16135.65
503.43	15932.03
503.60	16416.52
503.78	16690.36
503.95	16477.37
504.13	16486.73
504.30	16348.64
504.48	16659.93
504.65	16531.20
504.83	16655.25
505.01	16999.31
505.18	17106.98
505.36	17319.96
505.53	16903.35
505.71	16826.11
505.88	17149.11
506.06	16964.20
506.23	17121.02
506.41	17350.39
506.58	17539.97
506.76	17369.12
506.93	17205.28
507.11	17432.31
507.28	17483.80
507.46	17261.45
507.63	17472.10
507.81	17781.05
507.98	17341.03
508.16	17633.60
508.33	17617.21
508.50	17816.16
508.68	17951.91
508.85	17991.70
509.03	18338.10
509.20	18045.53
509.38	17933.18
509.55	18300.65
509.73	18218.73
509.90	18050.21
510.08	18143.83
510.25	18476.19
510.42	18178.94
510.60	18724.29
510.77	18581.51
510.95	18801.52
511.12	18249.16
511.30	18787.48
511.47	18675.13
511.64	18658.75
511.82	18766.42
511.99	18881.10
512.17	18728.97
512.34	18719.60
512.51	19316.44
512.69	19211.12
512.86	19166.65
513.04	19335.17
513.21	19239.20
513.38	19435.81
513.56	19372.61
513.73	19194.73
513.90	19389.00
514.08	19463.90
514.25	19623.05
514.43	19751.78
514.60	19648.80
514.77	19449.85
514.95	19768.16
515.12	19789.23
515.29	19571.56
515.47	19728.38
515.64	19889.87
515.81	19611.35
515.99	20121.59
516.16	20383.73
516.33	20159.03
516.51	20238.61
516.68	19946.05
516.85	20212.87
517.03	20049.03
517.20	20196.48
517.37	20175.42
517.54	20641.18
517.72	20154.35
517.89	20521.82
518.06	20594.37
518.24	20435.22
518.41	20437.56
518.58	20402.45
518.75	20837.79
518.93	20723.10
519.10	20748.85
519.27	20669.27
519.45	20505.43
519.62	20702.04
519.79	20830.77
519.96	20762.89
520.14	20957.16
520.31	21053.12
520.48	21188.87
520.65	20889.28
520.83	21582.08
521.00	21415.90
521.17	21458.03
521.34	21130.36
521.52	21476.76
521.69	21434.63
521.86	21647.61
522.03	21443.99
522.20	21682.72
522.38	21598.46
522.55	21675.70
522.72	21607.83
522.89	21823.16
523.07	22136.79
523.24	21752.94
523.41	21675.70
523.58	22230.41
523.75	22375.52
523.92	21902.73
524.10	21902.73
524.27	21921.46
524.44	22265.52
524.61	22321.69
524.78	22171.89
524.96	22286.58
525.13	22670.43
525.30	22565.10
525.47	22274.88
525.64	22242.11
525.81	22586.17
525.98	22567.45
526.16	22572.13
526.33	22597.87
526.50	22963.00
526.67	22522.98
526.84	22464.46
527.01	22747.67
527.18	22902.14
527.36	22775.75
527.53	23119.81
527.70	23410.04
527.87	23023.85
528.04	23255.56
528.21	23243.86
528.38	22799.16
528.55	23108.11
528.72	23161.94
528.89	23288.33
529.07	23147.90
529.24	23194.71
529.41	23129.17
529.58	23543.45
529.75	23367.91
529.92	23201.73
530.09	23285.99
530.26	23260.24
530.43	23669.84
530.60	23325.78
530.77	23274.29
530.94	23590.26
531.11	23702.61
531.28	23480.25
531.46	23388.97
531.63	23747.08
531.80	23882.83
531.97	24011.56
532.14	23943.68
532.31	23915.59
532.48	24084.11
532.65	23838.36
532.82	23744.73
532.99	24119.22
533.16	23906.23
533.33	24123.90
533.50	24458.60
533.67	24238.59
533.84	23866.44
534.01	24189.44
534.18	24137.94
534.35	24430.51
534.52	24814.36
534.69	24439.87
534.86	24603.71
535.03	24400.08
535.20	24538.18
535.37	24245.61
535.54	24657.54
535.71	24357.96
535.88	24519.45
536.05	24746.48
536.22	25064.80
536.38	24788.61
536.55	24638.82
536.72	24690.31
536.89	24851.81
537.06	25289.49
537.23	24727.76
537.40	24847.13
537.57	24905.64
537.74	25027.35
537.91	25109.27
538.08	25282.47
538.25	25132.67
538.42	24723.08
538.59	25397.15
538.75	25158.42
538.92	25041.39
539.09	25034.37
539.26	25467.37
539.43	25495.46
539.60	25703.76
539.77	25186.50
539.94	25542.27
540.11	25305.87
540.28	25317.57
540.44	25214.59
540.61	25439.28
540.78	25408.86
540.95	25743.55
541.12	25303.53
541.29	25788.02
541.46	25500.14
541.62	25649.93
541.79	25525.88
541.96	25448.64
542.13	25766.96
542.30	25362.04
542.47	25951.86
542.63	25975.27
542.80	25738.87
542.97	26214.00
543.14	26274.85
543.31	26246.77
543.48	26101.65
543.64	26295.92
543.81	26279.54
543.98	26366.13
544.15	26263.15
544.32	26466.78
544.48	26361.45
544.65	26305.28
544.82	26281.88
544.99	25750.57
545.16	26199.96
545.32	26377.84
545.49	26782.75
545.66	26651.68
545.83	26712.53
546.00	26794.45
546.16	26462.10
546.33	26223.36
546.50	26026.76
546.67	26408.26
546.83	26298.26
547.00	26499.55
547.17	26991.06
547.34	26752.32
547.50	26862.33
547.67	26977.01
547.84	26951.27
548.00	26995.74
548.17	26728.92
548.34	27129.15
548.51	26960.63
548.67	27140.85
548.84	27056.59
549.01	26883.39
549.18	27061.27
549.34	27049.57
549.51	27080.00
549.68	27096.38
549.84	27117.45
550.01	27000.42
550.18	27182.98
550.34	27337.46
550.51	27262.56
550.68	27321.07
550.84	26984.04
551.01	27283.62
551.18	27173.62
551.34	27091.70
551.51	26974.67
551.68	27108.08
551.84	27868.76
552.01	27295.33
552.18	27487.25
552.34	27527.04
552.51	27885.14
552.68	27763.43
552.84	27690.88
553.01	27491.93
553.18	27782.16
553.34	27784.50
553.51	28114.52
553.67	27695.56
553.84	27814.93
554.01	27983.44
554.17	27637.05
554.34	27929.61
554.51	27730.67
554.67	27882.80
554.84	27302.35
555.00	28023.23
555.17	27690.88
555.33	27847.69
555.50	27854.72
555.67	28142.60
555.83	27765.78
556.00	27938.97
556.16	27999.83
556.33	27910.89
556.50	27948.34
556.66	28364.95
556.83	27817.27
556.99	28467.94
557.16	28194.09
557.32	28489.00
557.49	28098.13
557.65	28166.01
557.82	28327.50
557.98	28215.16
558.15	28486.66
558.32	28538.15
558.48	28217.50
558.65	28339.21
558.81	28088.77
558.98	28514.75
559.14	28545.17
559.31	28556.88
559.47	28308.78
559.64	28409.42
559.80	28290.06
559.97	28287.71
560.13	28353.25
560.30	28297.08
560.46	28872.85
560.63	28549.85
560.79	28606.03
560.96	28531.13
561.12	28631.77
561.29	28673.90
561.45	28589.64
561.61	28261.97
561.78	28690.29
561.94	28847.10
562.11	28907.96
562.27	28748.80
562.44	28638.80
562.60	28383.68
562.77	28510.07
562.93	28706.67
563.10	28959.45
563.26	28636.45
563.42	29057.75
563.59	28886.89
563.75	28840.08
563.92	29123.29
564.08	28790.93
564.24	29020.30
564.41	28587.30
564.57	28800.29
564.74	28720.71
564.90	28837.74
565.07	28975.83
565.23	28692.63
565.39	29359.68
565.56	28767.52
565.72	28657.52
565.88	29111.58
566.05	29039.03
566.21	29106.90
566.38	29076.48
566.54	29174.78
566.70	29282.44
566.87	29249.67
567.03	29069.45
567.19	29071.79
567.36	29364.36
567.52	28968.81
567.68	29209.89
567.85	29064.77
568.01	29132.65
568.17	28849.44
568.34	28924.34
568.50	29034.35
568.66	29191.16
568.83	29205.20
568.99	29326.91
569.15	29041.37
569.32	29261.38
569.48	29336.27
569.64	29310.53
569.81	29067.11
569.97	29373.72
570.13	29355.00
570.30	29252.02
570.46	29343.30
570.62	29134.99
570.78	29270.74
570.95	29127.97
571.11	29788.00
571.27	29006.26
571.43	29027.32
571.60	29046.05
571.76	28994.56
571.92	29560.97
572.09	29465.00
572.25	29195.84
572.41	29443.94
572.57	29303.51
572.74	29525.86
572.90	29106.90
573.06	29359.68
573.22	29149.03
573.38	29268.40
573.55	29013.28
573.71	29530.54
573.87	29532.88
574.03	29352.66
574.20	29387.77
574.36	29240.31
574.52	29256.70
574.68	29401.81
574.84	29652.25
575.01	29668.63
575.17	29647.57
575.33	29048.39
575.49	29291.80
575.65	29457.98
575.82	29359.68
575.98	29312.87
576.14	29865.24
576.30	29570.33
576.46	29528.20
576.62	29804.38
576.79	29542.24
576.95	29542.24
577.11	29338.62
577.27	29762.25
577.43	29591.39
577.59	29773.95
577.75	29544.58
577.92	29282.44
578.08	29326.91
578.24	29249.67
578.40	29511.81
578.56	29336.27
578.72	29465.00
578.88	29612.46
579.04	29586.71
579.21	29570.33
579.37	29376.06
579.53	29890.98
579.69	29523.52
579.85	29605.44
580.01	29303.51
580.17	29167.76
580.33	29345.64
580.49	29584.37
580.65	29900.34
580.82	29759.91
580.98	29872.26
581.14	29778.64
581.30	29935.45
581.46	29397.13
581.62	29656.93
581.78	29305.85
581.94	29914.39
582.10	29509.47
582.26	30019.71
582.42	29785.66
582.58	29418.19
582.74	29408.83
582.90	29881.62
583.06	30141.42
583.22	29434.58
583.38	29582.03
583.54	29816.08
583.70	29439.26
583.86	29713.10
584.02	29565.65
584.18	29628.84
584.34	29792.68
584.50	30050.14
584.66	29481.39
584.82	29567.99
584.98	29558.63
585.14	29619.48
585.30	29429.90
585.46	29441.60
585.62	29390.11
585.78	29750.55
585.94	29413.51
586.10	29874.60
586.26	29680.33
586.42	30082.91
586.58	30008.01
586.74	29696.72
586.90	29551.60
587.06	29357.34
587.22	29799.70
587.38	29472.03
587.54	29930.77
587.70	29778.64
587.86	30103.97
588.02	29736.51
588.18	30054.82
588.34	29975.24
588.49	30258.45
588.65	29649.91
588.81	29766.93
588.97	30174.19
589.13	29685.01
589.29	29696.72
589.45	30012.69
589.61	29755.23
589.77	30321.64
589.93	29537.56
590.08	30574.42
590.24	30209.29
590.40	29783.32
590.56	30132.06
590.72	29909.71
590.88	29853.53
591.04	29895.66
591.20	30127.38
591.35	30293.55
591.51	30499.52
591.67	30150.78
591.83	30579.10
591.99	30008.01
592.15	30368.45
592.31	30574.42
592.46	29788.00
592.62	29771.61
592.78	29872.26
592.94	29802.04
593.10	30012.69
593.26	29799.70
593.41	30026.73
593.57	30089.93
593.73	29883.96
593.89	30452.71
594.05	30284.19
594.20	30045.46
594.36	29963.54
594.52	30331.00
594.68	29823.11
594.84	30237.38
594.99	30293.55
595.15	29919.07
595.31	30211.64
595.47	30223.34
595.62	30370.79
595.78	30567.40
595.94	30061.84
596.10	30157.80
596.25	30300.58
596.41	29951.84
596.57	29926.09
596.73	29986.94
596.88	30202.27
597.04	30389.52
597.20	30045.46
597.36	30359.09
597.51	30579.10
597.67	30204.61
597.83	30237.38
597.99	30052.48
598.14	29954.18
598.30	30307.60
598.46	30206.95
598.61	30256.11
598.77	29799.70
598.93	30497.18
599.09	30574.42
599.24	30555.69
599.40	30256.11
599.56	30436.33
599.71	30106.31
599.87	30284.19
600.03	30625.91
600.18	30120.35
600.34	29954.18
600.50	30253.76
600.65	30553.35
600.81	30548.67
600.97	30125.04
601.12	30738.26
601.28	30455.05
601.44	30356.75
601.59	30309.94
601.75	29954.18
601.91	30433.99
602.06	30541.65
602.22	30349.73
602.37	30022.05
602.53	30370.79
602.69	30417.60
602.84	30295.89
603.00	30438.67
603.16	30625.91
603.31	30253.76
603.47	30518.25
603.62	29841.83
603.78	30068.86
603.94	30127.38
604.09	30483.14
604.25	30415.26
604.40	30199.93
604.56	30672.72
604.71	30747.62
604.87	30405.90
605.03	30169.51
605.18	30462.07
605.34	30134.40
605.49	30349.73
605.65	30473.78
605.80	30120.35
605.96	30118.01
606.12	29921.41
606.27	30375.47
606.43	30195.25
606.58	30309.94
606.74	29951.84
606.89	30265.47
607.05	30185.89
607.20	30309.94
607.36	30071.20
607.51	30625.91
607.67	29902.68
607.82	29577.35
607.98	30061.84
608.13	30110.99
608.29	30132.06
608.44	29937.79
608.60	29970.56
608.75	30319.30
608.91	29898.00
609.06	30246.74
609.22	30359.09
609.37	30029.07
609.53	29940.13
609.68	29942.47
609.84	29577.35
609.99	30024.39
610.15	29806.72
610.30	30122.69
610.46	29804.38
610.61	30176.53
610.76	29935.45
610.92	29951.84
611.07	30125.04
611.23	29572.67
611.38	29991.62
611.54	30059.50
611.69	29785.66
611.84	29930.77
612.00	29851.19
612.15	29748.21
612.31	30122.69
612.46	30192.91
612.62	30190.57
612.77	30176.53
612.92	29771.61
613.08	29638.20
613.23	29769.27
613.39	29912.05
613.54	29848.85
613.69	29418.19
613.85	29633.52
614.00	30160.14
614.15	29912.05
614.31	29895.66
614.46	29963.54
614.62	29326.91
614.77	29476.71
614.92	29722.46
615.08	29820.77
615.23	29692.04
615.38	29996.31
615.54	29427.56
615.69	29523.52
615.84	29303.51
616.00	29867.58
616.15	29579.69
616.30	29930.77
616.46	29439.26
616.61	29806.72
616.76	29465.00
616.92	29560.97
617.07	29371.38
617.22	29298.83
617.37	29123.29
617.53	29738.85
617.68	29247.33
617.83	29088.18
617.99	29397.13
618.14	29385.43
618.29	29303.51
618.45	29273.08
618.60	29355.00
618.75	29970.56
618.90	29102.22
619.06	29282.44
619.21	29216.91
619.36	29436.92
619.51	29294.14
619.67	29109.24
619.82	29132.65
619.97	29074.13
620.12	29153.71
620.28	28804.97
620.43	29170.10
620.58	29776.30
620.73	29355.00
620.89	29139.67
621.04	29113.92
621.19	29319.89
621.34	28851.78
621.49	28924.34
621.65	28907.96
621.80	29109.24
621.95	28875.19
622.10	28823.70
622.25	28503.04
622.41	28711.35
622.56	29134.99
622.71	29102.22
622.86	29223.93
623.01	28992.22
623.16	28739.44
623.32	28510.07
623.47	28687.95
623.62	28772.21
623.77	28458.57
623.92	28811.99
624.07	28982.85
624.23	28709.01
624.38	28926.68
624.53	28992.22
624.68	28554.54
624.83	28858.81
624.98	28875.19
625.13	28645.82
625.29	28552.20
625.44	28842.42
625.59	28730.08
625.74	28299.42
625.89	28343.89
626.04	28507.72
626.19	28341.55
626.34	28287.71
626.49	28346.23
626.65	28493.68
626.80	28851.78
626.95	28453.89
627.10	28203.46
627.25	28533.47
627.40	28133.24
627.55	28187.07
627.70	27967.06
627.85	28308.78
628.00	27957.70
628.15	28135.58
628.30	27990.47
628.45	28297.08
628.60	28357.93
628.76	28416.44
628.91	27946.00
629.06	28163.67
629.21	28147.28
629.36	27962.38
629.51	27901.53
629.66	27826.63
629.81	28051.32
629.96	28006.85
630.11	27941.32
630.26	27840.67
630.41	28041.96
630.56	27873.44
630.71	27988.13
630.86	28121.54
631.01	27850.03
631.16	28023.23
631.31	28154.30
631.46	27765.78
631.61	27756.41
631.76	28041.96
631.91	27910.89
632.06	27758.75
632.21	27676.83
632.36	27641.73
632.51	27592.58
632.66	27887.48
632.81	27395.97
632.96	27529.38
633.10	27835.99
633.25	27821.95
633.40	27793.86
633.55	27590.24
633.70	27337.46
633.85	27552.79
634.00	27363.20
634.15	27831.31
634.30	27543.42
634.45	27770.46
634.60	27456.82
634.75	27477.89
634.90	27487.25
635.05	27501.29
635.19	27552.79
635.34	27353.84
635.49	27204.05
635.64	27744.71
635.79	27248.52
635.94	27393.63
636.09	27651.09
636.24	27051.91
636.39	27096.38
636.53	26670.40
636.68	27124.47
636.83	27063.61
636.98	27133.83
637.13	27246.18
637.28	26911.48
637.43	27498.95
637.57	26930.20
637.72	26951.27
637.87	27187.66
638.02	26962.97
638.17	27140.85
638.32	26977.01
638.46	26967.65
638.61	26881.05
638.76	26658.70
638.91	26925.52
639.06	26806.16
639.20	27349.16
639.35	27103.40
639.50	27054.25
639.65	27342.14
639.80	26728.92
639.94	26867.01
640.09	26930.20
640.24	27075.32
640.39	26958.29
640.54	26391.88
640.68	26836.58
640.83	26499.55
640.98	26775.73
641.13	26553.38
641.27	27054.25
641.42	26644.66
641.57	26630.62
641.72	26403.58
641.86	26733.60
642.01	26209.32
642.16	26841.26
642.31	26497.20
642.45	26693.81
642.60	26511.25
642.75	26441.03
642.90	26665.72
643.04	26518.27
643.19	26677.43
643.34	26590.83
643.48	26260.81
643.63	26309.96
643.78	26094.63
643.93	26335.71
644.07	26541.68
644.22	26471.46
644.37	26377.84
644.51	26445.71
644.66	26155.49
644.81	26015.05
644.95	26127.40
645.10	25902.71
645.25	26450.39
645.39	26228.04
645.54	26230.38
645.69	26019.74
645.83	26656.36
645.98	25982.29
646.13	26375.50
646.27	26094.63
646.42	26272.51
646.57	26492.52
646.71	26314.64
646.86	26359.11
647.00	26019.74
647.15	26162.51
647.30	25942.50
647.44	25750.57
647.59	26185.91
647.74	26106.34
647.88	26094.63
648.03	25867.60
648.17	25954.20
648.32	26092.29
648.47	25916.75
648.61	26312.30
648.76	26174.21
648.90	25603.12
649.05	25923.77
649.20	25860.58
649.34	25649.93
649.49	25551.63
649.63	25640.57
649.78	25834.83
649.92	25813.77
650.07	26099.31
650.21	25902.71
650.36	25617.16
650.51	25586.74
650.65	25883.98
650.80	25874.62
650.94	25481.41
651.09	26073.57
651.23	25516.52
651.38	25308.21
651.52	25495.46
651.67	25830.15
651.81	25764.62
651.96	25692.06
652.10	25788.02
652.25	25656.95
652.39	25635.89
652.54	25553.97
652.68	25303.53
652.83	25312.89
652.97	25518.86
653.12	25109.27
653.26	25135.01
653.41	25582.06
653.55	25441.62
653.70	25055.43
653.84	25329.28
653.99	25399.49
654.13	25518.86
654.27	24931.39
654.42	25376.09
654.56	25305.87
654.71	25579.71
654.85	25511.84
655.00	25338.64
655.14	24952.45
655.29	25413.54
655.43	25254.38
655.57	25743.55
655.72	24596.69
655.86	25081.18
656.01	25214.59
656.15	25228.63
656.30	24992.24
656.44	25530.56
656.58	24800.32
656.73	24926.71
656.87	24886.92
657.01	24643.50
657.16	25001.60
657.30	25418.22
657.45	24643.50
657.59	24685.63
657.73	24889.26
657.88	24687.97
658.02	24922.02
658.16	24982.88
658.31	24734.78
658.45	24540.52
658.60	24641.16
658.74	24290.08
658.88	24964.15
659.03	24627.12
659.17	24666.91
659.31	24861.17
659.46	24582.65
659.60	24666.91
659.74	24510.09
659.89	24254.97
660.03	24334.55
660.17	24486.68
660.32	24273.70
660.46	24271.36
660.60	24025.60
660.74	24425.83
660.89	24100.50
661.03	24191.78
661.17	23939.00
661.32	24222.20
661.46	24510.09
661.60	24004.53
661.74	24498.39
661.89	24538.18
662.03	24203.48
662.17	24128.58
662.31	24020.92
662.46	23882.83
662.60	23875.80
662.74	24032.62
662.88	24067.73
663.03	23637.07
663.17	23960.06
663.31	23658.14
663.45	23501.32
663.60	23852.40
663.74	23187.69
663.88	23524.72
664.02	23616.01
664.17	23960.06
664.31	23641.75
664.45	23611.32
664.59	23697.92
664.73	23435.78
664.88	23866.44
665.02	22960.66
665.16	23239.18
665.30	23508.34
665.44	23365.57
665.59	23101.09
665.73	23087.04
665.87	23051.94
666.01	23138.54
666.15	23147.90
666.29	22972.36
666.44	23042.57
666.58	22934.91
666.72	22941.93
666.86	22838.95
667.00	23110.45
667.14	23309.40
667.28	23138.54
667.43	22874.06
667.57	22946.61
667.71	23075.34
667.85	22494.89
667.99	22537.02
668.13	22782.77
668.27	22764.05
668.41	22654.05
668.56	22551.06
668.70	22581.49
668.84	22740.64
668.98	22415.31
669.12	22719.58
669.26	22405.95
669.40	22431.69
669.54	22295.94
669.68	22595.53
669.82	22333.39
669.96	22125.08
670.10	22375.52
670.25	22073.59
670.39	22024.44
670.53	22317.01
670.67	22078.27
670.81	22040.82
670.95	22221.05
671.09	22141.47
671.23	21832.52
671.37	22153.17
671.51	22169.55
671.65	21869.97
671.79	22136.79
671.93	21816.13
672.07	21888.69
672.21	21584.42
672.35	21434.63
672.49	21521.23
672.63	21535.27
672.77	21837.20
672.91	21525.91
673.05	21434.63
673.19	21415.90
673.33	21591.44
673.47	21495.48
673.61	21755.28
673.75	21252.06
673.89	21118.65
674.03	21172.49
674.17	21046.10
674.31	20989.92
674.45	20989.92
674.59	21179.51
674.73	20730.12
674.87	20849.49
675.01	20936.09
675.15	20498.41
675.29	20723.10
675.43	20926.73
675.56	20746.51
675.70	20655.23
675.84	20673.95
675.98	20081.80
676.12	20554.58
676.26	20566.29
676.40	20823.75
676.54	20680.97
676.68	20397.77
676.82	20203.50
676.96	20081.80
677.10	20123.93
677.23	19927.32
677.37	19840.72
677.51	20163.72
677.65	20020.94
677.79	19735.40
677.93	19686.25
678.07	19932.00
678.21	19527.09
678.34	19534.11
678.48	19433.47
678.62	19515.39
678.76	19260.27
678.90	19491.98
679.04	19477.94
679.18	19618.37
679.31	19283.67
679.45	19066.00
679.59	18991.11
679.73	19002.81
679.87	18803.86
680.00	18944.30
680.14	19241.54
680.28	18782.80
680.42	18548.75
680.56	18630.66
680.70	18616.62
680.83	18948.98
680.97	18754.71
681.11	18663.43
681.25	18867.06
681.39	18246.82
681.52	18335.76
681.66	18253.84
681.80	18054.89
681.94	18408.31
682.07	18216.39
682.21	18169.58
682.35	17813.82
682.49	18192.98
682.62	17970.63
682.76	17935.53
682.90	17926.16
683.04	17944.89
683.17	17792.75
683.31	17584.44
683.45	17469.76
683.59	17675.73
683.72	17584.44
683.86	17914.46
684.00	17584.44
684.13	17460.40
684.27	17294.22
684.41	17315.28
684.55	17078.89
684.68	16828.45
684.82	17106.98
684.96	17074.21
685.09	16865.90
685.23	16613.12
685.37	16748.87
685.50	17170.17
685.64	16917.39
685.78	16510.14
685.91	16966.54
686.05	16620.14
686.19	16688.02
686.32	16676.32
686.46	16582.70
686.60	16535.88
686.73	16442.26
686.87	16479.71
687.01	16493.76
687.14	16439.92
687.28	16037.35
687.42	16032.67
687.55	16051.39
687.69	16123.95
687.82	15908.62
687.96	15903.94
688.10	15988.20
688.23	16023.31
688.37	15882.88
688.50	15903.94
688.64	16065.44
688.78	15777.55
688.91	15396.04
689.05	15620.74
689.18	15571.58
689.32	15243.91
689.46	15201.78
689.59	15169.01
689.73	15140.93
689.86	15147.95
690.00	14998.15
690.13	15098.80
690.27	14965.39
690.41	15166.67
690.54	14871.76
690.68	14787.50
690.81	15014.54
690.95	15042.62
691.08	14714.95
691.22	14679.84
691.35	14630.69
691.49	14616.65
691.62	14562.81
691.76	14546.43
691.89	14492.60
692.03	14281.95
692.16	14178.97
692.30	14317.06
692.43	14298.33
692.57	14097.05
692.70	13965.98
692.84	13881.72
692.97	13893.42
693.11	14071.30
693.24	13731.92
693.38	13762.35
693.51	14022.15
693.65	13851.29
693.78	13745.97
693.92	13497.87
694.05	13694.47
694.19	13689.79
694.32	13479.15
694.45	13296.58
694.59	13238.07
694.72	13341.05
694.86	13097.64
694.99	12961.89
695.13	13163.17
695.26	13004.02
695.39	13034.44
695.53	13163.17
695.66	13163.17
695.80	12968.91
695.93	13177.22
696.07	13081.25
696.20	12964.23
696.33	12779.32
696.47	12889.33
696.60	12854.22
696.73	12484.42
696.87	12498.46
697.00	12650.60
697.14	12332.28
697.27	12358.03
697.40	12159.08
697.54	12325.26
697.67	12236.32
697.80	12135.68
697.94	11985.88
698.07	12079.50
698.21	11939.07
698.34	12060.78
698.47	12013.97
698.61	12063.12
698.74	12077.16
698.87	12079.50
699.01	11712.04
699.14	11672.25
699.27	11651.19
699.40	11716.72
699.54	11494.37
699.67	11316.49
699.80	11314.15
699.94	11431.18
700.07	11225.21
700.20	11272.02
700.34	11119.89
700.47	11293.08
700.60	11267.34
700.73	11197.12
700.87	11094.14
701.00	11084.78
701.13	11187.76
701.26	11300.11
701.40	11281.38
701.53	10991.16
701.66	11075.42
701.79	10707.95
701.93	11009.88
702.06	10665.82
702.19	10626.03
702.32	10640.08
702.46	10366.23
702.59	10342.83
702.72	10251.55
702.85	10045.58
702.99	10228.14
703.12	10368.57
703.25	10317.08
703.38	10097.07
703.51	10314.74
703.65	10373.25
703.78	10263.25
703.91	10031.54
704.04	10284.31
704.17	10050.26
704.31	9954.30
704.44	9884.08
704.57	9799.82
704.70	9558.75
704.83	9795.14
704.96	9666.41
705.10	9556.41
705.23	9533.00
>>>>>End Processed Spectral Data<<<<<
