SpectraSuite Data File
++++++++++++++++++++++++++++++++++++
Date: Fri Oct 18 13:58:02 GMT-05:00 2013
User: bianchi
Dark Spectrum Present: No
Reference Spectrum Present: No
Number of Sampled Component Spectra: 1
Spectrometers: USB2+H05261
Integration Time (usec): 50000 (USB2+H05261)
Spectra Averaged: 1 (USB2+H05261)
Boxcar Smoothing: 0 (USB2+H05261)
Correct for Electrical Dark: No (USB2+H05261)
Strobe/Lamp Enabled: No (USB2+H05261)
Correct for Detector Non-linearity: No (USB2+H05261)
Correct for Stray Light: No (USB2+H05261)
Number of Pixels in Processed Spectrum: 2048
>>>>>Begin Processed Spectral Data<<<<<
365.73	0.00
365.92	0.00
366.12	0.00
366.32	0.00
366.52	0.00
366.72	0.00
366.91	0.00
367.11	0.00
367.31	0.00
367.51	0.00
367.70	0.00
367.90	0.00
368.10	0.00
368.30	0.00
368.49	0.00
368.69	0.00
368.89	0.00
369.09	0.00
369.28	0.00
369.48	0.00
369.68	0.00
369.87	0.00
370.07	0.00
370.27	0.00
370.47	0.00
370.66	65.54
370.86	140.43
371.06	159.16
371.25	124.05
371.45	91.28
371.65	84.26
371.84	147.45
372.04	177.88
372.24	166.18
372.44	147.45
372.63	198.95
372.83	191.92
373.03	147.45
373.22	194.26
373.42	236.39
373.62	215.33
373.81	234.05
374.01	301.93
374.21	184.90
374.40	243.42
374.60	222.35
374.79	334.70
374.99	196.60
375.19	273.84
375.38	248.10
375.58	245.76
375.78	264.48
375.97	252.78
376.17	238.73
376.37	177.88
376.56	215.33
376.76	241.08
376.95	245.76
377.15	290.23
377.35	306.61
377.54	252.78
377.74	271.50
377.93	238.73
378.13	308.95
378.33	367.46
378.52	266.82
378.72	271.50
378.91	313.63
379.11	278.52
379.31	299.59
379.50	227.03
379.70	255.12
379.89	315.97
380.09	257.46
380.28	285.55
380.48	325.33
380.68	285.55
380.87	320.65
381.07	311.29
381.26	407.25
381.46	330.02
381.65	315.97
381.85	322.99
382.04	341.72
382.24	297.25
382.43	330.02
382.63	271.50
382.83	264.48
383.02	327.68
383.22	320.65
383.41	374.49
383.61	320.65
383.80	407.25
384.00	362.78
384.19	353.42
384.39	421.30
384.58	308.95
384.78	348.74
384.97	409.59
385.17	465.77
385.36	397.89
385.56	320.65
385.75	341.72
385.95	409.59
386.14	440.02
386.34	344.06
386.53	360.44
386.72	311.29
386.92	442.36
387.11	411.93
387.31	339.38
387.50	393.21
387.70	395.55
387.89	430.66
388.09	425.98
388.28	479.81
388.48	512.58
388.67	463.43
388.86	421.30
389.06	477.47
389.25	414.27
389.45	465.77
389.64	418.96
389.84	528.96
390.03	468.11
390.22	526.62
390.42	507.90
390.61	524.28
390.81	503.22
391.00	451.72
391.19	526.62
391.39	528.96
391.58	550.03
391.78	554.71
391.97	489.17
392.16	596.84
392.36	550.03
392.55	582.79
392.75	559.39
392.94	498.53
393.13	547.69
393.33	500.87
393.52	564.07
393.71	634.29
393.91	568.75
394.10	552.37
394.29	603.86
394.49	582.79
394.68	631.94
394.88	608.54
395.07	627.26
395.26	477.47
395.46	655.35
395.65	648.33
395.84	596.84
396.04	596.84
396.23	664.71
396.42	695.14
396.62	671.73
396.81	599.18
397.00	662.37
397.19	676.41
397.39	674.07
397.58	653.01
397.77	641.31
397.97	664.71
398.16	725.57
398.35	669.39
398.55	748.97
398.74	617.90
398.93	784.08
399.12	622.58
399.32	727.91
399.51	751.31
399.70	730.25
399.90	741.95
400.09	812.17
400.28	770.04
400.47	791.10
400.67	751.31
400.86	727.91
401.05	760.67
401.24	784.08
401.44	863.66
401.63	795.78
401.82	837.91
402.01	861.32
402.21	856.64
402.40	770.04
402.59	781.74
402.78	798.12
402.97	880.04
403.17	931.53
403.36	966.64
403.55	997.07
403.74	835.57
403.93	774.72
404.13	905.79
404.32	884.72
404.51	861.32
404.70	919.83
404.89	868.34
405.09	1102.39
405.28	978.34
405.47	1055.58
405.66	1020.47
405.85	961.96
406.05	1013.45
406.24	973.66
406.43	1046.22
406.62	1053.24
406.81	1076.65
407.00	990.05
407.20	954.94
407.39	983.02
407.58	1062.60
407.77	1135.16
407.96	1067.28
408.15	1093.03
408.34	1071.97
408.54	1015.79
408.73	1125.80
408.92	1013.45
409.11	1086.01
409.30	1158.57
409.49	1039.20
409.68	1172.61
409.87	1158.57
410.07	1179.63
410.26	1167.93
410.45	1165.59
410.64	1226.44
410.83	1296.66
411.02	1200.69
411.21	1196.01
411.40	1301.34
411.59	1273.25
411.78	1207.72
411.98	1348.15
412.17	1299.00
412.36	1399.64
412.55	1280.27
412.74	1390.28
412.93	1437.09
413.12	1357.51
413.31	1352.83
413.50	1392.62
413.69	1364.53
413.88	1423.05
414.07	1493.26
414.26	1516.67
414.45	1607.95
414.64	1465.18
414.83	1554.12
415.02	1530.71
415.22	1577.52
415.41	1533.05
415.60	1514.33
415.79	1570.50
415.98	1511.99
416.17	1563.48
416.36	1530.71
416.55	1614.97
416.74	1678.16
416.93	1701.57
417.12	1734.34
417.31	1675.82
417.50	1579.86
417.69	1797.53
417.88	1799.87
418.07	1741.36
418.26	1720.29
418.45	1874.77
418.64	1944.99
418.83	1755.40
419.02	1589.22
419.21	1722.63
419.39	1783.49
419.58	1839.66
419.77	1816.26
419.96	1834.98
420.15	1827.96
420.34	1834.98
420.53	1944.99
420.72	2003.50
420.91	1963.71
421.10	1984.77
421.29	1987.11
421.48	1912.22
421.67	1909.88
421.86	1926.26
422.05	1989.46
422.24	2043.29
422.43	1959.03
422.61	1944.99
422.80	1977.75
422.99	2125.21
423.18	2040.95
423.37	2029.24
423.56	2050.31
423.75	1968.39
423.94	2033.93
424.13	1844.34
424.32	2033.93
424.50	1991.80
424.69	2080.74
424.88	2087.76
425.07	1973.07
425.26	2029.24
425.45	2078.40
425.64	2054.99
425.83	2069.03
426.01	2097.12
426.20	2134.57
426.39	2073.71
426.58	2047.97
426.77	2059.67
426.96	2047.97
427.15	2127.55
427.33	2136.91
427.52	2172.02
427.71	2230.53
427.90	2092.44
428.09	2176.70
428.28	2214.15
428.46	2200.10
428.65	2200.10
428.84	2239.89
429.03	2377.98
429.22	2157.97
429.40	2300.75
429.59	2263.30
429.78	2237.55
429.97	2195.42
430.16	2200.10
430.34	2204.78
430.53	2340.54
430.72	2403.73
430.91	2359.26
431.10	2289.04
431.28	2340.54
431.47	2396.71
431.66	2441.18
431.85	2436.50
432.03	2459.90
432.22	2476.29
432.41	2399.05
432.60	2457.56
432.79	2422.45
432.97	2427.14
433.16	2562.89
433.35	2417.77
433.54	2487.99
433.72	2548.84
433.91	2581.61
434.10	2597.99
434.28	2593.31
434.47	2548.84
434.66	2621.40
434.85	2576.93
435.03	2663.53
435.22	2590.97
435.41	2775.88
435.59	2607.36
435.78	2663.53
435.97	2757.15
436.16	2703.32
436.34	2663.53
436.53	2773.53
436.72	2796.94
436.90	2745.45
437.09	2726.72
437.28	2581.61
437.46	2642.46
437.65	2717.36
437.84	2818.00
438.02	2789.92
438.21	2818.00
438.40	2818.00
438.58	2715.02
438.77	2792.26
438.96	2897.58
439.14	3014.61
439.33	2909.29
439.52	3000.57
439.70	2972.48
439.89	2932.69
440.08	2995.89
440.26	3045.04
440.45	3021.63
440.63	3021.63
440.82	3077.80
441.01	3073.12
441.19	3166.74
441.38	3208.87
441.57	3276.75
441.75	3199.51
441.94	3283.77
442.12	3363.35
442.31	3435.91
442.50	3346.97
442.68	3229.94
442.87	3361.01
443.05	3255.69
443.24	3375.05
443.43	3442.93
443.61	3407.82
443.80	3545.91
443.98	3386.76
444.17	3197.17
444.35	3463.99
444.54	3534.21
444.73	3398.46
444.91	3393.78
445.10	3375.05
445.28	3449.95
445.47	3375.05
445.65	3349.31
445.84	3330.58
446.02	3478.04
446.21	3513.14
446.39	3494.42
446.58	3557.61
446.77	3552.93
446.95	3503.78
447.14	3548.25
447.32	3576.34
447.51	3529.53
447.69	3545.91
447.88	3538.89
448.06	3503.78
448.25	3426.54
448.43	3515.48
448.62	3566.98
448.80	3438.25
448.99	3566.98
449.17	3522.51
449.36	3548.25
449.54	3740.18
449.73	3758.90
449.91	3709.75
450.10	3695.71
450.28	3747.20
450.46	3775.28
450.65	3810.39
450.83	3779.97
451.02	3880.61
451.20	3765.92
451.39	3911.04
451.57	3688.68
451.76	3761.24
451.94	3854.86
452.13	3791.67
452.31	3784.65
452.49	3702.73
452.68	3974.23
452.86	3770.60
453.05	3817.41
453.23	4030.40
453.42	3969.55
453.60	3922.74
453.78	3861.88
453.97	3815.07
454.15	3892.31
454.34	3852.52
454.52	4023.38
454.70	4025.72
454.89	3976.57
455.07	3946.14
455.26	4074.87
455.44	4112.32
455.62	4147.43
455.81	4159.13
455.99	4161.47
456.17	4074.87
456.36	4266.80
456.54	4287.86
456.73	4142.75
456.91	4234.03
457.09	4191.90
457.28	4365.10
457.46	4451.70
457.64	4381.48
457.83	4435.32
458.01	4339.35
458.19	4578.09
458.38	4241.05
458.56	4444.68
458.74	4414.25
458.93	4465.74
459.11	4414.25
459.29	4393.19
459.48	4496.17
459.66	4599.15
459.84	4575.75
460.03	4571.07
460.21	4571.07
460.39	4491.49
460.57	4617.88
460.76	4643.62
460.94	4542.98
461.12	4601.49
461.31	4610.86
461.49	4645.96
461.67	4699.80
461.85	4795.76
462.04	4643.62
462.22	4924.49
462.40	4692.77
462.59	4837.89
462.77	4884.70
462.95	5057.90
463.13	4802.78
463.32	4947.89
463.50	4880.02
463.68	4917.47
463.86	4767.67
464.05	4880.02
464.23	4887.04
464.41	4877.68
464.59	4854.27
464.78	4917.47
464.96	4835.55
465.14	4924.49
465.32	4975.98
465.50	5036.83
465.69	4961.94
465.87	5036.83
466.05	4915.12
466.23	4990.02
466.41	4971.30
466.60	5142.16
466.78	5011.09
466.96	5004.07
467.14	5107.05
467.32	5128.11
467.51	5102.37
467.69	5090.67
467.87	5235.78
468.05	4971.30
468.23	5287.27
468.41	5226.42
468.60	5231.10
468.78	5296.63
468.96	5205.35
469.14	5387.91
469.32	5270.89
469.50	5167.90
469.69	5313.02
469.87	5320.04
470.05	5404.30
470.23	5476.85
470.41	5497.92
470.59	5378.55
470.77	5425.36
470.95	5392.59
471.14	5650.05
471.32	5479.19
471.50	5657.07
471.68	5743.67
471.86	5472.17
472.04	5781.12
472.22	5750.70
472.40	5760.06
472.58	5750.70
472.77	5844.32
472.95	5795.17
473.13	5996.45
473.31	5841.98
473.49	5816.23
473.67	5949.64
473.85	5790.49
474.03	6017.52
474.21	5914.53
474.39	5991.77
474.57	6097.10
474.75	6338.17
474.93	6286.68
475.12	6228.17
475.30	6466.90
475.48	6153.27
475.66	6221.14
475.84	6179.01
476.02	6200.08
476.20	6462.22
476.38	6462.22
476.56	6551.16
476.74	6473.92
476.92	6520.73
477.10	6497.33
477.28	6626.06
477.46	6740.74
477.64	6633.08
477.82	6883.52
478.00	6981.82
478.18	7054.37
478.36	7012.24
478.54	7084.80
478.72	6927.99
478.90	7164.38
479.08	7187.79
479.26	7318.86
479.44	7353.96
479.62	7452.27
479.80	7456.95
479.98	7365.67
480.16	7620.78
480.34	7658.23
480.52	7625.47
480.70	7714.41
480.88	7552.91
481.06	7763.56
481.24	7749.51
481.41	7852.50
481.59	8070.17
481.77	8189.53
481.95	7997.61
482.13	8095.91
482.31	7985.91
482.49	8414.23
482.67	8212.94
482.85	8566.36
483.03	8674.03
483.21	8652.96
483.39	8557.00
483.57	8620.19
483.74	8823.82
483.92	8791.05
484.10	8458.70
484.28	8950.21
484.46	9090.64
484.64	9193.62
484.82	9015.74
485.00	9139.79
485.18	9235.75
485.35	9413.63
485.53	9437.04
485.71	9486.19
485.89	9713.22
486.07	9635.99
486.25	9500.23
486.43	9748.33
486.61	9729.61
486.78	9848.97
486.96	10040.90
487.14	10101.75
487.32	10221.12
487.50	10111.11
487.68	10211.76
487.85	10272.61
488.03	10595.61
488.21	10733.70
488.39	10689.23
488.57	10530.07
488.75	10640.08
488.92	11009.88
489.10	11075.42
489.28	10923.28
489.46	11164.36
489.64	11033.29
489.81	11538.84
489.99	11295.43
490.17	11375.00
490.35	11517.78
490.53	11452.24
490.70	11573.95
490.88	11812.68
491.06	11721.40
491.24	11452.24
491.41	11906.31
491.59	11845.45
491.77	12224.62
491.95	12458.67
492.13	12229.30
492.30	12442.29
492.48	12287.81
492.66	12442.29
492.84	12453.99
493.01	12407.18
493.19	12631.87
493.37	12849.54
493.54	12819.11
493.72	12739.54
493.90	13015.72
494.08	13067.21
494.25	13160.83
494.43	13268.50
494.61	13544.68
494.79	13472.12
494.96	13343.39
495.14	13415.95
495.32	13633.62
495.49	13479.15
495.67	13844.27
495.85	13652.34
496.02	13802.14
496.20	13862.99
496.38	14010.45
496.55	14298.33
496.73	14307.69
496.91	14162.58
497.09	14310.04
497.26	14319.40
497.44	14324.08
497.62	14572.18
497.79	14427.06
497.97	14466.85
498.14	14918.57
498.32	14813.25
498.50	14822.61
498.67	15157.31
498.85	15194.76
499.03	15192.42
499.20	14977.09
499.38	14981.77
499.56	15096.46
499.73	15335.19
499.91	15477.96
500.08	15442.85
500.26	15470.94
500.44	15344.55
500.61	15700.31
500.79	15655.84
500.97	15639.46
501.14	15712.02
501.32	15704.99
501.49	16060.76
501.67	15892.24
501.84	16105.23
502.02	15978.84
502.20	16093.52
502.37	16629.51
502.55	15950.75
502.72	16299.49
502.90	16201.19
503.07	16119.27
503.25	15983.52
503.43	16460.99
503.60	16629.51
503.78	16444.60
503.95	16610.78
504.13	16648.23
504.30	16706.74
504.48	16594.40
504.65	16903.35
504.83	16720.79
505.01	17235.70
505.18	17118.68
505.36	16957.18
505.53	16886.97
505.71	17207.62
505.88	17076.55
506.06	17069.53
506.23	17647.64
506.41	17224.00
506.58	17689.77
506.76	17495.50
506.93	17584.44
507.11	17238.05
507.28	17720.20
507.46	17568.06
507.63	17696.79
507.81	17958.93
507.98	17895.74
508.16	18050.21
508.33	17748.28
508.50	17865.31
508.68	17928.50
508.85	18253.84
509.03	18216.39
509.20	18452.78
509.38	18078.30
509.55	18366.18
509.73	18349.80
509.90	18295.97
510.08	18380.23
510.25	18412.99
510.42	18686.84
510.60	18906.85
510.77	18703.22
510.95	18892.80
511.12	18654.07
511.30	18689.18
511.47	18845.99
511.64	19049.62
511.82	19021.53
511.99	18967.70
512.17	19442.83
512.34	19077.71
512.51	19185.37
512.69	19363.25
512.86	18991.11
513.04	19637.09
513.21	19552.84
513.38	19513.05
513.56	19814.98
513.73	19648.80
513.90	19587.94
514.08	19728.38
514.25	19599.65
514.43	19735.40
514.60	20037.33
514.77	19772.85
514.95	20011.58
515.12	19957.75
515.29	19744.76
515.47	20121.59
515.64	20376.70
515.81	20339.26
515.99	20240.95
516.16	20423.51
516.33	20435.22
516.51	20739.49
516.68	20184.78
516.85	20402.45
517.03	20570.97
517.20	20655.23
517.37	20627.14
517.54	20774.60
517.72	20606.08
517.89	20688.00
518.06	20704.38
518.24	20692.68
518.41	20776.94
518.58	20772.25
518.75	21088.23
518.93	21163.12
519.10	21001.63
519.27	21109.29
519.45	21008.65
519.62	21078.86
519.79	21102.27
519.96	21336.32
520.14	21216.96
520.31	21090.57
520.48	21589.10
520.65	21724.85
520.83	21692.08
521.00	21390.16
521.17	21626.55
521.34	21617.19
521.52	21628.89
521.69	21453.35
521.86	22022.10
522.03	21792.73
522.20	21762.30
522.38	22029.12
522.55	22003.38
522.72	21715.49
522.89	22085.30
523.07	22373.18
523.24	22106.36
523.41	22174.24
523.58	21947.20
523.75	22122.74
523.92	21930.82
524.10	22087.64
524.27	22588.51
524.44	22766.39
524.61	22504.25
524.78	22668.09
524.96	22333.39
525.13	22728.94
525.30	22618.94
525.47	22696.17
525.64	22974.70
525.81	22773.41
525.98	22757.03
526.16	23054.28
526.33	22789.80
526.50	23007.47
526.67	22630.64
526.84	22759.37
527.01	22967.68
527.18	22794.48
527.36	23094.07
527.53	23246.20
527.70	23674.52
527.87	23410.04
528.04	23159.60
528.21	23515.36
528.38	23421.74
528.55	23489.62
528.72	23325.78
528.89	23587.92
529.07	23653.45
529.24	23740.05
529.41	23927.30
529.58	23672.18
529.75	23676.86
529.92	24002.19
530.09	23660.48
530.26	23744.73
530.43	23852.40
530.60	23658.14
530.77	23889.85
530.94	23871.12
531.11	23480.25
531.28	23672.18
531.46	23981.13
531.63	23770.48
531.80	24049.00
531.97	24264.33
532.14	24016.24
532.31	24051.34
532.48	24348.59
532.65	24184.76
532.82	24081.77
532.99	24332.21
533.16	24121.56
533.33	24379.02
533.50	24694.99
533.67	24472.64
533.84	24357.96
534.01	24393.06
534.18	24421.15
534.35	24938.41
534.52	24421.15
534.69	24704.35
534.86	24561.58
535.03	24919.68
535.20	24706.70
535.37	24982.88
535.54	25013.31
535.71	24624.78
535.88	25153.74
536.05	25034.37
536.22	24746.48
536.38	24884.58
536.55	25186.50
536.72	25434.60
536.89	25104.59
537.06	25298.85
537.23	25020.33
537.40	24959.47
537.57	25380.77
537.74	25282.47
537.91	25177.14
538.08	25127.99
538.25	25301.19
538.42	25663.97
538.59	25310.55
538.75	25226.29
538.92	25427.58
539.09	25582.06
539.26	25348.00
539.43	25792.70
539.60	25820.79
539.77	25652.27
539.94	26092.29
540.11	25497.80
540.28	25289.49
540.44	25928.45
540.61	25479.07
540.78	25472.05
540.95	25792.70
541.12	25944.84
541.29	26043.14
541.46	25926.11
541.62	25797.38
541.79	25993.99
541.96	25755.26
542.13	26017.40
542.30	25914.41
542.47	26546.36
542.63	26384.86
542.80	26326.35
542.97	26803.82
543.14	26464.44
543.31	26314.64
543.48	26623.59
543.64	26747.64
543.81	26522.95
543.98	26845.94
544.15	26721.90
544.32	26616.57
544.48	26911.48
544.65	26569.76
544.82	26274.85
544.99	26532.31
545.16	26906.80
545.32	26466.78
545.49	27260.22
545.66	27131.49
545.83	26810.84
546.00	27115.11
546.16	27065.96
546.33	26740.62
546.50	26995.74
546.67	26808.50
546.83	26904.46
547.00	27019.14
547.17	26906.80
547.34	27044.89
547.50	27520.02
547.67	27513.00
547.84	27143.19
548.00	27124.47
548.17	27094.04
548.34	27182.98
548.51	27583.21
548.67	27658.11
548.84	27733.01
549.01	27344.48
549.18	27608.96
549.34	27473.21
549.51	27124.47
549.68	27517.68
549.84	27623.00
550.01	27386.61
550.18	27381.93
550.34	27634.71
550.51	27534.06
550.68	27693.22
550.84	27501.29
551.01	27400.65
551.18	27810.25
551.34	27241.50
551.51	27543.42
551.68	27864.08
551.84	28093.45
552.01	27695.56
552.18	27931.95
552.34	27641.73
552.51	28156.64
552.68	27887.48
552.84	27531.72
553.01	27824.29
553.18	28020.89
553.34	28259.63
553.51	27737.69
553.67	28166.01
553.84	28383.68
554.01	28215.16
554.17	28264.31
554.34	28332.18
554.51	28318.14
554.67	28100.47
554.84	28292.40
555.00	28257.29
555.17	28276.01
555.33	28273.67
555.50	28439.85
555.67	28388.36
555.83	28496.02
556.00	28135.58
556.16	28711.35
556.33	28390.70
556.50	28327.50
556.66	28545.17
556.83	28795.61
556.99	28797.95
557.16	29010.94
557.32	28556.88
557.49	28507.72
557.65	28650.50
557.82	28379.00
557.98	28542.83
558.15	28503.04
558.32	28652.84
558.48	28477.30
558.65	28547.51
558.81	28730.08
558.98	28662.20
559.14	28844.76
559.31	28662.20
559.47	28716.03
559.64	28627.09
559.80	28519.43
559.97	29273.08
560.13	29116.26
560.30	28900.94
560.46	29252.02
560.63	29233.29
560.79	29006.26
560.96	29034.35
561.12	28893.91
561.29	28896.25
561.45	29074.13
561.61	29205.20
561.78	28793.27
561.94	29453.30
562.11	28903.28
562.27	29167.76
562.44	29076.48
562.60	29380.74
562.77	28989.88
562.93	29270.74
563.10	29380.74
563.26	29090.52
563.42	29310.53
563.59	29357.34
563.75	28989.88
563.92	29219.25
564.08	29134.99
564.24	29184.14
564.41	29273.08
564.57	29369.04
564.74	29090.52
564.90	29762.25
565.07	29338.62
565.23	29221.59
565.39	29109.24
565.56	29727.14
565.72	29434.58
565.88	29298.83
566.05	29277.76
566.21	29556.28
566.38	29558.63
566.54	29490.75
566.70	29951.84
566.87	29558.63
567.03	29780.98
567.19	29982.26
567.36	29748.21
567.52	29266.06
567.68	29539.90
567.85	29600.76
568.01	29252.02
568.17	29472.03
568.34	29586.71
568.50	29546.92
568.66	29563.31
568.83	29584.37
568.99	29546.92
569.15	29310.53
569.32	29624.16
569.48	29537.56
569.64	29666.29
569.81	29706.08
569.97	29975.24
570.13	29734.17
570.30	29549.26
570.46	29879.28
570.62	29930.77
570.78	29474.37
570.95	29455.64
571.11	29984.60
571.27	29319.89
571.43	29397.13
571.60	29668.63
571.76	29645.23
571.92	29310.53
572.09	29975.24
572.25	30106.31
572.41	29970.56
572.57	29734.17
572.74	29881.62
572.90	29621.82
573.06	29755.23
573.22	29764.59
573.38	29722.46
573.55	29788.00
573.71	30361.43
573.87	30195.25
574.03	29923.75
574.20	29663.95
574.36	30026.73
574.52	30010.35
574.68	29919.07
574.84	30085.25
575.01	29813.74
575.17	29830.13
575.33	29645.23
575.49	29816.08
575.65	30230.36
575.82	30008.01
575.98	29624.16
576.14	29986.94
576.30	29654.59
576.46	29600.76
576.62	29965.88
576.79	29839.49
576.95	29773.95
577.11	30103.97
577.27	30185.89
577.43	29963.54
577.59	29804.38
577.75	30061.84
577.92	30019.71
578.08	30017.37
578.24	29710.76
578.40	29858.21
578.56	30267.81
578.72	29956.52
578.88	30038.44
579.04	30080.56
579.21	29998.65
579.37	30129.72
579.53	30235.04
579.69	29834.81
579.85	29961.20
580.01	30026.73
580.17	30115.67
580.33	30305.26
580.49	30118.01
580.65	30183.55
580.82	30635.27
580.98	30433.99
581.14	29804.38
581.30	30302.92
581.46	29874.60
581.62	30068.86
581.78	29593.73
581.94	29937.79
582.10	29734.17
582.26	29907.37
582.42	30244.40
582.58	30139.08
582.74	30047.80
582.90	30206.95
583.06	30228.02
583.22	29956.52
583.38	30010.35
583.54	30057.16
583.70	30267.81
583.86	30010.35
584.02	30094.61
584.18	30441.01
584.34	29839.49
584.50	30302.92
584.66	29851.19
584.82	29982.26
584.98	30033.75
585.14	30239.72
585.30	29750.55
585.46	30075.88
585.62	30139.08
585.78	30375.47
585.94	29912.05
586.10	29984.60
586.26	30359.09
586.42	30476.12
586.58	29968.22
586.74	29919.07
586.90	30272.49
587.06	30244.40
587.22	30139.08
587.38	30155.46
587.54	30593.14
587.70	30206.95
587.86	30485.48
588.02	30279.51
588.18	30508.88
588.34	30499.52
588.49	30572.08
588.65	30197.59
588.81	30003.33
588.97	30403.56
589.13	30281.85
589.29	29986.94
589.45	30412.92
589.61	30583.78
589.77	30396.54
589.93	30490.16
590.08	30600.16
590.24	30787.41
590.40	30536.97
590.56	30611.87
590.72	30562.72
590.88	30354.41
591.04	30639.95
591.20	30478.46
591.35	30604.84
591.51	31140.83
591.67	30794.43
591.83	30555.69
591.99	30932.52
592.15	30558.03
592.31	30780.39
592.46	30389.52
592.62	30419.94
592.78	30300.58
592.94	30352.07
593.10	30548.67
593.26	30546.33
593.41	30309.94
593.57	30773.36
593.73	30639.95
593.89	30684.42
594.05	30469.09
594.20	30782.73
594.36	30235.04
594.52	30543.99
594.68	30581.44
594.84	30288.87
594.99	30487.82
595.15	30728.89
595.31	30614.21
595.47	31159.55
595.62	30883.37
595.78	30862.30
595.94	30719.53
596.10	30562.72
596.25	30471.43
596.41	30623.57
596.57	30525.27
596.73	30841.24
596.88	30314.62
597.04	30689.10
597.20	31019.12
597.36	30993.37
597.51	31070.61
597.67	30682.08
597.83	30696.13
597.99	30553.35
598.14	30724.21
598.30	30817.83
598.46	30700.81
598.61	30675.06
598.77	30679.74
598.93	30602.50
599.09	30752.30
599.24	31143.17
599.40	30724.21
599.56	30700.81
599.71	30576.76
599.87	30731.23
600.03	30691.44
600.18	30293.55
600.34	30675.06
600.50	30658.68
600.65	30515.90
600.81	30806.13
600.97	30707.83
601.12	31009.76
601.28	30857.62
601.44	30778.04
601.59	30984.01
601.75	30857.62
601.91	30810.81
602.06	30630.59
602.22	30976.99
602.37	30876.35
602.53	30595.48
602.69	31075.29
602.84	30857.62
603.00	30831.88
603.16	30972.31
603.31	30600.16
603.47	31089.34
603.62	30764.00
603.78	30359.09
603.94	30553.35
604.09	30787.41
604.25	30525.27
604.40	30918.48
604.56	30806.13
604.71	30892.73
604.87	30948.90
605.03	30991.03
605.18	30785.07
605.34	30719.53
605.49	30464.41
605.65	30993.37
605.80	30555.69
605.96	30714.85
606.12	30565.06
606.27	30984.01
606.43	30693.79
606.58	31019.12
606.74	30682.08
606.89	30930.18
607.05	31117.42
607.20	31051.89
607.36	30738.26
607.51	30906.77
607.67	30675.06
607.82	30333.34
607.98	30532.29
608.13	30682.08
608.29	30693.79
608.44	31023.80
608.60	30703.15
608.75	30761.66
608.91	30946.56
609.06	30785.07
609.22	30920.82
609.37	30497.18
609.53	30586.12
609.68	30548.67
609.84	30623.57
609.99	30497.18
610.15	30483.14
610.30	30426.96
610.46	30543.99
610.61	30352.07
610.76	30756.98
610.92	30412.92
611.07	30728.89
611.23	30431.65
611.38	30579.10
611.54	30267.81
611.69	29937.79
611.84	30307.60
612.00	30335.68
612.15	30338.02
612.31	30836.56
612.46	30724.21
612.62	30251.42
612.77	30380.15
612.92	30352.07
613.08	30429.30
613.23	30513.56
613.39	30408.24
613.54	29928.43
613.69	30506.54
613.85	30314.62
614.00	30457.39
614.15	30277.17
614.31	30375.47
614.46	30071.20
614.62	30429.30
614.77	30040.78
614.92	30464.41
615.08	29951.84
615.23	30298.23
615.38	30043.12
615.54	29986.94
615.69	30094.61
615.84	30000.99
616.00	29951.84
616.15	29603.10
616.30	30181.21
616.46	29937.79
616.61	29912.05
616.76	30515.90
616.92	29926.09
617.07	30012.69
617.22	30071.20
617.37	29972.90
617.53	29888.64
617.68	30253.76
617.83	29553.94
617.99	29560.97
618.14	29788.00
618.29	30017.37
618.45	29816.08
618.60	30157.80
618.75	29619.48
618.90	29832.47
619.06	30246.74
619.21	29909.71
619.36	30265.47
619.51	30047.80
619.67	29282.44
619.82	29682.67
619.97	29818.42
620.12	29310.53
620.28	29572.67
620.43	30043.12
620.58	29596.07
620.73	29656.93
620.89	29827.79
621.04	29722.46
621.19	30359.09
621.34	29399.47
621.49	29340.96
621.65	29476.71
621.80	29502.45
621.95	29706.08
622.10	29237.97
622.25	29301.17
622.41	29376.06
622.56	29563.31
622.71	29539.90
622.86	29294.14
623.01	29518.84
623.16	29486.07
623.32	29057.75
623.47	29553.94
623.62	29319.89
623.77	29362.02
623.92	29160.73
624.07	29336.27
624.23	29331.59
624.38	28769.86
624.53	29362.02
624.68	29472.03
624.83	29081.16
624.98	29338.62
625.13	29331.59
625.29	29062.43
625.44	29347.98
625.59	28931.36
625.74	28751.14
625.89	29149.03
626.04	29336.27
626.19	28886.89
626.34	28884.55
626.49	29057.75
626.65	28966.47
626.80	28760.50
626.95	28870.51
627.10	28512.41
627.25	28870.51
627.40	28638.80
627.55	28465.60
627.70	28491.34
627.85	28446.87
628.00	28776.89
628.15	28666.88
628.30	28325.16
628.45	28669.22
628.60	28856.46
628.76	28863.49
628.91	29010.94
629.06	28577.94
629.21	28552.20
629.36	28617.73
629.51	28266.65
629.66	28622.41
629.81	28474.96
629.96	28795.61
630.11	28287.71
630.26	28346.23
630.41	28563.90
630.56	28285.37
630.71	28034.94
630.86	28456.23
631.01	28313.46
631.16	28718.37
631.31	28458.57
631.46	28257.29
631.61	28538.15
631.76	28271.33
631.91	28060.68
632.06	27814.93
632.21	27826.63
632.36	28182.39
632.51	27875.78
632.66	28371.97
632.81	28203.46
632.96	28322.82
633.10	27737.69
633.25	28507.72
633.40	28589.64
633.55	28367.29
633.70	27908.55
633.85	27754.07
634.00	27765.78
634.15	28170.69
634.30	28318.14
634.45	27828.97
634.60	27929.61
634.75	28016.21
634.90	28233.88
635.05	28222.18
635.19	28065.36
635.34	28161.33
635.49	28245.58
635.64	28486.66
635.79	27845.35
635.94	27772.80
636.09	27882.80
636.24	27658.11
636.39	27835.99
636.53	27564.49
636.68	27548.11
636.83	27819.61
636.98	27737.69
637.13	27517.68
637.28	27594.92
637.43	27896.85
637.57	28060.68
637.72	27515.34
637.87	27782.16
638.02	27728.33
638.17	27843.01
638.32	27520.02
638.46	27386.61
638.61	27084.68
638.76	27538.74
638.91	27278.94
639.06	27370.22
639.20	27449.80
639.35	27379.59
639.50	27484.91
639.65	27503.64
639.80	27660.45
639.94	27559.81
640.09	27740.03
640.24	27531.72
640.39	27131.49
640.54	26759.34
640.68	27468.53
640.83	27124.47
640.98	26799.13
641.13	27136.17
641.27	27311.71
641.42	26834.24
641.57	27215.75
641.72	27122.13
641.86	27644.07
642.01	26801.47
642.16	27049.57
642.31	27051.91
642.45	27243.84
642.60	26733.60
642.75	26836.58
642.90	26927.86
643.04	27068.30
643.19	26998.08
643.34	27075.32
643.48	26998.08
643.63	27108.08
643.78	27126.81
643.93	27103.40
644.07	27211.07
644.22	27023.83
644.37	26499.55
644.51	26712.53
644.66	26878.71
644.81	26705.51
644.95	26757.00
645.10	26534.65
645.25	26780.41
645.39	26696.15
645.54	26394.22
645.69	26415.29
645.83	26831.90
645.98	27012.12
646.13	26724.24
646.27	27068.30
646.42	26686.79
646.57	26871.69
646.71	26661.04
646.86	27072.98
647.00	26623.59
647.15	26548.70
647.30	26696.15
647.44	26382.52
647.59	26410.60
647.74	26574.44
647.88	26422.31
648.03	26686.79
648.17	26721.90
648.32	26733.60
648.47	26361.45
648.61	26260.81
648.76	26820.20
648.90	26654.02
649.05	26574.44
649.20	26422.31
649.34	26747.64
649.49	25998.67
649.63	26326.35
649.78	26099.31
649.92	26316.98
650.07	26305.28
650.21	26527.63
650.36	26553.38
650.51	26558.06
650.65	26485.50
650.80	26324.01
650.94	26106.34
651.09	25867.60
651.23	25916.75
651.38	26001.01
651.52	26174.21
651.67	25977.61
651.81	26338.05
651.96	25916.75
652.10	26017.40
652.25	25853.56
652.39	26106.34
652.54	26642.32
652.68	25731.85
652.83	25795.04
652.97	26321.66
653.12	25972.92
653.26	25504.82
653.41	26054.84
653.55	26092.29
653.70	26005.69
653.84	25935.48
653.99	25399.49
654.13	25830.15
654.27	25752.91
654.42	25867.60
654.56	25750.57
654.71	25923.77
654.85	25802.07
655.00	25715.47
655.14	25666.31
655.29	25465.03
655.43	25970.58
655.57	25551.63
655.72	25549.29
655.86	25415.88
656.01	26005.69
656.15	25385.45
656.30	25549.29
656.44	25549.29
656.58	25563.33
656.73	25303.53
656.87	25357.36
657.01	25528.22
657.16	25406.52
657.30	25535.24
657.45	25626.53
657.59	25710.78
657.73	25223.95
657.88	25352.68
658.02	25111.61
658.16	25408.86
658.31	25081.18
658.45	25095.22
658.60	24603.71
658.74	25249.70
658.88	25088.20
659.03	24931.39
659.17	25106.93
659.31	25095.22
659.46	25060.12
659.60	25158.42
659.74	24807.34
659.89	24926.71
660.03	25118.63
660.17	25078.84
660.32	24680.95
660.46	24662.22
660.60	24877.55
660.74	24517.11
660.89	24741.80
661.03	24531.15
661.17	24727.76
661.32	24386.04
661.46	25062.46
661.60	24556.90
661.74	25001.60
661.89	24720.74
662.03	24737.12
662.17	24861.17
662.31	24325.19
662.46	24833.08
662.60	24470.30
662.74	24741.80
662.88	24414.13
663.03	24205.82
663.17	24100.50
663.31	24070.07
663.45	24025.60
663.60	24077.09
663.74	24058.37
663.88	24339.23
664.02	23721.33
664.17	24252.63
664.31	24093.47
664.45	24229.23
664.59	24032.62
664.73	23969.43
664.88	24151.99
665.02	23583.24
665.16	23686.22
665.30	23704.95
665.44	23779.84
665.59	23456.85
665.73	23339.82
665.87	23428.76
666.01	23887.51
666.15	23817.29
666.29	23611.32
666.44	23564.51
666.58	23711.97
666.72	23653.45
666.86	23590.26
667.00	23843.04
667.14	23208.75
667.28	23641.75
667.43	23405.36
667.57	23475.57
667.71	22993.42
667.85	23021.51
667.99	23180.67
668.13	22986.40
668.27	23318.76
668.41	23508.34
668.56	22869.37
668.70	23246.20
668.84	23232.16
668.98	23302.37
669.12	22932.57
669.26	23002.78
669.40	22799.16
669.54	22998.10
669.68	22799.16
669.82	22464.46
669.96	22462.12
670.10	22506.59
670.25	22548.72
670.39	22745.33
670.53	22757.03
670.67	22511.27
670.81	22822.56
670.95	22609.58
671.09	22214.02
671.23	22363.82
671.37	22490.21
671.51	22492.55
671.65	22696.17
671.79	22632.98
671.93	22499.57
672.07	22384.88
672.21	21933.16
672.35	22080.61
672.49	21928.48
672.63	22115.72
672.77	21837.20
672.91	21881.67
673.05	22185.94
673.19	21811.45
673.33	22115.72
673.47	21652.30
673.61	21898.05
673.75	21720.17
673.89	21834.86
674.03	21745.92
674.17	21336.32
674.31	21469.73
674.45	21661.66
674.59	21474.42
674.73	21467.39
674.87	21460.37
675.01	21345.69
675.15	20856.51
675.29	21104.61
675.43	21130.36
675.56	21296.53
675.70	21441.65
675.84	21387.82
675.98	20350.96
676.12	21099.93
676.26	21322.28
676.40	21324.62
676.54	20996.95
676.68	21092.91
676.82	20634.16
676.96	20638.84
677.10	20432.88
677.23	20423.51
677.37	20257.34
677.51	20563.95
677.65	20669.27
677.79	19784.55
677.93	20212.87
678.07	20006.90
678.21	20063.07
678.34	19995.20
678.48	20095.84
678.62	20039.67
678.76	19857.10
678.90	19889.87
679.04	19845.40
679.18	19728.38
679.31	19594.96
679.45	19222.82
679.59	19438.15
679.73	19384.32
679.87	19190.05
680.00	19412.40
680.14	19353.89
680.28	19171.33
680.42	19407.72
680.56	19178.35
680.70	19066.00
680.83	19152.60
680.97	18902.17
681.11	19051.96
681.25	18789.82
681.39	18977.06
681.52	18841.31
681.66	18644.71
681.80	18977.06
681.94	18665.77
682.07	18532.36
682.21	18611.94
682.35	18347.46
682.49	18183.62
682.62	18389.59
682.76	18230.43
682.90	18286.61
683.04	18340.44
683.17	18462.15
683.31	18057.23
683.45	18115.75
683.59	18087.66
683.72	18064.25
683.86	18099.36
684.00	17909.78
684.13	17757.64
684.27	17748.28
684.41	17518.91
684.55	17530.61
684.68	17296.56
684.82	17343.37
684.96	17486.14
685.09	17539.97
685.23	17418.27
685.37	17106.98
685.50	17296.56
685.64	17282.52
685.78	17357.41
685.91	17207.62
686.05	17216.98
686.19	17015.69
686.32	16954.84
686.46	16594.40
686.60	16795.68
686.73	16788.66
686.87	16807.39
687.01	16830.79
687.14	16297.15
687.28	16423.54
687.42	16360.34
687.55	16414.18
687.69	16353.32
687.82	16255.02
687.96	16215.23
688.10	16271.40
688.23	16020.97
688.37	16238.64
688.50	16065.44
688.64	16294.81
688.78	16056.08
688.91	15712.02
689.05	15758.83
689.18	15648.82
689.32	15506.05
689.46	15508.39
689.59	15758.83
689.73	15573.92
689.86	15424.13
690.00	15288.38
690.13	15382.00
690.27	15569.24
690.41	15440.51
690.54	15386.68
690.68	15330.51
690.81	15459.24
690.95	15215.82
691.08	15080.07
691.22	15197.10
691.35	14956.02
691.49	14934.96
691.62	14869.42
691.76	14817.93
691.89	14932.62
692.03	14628.35
692.16	14288.97
692.30	14618.99
692.43	14466.85
692.57	14146.20
692.70	14181.31
692.84	14476.21
692.97	14436.42
693.11	14331.10
693.24	14043.21
693.38	14073.64
693.51	14214.07
693.65	14106.41
693.78	13764.69
693.92	14012.79
694.05	13916.83
694.19	13830.23
694.32	13790.44
694.45	13685.11
694.59	13561.06
694.72	13858.31
694.86	13493.19
694.99	13280.20
695.13	13205.30
695.26	13479.15
695.39	13069.55
695.53	13355.10
695.66	13373.82
695.80	13252.11
695.93	13427.65
696.07	13322.33
696.20	13256.79
696.33	13048.49
696.47	13050.83
696.60	12985.29
696.73	12989.97
696.87	12898.69
697.00	12737.20
697.14	12674.00
697.27	12610.81
697.40	12423.56
697.54	12365.05
697.67	12360.37
697.80	12465.69
697.94	12250.36
698.07	12203.55
698.21	12285.47
698.34	12269.09
698.47	12248.02
698.61	12006.95
698.74	12264.41
698.87	12194.19
699.01	12025.67
699.14	12074.82
699.27	12128.66
699.40	12013.97
699.54	11733.11
699.67	11765.87
699.80	11639.48
699.94	11747.15
700.07	11524.80
700.20	11501.39
700.34	11389.05
700.47	11461.60
700.60	11412.45
700.73	11353.94
700.87	11431.18
701.00	11325.85
701.13	11346.92
701.26	11375.00
701.40	11426.50
701.53	11295.43
701.66	11143.29
701.79	11068.39
701.93	10733.70
702.06	10771.15
702.19	10869.45
702.32	10530.07
702.46	10764.12
702.59	10743.06
702.72	10740.72
702.85	10469.22
702.99	10410.70
703.12	10560.50
703.25	10553.48
703.38	10410.70
703.51	10387.30
703.65	10228.14
703.78	10277.29
703.91	10340.49
704.04	10326.44
704.17	10087.71
704.31	10167.29
704.44	10169.63
704.57	10204.74
704.70	10068.98
704.83	9844.29
704.96	9825.57
705.10	9579.81
705.23	9762.37
>>>>>End Processed Spectral Data<<<<<
