SpectraSuite Data File
++++++++++++++++++++++++++++++++++++
Date: Fri Oct 18 13:58:03 GMT-05:00 2013
User: bianchi
Dark Spectrum Present: No
Reference Spectrum Present: No
Number of Sampled Component Spectra: 1
Spectrometers: USB2+H05261
Integration Time (usec): 50000 (USB2+H05261)
Spectra Averaged: 1 (USB2+H05261)
Boxcar Smoothing: 0 (USB2+H05261)
Correct for Electrical Dark: No (USB2+H05261)
Strobe/Lamp Enabled: No (USB2+H05261)
Correct for Detector Non-linearity: No (USB2+H05261)
Correct for Stray Light: No (USB2+H05261)
Number of Pixels in Processed Spectrum: 2048
>>>>>Begin Processed Spectral Data<<<<<
365.73	0.00
365.92	0.00
366.12	0.00
366.32	0.00
366.52	0.00
366.72	0.00
366.91	0.00
367.11	0.00
367.31	0.00
367.51	0.00
367.70	0.00
367.90	0.00
368.10	0.00
368.30	0.00
368.49	0.00
368.69	0.00
368.89	0.00
369.09	0.00
369.28	0.00
369.48	0.00
369.68	0.00
369.87	0.00
370.07	0.00
370.27	0.00
370.47	0.00
370.66	86.60
370.86	112.35
371.06	168.52
371.25	131.07
371.45	91.28
371.65	147.45
371.84	74.90
372.04	180.22
372.24	138.09
372.44	140.43
372.63	154.48
372.83	220.01
373.03	243.42
373.22	212.99
373.42	149.79
373.62	234.05
373.81	220.01
374.01	212.99
374.21	175.54
374.40	224.69
374.60	248.10
374.79	210.65
374.99	269.16
375.19	203.63
375.38	287.89
375.58	224.69
375.78	231.71
375.97	196.60
376.17	297.25
376.37	257.46
376.56	248.10
376.76	234.05
376.95	201.29
377.15	273.84
377.35	266.82
377.54	250.44
377.74	269.16
377.93	337.04
378.13	276.18
378.33	301.93
378.52	276.18
378.72	306.61
378.91	330.02
379.11	222.35
379.31	348.74
379.50	327.68
379.70	301.93
379.89	311.29
380.09	294.91
380.28	341.72
380.48	280.86
380.68	290.23
380.87	341.72
381.07	341.72
381.26	313.63
381.46	290.23
381.65	313.63
381.85	287.89
382.04	287.89
382.24	234.05
382.43	294.91
382.63	337.04
382.83	332.36
383.02	362.78
383.22	355.76
383.41	313.63
383.61	430.66
383.80	365.12
384.00	374.49
384.19	388.53
384.39	355.76
384.58	411.93
384.78	330.02
384.97	220.01
385.17	339.38
385.36	400.23
385.56	423.64
385.75	374.49
385.95	360.44
386.14	414.27
386.34	341.72
386.53	430.66
386.72	404.91
386.92	440.02
387.11	425.98
387.31	393.21
387.50	418.96
387.70	341.72
387.89	411.93
388.09	425.98
388.28	409.59
388.48	477.47
388.67	521.94
388.86	454.06
389.06	400.23
389.25	491.51
389.45	463.43
389.64	500.87
389.84	454.06
390.03	479.81
390.22	381.51
390.42	510.24
390.61	475.13
390.81	484.49
391.00	503.22
391.19	578.11
391.39	531.30
391.58	615.56
391.78	582.79
391.97	503.22
392.16	526.62
392.36	589.82
392.55	477.47
392.75	454.06
392.94	580.45
393.13	601.52
393.33	594.50
393.52	608.54
393.71	648.33
393.91	622.58
394.10	550.03
394.29	608.54
394.49	636.63
394.68	550.03
394.88	631.94
395.07	585.13
395.26	589.82
395.46	573.43
395.65	603.86
395.84	638.97
396.04	620.24
396.23	662.37
396.42	596.84
396.62	681.10
396.81	636.63
397.00	678.76
397.19	561.73
397.39	648.33
397.58	685.78
397.77	697.48
397.97	667.05
398.16	704.50
398.35	685.78
398.55	713.86
398.74	653.01
398.93	723.23
399.12	692.80
399.32	748.97
399.51	681.10
399.70	690.46
399.90	674.07
400.09	727.91
400.28	807.48
400.47	777.06
400.67	763.01
400.86	821.53
401.05	866.00
401.24	786.42
401.44	781.74
401.63	791.10
401.82	791.10
402.01	805.14
402.21	774.72
402.40	849.61
402.59	819.19
402.78	866.00
402.97	863.66
403.17	898.77
403.36	809.83
403.55	931.53
403.74	877.70
403.93	917.49
404.13	976.00
404.32	952.60
404.51	933.87
404.70	901.11
404.89	964.30
405.09	938.55
405.28	980.68
405.47	957.28
405.66	940.90
405.85	1032.18
406.05	966.64
406.24	882.38
406.43	938.55
406.62	1055.58
406.81	1046.22
407.00	987.71
407.20	1050.90
407.39	971.32
407.58	1011.11
407.77	1074.31
407.96	1025.15
408.15	1071.97
408.34	1109.41
408.54	1062.60
408.73	1111.75
408.92	1060.26
409.11	1125.80
409.30	1160.91
409.49	1139.84
409.68	1116.44
409.87	1109.41
410.07	1188.99
410.26	1224.10
410.45	1153.88
410.64	1069.62
410.83	1179.63
411.02	1132.82
411.21	1275.59
411.40	1266.23
411.59	1320.06
411.78	1198.35
411.98	1287.29
412.17	1289.64
412.36	1245.16
412.55	1350.49
412.74	1291.98
412.93	1329.42
413.12	1334.11
413.31	1369.21
413.50	1331.76
413.69	1483.90
413.88	1474.54
414.07	1390.28
414.26	1455.81
414.45	1404.32
414.64	1467.52
414.83	1493.26
415.02	1519.01
415.22	1493.26
415.41	1490.92
415.60	1511.99
415.79	1617.31
415.98	1535.39
416.17	1610.29
416.36	1603.27
416.55	1589.22
416.74	1626.67
416.93	1652.42
417.12	1605.61
417.31	1717.95
417.50	1692.21
417.69	1720.29
417.88	1689.87
418.07	1762.42
418.26	1743.70
418.45	1771.79
418.64	1823.28
418.83	1778.81
419.02	1694.55
419.21	1764.76
419.39	1710.93
419.58	1724.97
419.77	1867.75
419.96	1853.70
420.15	1909.88
420.34	1905.20
420.53	1961.37
420.72	1823.28
420.91	1858.39
421.10	1811.57
421.29	1982.43
421.48	2008.18
421.67	1860.73
421.86	1914.56
422.05	2024.56
422.24	1961.37
422.43	1909.88
422.61	1961.37
422.80	1987.11
422.99	2090.10
423.18	2022.22
423.37	2078.40
423.56	1977.75
423.75	1984.77
423.94	2050.31
424.13	1905.20
424.32	1982.43
424.50	1970.73
424.69	2040.95
424.88	2073.71
425.07	2029.24
425.26	1987.11
425.45	1987.11
425.64	2118.18
425.83	1961.37
426.01	2069.03
426.20	2101.80
426.39	2047.97
426.58	2062.01
426.77	2026.90
426.96	2012.86
427.15	2069.03
427.33	2054.99
427.52	2017.54
427.71	2260.96
427.90	2146.27
428.09	2115.84
428.28	2197.76
428.46	2150.95
428.65	2174.36
428.84	2239.89
429.03	2270.32
429.22	2094.78
429.40	2260.96
429.59	2275.00
429.78	2169.68
429.97	2181.38
430.16	2321.81
430.34	2317.13
430.53	2443.52
430.72	2286.70
430.91	2293.72
431.10	2218.83
431.28	2385.01
431.47	2340.54
431.66	2422.45
431.85	2335.85
432.03	2377.98
432.22	2544.16
432.41	2354.58
432.60	2495.01
432.79	2331.17
432.97	2438.84
433.16	2516.08
433.35	2527.78
433.54	2562.89
433.72	2541.82
433.91	2471.61
434.10	2553.52
434.28	2576.93
434.47	2565.23
434.66	2555.86
434.85	2586.29
435.03	2609.70
435.22	2572.25
435.41	2612.04
435.59	2562.89
435.78	2586.29
435.97	2609.70
436.16	2623.74
436.34	2602.68
436.53	2682.25
436.72	2733.75
436.90	2726.72
437.09	2649.49
437.28	2635.44
437.46	2803.96
437.65	2698.64
437.84	2808.64
438.02	2820.35
438.21	2827.37
438.40	2876.52
438.58	2862.48
438.77	2942.05
438.96	2787.58
439.14	2944.39
439.33	2888.22
439.52	2839.07
439.70	2979.50
439.89	2981.84
440.08	3023.97
440.26	3033.33
440.45	3005.25
440.63	3103.55
440.82	3199.51
441.01	3091.85
441.19	3164.40
441.38	3183.13
441.57	3173.77
441.75	3332.92
441.94	3353.99
442.12	3318.88
442.31	3243.98
442.50	3349.31
442.68	3316.54
442.87	3328.24
443.05	3351.65
443.24	3220.58
443.43	3440.59
443.61	3349.31
443.80	3405.48
443.98	3389.10
444.17	3199.51
444.35	3398.46
444.54	3428.88
444.73	3452.29
444.91	3414.84
445.10	3403.14
445.28	3475.70
445.47	3375.05
445.65	3559.95
445.84	3459.31
446.02	3463.99
446.21	3431.23
446.39	3449.95
446.58	3583.36
446.77	3574.00
446.95	3435.91
447.14	3524.85
447.32	3520.17
447.51	3508.46
447.69	3419.52
447.88	3506.12
448.06	3529.53
448.25	3522.51
448.43	3611.45
448.62	3552.93
448.80	3616.13
448.99	3583.36
449.17	3454.63
449.36	3550.59
449.54	3936.78
449.73	3651.24
449.91	3866.56
450.10	3676.98
450.28	3723.79
450.46	3744.86
450.65	3735.50
450.83	3747.20
451.02	3817.41
451.20	3716.77
451.39	3892.31
451.57	3763.58
451.76	3749.54
451.94	3992.95
452.13	3981.25
452.31	3801.03
452.49	3777.62
452.68	3922.74
452.86	3875.93
453.05	3843.16
453.23	3847.84
453.42	3819.75
453.60	3826.78
453.78	3927.42
453.97	3763.58
454.15	3808.05
454.34	3941.46
454.52	4035.08
454.70	3967.21
454.89	4049.13
455.07	4133.39
455.26	4077.21
455.44	4170.83
455.62	4243.39
455.81	4180.20
455.99	4102.96
456.17	4124.02
456.36	4257.43
456.54	4184.88
456.73	4208.28
456.91	4301.90
457.09	4369.78
457.28	4395.53
457.46	4372.12
457.64	4259.78
457.83	4351.06
458.01	4367.44
458.19	4491.49
458.38	4468.08
458.56	4355.74
458.74	4470.42
458.93	4585.11
459.11	4540.64
459.29	4418.93
459.48	4423.61
459.66	4428.29
459.84	4430.63
460.03	4613.20
460.21	4528.94
460.39	4491.49
460.57	4505.53
460.76	4573.41
460.94	4739.58
461.12	4582.77
461.31	4575.75
461.49	4535.96
461.67	4723.20
461.85	4753.63
462.04	4594.47
462.22	5123.43
462.40	4772.35
462.59	4835.55
462.77	4772.35
462.95	4856.61
463.13	4711.50
463.32	4891.72
463.50	4926.83
463.68	4863.63
463.86	4887.04
464.05	4798.10
464.23	4758.31
464.41	4835.55
464.59	4940.87
464.78	4938.53
464.96	4940.87
465.14	4821.50
465.32	5132.79
465.50	4903.42
465.69	5170.24
465.87	5039.17
466.05	4917.47
466.23	4903.42
466.41	5224.08
466.60	5135.14
466.78	5095.35
466.96	5139.82
467.14	5057.90
467.32	5219.39
467.51	5191.31
467.69	4945.55
467.87	5214.71
468.05	5270.89
468.23	5128.11
468.41	5064.92
468.60	5057.90
468.78	5233.44
468.96	5090.67
469.14	5252.16
469.32	5397.28
469.50	5238.12
469.69	5404.30
469.87	5493.24
470.05	5458.13
470.23	5500.26
470.41	5432.38
470.59	5556.43
470.77	5490.90
470.95	5434.72
471.14	5661.76
471.32	5497.92
471.50	5680.48
471.68	5710.91
471.86	5738.99
472.04	5816.23
472.22	5687.50
472.40	5710.91
472.58	5738.99
472.77	5729.63
472.95	5895.81
473.13	6033.90
473.31	5830.27
473.49	5795.17
473.67	5734.31
473.85	5975.39
474.03	6024.54
474.21	5996.45
474.39	6139.23
474.57	6040.92
474.75	6101.78
474.93	6134.54
475.12	6157.95
475.30	6228.17
475.48	6232.85
475.66	6265.61
475.84	6218.80
476.02	6319.45
476.20	6345.19
476.38	6331.15
476.56	6658.82
476.74	6532.44
476.92	6569.88
477.10	6581.59
477.28	6698.61
477.46	6738.40
477.64	6651.80
477.82	6740.74
478.00	7026.29
478.18	6995.86
478.36	6927.99
478.54	7131.61
478.72	7232.26
478.90	7087.14
479.08	7019.27
479.26	7307.15
479.44	7199.49
479.62	7375.03
479.80	7562.27
479.98	7543.55
480.16	7744.83
480.34	7400.77
480.52	7768.24
480.70	7573.97
480.88	7531.84
481.06	7939.10
481.24	7885.26
481.41	7758.88
481.59	7887.61
481.77	7995.27
481.95	8255.07
482.13	8049.10
482.31	8081.87
482.49	8234.00
482.67	8313.58
482.85	8411.89
483.03	8507.85
483.21	8624.87
483.39	8641.26
483.57	8774.67
483.74	8727.86
483.92	8915.10
484.10	8814.46
484.28	8826.16
484.46	9359.80
484.64	9174.90
484.82	9046.17
485.00	9284.91
485.18	9355.12
485.35	9507.26
485.53	9341.08
485.71	9542.36
485.89	9710.88
486.07	9593.86
486.25	9668.75
486.43	9748.33
486.61	9708.54
486.78	9973.02
486.96	9825.57
487.14	10097.07
487.32	10068.98
487.50	10242.18
487.68	10232.82
487.85	10436.45
488.03	10490.28
488.21	10677.52
488.39	10700.93
488.57	10656.46
488.75	10810.93
488.92	10853.06
489.10	10993.50
489.28	11068.39
489.46	11138.61
489.64	11253.30
489.81	11239.25
489.99	11433.52
490.17	11524.80
490.35	11318.83
490.53	11571.61
490.70	11962.48
490.88	11719.06
491.06	11772.89
491.24	11955.46
491.41	11808.00
491.59	12095.89
491.77	11803.32
491.95	12231.64
492.13	12343.99
492.30	12372.07
492.48	12753.58
492.66	12355.69
492.84	12388.46
493.01	12664.64
493.19	12716.13
493.37	12816.77
493.54	12957.21
493.72	12781.67
493.90	12987.63
494.08	13027.42
494.25	13254.45
494.43	13207.64
494.61	13217.01
494.79	13188.92
494.96	13586.81
495.14	13350.42
495.32	13736.60
495.49	13673.41
495.67	13675.75
495.85	13832.57
496.02	13832.57
496.20	14010.45
496.38	14148.54
496.55	14101.73
496.73	14499.62
496.91	14066.62
497.09	14384.93
497.26	14434.08
497.44	14237.48
497.62	14626.01
497.79	14768.78
497.97	14691.54
498.14	14651.75
498.32	14916.23
498.50	14986.45
498.67	15133.90
498.85	15166.67
499.03	15051.99
499.20	14871.76
499.38	15094.11
499.56	15276.68
499.73	15264.97
499.91	15243.91
500.08	15552.86
500.26	15300.08
500.44	15477.96
500.61	15372.64
500.79	15300.08
500.97	15775.21
501.14	15913.30
501.32	15793.94
501.49	15658.18
501.67	15978.84
501.84	16189.49
502.02	16145.02
502.20	16067.78
502.37	16102.89
502.55	16404.81
502.72	16011.60
502.90	16582.70
503.07	16285.45
503.25	16156.72
503.43	16224.59
503.60	16634.19
503.78	16589.72
503.95	16702.06
504.13	17050.80
504.30	16791.00
504.48	16779.30
504.65	16961.86
504.83	17153.79
505.01	17308.26
505.18	17062.51
505.36	17383.16
505.53	17062.51
505.71	17057.82
505.88	17256.77
506.06	16985.27
506.23	17359.75
506.41	17273.15
506.58	17701.47
506.76	17860.63
506.93	17380.82
507.11	17406.56
507.28	17715.51
507.46	17444.01
507.63	17965.95
507.81	18054.89
507.98	17921.48
508.16	17961.27
508.33	17919.14
508.50	17886.37
508.68	18118.09
508.85	18087.66
509.03	18050.21
509.20	18359.16
509.38	18616.62
509.55	18857.70
509.73	18600.24
509.90	18284.26
510.08	18490.23
510.25	18361.50
510.42	18288.95
510.60	18892.80
510.77	18925.57
510.95	19103.45
511.12	18654.07
511.30	18789.82
511.47	18941.96
511.64	18944.30
511.82	18918.55
511.99	19222.82
512.17	19206.44
512.34	19365.59
512.51	19379.64
512.69	19262.61
512.86	19073.03
513.04	19587.94
513.21	19143.24
513.38	19489.64
513.56	19924.98
513.73	19194.73
513.90	19861.79
514.08	19587.94
514.25	19592.62
514.43	19971.79
514.60	19573.90
514.77	20250.32
514.95	20250.32
515.12	19967.11
515.29	19796.25
515.47	20011.58
515.64	20070.09
515.81	20308.83
515.99	20313.51
516.16	20561.61
516.33	20519.48
516.51	20465.64
516.68	20350.96
516.85	19953.07
517.03	20444.58
517.20	20638.84
517.37	20549.90
517.54	20929.07
517.72	20800.34
517.89	20896.30
518.06	20783.96
518.24	20533.52
518.41	20720.76
518.58	20526.50
518.75	20865.88
518.93	20947.79
519.10	21102.27
519.27	21088.23
519.45	21111.63
519.62	21102.27
519.79	21113.97
519.96	21188.87
520.14	21289.51
520.31	21144.40
520.48	21605.49
520.65	21167.80
520.83	21764.64
521.00	21771.66
521.17	21790.39
521.34	21586.76
521.52	21710.81
521.69	21703.79
521.86	22162.53
522.03	21834.86
522.20	22155.51
522.38	21975.29
522.55	22134.45
522.72	21858.26
522.89	21937.84
523.07	22080.61
523.24	22190.62
523.41	22490.21
523.58	22038.48
523.75	22338.07
523.92	22157.85
524.10	22455.10
524.27	22167.21
524.44	22558.08
524.61	22319.35
524.78	22466.80
524.96	22544.04
525.13	22663.41
525.30	22490.21
525.47	22862.35
525.64	22597.87
525.81	22764.05
525.98	22857.67
526.16	22899.80
526.33	22803.84
526.50	22977.04
526.67	22850.65
526.84	23075.34
527.01	22890.44
527.18	23215.77
527.36	22977.04
527.53	23194.71
527.70	23288.33
527.87	23468.55
528.04	23627.71
528.21	23821.97
528.38	23133.86
528.55	23817.29
528.72	23372.59
528.89	23637.07
529.07	23466.21
529.24	23644.09
529.41	23683.88
529.58	23658.14
529.75	23527.06
529.92	23693.24
530.09	23300.03
530.26	23592.60
530.43	23971.77
530.60	23487.28
530.77	24133.26
530.94	23931.98
531.11	24049.00
531.28	24011.56
531.46	24053.69
531.63	23735.37
531.80	24285.40
531.97	24460.94
532.14	24533.50
532.31	23906.23
532.48	24212.84
532.65	24339.23
532.82	24116.88
532.99	24154.33
533.16	24201.14
533.33	24709.04
533.50	24678.61
533.67	24566.26
533.84	24526.47
534.01	24432.85
534.18	24297.10
534.35	24702.01
534.52	24699.67
534.69	24592.01
534.86	25071.82
535.03	24624.78
535.20	24650.52
535.37	24755.85
535.54	24765.21
535.71	24613.07
535.88	24795.64
536.05	24910.32
536.22	25408.86
536.38	25343.32
536.55	25273.10
536.72	25305.87
536.89	24889.26
537.06	24980.54
537.23	25013.31
537.40	25116.29
537.57	24999.26
537.74	25270.76
537.91	25221.61
538.08	25635.89
538.25	25216.93
538.42	25223.95
538.59	25355.02
538.75	25401.83
538.92	25303.53
539.09	25549.29
539.26	25497.80
539.43	25748.23
539.60	25450.99
539.77	25638.23
539.94	25879.30
540.11	25628.87
540.28	25415.88
540.44	25762.28
540.61	25591.42
540.78	25886.32
540.95	25841.85
541.12	25820.79
541.29	25951.86
541.46	26047.82
541.62	25509.50
541.79	25855.90
541.96	25855.90
542.13	26211.66
542.30	26045.48
542.47	26118.04
542.63	26251.45
542.80	26405.92
542.97	26412.95
543.14	26544.02
543.31	26576.78
543.48	26469.12
543.64	26609.55
543.81	26719.56
543.98	26726.58
544.15	26431.67
544.32	26684.45
544.48	26965.31
544.65	26710.19
544.82	26696.15
544.99	26319.32
545.16	27030.85
545.32	26843.60
545.49	26916.16
545.66	26658.70
545.83	26897.44
546.00	27056.59
546.16	27208.73
546.33	26733.60
546.50	26560.40
546.67	26647.00
546.83	26410.60
547.00	26867.01
547.17	27199.37
547.34	27199.37
547.50	27475.55
547.67	27473.21
547.84	27367.88
548.00	27105.74
548.17	27587.89
548.34	27285.97
548.51	27402.99
548.67	27590.24
548.84	27379.59
549.01	27522.36
549.18	27398.31
549.34	27300.01
549.51	27482.57
549.68	27391.29
549.84	27271.92
550.01	27798.54
550.18	27433.42
550.34	27527.04
550.51	27566.83
550.68	27510.66
550.84	27812.59
551.01	27655.77
551.18	27812.59
551.34	27709.60
551.51	27435.76
551.68	27534.06
551.84	27957.70
552.01	28105.15
552.18	27854.72
552.34	27611.30
552.51	27941.32
552.68	27859.40
552.84	27964.72
553.01	28308.78
553.18	28203.46
553.34	28325.16
553.51	27957.70
553.67	28362.61
553.84	28437.51
554.01	28416.44
554.17	28402.40
554.34	28130.90
554.51	27941.32
554.67	28140.26
554.84	28261.97
555.00	28397.72
555.17	28348.57
555.33	28587.30
555.50	28346.23
555.67	28060.68
555.83	28517.09
556.00	28416.44
556.16	28624.75
556.33	28463.25
556.50	28465.60
556.66	28982.85
556.83	28575.60
556.99	28926.68
557.16	28755.82
557.32	28781.57
557.49	28713.69
557.65	28130.90
557.82	28547.51
557.98	28491.34
558.15	28858.81
558.32	28411.76
558.48	28788.59
558.65	28664.54
558.81	28903.28
558.98	28945.41
559.14	28697.31
559.31	28837.74
559.47	28814.34
559.64	28889.23
559.80	28912.64
559.97	29221.59
560.13	28912.64
560.30	29158.39
560.46	28828.38
560.63	28851.78
560.79	29020.30
560.96	29266.06
561.12	28893.91
561.29	28849.44
561.45	29017.96
561.61	29287.12
561.78	29226.27
561.94	29249.67
562.11	29041.37
562.27	29132.65
562.44	29097.54
562.60	29137.33
562.77	28758.16
562.93	28954.77
563.10	29385.43
563.26	29160.73
563.42	29418.19
563.59	29511.81
563.75	29474.37
563.92	29212.23
564.08	29017.96
564.24	29244.99
564.41	29291.80
564.57	29333.93
564.74	29343.30
564.90	29406.49
565.07	29567.99
565.23	29591.39
565.39	29600.76
565.56	29539.90
565.72	29460.32
565.88	29252.02
566.05	28964.13
566.21	29214.57
566.38	29551.60
566.54	29572.67
566.70	29710.76
566.87	29563.31
567.03	29078.82
567.19	29790.34
567.36	29736.51
567.52	29649.91
567.68	29827.79
567.85	29434.58
568.01	29373.72
568.17	29518.84
568.34	29785.66
568.50	29556.28
568.66	29783.32
568.83	29717.78
568.99	29392.45
569.15	29432.24
569.32	29661.61
569.48	29673.31
569.64	29713.10
569.81	29811.40
569.97	29788.00
570.13	29933.11
570.30	29610.12
570.46	29862.90
570.62	29591.39
570.78	29879.28
570.95	29577.35
571.11	29563.31
571.27	29479.05
571.43	30022.05
571.60	29935.45
571.76	29811.40
571.92	29738.85
572.09	29656.93
572.25	30120.35
572.41	29755.23
572.57	29851.19
572.74	29909.71
572.90	29296.49
573.06	29380.74
573.22	30029.07
573.38	29869.92
573.55	30087.59
573.71	29862.90
573.87	29930.77
574.03	29729.48
574.20	30270.15
574.36	29867.58
574.52	29883.96
574.68	29783.32
574.84	29970.56
575.01	29855.87
575.17	29890.98
575.33	29820.77
575.49	29785.66
575.65	30185.89
575.82	30010.35
575.98	30099.29
576.14	29888.64
576.30	29867.58
576.46	29802.04
576.62	29806.72
576.79	30110.99
576.95	29799.70
577.11	29977.58
577.27	29944.81
577.43	29949.50
577.59	30181.21
577.75	29872.26
577.92	29823.11
578.08	29837.15
578.24	29989.28
578.40	29933.11
578.56	30185.89
578.72	29855.87
578.88	30190.57
579.04	30480.80
579.21	30066.52
579.37	30057.16
579.53	30228.02
579.69	29900.34
579.85	29898.00
580.01	29954.18
580.17	30113.33
580.33	29406.49
580.49	30089.93
580.65	30040.78
580.82	29963.54
580.98	30134.40
581.14	30075.88
581.30	30349.73
581.46	30377.81
581.62	30078.22
581.78	29813.74
581.94	29930.77
582.10	30174.19
582.26	29949.50
582.42	30164.82
582.58	30345.05
582.74	30256.11
582.90	30108.65
583.06	30417.60
583.22	29961.20
583.38	30078.22
583.54	30012.69
583.70	30106.31
583.86	29944.81
584.02	30031.41
584.18	30403.56
584.34	30607.19
584.50	30162.48
584.66	30211.64
584.82	29699.06
584.98	30323.98
585.14	30068.86
585.30	29710.76
585.46	30057.16
585.62	29521.18
585.78	30197.59
585.94	29687.36
586.10	30497.18
586.26	30239.72
586.42	30429.30
586.58	30281.85
586.74	30242.06
586.90	29914.39
587.06	30120.35
587.22	30352.07
587.38	29708.42
587.54	30246.74
587.70	30555.69
587.86	30539.31
588.02	30618.89
588.18	30391.86
588.34	30230.36
588.49	30347.39
588.65	30171.85
588.81	30185.89
588.97	30389.52
589.13	30120.35
589.29	30436.33
589.45	30403.56
589.61	30300.58
589.77	30831.88
589.93	30209.29
590.08	30473.78
590.24	30485.48
590.40	30799.11
590.56	30431.65
590.72	30611.87
590.88	30377.81
591.04	30293.55
591.20	30775.70
591.35	30859.96
591.51	30724.21
591.67	30574.42
591.83	30738.26
591.99	30616.55
592.15	30326.32
592.31	30635.27
592.46	30558.03
592.62	30178.87
592.78	30618.89
592.94	30810.81
593.10	30600.16
593.26	30883.37
593.41	30745.28
593.57	30403.56
593.73	30597.82
593.89	30665.70
594.05	30487.82
594.20	30286.53
594.36	30522.93
594.52	30426.96
594.68	30441.01
594.84	30670.38
594.99	31049.55
595.15	30756.98
595.31	31014.44
595.47	30906.77
595.62	30789.75
595.78	30724.21
595.94	30951.24
596.10	30670.38
596.25	30508.88
596.41	30490.16
596.57	30307.60
596.73	30719.53
596.88	30394.20
597.04	30691.44
597.20	30953.58
597.36	30778.04
597.51	30829.54
597.67	30281.85
597.83	30632.93
597.99	30773.36
598.14	30745.28
598.30	30558.03
598.46	30984.01
598.61	30773.36
598.77	30869.33
598.93	30888.05
599.09	30827.20
599.24	30979.33
599.40	31040.18
599.56	30974.65
599.71	30679.74
599.87	30759.32
600.03	30705.49
600.18	30452.71
600.34	30445.69
600.50	30569.74
600.65	31033.16
600.81	30801.45
600.97	30958.27
601.12	31276.58
601.28	30555.69
601.44	31225.09
601.59	30855.28
601.75	30778.04
601.91	30602.50
602.06	30223.34
602.22	30836.56
602.37	30501.86
602.53	30927.84
602.69	31281.26
602.84	30932.52
603.00	31119.76
603.16	30972.31
603.31	31316.37
603.47	31101.04
603.62	31035.50
603.78	31180.62
603.94	30466.75
604.09	30979.33
604.25	30670.38
604.40	31007.42
604.56	30944.22
604.71	31283.60
604.87	31089.34
605.03	30962.95
605.18	30888.05
605.34	30923.16
605.49	30162.48
605.65	30686.76
605.80	30733.57
605.96	30445.69
606.12	30490.16
606.27	30698.47
606.43	30684.42
606.58	30974.65
606.74	30656.34
606.89	30529.95
607.05	31185.30
607.20	31061.25
607.36	30672.72
607.51	30756.98
607.67	30572.08
607.82	30396.54
607.98	30295.89
608.13	30902.09
608.29	30672.72
608.44	30543.99
608.60	30532.29
608.75	31098.70
608.91	30829.54
609.06	30855.28
609.22	30845.92
609.37	30218.66
609.53	30419.94
609.68	30424.62
609.84	30518.25
609.99	30417.60
610.15	30199.93
610.30	30478.46
610.46	30387.18
610.61	30513.56
610.76	30808.47
610.92	30576.76
611.07	30560.37
611.23	29996.31
611.38	30623.57
611.54	30515.90
611.69	30115.67
611.84	30305.26
612.00	30162.48
612.15	30242.06
612.31	30394.20
612.46	30356.75
612.62	30553.35
612.77	30267.81
612.92	30448.03
613.08	30253.76
613.23	30459.73
613.39	30005.67
613.54	30319.30
613.69	30366.11
613.85	30270.15
614.00	30321.64
614.15	30326.32
614.31	30015.03
614.46	30403.56
614.62	30213.98
614.77	30326.32
614.92	30033.75
615.08	30171.85
615.23	30192.91
615.38	30171.85
615.54	29970.56
615.69	30045.46
615.84	29706.08
616.00	30225.68
616.15	29991.62
616.30	30253.76
616.46	30216.32
616.61	30429.30
616.76	30157.80
616.92	29809.06
617.07	29972.90
617.22	29895.66
617.37	29544.58
617.53	30031.41
617.68	29542.24
617.83	29614.80
617.99	30045.46
618.14	30103.97
618.29	29921.41
618.45	29727.14
618.60	29947.15
618.75	29495.43
618.90	30085.25
619.06	29792.68
619.21	29579.69
619.36	29748.21
619.51	29830.13
619.67	29509.47
619.82	29076.48
619.97	29455.64
620.12	29118.60
620.28	29209.89
620.43	29834.81
620.58	29743.53
620.73	29443.94
620.89	29640.54
621.04	29914.39
621.19	29729.48
621.34	29305.85
621.49	29507.13
621.65	29069.45
621.80	29851.19
621.95	29582.03
622.10	29455.64
622.25	29275.42
622.41	29418.19
622.56	29315.21
622.71	29544.58
622.86	29130.31
623.01	29294.14
623.16	29465.00
623.32	29074.13
623.47	29284.78
623.62	29631.18
623.77	29556.28
623.92	29362.02
624.07	29134.99
624.23	29078.82
624.38	29333.93
624.53	29280.10
624.68	29200.52
624.83	29429.90
624.98	29312.87
625.13	28926.68
625.29	29149.03
625.44	28945.41
625.59	29071.79
625.74	29172.44
625.89	29235.63
626.04	29156.05
626.19	29125.63
626.34	28830.72
626.49	28772.21
626.65	28687.95
626.80	29202.86
626.95	28793.27
627.10	29050.73
627.25	28961.79
627.40	29001.58
627.55	28538.15
627.70	28800.29
627.85	28301.76
628.00	28851.78
628.15	28737.10
628.30	28629.43
628.45	28835.40
628.60	28709.01
628.76	28519.43
628.91	28748.80
629.06	28407.08
629.21	28835.40
629.36	28409.42
629.51	28460.91
629.66	28741.78
629.81	28247.93
629.96	28669.22
630.11	28140.26
630.26	28196.43
630.41	28465.60
630.56	28325.16
630.71	28451.55
630.86	28680.92
631.01	28315.80
631.16	28418.78
631.31	28334.53
631.46	27943.66
631.61	28327.50
631.76	28498.36
631.91	28144.94
632.06	28294.74
632.21	28273.67
632.36	28348.57
632.51	28168.35
632.66	28428.15
632.81	28147.28
632.96	28233.88
633.10	28350.91
633.25	28540.49
633.40	28184.73
633.55	28355.59
633.70	28020.89
633.85	27901.53
634.00	28039.62
634.15	27782.16
634.30	27784.50
634.45	28166.01
634.60	27850.03
634.75	28158.99
634.90	28046.64
635.05	28121.54
635.19	28037.28
635.34	28044.30
635.49	28327.50
635.64	28116.86
635.79	27948.34
635.94	27962.38
636.09	28093.45
636.24	28079.41
636.39	27737.69
636.53	27782.16
636.68	27400.65
636.83	27566.83
636.98	27716.62
637.13	27536.40
637.28	27786.84
637.43	27681.52
637.57	27791.52
637.72	27297.67
637.87	27339.80
638.02	27828.97
638.17	27674.49
638.32	27964.72
638.46	27346.82
638.61	27517.68
638.76	27374.91
638.91	27503.64
639.06	27402.99
639.20	27620.66
639.35	27700.24
639.50	27700.24
639.65	27583.21
639.80	27447.46
639.94	27475.55
640.09	27435.76
640.24	27395.97
640.39	27307.03
640.54	27117.45
640.68	27276.60
640.83	26991.06
640.98	27386.61
641.13	26923.18
641.27	26993.40
641.42	26923.18
641.57	27061.27
641.72	27262.56
641.86	27173.62
642.01	26806.16
642.16	27262.56
642.31	27061.27
642.45	27159.58
642.60	27000.42
642.75	26923.18
642.90	27278.94
643.04	27033.19
643.19	26707.85
643.34	27143.19
643.48	26768.71
643.63	27094.04
643.78	26675.09
643.93	27044.89
644.07	27056.59
644.22	27105.74
644.37	26883.39
644.51	27173.62
644.66	26822.54
644.81	26382.52
644.95	27026.17
645.10	26679.77
645.25	26452.73
645.39	26768.71
645.54	26492.52
645.69	27035.53
645.83	27199.37
645.98	27154.90
646.13	26464.44
646.27	26663.38
646.42	26902.12
646.57	26665.72
646.71	26518.27
646.86	26670.40
647.00	26316.98
647.15	26478.48
647.30	26415.29
647.44	26492.52
647.59	26457.42
647.74	26410.60
647.88	26352.09
648.03	26586.15
648.17	26429.33
648.32	26600.19
648.47	26520.61
648.61	26387.20
648.76	26342.73
648.90	26436.35
649.05	26595.51
649.20	26366.13
649.34	26197.62
649.49	26019.74
649.63	26223.36
649.78	26335.71
649.92	26082.93
650.07	26017.40
650.21	26008.03
650.36	25898.03
650.51	26230.38
650.65	26485.50
650.80	26312.30
650.94	26164.85
651.09	26068.89
651.23	26080.59
651.38	26108.68
651.52	25979.95
651.67	26125.06
651.81	26129.74
651.96	25940.16
652.10	25820.79
652.25	26302.94
652.39	26267.83
652.54	26314.64
652.68	26057.18
652.83	26155.49
652.97	26228.04
653.12	26073.57
653.26	25820.79
653.41	26033.78
653.55	26040.80
653.70	25764.62
653.84	25532.90
653.99	25500.14
654.13	25528.22
654.27	25900.37
654.42	25841.85
654.56	25916.75
654.71	25930.80
654.85	25891.01
655.00	25692.06
655.14	25781.00
655.29	25851.22
655.43	25656.95
655.57	25862.92
655.72	25551.63
655.86	25528.22
656.01	25546.95
656.15	25525.88
656.30	25586.74
656.44	25291.83
656.58	25390.13
656.73	25848.88
656.87	25671.00
657.01	25357.36
657.16	25511.84
657.30	25933.14
657.45	25795.04
657.59	25560.99
657.73	25355.02
657.88	25317.57
658.02	25582.06
658.16	24968.84
658.31	25156.08
658.45	25277.79
658.60	24975.86
658.74	25144.38
658.88	25235.66
659.03	24905.64
659.17	25048.41
659.31	25282.47
659.46	24961.81
659.60	24863.51
659.74	24999.26
659.89	25046.07
660.03	25139.69
660.17	25144.38
660.32	24739.46
660.46	24723.08
660.60	24624.78
660.74	24739.46
660.89	24858.83
661.03	24409.45
661.17	24758.19
661.32	24257.31
661.46	24727.76
661.60	24507.75
661.74	24844.79
661.89	24994.58
662.03	24907.98
662.17	24489.03
662.31	24580.31
662.46	24566.26
662.60	24580.31
662.74	24247.95
662.88	24196.46
663.03	23976.45
663.17	24023.26
663.31	23882.83
663.45	24196.46
663.60	23889.85
663.74	23814.95
663.88	24060.71
664.02	23943.68
664.17	24491.37
664.31	24135.60
664.45	23995.17
664.59	23791.55
664.73	24184.76
664.88	23374.93
665.02	23616.01
665.16	23885.17
665.30	23623.03
665.44	23768.14
665.59	23606.64
665.73	23674.52
665.87	23777.50
666.01	23812.61
666.15	23826.65
666.29	23648.77
666.44	23702.61
666.58	23386.63
666.72	23246.20
666.86	23646.43
667.00	23887.51
667.14	23229.82
667.28	23164.28
667.43	23407.70
667.57	23513.02
667.71	22953.63
667.85	23007.47
667.99	23293.01
668.13	23328.12
668.27	22960.66
668.41	23073.00
668.56	22885.76
668.70	22881.08
668.84	23021.51
668.98	23040.23
669.12	22789.80
669.26	22998.10
669.40	23166.62
669.54	22675.11
669.68	22834.27
669.82	22600.21
669.96	22628.30
670.10	22604.89
670.25	22391.91
670.39	22658.73
670.53	22284.24
670.67	22429.35
670.81	22593.19
670.95	22546.38
671.09	22530.00
671.23	22820.22
671.37	22675.11
671.51	22745.33
671.65	22419.99
671.79	22389.56
671.93	22317.01
672.07	22574.47
672.21	22150.83
672.35	21806.77
672.49	21895.71
672.63	22059.55
672.77	21930.82
672.91	21722.51
673.05	21694.43
673.19	21774.00
673.33	21689.74
673.47	21631.23
673.61	21809.11
673.75	21546.97
673.89	21680.38
674.03	21235.68
674.17	21888.69
674.31	21394.84
674.45	21525.91
674.59	21177.17
674.73	21535.27
674.87	21366.75
675.01	21383.13
675.15	21315.26
675.29	21034.39
675.43	21123.33
675.56	20980.56
675.70	20814.38
675.84	21378.45
675.98	20793.32
676.12	21165.46
676.26	20994.61
676.40	21149.08
676.54	21153.76
676.68	20542.88
676.82	20655.23
676.96	20688.00
677.10	20470.33
677.23	20374.36
677.37	20582.67
677.51	20128.61
677.65	20229.25
677.79	20201.16
677.93	20320.53
678.07	20198.82
678.21	20212.87
678.34	20084.14
678.48	19653.48
678.62	19789.23
678.76	19735.40
678.90	19592.62
679.04	19814.98
679.18	20142.65
679.31	19433.47
679.45	19332.82
679.59	19257.93
679.73	19379.64
679.87	19232.18
680.00	19372.61
680.14	19456.87
680.28	19360.91
680.42	19257.93
680.56	19300.06
680.70	19433.47
680.83	19040.26
680.97	18988.77
681.11	19054.30
681.25	18892.80
681.39	18979.40
681.52	19098.77
681.66	18794.50
681.80	18970.04
681.94	18551.09
682.07	18707.90
682.21	18345.12
682.35	18412.99
682.49	18265.54
682.62	18167.24
682.76	18438.74
682.90	18239.79
683.04	18050.21
683.17	18064.25
683.31	18078.30
683.45	18134.47
683.59	18108.72
683.72	17982.34
683.86	18160.22
684.00	17858.29
684.13	17589.13
684.27	17481.46
684.41	17778.71
684.55	17364.43
684.68	17357.41
684.82	17216.98
684.96	17364.43
685.09	17256.77
685.23	16994.63
685.37	17315.28
685.50	16945.48
685.64	17397.20
685.78	17156.13
685.91	17151.45
686.05	17401.88
686.19	17060.16
686.32	17233.36
686.46	17015.69
686.60	16842.50
686.73	16882.28
686.87	16631.85
687.01	16795.68
687.14	16601.42
687.28	16468.01
687.42	16631.85
687.55	16042.03
687.69	16437.58
687.82	16458.65
687.96	16175.44
688.10	16341.62
688.23	16299.49
688.37	16219.91
688.50	16393.11
688.64	16271.40
688.78	16112.25
688.91	15819.68
689.05	15791.59
689.18	15700.31
689.32	15225.18
689.46	15548.18
689.59	15620.74
689.73	15529.45
689.86	15466.26
690.00	15349.23
690.13	15377.32
690.27	15208.80
690.41	15470.94
690.54	15129.22
690.68	15370.30
690.81	15480.30
690.95	15262.63
691.08	15103.48
691.22	15140.93
691.35	15030.92
691.49	14925.60
691.62	15133.90
691.76	14965.39
691.89	14909.21
692.03	14710.27
692.16	14572.18
692.30	14469.19
692.43	14544.09
692.57	14703.25
692.70	14377.91
692.84	14443.45
692.97	14111.09
693.11	14469.19
693.24	14319.40
693.38	14242.16
693.51	14010.45
693.65	14185.99
693.78	14146.20
693.92	14033.85
694.05	13968.32
694.19	14031.51
694.32	13717.88
694.45	13593.83
694.59	13310.63
694.72	13507.23
694.86	13701.50
694.99	13277.86
695.13	13373.82
695.26	13369.14
695.39	13387.86
695.53	13319.99
695.66	13263.82
695.80	13102.32
695.93	13055.51
696.07	13240.41
696.20	13242.75
696.33	13273.18
696.47	13041.46
696.60	12800.39
696.73	12603.78
696.87	12992.31
697.00	12482.08
697.14	12622.51
697.27	12425.90
697.40	12498.46
697.54	12585.06
697.67	12336.96
697.80	12479.74
697.94	12255.04
698.07	12095.89
698.21	12215.26
698.34	12271.43
698.47	12112.27
698.61	12037.38
698.74	12201.21
698.87	11908.65
699.01	11859.49
699.14	12161.42
699.27	12053.76
699.40	11756.51
699.54	11712.04
699.67	11686.29
699.80	11733.11
699.94	11618.42
700.07	11384.37
700.20	11576.29
700.34	11396.07
700.47	11358.62
700.60	11463.94
700.73	11213.51
700.87	11337.56
701.00	11325.85
701.13	11246.27
701.26	11389.05
701.40	11293.08
701.53	10944.34
701.66	11190.10
701.79	10991.16
701.93	10775.83
702.06	10951.37
702.19	10586.24
702.32	10974.77
702.46	10890.51
702.59	10658.80
702.72	10729.02
702.85	10654.12
702.99	10406.02
703.12	10478.58
703.25	10473.90
703.38	10499.64
703.51	10377.94
703.65	10569.86
703.78	10377.94
703.91	10298.36
704.04	10171.97
704.17	10246.87
704.31	10080.69
704.44	10076.01
704.57	9895.78
704.70	9907.49
704.83	9846.63
704.96	9776.42
705.10	9774.08
705.23	9879.40
>>>>>End Processed Spectral Data<<<<<
