SpectraSuite Data File
++++++++++++++++++++++++++++++++++++
Date: Fri Oct 18 13:58:41 GMT-05:00 2013
User: bianchi
Dark Spectrum Present: No
Reference Spectrum Present: No
Number of Sampled Component Spectra: 1
Spectrometers: USB2+H05261
Integration Time (usec): 50000 (USB2+H05261)
Spectra Averaged: 1 (USB2+H05261)
Boxcar Smoothing: 0 (USB2+H05261)
Correct for Electrical Dark: No (USB2+H05261)
Strobe/Lamp Enabled: No (USB2+H05261)
Correct for Detector Non-linearity: No (USB2+H05261)
Correct for Stray Light: No (USB2+H05261)
Number of Pixels in Processed Spectrum: 2048
>>>>>Begin Processed Spectral Data<<<<<
365.73	0.00
365.92	0.00
366.12	0.00
366.32	0.00
366.52	0.00
366.72	0.00
366.91	0.00
367.11	0.00
367.31	0.00
367.51	0.00
367.70	0.00
367.90	0.00
368.10	0.00
368.30	0.00
368.49	0.00
368.69	0.00
368.89	0.00
369.09	0.00
369.28	0.00
369.48	0.00
369.68	0.00
369.87	0.00
370.07	0.00
370.27	0.00
370.47	0.00
370.66	65.54
370.86	95.96
371.06	124.05
371.25	187.24
371.45	81.92
371.65	187.24
371.84	107.66
372.04	205.97
372.24	217.67
372.44	184.90
372.63	294.91
372.83	168.52
373.03	184.90
373.22	255.12
373.42	154.48
373.62	187.24
373.81	205.97
374.01	241.08
374.21	212.99
374.40	215.33
374.60	304.27
374.79	182.56
374.99	248.10
375.19	234.05
375.38	285.55
375.58	248.10
375.78	325.33
375.97	264.48
376.17	257.46
376.37	220.01
376.56	248.10
376.76	285.55
376.95	255.12
377.15	278.52
377.35	208.31
377.54	241.08
377.74	262.14
377.93	210.65
378.13	301.93
378.33	285.55
378.52	315.97
378.72	301.93
378.91	245.76
379.11	318.31
379.31	290.23
379.50	318.31
379.70	369.80
379.89	365.12
380.09	308.95
380.28	308.95
380.48	290.23
380.68	367.46
380.87	276.18
381.07	393.21
381.26	330.02
381.46	367.46
381.65	318.31
381.85	390.87
382.04	311.29
382.24	414.27
382.43	355.76
382.63	414.27
382.83	315.97
383.02	365.12
383.22	360.44
383.41	402.57
383.61	376.83
383.80	362.78
384.00	402.57
384.19	390.87
384.39	395.55
384.58	358.10
384.78	348.74
384.97	393.21
385.17	393.21
385.36	383.85
385.56	440.02
385.75	421.30
385.95	372.15
386.14	393.21
386.34	400.23
386.53	393.21
386.72	451.72
386.92	456.40
387.11	440.02
387.31	470.45
387.50	477.47
387.70	442.36
387.89	362.78
388.09	428.32
388.28	440.02
388.48	468.11
388.67	486.83
388.86	475.13
389.06	423.64
389.25	451.72
389.45	442.36
389.64	489.17
389.84	505.56
390.03	503.22
390.22	519.60
390.42	519.60
390.61	482.15
390.81	484.49
391.00	400.23
391.19	440.02
391.39	564.07
391.58	517.26
391.78	418.96
391.97	524.28
392.16	552.37
392.36	517.26
392.55	535.98
392.75	510.24
392.94	538.32
393.13	479.81
393.33	568.75
393.52	451.72
393.71	589.82
393.91	568.75
394.10	608.54
394.29	554.71
394.49	538.32
394.68	568.75
394.88	547.69
395.07	634.29
395.26	603.86
395.46	571.09
395.65	624.92
395.84	589.82
396.04	676.41
396.23	655.35
396.42	674.07
396.62	617.90
396.81	669.39
397.00	627.26
397.19	580.45
397.39	657.69
397.58	725.57
397.77	737.27
397.97	716.20
398.16	629.60
398.35	695.14
398.55	699.82
398.74	681.10
398.93	737.27
399.12	763.01
399.32	645.99
399.51	770.04
399.70	819.19
399.90	739.61
400.09	713.86
400.28	807.48
400.47	791.10
400.67	800.46
400.86	821.53
401.05	720.88
401.24	753.65
401.44	788.76
401.63	800.46
401.82	758.33
402.01	802.80
402.21	823.87
402.40	868.34
402.59	861.32
402.78	772.38
402.97	840.25
403.17	748.97
403.36	966.64
403.55	856.64
403.74	830.89
403.93	844.93
404.13	954.94
404.32	884.72
404.51	947.92
404.70	940.90
404.89	985.37
405.09	894.08
405.28	985.37
405.47	887.06
405.66	968.98
405.85	929.19
406.05	959.62
406.24	994.73
406.43	945.58
406.62	1036.86
406.81	1029.84
407.00	959.62
407.20	971.32
407.39	1053.24
407.58	1083.67
407.77	966.64
407.96	1102.39
408.15	1057.92
408.34	1043.88
408.54	1043.88
408.73	1076.65
408.92	1095.37
409.11	1111.75
409.30	1167.93
409.49	1160.91
409.68	1205.38
409.87	1203.04
410.07	1186.65
410.26	1160.91
410.45	1165.59
410.64	1221.76
410.83	1217.08
411.02	1179.63
411.21	1273.25
411.40	1177.29
411.59	1235.80
411.78	1240.48
411.98	1137.50
412.17	1331.76
412.36	1280.27
412.55	1343.47
412.74	1341.13
412.93	1418.36
413.12	1383.26
413.31	1476.88
413.50	1357.51
413.69	1397.30
413.88	1444.11
414.07	1345.81
414.26	1392.62
414.45	1502.62
414.64	1526.03
414.83	1537.73
415.02	1385.60
415.22	1460.49
415.41	1643.06
415.60	1547.09
415.79	1542.41
415.98	1556.46
416.17	1533.05
416.36	1617.31
416.55	1640.72
416.74	1654.76
416.93	1593.90
417.12	1619.65
417.31	1687.53
417.50	1605.61
417.69	1802.21
417.88	1727.32
418.07	1591.56
418.26	1776.47
418.45	1825.62
418.64	1839.66
418.83	1853.70
419.02	1722.63
419.21	1682.85
419.39	1806.89
419.58	1724.97
419.77	1795.19
419.96	1879.45
420.15	1799.87
420.34	1799.87
420.53	1865.41
420.72	1928.60
420.91	1839.66
421.10	1898.17
421.29	2022.22
421.48	1863.07
421.67	1954.35
421.86	1996.48
422.05	1923.92
422.24	2017.54
422.43	1989.46
422.61	2045.63
422.80	1940.30
422.99	2057.33
423.18	2047.97
423.37	2069.03
423.56	2029.24
423.75	2097.12
423.94	1959.03
424.13	1870.09
424.32	2045.63
424.50	2090.10
424.69	2118.18
424.88	2090.10
425.07	1891.15
425.26	2026.90
425.45	1973.07
425.64	1935.62
425.83	2057.33
426.01	2064.35
426.20	2087.76
426.39	2047.97
426.58	1968.39
426.77	2115.84
426.96	2127.55
427.15	2047.97
427.33	2150.95
427.52	2052.65
427.71	2216.49
427.90	2134.57
428.09	2235.21
428.28	2132.23
428.46	2083.08
428.65	2165.00
428.84	2200.10
429.03	2190.74
429.22	2214.15
429.40	2312.45
429.59	2321.81
429.78	2232.87
429.97	2188.40
430.16	2232.87
430.34	2307.77
430.53	2286.70
430.72	2431.82
430.91	2324.15
431.10	2275.00
431.28	2335.85
431.47	2352.24
431.66	2335.85
431.85	2399.05
432.03	2382.67
432.22	2459.90
432.41	2424.80
432.60	2483.31
432.79	2431.82
432.97	2583.95
433.16	2471.61
433.35	2483.31
433.54	2520.76
433.72	2534.80
433.91	2462.24
434.10	2471.61
434.28	2487.99
434.47	2452.88
434.66	2539.48
434.85	2623.74
435.03	2658.85
435.22	2602.68
435.41	2607.36
435.59	2623.74
435.78	2520.76
435.97	2438.84
436.16	2583.95
436.34	2623.74
436.53	2565.23
436.72	2703.32
436.90	2670.55
437.09	2719.70
437.28	2705.66
437.46	2726.72
437.65	2815.66
437.84	2771.19
438.02	2799.28
438.21	2759.49
438.40	2738.43
438.58	2895.24
438.77	2981.84
438.96	2939.71
439.14	2956.10
439.33	2951.42
439.52	2984.18
439.70	2991.20
439.89	3049.72
440.08	2935.03
440.26	3026.31
440.45	3178.45
440.63	3002.91
440.82	3087.17
441.01	3145.68
441.19	3105.89
441.38	3211.22
441.57	3208.87
441.75	3197.17
441.94	3232.28
442.12	3300.16
442.31	3307.18
442.50	3337.60
442.68	3307.18
442.87	3316.54
443.05	3375.05
443.24	3356.33
443.43	3382.07
443.61	3538.89
443.80	3426.54
443.98	3363.35
444.17	3269.73
444.35	3351.65
444.54	3447.61
444.73	3501.44
444.91	3421.86
445.10	3417.18
445.28	3382.07
445.47	3218.24
445.65	3529.53
445.84	3456.97
446.02	3391.44
446.21	3445.27
446.39	3417.18
446.58	3391.44
446.77	3576.34
446.95	3325.90
447.14	3482.72
447.32	3653.58
447.51	3463.99
447.69	3515.48
447.88	3480.38
448.06	3515.48
448.25	3578.68
448.43	3468.67
448.62	3562.30
448.80	3536.55
448.99	3634.85
449.17	3632.51
449.36	3501.44
449.54	3588.04
449.73	3719.11
449.91	3784.65
450.10	3604.42
450.28	3693.37
450.46	3740.18
450.65	3843.16
450.83	3676.98
451.02	3655.92
451.20	3824.44
451.39	3796.35
451.57	3742.52
451.76	3831.46
451.94	3751.88
452.13	3843.16
452.31	3824.44
452.49	3733.15
452.68	3885.29
452.86	3801.03
453.05	3838.48
453.23	3904.01
453.42	3756.56
453.60	3960.19
453.78	3831.46
453.97	3758.90
454.15	4051.47
454.34	3904.01
454.52	3887.63
454.70	3990.61
454.89	4044.45
455.07	3936.78
455.26	3997.64
455.44	4154.45
455.62	3981.25
455.81	3953.16
455.99	4039.76
456.17	4105.30
456.36	4070.19
456.54	4276.16
456.73	4140.41
456.91	4320.63
457.09	4170.83
457.28	4376.80
457.46	4278.50
457.64	4414.25
457.83	4250.41
458.01	4196.58
458.19	4407.23
458.38	4241.05
458.56	4379.14
458.74	4369.78
458.93	4311.27
459.11	4421.27
459.29	4369.78
459.48	4432.97
459.66	4465.74
459.84	4573.41
460.03	4596.81
460.21	4601.49
460.39	4535.96
460.57	4517.23
460.76	4601.49
460.94	4599.15
461.12	4641.28
461.31	4634.26
461.49	4620.22
461.67	4678.73
461.85	4819.16
462.04	4770.01
462.22	4564.04
462.40	4657.67
462.59	4674.05
462.77	4599.15
462.95	4599.15
463.13	4774.69
463.32	4695.11
463.50	4718.52
463.68	4842.57
463.86	4781.71
464.05	4746.61
464.23	4777.03
464.41	4865.97
464.59	4830.87
464.78	5039.17
464.96	4943.21
465.14	4898.74
465.32	4943.21
465.50	4987.68
465.69	5029.81
465.87	4875.34
466.05	4961.94
466.23	4957.25
466.41	5029.81
466.60	5004.07
466.78	5001.72
466.96	5043.85
467.14	5163.22
467.32	5067.26
467.51	5125.77
467.69	5074.28
467.87	5179.61
468.05	5109.39
468.23	5198.33
468.41	5060.24
468.60	5256.84
468.78	5188.97
468.96	5160.88
469.14	5343.44
469.32	5390.25
469.50	5081.30
469.69	5448.77
469.87	5261.52
470.05	5455.79
470.23	5418.34
470.41	5359.83
470.59	5401.96
470.77	5378.55
470.95	5495.58
471.14	5460.47
471.32	5500.26
471.50	5603.24
471.68	5729.63
471.86	5540.05
472.04	5717.93
472.22	5720.27
472.40	5577.50
472.58	5769.42
472.77	5867.72
472.95	5689.84
473.13	5905.17
473.31	5741.33
473.49	5703.89
473.67	5837.30
473.85	5785.80
474.03	6017.52
474.21	6043.26
474.39	6024.54
474.57	5863.04
474.75	6181.35
474.93	6200.08
475.12	6253.91
475.30	6265.61
475.48	6197.74
475.66	6127.52
475.84	6340.51
476.02	6298.38
476.20	6274.98
476.38	6246.89
476.56	6551.16
476.74	6616.69
476.92	6424.77
477.10	6462.22
477.28	6689.25
477.46	6686.91
477.64	6619.04
477.82	6532.44
478.00	6904.58
478.18	6778.19
478.36	6881.18
478.54	6895.22
478.72	6832.02
478.90	7171.40
479.08	7227.57
479.26	7290.77
479.44	7297.79
479.62	7180.76
479.80	7452.27
479.98	7410.14
480.16	7527.16
480.34	7449.93
480.52	7552.91
480.70	7529.50
480.88	7585.68
481.06	7817.39
481.24	7798.66
481.41	7946.12
481.59	7803.35
481.77	7939.10
481.95	7953.14
482.13	7964.84
482.31	8011.65
482.49	8224.64
482.67	8280.82
482.85	8217.62
483.03	8315.92
483.21	8463.38
483.39	8439.97
483.57	8531.25
483.74	8521.89
483.92	8524.23
484.10	8683.39
484.28	8772.33
484.46	8826.16
484.64	9097.66
484.82	9006.38
485.00	8985.32
485.18	9266.18
485.35	9315.33
485.53	9177.24
485.71	9467.47
485.89	9748.33
486.07	9516.62
486.25	9462.79
486.43	9619.60
486.61	9755.35
486.78	9858.34
486.96	9888.76
487.14	10076.01
487.32	9811.53
487.50	10195.37
487.68	10195.37
487.85	10307.72
488.03	10394.32
488.21	10555.82
488.39	10595.61
488.57	10597.95
488.75	10600.29
488.92	10682.20
489.10	10899.87
489.28	10963.07
489.46	11044.99
489.64	11087.12
489.81	11222.87
489.99	11325.85
490.17	11360.96
490.35	11255.64
490.53	11438.20
490.70	11609.06
490.88	11707.36
491.06	11805.66
491.24	11700.34
491.41	11779.92
491.59	11885.24
491.77	11908.65
491.95	12271.43
492.13	12119.29
492.30	12255.04
492.48	12264.41
492.66	12189.51
492.84	12578.04
493.01	12475.06
493.19	12468.03
493.37	12566.34
493.54	12894.01
493.72	12723.15
493.90	12861.24
494.08	12875.29
494.25	13025.08
494.43	13132.75
494.61	13263.82
494.79	13364.46
494.96	13256.79
495.14	13151.47
495.32	13357.44
495.49	13462.76
495.67	13666.39
495.85	13734.26
496.02	13708.52
496.20	14019.81
496.38	13949.59
496.55	13799.80
496.73	14408.34
496.91	13928.53
497.09	14401.32
497.26	14436.42
497.44	14181.31
497.62	14349.82
497.79	14492.60
497.97	14274.93
498.14	14609.62
498.32	14846.02
498.50	14958.36
498.67	14780.48
498.85	14544.09
499.03	14953.68
499.20	15091.77
499.38	14970.07
499.56	15260.29
499.73	15180.71
499.91	15101.14
500.08	15466.26
500.26	15049.64
500.44	15384.34
500.61	15363.28
500.79	15435.83
500.97	15534.14
501.14	15822.02
501.32	15683.93
501.49	15550.52
501.67	15536.48
501.84	15903.94
502.02	15812.66
502.20	16065.44
502.37	16056.08
502.55	16109.91
502.72	16140.33
502.90	16154.38
503.07	16123.95
503.25	16276.09
503.43	16301.83
503.60	16400.13
503.78	16690.36
503.95	16456.31
504.13	16437.58
504.30	16568.65
504.48	16638.87
504.65	16835.47
504.83	16697.38
505.01	16793.34
505.18	16910.37
505.36	16840.15
505.53	16858.88
505.71	16753.55
505.88	16886.97
506.06	17165.49
506.23	17291.88
506.41	17371.46
506.58	17247.41
506.76	17530.61
506.93	17493.16
507.11	17266.13
507.28	17699.13
507.46	17692.11
507.63	17570.40
507.81	17785.73
507.98	17661.68
508.16	17841.90
508.33	17474.44
508.50	17795.09
508.68	18115.75
508.85	18050.21
509.03	18136.81
509.20	18033.83
509.38	18253.84
509.55	18293.63
509.73	18511.30
509.90	18368.52
510.08	18459.81
510.25	18054.89
510.42	18377.89
510.60	18560.45
510.77	18906.85
510.95	18700.88
511.12	18373.21
511.30	18691.52
511.47	18806.20
511.64	18747.69
511.82	19129.20
511.99	18881.10
512.17	18857.70
512.34	18843.65
512.51	19183.03
512.69	18963.02
512.86	19101.11
513.04	19496.66
513.21	19119.84
513.38	19562.20
513.56	19463.90
513.73	19335.17
513.90	19527.09
514.08	19559.86
514.25	19648.80
514.43	19826.68
514.60	19522.41
514.77	19782.21
514.95	19852.42
515.12	19653.48
515.29	19803.27
515.47	19885.19
515.64	20346.28
515.81	20290.10
515.99	20404.79
516.16	20383.73
516.33	20166.06
516.51	20280.74
516.68	20018.60
516.85	20269.04
517.03	20250.32
517.20	20240.95
517.37	20514.80
517.54	20493.73
517.72	20863.54
517.89	20819.07
518.06	20727.78
518.24	20788.64
518.41	20545.22
518.58	20610.76
518.75	20926.73
518.93	20603.74
519.10	20613.10
519.27	21135.04
519.45	20943.11
519.62	21158.44
519.79	20989.92
519.96	20896.30
520.14	21226.32
520.31	21020.35
520.48	21333.98
520.65	20954.82
520.83	21057.80
521.00	21441.65
521.17	21083.55
521.34	21399.52
521.52	21610.17
521.69	21268.45
521.86	21668.68
522.03	21804.43
522.20	22059.55
522.38	21827.84
522.55	21654.64
522.72	22066.57
522.89	21764.64
523.07	21724.85
523.24	22214.02
523.41	22188.28
523.58	21905.07
523.75	22260.84
523.92	21888.69
524.10	22242.11
524.27	22340.41
524.44	22410.63
524.61	22398.93
524.78	22492.55
524.96	22061.89
525.13	22518.29
525.30	22834.27
525.47	22466.80
525.64	22920.87
525.81	22562.76
525.98	22838.95
526.16	22904.48
526.33	22551.06
526.50	23084.70
526.67	22810.86
526.84	22787.46
527.01	22548.72
527.18	22820.22
527.36	23126.83
527.53	22993.42
527.70	22977.04
527.87	23384.29
528.04	22855.33
528.21	23173.64
528.38	22852.99
528.55	22937.25
528.72	23021.51
528.89	23201.73
529.07	23047.26
529.24	23225.14
529.41	23468.55
529.58	23288.33
529.75	23068.32
529.92	23573.88
530.09	23681.54
530.26	23765.80
530.43	23988.15
530.60	23452.17
530.77	23653.45
530.94	23826.65
531.11	23850.06
531.28	23805.59
531.46	23969.43
531.63	23934.32
531.80	23948.36
531.97	24039.64
532.14	24177.73
532.31	23929.64
532.48	24011.56
532.65	24077.09
532.82	23838.36
532.99	23988.15
533.16	23992.83
533.33	24266.67
533.50	24362.64
533.67	24381.36
533.84	24402.43
534.01	24016.24
534.18	24547.54
534.35	24264.33
534.52	24430.51
534.69	24542.86
534.86	24809.68
535.03	24266.67
535.20	24526.47
535.37	24641.16
535.54	24533.50
535.71	24367.32
535.88	24671.59
536.05	24367.32
536.22	25022.67
536.38	25015.65
536.55	25010.96
536.72	24783.93
536.89	24702.01
537.06	24872.87
537.23	24996.92
537.40	24709.04
537.57	25043.73
537.74	25596.10
537.91	25219.27
538.08	25373.75
538.25	24931.39
538.42	25156.08
538.59	25097.56
538.75	25205.23
538.92	25544.61
539.09	25195.87
539.26	25172.46
539.43	25495.46
539.60	25638.23
539.77	25458.01
539.94	25846.54
540.11	25263.74
540.28	25350.34
540.44	25591.42
540.61	25336.30
540.78	25458.01
540.95	25441.62
541.12	25717.81
541.29	25493.12
541.46	25804.41
541.62	25553.97
541.79	25825.47
541.96	25394.81
542.13	25621.84
542.30	25448.64
542.47	25720.15
542.63	26422.31
542.80	26050.16
542.97	26127.40
543.14	26345.07
543.31	25898.03
543.48	26038.46
543.64	26436.35
543.81	26590.83
543.98	26586.15
544.15	26719.56
544.32	26724.24
544.48	26855.31
544.65	26621.25
544.82	26616.57
544.99	26174.21
545.16	26654.02
545.32	26656.36
545.49	26604.87
545.66	27087.02
545.83	27021.48
546.00	26930.20
546.16	26623.59
546.33	26455.08
546.50	26279.54
546.67	26836.58
546.83	26551.04
547.00	26707.85
547.17	26785.09
547.34	26810.84
547.50	26703.17
547.67	27358.52
547.84	26986.38
548.00	26827.22
548.17	27080.00
548.34	26988.72
548.51	27145.53
548.67	26857.65
548.84	27164.26
549.01	27351.50
549.18	26867.01
549.34	27267.24
549.51	27459.16
549.68	27117.45
549.84	27061.27
550.01	27325.75
550.18	27311.71
550.34	27213.41
550.51	27459.16
550.68	27234.47
550.84	27147.87
551.01	27349.16
551.18	27054.25
551.34	27292.99
551.51	27342.14
551.68	27405.33
551.84	27718.96
552.01	27665.13
552.18	27740.03
552.34	27391.29
552.51	27599.60
552.68	27658.11
552.84	27644.07
553.01	27847.69
553.18	27716.62
553.34	27768.12
553.51	27974.08
553.67	27859.40
553.84	28046.64
554.01	27850.03
554.17	27878.12
554.34	27786.84
554.51	27875.78
554.67	27964.72
554.84	28439.85
555.00	27908.55
555.17	27803.22
555.33	27910.89
555.50	28147.28
555.67	28395.38
555.83	28041.96
556.00	28390.70
556.16	28386.02
556.33	28046.64
556.50	28063.02
556.66	27887.48
556.83	28107.49
556.99	28556.88
557.16	28301.76
557.32	28622.41
557.49	28575.60
557.65	28554.54
557.82	28297.08
557.98	28203.46
558.15	28694.97
558.32	28591.98
558.48	28313.46
558.65	28793.27
558.81	28669.22
558.98	28395.38
559.14	28484.32
559.31	28187.07
559.47	28673.90
559.64	28428.15
559.80	28858.81
559.97	28540.49
560.13	28327.50
560.30	28851.78
560.46	28418.78
560.63	28671.56
560.79	28952.43
560.96	28868.17
561.12	28575.60
561.29	28140.26
561.45	28479.64
561.61	28591.98
561.78	28687.95
561.94	29095.20
562.11	28800.29
562.27	28676.24
562.44	28591.98
562.60	28833.06
562.77	28299.42
562.93	28648.16
563.10	28900.94
563.26	28926.68
563.42	29160.73
563.59	29186.48
563.75	28964.13
563.92	28957.11
564.08	28779.23
564.24	28734.76
564.41	28774.55
564.57	28758.16
564.74	29046.05
564.90	29453.30
565.07	29092.86
565.23	29153.71
565.39	28868.17
565.56	29195.84
565.72	28985.19
565.88	29099.88
566.05	28877.53
566.21	28718.37
566.38	29390.11
566.54	28980.51
566.70	29462.66
566.87	29259.04
567.03	29120.95
567.19	29535.22
567.36	29509.47
567.52	28833.06
567.68	29336.27
567.85	29069.45
568.01	29207.55
568.17	29626.50
568.34	29422.87
568.50	29277.76
568.66	29235.63
568.83	29989.28
568.99	29097.54
569.15	29078.82
569.32	29343.30
569.48	29092.86
569.64	29514.16
569.81	29780.98
569.97	29179.46
570.13	29443.94
570.30	29502.45
570.46	29621.82
570.62	29443.94
570.78	29582.03
570.95	29504.79
571.11	29160.73
571.27	29369.04
571.43	29275.42
571.60	29556.28
571.76	29399.47
571.92	29390.11
572.09	29617.14
572.25	29345.64
572.41	29734.17
572.57	29703.74
572.74	29600.76
572.90	29441.60
573.06	29317.55
573.22	29539.90
573.38	29539.90
573.55	29436.92
573.71	29862.90
573.87	29886.30
574.03	29928.43
574.20	29813.74
574.36	29490.75
574.52	29638.20
574.68	29638.20
574.84	29516.50
575.01	29759.91
575.17	30015.03
575.33	29647.57
575.49	29565.65
575.65	29399.47
575.82	29572.67
575.98	29876.94
576.14	29607.78
576.30	29539.90
576.46	29563.31
576.62	29738.85
576.79	29472.03
576.95	29350.32
577.11	29064.77
577.27	29612.46
577.43	29895.66
577.59	29645.23
577.75	29717.78
577.92	29631.18
578.08	29565.65
578.24	29462.66
578.40	29788.00
578.56	29830.13
578.72	29820.77
578.88	30153.12
579.04	30047.80
579.21	29619.48
579.37	30003.33
579.53	29699.06
579.69	29223.93
579.85	29530.54
580.01	29294.14
580.17	29453.30
580.33	29577.35
580.49	29757.57
580.65	30057.16
580.82	29851.19
580.98	29734.17
581.14	29848.85
581.30	29792.68
581.46	29603.10
581.62	30225.68
581.78	29848.85
581.94	29736.51
582.10	29230.95
582.26	29762.25
582.42	29823.11
582.58	29869.92
582.74	29745.87
582.90	29757.57
583.06	29792.68
583.22	29888.64
583.38	29668.63
583.54	29855.87
583.70	29549.26
583.86	29879.28
584.02	29565.65
584.18	30029.07
584.34	29846.51
584.50	29757.57
584.66	29652.25
584.82	29699.06
584.98	29907.37
585.14	29476.71
585.30	29521.18
585.46	29755.23
585.62	29724.80
585.78	29848.85
585.94	29923.75
586.10	29759.91
586.26	29975.24
586.42	30176.53
586.58	29923.75
586.74	29752.89
586.90	29523.52
587.06	29729.48
587.22	30045.46
587.38	29626.50
587.54	29813.74
587.70	30291.21
587.86	30113.33
588.02	30017.37
588.18	30036.09
588.34	30008.01
588.49	29930.77
588.65	30455.05
588.81	29816.08
588.97	30232.70
589.13	29895.66
589.29	29919.07
589.45	30075.88
589.61	30075.88
589.77	30242.06
589.93	30368.45
590.08	30689.10
590.24	30277.17
590.40	30237.38
590.56	29923.75
590.72	30085.25
590.88	29839.49
591.04	30087.59
591.20	30389.52
591.35	30469.09
591.51	30745.28
591.67	30515.90
591.83	30651.66
591.99	30089.93
592.15	30359.09
592.31	30532.29
592.46	30045.46
592.62	29954.18
592.78	30305.26
592.94	30415.26
593.10	30267.81
593.26	30464.41
593.41	30726.55
593.57	30073.54
593.73	30333.34
593.89	30394.20
594.05	30286.53
594.20	30075.88
594.36	30113.33
594.52	30106.31
594.68	30129.72
594.84	30309.94
594.99	30508.88
595.15	30340.36
595.31	30445.69
595.47	30167.16
595.62	30543.99
595.78	30309.94
595.94	30223.34
596.10	30305.26
596.25	30190.57
596.41	30221.00
596.57	30092.27
596.73	30270.15
596.88	30082.91
597.04	30438.67
597.20	30398.88
597.36	30370.79
597.51	30677.40
597.67	30185.89
597.83	30005.67
597.99	30382.49
598.14	30040.78
598.30	30579.10
598.46	30094.61
598.61	30338.02
598.77	30394.20
598.93	30450.37
599.09	30457.39
599.24	30869.33
599.40	30511.22
599.56	30693.79
599.71	30277.17
599.87	30228.02
600.03	30543.99
600.18	30323.98
600.34	30197.59
600.50	30373.13
600.65	30352.07
600.81	30586.12
600.97	30808.47
601.12	30789.75
601.28	30485.48
601.44	30705.49
601.59	30476.12
601.75	30700.81
601.91	30326.32
602.06	30464.41
602.22	30405.90
602.37	30242.06
602.53	30415.26
602.69	30590.80
602.84	30483.14
603.00	30412.92
603.16	30345.05
603.31	30576.76
603.47	30185.89
603.62	30380.15
603.78	29881.62
603.94	30265.47
604.09	30263.13
604.25	30277.17
604.40	30312.28
604.56	30305.26
604.71	30733.57
604.87	30803.79
605.03	30672.72
605.18	30103.97
605.34	30323.98
605.49	30218.66
605.65	30410.58
605.80	30288.87
605.96	30448.03
606.12	30256.11
606.27	30504.20
606.43	30473.78
606.58	30256.11
606.74	30436.33
606.89	30260.79
607.05	30291.21
607.20	30534.63
607.36	29907.37
607.51	30195.25
607.67	30155.46
607.82	30150.78
607.98	30026.73
608.13	30300.58
608.29	29851.19
608.44	30136.74
608.60	30670.38
608.75	30536.97
608.91	30487.82
609.06	30433.99
609.22	30221.00
609.37	30183.55
609.53	30099.29
609.68	30033.75
609.84	30473.78
609.99	30485.48
610.15	29912.05
610.30	30473.78
610.46	30174.19
610.61	30469.09
610.76	30237.38
610.92	30277.17
611.07	29972.90
611.23	29912.05
611.38	30349.73
611.54	30249.08
611.69	29713.10
611.84	29865.24
612.00	29926.09
612.15	29860.55
612.31	30616.55
612.46	29771.61
612.62	29916.73
612.77	30185.89
612.92	30080.56
613.08	29827.79
613.23	29895.66
613.39	30000.99
613.54	29692.04
613.69	29722.46
613.85	29626.50
614.00	29975.24
614.15	30106.31
614.31	30106.31
614.46	29670.97
614.62	29905.02
614.77	29724.80
614.92	29839.49
615.08	29668.63
615.23	29448.62
615.38	29979.92
615.54	29301.17
615.69	29439.26
615.84	29584.37
616.00	29993.97
616.15	29376.06
616.30	29802.04
616.46	29647.57
616.61	29743.53
616.76	30333.34
616.92	29343.30
617.07	29584.37
617.22	29242.65
617.37	29170.10
617.53	29408.83
617.68	29717.78
617.83	29668.63
617.99	29432.24
618.14	29401.81
618.29	29394.79
618.45	29383.09
618.60	29385.43
618.75	29029.66
618.90	29638.20
619.06	29338.62
619.21	29446.28
619.36	29575.01
619.51	29134.99
619.67	29118.60
619.82	28996.90
619.97	29230.95
620.12	29443.94
620.28	29226.27
620.43	29186.48
620.58	28842.42
620.73	29450.96
620.89	29500.11
621.04	29200.52
621.19	29481.39
621.34	29048.39
621.49	29039.03
621.65	28917.32
621.80	29205.20
621.95	28765.18
622.10	29167.76
622.25	28872.85
622.41	28858.81
622.56	29249.67
622.71	29036.69
622.86	29029.66
623.01	29022.64
623.16	29106.90
623.32	28912.64
623.47	28767.52
623.62	28797.95
623.77	28968.81
623.92	29064.77
624.07	28671.56
624.23	29134.99
624.38	28559.22
624.53	28755.82
624.68	29120.95
624.83	28804.97
624.98	29134.99
625.13	28741.78
625.29	29268.40
625.44	29024.98
625.59	28535.81
625.74	28655.18
625.89	28531.13
626.04	28168.35
626.19	28599.01
626.34	28489.00
626.49	28411.76
626.65	28215.16
626.80	28512.41
626.95	28746.46
627.10	28123.88
627.25	28304.10
627.40	28266.65
627.55	28601.35
627.70	28580.28
627.85	28121.54
628.00	28444.53
628.15	28554.54
628.30	28474.96
628.45	28170.69
628.60	28245.58
628.76	28254.95
628.91	28374.31
629.06	28044.30
629.21	28217.50
629.36	28112.17
629.51	27999.83
629.66	28048.98
629.81	27981.10
629.96	28187.07
630.11	28196.43
630.26	28044.30
630.41	28360.27
630.56	28065.36
630.71	28568.58
630.86	28194.09
631.01	28208.14
631.16	28018.55
631.31	28290.06
631.46	27953.02
631.61	27711.94
631.76	27950.68
631.91	27941.32
632.06	27929.61
632.21	28149.62
632.36	27793.86
632.51	27817.27
632.66	27831.31
632.81	27889.82
632.96	27704.92
633.10	27948.34
633.25	28041.96
633.40	27697.90
633.55	27812.59
633.70	27360.86
633.85	27417.04
634.00	27749.39
634.15	27793.86
634.30	27803.22
634.45	27283.62
634.60	27768.12
634.75	27903.87
634.90	27763.43
635.05	27756.41
635.19	27875.78
635.34	27850.03
635.49	27594.92
635.64	28030.26
635.79	27545.76
635.94	27505.98
636.09	27761.09
636.24	27300.01
636.39	27140.85
636.53	27461.51
636.68	27051.91
636.83	27562.15
636.98	27398.31
637.13	27077.66
637.28	27854.72
637.43	27433.42
637.57	27002.76
637.72	27260.22
637.87	27267.24
638.02	27063.61
638.17	27278.94
638.32	27395.97
638.46	27082.34
638.61	26904.46
638.76	27049.57
638.91	27080.00
639.06	27218.09
639.20	26995.74
639.35	27133.83
639.50	27372.57
639.65	27473.21
639.80	27426.40
639.94	27070.64
640.09	27147.87
640.24	27091.70
640.39	26780.41
640.54	26581.46
640.68	26738.28
640.83	26845.94
640.98	26916.16
641.13	26745.30
641.27	26771.05
641.42	26747.64
641.57	26796.79
641.72	26909.14
641.86	26785.09
642.01	26649.34
642.16	26724.24
642.31	26728.92
642.45	26801.47
642.60	26279.54
642.75	26490.18
642.90	26499.55
643.04	26349.75
643.19	26916.16
643.34	26661.04
643.48	26623.59
643.63	26401.24
643.78	26520.61
643.93	26761.69
644.07	26576.78
644.22	26724.24
644.37	26775.73
644.51	26361.45
644.66	26321.66
644.81	26085.27
644.95	26478.48
645.10	26171.87
645.25	26096.97
645.39	26108.68
645.54	26338.05
645.69	26235.06
645.83	26361.45
645.98	26710.19
646.13	26625.93
646.27	26532.31
646.42	26555.72
646.57	26312.30
646.71	26394.22
646.86	26738.28
647.00	26354.43
647.15	26181.23
647.30	25675.68
647.44	26022.08
647.59	25989.31
647.74	25773.98
647.88	26073.57
648.03	26057.18
648.17	26082.93
648.32	25986.97
648.47	26132.08
648.61	26038.46
648.76	26043.14
648.90	26263.15
649.05	26045.48
649.20	25834.83
649.34	25584.40
649.49	26022.08
649.63	25968.24
649.78	25827.81
649.92	25713.13
650.07	26022.08
650.21	26057.18
650.36	26043.14
650.51	26024.42
650.65	25956.54
650.80	25895.69
650.94	26171.87
651.09	25612.48
651.23	25668.66
651.38	25766.96
651.52	25649.93
651.67	25479.07
651.81	25893.35
651.96	25511.84
652.10	25839.51
652.25	25944.84
652.39	25151.40
652.54	25734.19
652.68	25488.43
652.83	25483.75
652.97	25921.43
653.12	25933.14
653.26	25441.62
653.41	25542.27
653.55	25153.74
653.70	25483.75
653.84	25422.90
653.99	25420.56
654.13	25462.69
654.27	25280.13
654.42	25652.27
654.56	25348.00
654.71	25460.35
654.85	25439.28
655.00	25385.45
655.14	25137.35
655.29	25408.86
655.43	25532.90
655.57	25240.34
655.72	25373.75
655.86	25219.27
656.01	24933.73
656.15	25207.57
656.30	25221.61
656.44	25369.07
656.58	25057.78
656.73	25025.01
656.87	25333.96
657.01	25589.08
657.16	24952.45
657.30	25256.72
657.45	25055.43
657.59	25214.59
657.73	25170.12
657.88	24781.59
658.02	24788.61
658.16	24823.72
658.31	24931.39
658.45	24807.34
658.60	24694.99
658.74	24879.89
658.88	24833.08
659.03	24704.35
659.17	24898.62
659.31	24922.02
659.46	24477.32
659.60	24737.12
659.74	24851.81
659.89	24753.51
660.03	24652.86
660.17	24741.80
660.32	24687.97
660.46	24631.80
660.60	24137.94
660.74	24376.68
660.89	24233.91
661.03	24219.86
661.17	24671.59
661.32	24409.45
661.46	24680.95
661.60	24332.21
661.74	24339.23
661.89	24458.60
662.03	24247.95
662.17	24332.21
662.31	24269.01
662.46	24304.12
662.60	24259.65
662.74	24159.01
662.88	24006.87
663.03	24135.60
663.17	23733.03
663.31	23810.27
663.45	23831.33
663.60	24030.28
663.74	24002.19
663.88	23660.48
664.02	23721.33
664.17	24102.84
664.31	23697.92
664.45	23679.20
664.59	23651.11
664.73	23578.56
664.88	23690.90
665.02	23267.27
665.16	23494.30
665.30	23470.89
665.44	23108.11
665.59	23211.09
665.73	23131.51
665.87	23108.11
666.01	23161.94
666.15	23482.59
666.29	23136.20
666.44	23220.45
666.58	22686.81
666.72	23089.38
666.86	23480.25
667.00	23920.28
667.14	22993.42
667.28	23140.88
667.43	22904.48
667.57	23147.90
667.71	22991.08
667.85	22796.82
667.99	22897.46
668.13	22389.56
668.27	22611.92
668.41	22583.83
668.56	22747.67
668.70	22820.22
668.84	22553.40
668.98	22689.15
669.12	22871.72
669.26	22771.07
669.40	22665.75
669.54	22656.39
669.68	22759.37
669.82	22530.00
669.96	22455.10
670.10	22513.61
670.25	22469.14
670.39	22284.24
670.53	22457.44
670.67	22171.89
670.81	22118.06
670.95	22129.77
671.09	22417.65
671.23	22267.86
671.37	22422.33
671.51	21958.91
671.65	22080.61
671.79	21930.82
671.93	22085.30
672.07	21898.05
672.21	21853.58
672.35	21872.31
672.49	21895.71
672.63	21720.17
672.77	21479.10
672.91	21406.54
673.05	21593.78
673.19	21308.24
673.33	21860.60
673.47	21326.96
673.61	21640.59
673.75	21310.58
673.89	21666.34
674.03	21429.94
674.17	21474.42
674.31	21163.12
674.45	21181.85
674.59	21074.18
674.73	20975.88
674.87	21245.04
675.01	21046.10
675.15	20912.69
675.29	20959.50
675.43	20673.95
675.56	21029.71
675.70	21050.78
675.84	20540.54
675.98	20638.84
676.12	20737.15
676.26	20917.37
676.40	20868.22
676.54	20587.35
676.68	20500.75
676.82	20297.13
676.96	20339.26
677.10	20095.84
677.23	20004.56
677.37	19995.20
677.51	20177.76
677.65	19826.68
677.79	20002.22
677.93	19833.70
678.07	19496.66
678.21	19566.88
678.34	19847.74
678.48	19445.17
678.62	19765.82
678.76	19489.64
678.90	19632.41
679.04	19744.76
679.18	19576.24
679.31	19171.33
679.45	19061.32
679.59	19227.50
679.73	18899.83
679.87	18923.23
680.00	18787.48
680.14	19178.35
680.28	18817.91
680.42	19054.30
680.56	19119.84
680.70	19110.47
680.83	19005.15
680.97	18609.60
681.11	18979.40
681.25	18611.94
681.39	18675.13
681.52	18382.57
681.66	18415.34
681.80	18448.10
681.94	18403.63
682.07	18551.09
682.21	17853.61
682.35	17980.00
682.49	17968.29
682.62	17724.88
682.76	17935.53
682.90	17972.97
683.04	17937.87
683.17	17598.49
683.31	17778.71
683.45	17855.95
683.59	17722.54
683.72	17834.88
683.86	17572.74
684.00	17891.06
684.13	17944.89
684.27	17502.53
684.41	17202.94
684.55	17252.09
684.68	16917.39
684.82	17041.44
684.96	17060.16
685.09	17001.65
685.23	16996.97
685.37	17001.65
685.50	17322.30
685.64	17212.30
685.78	16908.03
685.91	16901.01
686.05	16793.34
686.19	16739.51
686.32	17069.53
686.46	16788.66
686.60	16519.50
686.73	16582.70
686.87	16301.83
687.01	16346.30
687.14	16556.95
687.28	16290.13
687.42	16060.76
687.55	16283.11
687.69	16266.72
687.82	16100.55
687.96	16308.85
688.10	15817.34
688.23	15765.85
688.37	16109.91
688.50	16011.60
688.64	15798.62
688.78	15744.78
688.91	15510.73
689.05	15515.41
689.18	15503.71
689.32	15166.67
689.46	15405.41
689.59	15367.96
689.73	15253.27
689.86	15197.10
690.00	15499.03
690.13	15447.54
690.27	15328.17
690.41	14995.81
690.54	15005.17
690.68	15159.65
690.81	14984.11
690.95	15080.07
691.08	14958.36
691.22	15007.52
691.35	14661.12
691.49	15030.92
691.62	14705.59
691.76	14656.43
691.89	14295.99
692.03	14398.98
692.16	14104.07
692.30	14001.08
692.43	14377.91
692.57	14033.85
692.70	14293.65
692.84	14010.45
692.97	14010.45
693.11	14134.50
693.24	14246.84
693.38	13980.02
693.51	14005.77
693.65	13661.71
693.78	13928.53
693.92	14001.08
694.05	13731.92
694.19	13706.18
694.32	13682.77
694.45	13422.97
694.59	13205.30
694.72	13563.40
694.86	13172.54
694.99	13111.68
695.13	12973.59
695.26	13034.44
695.39	12894.01
695.53	13369.14
695.66	13114.02
695.80	12945.50
695.93	13022.74
696.07	13099.98
696.20	12800.39
696.33	12964.23
696.47	12821.45
696.60	12816.77
696.73	12879.97
696.87	12690.38
697.00	12428.24
697.14	12578.04
697.27	12318.24
697.40	12252.70
697.54	12203.55
697.67	12217.60
697.80	12273.77
697.94	12063.12
698.07	11875.88
698.21	12081.85
698.34	12039.72
698.47	12131.00
698.61	11854.81
698.74	12063.12
698.87	11957.80
699.01	11791.62
699.14	11660.55
699.27	11838.43
699.40	11534.16
699.54	11840.77
699.67	11658.21
699.80	11503.73
699.94	11239.25
700.07	11297.77
700.20	11375.00
700.34	11077.76
700.47	11318.83
700.60	11400.75
700.73	11117.54
700.87	11232.23
701.00	11096.48
701.13	11084.78
701.26	11077.76
701.40	11162.01
701.53	10920.94
701.66	10920.94
701.79	10822.64
701.93	10649.44
702.06	10806.25
702.19	10487.94
702.32	10359.21
702.46	10649.44
702.59	10448.15
702.72	10637.73
702.85	10520.71
702.99	10408.36
703.12	10303.04
703.25	10420.06
703.38	10307.72
703.51	10139.20
703.65	10120.48
703.78	10223.46
703.91	10193.03
704.04	10305.38
704.17	10164.95
704.31	10036.22
704.44	10052.60
704.57	9816.21
704.70	9839.61
704.83	9823.23
704.96	9673.43
705.10	9521.30
705.23	9563.43
>>>>>End Processed Spectral Data<<<<<
