SpectraSuite Data File
++++++++++++++++++++++++++++++++++++
Date: Fri Oct 18 13:58:19 GMT-05:00 2013
User: bianchi
Dark Spectrum Present: No
Reference Spectrum Present: No
Number of Sampled Component Spectra: 1
Spectrometers: USB2+H05261
Integration Time (usec): 50000 (USB2+H05261)
Spectra Averaged: 1 (USB2+H05261)
Boxcar Smoothing: 0 (USB2+H05261)
Correct for Electrical Dark: No (USB2+H05261)
Strobe/Lamp Enabled: No (USB2+H05261)
Correct for Detector Non-linearity: No (USB2+H05261)
Correct for Stray Light: No (USB2+H05261)
Number of Pixels in Processed Spectrum: 2048
>>>>>Begin Processed Spectral Data<<<<<
365.73	0.00
365.92	0.00
366.12	0.00
366.32	0.00
366.52	0.00
366.72	0.00
366.91	0.00
367.11	0.00
367.31	0.00
367.51	0.00
367.70	0.00
367.90	0.00
368.10	0.00
368.30	0.00
368.49	0.00
368.69	0.00
368.89	0.00
369.09	0.00
369.28	0.00
369.48	0.00
369.68	0.00
369.87	0.00
370.07	0.00
370.27	0.00
370.47	0.00
370.66	60.85
370.86	100.64
371.06	180.22
371.25	154.48
371.45	208.31
371.65	114.69
371.84	102.98
372.04	189.58
372.24	215.33
372.44	170.86
372.63	95.96
372.83	198.95
373.03	156.82
373.22	175.54
373.42	241.08
373.62	203.63
373.81	194.26
374.01	173.20
374.21	203.63
374.40	177.88
374.60	299.59
374.79	257.46
374.99	245.76
375.19	283.20
375.38	241.08
375.58	292.57
375.78	280.86
375.97	278.52
376.17	304.27
376.37	283.20
376.56	294.91
376.76	337.04
376.95	290.23
377.15	252.78
377.35	322.99
377.54	245.76
377.74	269.16
377.93	299.59
378.13	283.20
378.33	313.63
378.52	278.52
378.72	229.37
378.91	313.63
379.11	248.10
379.31	173.20
379.50	252.78
379.70	236.39
379.89	355.76
380.09	276.18
380.28	271.50
380.48	278.52
380.68	278.52
380.87	315.97
381.07	374.49
381.26	376.83
381.46	292.57
381.65	414.27
381.85	301.93
382.04	229.37
382.24	351.08
382.43	365.12
382.63	315.97
382.83	351.08
383.02	362.78
383.22	337.04
383.41	311.29
383.61	276.18
383.80	369.80
384.00	334.70
384.19	360.44
384.39	334.70
384.58	379.17
384.78	355.76
384.97	344.06
385.17	395.55
385.36	353.42
385.56	397.89
385.75	416.62
385.95	390.87
386.14	421.30
386.34	386.19
386.53	411.93
386.72	393.21
386.92	407.25
387.11	376.83
387.31	334.70
387.50	418.96
387.70	498.53
387.89	449.38
388.09	489.17
388.28	461.09
388.48	468.11
388.67	468.11
388.86	564.07
389.06	482.15
389.25	411.93
389.45	454.06
389.64	465.77
389.84	428.32
390.03	479.81
390.22	442.36
390.42	557.05
390.61	461.09
390.81	540.66
391.00	545.34
391.19	498.53
391.39	477.47
391.58	575.77
391.78	482.15
391.97	550.03
392.16	496.19
392.36	517.26
392.55	521.94
392.75	465.77
392.94	528.96
393.13	547.69
393.33	500.87
393.52	615.56
393.71	552.37
393.91	627.26
394.10	524.28
394.29	571.09
394.49	573.43
394.68	620.24
394.88	624.92
395.07	585.13
395.26	624.92
395.46	578.11
395.65	589.82
395.84	631.94
396.04	671.73
396.23	676.41
396.42	559.39
396.62	730.25
396.81	568.75
397.00	594.50
397.19	624.92
397.39	676.41
397.58	720.88
397.77	610.88
397.97	688.12
398.16	744.29
398.35	681.10
398.55	737.27
398.74	718.54
398.93	688.12
399.12	732.59
399.32	702.16
399.51	690.46
399.70	739.61
399.90	681.10
400.09	833.23
400.28	706.84
400.47	704.50
400.67	849.61
400.86	844.93
401.05	802.80
401.24	800.46
401.44	763.01
401.63	718.54
401.82	849.61
402.01	772.38
402.21	819.19
402.40	805.14
402.59	802.80
402.78	788.76
402.97	805.14
403.17	807.48
403.36	805.14
403.55	917.49
403.74	929.19
403.93	936.21
404.13	880.04
404.32	875.36
404.51	908.13
404.70	837.91
404.89	889.40
405.09	966.64
405.28	947.92
405.47	938.55
405.66	985.37
405.85	978.34
406.05	961.96
406.24	1008.77
406.43	964.30
406.62	968.98
406.81	1039.20
407.00	999.41
407.20	929.19
407.39	1022.81
407.58	997.07
407.77	1001.75
407.96	1029.84
408.15	1109.41
408.34	943.24
408.54	1172.61
408.73	1142.18
408.92	1196.01
409.11	1102.39
409.30	1287.29
409.49	1130.48
409.68	1088.35
409.87	1043.88
410.07	1095.37
410.26	1193.67
410.45	1160.91
410.64	1109.41
410.83	1188.99
411.02	1142.18
411.21	1207.72
411.40	1313.04
411.59	1198.35
411.78	1109.41
411.98	1266.23
412.17	1294.32
412.36	1303.68
412.55	1252.19
412.74	1411.34
412.93	1317.72
413.12	1214.74
413.31	1420.71
413.50	1277.93
413.69	1394.96
413.88	1437.09
414.07	1488.58
414.26	1446.45
414.45	1493.26
414.64	1462.83
414.83	1497.94
415.02	1474.54
415.22	1556.46
415.41	1584.54
415.60	1596.25
415.79	1584.54
415.98	1629.01
416.17	1633.69
416.36	1614.97
416.55	1565.82
416.74	1678.16
416.93	1617.31
417.12	1746.04
417.31	1673.48
417.50	1739.02
417.69	1722.63
417.88	1708.59
418.07	1757.74
418.26	1781.15
418.45	1804.55
418.64	1781.15
418.83	1797.53
419.02	1823.28
419.21	1914.56
419.39	1818.60
419.58	1834.98
419.77	1671.14
419.96	1870.09
420.15	1823.28
420.34	1886.47
420.53	1888.81
420.72	1900.52
420.91	1996.48
421.10	1923.92
421.29	1970.73
421.48	1928.60
421.67	1998.82
421.86	1865.41
422.05	1909.88
422.24	1909.88
422.43	1984.77
422.61	1984.77
422.80	2080.74
422.99	2038.61
423.18	1982.43
423.37	2038.61
423.56	2069.03
423.75	1947.33
423.94	1935.62
424.13	1811.57
424.32	1942.64
424.50	2026.90
424.69	2050.31
424.88	2038.61
425.07	2038.61
425.26	1975.41
425.45	1942.64
425.64	2033.93
425.83	2064.35
426.01	2134.57
426.20	2022.22
426.39	2062.01
426.58	2052.65
426.77	2122.87
426.96	2047.97
427.15	2029.24
427.33	2118.18
427.52	2153.29
427.71	2106.48
427.90	2087.76
428.09	2132.23
428.28	2106.48
428.46	2249.25
428.65	2211.81
428.84	2183.72
429.03	2275.00
429.22	2172.02
429.40	2230.53
429.59	2319.47
429.78	2193.08
429.97	2139.25
430.16	2197.76
430.34	2232.87
430.53	2242.23
430.72	2221.17
430.91	2251.60
431.10	2275.00
431.28	2431.82
431.47	2380.32
431.66	2385.01
431.85	2375.64
432.03	2394.37
432.22	2392.03
432.41	2504.37
432.60	2303.09
432.79	2361.60
432.97	2569.91
433.16	2485.65
433.35	2504.37
433.54	2413.09
433.72	2518.42
433.91	2445.86
434.10	2586.29
434.28	2441.18
434.47	2520.76
434.66	2464.58
434.85	2635.44
435.03	2525.44
435.22	2574.59
435.41	2623.74
435.59	2752.47
435.78	2619.06
435.97	2586.29
436.16	2581.61
436.34	2609.70
436.53	2670.55
436.72	2677.57
436.90	2693.96
437.09	2684.59
437.28	2593.31
437.46	2754.81
437.65	2780.56
437.84	2860.13
438.02	2768.85
438.21	2778.22
438.40	2794.60
438.58	2890.56
438.77	2979.50
438.96	2911.63
439.14	3075.46
439.33	2839.07
439.52	2911.63
439.70	2918.65
439.89	3080.14
440.08	2967.80
440.26	3075.46
440.45	2958.44
440.63	3073.12
440.82	3124.62
441.01	3178.45
441.19	3129.30
441.38	3251.00
441.57	3213.56
441.75	3323.56
441.94	3211.22
442.12	3290.79
442.31	3255.69
442.50	3265.05
442.68	3141.00
442.87	3295.47
443.05	3206.53
443.24	3332.92
443.43	3309.52
443.61	3538.89
443.80	3508.46
443.98	3382.07
444.17	3351.65
444.35	3529.53
444.54	3400.80
444.73	3403.14
444.91	3440.59
445.10	3389.10
445.28	3281.43
445.47	3496.76
445.65	3435.91
445.84	3351.65
446.02	3431.23
446.21	3353.99
446.39	3499.10
446.58	3363.35
446.77	3496.76
446.95	3384.41
447.14	3358.67
447.32	3492.08
447.51	3576.34
447.69	3604.42
447.88	3574.00
448.06	3531.87
448.25	3433.57
448.43	3508.46
448.62	3438.25
448.80	3515.48
448.99	3513.14
449.17	3566.98
449.36	3609.11
449.54	3768.26
449.73	3684.00
449.91	3658.26
450.10	3613.79
450.28	3588.04
450.46	3627.83
450.65	3691.02
450.83	3616.13
451.02	3681.66
451.20	3728.47
451.39	3808.05
451.57	3707.41
451.76	3728.47
451.94	3859.54
452.13	3896.99
452.31	3831.46
452.49	3733.15
452.68	3875.93
452.86	3997.64
453.05	3904.01
453.23	3943.80
453.42	3786.99
453.60	3850.18
453.78	3887.63
453.97	3866.56
454.15	3777.62
454.34	3885.29
454.52	4016.36
454.70	3922.74
454.89	4173.18
455.07	4023.38
455.26	4056.15
455.44	4119.34
455.62	3925.08
455.81	3983.59
455.99	4194.24
456.17	4065.51
456.36	4222.33
456.54	4119.34
456.73	4201.26
456.91	4362.76
457.09	4283.18
457.28	4376.80
457.46	4219.99
457.64	4315.95
457.83	4341.69
458.01	4365.10
458.19	4416.59
458.38	4212.96
458.56	4470.42
458.74	4381.48
458.93	4440.00
459.11	4397.87
459.29	4299.56
459.48	4496.17
459.66	4517.23
459.84	4477.44
460.03	4531.28
460.21	4395.53
460.39	4559.36
460.57	4458.72
460.76	4444.68
460.94	4699.80
461.12	4554.68
461.31	4568.73
461.49	4545.32
461.67	4559.36
461.85	4498.51
462.04	4580.43
462.22	4898.74
462.40	4657.67
462.59	4660.01
462.77	4774.69
462.95	4767.67
463.13	4702.14
463.32	4765.33
463.50	4844.91
463.68	4800.44
463.86	4746.61
464.05	4781.71
464.23	4901.08
464.41	4826.18
464.59	4660.01
464.78	5013.43
464.96	4938.53
465.14	4950.23
465.32	5163.22
465.50	4858.95
465.69	5020.45
465.87	4926.83
466.05	4910.44
466.23	5064.92
466.41	4997.04
466.60	5022.79
466.78	5050.88
466.96	4929.17
467.14	5053.22
467.32	5076.62
467.51	5310.68
467.69	5078.96
467.87	5153.86
468.05	5081.30
468.23	5078.96
468.41	5074.28
468.60	5151.52
468.78	5320.04
468.96	5432.38
469.14	5249.82
469.32	5294.29
469.50	5142.16
469.69	5289.61
469.87	5313.02
470.05	5621.97
470.23	5448.77
470.41	5334.08
470.59	5448.77
470.77	5432.38
470.95	5448.77
471.14	5530.69
471.32	5514.30
471.50	5488.56
471.68	5502.60
471.86	5596.22
472.04	5680.48
472.22	5636.01
472.40	5757.72
472.58	5720.27
472.77	5717.93
472.95	5863.04
473.13	5996.45
473.31	5841.98
473.49	5795.17
473.67	5951.98
473.85	5853.68
474.03	5898.15
474.21	5832.62
474.39	6106.46
474.57	6012.84
474.75	6094.76
474.93	6146.25
475.12	6153.27
475.30	6183.70
475.48	6153.27
475.66	6125.18
475.84	6267.95
476.02	6282.00
476.20	6183.70
476.38	6494.99
476.56	6516.05
476.74	6492.65
476.92	6649.46
477.10	6586.27
477.28	6715.00
477.46	6693.93
477.64	6600.31
477.82	6623.72
478.00	6937.35
478.18	6911.60
478.36	6839.05
478.54	7222.89
478.72	7021.61
478.90	7293.11
479.08	7054.37
479.26	7183.10
479.44	7269.70
479.62	7267.36
479.80	7349.28
479.98	7466.31
480.16	7501.42
480.34	7513.12
480.52	7644.19
480.70	7801.01
480.88	7644.19
481.06	7817.39
481.24	7742.49
481.41	7852.50
481.59	7735.47
481.77	8212.94
481.95	7957.82
482.13	8021.02
482.31	8079.53
482.49	8194.22
482.67	8383.80
482.85	8418.91
483.03	8477.42
483.21	8486.78
483.39	8580.40
483.57	8650.62
483.74	8737.22
483.92	8725.52
484.10	8659.98
484.28	8805.10
484.46	8877.65
484.64	9179.58
484.82	9114.05
485.00	9184.26
485.18	9231.07
485.35	9596.20
485.53	9277.88
485.71	9415.98
485.89	9659.39
486.07	9460.45
486.25	9582.15
486.43	9659.39
486.61	9753.01
486.78	9872.38
486.96	9926.21
487.14	10071.33
487.32	10345.17
487.50	10033.88
487.68	10176.65
487.85	10635.39
488.03	10162.61
488.21	10670.50
488.39	10324.10
488.57	10743.06
488.75	10471.56
488.92	10719.65
489.10	10970.09
489.28	10820.30
489.46	11030.94
489.64	11255.64
489.81	11288.40
489.99	11316.49
490.17	11236.91
490.35	11482.67
490.53	11318.83
490.70	11639.48
490.88	11782.26
491.06	11840.77
491.24	11616.08
491.41	11597.35
491.59	12030.35
491.77	11866.52
491.95	12154.40
492.13	12126.32
492.30	12070.14
492.48	12280.79
492.66	12498.46
492.84	12383.77
493.01	12524.21
493.19	12568.68
493.37	12606.13
493.54	12730.17
493.72	12882.31
493.90	13006.36
494.08	12980.61
494.25	13092.96
494.43	13249.77
494.61	13362.12
494.79	13240.41
494.96	13205.30
495.14	13383.18
495.32	13406.59
495.49	13586.81
495.67	13376.16
495.85	13961.30
496.02	13848.95
496.20	14003.43
496.38	13947.25
496.55	14038.53
496.73	13975.34
496.91	14340.46
497.09	13958.96
497.26	14260.88
497.44	14328.76
497.62	14544.09
497.79	14710.27
497.97	14574.52
498.14	14640.05
498.32	14757.08
498.50	14684.52
498.67	15040.28
498.85	14923.26
499.03	15199.44
499.20	15309.44
499.38	14927.94
499.56	15295.40
499.73	14953.68
499.91	15169.01
500.08	15503.71
500.26	15321.15
500.44	15365.62
500.61	15393.70
500.79	15618.39
500.97	15885.22
501.14	15800.96
501.32	15405.41
501.49	15613.71
501.67	15833.72
501.84	15695.63
502.02	16013.95
502.20	15917.98
502.37	16102.89
502.55	16187.14
502.72	16315.87
502.90	16386.09
503.07	16308.85
503.25	16273.74
503.43	16374.39
503.60	16552.27
503.78	16526.52
503.95	16472.69
504.13	16479.71
504.30	16596.74
504.48	16575.67
504.65	16978.25
504.83	16774.62
505.01	17078.89
505.18	16870.58
505.36	17167.83
505.53	17123.36
505.71	16957.18
505.88	17165.49
506.06	16849.52
506.23	17151.45
506.41	17179.53
506.58	17657.00
506.76	17502.53
506.93	17565.72
507.11	17301.24
507.28	17446.35
507.46	17245.07
507.63	17561.04
507.81	17832.54
507.98	17664.02
508.16	17671.04
508.33	17879.35
508.50	17916.80
508.68	17881.69
508.85	18183.62
509.03	17898.08
509.20	17951.91
509.38	18415.34
509.55	18349.80
509.73	18265.54
509.90	18258.52
510.08	18541.72
510.25	18504.28
510.42	18642.37
510.60	18490.23
510.77	18827.27
510.95	18658.75
511.12	18640.03
511.30	18731.31
511.47	18649.39
511.64	18684.50
511.82	18963.02
511.99	18792.16
512.17	19283.67
512.34	18904.51
512.51	18963.02
512.69	19257.93
512.86	19246.23
513.04	19541.13
513.21	19711.99
513.38	19456.87
513.56	19459.21
513.73	19569.22
513.90	19522.41
514.08	19419.42
514.25	19494.32
514.43	19784.55
514.60	19814.98
514.77	20030.30
514.95	19639.44
515.12	19667.52
515.29	19962.43
515.47	19880.51
515.64	19939.02
515.81	20173.08
515.99	20175.42
516.16	20339.26
516.33	20463.30
516.51	20318.19
516.68	20133.29
516.85	20166.06
517.03	20470.33
517.20	20404.79
517.37	20465.64
517.54	20819.07
517.72	20699.70
517.89	20510.11
518.06	20676.29
518.24	20418.83
518.41	20507.77
518.58	20645.87
518.75	20816.72
518.93	20868.22
519.10	21076.52
519.27	21057.80
519.45	20704.38
519.62	21064.82
519.79	21076.52
519.96	20959.50
520.14	21242.70
520.31	21195.89
520.48	21750.60
520.65	21060.14
520.83	21448.67
521.00	21514.20
521.17	21523.57
521.34	21561.02
521.52	21544.63
521.69	21572.72
521.86	21432.29
522.03	21675.70
522.20	21832.52
522.38	21612.51
522.55	21783.37
522.72	21841.88
522.89	22001.04
523.07	22242.11
523.24	22244.45
523.41	22473.82
523.58	21816.13
523.75	22162.53
523.92	21766.98
524.10	22089.98
524.27	22548.72
524.44	22455.10
524.61	22443.40
524.78	22361.48
524.96	21954.22
525.13	22527.66
525.30	22368.50
525.47	22476.16
525.64	22541.70
525.81	22789.80
525.98	22864.69
526.16	22721.92
526.33	23007.47
526.50	22860.01
526.67	22628.30
526.84	22611.92
527.01	22796.82
527.18	23208.75
527.36	22904.48
527.53	23398.34
527.70	23213.43
527.87	23248.54
528.04	23068.32
528.21	23094.07
528.38	23187.69
528.55	23005.13
528.72	23318.76
528.89	23393.65
529.07	23386.63
529.24	23344.50
529.41	23524.72
529.58	23454.51
529.75	23611.32
529.92	23580.90
530.09	23538.77
530.26	23662.82
530.43	23917.93
530.60	23456.85
530.77	23857.08
530.94	23796.23
531.11	23648.77
531.28	23452.17
531.46	23515.36
531.63	23843.04
531.80	24297.10
531.97	24025.60
532.14	24266.67
532.31	23747.08
532.48	23861.76
532.65	24470.30
532.82	23985.81
532.99	24084.11
533.16	24189.44
533.33	24442.21
533.50	24304.12
533.67	24456.26
533.84	24388.38
534.01	24453.92
534.18	24170.71
534.35	24472.64
534.52	24325.19
534.69	24540.52
534.86	24666.91
535.03	24592.01
535.20	24526.47
535.37	24306.46
535.54	24830.74
535.71	24676.27
535.88	24540.52
536.05	24666.91
536.22	24547.54
536.38	25036.71
536.55	24786.27
536.72	24769.89
536.89	24767.55
537.06	24673.93
537.23	24915.00
537.40	25097.56
537.57	25109.27
537.74	25317.57
537.91	25413.54
538.08	25069.48
538.25	25322.26
538.42	25083.52
538.59	25069.48
538.75	25046.07
538.92	25256.72
539.09	25509.50
539.26	25317.57
539.43	25582.06
539.60	25097.56
539.77	25289.49
539.94	25682.70
540.11	25436.94
540.28	25500.14
540.44	26052.50
540.61	25359.70
540.78	25479.07
540.95	25752.91
541.12	25905.05
541.29	25717.81
541.46	25656.95
541.62	25635.89
541.79	25570.35
541.96	25420.56
542.13	25724.83
542.30	26108.68
542.47	25975.27
542.63	26038.46
542.80	25975.27
542.97	25891.01
543.14	26396.56
543.31	26511.25
543.48	26073.57
543.64	26527.63
543.81	26434.01
543.98	26466.78
544.15	26644.66
544.32	26651.68
544.48	26780.41
544.65	26359.11
544.82	26632.96
544.99	26724.24
545.16	26728.92
545.32	26279.54
545.49	26930.20
545.66	26733.60
545.83	26958.29
546.00	26904.46
546.16	26787.43
546.33	26675.09
546.50	26555.72
546.67	27246.18
546.83	26717.22
547.00	26775.73
547.17	27117.45
547.34	27058.93
547.50	26988.72
547.67	27302.35
547.84	26883.39
548.00	26916.16
548.17	27239.15
548.34	27105.74
548.51	27154.90
548.67	26981.70
548.84	27185.32
549.01	27150.21
549.18	26998.08
549.34	27285.97
549.51	27208.73
549.68	27108.08
549.84	26981.70
550.01	27725.99
550.18	27236.81
550.34	27316.39
550.51	27742.37
550.68	27896.85
550.84	27328.10
551.01	27765.78
551.18	27370.22
551.34	27498.95
551.51	27744.71
551.68	27419.38
551.84	27323.41
552.01	27850.03
552.18	27667.47
552.34	27782.16
552.51	27824.29
552.68	27646.41
552.84	27674.49
553.01	28109.83
553.18	27508.32
553.34	27859.40
553.51	27992.81
553.67	27962.38
553.84	28184.73
554.01	27924.93
554.17	28011.53
554.34	27941.32
554.51	27791.52
554.67	28158.99
554.84	28414.10
555.00	27833.65
555.17	28056.00
555.33	28013.87
555.50	28130.90
555.67	28048.98
555.83	28261.97
556.00	27997.49
556.16	28535.81
556.33	28292.40
556.50	28212.82
556.66	28418.78
556.83	28212.82
556.99	28362.61
557.16	28587.30
557.32	28498.36
557.49	28687.95
557.65	28353.25
557.82	28006.85
557.98	28561.56
558.15	28357.93
558.32	28603.69
558.48	28503.04
558.65	28416.44
558.81	28744.12
558.98	28540.49
559.14	28421.13
559.31	28315.80
559.47	28645.82
559.64	28723.05
559.80	28835.40
559.97	28819.02
560.13	28800.29
560.30	28821.36
560.46	28985.19
560.63	28861.15
560.79	28713.69
560.96	28971.15
561.12	28580.28
561.29	28772.21
561.45	28760.50
561.61	28582.62
561.78	28765.18
561.94	28790.93
562.11	28872.85
562.27	28980.51
562.44	28624.75
562.60	29123.29
562.77	28734.76
562.93	28774.55
563.10	29041.37
563.26	28783.91
563.42	29170.10
563.59	29113.92
563.75	29088.18
563.92	29137.33
564.08	28919.66
564.24	29198.18
564.41	28690.29
564.57	28641.14
564.74	28774.55
564.90	29160.73
565.07	29172.44
565.23	29097.54
565.39	29413.51
565.56	29149.03
565.72	29074.13
565.88	29270.74
566.05	29205.20
566.21	28929.02
566.38	29125.63
566.54	29240.31
566.70	29303.51
566.87	29216.91
567.03	29041.37
567.19	29656.93
567.36	29685.01
567.52	28893.91
567.68	29331.59
567.85	29078.82
568.01	29298.83
568.17	29312.87
568.34	29560.97
568.50	29226.27
568.66	29294.14
568.83	29720.12
568.99	29158.39
569.15	29376.06
569.32	29364.36
569.48	29235.63
569.64	29556.28
569.81	29495.43
569.97	29252.02
570.13	29266.06
570.30	29336.27
570.46	29542.24
570.62	29701.40
570.78	29207.55
570.95	29383.09
571.11	29455.64
571.27	29109.24
571.43	29472.03
571.60	29343.30
571.76	29429.90
571.92	29631.18
572.09	29628.84
572.25	29628.84
572.41	29757.57
572.57	29586.71
572.74	29696.72
572.90	29535.22
573.06	29516.50
573.22	29376.06
573.38	29343.30
573.55	29521.18
573.71	29539.90
573.87	29654.59
574.03	29631.18
574.20	29294.14
574.36	29553.94
574.52	29841.83
574.68	29783.32
574.84	29799.70
575.01	29640.54
575.17	29537.56
575.33	30099.29
575.49	29823.11
575.65	29455.64
575.82	29837.15
575.98	29542.24
576.14	29926.09
576.30	29434.58
576.46	29797.36
576.62	29703.74
576.79	29465.00
576.95	29851.19
577.11	29755.23
577.27	29970.56
577.43	29923.75
577.59	29530.54
577.75	29771.61
577.92	29340.96
578.08	29804.38
578.24	29663.95
578.40	29790.34
578.56	29764.59
578.72	29757.57
578.88	30298.23
579.04	30213.98
579.21	29530.54
579.37	29965.88
579.53	30075.88
579.69	29937.79
579.85	29809.06
580.01	29701.40
580.17	29668.63
580.33	29785.66
580.49	29731.83
580.65	30033.75
580.82	29851.19
580.98	29682.67
581.14	29823.11
581.30	30061.84
581.46	29577.35
581.62	29867.58
581.78	29738.85
581.94	29652.25
582.10	29635.86
582.26	29701.40
582.42	30206.95
582.58	30038.44
582.74	30167.16
582.90	29867.58
583.06	30146.10
583.22	29923.75
583.38	30008.01
583.54	29656.93
583.70	30057.16
583.86	30022.05
584.02	29722.46
584.18	30258.45
584.34	30012.69
584.50	29820.77
584.66	30265.47
584.82	29748.21
584.98	30106.31
585.14	30162.48
585.30	29584.37
585.46	29708.42
585.62	29785.66
585.78	29582.03
585.94	29570.33
586.10	29692.04
586.26	30064.18
586.42	30302.92
586.58	30122.69
586.74	29766.93
586.90	29898.00
587.06	29872.26
587.22	30054.82
587.38	29752.89
587.54	30347.39
587.70	30501.86
587.86	30522.93
588.02	30122.69
588.18	30326.32
588.34	29788.00
588.49	30075.88
588.65	29717.78
588.81	29923.75
588.97	30031.41
589.13	30216.32
589.29	30036.09
589.45	30288.87
589.61	30284.19
589.77	30661.02
589.93	30518.25
590.08	30141.42
590.24	30115.67
590.40	30356.75
590.56	30256.11
590.72	29883.96
590.88	29780.98
591.04	30286.53
591.20	30600.16
591.35	30164.82
591.51	30136.74
591.67	30562.72
591.83	30646.97
591.99	30309.94
592.15	30691.44
592.31	30457.39
592.46	30192.91
592.62	30602.50
592.78	30103.97
592.94	30230.36
593.10	30494.84
593.26	30448.03
593.41	30305.26
593.57	30253.76
593.73	30511.22
593.89	30562.72
594.05	30602.50
594.20	30525.27
594.36	30312.28
594.52	30492.50
594.68	30167.16
594.84	30333.34
594.99	30232.70
595.15	30396.54
595.31	30719.53
595.47	30689.10
595.62	30408.24
595.78	30602.50
595.94	30228.02
596.10	30167.16
596.25	30298.23
596.41	30293.55
596.57	30340.36
596.73	30602.50
596.88	29862.90
597.04	30464.41
597.20	30724.21
597.36	30794.43
597.51	30625.91
597.67	30588.46
597.83	30305.26
597.99	30852.94
598.14	30284.19
598.30	30185.89
598.46	30307.60
598.61	30464.41
598.77	30565.06
598.93	30721.87
599.09	30426.96
599.24	30815.49
599.40	30696.13
599.56	30735.92
599.71	30649.32
599.87	30352.07
600.03	30478.46
600.18	30251.42
600.34	30136.74
600.50	30375.47
600.65	30775.70
600.81	30562.72
600.97	30904.43
601.12	30806.13
601.28	30679.74
601.44	30803.79
601.59	30885.71
601.75	30448.03
601.91	30546.33
602.06	30637.61
602.22	30721.87
602.37	30443.35
602.53	30110.99
602.69	30499.52
602.84	30611.87
603.00	30714.85
603.16	30551.01
603.31	30452.71
603.47	30569.74
603.62	30417.60
603.78	30368.45
603.94	30469.09
604.09	30284.19
604.25	30377.81
604.40	30520.59
604.56	30539.31
604.71	30909.11
604.87	30768.68
605.03	30588.46
605.18	30401.22
605.34	30604.84
605.49	30225.68
605.65	30541.65
605.80	30206.95
605.96	30604.84
606.12	30513.56
606.27	30635.27
606.43	29935.45
606.58	30534.63
606.74	30206.95
606.89	30625.91
607.05	30642.29
607.20	30323.98
607.36	30721.87
607.51	30429.30
607.67	30448.03
607.82	30429.30
607.98	30286.53
608.13	30331.00
608.29	29823.11
608.44	30560.37
608.60	30319.30
608.75	30373.13
608.91	30450.37
609.06	30349.73
609.22	30338.02
609.37	29984.60
609.53	30256.11
609.68	29989.28
609.84	29954.18
609.99	30249.08
610.15	29832.47
610.30	30141.42
610.46	30033.75
610.61	30291.21
610.76	30316.96
610.92	30019.71
611.07	30122.69
611.23	30204.61
611.38	29961.20
611.54	30103.97
611.69	29989.28
611.84	29525.86
612.00	30026.73
612.15	29750.55
612.31	30319.30
612.46	30103.97
612.62	30239.72
612.77	30398.88
612.92	30286.53
613.08	30251.42
613.23	30258.45
613.39	29736.51
613.54	30216.32
613.69	29820.77
613.85	30061.84
614.00	30045.46
614.15	30099.29
614.31	29809.06
614.46	29785.66
614.62	29797.36
614.77	30183.55
614.92	30265.47
615.08	29748.21
615.23	29788.00
615.38	29804.38
615.54	29465.00
615.69	29408.83
615.84	29619.48
616.00	29413.51
616.15	29865.24
616.30	29907.37
616.46	30061.84
616.61	29919.07
616.76	29827.79
616.92	29731.83
617.07	29682.67
617.22	29350.32
617.37	29219.25
617.53	29958.86
617.68	29734.17
617.83	29481.39
617.99	29378.40
618.14	29532.88
618.29	29528.20
618.45	29413.51
618.60	29633.52
618.75	29223.93
618.90	29130.31
619.06	29675.65
619.21	29408.83
619.36	29493.09
619.51	29301.17
619.67	29205.20
619.82	29039.03
619.97	29600.76
620.12	29186.48
620.28	29123.29
620.43	29436.92
620.58	29530.54
620.73	29296.49
620.89	29481.39
621.04	29446.28
621.19	29097.54
621.34	29387.77
621.49	28936.04
621.65	29179.46
621.80	29352.66
621.95	29106.90
622.10	29263.72
622.25	29252.02
622.41	29132.65
622.56	29050.73
622.71	29081.16
622.86	28996.90
623.01	28793.27
623.16	28779.23
623.32	29198.18
623.47	29198.18
623.62	28842.42
623.77	29284.78
623.92	29074.13
624.07	28959.45
624.23	28732.42
624.38	28877.53
624.53	28809.65
624.68	29415.85
624.83	29017.96
624.98	29017.96
625.13	29003.92
625.29	29289.46
625.44	28847.10
625.59	28620.07
625.74	28680.92
625.89	28624.75
626.04	28554.54
626.19	28744.12
626.34	28568.58
626.49	28379.00
626.65	28486.66
626.80	28863.49
626.95	28811.99
627.10	28425.81
627.25	28861.15
627.40	28491.34
627.55	28339.21
627.70	28671.56
627.85	28290.06
628.00	28177.71
628.15	28091.11
628.30	28313.46
628.45	28416.44
628.60	28355.59
628.76	28407.08
628.91	28556.88
629.06	28402.40
629.21	28421.13
629.36	28542.83
629.51	28570.92
629.66	28259.63
629.81	28252.61
629.96	28421.13
630.11	27852.38
630.26	28158.99
630.41	27943.66
630.56	28063.02
630.71	28184.73
630.86	28030.26
631.01	28226.86
631.16	28332.18
631.31	27990.47
631.46	27850.03
631.61	27835.99
631.76	28112.17
631.91	27899.19
632.06	27768.12
632.21	27714.28
632.36	28297.08
632.51	27747.05
632.66	27885.14
632.81	27751.73
632.96	28056.00
633.10	27833.65
633.25	28318.14
633.40	28299.42
633.55	27534.06
633.70	27501.29
633.85	27714.28
634.00	27765.78
634.15	27393.63
634.30	27655.77
634.45	27639.39
634.60	27613.64
634.75	27496.61
634.90	27751.73
635.05	27899.19
635.19	27742.37
635.34	28086.43
635.49	27868.76
635.64	28032.60
635.79	27414.69
635.94	27686.20
636.09	27763.43
636.24	27290.65
636.39	27440.44
636.53	27386.61
636.68	27428.74
636.83	27206.39
636.98	27398.31
637.13	27440.44
637.28	27562.15
637.43	27821.95
637.57	27536.40
637.72	27442.78
637.87	27318.73
638.02	27466.19
638.17	27363.20
638.32	27316.39
638.46	26661.04
638.61	27206.39
638.76	26906.80
638.91	27129.15
639.06	27285.97
639.20	27442.78
639.35	27035.53
639.50	27016.80
639.65	27405.33
639.80	27758.75
639.94	27098.72
640.09	27112.77
640.24	27232.13
640.39	26862.33
640.54	26576.78
640.68	26916.16
640.83	27033.19
640.98	26874.03
641.13	26469.12
641.27	27140.85
641.42	26899.78
641.57	27028.51
641.72	27131.49
641.86	26955.95
642.01	26754.66
642.16	26693.81
642.31	26670.40
642.45	27009.78
642.60	26602.53
642.75	26733.60
642.90	26658.70
643.04	26803.82
643.19	26569.76
643.34	26480.82
643.48	26497.20
643.63	26728.92
643.78	26916.16
643.93	26871.69
644.07	26647.00
644.22	26871.69
644.37	26593.17
644.51	26426.99
644.66	26487.84
644.81	26429.33
644.95	26581.46
645.10	26586.15
645.25	26328.69
645.39	26600.19
645.54	26513.59
645.69	26157.83
645.83	26459.76
645.98	26326.35
646.13	26436.35
646.27	26820.20
646.42	26291.24
646.57	26572.10
646.71	26305.28
646.86	26239.75
647.00	26417.63
647.15	26228.04
647.30	26178.89
647.44	26223.36
647.59	26672.74
647.74	26134.42
647.88	26066.55
648.03	26426.99
648.17	26483.16
648.32	26092.29
648.47	26422.31
648.61	26302.94
648.76	26141.44
648.90	26417.63
649.05	26115.70
649.20	26155.49
649.34	26235.06
649.49	25886.32
649.63	26031.44
649.78	25785.68
649.92	26164.85
650.07	26103.99
650.21	25706.10
650.36	25645.25
650.51	26092.29
650.65	26171.87
650.80	25867.60
650.94	25951.86
651.09	25972.92
651.23	25872.28
651.38	25722.49
651.52	25851.22
651.67	25600.78
651.81	25788.02
651.96	25596.10
652.10	25460.35
652.25	25706.10
652.39	25825.47
652.54	25790.36
652.68	25799.73
652.83	25914.41
652.97	25942.50
653.12	25731.85
653.26	25734.19
653.41	25841.85
653.55	25701.42
653.70	25275.45
653.84	25441.62
653.99	25380.77
654.13	25703.76
654.27	25352.68
654.42	25612.48
654.56	25497.80
654.71	25621.84
654.85	25443.96
655.00	25507.16
655.14	25436.94
655.29	25273.10
655.43	25270.76
655.57	25472.05
655.72	25617.16
655.86	25067.14
656.01	25462.69
656.15	25472.05
656.30	25284.81
656.44	25378.43
656.58	25303.53
656.73	25172.46
656.87	25104.59
657.01	25230.98
657.16	25385.45
657.30	25366.73
657.45	25558.65
657.59	25081.18
657.73	25083.52
657.88	25053.09
658.02	25191.19
658.16	25092.88
658.31	24800.32
658.45	24812.02
658.60	24790.95
658.74	24786.27
658.88	24966.49
659.03	24716.06
659.17	24620.10
659.31	24687.97
659.46	24549.88
659.60	24898.62
659.74	24617.75
659.89	24797.98
660.03	24893.94
660.17	24716.06
660.32	24393.06
660.46	24449.24
660.60	24432.85
660.74	24718.40
660.89	24421.15
661.03	24203.48
661.17	24173.05
661.32	24339.23
661.46	24496.05
661.60	24437.53
661.74	24292.42
661.89	24526.47
662.03	24666.91
662.17	24322.85
662.31	24121.56
662.46	24116.88
662.60	24196.46
662.74	23976.45
662.88	23931.98
663.03	23941.34
663.17	24095.82
663.31	23608.98
663.45	23735.37
663.60	23716.65
663.74	23529.41
663.88	23789.20
664.02	23894.53
664.17	23789.20
664.31	23737.71
664.45	23960.06
664.59	23576.22
664.73	23690.90
664.88	23529.41
665.02	23250.88
665.16	23559.83
665.30	23548.13
665.44	23566.85
665.59	23199.39
665.73	23447.49
665.87	23524.72
666.01	23367.91
666.15	23641.75
666.29	23388.97
666.44	23225.14
666.58	23349.18
666.72	23087.04
666.86	23133.86
667.00	23321.10
667.14	23197.05
667.28	23138.54
667.43	22918.53
667.57	23061.30
667.71	22970.02
667.85	22637.66
667.99	22654.05
668.13	22806.18
668.27	23089.38
668.41	22913.84
668.56	22487.87
668.70	23183.01
668.84	22850.65
668.98	22848.31
669.12	23087.04
669.26	22916.19
669.40	22522.98
669.54	22831.93
669.68	22696.17
669.82	22441.06
669.96	22071.25
670.10	22457.44
670.25	22635.32
670.39	22272.54
670.53	22141.47
670.67	22181.26
670.81	22373.18
670.95	22019.76
671.09	22515.95
671.23	22497.23
671.37	22253.81
671.51	22504.25
671.65	22228.07
671.79	21743.58
671.93	22068.91
672.07	22169.55
672.21	22031.46
672.35	21296.53
672.49	21741.24
672.63	21656.98
672.77	21507.18
672.91	21570.38
673.05	22047.85
673.19	21617.19
673.33	21345.69
673.47	21504.84
673.61	21308.24
673.75	21553.99
673.89	21427.60
674.03	21128.02
674.17	21556.33
674.31	21532.93
674.45	21010.99
674.59	21216.96
674.73	21202.91
674.87	21406.54
675.01	21146.74
675.15	20903.32
675.29	20968.86
675.43	20893.96
675.56	20875.24
675.70	20805.02
675.84	21125.68
675.98	20650.55
676.12	20830.77
676.26	20912.69
676.40	20622.46
676.54	20617.78
676.68	20699.70
676.82	20056.05
676.96	20350.96
677.10	20563.95
677.23	20374.36
677.37	20198.82
677.51	20163.72
677.65	20137.97
677.79	19908.60
677.93	19845.40
678.07	19817.32
678.21	19866.47
678.34	19793.91
678.48	19644.12
678.62	19669.86
678.76	19599.65
678.90	19503.68
679.04	19700.29
679.18	19700.29
679.31	19293.04
679.45	19756.46
679.59	19098.77
679.73	19206.44
679.87	19063.66
680.00	18991.11
680.14	19056.64
680.28	18911.53
680.42	18801.52
680.56	19201.76
680.70	18815.57
680.83	18956.00
680.97	18799.18
681.11	18829.61
681.25	18721.95
681.39	18789.82
681.52	18691.52
681.66	18595.56
681.80	18443.42
681.94	18635.35
682.07	18232.77
682.21	18120.43
682.35	18307.67
682.49	18317.03
682.62	18263.20
682.76	17738.92
682.90	18155.54
683.04	18162.56
683.17	17935.53
683.31	17928.50
683.45	17891.06
683.59	17511.89
683.72	17603.17
683.86	17771.69
684.00	17649.98
684.13	17451.03
684.27	17703.81
684.41	17345.71
684.55	17521.25
684.68	17277.83
684.82	17092.93
684.96	17448.69
685.09	17011.01
685.23	17114.00
685.37	16987.61
685.50	17151.45
685.64	17104.64
685.78	17062.51
685.91	17104.64
686.05	17013.35
686.19	16800.37
686.32	16982.93
686.46	16695.04
686.60	16226.93
686.73	16781.64
686.87	16723.13
687.01	16472.69
687.14	16306.51
687.28	16093.52
687.42	16100.55
687.55	16173.10
687.69	16126.29
687.82	16259.70
687.96	16245.66
688.10	16173.10
688.23	15978.84
688.37	16184.80
688.50	15936.71
688.64	16027.99
688.78	15913.30
688.91	15721.38
689.05	15775.21
689.18	15712.02
689.32	15145.61
689.46	15096.46
689.59	15466.26
689.73	15374.98
689.86	15382.00
690.00	15321.15
690.13	15190.08
690.27	15330.51
690.41	15140.93
690.54	15089.43
690.68	15133.90
690.81	15044.96
690.95	15051.99
691.08	14736.01
691.22	14916.23
691.35	14555.79
691.49	14881.13
691.62	14717.29
691.76	14520.68
691.89	14590.90
692.03	14295.99
692.16	14319.40
692.30	14190.67
692.43	14059.60
692.57	14190.67
692.70	14094.71
692.84	14143.86
692.97	13926.19
693.11	14136.84
693.24	14090.02
693.38	14071.30
693.51	14251.52
693.65	14153.22
693.78	14078.32
693.92	13965.98
694.05	13933.21
694.19	13771.71
694.32	13713.20
694.45	13350.42
694.59	13364.46
694.72	13207.64
694.86	13294.24
694.99	13336.37
695.13	13195.94
695.26	13104.66
695.39	13039.12
695.53	13277.86
695.66	13301.26
695.80	13114.02
695.93	13181.90
696.07	13095.30
696.20	13036.78
696.33	12915.08
696.47	12807.41
696.60	12903.37
696.73	12545.27
696.87	12463.35
697.00	12620.17
697.14	12339.30
697.27	12594.42
697.40	12248.02
697.54	12379.09
697.67	12294.83
697.80	12383.77
697.94	11840.77
698.07	12074.82
698.21	12276.11
698.34	12147.38
698.47	11992.90
698.61	12025.67
698.74	11971.84
698.87	11927.37
699.01	11833.75
699.14	11894.60
699.27	11829.07
699.40	11698.00
699.54	11709.70
699.67	11625.44
699.80	11510.75
699.94	11482.67
700.07	11365.64
700.20	11204.14
700.34	11414.79
700.47	11105.84
700.60	11257.98
700.73	11351.60
700.87	11325.85
701.00	11262.66
701.13	10883.49
701.26	11124.57
701.40	11164.36
701.53	11307.13
701.66	11035.63
701.79	10743.06
701.93	10672.84
702.06	10750.08
702.19	10452.83
702.32	10733.70
702.46	10511.35
702.59	10501.98
702.72	10317.08
702.85	10249.21
702.99	10572.20
703.12	10120.48
703.25	10422.41
703.38	10246.87
703.51	10237.50
703.65	10410.70
703.78	10265.59
703.91	10235.16
704.04	10211.76
704.17	10186.01
704.31	10176.65
704.44	10045.58
704.57	9973.02
704.70	9905.15
704.83	9846.63
704.96	9668.75
705.10	9837.27
705.23	9430.02
>>>>>End Processed Spectral Data<<<<<
