SpectraSuite Data File
++++++++++++++++++++++++++++++++++++
Date: Fri Oct 18 13:58:06 GMT-05:00 2013
User: bianchi
Dark Spectrum Present: No
Reference Spectrum Present: No
Number of Sampled Component Spectra: 1
Spectrometers: USB2+H05261
Integration Time (usec): 50000 (USB2+H05261)
Spectra Averaged: 1 (USB2+H05261)
Boxcar Smoothing: 0 (USB2+H05261)
Correct for Electrical Dark: No (USB2+H05261)
Strobe/Lamp Enabled: No (USB2+H05261)
Correct for Detector Non-linearity: No (USB2+H05261)
Correct for Stray Light: No (USB2+H05261)
Number of Pixels in Processed Spectrum: 2048
>>>>>Begin Processed Spectral Data<<<<<
365.73	0.00
365.92	0.00
366.12	0.00
366.32	0.00
366.52	0.00
366.72	0.00
366.91	0.00
367.11	0.00
367.31	0.00
367.51	0.00
367.70	0.00
367.90	0.00
368.10	0.00
368.30	0.00
368.49	0.00
368.69	0.00
368.89	0.00
369.09	0.00
369.28	0.00
369.48	0.00
369.68	0.00
369.87	0.00
370.07	0.00
370.27	0.00
370.47	0.00
370.66	107.66
370.86	201.29
371.06	145.11
371.25	159.16
371.45	170.86
371.65	252.78
371.84	217.67
372.04	177.88
372.24	159.16
372.44	119.37
372.63	210.65
372.83	220.01
373.03	191.92
373.22	161.50
373.42	159.16
373.62	149.79
373.81	124.05
374.01	327.68
374.21	117.03
374.40	259.80
374.60	177.88
374.79	255.12
374.99	222.35
375.19	266.82
375.38	269.16
375.58	189.58
375.78	184.90
375.97	203.63
376.17	252.78
376.37	283.20
376.56	283.20
376.76	304.27
376.95	327.68
377.15	287.89
377.35	322.99
377.54	208.31
377.74	231.71
377.93	217.67
378.13	297.25
378.33	337.04
378.52	301.93
378.72	325.33
378.91	278.52
379.11	299.59
379.31	299.59
379.50	311.29
379.70	365.12
379.89	297.25
380.09	283.20
380.28	334.70
380.48	248.10
380.68	278.52
380.87	330.02
381.07	299.59
381.26	299.59
381.46	341.72
381.65	306.61
381.85	299.59
382.04	231.71
382.24	301.93
382.43	332.36
382.63	339.38
382.83	355.76
383.02	346.40
383.22	383.85
383.41	337.04
383.61	276.18
383.80	355.76
384.00	351.08
384.19	428.32
384.39	397.89
384.58	383.85
384.78	369.80
384.97	400.23
385.17	390.87
385.36	360.44
385.56	393.21
385.75	386.19
385.95	365.12
386.14	496.19
386.34	442.36
386.53	395.55
386.72	386.19
386.92	458.74
387.11	512.58
387.31	510.24
387.50	386.19
387.70	423.64
387.89	400.23
388.09	451.72
388.28	456.40
388.48	505.56
388.67	540.66
388.86	486.83
389.06	505.56
389.25	500.87
389.45	498.53
389.64	437.68
389.84	545.34
390.03	498.53
390.22	543.00
390.42	468.11
390.61	547.69
390.81	505.56
391.00	456.40
391.19	503.22
391.39	543.00
391.58	512.58
391.78	540.66
391.97	543.00
392.16	557.05
392.36	575.77
392.55	589.82
392.75	552.37
392.94	594.50
393.13	582.79
393.33	493.85
393.52	512.58
393.71	578.11
393.91	589.82
394.10	557.05
394.29	557.05
394.49	582.79
394.68	594.50
394.88	641.31
395.07	624.92
395.26	531.30
395.46	615.56
395.65	688.12
395.84	650.67
396.04	645.99
396.23	636.63
396.42	692.80
396.62	713.86
396.81	732.59
397.00	692.80
397.19	674.07
397.39	638.97
397.58	695.14
397.77	683.44
397.97	716.20
398.16	753.65
398.35	779.40
398.55	667.05
398.74	748.97
398.93	807.48
399.12	739.61
399.32	739.61
399.51	727.91
399.70	795.78
399.90	814.51
400.09	786.42
400.28	744.29
400.47	819.19
400.67	868.34
400.86	821.53
401.05	798.12
401.24	777.06
401.44	821.53
401.63	826.21
401.82	805.14
402.01	784.08
402.21	912.81
402.40	851.96
402.59	912.81
402.78	887.06
402.97	795.78
403.17	844.93
403.36	828.55
403.55	936.21
403.74	924.51
403.93	957.28
404.13	957.28
404.32	940.90
404.51	894.08
404.70	912.81
404.89	826.21
405.09	861.32
405.28	957.28
405.47	931.53
405.66	971.32
405.85	1057.92
406.05	1041.54
406.24	1107.07
406.43	926.85
406.62	1020.47
406.81	1043.88
407.00	1149.20
407.20	1027.50
407.39	1046.22
407.58	1074.31
407.77	1137.50
407.96	1013.45
408.15	1123.46
408.34	1111.75
408.54	1097.71
408.73	1104.73
408.92	1158.57
409.11	1184.31
409.30	1165.59
409.49	1163.25
409.68	1100.05
409.87	1132.82
410.07	1207.72
410.26	1200.69
410.45	1151.54
410.64	1238.14
410.83	1212.40
411.02	1245.16
411.21	1270.91
411.40	1317.72
411.59	1320.06
411.78	1224.10
411.98	1282.61
412.17	1320.06
412.36	1315.38
412.55	1352.83
412.74	1373.89
412.93	1397.30
413.12	1369.21
413.31	1493.26
413.50	1392.62
413.69	1474.54
413.88	1486.24
414.07	1462.83
414.26	1380.92
414.45	1444.11
414.64	1504.96
414.83	1397.30
415.02	1516.67
415.22	1652.42
415.41	1572.84
415.60	1610.29
415.79	1577.52
415.98	1638.38
416.17	1572.84
416.36	1605.61
416.55	1633.69
416.74	1666.46
416.93	1633.69
417.12	1633.69
417.31	1607.95
417.50	1743.70
417.69	1813.92
417.88	1806.89
418.07	1767.10
418.26	1776.47
418.45	1624.33
418.64	1879.45
418.83	1874.77
419.02	1902.86
419.21	1870.09
419.39	1825.62
419.58	1961.37
419.77	1858.39
419.96	1916.90
420.15	2064.35
420.34	1900.52
420.53	1902.86
420.72	2050.31
420.91	1898.17
421.10	1886.47
421.29	2024.56
421.48	1912.22
421.67	1937.96
421.86	1947.33
422.05	1998.82
422.24	2001.16
422.43	1968.39
422.61	2012.86
422.80	2143.93
422.99	2094.78
423.18	2038.61
423.37	2064.35
423.56	2029.24
423.75	2024.56
423.94	2090.10
424.13	1926.26
424.32	2026.90
424.50	2132.23
424.69	2001.16
424.88	2174.36
425.07	2045.63
425.26	1998.82
425.45	2019.88
425.64	2069.03
425.83	2078.40
426.01	2136.91
426.20	2134.57
426.39	2076.06
426.58	2083.08
426.77	2129.89
426.96	2118.18
427.15	2069.03
427.33	2045.63
427.52	2202.44
427.71	2134.57
427.90	2148.61
428.09	2174.36
428.28	2176.70
428.46	2146.27
428.65	2204.78
428.84	2417.77
429.03	2258.62
429.22	2181.38
429.40	2275.00
429.59	2340.54
429.78	2242.23
429.97	2282.02
430.16	2160.31
430.34	2291.38
430.53	2293.72
430.72	2392.03
430.91	2258.62
431.10	2310.11
431.28	2401.39
431.47	2385.01
431.66	2509.05
431.85	2326.49
432.03	2452.88
432.22	2558.21
432.41	2445.86
432.60	2530.12
432.79	2361.60
432.97	2562.89
433.16	2612.04
433.35	2553.52
433.54	2605.02
433.72	2583.95
433.91	2576.93
434.10	2476.29
434.28	2555.86
434.47	2600.34
434.66	2736.09
434.85	2644.81
435.03	2672.89
435.22	2717.36
435.41	2733.75
435.59	2583.95
435.78	2644.81
435.97	2803.96
436.16	2733.75
436.34	2766.51
436.53	2864.82
436.72	2803.96
436.90	2708.00
437.09	2818.00
437.28	2689.28
437.46	2715.02
437.65	2820.35
437.84	2995.89
438.02	2885.88
438.21	2792.26
438.40	2700.98
438.58	2881.20
438.77	2958.44
438.96	2855.45
439.14	3084.83
439.33	3129.30
439.52	3061.42
439.70	3009.93
439.89	3028.65
440.08	3080.14
440.26	3253.34
440.45	3136.32
440.63	3143.34
440.82	3234.62
441.01	3197.17
441.19	3201.85
441.38	3229.94
441.57	3321.22
441.75	3220.58
441.94	3323.56
442.12	3323.56
442.31	3353.99
442.50	3407.82
442.68	3412.50
442.87	3473.36
443.05	3501.44
443.24	3433.57
443.43	3494.42
443.61	3548.25
443.80	3595.06
443.98	3398.46
444.17	3311.86
444.35	3524.85
444.54	3581.02
444.73	3503.78
444.91	3494.42
445.10	3562.30
445.28	3368.03
445.47	3412.50
445.65	3480.38
445.84	3562.30
446.02	3471.01
446.21	3487.40
446.39	3473.36
446.58	3548.25
446.77	3667.62
446.95	3473.36
447.14	3492.08
447.32	3648.90
447.51	3712.09
447.69	3541.23
447.88	3674.64
448.06	3499.10
448.25	3569.32
448.43	3639.53
448.62	3686.34
448.80	3655.92
448.99	3754.22
449.17	3623.15
449.36	3597.40
449.54	3749.54
449.73	3775.28
449.91	3866.56
450.10	3826.78
450.28	3779.97
450.46	3723.79
450.65	3880.61
450.83	3908.69
451.02	3744.86
451.20	3892.31
451.39	3889.97
451.57	3861.88
451.76	3880.61
451.94	3936.78
452.13	3901.67
452.31	3939.12
452.49	3789.33
452.68	4095.94
452.86	3962.53
453.05	4016.36
453.23	4194.24
453.42	3999.98
453.60	4166.15
453.78	4032.74
453.97	4004.66
454.15	3918.06
454.34	4009.34
454.52	4060.83
454.70	4035.08
454.89	4177.86
455.07	4042.11
455.26	4189.56
455.44	4180.20
455.62	4152.11
455.81	4180.20
455.99	4131.05
456.17	4168.49
456.36	4191.90
456.54	4294.88
456.73	4311.27
456.91	4423.61
457.09	4320.63
457.28	4454.04
457.46	4250.41
457.64	4503.19
457.83	4411.91
458.01	4395.53
458.19	4552.34
458.38	4432.97
458.56	4521.92
458.74	4561.70
458.93	4613.20
459.11	4489.15
459.29	4561.70
459.48	4692.77
459.66	4566.39
459.84	4641.28
460.03	4566.39
460.21	4617.88
460.39	4547.66
460.57	4657.67
460.76	4678.73
460.94	4765.33
461.12	4767.67
461.31	4777.03
461.49	4833.21
461.67	4685.75
461.85	4837.89
462.04	4844.91
462.22	5109.39
462.40	4889.38
462.59	4903.42
462.77	4945.55
462.95	4891.72
463.13	4826.18
463.32	4847.25
463.50	4985.34
463.68	4933.85
463.86	4887.04
464.05	4910.44
464.23	4990.02
464.41	5083.64
464.59	4833.21
464.78	5118.75
464.96	5085.98
465.14	4983.00
465.32	5146.84
465.50	5153.86
465.69	5006.41
465.87	5081.30
466.05	5032.15
466.23	5032.15
466.41	5109.39
466.60	5287.27
466.78	5036.83
466.96	5177.26
467.14	5121.09
467.32	5083.64
467.51	5238.12
467.69	5172.58
467.87	5235.78
468.05	5359.83
468.23	5135.14
468.41	5198.33
468.60	5193.65
468.78	5383.23
468.96	5294.29
469.14	5411.32
469.32	5275.57
469.50	5280.25
469.69	5579.84
469.87	5533.03
470.05	5593.88
470.23	5596.22
470.41	5369.19
470.59	5671.12
470.77	5483.88
470.95	5626.65
471.14	5760.06
471.32	5556.43
471.50	5827.93
471.68	5811.55
471.86	5809.21
472.04	5832.62
472.22	5841.98
472.40	5764.74
472.58	5870.06
472.77	5783.46
472.95	5867.72
473.13	6237.53
473.31	5905.17
473.49	5970.71
473.67	5975.39
473.85	5968.37
474.03	6244.55
474.21	6230.51
474.39	6216.46
474.57	6314.77
474.75	6169.65
474.93	6370.94
475.12	6150.93
475.30	6298.38
475.48	6368.60
475.66	6560.52
475.84	6466.90
476.02	6455.20
476.20	6452.86
476.38	6724.36
476.56	6752.45
476.74	6628.40
476.92	6792.23
477.10	6654.14
477.28	6974.80
477.46	6733.72
477.64	6916.28
477.82	7089.48
478.00	7052.03
478.18	7145.66
478.36	6981.82
478.54	7138.63
478.72	7211.19
478.90	7328.22
479.08	7353.96
479.26	7173.74
479.44	7531.84
479.62	7478.01
479.80	7543.55
479.98	7506.10
480.16	7667.60
480.34	7721.43
480.52	7751.85
480.70	7791.64
480.88	7702.70
481.06	8056.12
481.24	7880.58
481.41	7964.84
481.59	8112.30
481.77	8107.62
481.95	8212.94
482.13	8418.91
482.31	8135.70
482.49	8432.95
482.67	8578.06
482.85	8667.00
483.03	8882.33
483.21	8699.77
483.39	8821.48
483.57	8912.76
483.74	8847.22
483.92	8931.48
484.10	8915.10
484.28	9088.30
484.46	9322.35
484.64	9392.57
484.82	9320.01
485.00	9174.90
485.18	9387.89
485.35	9584.49
485.53	9781.10
485.71	9839.61
485.89	9806.84
486.07	9621.94
486.25	9767.06
486.43	10097.07
486.61	10001.11
486.78	10038.56
486.96	10455.17
487.14	10427.09
487.32	10490.28
487.50	10527.73
487.68	10534.75
487.85	10569.86
488.03	10949.03
488.21	10892.85
488.39	10736.04
488.57	10970.09
488.75	10986.47
488.92	11176.06
489.10	11337.56
489.28	11288.40
489.46	11449.90
489.64	11192.44
489.81	11569.27
489.99	11459.26
490.17	11651.19
490.35	11829.07
490.53	11875.88
490.70	11819.71
490.88	12030.35
491.06	12140.36
491.24	11929.71
491.41	12341.64
491.59	12058.44
491.77	12358.03
491.95	12360.37
492.13	12416.54
492.30	12643.57
492.48	12615.49
492.66	12739.54
492.84	12528.89
493.01	12985.29
493.19	13036.78
493.37	12868.27
493.54	13057.85
493.72	13298.92
493.90	13174.88
494.08	13146.79
494.25	13635.96
494.43	13467.44
494.61	13280.20
494.79	13624.26
494.96	13706.18
495.14	13767.03
495.32	13806.82
495.49	13916.83
495.67	14108.75
495.85	14148.54
496.02	14153.22
496.20	14167.26
496.38	14216.41
496.55	14265.57
496.73	14623.67
496.91	14525.36
497.09	14707.93
497.26	14684.52
497.44	14705.59
497.62	14661.12
497.79	15026.24
497.97	14829.63
498.14	15028.58
498.32	15260.29
498.50	15321.15
498.67	15073.05
498.85	15260.29
499.03	15318.81
499.20	15386.68
499.38	15531.80
499.56	15857.13
499.73	15896.92
499.91	15822.02
500.08	15833.72
500.26	15882.88
500.44	15889.90
500.61	15955.43
500.79	15772.87
500.97	16072.46
501.14	16243.32
501.32	16451.63
501.49	16283.11
501.67	16236.30
501.84	16325.24
502.02	16343.96
502.20	16655.25
502.37	16540.57
502.55	16563.97
502.72	16758.24
502.90	16507.80
503.07	16730.15
503.25	16760.58
503.43	16702.06
503.60	16898.67
503.78	17156.13
503.95	17121.02
504.13	16744.19
504.30	17022.72
504.48	17034.42
504.65	17235.70
504.83	17378.48
505.01	17685.09
505.18	17350.39
505.36	17738.92
505.53	17490.82
505.71	17488.48
505.88	17266.13
506.06	17355.07
506.23	17783.39
506.41	17825.52
506.58	17809.14
506.76	17734.24
506.93	17937.87
507.11	17771.69
507.28	17598.49
507.46	17631.26
507.63	18061.91
507.81	18267.88
507.98	18054.89
508.16	18134.47
508.33	18317.03
508.50	18455.12
508.68	18462.15
508.85	18527.68
509.03	18335.76
509.20	18663.43
509.38	18616.62
509.55	18909.19
509.73	18789.82
509.90	18838.97
510.08	18789.82
510.25	18958.34
510.42	18956.00
510.60	19131.54
510.77	19286.01
510.95	19300.06
511.12	19257.93
511.30	19077.71
511.47	19447.51
511.64	19246.23
511.82	19562.20
511.99	19562.20
512.17	19585.60
512.34	19470.92
512.51	19953.07
512.69	20044.35
512.86	19894.55
513.04	20058.39
513.21	19833.70
513.38	19950.73
513.56	19983.49
513.73	19822.00
513.90	20060.73
514.08	19875.83
514.25	20182.44
514.43	20217.55
514.60	20711.40
514.77	20556.93
514.95	20182.44
515.12	20182.44
515.29	20329.89
515.47	20278.40
515.64	20978.22
515.81	20734.81
515.99	20652.89
516.16	20730.12
516.33	20807.36
516.51	20954.82
516.68	20451.60
516.85	20816.72
517.03	20980.56
517.20	21158.44
517.37	20807.36
517.54	21308.24
517.72	21268.45
517.89	21113.97
518.06	20961.84
518.24	21439.31
518.41	21422.92
518.58	21434.63
518.75	21418.24
518.93	21734.21
519.10	21458.03
519.27	21425.26
519.45	21734.21
519.62	21565.70
519.79	21458.03
519.96	21551.65
520.14	21865.28
520.31	21788.05
520.48	21968.27
520.65	21830.18
520.83	21905.07
521.00	22148.49
521.17	21748.26
521.34	22003.38
521.52	22057.21
521.69	22064.23
521.86	22466.80
522.03	22412.97
522.20	22544.04
522.38	22326.37
522.55	22335.73
522.72	22136.79
522.89	22527.66
523.07	22686.81
523.24	22478.50
523.41	22974.70
523.58	22611.92
523.75	22838.95
523.92	22490.21
524.10	22937.25
524.27	22860.01
524.44	22979.38
524.61	23264.92
524.78	23192.37
524.96	22867.03
525.13	23211.09
525.30	22986.40
525.47	23271.95
525.64	23339.82
525.81	23070.66
525.98	23468.55
526.16	23365.57
526.33	23594.94
526.50	23379.61
526.67	23192.37
526.84	23550.47
527.01	23349.18
527.18	23768.14
527.36	23651.11
527.53	23957.72
527.70	24027.94
527.87	23805.59
528.04	23613.66
528.21	23873.46
528.38	23981.13
528.55	24198.80
528.72	23943.68
528.89	23960.06
529.07	23709.63
529.24	24023.26
529.41	24058.37
529.58	24259.65
529.75	24060.71
529.92	24004.53
530.09	24245.61
530.26	24376.68
530.43	24271.36
530.60	24458.60
530.77	24182.42
530.94	24573.28
531.11	24346.25
531.28	24535.84
531.46	24528.81
531.63	24547.54
531.80	24603.71
531.97	25097.56
532.14	25062.46
532.31	24755.85
532.48	24727.76
532.65	24741.80
532.82	24847.13
532.99	24807.34
533.16	24907.98
533.33	25378.43
533.50	25233.32
533.67	25144.38
533.84	24926.71
534.01	25013.31
534.18	25071.82
534.35	25535.24
534.52	25113.95
534.69	25610.14
534.86	25624.18
535.03	25436.94
535.20	25221.61
535.37	25319.92
535.54	25343.32
535.71	25467.37
535.88	25317.57
536.05	25312.89
536.22	25614.82
536.38	25656.95
536.55	25710.78
536.72	25996.33
536.89	25729.51
537.06	25542.27
537.23	25933.14
537.40	25773.98
537.57	25837.17
537.74	25825.47
537.91	26089.95
538.08	25991.65
538.25	25479.07
538.42	26052.50
538.59	26012.71
538.75	25649.93
538.92	26089.95
539.09	25926.11
539.26	25972.92
539.43	26300.60
539.60	26342.73
539.77	26155.49
539.94	26197.62
540.11	26085.27
540.28	26328.69
540.44	26511.25
540.61	26302.94
540.78	26457.42
540.95	26536.99
541.12	26515.93
541.29	26394.22
541.46	26560.40
541.62	26366.13
541.79	26822.54
541.96	26036.12
542.13	26525.29
542.30	26888.07
542.47	26700.83
542.63	26876.37
542.80	26874.03
542.97	27255.54
543.14	27218.09
543.31	26909.14
543.48	26689.13
543.64	27522.36
543.81	27295.33
543.98	27042.55
544.15	27295.33
544.32	27105.74
544.48	27601.94
544.65	26995.74
544.82	27211.07
544.99	27171.28
545.16	27351.50
545.32	27346.82
545.49	27410.01
545.66	27763.43
545.83	27845.35
546.00	27763.43
546.16	27513.00
546.33	27419.38
546.50	27159.58
546.67	27857.06
546.83	27510.66
547.00	27646.41
547.17	27931.95
547.34	27707.26
547.50	27861.74
547.67	28006.85
547.84	27627.68
548.00	28044.30
548.17	27953.02
548.34	27960.04
548.51	28261.97
548.67	28308.78
548.84	28044.30
549.01	27938.97
549.18	27840.67
549.34	27957.70
549.51	28196.43
549.68	28350.91
549.84	27896.85
550.01	28037.28
550.18	28364.95
550.34	28285.37
550.51	28477.30
550.68	28442.19
550.84	28140.26
551.01	28383.68
551.18	28107.49
551.34	28397.72
551.51	28591.98
551.68	28694.97
551.84	28528.79
552.01	28652.84
552.18	28355.59
552.34	28395.38
552.51	28594.32
552.68	28507.72
552.84	28177.71
553.01	28790.93
553.18	28428.15
553.34	28811.99
553.51	28903.28
553.67	28828.38
553.84	29191.16
554.01	29085.84
554.17	28690.29
554.34	28861.15
554.51	28938.38
554.67	28854.12
554.84	28826.04
555.00	29186.48
555.17	28851.78
555.33	28919.66
555.50	28931.36
555.67	29394.79
555.83	28973.49
556.00	28943.06
556.16	29467.34
556.33	29209.89
556.50	28975.83
556.66	29146.69
556.83	28954.77
556.99	29230.95
557.16	29551.60
557.32	29195.84
557.49	29544.58
557.65	29062.43
557.82	28889.23
557.98	29319.89
558.15	29202.86
558.32	29560.97
558.48	29125.63
558.65	29638.20
558.81	29631.18
558.98	29198.18
559.14	29340.96
559.31	29469.69
559.47	29153.71
559.64	29713.10
559.80	29802.04
559.97	29919.07
560.13	29570.33
560.30	29970.56
560.46	29619.48
560.63	29811.40
560.79	29923.75
560.96	29621.82
561.12	29532.88
561.29	29666.29
561.45	29689.70
561.61	29731.83
561.78	29610.12
561.94	30073.54
562.11	29659.27
562.27	29790.34
562.44	29560.97
562.60	29890.98
562.77	29706.08
562.93	30075.88
563.10	29715.44
563.26	29921.41
563.42	30377.81
563.59	30309.94
563.75	30036.09
563.92	30092.27
564.08	29860.55
564.24	30127.38
564.41	30073.54
564.57	29909.71
564.74	30401.22
564.90	30148.44
565.07	30150.78
565.23	29909.71
565.39	30110.99
565.56	30590.80
565.72	29853.53
565.88	30359.09
566.05	29979.92
566.21	30047.80
566.38	30132.06
566.54	29778.64
566.70	30485.48
566.87	30637.61
567.03	30228.02
567.19	30490.16
567.36	30218.66
567.52	30073.54
567.68	30401.22
567.85	30401.22
568.01	30417.60
568.17	30340.36
568.34	30106.31
568.50	30426.96
568.66	30401.22
568.83	30398.88
568.99	30412.92
569.15	30305.26
569.32	30136.74
569.48	30064.18
569.64	30384.83
569.81	30108.65
569.97	30443.35
570.13	30490.16
570.30	29972.90
570.46	30462.07
570.62	30237.38
570.78	30265.47
570.95	30391.86
571.11	30618.89
571.27	30394.20
571.43	30316.96
571.60	30543.99
571.76	30373.13
571.92	30759.32
572.09	30541.65
572.25	30490.16
572.41	30323.98
572.57	30656.34
572.74	30555.69
572.90	30635.27
573.06	30469.09
573.22	30740.60
573.38	30597.82
573.55	30473.78
573.71	30656.34
573.87	30672.72
574.03	30635.27
574.20	30391.86
574.36	30597.82
574.52	30616.55
574.68	30586.12
574.84	30300.58
575.01	30864.64
575.17	30742.94
575.33	30635.27
575.49	30438.67
575.65	30518.25
575.82	30923.16
575.98	30597.82
576.14	30494.84
576.30	30752.30
576.46	30567.40
576.62	30593.14
576.79	30876.35
576.95	30644.63
577.11	31299.98
577.27	30965.29
577.43	30773.36
577.59	30581.44
577.75	30803.79
577.92	30335.68
578.08	30754.64
578.24	30464.41
578.40	30567.40
578.56	30635.27
578.72	30838.90
578.88	30874.01
579.04	30700.81
579.21	31051.89
579.37	30682.08
579.53	30857.62
579.69	30888.05
579.85	30628.25
580.01	30487.82
580.17	30700.81
580.33	30927.84
580.49	30682.08
580.65	30448.03
580.82	30843.58
580.98	31072.95
581.14	30710.17
581.30	30869.33
581.46	30881.03
581.62	31063.59
581.78	30756.98
581.94	30965.29
582.10	30555.69
582.26	31007.42
582.42	30803.79
582.58	30855.28
582.74	30909.11
582.90	31197.00
583.06	30597.82
583.22	30749.96
583.38	30567.40
583.54	30885.71
583.70	30878.69
583.86	30813.15
584.02	30705.49
584.18	31264.88
584.34	30703.15
584.50	31152.53
584.66	30939.54
584.82	31014.44
584.98	31447.44
585.14	31138.49
585.30	30658.68
585.46	30773.36
585.62	30831.88
585.78	31543.40
585.94	30852.94
586.10	31047.21
586.26	30616.55
586.42	30927.84
586.58	31009.76
586.74	31110.40
586.90	31000.40
587.06	30817.83
587.22	31454.46
587.38	30958.27
587.54	31042.53
587.70	31433.39
587.86	31047.21
588.02	31065.93
588.18	31452.12
588.34	31559.78
588.49	30988.69
588.65	30646.97
588.81	30923.16
588.97	31328.07
589.13	31101.04
589.29	31030.82
589.45	31384.24
589.61	31447.44
589.77	31929.59
589.93	31318.71
590.08	31412.33
590.24	31290.62
590.40	31269.56
590.56	31637.02
590.72	31131.47
590.88	31180.62
591.04	31405.31
591.20	31442.76
591.35	31424.03
591.51	31569.15
591.67	31496.59
591.83	31325.73
591.99	31508.29
592.15	31321.05
592.31	31634.68
592.46	30862.30
592.62	31044.87
592.78	31089.34
592.94	31164.23
593.10	31271.90
593.26	31342.11
593.41	31283.60
593.57	31377.22
593.73	31913.20
593.89	31519.99
594.05	31625.32
594.20	31178.28
594.36	31384.24
594.52	31124.44
594.68	31402.97
594.84	31290.62
594.99	31606.59
595.15	31309.35
595.31	31681.49
595.47	31791.50
595.62	31704.90
595.78	31747.03
595.94	31297.64
596.10	31606.59
596.25	31470.84
596.41	30976.99
596.57	31222.75
596.73	31260.20
596.88	31096.36
597.04	31234.45
597.20	31805.54
597.36	31449.78
597.51	31505.95
597.67	31534.04
597.83	31632.34
597.99	31723.62
598.14	31637.02
598.30	30976.99
598.46	31599.57
598.61	31838.31
598.77	31318.71
598.93	31566.81
599.09	31459.14
599.24	32210.45
599.40	31882.78
599.56	31714.26
599.71	31814.90
599.87	31398.29
600.03	31271.90
600.18	31295.30
600.34	31431.05
600.50	31409.99
600.65	31428.71
600.81	31562.12
600.97	31648.72
601.12	31737.66
601.28	31749.37
601.44	31988.10
601.59	31864.05
601.75	31613.62
601.91	31772.77
602.06	31583.19
602.22	31927.25
602.37	31566.81
602.53	31604.25
602.69	31842.99
602.84	31772.77
603.00	31508.29
603.16	31789.16
603.31	31845.33
603.47	31906.18
603.62	31180.62
603.78	31405.31
603.94	31243.81
604.09	31456.80
604.25	31145.51
604.40	31622.98
604.56	31585.53
604.71	31833.63
604.87	31824.26
605.03	31679.15
605.18	31913.20
605.34	31859.37
605.49	31414.67
605.65	31349.14
605.80	31145.51
605.96	31428.71
606.12	31463.82
606.27	31531.70
606.43	31278.92
606.58	31871.07
606.74	31732.98
606.89	31847.67
607.05	31562.12
607.20	31421.69
607.36	31440.42
607.51	31487.23
607.67	31688.51
607.82	31166.57
607.98	31330.41
608.13	31587.87
608.29	31409.99
608.44	31388.92
608.60	31791.50
608.75	31613.62
608.91	31197.00
609.06	31400.63
609.22	31704.90
609.37	31180.62
609.53	31475.52
609.68	31246.15
609.84	31391.26
609.99	31484.89
610.15	31112.74
610.30	31248.49
610.46	31171.25
610.61	31197.00
610.76	31461.48
610.92	31323.39
611.07	31438.08
611.23	31168.91
611.38	30916.14
611.54	30862.30
611.69	31213.38
611.84	30967.63
612.00	30972.31
612.15	30948.90
612.31	31419.35
612.46	31239.13
612.62	31501.27
612.77	31295.30
612.92	31182.96
613.08	31173.60
613.23	31096.36
613.39	31026.14
613.54	31035.50
613.69	30939.54
613.85	30958.27
614.00	30768.68
614.15	30820.17
614.31	31171.25
614.46	30962.95
614.62	31283.60
614.77	31182.96
614.92	31082.31
615.08	30981.67
615.23	30845.92
615.38	30850.60
615.54	30972.31
615.69	30707.83
615.84	30497.18
616.00	30967.63
616.15	31037.84
616.30	30885.71
616.46	30927.84
616.61	30948.90
616.76	30974.65
616.92	30356.75
617.07	31051.89
617.22	30567.40
617.37	30658.68
617.53	30951.24
617.68	30780.39
617.83	30635.27
617.99	30366.11
618.14	30658.68
618.29	30628.25
618.45	30902.09
618.60	31068.27
618.75	30572.08
618.90	30654.00
619.06	30586.12
619.21	30506.54
619.36	30513.56
619.51	30256.11
619.67	30225.68
619.82	30218.66
619.97	30607.19
620.12	30288.87
620.28	30305.26
620.43	30567.40
620.58	30628.25
620.73	30429.30
620.89	30331.00
621.04	30635.27
621.19	30319.30
621.34	30361.43
621.49	29963.54
621.65	30071.20
621.80	30391.86
621.95	30110.99
622.10	30490.16
622.25	30246.74
622.41	30279.51
622.56	30008.01
622.71	30546.33
622.86	30029.07
623.01	30080.56
623.16	30202.27
623.32	29771.61
623.47	29958.86
623.62	30125.04
623.77	29942.47
623.92	30174.19
624.07	30054.82
624.23	29890.98
624.38	30061.84
624.53	30103.97
624.68	30441.01
624.83	30506.54
624.98	30333.34
625.13	29820.77
625.29	30412.92
625.44	29841.83
625.59	30010.35
625.74	29799.70
625.89	29778.64
626.04	29790.34
626.19	29560.97
626.34	29603.10
626.49	29631.18
626.65	29624.16
626.80	30143.76
626.95	29708.42
627.10	29600.76
627.25	29839.49
627.40	29347.98
627.55	29378.40
627.70	29523.52
627.85	29481.39
628.00	29411.17
628.15	29696.72
628.30	29254.36
628.45	29326.91
628.60	29032.00
628.76	29579.69
628.91	29811.40
629.06	29544.58
629.21	29465.00
629.36	29551.60
629.51	29780.98
629.66	29387.77
629.81	29273.08
629.96	28999.24
630.11	29500.11
630.26	29516.50
630.41	29235.63
630.56	28996.90
630.71	29474.37
630.86	29142.01
631.01	29237.97
631.16	29116.26
631.31	29149.03
631.46	29090.52
631.61	29298.83
631.76	29340.96
631.91	28985.19
632.06	28804.97
632.21	29137.33
632.36	29022.64
632.51	29078.82
632.66	29078.82
632.81	28900.94
632.96	29074.13
633.10	28926.68
633.25	29027.32
633.40	29266.06
633.55	28767.52
633.70	28624.75
633.85	28720.71
634.00	28954.77
634.15	28622.41
634.30	28783.91
634.45	28582.62
634.60	28776.89
634.75	28830.72
634.90	28821.36
635.05	28648.16
635.19	29134.99
635.34	28898.59
635.49	28762.84
635.64	28428.15
635.79	28783.91
635.94	28926.68
636.09	28444.53
636.24	28540.49
636.39	28137.92
636.53	28622.41
636.68	28259.63
636.83	28301.76
636.98	28629.43
637.13	28599.01
637.28	28283.03
637.43	28477.30
637.57	28465.60
637.72	28512.41
637.87	28348.57
638.02	28374.31
638.17	28449.21
638.32	28400.06
638.46	28226.86
638.61	28315.80
638.76	28156.64
638.91	28119.20
639.06	28198.77
639.20	28561.56
639.35	28432.83
639.50	28355.59
639.65	28233.88
639.80	28336.87
639.94	28432.83
640.09	28285.37
640.24	27901.53
640.39	27812.59
640.54	27751.73
640.68	28041.96
640.83	27903.87
640.98	27667.47
641.13	28100.47
641.27	28240.90
641.42	27878.12
641.57	28088.77
641.72	27903.87
641.86	27686.20
642.01	27819.61
642.16	27676.83
642.31	27658.11
642.45	27859.40
642.60	27248.52
642.75	27934.29
642.90	27578.53
643.04	27618.32
643.19	27583.21
643.34	27854.72
643.48	27548.11
643.63	27522.36
643.78	27695.56
643.93	27857.06
644.07	28025.57
644.22	27723.65
644.37	27529.38
644.51	28414.10
644.66	27395.97
644.81	27447.46
644.95	27498.95
645.10	27393.63
645.25	27449.80
645.39	27440.44
645.54	27452.14
645.69	27545.76
645.83	27520.02
645.98	27634.71
646.13	27569.17
646.27	27576.19
646.42	27571.51
646.57	27253.20
646.71	27166.60
646.86	27342.14
647.00	27234.47
647.15	27290.65
647.30	27173.62
647.44	27349.16
647.59	26939.57
647.74	27096.38
647.88	27040.21
648.03	27192.34
648.17	27349.16
648.32	27440.44
648.47	27564.49
648.61	27119.79
648.76	27611.30
648.90	27007.44
649.05	27164.26
649.20	26967.65
649.34	27166.60
649.49	26490.18
649.63	26941.91
649.78	26773.39
649.92	27019.14
650.07	27136.17
650.21	26738.28
650.36	26815.52
650.51	26874.03
650.65	27255.54
650.80	26752.32
650.94	26946.59
651.09	26733.60
651.23	26522.95
651.38	27262.56
651.52	26820.20
651.67	26801.47
651.81	26895.10
651.96	26419.97
652.10	26787.43
652.25	27159.58
652.39	26930.20
652.54	26539.33
652.68	26670.40
652.83	26618.91
652.97	27173.62
653.12	26883.39
653.26	26675.09
653.41	26801.47
653.55	26326.35
653.70	26497.20
653.84	26546.36
653.99	26738.28
654.13	26698.49
654.27	26600.19
654.42	26698.49
654.56	26279.54
654.71	26101.65
654.85	26644.66
655.00	26569.76
655.14	26298.26
655.29	26338.05
655.43	26555.72
655.57	26532.31
655.72	26352.09
655.86	26581.46
656.01	26480.82
656.15	26094.63
656.30	26199.96
656.44	26405.92
656.58	26253.79
656.73	26017.40
656.87	26071.23
657.01	26228.04
657.16	26253.79
657.30	26363.79
657.45	26361.45
657.59	26319.32
657.73	26085.27
657.88	26328.69
658.02	26017.40
658.16	25729.51
658.31	25895.69
658.45	25813.77
658.60	25413.54
658.74	26071.23
658.88	25837.17
659.03	25710.78
659.17	25757.60
659.31	26059.52
659.46	25642.91
659.60	25614.82
659.74	26001.01
659.89	25713.13
660.03	25458.01
660.17	25532.90
660.32	25825.47
660.46	25493.12
660.60	25254.38
660.74	25352.68
660.89	25376.09
661.03	25319.92
661.17	25603.12
661.32	25067.14
661.46	25413.54
661.60	25369.07
661.74	25518.86
661.89	25441.62
662.03	25631.21
662.17	25053.09
662.31	25219.27
662.46	25296.51
662.60	24994.58
662.74	24786.27
662.88	25214.59
663.03	25181.82
663.17	24603.71
663.31	24762.87
663.45	24929.05
663.60	24844.79
663.74	24877.55
663.88	24900.96
664.02	24727.76
664.17	24982.88
664.31	24446.90
664.45	24671.59
664.59	24812.02
664.73	24348.59
664.88	24624.78
665.02	24231.57
665.16	24521.79
665.30	24243.27
665.44	24034.96
665.59	24177.73
665.73	24545.20
665.87	24280.72
666.01	24238.59
666.15	24493.71
666.29	24257.31
666.44	24421.15
666.58	23999.85
666.72	24212.84
666.86	23981.13
667.00	24369.66
667.14	24016.24
667.28	24460.94
667.43	23941.34
667.57	24051.34
667.71	23704.95
667.85	23700.26
667.99	23761.12
668.13	23740.05
668.27	23627.71
668.41	23800.91
668.56	23737.71
668.70	23831.33
668.84	23463.87
668.98	23536.43
669.12	23704.95
669.26	24004.53
669.40	23733.03
669.54	23250.88
669.68	23573.88
669.82	23442.81
669.96	23496.64
670.10	23243.86
670.25	23372.59
670.39	23285.99
670.53	23218.11
670.67	22998.10
670.81	23321.10
670.95	23344.50
671.09	23164.28
671.23	23152.58
671.37	23246.20
671.51	23122.15
671.65	23098.75
671.79	23012.15
671.93	22824.90
672.07	22787.46
672.21	22455.10
672.35	22686.81
672.49	22647.02
672.63	22733.62
672.77	22457.44
672.91	22602.55
673.05	22572.13
673.19	22705.54
673.33	22848.31
673.47	22331.05
673.61	22480.85
673.75	22513.61
673.89	22644.68
674.03	22157.85
674.17	22197.64
674.31	22162.53
674.45	22361.48
674.59	22239.77
674.73	21881.67
674.87	21888.69
675.01	22031.46
675.15	21729.53
675.29	21792.73
675.43	21755.28
675.56	21757.62
675.70	21696.77
675.84	21853.58
675.98	21343.35
676.12	21900.39
676.26	21750.60
676.40	21530.59
676.54	21539.95
676.68	21385.47
676.82	21212.28
676.96	21446.33
677.10	21233.34
677.23	20999.29
677.37	21032.05
677.51	20987.58
677.65	21118.65
677.79	20554.58
677.93	20790.98
678.07	20884.60
678.21	20498.41
678.34	20367.34
678.48	20634.16
678.62	20519.48
678.76	20463.30
678.90	20360.32
679.04	20421.17
679.18	20606.08
679.31	20067.75
679.45	20065.41
679.59	20542.88
679.73	19873.49
679.87	19702.63
680.00	20100.52
680.14	19953.07
680.28	19782.21
680.42	19735.40
680.56	19740.08
680.70	19824.34
680.83	19861.79
680.97	19908.60
681.11	19716.67
681.25	19520.07
681.39	19494.32
681.52	19225.16
681.66	19122.18
681.80	18775.78
681.94	19208.78
682.07	19126.86
682.21	19136.22
682.35	19094.09
682.49	18761.73
682.62	18778.12
682.76	19044.94
682.90	18686.84
683.04	18752.37
683.17	18853.02
683.31	18988.77
683.45	18740.67
683.59	18771.10
683.72	18520.66
683.86	18314.69
684.00	18342.78
684.13	18202.35
684.27	18230.43
684.41	18340.44
684.55	17879.35
684.68	17987.02
684.82	17977.65
684.96	17682.75
685.09	17996.38
685.23	17774.03
685.37	17834.88
685.50	17820.84
685.64	17942.55
685.78	17977.65
685.91	17710.83
686.05	17614.87
686.19	17724.88
686.32	17532.95
686.46	17408.90
686.60	17219.32
686.73	17277.83
686.87	17245.07
687.01	17268.47
687.14	16940.80
687.28	17060.16
687.42	16505.46
687.55	16819.09
687.69	16917.39
687.82	16847.18
687.96	16758.24
688.10	16435.24
688.23	16844.84
688.37	16524.18
688.50	16800.37
688.64	16397.79
688.78	16451.63
688.91	16592.06
689.05	16355.66
689.18	16238.64
689.32	16058.42
689.46	16133.31
689.59	15957.77
689.73	16065.44
689.86	15974.16
690.00	15910.96
690.13	16086.50
690.27	15798.62
690.41	15831.38
690.54	15843.09
690.68	15824.36
690.81	15269.66
690.95	15747.12
691.08	15534.14
691.22	15473.28
691.35	15515.41
691.49	15559.88
691.62	15536.48
691.76	14970.07
691.89	15445.20
692.03	15131.56
692.16	14834.32
692.30	14815.59
692.43	14932.62
692.57	14881.13
692.70	15051.99
692.84	14899.85
692.97	14728.99
693.11	14684.52
693.24	14588.56
693.38	14672.82
693.51	14544.09
693.65	14810.91
693.78	14558.13
693.92	14527.71
694.05	14452.81
694.19	14303.01
694.32	14169.60
694.45	13926.19
694.59	13954.27
694.72	13928.53
694.86	13942.57
694.99	13792.78
695.13	13734.26
695.26	13738.94
695.39	13694.47
695.53	13958.96
695.66	13984.70
695.80	13458.08
695.93	13708.52
696.07	13619.58
696.20	13612.56
696.33	13413.61
696.47	13650.00
696.60	13432.33
696.73	13280.20
696.87	13188.92
697.00	13263.82
697.14	13029.76
697.27	12898.69
697.40	12774.64
697.54	12833.16
697.67	12788.69
697.80	12535.91
697.94	12582.72
698.07	12519.53
698.21	12688.04
698.34	12624.85
698.47	12559.31
698.61	12578.04
698.74	12737.20
698.87	12568.68
699.01	12360.37
699.14	12491.44
699.27	12241.00
699.40	12259.73
699.54	12095.89
699.67	12198.87
699.80	11896.94
699.94	11943.75
700.07	11981.20
700.20	11534.16
700.34	11690.98
700.47	11597.35
700.60	11882.90
700.73	11669.91
700.87	11693.32
701.00	11541.18
701.13	11243.93
701.26	11843.11
701.40	11688.64
701.53	11496.71
701.66	11602.04
701.79	11492.03
701.93	11208.83
702.06	11349.26
702.19	11166.70
702.32	11124.57
702.46	10967.75
702.59	11021.58
702.72	10803.91
702.85	11014.56
702.99	10792.21
703.12	10682.20
703.25	10621.35
703.38	10719.65
703.51	10911.58
703.65	10651.78
703.78	10733.70
703.91	10562.84
704.04	10752.42
704.17	10555.82
704.31	10576.88
704.44	10377.94
704.57	10263.25
704.70	10324.10
704.83	10174.31
704.96	10143.88
705.10	9956.64
705.23	10190.69
>>>>>End Processed Spectral Data<<<<<
