SpectraSuite Data File
++++++++++++++++++++++++++++++++++++
Date: Fri Oct 18 13:58:03 GMT-05:00 2013
User: bianchi
Dark Spectrum Present: No
Reference Spectrum Present: No
Number of Sampled Component Spectra: 1
Spectrometers: USB2+H05261
Integration Time (usec): 50000 (USB2+H05261)
Spectra Averaged: 1 (USB2+H05261)
Boxcar Smoothing: 0 (USB2+H05261)
Correct for Electrical Dark: No (USB2+H05261)
Strobe/Lamp Enabled: No (USB2+H05261)
Correct for Detector Non-linearity: No (USB2+H05261)
Correct for Stray Light: No (USB2+H05261)
Number of Pixels in Processed Spectrum: 2048
>>>>>Begin Processed Spectral Data<<<<<
365.73	4.68
365.92	4.68
366.12	4.68
366.32	0.00
366.52	0.00
366.72	0.00
366.91	0.00
367.11	0.00
367.31	0.00
367.51	0.00
367.70	0.00
367.90	0.00
368.10	0.00
368.30	0.00
368.49	0.00
368.69	0.00
368.89	0.00
369.09	0.00
369.28	0.00
369.48	0.00
369.68	0.00
369.87	0.00
370.07	0.00
370.27	0.00
370.47	0.00
370.66	91.28
370.86	170.86
371.06	131.07
371.25	180.22
371.45	93.62
371.65	128.73
371.84	98.30
372.04	98.30
372.24	191.92
372.44	117.03
372.63	210.65
372.83	170.86
373.03	250.44
373.22	212.99
373.42	231.71
373.62	222.35
373.81	191.92
374.01	220.01
374.21	245.76
374.40	234.05
374.60	311.29
374.79	227.03
374.99	236.39
375.19	205.97
375.38	269.16
375.58	243.42
375.78	212.99
375.97	273.84
376.17	285.55
376.37	245.76
376.56	262.14
376.76	280.86
376.95	203.63
377.15	266.82
377.35	255.12
377.54	318.31
377.74	299.59
377.93	224.69
378.13	262.14
378.33	273.84
378.52	252.78
378.72	264.48
378.91	290.23
379.11	266.82
379.31	344.06
379.50	339.38
379.70	320.65
379.89	334.70
380.09	269.16
380.28	229.37
380.48	304.27
380.68	248.10
380.87	320.65
381.07	301.93
381.26	280.86
381.46	259.80
381.65	315.97
381.85	348.74
382.04	262.14
382.24	381.51
382.43	313.63
382.63	358.10
382.83	337.04
383.02	351.08
383.22	407.25
383.41	315.97
383.61	348.74
383.80	414.27
384.00	332.36
384.19	339.38
384.39	428.32
384.58	341.72
384.78	362.78
384.97	411.93
385.17	484.49
385.36	397.89
385.56	337.04
385.75	414.27
385.95	395.55
386.14	430.66
386.34	379.17
386.53	416.62
386.72	416.62
386.92	461.09
387.11	418.96
387.31	367.46
387.50	437.68
387.70	428.32
387.89	458.74
388.09	395.55
388.28	454.06
388.48	381.51
388.67	421.30
388.86	472.79
389.06	505.56
389.25	486.83
389.45	477.47
389.64	470.45
389.84	484.49
390.03	454.06
390.22	491.51
390.42	540.66
390.61	479.81
390.81	437.68
391.00	491.51
391.19	465.77
391.39	521.94
391.58	514.92
391.78	533.64
391.97	557.05
392.16	496.19
392.36	507.90
392.55	493.85
392.75	491.51
392.94	545.34
393.13	561.73
393.33	491.51
393.52	606.20
393.71	550.03
393.91	557.05
394.10	594.50
394.29	603.86
394.49	498.53
394.68	517.26
394.88	592.16
395.07	615.56
395.26	550.03
395.46	678.76
395.65	664.71
395.84	655.35
396.04	613.22
396.23	664.71
396.42	650.67
396.62	648.33
396.81	678.76
397.00	592.16
397.19	727.91
397.39	739.61
397.58	631.94
397.77	671.73
397.97	683.44
398.16	765.36
398.35	660.03
398.55	781.74
398.74	725.57
398.93	695.14
399.12	655.35
399.32	774.72
399.51	704.50
399.70	812.17
399.90	744.29
400.09	737.27
400.28	730.25
400.47	763.01
400.67	774.72
400.86	774.72
401.05	774.72
401.24	800.46
401.44	765.36
401.63	823.87
401.82	833.23
402.01	746.63
402.21	849.61
402.40	777.06
402.59	732.59
402.78	884.72
402.97	873.02
403.17	882.38
403.36	823.87
403.55	842.59
403.74	866.00
403.93	901.11
404.13	983.02
404.32	950.26
404.51	919.83
404.70	882.38
404.89	1039.20
405.09	992.39
405.28	1071.97
405.47	978.34
405.66	910.47
405.85	961.96
406.05	943.24
406.24	1004.09
406.43	985.37
406.62	1027.50
406.81	1025.15
407.00	1022.81
407.20	1020.47
407.39	985.37
407.58	1050.90
407.77	1022.81
407.96	1196.01
408.15	1039.20
408.34	1109.41
408.54	1090.69
408.73	1083.67
408.92	1081.33
409.11	1128.14
409.30	1102.39
409.49	1078.99
409.68	1118.78
409.87	1165.59
410.07	1181.97
410.26	1184.31
410.45	1238.14
410.64	1224.10
410.83	1252.19
411.02	1238.14
411.21	1310.70
411.40	1196.01
411.59	1188.99
411.78	1252.19
411.98	1324.74
412.17	1362.19
412.36	1240.48
412.55	1348.15
412.74	1294.32
412.93	1378.58
413.12	1369.21
413.31	1437.09
413.50	1352.83
413.69	1324.74
413.88	1423.05
414.07	1437.09
414.26	1390.28
414.45	1469.86
414.64	1425.39
414.83	1488.58
415.02	1519.01
415.22	1530.71
415.41	1521.35
415.60	1551.78
415.79	1607.95
415.98	1563.48
416.17	1607.95
416.36	1575.18
416.55	1624.33
416.74	1638.38
416.93	1727.32
417.12	1603.27
417.31	1666.46
417.50	1753.06
417.69	1778.81
417.88	1689.87
418.07	1877.11
418.26	1675.82
418.45	1825.62
418.64	1912.22
418.83	1748.38
419.02	1823.28
419.21	1830.30
419.39	1837.32
419.58	1743.70
419.77	1895.83
419.96	1832.64
420.15	1872.43
420.34	1893.49
420.53	1858.39
420.72	1834.98
420.91	2001.16
421.10	1886.47
421.29	2017.54
421.48	1811.57
421.67	1839.66
421.86	2010.52
422.05	1923.92
422.24	1980.09
422.43	2024.56
422.61	1921.58
422.80	1980.09
422.99	2005.84
423.18	2057.33
423.37	2078.40
423.56	2022.22
423.75	1982.43
423.94	1968.39
424.13	1989.46
424.32	2003.50
424.50	2017.54
424.69	2193.08
424.88	2071.37
425.07	2073.71
425.26	2120.53
425.45	2069.03
425.64	2104.14
425.83	1959.03
426.01	2017.54
426.20	2118.18
426.39	2031.58
426.58	2108.82
426.77	2099.46
426.96	2136.91
427.15	2097.12
427.33	2165.00
427.52	2132.23
427.71	2143.93
427.90	2293.72
428.09	2328.83
428.28	2174.36
428.46	2153.29
428.65	2120.53
428.84	2162.66
429.03	2228.19
429.22	2211.81
429.40	2237.55
429.59	2251.60
429.78	2193.08
429.97	2125.21
430.16	2310.11
430.34	2363.94
430.53	2291.38
430.72	2356.92
430.91	2448.20
431.10	2218.83
431.28	2368.62
431.47	2221.17
431.66	2406.07
431.85	2483.31
432.03	2415.43
432.22	2555.86
432.41	2420.11
432.60	2459.90
432.79	2312.45
432.97	2504.37
433.16	2548.84
433.35	2445.86
433.54	2539.48
433.72	2586.29
433.91	2459.90
434.10	2513.74
434.28	2595.65
434.47	2626.08
434.66	2469.27
434.85	2590.97
435.03	2567.57
435.22	2560.55
435.41	2670.55
435.59	2736.09
435.78	2626.08
435.97	2712.68
436.16	2656.51
436.34	2682.25
436.53	2654.17
436.72	2820.35
436.90	2668.21
437.09	2750.13
437.28	2689.28
437.46	2679.91
437.65	2738.43
437.84	2736.09
438.02	2841.41
438.21	2677.57
438.40	2691.62
438.58	2871.84
438.77	2925.67
438.96	2810.98
439.14	2967.80
439.33	2892.90
439.52	3066.10
439.70	3084.83
439.89	2960.78
440.08	2939.71
440.26	3023.97
440.45	3075.46
440.63	3215.90
440.82	3112.91
441.01	3028.65
441.19	3124.62
441.38	3220.58
441.57	3208.87
441.75	3255.69
441.94	3300.16
442.12	3272.07
442.31	3283.77
442.50	3295.47
442.68	3213.56
442.87	3431.23
443.05	3265.05
443.24	3339.94
443.43	3419.52
443.61	3438.25
443.80	3620.81
443.98	3400.80
444.17	3265.05
444.35	3417.18
444.54	3545.91
444.73	3471.01
444.91	3332.92
445.10	3393.78
445.28	3503.78
445.47	3438.25
445.65	3407.82
445.84	3543.57
446.02	3482.72
446.21	3499.10
446.39	3480.38
446.58	3646.55
446.77	3548.25
446.95	3585.70
447.14	3419.52
447.32	3630.17
447.51	3485.06
447.69	3592.72
447.88	3583.36
448.06	3578.68
448.25	3555.27
448.43	3550.59
448.62	3552.93
448.80	3543.57
448.99	3655.92
449.17	3576.34
449.36	3676.98
449.54	3740.18
449.73	3803.37
449.91	3688.68
450.10	3761.24
450.28	3606.77
450.46	3822.09
450.65	3779.97
450.83	3754.22
451.02	3740.18
451.20	3803.37
451.39	3695.71
451.57	3784.65
451.76	3721.45
451.94	3871.25
452.13	3964.87
452.31	3983.59
452.49	3861.88
452.68	3974.23
452.86	3796.35
453.05	3911.04
453.23	3999.98
453.42	3871.25
453.60	3901.67
453.78	3943.80
453.97	3922.74
454.15	4011.68
454.34	3992.95
454.52	3878.27
454.70	4060.83
454.89	4102.96
455.07	3948.48
455.26	4149.77
455.44	4098.28
455.62	4147.43
455.81	4124.02
455.99	4315.95
456.17	4084.23
456.36	4149.77
456.54	4163.81
456.73	4196.58
456.91	4381.48
457.09	4203.60
457.28	4430.63
457.46	4273.82
457.64	4351.06
457.83	4290.20
458.01	4262.12
458.19	4470.42
458.38	4241.05
458.56	4496.17
458.74	4454.04
458.93	4451.70
459.11	4353.40
459.29	4432.97
459.48	4634.26
459.66	4643.62
459.84	4479.79
460.03	4587.45
460.21	4660.01
460.39	4561.70
460.57	4575.75
460.76	4578.09
460.94	4596.81
461.12	4615.54
461.31	4765.33
461.49	4692.77
461.67	4622.56
461.85	4898.74
462.04	4692.77
462.22	5011.09
462.40	4737.24
462.59	4645.96
462.77	4688.09
462.95	4954.91
463.13	4786.40
463.32	4732.56
463.50	4842.57
463.68	4990.02
463.86	4887.04
464.05	4730.22
464.23	4929.17
464.41	4908.10
464.59	4926.83
464.78	4985.34
464.96	4814.48
465.14	4807.46
465.32	5013.43
465.50	4987.68
465.69	5144.50
465.87	5095.35
466.05	5114.07
466.23	5036.83
466.41	5006.41
466.60	5172.58
466.78	5064.92
466.96	5078.96
467.14	4999.38
467.32	5149.18
467.51	5111.73
467.69	5071.94
467.87	5088.32
468.05	5186.63
468.23	5221.74
468.41	5067.26
468.60	5221.74
468.78	5263.86
468.96	5437.06
469.14	5210.03
469.32	5308.34
469.50	5097.69
469.69	5345.78
469.87	5518.98
470.05	5394.93
470.23	5593.88
470.41	5523.66
470.59	5437.06
470.77	5486.22
470.95	5516.64
471.14	5713.25
471.32	5540.05
471.50	5633.67
471.68	5561.11
471.86	5577.50
472.04	5682.82
472.22	5792.83
472.40	5647.71
472.58	5722.61
472.77	5724.95
472.95	5755.38
473.13	6010.50
473.31	5783.46
473.49	5867.72
473.67	5797.51
473.85	5944.96
474.03	5935.60
474.21	5881.77
474.39	5994.11
474.57	6040.92
474.75	5977.73
474.93	6282.00
475.12	6148.59
475.30	6361.58
475.48	6310.08
475.66	6347.53
475.84	6090.07
476.02	6359.24
476.20	6415.41
476.38	6455.20
476.56	6541.80
476.74	6565.20
476.92	6506.69
477.10	6628.40
477.28	6707.98
477.46	6729.04
477.64	6796.92
477.82	6829.68
478.00	7021.61
478.18	6960.75
478.36	7009.90
478.54	7082.46
478.72	7304.81
478.90	7227.57
479.08	7211.19
479.26	7311.83
479.44	7274.38
479.62	7449.93
479.80	7435.88
479.98	7452.27
480.16	7620.78
480.34	7583.34
480.52	7660.57
480.70	7859.52
480.88	7648.87
481.06	7681.64
481.24	7793.98
481.41	7822.07
481.59	7899.31
481.77	7770.58
481.95	8063.15
482.13	8138.04
482.31	8093.57
482.49	8264.43
482.67	8304.22
482.85	8456.36
483.03	8479.76
483.21	8594.45
483.39	8730.20
483.57	8430.61
483.74	8594.45
483.92	8755.94
484.10	8807.44
484.28	9004.04
484.46	8940.85
484.64	9092.98
484.82	9071.92
485.00	9165.54
485.18	9282.56
485.35	9399.59
485.53	9430.02
485.71	9490.87
485.89	9722.59
486.07	9502.58
486.25	9589.17
486.43	9675.77
486.61	9647.69
486.78	9776.42
486.96	10057.28
487.14	10017.49
487.32	10101.75
487.50	10359.21
487.68	10310.06
487.85	10544.11
488.03	10534.75
488.21	10534.75
488.39	10604.97
488.57	10693.91
488.75	10677.52
488.92	10759.44
489.10	10925.62
489.28	10946.69
489.46	11311.81
489.64	11197.12
489.81	11583.31
489.99	11686.29
490.17	11477.99
490.35	11386.71
490.53	11557.57
490.70	11421.81
490.88	11658.21
491.06	11868.86
491.24	12013.97
491.41	11796.30
491.59	11985.88
491.77	12067.80
491.95	12161.42
492.13	11962.48
492.30	12400.16
492.48	12147.38
492.66	12496.12
492.84	12573.36
493.01	12547.61
493.19	12320.58
493.37	13074.23
493.54	12718.47
493.72	12816.77
493.90	12938.48
494.08	13018.06
494.25	13245.09
494.43	13053.17
494.61	13514.25
494.79	13348.08
494.96	13212.32
495.14	13324.67
495.32	13579.79
495.49	13879.38
495.67	13731.92
495.85	13844.27
496.02	13916.83
496.20	13963.64
496.38	14026.83
496.55	14047.90
496.73	14459.83
496.91	14338.12
497.09	14366.21
497.26	14441.11
497.44	14494.94
497.62	14492.60
497.79	14654.09
497.97	14305.35
498.14	14984.11
498.32	15044.96
498.50	14874.10
498.67	15035.60
498.85	14743.03
499.03	14871.76
499.20	14937.30
499.38	15206.46
499.56	15337.53
499.73	15096.46
499.91	15246.25
500.08	15765.85
500.26	15215.82
500.44	15379.66
500.61	15517.75
500.79	15772.87
500.97	15543.50
501.14	15957.77
501.32	15604.35
501.49	16060.76
501.67	15885.22
501.84	16098.20
502.02	15754.15
502.20	16145.02
502.37	16252.68
502.55	16301.83
502.72	16208.21
502.90	16482.05
503.07	16142.67
503.25	16301.83
503.43	16578.01
503.60	16706.74
503.78	16547.59
503.95	16589.72
504.13	16587.38
504.30	16835.47
504.48	16636.53
504.65	16893.99
504.83	17074.21
505.01	17109.32
505.18	16950.16
505.36	17263.79
505.53	16908.03
505.71	16980.59
505.88	17167.83
506.06	17071.87
506.23	17280.18
506.41	17350.39
506.58	17675.73
506.76	17666.36
506.93	17399.54
507.11	17315.28
507.28	17600.83
507.46	17495.50
507.63	17762.33
507.81	18033.83
507.98	17991.70
508.16	17972.97
508.33	17991.70
508.50	17926.16
508.68	18356.82
508.85	18211.71
509.03	17980.00
509.20	18211.71
509.38	18368.52
509.55	18654.07
509.73	18319.37
509.90	18466.83
510.08	18375.55
510.25	18586.19
510.42	18721.95
510.60	18750.03
510.77	18836.63
510.95	18726.63
511.12	18916.21
511.30	18724.29
511.47	18731.31
511.64	19166.65
511.82	19225.16
511.99	18899.83
512.17	19316.44
512.34	19220.48
512.51	19751.78
512.69	19089.41
512.86	19433.47
513.04	19569.22
513.21	19679.22
513.38	19786.89
513.56	19372.61
513.73	19524.75
513.90	19473.26
514.08	19693.27
514.25	19337.51
514.43	19658.16
514.60	19934.34
514.77	19866.47
514.95	20156.69
515.12	19929.66
515.29	19800.93
515.47	19910.94
515.64	20212.87
515.81	20259.68
515.99	20114.56
516.16	20561.61
516.33	20332.23
516.51	20776.94
516.68	20350.96
516.85	20926.73
517.03	20332.23
517.20	20666.93
517.37	20699.70
517.54	20486.71
517.72	20645.87
517.89	20505.43
518.06	20636.50
518.24	20856.51
518.41	20952.48
518.58	21118.65
518.75	21013.33
518.93	21275.47
519.10	21050.78
519.27	21249.72
519.45	21099.93
519.62	21113.97
519.79	21125.68
519.96	21476.76
520.14	21441.65
520.31	21219.30
520.48	21427.60
520.65	21418.24
520.83	21509.52
521.00	21521.23
521.17	21415.90
521.34	21376.11
521.52	21893.37
521.69	21612.51
521.86	21902.73
522.03	21975.29
522.20	21766.98
522.38	21823.16
522.55	21706.13
522.72	21790.39
522.89	22050.19
523.07	22537.02
523.24	22387.22
523.41	22073.59
523.58	21830.18
523.75	22401.27
523.92	22228.07
524.10	22267.86
524.27	22710.22
524.44	22384.88
524.61	22654.05
524.78	22459.78
524.96	22490.21
525.13	22703.20
525.30	22829.59
525.47	22534.68
525.64	22494.89
525.81	22707.88
525.98	23073.00
526.16	22663.41
526.33	23300.03
526.50	23307.05
526.67	22457.44
526.84	22934.91
527.01	22773.41
527.18	22747.67
527.36	22941.93
527.53	23290.67
527.70	23548.13
527.87	23730.69
528.04	23314.08
528.21	23267.27
528.38	23337.48
528.55	23454.51
528.72	23723.67
528.89	23396.00
529.07	23686.22
529.24	23658.14
529.41	23728.35
529.58	23913.25
529.75	23653.45
529.92	23583.24
530.09	23683.88
530.26	24100.50
530.43	24151.99
530.60	23775.16
530.77	23693.24
530.94	24065.39
531.11	23653.45
531.28	24053.69
531.46	24032.62
531.63	23859.42
531.80	24020.92
531.97	23711.97
532.14	24095.82
532.31	24189.44
532.48	24587.33
532.65	24430.51
532.82	24224.54
532.99	24381.36
533.16	24458.60
533.33	24570.94
533.50	24563.92
533.67	24563.92
533.84	24624.78
534.01	24350.93
534.18	24191.78
534.35	24386.04
534.52	24805.00
534.69	24641.16
534.86	24713.72
535.03	24765.21
535.20	24795.64
535.37	24900.96
535.54	24971.18
535.71	24643.50
535.88	24779.25
536.05	24985.22
536.22	25027.35
536.38	25273.10
536.55	25338.64
536.72	25268.42
536.89	24821.38
537.06	24989.90
537.23	25322.26
537.40	25401.83
537.57	25212.25
537.74	25373.75
537.91	25586.74
538.08	25364.39
538.25	25476.73
538.42	25385.45
538.59	25434.60
538.75	25188.85
538.92	25399.49
539.09	25429.92
539.26	25715.47
539.43	25626.53
539.60	25549.29
539.77	25661.63
539.94	25666.31
540.11	25818.45
540.28	25558.65
540.44	25675.68
540.61	25535.24
540.78	25865.26
540.95	25916.75
541.12	25811.43
541.29	25734.19
541.46	25738.87
541.62	26122.72
541.79	26279.54
541.96	25862.92
542.13	26106.34
542.30	25811.43
542.47	26583.80
542.63	26059.52
542.80	26319.32
542.97	26579.12
543.14	26593.17
543.31	26183.57
543.48	26415.29
543.64	26668.06
543.81	26775.73
543.98	26698.49
544.15	26597.85
544.32	26202.30
544.48	26869.35
544.65	26815.52
544.82	26412.95
544.99	26328.69
545.16	26630.62
545.32	26618.91
545.49	26785.09
545.66	26984.04
545.83	27101.06
546.00	27136.17
546.16	27075.32
546.33	26792.11
546.50	26441.03
546.67	27016.80
546.83	26740.62
547.00	26768.71
547.17	26965.31
547.34	27136.17
547.50	27143.19
547.67	27501.29
547.84	27171.28
548.00	27285.97
548.17	27557.47
548.34	27084.68
548.51	27463.85
548.67	27658.11
548.84	27768.12
549.01	27461.51
549.18	27304.69
549.34	27445.12
549.51	26969.99
549.68	27239.15
549.84	27461.51
550.01	27910.89
550.18	27302.35
550.34	27473.21
550.51	27599.60
550.68	27950.68
550.84	27220.43
551.01	27735.35
551.18	27625.34
551.34	27559.81
551.51	27627.68
551.68	28070.04
551.84	27974.08
552.01	28149.62
552.18	27920.25
552.34	28077.07
552.51	27861.74
552.68	27662.79
552.84	28023.23
553.01	28004.51
553.18	27969.40
553.34	28205.80
553.51	28187.07
553.67	28102.81
553.84	28341.55
554.01	28114.52
554.17	28371.97
554.34	28063.02
554.51	28348.57
554.67	27847.69
554.84	28093.45
555.00	28025.57
555.17	28114.52
555.33	28435.17
555.50	28194.09
555.67	28404.74
555.83	28301.76
556.00	28147.28
556.16	28608.37
556.33	28126.22
556.50	28594.32
556.66	29132.65
556.83	28561.56
556.99	28809.65
557.16	28456.23
557.32	28795.61
557.49	28802.63
557.65	28196.43
557.82	28858.81
557.98	28802.63
558.15	28636.45
558.32	28783.91
558.48	28615.39
558.65	29127.97
558.81	29017.96
558.98	28903.28
559.14	28978.17
559.31	28610.71
559.47	28819.02
559.64	28652.84
559.80	29029.66
559.97	28968.81
560.13	28790.93
560.30	28807.31
560.46	28931.36
560.63	28978.17
560.79	29097.54
560.96	28783.91
561.12	28980.51
561.29	28739.44
561.45	28929.02
561.61	29399.47
561.78	29069.45
561.94	29160.73
562.11	29235.63
562.27	28919.66
562.44	28917.32
562.60	29214.57
562.77	28910.30
562.93	28800.29
563.10	29226.27
563.26	29057.75
563.42	29567.99
563.59	29329.25
563.75	29081.16
563.92	29404.15
564.08	29298.83
564.24	29195.84
564.41	29336.27
564.57	29544.58
564.74	29303.51
564.90	29600.76
565.07	29652.25
565.23	29369.04
565.39	29310.53
565.56	29589.05
565.72	29481.39
565.88	29064.77
566.05	29144.35
566.21	29436.92
566.38	29214.57
566.54	29296.49
566.70	29743.53
566.87	29399.47
567.03	29317.55
567.19	29820.77
567.36	29802.04
567.52	29710.76
567.68	29663.95
567.85	29329.25
568.01	29352.66
568.17	30033.75
568.34	29563.31
568.50	29329.25
568.66	29546.92
568.83	29788.00
568.99	29837.15
569.15	29825.45
569.32	29546.92
569.48	29298.83
569.64	29745.87
569.81	29951.84
569.97	29593.73
570.13	30061.84
570.30	29759.91
570.46	29560.97
570.62	29795.02
570.78	29614.80
570.95	29792.68
571.11	29830.13
571.27	29792.68
571.43	29486.07
571.60	30064.18
571.76	29303.51
571.92	29525.86
572.09	29956.52
572.25	30106.31
572.41	29914.39
572.57	30291.21
572.74	29902.68
572.90	29563.31
573.06	29867.58
573.22	29493.09
573.38	29930.77
573.55	29736.51
573.71	29923.75
573.87	29982.26
574.03	29792.68
574.20	29846.51
574.36	29305.85
574.52	29797.36
574.68	29680.33
574.84	29956.52
575.01	29944.81
575.17	29783.32
575.33	29893.32
575.49	29780.98
575.65	30085.25
575.82	29968.22
575.98	29729.48
576.14	30270.15
576.30	29947.15
576.46	29989.28
576.62	29956.52
576.79	30052.48
576.95	30235.04
577.11	30087.59
577.27	30115.67
577.43	29888.64
577.59	30103.97
577.75	29919.07
577.92	29776.30
578.08	29795.02
578.24	29888.64
578.40	30218.66
578.56	29757.57
578.72	29963.54
578.88	30272.49
579.04	30012.69
579.21	30291.21
579.37	30391.86
579.53	30359.09
579.69	29649.91
579.85	29888.64
580.01	29865.24
580.17	29944.81
580.33	30129.72
580.49	30026.73
580.65	30068.86
580.82	30560.37
580.98	30174.19
581.14	30031.41
581.30	29879.28
581.46	30017.37
581.62	29998.65
581.78	29780.98
581.94	29930.77
582.10	29972.90
582.26	30064.18
582.42	30237.38
582.58	30136.74
582.74	30033.75
582.90	29696.72
583.06	30139.08
583.22	30183.55
583.38	30052.48
583.54	30237.38
583.70	30218.66
583.86	30204.61
584.02	30160.14
584.18	30389.52
584.34	30071.20
584.50	30235.04
584.66	29729.48
584.82	30094.61
584.98	30103.97
585.14	30113.33
585.30	30213.98
585.46	30431.65
585.62	29921.41
585.78	29933.11
585.94	30057.16
586.10	29902.68
586.26	30267.81
586.42	30246.74
586.58	30532.29
586.74	29937.79
586.90	30277.17
587.06	29795.02
587.22	30068.86
587.38	29544.58
587.54	30543.99
587.70	30672.72
587.86	30536.97
588.02	30300.58
588.18	30569.74
588.34	30253.76
588.49	30068.86
588.65	30394.20
588.81	30150.78
588.97	30469.09
589.13	30485.48
589.29	30197.59
589.45	30471.43
589.61	30672.72
589.77	30373.13
589.93	30618.89
590.08	30532.29
590.24	30525.27
590.40	30326.32
590.56	30644.63
590.72	30396.54
590.88	29982.26
591.04	30293.55
591.20	30801.45
591.35	30827.20
591.51	30859.96
591.67	30529.95
591.83	30759.32
591.99	30986.35
592.15	30719.53
592.31	30532.29
592.46	30492.50
592.62	30438.67
592.78	30160.14
592.94	30506.54
593.10	30609.53
593.26	31124.44
593.41	30874.01
593.57	30801.45
593.73	30644.63
593.89	30705.49
594.05	30768.68
594.20	30553.35
594.36	30831.88
594.52	30635.27
594.68	30679.74
594.84	30265.47
594.99	30689.10
595.15	30972.31
595.31	30658.68
595.47	30874.01
595.62	30661.02
595.78	30976.99
595.94	30738.26
596.10	30813.15
596.25	30363.77
596.41	30663.36
596.57	30738.26
596.73	30401.22
596.88	30426.96
597.04	30899.75
597.20	31171.25
597.36	30677.40
597.51	31168.91
597.67	30672.72
597.83	30565.06
597.99	30639.95
598.14	30808.47
598.30	30714.85
598.46	31063.59
598.61	30696.13
598.77	30670.38
598.93	30958.27
599.09	31103.38
599.24	30920.82
599.40	30808.47
599.56	31065.93
599.71	30911.46
599.87	30759.32
600.03	30464.41
600.18	31021.46
600.34	30789.75
600.50	30892.73
600.65	30452.71
600.81	30876.35
600.97	31098.70
601.12	31531.70
601.28	30827.20
601.44	30878.69
601.59	31147.85
601.75	31126.78
601.91	30890.39
602.06	31145.51
602.22	30834.22
602.37	30848.26
602.53	30677.40
602.69	31037.84
602.84	30815.49
603.00	30476.12
603.16	31075.29
603.31	30991.03
603.47	30398.88
603.62	30764.00
603.78	30733.57
603.94	30417.60
604.09	30565.06
604.25	30651.66
604.40	30733.57
604.56	30651.66
604.71	30689.10
604.87	30693.79
605.03	31016.78
605.18	30766.34
605.34	30932.52
605.49	30216.32
605.65	30721.87
605.80	30363.77
605.96	30969.97
606.12	30724.21
606.27	31091.68
606.43	30693.79
606.58	30976.99
606.74	30742.94
606.89	31033.16
607.05	30764.00
607.20	31014.44
607.36	30991.03
607.51	30642.29
607.67	30249.08
607.82	30661.02
607.98	30359.09
608.13	30546.33
608.29	30408.24
608.44	30682.08
608.60	30668.04
608.75	30937.20
608.91	30396.54
609.06	30663.36
609.22	30536.97
609.37	30265.47
609.53	30082.91
609.68	30391.86
609.84	30623.57
609.99	30394.20
610.15	30462.07
610.30	30422.28
610.46	30494.84
610.61	30586.12
610.76	30349.73
610.92	30382.49
611.07	30728.89
611.23	30199.93
611.38	30609.53
611.54	30118.01
611.69	29977.58
611.84	30092.27
612.00	30052.48
612.15	30256.11
612.31	30948.90
612.46	30321.64
612.62	30443.35
612.77	30560.37
612.92	30874.01
613.08	30511.22
613.23	30504.20
613.39	30422.28
613.54	29958.86
613.69	30380.15
613.85	30281.85
614.00	30153.12
614.15	30347.39
614.31	30066.52
614.46	30176.53
614.62	30384.83
614.77	30635.27
614.92	30153.12
615.08	30115.67
615.23	30153.12
615.38	30323.98
615.54	30155.46
615.69	29830.13
615.84	29488.41
616.00	29940.13
616.15	29883.96
616.30	30471.43
616.46	29837.15
616.61	29890.98
616.76	30246.74
616.92	29989.28
617.07	29982.26
617.22	29996.31
617.37	30078.22
617.53	29888.64
617.68	30052.48
617.83	29483.73
617.99	29717.78
618.14	30153.12
618.29	29846.51
618.45	29795.02
618.60	29879.28
618.75	29841.83
618.90	29809.06
619.06	29883.96
619.21	29752.89
619.36	29692.04
619.51	29425.22
619.67	29214.57
619.82	29851.19
619.97	29626.50
620.12	29399.47
620.28	29486.07
620.43	29598.41
620.58	29979.92
620.73	29799.70
620.89	29717.78
621.04	29912.05
621.19	29682.67
621.34	30029.07
621.49	29593.73
621.65	29523.52
621.80	29813.74
621.95	29205.20
622.10	29467.34
622.25	29577.35
622.41	29502.45
622.56	29291.80
622.71	29490.75
622.86	29809.06
623.01	29614.80
623.16	29457.98
623.32	29223.93
623.47	29507.13
623.62	29254.36
623.77	29186.48
623.92	29015.62
624.07	28992.22
624.23	29317.55
624.38	29034.35
624.53	29237.97
624.68	29310.53
624.83	29425.22
624.98	29589.05
625.13	29010.94
625.29	29544.58
625.44	29041.37
625.59	29195.84
625.74	28898.59
625.89	28680.92
626.04	28811.99
626.19	28929.02
626.34	29219.25
626.49	28856.46
626.65	29015.62
626.80	28982.85
626.95	29144.35
627.10	28704.33
627.25	29209.89
627.40	28800.29
627.55	28437.51
627.70	28727.74
627.85	28549.85
628.00	28624.75
628.15	28615.39
628.30	28191.75
628.45	28477.30
628.60	28734.76
628.76	28978.17
628.91	28975.83
629.06	28446.87
629.21	28444.53
629.36	28823.70
629.51	28783.91
629.66	28425.81
629.81	28072.39
629.96	28692.63
630.11	28432.83
630.26	28489.00
630.41	28229.20
630.56	28304.10
630.71	28573.26
630.86	28191.75
631.01	28489.00
631.16	28584.96
631.31	28470.28
631.46	27948.34
631.61	28100.47
631.76	28259.63
631.91	28215.16
632.06	28177.71
632.21	28123.88
632.36	28409.42
632.51	27927.27
632.66	28240.90
632.81	28105.15
632.96	27985.79
633.10	28201.11
633.25	28423.47
633.40	28507.72
633.55	28229.20
633.70	28224.52
633.85	28023.23
634.00	27903.87
634.15	27969.40
634.30	28320.48
634.45	28198.77
634.60	27997.49
634.75	27697.90
634.90	27817.27
635.05	27901.53
635.19	28046.64
635.34	27835.99
635.49	28245.58
635.64	28194.09
635.79	27936.63
635.94	27538.74
636.09	27828.97
636.24	27344.48
636.39	27885.14
636.53	27901.53
636.68	27555.13
636.83	27578.53
636.98	27716.62
637.13	27688.54
637.28	27941.32
637.43	27927.27
637.57	27700.24
637.72	27660.45
637.87	27812.59
638.02	27400.65
638.17	27810.25
638.32	27218.09
638.46	27487.25
638.61	27548.11
638.76	27395.97
638.91	27386.61
639.06	27297.67
639.20	27494.27
639.35	27700.24
639.50	27531.72
639.65	27725.99
639.80	27637.05
639.94	27136.17
640.09	27805.56
640.24	27557.47
640.39	27550.45
640.54	27449.80
640.68	27402.99
640.83	27232.13
640.98	27346.82
641.13	27042.55
641.27	27309.37
641.42	27197.02
641.57	27199.37
641.72	26909.14
641.86	27145.53
642.01	26892.76
642.16	27201.71
642.31	26834.24
642.45	27466.19
642.60	27140.85
642.75	26799.13
642.90	26955.95
643.04	26932.54
643.19	26426.99
643.34	26764.03
643.48	26909.14
643.63	27115.11
643.78	26852.97
643.93	27026.17
644.07	26845.94
644.22	27187.66
644.37	26710.19
644.51	27009.78
644.66	26778.07
644.81	26696.15
644.95	26867.01
645.10	26724.24
645.25	26925.52
645.39	26867.01
645.54	26775.73
645.69	26874.03
645.83	26508.91
645.98	27040.21
646.13	26897.44
646.27	26890.41
646.42	26539.33
646.57	26700.83
646.71	26305.28
646.86	26354.43
647.00	26668.06
647.15	26286.56
647.30	26471.46
647.44	26504.23
647.59	26412.95
647.74	26298.26
647.88	26452.73
648.03	26527.63
648.17	26668.06
648.32	26794.45
648.47	26813.18
648.61	26848.29
648.76	26185.91
648.90	26532.31
649.05	26569.76
649.20	26340.39
649.34	26527.63
649.49	25750.57
649.63	26178.89
649.78	26005.69
649.92	26024.42
650.07	26654.02
650.21	26466.78
650.36	25900.37
650.51	26237.41
650.65	26103.99
650.80	26258.47
650.94	26281.88
651.09	26155.49
651.23	25846.54
651.38	25891.01
651.52	26211.66
651.67	25956.54
651.81	26274.85
651.96	25907.39
652.10	26272.51
652.25	26003.35
652.39	26064.21
652.54	26150.81
652.68	26146.12
652.83	25900.37
652.97	26466.78
653.12	25745.89
653.26	26017.40
653.41	25855.90
653.55	25755.26
653.70	26010.37
653.84	25923.77
653.99	25593.76
654.13	25860.58
654.27	25516.52
654.42	25813.77
654.56	25699.08
654.71	25853.56
654.85	25682.70
655.00	25907.39
655.14	25900.37
655.29	25673.34
655.43	25591.42
655.57	25535.24
655.72	25671.00
655.86	25434.60
656.01	25415.88
656.15	25647.59
656.30	25586.74
656.44	25579.71
656.58	25275.45
656.73	25338.64
656.87	25558.65
657.01	25469.71
657.16	25809.09
657.30	25986.97
657.45	25781.00
657.59	25647.59
657.73	25329.28
657.88	25106.93
658.02	25465.03
658.16	25462.69
658.31	25209.91
658.45	25223.95
658.60	24746.48
658.74	25179.48
658.88	25177.14
659.03	24994.58
659.17	25223.95
659.31	25046.07
659.46	25333.96
659.60	25088.20
659.74	25202.89
659.89	25020.33
660.03	25156.08
660.17	25270.76
660.32	25032.03
660.46	24624.78
660.60	24601.37
660.74	24954.79
660.89	24748.82
661.03	24421.15
661.17	24945.43
661.32	24589.67
661.46	24774.57
661.60	24751.17
661.74	24524.13
661.89	25055.43
662.03	24877.55
662.17	24379.02
662.31	24266.67
662.46	24276.04
662.60	24283.06
662.74	24175.39
662.88	24409.45
663.03	24147.31
663.17	24025.60
663.31	23913.25
663.45	24376.68
663.60	24327.53
663.74	24121.56
663.88	24245.61
664.02	23943.68
664.17	24198.80
664.31	23740.05
664.45	23878.15
664.59	23604.30
664.73	24294.76
664.88	23831.33
665.02	23793.89
665.16	23711.97
665.30	23606.64
665.44	23550.47
665.59	23328.12
665.73	23735.37
665.87	23339.82
666.01	23859.42
666.15	23807.93
666.29	23618.35
666.44	23398.34
666.58	23374.93
666.72	23311.74
666.86	23594.94
667.00	23391.31
667.14	23328.12
667.28	23379.61
667.43	23150.24
667.57	23360.89
667.71	23232.16
667.85	23197.05
667.99	23136.20
668.13	23166.62
668.27	22604.89
668.41	23103.43
668.56	22869.37
668.70	23051.94
668.84	23143.22
668.98	23136.20
669.12	23023.85
669.26	22647.02
669.40	22944.27
669.54	22930.23
669.68	22801.50
669.82	22696.17
669.96	22436.38
670.10	22214.02
670.25	22396.59
670.39	22651.70
670.53	22712.56
670.67	22574.47
670.81	22506.59
670.95	22668.09
671.09	22476.16
671.23	22373.18
671.37	22532.34
671.51	22581.49
671.65	22679.79
671.79	22553.40
671.93	22209.34
672.07	22122.74
672.21	22204.66
672.35	21949.54
672.49	21816.13
672.63	22005.72
672.77	21617.19
672.91	21886.35
673.05	21916.78
673.19	22211.68
673.33	22324.03
673.47	21516.54
673.61	22061.89
673.75	21455.69
673.89	21603.14
674.03	21923.80
674.17	21853.58
674.31	21458.03
674.45	21652.30
674.59	21252.06
674.73	21514.20
674.87	21385.47
675.01	21326.96
675.15	21022.69
675.29	21408.88
675.43	21179.51
675.56	20924.39
675.70	21289.51
675.84	20889.28
675.98	20563.95
676.12	21231.00
676.26	21160.78
676.40	20776.94
676.54	20877.58
676.68	20959.50
676.82	20283.08
676.96	20683.31
677.10	20381.38
677.23	20545.22
677.37	20390.75
677.51	20381.38
677.65	20388.41
677.79	20252.66
677.93	20063.07
678.07	19978.81
678.21	19929.66
678.34	19730.72
678.48	19800.93
678.62	20070.09
678.76	20027.96
678.90	19653.48
679.04	19932.00
679.18	19749.44
679.31	19700.29
679.45	19515.39
679.59	19351.55
679.73	19077.71
679.87	19166.65
680.00	19110.47
680.14	19396.02
680.28	19143.24
680.42	19555.18
680.56	19264.95
680.70	19157.28
680.83	19241.54
680.97	19056.64
681.11	19157.28
681.25	19276.65
681.39	18834.29
681.52	19166.65
681.66	18785.14
681.80	18558.11
681.94	18569.81
682.07	18654.07
682.21	18221.07
682.35	18473.85
682.49	18541.72
682.62	18209.37
682.76	18218.73
682.90	18410.65
683.04	18211.71
683.17	18272.56
683.31	18127.45
683.45	18375.55
683.59	18274.90
683.72	18071.28
683.86	17781.05
684.00	17577.42
684.13	17830.20
684.27	17734.24
684.41	17720.20
684.55	17369.12
684.68	17500.19
684.82	17317.62
684.96	17469.76
685.09	17312.94
685.23	17142.08
685.37	17064.85
685.50	17256.77
685.64	17202.94
685.78	17114.00
685.91	17081.23
686.05	17142.08
686.19	17219.32
686.32	17092.93
686.46	16800.37
686.60	16718.45
686.73	16985.27
686.87	16727.81
687.01	16732.49
687.14	16374.39
687.28	16393.11
687.42	16400.13
687.55	16358.00
687.69	16350.98
687.82	16166.08
687.96	16287.79
688.10	16198.85
688.23	16133.31
688.37	16004.58
688.50	16037.35
688.64	16126.29
688.78	16053.73
688.91	16128.63
689.05	15845.43
689.18	15843.09
689.32	15548.18
689.46	15756.49
689.59	15580.95
689.73	15578.61
689.86	15487.32
690.00	15428.81
690.13	15522.43
690.27	15492.01
690.41	15241.57
690.54	15372.64
690.68	15269.66
690.81	15246.25
690.95	15187.74
691.08	15159.65
691.22	15190.08
691.35	15042.62
691.49	14820.27
691.62	15066.03
691.76	14883.47
691.89	14853.04
692.03	14839.00
692.16	14443.45
692.30	14504.30
692.43	14579.20
692.57	14363.87
692.70	14190.67
692.84	14410.68
692.97	14345.14
693.11	14286.63
693.24	14277.27
693.38	14354.51
693.51	14207.05
693.65	14108.75
693.78	14188.33
693.92	13799.80
694.05	13830.23
694.19	13650.00
694.32	13752.99
694.45	13820.86
694.59	13401.91
694.72	13645.32
694.86	13830.23
694.99	13322.33
695.13	13263.82
695.26	13497.87
695.39	13329.35
695.53	13282.54
695.66	13275.52
695.80	13350.42
695.93	13219.35
696.07	13200.62
696.20	13008.70
696.33	12985.29
696.47	12957.21
696.60	12896.35
696.73	12779.32
696.87	12917.42
697.00	12690.38
697.14	12542.93
697.27	12367.39
697.40	12566.34
697.54	12685.70
697.67	12257.39
697.80	12351.01
697.94	12500.80
698.07	12147.38
698.21	12023.33
698.34	12416.54
698.47	12131.00
698.61	11910.99
698.74	12351.01
698.87	12152.06
699.01	12152.06
699.14	11955.46
699.27	11892.26
699.40	11934.39
699.54	11925.03
699.67	11871.20
699.80	11939.07
699.94	11606.72
700.07	11545.86
700.20	11522.46
700.34	11375.00
700.47	11344.58
700.60	11375.00
700.73	11393.73
700.87	11571.61
701.00	11269.68
701.13	11204.14
701.26	11241.59
701.40	11274.36
701.53	11293.08
701.66	11391.39
701.79	11103.50
701.93	10944.34
702.06	10775.83
702.19	10693.91
702.32	10839.02
702.46	10445.81
702.59	10464.54
702.72	10644.76
702.85	10413.04
702.99	10567.52
703.12	10431.77
703.25	10303.04
703.38	10272.61
703.51	10394.32
703.65	10422.41
703.78	10090.05
703.91	10218.78
704.04	10333.47
704.17	10466.88
704.31	10361.55
704.44	10080.69
704.57	10118.14
704.70	9966.00
704.83	9923.87
704.96	9790.46
705.10	9942.60
705.23	9813.87
>>>>>End Processed Spectral Data<<<<<
