SpectraSuite Data File
++++++++++++++++++++++++++++++++++++
Date: Fri Oct 18 13:58:38 GMT-05:00 2013
User: bianchi
Dark Spectrum Present: No
Reference Spectrum Present: No
Number of Sampled Component Spectra: 1
Spectrometers: USB2+H05261
Integration Time (usec): 50000 (USB2+H05261)
Spectra Averaged: 1 (USB2+H05261)
Boxcar Smoothing: 0 (USB2+H05261)
Correct for Electrical Dark: No (USB2+H05261)
Strobe/Lamp Enabled: No (USB2+H05261)
Correct for Detector Non-linearity: No (USB2+H05261)
Correct for Stray Light: No (USB2+H05261)
Number of Pixels in Processed Spectrum: 2048
>>>>>Begin Processed Spectral Data<<<<<
365.73	0.00
365.92	0.00
366.12	0.00
366.32	0.00
366.52	0.00
366.72	0.00
366.91	0.00
367.11	0.00
367.31	0.00
367.51	0.00
367.70	0.00
367.90	0.00
368.10	0.00
368.30	0.00
368.49	0.00
368.69	0.00
368.89	0.00
369.09	0.00
369.28	0.00
369.48	0.00
369.68	0.00
369.87	0.00
370.07	0.00
370.27	0.00
370.47	0.00
370.66	46.81
370.86	156.82
371.06	95.96
371.25	112.35
371.45	128.73
371.65	156.82
371.84	149.79
372.04	133.41
372.24	208.31
372.44	138.09
372.63	173.20
372.83	198.95
373.03	220.01
373.22	210.65
373.42	236.39
373.62	154.48
373.81	170.86
374.01	287.89
374.21	229.37
374.40	255.12
374.60	243.42
374.79	191.92
374.99	313.63
375.19	297.25
375.38	322.99
375.58	269.16
375.78	250.44
375.97	266.82
376.17	250.44
376.37	236.39
376.56	318.31
376.76	245.76
376.95	245.76
377.15	257.46
377.35	313.63
377.54	304.27
377.74	330.02
377.93	299.59
378.13	241.08
378.33	285.55
378.52	304.27
378.72	245.76
378.91	320.65
379.11	322.99
379.31	297.25
379.50	269.16
379.70	330.02
379.89	297.25
380.09	292.57
380.28	315.97
380.48	304.27
380.68	355.76
380.87	383.85
381.07	266.82
381.26	290.23
381.46	365.12
381.65	365.12
381.85	351.08
382.04	315.97
382.24	308.95
382.43	339.38
382.63	271.50
382.83	332.36
383.02	297.25
383.22	376.83
383.41	358.10
383.61	315.97
383.80	339.38
384.00	390.87
384.19	397.89
384.39	360.44
384.58	245.76
384.78	402.57
384.97	306.61
385.17	374.49
385.36	418.96
385.56	369.80
385.75	411.93
385.95	404.91
386.14	407.25
386.34	348.74
386.53	468.11
386.72	393.21
386.92	442.36
387.11	454.06
387.31	358.10
387.50	416.62
387.70	444.70
387.89	395.55
388.09	397.89
388.28	444.70
388.48	423.64
388.67	414.27
388.86	423.64
389.06	421.30
389.25	512.58
389.45	454.06
389.64	400.23
389.84	493.85
390.03	503.22
390.22	461.09
390.42	484.49
390.61	521.94
390.81	531.30
391.00	514.92
391.19	468.11
391.39	425.98
391.58	489.17
391.78	433.00
391.97	491.51
392.16	519.60
392.36	517.26
392.55	543.00
392.75	463.43
392.94	547.69
393.13	575.77
393.33	510.24
393.52	573.43
393.71	587.47
393.91	500.87
394.10	594.50
394.29	543.00
394.49	535.98
394.68	596.84
394.88	617.90
395.07	608.54
395.26	615.56
395.46	622.58
395.65	608.54
395.84	601.52
396.04	667.05
396.23	664.71
396.42	613.22
396.62	678.76
396.81	664.71
397.00	697.48
397.19	638.97
397.39	592.16
397.58	657.69
397.77	610.88
397.97	634.29
398.16	662.37
398.35	788.76
398.55	702.16
398.74	704.50
398.93	683.44
399.12	730.25
399.32	704.50
399.51	716.20
399.70	779.40
399.90	732.59
400.09	697.48
400.28	734.93
400.47	746.63
400.67	770.04
400.86	748.97
401.05	760.67
401.24	826.21
401.44	678.76
401.63	903.45
401.82	821.53
402.01	856.64
402.21	880.04
402.40	854.30
402.59	873.02
402.78	851.96
402.97	880.04
403.17	903.45
403.36	884.72
403.55	887.06
403.74	814.51
403.93	835.57
404.13	905.79
404.32	931.53
404.51	966.64
404.70	929.19
404.89	908.13
405.09	905.79
405.28	978.34
405.47	1006.43
405.66	971.32
405.85	1039.20
406.05	1055.58
406.24	954.94
406.43	908.13
406.62	1001.75
406.81	1060.26
407.00	1067.28
407.20	919.83
407.39	1039.20
407.58	1020.47
407.77	1057.92
407.96	1039.20
408.15	1062.60
408.34	1032.18
408.54	999.41
408.73	1116.44
408.92	1107.07
409.11	1125.80
409.30	1013.45
409.49	1050.90
409.68	1116.44
409.87	1130.48
410.07	1139.84
410.26	1160.91
410.45	1198.35
410.64	1252.19
410.83	1228.78
411.02	1259.21
411.21	1266.23
411.40	1191.33
411.59	1291.98
411.78	1226.44
411.98	1282.61
412.17	1228.78
412.36	1273.25
412.55	1252.19
412.74	1336.45
412.93	1327.08
413.12	1254.53
413.31	1490.92
413.50	1366.87
413.69	1385.60
413.88	1493.26
414.07	1362.19
414.26	1418.36
414.45	1451.13
414.64	1448.79
414.83	1554.12
415.02	1558.80
415.22	1523.69
415.41	1535.39
415.60	1577.52
415.79	1586.88
415.98	1570.50
416.17	1591.56
416.36	1617.31
416.55	1612.63
416.74	1640.72
416.93	1607.95
417.12	1659.44
417.31	1727.32
417.50	1746.04
417.69	1682.85
417.88	1687.53
418.07	1715.61
418.26	1598.59
418.45	1823.28
418.64	1853.70
418.83	1877.11
419.02	1776.47
419.21	1851.36
419.39	1844.34
419.58	1863.07
419.77	1715.61
419.96	1783.49
420.15	1905.20
420.34	1870.09
420.53	1790.51
420.72	1933.28
420.91	1977.75
421.10	1996.48
421.29	1973.07
421.48	1823.28
421.67	1907.54
421.86	1952.01
422.05	2022.22
422.24	1987.11
422.43	2071.37
422.61	1895.83
422.80	2038.61
422.99	2010.52
423.18	2054.99
423.37	2054.99
423.56	2076.06
423.75	2031.58
423.94	1975.41
424.13	1877.11
424.32	1994.14
424.50	1987.11
424.69	2069.03
424.88	2054.99
425.07	1975.41
425.26	1987.11
425.45	1987.11
425.64	2026.90
425.83	2069.03
426.01	2078.40
426.20	2083.08
426.39	1956.69
426.58	2141.59
426.77	2085.42
426.96	2062.01
427.15	1998.82
427.33	2111.16
427.52	2019.88
427.71	2045.63
427.90	2139.25
428.09	2193.08
428.28	2148.61
428.46	2221.17
428.65	2251.60
428.84	2160.31
429.03	2289.04
429.22	2237.55
429.40	2228.19
429.59	2260.96
429.78	2125.21
429.97	2031.58
430.16	2209.47
430.34	2270.32
430.53	2326.49
430.72	2286.70
430.91	2354.58
431.10	2312.45
431.28	2363.94
431.47	2242.23
431.66	2277.34
431.85	2237.55
432.03	2389.69
432.22	2504.37
432.41	2438.84
432.60	2553.52
432.79	2303.09
432.97	2476.29
433.16	2469.27
433.35	2389.69
433.54	2476.29
433.72	2532.46
433.91	2459.90
434.10	2459.90
434.28	2506.71
434.47	2527.78
434.66	2569.91
434.85	2640.12
435.03	2621.40
435.22	2586.29
435.41	2700.98
435.59	2715.02
435.78	2576.93
435.97	2616.72
436.16	2644.81
436.34	2551.18
436.53	2518.42
436.72	2670.55
436.90	2569.91
437.09	2724.38
437.28	2565.23
437.46	2675.23
437.65	2675.23
437.84	2846.09
438.02	2778.22
438.21	2841.41
438.40	2773.53
438.58	2913.97
438.77	2958.44
438.96	2876.52
439.14	2930.35
439.33	2939.71
439.52	2944.39
439.70	3049.72
439.89	3016.95
440.08	3117.59
440.26	3047.38
440.45	2942.05
440.63	3094.19
440.82	3124.62
441.01	3171.43
441.19	3129.30
441.38	3180.79
441.57	3112.91
441.75	3206.53
441.94	3164.40
442.12	3316.54
442.31	3232.28
442.50	3171.43
442.68	3363.35
442.87	3239.30
443.05	3346.97
443.24	3307.18
443.43	3478.04
443.61	3304.84
443.80	3583.36
443.98	3382.07
444.17	3206.53
444.35	3480.38
444.54	3480.38
444.73	3445.27
444.91	3503.78
445.10	3403.14
445.28	3480.38
445.47	3431.23
445.65	3489.74
445.84	3391.44
446.02	3405.48
446.21	3419.52
446.39	3424.20
446.58	3501.44
446.77	3445.27
446.95	3454.63
447.14	3442.93
447.32	3513.14
447.51	3538.89
447.69	3459.31
447.88	3438.25
448.06	3400.80
448.25	3398.46
448.43	3529.53
448.62	3417.18
448.80	3651.24
448.99	3578.68
449.17	3431.23
449.36	3400.80
449.54	3595.06
449.73	3613.79
449.91	3730.81
450.10	3557.61
450.28	3709.75
450.46	3761.24
450.65	3726.13
450.83	3742.52
451.02	3623.15
451.20	3709.75
451.39	3859.54
451.57	3829.12
451.76	3742.52
451.94	3730.81
452.13	3885.29
452.31	3904.01
452.49	3721.45
452.68	3833.80
452.86	3719.11
453.05	3995.29
453.23	4028.06
453.42	3798.69
453.60	3770.60
453.78	3852.52
453.97	3817.41
454.15	3882.95
454.34	3925.08
454.52	4032.74
454.70	3946.14
454.89	4133.39
455.07	4014.02
455.26	4093.60
455.44	4117.00
455.62	4037.42
455.81	4112.32
455.99	3964.87
456.17	4095.94
456.36	4283.18
456.54	4280.84
456.73	4238.71
456.91	4332.33
457.09	4248.07
457.28	4414.25
457.46	4432.97
457.64	4404.89
457.83	4311.27
458.01	4285.52
458.19	4440.00
458.38	4365.10
458.56	4484.47
458.74	4365.10
458.93	4423.61
459.11	4486.81
459.29	4327.65
459.48	4386.16
459.66	4372.12
459.84	4657.67
460.03	4498.51
460.21	4507.87
460.39	4573.41
460.57	4465.74
460.76	4521.92
460.94	4585.11
461.12	4594.47
461.31	4643.62
461.49	4695.11
461.67	4580.43
461.85	4840.23
462.04	4786.40
462.22	4798.10
462.40	4744.27
462.59	4767.67
462.77	4887.04
462.95	4798.10
463.13	4809.80
463.32	4894.06
463.50	4767.67
463.68	4917.47
463.86	4947.89
464.05	4770.01
464.23	4823.84
464.41	5006.41
464.59	4741.93
464.78	4894.06
464.96	4746.61
465.14	4910.44
465.32	4919.81
465.50	4950.23
465.69	5041.51
465.87	4936.19
466.05	4915.12
466.23	4882.36
466.41	5064.92
466.60	5224.08
466.78	5006.41
466.96	5048.54
467.14	4933.85
467.32	5219.39
467.51	5313.02
467.69	4896.40
467.87	5081.30
468.05	5203.01
468.23	5069.60
468.41	5125.77
468.60	5090.67
468.78	5149.18
468.96	4940.87
469.14	5387.91
469.32	5320.04
469.50	5242.80
469.69	5387.91
469.87	5444.09
470.05	5392.59
470.23	5366.85
470.41	5453.45
470.59	5369.19
470.77	5380.89
470.95	5549.41
471.14	5500.26
471.32	5537.71
471.50	5596.22
471.68	5556.43
471.86	5607.92
472.04	5544.73
472.22	5685.16
472.40	5444.09
472.58	5598.56
472.77	5526.00
472.95	5750.70
473.13	6012.84
473.31	5947.30
473.49	5858.36
473.67	5846.66
473.85	5919.21
474.03	5816.23
474.21	5973.05
474.39	5982.41
474.57	6157.95
474.75	6101.78
474.93	6282.00
475.12	6179.01
475.30	6129.86
475.48	6040.92
475.66	6452.86
475.84	6333.49
476.02	6317.11
476.20	6445.84
476.38	6480.94
476.56	6476.26
476.74	6455.20
476.92	6658.82
477.10	6422.43
477.28	6668.19
477.46	6656.48
477.64	6661.16
477.82	6740.74
478.00	6909.26
478.18	6998.20
478.36	6967.77
478.54	6981.82
478.72	7052.03
478.90	7241.62
479.08	7098.84
479.26	7133.95
479.44	7316.51
479.62	7276.73
479.80	7377.37
479.98	7442.90
480.16	7604.40
480.34	7503.76
480.52	7679.30
480.70	7777.60
480.88	7747.17
481.06	7581.00
481.24	7634.83
481.41	7850.16
481.59	7915.69
481.77	8053.78
481.95	8016.33
482.13	8028.04
482.31	8042.08
482.49	8198.90
482.67	8149.75
482.85	8353.37
483.03	8416.57
483.21	8634.24
483.39	8711.47
483.57	8512.53
483.74	8683.39
483.92	8613.17
484.10	8580.40
484.28	8887.01
484.46	8854.25
484.64	9069.58
484.82	8917.44
485.00	9301.29
485.18	9069.58
485.35	9315.33
485.53	9451.08
485.71	9495.55
485.89	9624.28
486.07	9547.05
486.25	9657.05
486.43	9650.03
486.61	9631.30
486.78	9820.89
486.96	9865.36
487.14	10078.35
487.32	9937.91
487.50	10022.17
487.68	10204.74
487.85	10324.10
488.03	10352.19
488.21	10848.38
488.39	10649.44
488.57	10590.92
488.75	10785.19
488.92	10787.53
489.10	10974.77
489.28	11063.71
489.46	10993.50
489.64	10827.32
489.81	11162.01
489.99	11157.33
490.17	11407.77
490.35	11468.62
490.53	11676.93
490.70	11400.75
490.88	11688.64
491.06	11625.44
491.24	11892.26
491.41	11946.09
491.59	12154.40
491.77	12065.46
491.95	12063.12
492.13	12044.40
492.30	12428.24
492.48	12123.98
492.66	12479.74
492.84	12444.63
493.01	12575.70
493.19	12498.46
493.37	12554.63
493.54	12847.20
493.72	12795.71
493.90	12856.56
494.08	12980.61
494.25	13092.96
494.43	13088.28
494.61	13376.16
494.79	13308.29
494.96	13263.82
495.14	13231.05
495.32	13666.39
495.49	13493.19
495.67	13593.83
495.85	13877.04
496.02	13722.56
496.20	13853.63
496.38	13862.99
496.55	13907.46
496.73	14193.01
496.91	14001.08
497.09	14054.92
497.26	14277.27
497.44	14317.06
497.62	14345.14
497.79	14707.93
497.97	14389.61
498.14	14843.68
498.32	14710.27
498.50	14963.04
498.67	14815.59
498.85	14899.85
499.03	15026.24
499.20	15087.09
499.38	15049.64
499.56	14981.77
499.73	15363.28
499.91	15349.23
500.08	15520.09
500.26	15185.40
500.44	15648.82
500.61	15293.06
500.79	15391.36
500.97	15592.65
501.14	15822.02
501.32	15597.33
501.49	15786.91
501.67	15866.49
501.84	15920.32
502.02	16105.23
502.20	15817.34
502.37	15967.13
502.55	15932.03
502.72	16264.38
502.90	16264.38
503.07	16280.77
503.25	16379.07
503.43	16226.93
503.60	16482.05
503.78	16456.31
503.95	16718.45
504.13	16484.39
504.30	16437.58
504.48	16542.91
504.65	16575.67
504.83	16673.98
505.01	17200.60
505.18	16933.78
505.36	17270.81
505.53	16795.68
505.71	17095.27
505.88	17331.67
506.06	16973.56
506.23	17439.33
506.41	17336.35
506.58	17291.88
506.76	17167.83
506.93	17483.80
507.11	17085.91
507.28	17565.72
507.46	17547.00
507.63	17467.42
507.81	18017.44
507.98	17841.90
508.16	18005.74
508.33	17561.04
508.50	17869.99
508.68	17715.51
508.85	17921.48
509.03	18153.20
509.20	18300.65
509.38	18169.58
509.55	18455.12
509.73	18359.16
509.90	18207.03
510.08	18012.76
510.25	18387.25
510.42	18417.68
510.60	18633.00
510.77	18827.27
510.95	18810.89
511.12	18513.64
511.30	18558.11
511.47	18558.11
511.64	18986.43
511.82	18759.39
511.99	18733.65
512.17	19201.76
512.34	19035.58
512.51	19136.22
512.69	19243.88
512.86	19241.54
513.04	19679.22
513.21	19283.67
513.38	19428.79
513.56	19396.02
513.73	19419.42
513.90	19335.17
514.08	19482.62
514.25	19625.39
514.43	19962.43
514.60	19520.07
514.77	19681.56
514.95	19819.66
515.12	19990.52
515.29	19599.65
515.47	19836.04
515.64	20095.84
515.81	20088.82
515.99	20009.24
516.16	20580.33
516.33	20346.28
516.51	20556.93
516.68	20203.50
516.85	20280.74
517.03	20467.98
517.20	20327.55
517.37	20573.31
517.54	20428.20
517.72	20746.51
517.89	20437.56
518.06	20372.02
518.24	20348.62
518.41	20453.94
518.58	20711.40
518.75	20828.43
518.93	20961.84
519.10	20896.30
519.27	21076.52
519.45	21151.42
519.62	21104.61
519.79	20985.24
519.96	21025.03
520.14	21039.08
520.31	21198.23
520.48	21270.79
520.65	21240.36
520.83	21577.40
521.00	21245.04
521.17	21289.51
521.34	21582.08
521.52	21675.70
521.69	21448.67
521.86	21841.88
522.03	22094.66
522.20	21741.24
522.38	21750.60
522.55	21638.25
522.72	21713.15
522.89	21898.05
523.07	22015.08
523.24	22106.36
523.41	22239.77
523.58	22190.62
523.75	22244.45
523.92	22106.36
524.10	21982.31
524.27	22263.18
524.44	22340.41
524.61	22281.90
524.78	22483.19
524.96	22459.78
525.13	22377.86
525.30	22309.99
525.47	22223.39
525.64	22401.27
525.81	22668.09
525.98	22944.27
526.16	22731.28
526.33	22260.84
526.50	23096.41
526.67	22677.45
526.84	22888.10
527.01	22735.96
527.18	22848.31
527.36	23206.41
527.53	23112.79
527.70	23431.10
527.87	23213.43
528.04	23023.85
528.21	23129.17
528.38	23616.01
528.55	23140.88
528.72	23197.05
528.89	23756.44
529.07	23410.04
529.24	23276.63
529.41	23585.58
529.58	23690.90
529.75	23281.31
529.92	23466.21
530.09	23274.29
530.26	23882.83
530.43	23489.62
530.60	23686.22
530.77	23489.62
530.94	23756.44
531.11	23754.10
531.28	23601.96
531.46	23770.48
531.63	23981.13
531.80	24051.34
531.97	23983.47
532.14	24374.34
532.31	24077.09
532.48	24259.65
532.65	23978.79
532.82	23981.13
532.99	24112.20
533.16	23943.68
533.33	24442.21
533.50	24257.31
533.67	24233.91
533.84	24514.77
534.01	24407.11
534.18	24196.46
534.35	24496.05
534.52	24456.26
534.69	24617.75
534.86	24671.59
535.03	24273.70
535.20	24563.92
535.37	24678.61
535.54	24566.26
535.71	24491.37
535.88	24458.60
536.05	24772.23
536.22	24793.29
536.38	24896.28
536.55	25074.16
536.72	24891.60
536.89	25238.00
537.06	25074.16
537.23	25158.42
537.40	24655.20
537.57	25095.22
537.74	25099.90
537.91	25289.49
538.08	24863.51
538.25	25020.33
538.42	25099.90
538.59	25378.43
538.75	25266.08
538.92	25305.87
539.09	25362.04
539.26	25502.48
539.43	25387.79
539.60	25759.94
539.77	25322.26
539.94	25603.12
540.11	25357.36
540.28	25745.89
540.44	25340.98
540.61	25537.59
540.78	25539.93
540.95	25717.81
541.12	25626.53
541.29	25371.41
541.46	25935.48
541.62	25495.46
541.79	25921.43
541.96	25305.87
542.13	25696.74
542.30	25876.96
542.47	25958.88
542.63	26363.79
542.80	25958.88
542.97	25951.86
543.14	26185.91
543.31	26221.02
543.48	26206.98
543.64	26506.57
543.81	26314.64
543.98	26529.97
544.15	26487.84
544.32	26354.43
544.48	26562.74
544.65	26518.27
544.82	26361.45
544.99	26405.92
545.16	26448.05
545.32	26529.97
545.49	26714.87
545.66	26773.39
545.83	27047.23
546.00	26972.33
546.16	26522.95
546.33	26450.39
546.50	26602.53
546.67	26941.91
546.83	26485.50
547.00	26560.40
547.17	27234.47
547.34	26682.11
547.50	26831.90
547.67	26953.61
547.84	27094.04
548.00	26902.12
548.17	26979.36
548.34	27124.47
548.51	27236.81
548.67	27072.98
548.84	27061.27
549.01	27129.15
549.18	26752.32
549.34	27215.75
549.51	27475.55
549.68	27103.40
549.84	27360.86
550.01	27337.46
550.18	27384.27
550.34	27236.81
550.51	27473.21
550.68	27384.27
550.84	27087.02
551.01	26969.99
551.18	27351.50
551.34	27665.13
551.51	27395.97
551.68	27557.47
551.84	27587.89
552.01	27524.70
552.18	27477.89
552.34	27620.66
552.51	27679.18
552.68	27843.01
552.84	27866.42
553.01	27772.80
553.18	27625.34
553.34	27751.73
553.51	28058.34
553.67	27892.16
553.84	28198.77
554.01	27845.35
554.17	28350.91
554.34	28161.33
554.51	28205.80
554.67	28283.03
554.84	27948.34
555.00	27733.01
555.17	28140.26
555.33	28018.55
555.50	28004.51
555.67	28058.34
555.83	28128.56
556.00	28158.99
556.16	28081.75
556.33	27868.76
556.50	28032.60
556.66	28549.85
556.83	28484.32
556.99	28442.19
557.16	28709.01
557.32	28276.01
557.49	28481.98
557.65	28203.46
557.82	28299.42
557.98	28046.64
558.15	28364.95
558.32	28496.02
558.48	28285.37
558.65	28638.80
558.81	28769.86
558.98	28519.43
559.14	28767.52
559.31	28673.90
559.47	28566.24
559.64	28559.22
559.80	28730.08
559.97	28734.76
560.13	28907.96
560.30	28926.68
560.46	28954.77
560.63	28697.31
560.79	28814.34
560.96	28973.49
561.12	28449.21
561.29	28510.07
561.45	28690.29
561.61	29132.65
561.78	28748.80
561.94	28931.36
562.11	28964.13
562.27	28725.39
562.44	28926.68
562.60	29230.95
562.77	28638.80
562.93	28929.02
563.10	28814.34
563.26	29029.66
563.42	29067.11
563.59	28641.14
563.75	28697.31
563.92	29076.48
564.08	28947.75
564.24	29120.95
564.41	28950.09
564.57	29024.98
564.74	28905.62
564.90	29291.80
565.07	28957.11
565.23	29273.08
565.39	28968.81
565.56	28849.44
565.72	29165.42
565.88	29029.66
566.05	28966.47
566.21	29233.29
566.38	29102.22
566.54	29205.20
566.70	29596.07
566.87	29605.44
567.03	29237.97
567.19	29408.83
567.36	29624.16
567.52	28793.27
567.68	29256.70
567.85	29230.95
568.01	29413.51
568.17	28982.85
568.34	29401.81
568.50	29401.81
568.66	29553.94
568.83	29663.95
568.99	29460.32
569.15	29383.09
569.32	29542.24
569.48	29149.03
569.64	29261.38
569.81	29277.76
569.97	29340.96
570.13	29399.47
570.30	29106.90
570.46	29214.57
570.62	29448.62
570.78	29237.97
570.95	29270.74
571.11	29149.03
571.27	29294.14
571.43	29495.43
571.60	29308.19
571.76	29280.10
571.92	29521.18
572.09	29507.13
572.25	29572.67
572.41	29357.34
572.57	29495.43
572.74	29841.83
572.90	29289.46
573.06	29207.55
573.22	29301.17
573.38	29542.24
573.55	29219.25
573.71	29692.04
573.87	29710.76
574.03	29600.76
574.20	29539.90
574.36	29465.00
574.52	29359.68
574.68	29284.78
574.84	29839.49
575.01	29359.68
575.17	29921.41
575.33	29535.22
575.49	29418.19
575.65	29628.84
575.82	29434.58
575.98	29422.87
576.14	29846.51
576.30	29677.99
576.46	29518.84
576.62	29343.30
576.79	29703.74
576.95	29418.19
577.11	29406.49
577.27	29483.73
577.43	29895.66
577.59	29839.49
577.75	29848.85
577.92	29542.24
578.08	29177.12
578.24	29277.76
578.40	29680.33
578.56	29872.26
578.72	29766.93
578.88	29965.88
579.04	30258.45
579.21	30036.09
579.37	30108.65
579.53	29497.77
579.69	29523.52
579.85	29628.84
580.01	29577.35
580.17	29528.20
580.33	29291.80
580.49	29635.86
580.65	29582.03
580.82	29937.79
580.98	29811.40
581.14	29689.70
581.30	29883.96
581.46	29638.20
581.62	29881.62
581.78	29598.41
581.94	29586.71
582.10	29792.68
582.26	29848.85
582.42	29996.31
582.58	29713.10
582.74	30075.88
582.90	29930.77
583.06	30260.79
583.22	29928.43
583.38	29699.06
583.54	29750.55
583.70	29930.77
583.86	29933.11
584.02	29916.73
584.18	30291.21
584.34	29916.73
584.50	29963.54
584.66	29720.12
584.82	29853.53
584.98	30141.42
585.14	29624.16
585.30	29553.94
585.46	29766.93
585.62	29788.00
585.78	29979.92
585.94	29755.23
586.10	29975.24
586.26	29757.57
586.42	30176.53
586.58	30188.23
586.74	29895.66
586.90	30024.39
587.06	29816.08
587.22	29685.01
587.38	29549.26
587.54	30064.18
587.70	30033.75
587.86	30150.78
588.02	30232.70
588.18	30405.90
588.34	30169.51
588.49	30223.34
588.65	30291.21
588.81	29963.54
588.97	29741.19
589.13	29961.20
589.29	30071.20
589.45	30094.61
589.61	30232.70
589.77	30394.20
589.93	30614.21
590.08	30101.63
590.24	30260.79
590.40	30382.49
590.56	30010.35
590.72	30127.38
590.88	29809.06
591.04	30157.80
591.20	30312.28
591.35	30361.43
591.51	30735.92
591.67	30464.41
591.83	30328.66
591.99	30167.16
592.15	30352.07
592.31	30366.11
592.46	30110.99
592.62	30246.74
592.78	30038.44
592.94	30253.76
593.10	30244.40
593.26	30565.06
593.41	30785.07
593.57	30272.49
593.73	30349.73
593.89	30682.08
594.05	30824.86
594.20	30658.68
594.36	30260.79
594.52	30213.98
594.68	30127.38
594.84	30412.92
594.99	30167.16
595.15	30527.61
595.31	30518.25
595.47	30171.85
595.62	30148.44
595.78	30541.65
595.94	30499.52
596.10	30284.19
596.25	30235.04
596.41	29968.22
596.57	30080.56
596.73	30026.73
596.88	30071.20
597.04	30178.87
597.20	30661.02
597.36	30380.15
597.51	30754.64
597.67	30731.23
597.83	30370.79
597.99	30740.60
598.14	30146.10
598.30	30139.08
598.46	30288.87
598.61	30490.16
598.77	29685.01
598.93	30508.88
599.09	30457.39
599.24	30752.30
599.40	31028.48
599.56	30689.10
599.71	30232.70
599.87	30625.91
600.03	30319.30
600.18	30148.44
600.34	30155.46
600.50	30373.13
600.65	30611.87
600.81	30682.08
600.97	30780.39
601.12	30742.94
601.28	30712.51
601.44	30642.29
601.59	30508.88
601.75	30040.78
601.91	30380.15
602.06	30448.03
602.22	30541.65
602.37	30043.12
602.53	30209.29
602.69	30422.28
602.84	30366.11
603.00	30506.54
603.16	30270.15
603.31	30565.06
603.47	30600.16
603.62	30452.71
603.78	30265.47
603.94	30733.57
604.09	30314.62
604.25	30476.12
604.40	30534.63
604.56	30419.94
604.71	30543.99
604.87	30628.25
605.03	30799.11
605.18	30562.72
605.34	30520.59
605.49	30171.85
605.65	30307.60
605.80	30352.07
605.96	30450.37
606.12	30141.42
606.27	30396.54
606.43	30050.14
606.58	30082.91
606.74	30143.76
606.89	30366.11
607.05	30665.70
607.20	30115.67
607.36	30733.57
607.51	30298.23
607.67	30199.93
607.82	29902.68
607.98	30031.41
608.13	30146.10
608.29	30129.72
608.44	30099.29
608.60	30015.03
608.75	30244.40
608.91	30431.65
609.06	30448.03
609.22	30567.40
609.37	30288.87
609.53	30211.64
609.68	30075.88
609.84	30396.54
609.99	30113.33
610.15	30160.14
610.30	29963.54
610.46	29862.90
610.61	30319.30
610.76	30312.28
610.92	29963.54
611.07	30417.60
611.23	29916.73
611.38	30071.20
611.54	30216.32
611.69	29930.77
611.84	30101.63
612.00	30235.04
612.15	29832.47
612.31	30302.92
612.46	30408.24
612.62	30373.13
612.77	30267.81
612.92	30192.91
613.08	30043.12
613.23	30132.06
613.39	30019.71
613.54	29626.50
613.69	29872.26
613.85	29748.21
614.00	29937.79
614.15	30038.44
614.31	29670.97
614.46	30148.44
614.62	29589.05
614.77	29799.70
614.92	29958.86
615.08	29668.63
615.23	29696.72
615.38	29460.32
615.54	29834.81
615.69	29663.95
615.84	29876.94
616.00	29797.36
616.15	29757.57
616.30	29923.75
616.46	29661.61
616.61	29998.65
616.76	29741.19
616.92	29673.31
617.07	29736.51
617.22	28898.59
617.37	29518.84
617.53	29481.39
617.68	29514.16
617.83	29488.41
617.99	29273.08
618.14	29282.44
618.29	29476.71
618.45	29493.09
618.60	29455.64
618.75	29427.56
618.90	29935.45
619.06	29596.07
619.21	29788.00
619.36	29259.04
619.51	29046.05
619.67	29055.41
619.82	29060.09
619.97	29125.63
620.12	29130.31
620.28	28987.53
620.43	29439.26
620.58	29436.92
620.73	29490.75
620.89	29530.54
621.04	29106.90
621.19	28933.70
621.34	29406.49
621.49	28900.94
621.65	29015.62
621.80	29092.86
621.95	28769.86
622.10	29083.50
622.25	29032.00
622.41	28936.04
622.56	29172.44
622.71	29095.20
622.86	29116.26
623.01	28994.56
623.16	29476.71
623.32	28891.57
623.47	28807.31
623.62	29088.18
623.77	28730.08
623.92	29137.33
624.07	28758.16
624.23	28610.71
624.38	29179.46
624.53	29081.16
624.68	28797.95
624.83	29369.04
624.98	29198.18
625.13	28870.51
625.29	28624.75
625.44	28854.12
625.59	28760.50
625.74	28421.13
625.89	28350.91
626.04	28737.10
626.19	28697.31
626.34	28367.29
626.49	28166.01
626.65	28498.36
626.80	28758.16
626.95	29104.56
627.10	28615.39
627.25	28498.36
627.40	28823.70
627.55	28325.16
627.70	28407.08
627.85	28678.58
628.00	28346.23
628.15	28559.22
628.30	28390.70
628.45	28367.29
628.60	28011.53
628.76	28601.35
628.91	28276.01
629.06	28158.99
629.21	28198.77
629.36	28491.34
629.51	28079.41
629.66	28039.62
629.81	28095.79
629.96	28388.36
630.11	28514.75
630.26	28198.77
630.41	28063.02
630.56	27833.65
630.71	28212.82
630.86	28009.19
631.01	28161.33
631.16	28233.88
631.31	28180.05
631.46	27431.08
631.61	28407.08
631.76	28067.70
631.91	27892.16
632.06	27517.68
632.21	27597.26
632.36	27765.78
632.51	27428.74
632.66	27992.81
632.81	27779.82
632.96	28081.75
633.10	27667.47
633.25	27859.40
633.40	28168.35
633.55	27953.02
633.70	27789.18
633.85	27639.39
634.00	27494.27
634.15	27501.29
634.30	27323.41
634.45	27615.98
634.60	27204.05
634.75	27669.81
634.90	27337.46
635.05	27768.12
635.19	27515.34
635.34	28041.96
635.49	27669.81
635.64	27843.01
635.79	27414.69
635.94	27445.12
636.09	27807.90
636.24	27463.85
636.39	27353.84
636.53	27398.31
636.68	27260.22
636.83	27618.32
636.98	27562.15
637.13	27321.07
637.28	27405.33
637.43	27604.28
637.57	27353.84
637.72	27234.47
637.87	27112.77
638.02	26984.04
638.17	27459.16
638.32	27143.19
638.46	27014.46
638.61	26806.16
638.76	27012.12
638.91	26836.58
639.06	27133.83
639.20	27433.42
639.35	27290.65
639.50	27253.20
639.65	26958.29
639.80	27276.60
639.94	27304.69
640.09	26764.03
640.24	27295.33
640.39	27103.40
640.54	26569.76
640.68	26941.91
640.83	27002.76
640.98	26588.49
641.13	26354.43
641.27	27082.34
641.42	26796.79
641.57	26920.84
641.72	26871.69
641.86	26981.70
642.01	26801.47
642.16	26960.63
642.31	26749.98
642.45	26639.98
642.60	26405.92
642.75	26583.80
642.90	26742.96
643.04	26775.73
643.19	26370.82
643.34	26878.71
643.48	27222.77
643.63	26654.02
643.78	26527.63
643.93	26771.05
644.07	26810.84
644.22	26803.82
644.37	26593.17
644.51	26534.65
644.66	26443.37
644.81	26026.76
644.95	26497.20
645.10	26448.05
645.25	26569.76
645.39	26497.20
645.54	26642.32
645.69	26576.78
645.83	26911.48
645.98	26806.16
646.13	26352.09
646.27	26560.40
646.42	26572.10
646.57	26429.33
646.71	26316.98
646.86	26256.13
647.00	26293.58
647.15	26073.57
647.30	26239.75
647.44	26008.03
647.59	26288.90
647.74	26052.50
647.88	25956.54
648.03	26572.10
648.17	26450.39
648.32	26260.81
648.47	26698.49
648.61	26422.31
648.76	26211.66
648.90	26155.49
649.05	25919.09
649.20	25865.26
649.34	25860.58
649.49	25876.96
649.63	25919.09
649.78	25614.82
649.92	25549.29
650.07	25876.96
650.21	25542.27
650.36	25654.61
650.51	25610.14
650.65	26284.22
650.80	26122.72
650.94	25846.54
651.09	25575.03
651.23	25771.64
651.38	25530.56
651.52	25364.39
651.67	25446.30
651.81	25993.99
651.96	25631.21
652.10	25820.79
652.25	25717.81
652.39	25696.74
652.54	26167.19
652.68	25607.80
652.83	25397.15
652.97	25811.43
653.12	25727.17
653.26	25511.84
653.41	25572.69
653.55	25387.79
653.70	25500.14
653.84	25223.95
653.99	25324.60
654.13	25848.88
654.27	25465.03
654.42	25425.24
654.56	25373.75
654.71	25528.22
654.85	25638.23
655.00	25254.38
655.14	25149.06
655.29	25425.24
655.43	25352.68
655.57	25228.63
655.72	25170.12
655.86	25111.61
656.01	25364.39
656.15	24980.54
656.30	25139.69
656.44	25113.95
656.58	25146.72
656.73	24968.84
656.87	25090.54
657.01	25172.46
657.16	25078.84
657.30	25088.20
657.45	25095.22
657.59	25317.57
657.73	24526.47
657.88	25017.99
658.02	24858.83
658.16	25027.35
658.31	24610.73
658.45	24720.74
658.60	24397.74
658.74	24709.04
658.88	25006.28
659.03	24800.32
659.17	24882.24
659.31	24652.86
659.46	24821.38
659.60	24652.86
659.74	24858.83
659.89	24985.22
660.03	24545.20
660.17	24615.41
660.32	24594.35
660.46	24587.33
660.60	24421.15
660.74	24465.62
660.89	24603.71
661.03	24287.74
661.17	24215.18
661.32	24381.36
661.46	24570.94
661.60	24449.24
661.74	24013.90
661.89	24388.38
662.03	24528.81
662.17	24322.85
662.31	24189.44
662.46	24568.60
662.60	24020.92
662.74	23899.21
662.88	23981.13
663.03	23665.16
663.17	23765.80
663.31	23454.51
663.45	23758.78
663.60	23927.30
663.74	23850.06
663.88	23693.24
664.02	23758.78
664.17	24070.07
664.31	23651.11
664.45	23723.67
664.59	23936.66
664.73	23534.09
664.88	23550.47
665.02	23435.78
665.16	23658.14
665.30	23580.90
665.44	23262.58
665.59	23281.31
665.73	23222.80
665.87	22764.05
666.01	23796.23
666.15	23323.44
666.29	23288.33
666.44	23300.03
666.58	23002.78
666.72	23147.90
666.86	23370.25
667.00	23274.29
667.14	22977.04
667.28	22726.60
667.43	23084.70
667.57	23101.09
667.71	23026.19
667.85	22644.68
667.99	22703.20
668.13	22586.17
668.27	22789.80
668.41	23103.43
668.56	22621.28
668.70	22618.94
668.84	23115.13
668.98	22810.86
669.12	22677.45
669.26	22558.08
669.40	22628.30
669.54	22625.96
669.68	22562.76
669.82	22590.85
669.96	22419.99
670.10	22108.70
670.25	22817.88
670.39	22288.92
670.53	22150.83
670.67	22199.98
670.81	22356.80
670.95	22375.52
671.09	22075.93
671.23	22207.00
671.37	21933.16
671.51	22064.23
671.65	22057.21
671.79	22085.30
671.93	21916.78
672.07	21874.65
672.21	21968.27
672.35	21584.42
672.49	21874.65
672.63	21514.20
672.77	21757.62
672.91	21507.18
673.05	21727.19
673.19	21476.76
673.33	21415.90
673.47	21783.37
673.61	21451.01
673.75	21404.20
673.89	21336.32
674.03	21050.78
674.17	21631.23
674.31	21280.15
674.45	21249.72
674.59	21359.73
674.73	21259.09
674.87	21111.63
675.01	20886.94
675.15	20783.96
675.29	20655.23
675.43	20879.92
675.56	20994.61
675.70	20767.57
675.84	20863.54
675.98	20554.58
676.12	21273.13
676.26	20744.17
676.40	20531.18
676.54	20727.78
676.68	20613.10
676.82	19971.79
676.96	20435.22
677.10	20348.62
677.23	20294.79
677.37	19985.83
677.51	19728.38
677.65	19995.20
677.79	19934.34
677.93	19845.40
678.07	19590.28
678.21	19723.69
678.34	19782.21
678.48	19524.75
678.62	19805.61
678.76	19499.00
678.90	19719.01
679.04	19389.00
679.18	19459.21
679.31	19274.31
679.45	19403.04
679.59	19304.74
679.73	19295.38
679.87	19183.03
680.00	19016.85
680.14	19124.52
680.28	19044.94
680.42	18401.29
680.56	19002.81
680.70	18782.80
680.83	18745.35
680.97	18850.67
681.11	18735.99
681.25	18878.76
681.39	18459.81
681.52	18721.95
681.66	18616.62
681.80	18492.57
681.94	18562.79
682.07	18640.03
682.21	18314.69
682.35	17991.70
682.49	18134.47
682.62	17998.72
682.76	18092.34
682.90	17799.77
683.04	18012.76
683.17	17888.71
683.31	17972.97
683.45	17827.86
683.59	17717.86
683.72	17771.69
683.86	17741.26
684.00	17769.35
684.13	17568.06
684.27	17582.10
684.41	17439.33
684.55	17216.98
684.68	16933.78
684.82	17109.32
684.96	16987.61
685.09	17088.25
685.23	17013.35
685.37	16767.60
685.50	17261.45
685.64	17165.49
685.78	16910.37
685.91	17544.66
686.05	16865.90
686.19	17034.42
686.32	16500.78
686.46	16648.23
686.60	16313.53
686.73	16699.72
686.87	16407.16
687.01	16404.81
687.14	16379.07
687.28	16336.94
687.42	16215.23
687.55	16065.44
687.69	16159.06
687.82	15955.43
687.96	15922.66
688.10	15925.00
688.23	15950.75
688.37	16002.24
688.50	15955.43
688.64	16013.95
688.78	15768.19
688.91	15826.70
689.05	15754.15
689.18	15494.35
689.32	15239.23
689.46	15300.08
689.59	15623.08
689.73	15325.83
689.86	15159.65
690.00	15082.41
690.13	15248.59
690.27	15264.97
690.41	15330.51
690.54	14932.62
690.68	15094.11
690.81	15236.89
690.95	15269.66
691.08	14846.02
691.22	14902.19
691.35	14628.35
691.49	14890.49
691.62	15082.41
691.76	14539.41
691.89	14492.60
692.03	14057.26
692.16	14134.50
692.30	14436.42
692.43	14122.79
692.57	14050.24
692.70	14085.34
692.84	14071.30
692.97	14286.63
693.11	13989.38
693.24	14059.60
693.38	13668.73
693.51	13902.78
693.65	13781.07
693.78	13928.53
693.92	13802.14
694.05	13802.14
694.19	13593.83
694.32	13415.95
694.45	13621.92
694.59	13380.84
694.72	13252.11
694.86	13240.41
694.99	13228.71
695.13	13324.67
695.26	13158.49
695.39	13011.04
695.53	12945.50
695.66	13034.44
695.80	13027.42
695.93	13043.81
696.07	12994.65
696.20	13032.10
696.33	13099.98
696.47	12688.04
696.60	12678.68
696.73	12769.96
696.87	12496.12
697.00	12617.83
697.14	12388.46
697.27	12098.23
697.40	12290.15
697.54	12105.25
697.67	12290.15
697.80	12278.45
697.94	12175.47
698.07	11957.80
698.21	12219.94
698.34	12154.40
698.47	12028.01
698.61	12173.13
698.74	12079.50
698.87	12114.61
699.01	11983.54
699.14	11854.81
699.27	11850.13
699.40	11714.38
699.54	11503.73
699.67	11667.57
699.80	11456.92
699.94	11510.75
700.07	11382.03
700.20	11192.44
700.34	11145.63
700.47	11304.79
700.60	11180.74
700.73	11044.99
700.87	11178.40
701.00	11021.58
701.13	11084.78
701.26	11318.83
701.40	11070.73
701.53	11117.54
701.66	10792.21
701.79	10682.20
701.93	10984.13
702.06	10700.93
702.19	10661.14
702.32	10602.63
702.46	10443.47
702.59	10609.65
702.72	10576.88
702.85	10347.51
702.99	10511.35
703.12	10298.36
703.25	10209.42
703.38	10164.95
703.51	10045.58
703.65	10225.80
703.78	10155.58
703.91	10155.58
704.04	10073.67
704.17	10099.41
704.31	10012.81
704.44	9977.70
704.57	9764.72
704.70	9860.68
704.83	9736.63
704.96	9886.42
705.10	9652.37
705.23	9640.67
>>>>>End Processed Spectral Data<<<<<
