SpectraSuite Data File
++++++++++++++++++++++++++++++++++++
Date: Fri Oct 18 13:57:54 GMT-05:00 2013
User: bianchi
Dark Spectrum Present: No
Reference Spectrum Present: No
Number of Sampled Component Spectra: 1
Spectrometers: USB2+H05261
Integration Time (usec): 50000 (USB2+H05261)
Spectra Averaged: 1 (USB2+H05261)
Boxcar Smoothing: 0 (USB2+H05261)
Correct for Electrical Dark: No (USB2+H05261)
Strobe/Lamp Enabled: No (USB2+H05261)
Correct for Detector Non-linearity: No (USB2+H05261)
Correct for Stray Light: No (USB2+H05261)
Number of Pixels in Processed Spectrum: 2048
>>>>>Begin Processed Spectral Data<<<<<
365.73	44.47
365.92	44.47
366.12	44.47
366.32	0.00
366.52	0.00
366.72	0.00
366.91	0.00
367.11	0.00
367.31	0.00
367.51	0.00
367.70	0.00
367.90	0.00
368.10	0.00
368.30	0.00
368.49	0.00
368.69	0.00
368.89	0.00
369.09	0.00
369.28	0.00
369.48	0.00
369.68	0.00
369.87	0.00
370.07	0.00
370.27	0.00
370.47	0.00
370.66	56.17
370.86	166.18
371.06	74.90
371.25	154.48
371.45	91.28
371.65	187.24
371.84	163.84
372.04	166.18
372.24	170.86
372.44	203.63
372.63	142.77
372.83	210.65
373.03	198.95
373.22	194.26
373.42	255.12
373.62	201.29
373.81	238.73
374.01	269.16
374.21	210.65
374.40	273.84
374.60	311.29
374.79	271.50
374.99	234.05
375.19	203.63
375.38	320.65
375.58	220.01
375.78	311.29
375.97	276.18
376.17	271.50
376.37	297.25
376.56	201.29
376.76	227.03
376.95	330.02
377.15	248.10
377.35	205.97
377.54	299.59
377.74	287.89
377.93	280.86
378.13	334.70
378.33	313.63
378.52	276.18
378.72	334.70
378.91	210.65
379.11	297.25
379.31	290.23
379.50	290.23
379.70	339.38
379.89	393.21
380.09	344.06
380.28	311.29
380.48	285.55
380.68	355.76
380.87	306.61
381.07	348.74
381.26	318.31
381.46	358.10
381.65	353.42
381.85	301.93
382.04	374.49
382.24	365.12
382.43	341.72
382.63	315.97
382.83	344.06
383.02	322.99
383.22	351.08
383.41	411.93
383.61	299.59
383.80	360.44
384.00	379.17
384.19	386.19
384.39	400.23
384.58	397.89
384.78	451.72
384.97	418.96
385.17	397.89
385.36	407.25
385.56	517.26
385.75	400.23
385.95	404.91
386.14	421.30
386.34	425.98
386.53	449.38
386.72	463.43
386.92	463.43
387.11	461.09
387.31	407.25
387.50	397.89
387.70	447.04
387.89	402.57
388.09	402.57
388.28	397.89
388.48	395.55
388.67	524.28
388.86	503.22
389.06	500.87
389.25	437.68
389.45	514.92
389.64	456.40
389.84	442.36
390.03	442.36
390.22	545.34
390.42	505.56
390.61	484.49
390.81	498.53
391.00	552.37
391.19	484.49
391.39	449.38
391.58	519.60
391.78	538.32
391.97	554.71
392.16	482.15
392.36	566.41
392.55	491.51
392.75	472.79
392.94	634.29
393.13	653.01
393.33	531.30
393.52	554.71
393.71	596.84
393.91	638.97
394.10	585.13
394.29	620.24
394.49	592.16
394.68	629.60
394.88	641.31
395.07	610.88
395.26	636.63
395.46	585.13
395.65	629.60
395.84	653.01
396.04	622.58
396.23	643.65
396.42	573.43
396.62	697.48
396.81	629.60
397.00	741.95
397.19	608.54
397.39	725.57
397.58	638.97
397.77	725.57
397.97	653.01
398.16	763.01
398.35	678.76
398.55	692.80
398.74	716.20
398.93	849.61
399.12	751.31
399.32	758.33
399.51	791.10
399.70	770.04
399.90	800.46
400.09	807.48
400.28	730.25
400.47	765.36
400.67	856.64
400.86	795.78
401.05	858.98
401.24	891.74
401.44	840.25
401.63	793.44
401.82	784.08
402.01	812.17
402.21	821.53
402.40	875.36
402.59	842.59
402.78	894.08
402.97	798.12
403.17	856.64
403.36	870.68
403.55	863.66
403.74	931.53
403.93	891.74
404.13	968.98
404.32	891.74
404.51	997.07
404.70	924.51
404.89	973.66
405.09	997.07
405.28	1004.09
405.47	870.68
405.66	966.64
405.85	1027.50
406.05	1018.13
406.24	978.34
406.43	1020.47
406.62	1020.47
406.81	1053.24
407.00	1064.94
407.20	1020.47
407.39	1041.54
407.58	1144.52
407.77	1100.05
407.96	1064.94
408.15	1146.86
408.34	1088.35
408.54	1135.16
408.73	1074.31
408.92	1109.41
409.11	1123.46
409.30	1125.80
409.49	1193.67
409.68	1111.75
409.87	1130.48
410.07	1270.91
410.26	1125.80
410.45	1247.51
410.64	1153.88
410.83	1221.76
411.02	1296.66
411.21	1313.04
411.40	1291.98
411.59	1306.02
411.78	1254.53
411.98	1289.64
412.17	1249.85
412.36	1254.53
412.55	1270.91
412.74	1369.21
412.93	1390.28
413.12	1345.81
413.31	1413.68
413.50	1385.60
413.69	1401.98
413.88	1413.68
414.07	1427.73
414.26	1406.66
414.45	1444.11
414.64	1497.94
414.83	1535.39
415.02	1575.18
415.22	1636.03
415.41	1743.70
415.60	1493.26
415.79	1591.56
415.98	1530.71
416.17	1570.50
416.36	1502.62
416.55	1692.21
416.74	1643.06
416.93	1771.79
417.12	1743.70
417.31	1823.28
417.50	1727.32
417.69	1757.74
417.88	1666.46
418.07	1778.81
418.26	1626.67
418.45	1703.91
418.64	1799.87
418.83	1928.60
419.02	1820.94
419.21	1783.49
419.39	1827.96
419.58	1813.92
419.77	1813.92
419.96	1916.90
420.15	1923.92
420.34	1968.39
420.53	1912.22
420.72	2003.50
420.91	1973.07
421.10	1940.30
421.29	2001.16
421.48	1870.09
421.67	1998.82
421.86	1902.86
422.05	2005.84
422.24	2022.22
422.43	2024.56
422.61	2122.87
422.80	2033.93
422.99	2059.67
423.18	2069.03
423.37	2047.97
423.56	2188.40
423.75	2008.18
423.94	2012.86
424.13	1961.37
424.32	1891.15
424.50	2024.56
424.69	2031.58
424.88	2106.48
425.07	1959.03
425.26	2078.40
425.45	2050.31
425.64	2146.27
425.83	2078.40
426.01	2076.06
426.20	2047.97
426.39	2047.97
426.58	2097.12
426.77	2003.50
426.96	2232.87
427.15	2125.21
427.33	2218.83
427.52	2076.06
427.71	2136.91
427.90	2186.06
428.09	2197.76
428.28	2230.53
428.46	2221.17
428.65	2235.21
428.84	2207.13
429.03	2347.56
429.22	2195.42
429.40	2270.32
429.59	2277.34
429.78	2216.49
429.97	2197.76
430.16	2253.94
430.34	2310.11
430.53	2303.09
430.72	2441.18
430.91	2373.30
431.10	2452.88
431.28	2431.82
431.47	2415.43
431.66	2499.69
431.85	2289.04
432.03	2466.92
432.22	2588.63
432.41	2455.22
432.60	2459.90
432.79	2389.69
432.97	2544.16
433.16	2502.03
433.35	2523.10
433.54	2476.29
433.72	2558.21
433.91	2602.68
434.10	2546.50
434.28	2544.16
434.47	2576.93
434.66	2605.02
434.85	2502.03
435.03	2679.91
435.22	2705.66
435.41	2736.09
435.59	2684.59
435.78	2612.04
435.97	2644.81
436.16	2834.39
436.34	2775.88
436.53	2773.53
436.72	2815.66
436.90	2628.42
437.09	2771.19
437.28	2738.43
437.46	2698.64
437.65	2782.90
437.84	2946.73
438.02	2832.05
438.21	2869.50
438.40	2829.71
438.58	2904.60
438.77	2937.37
438.96	2883.54
439.14	3021.63
439.33	2991.20
439.52	3129.30
439.70	3056.74
439.89	3150.36
440.08	3023.97
440.26	3110.57
440.45	3318.88
440.63	3171.43
440.82	3276.75
441.01	3293.13
441.19	3133.98
441.38	3241.64
441.57	3187.81
441.75	3363.35
441.94	3342.28
442.12	3279.09
442.31	3403.14
442.50	3300.16
442.68	3325.90
442.87	3321.22
443.05	3506.12
443.24	3496.76
443.43	3435.91
443.61	3517.83
443.80	3590.38
443.98	3449.95
444.17	3358.67
444.35	3478.04
444.54	3536.55
444.73	3407.82
444.91	3435.91
445.10	3438.25
445.28	3426.54
445.47	3361.01
445.65	3552.93
445.84	3445.27
446.02	3557.61
446.21	3503.78
446.39	3407.82
446.58	3644.21
446.77	3623.15
446.95	3501.44
447.14	3648.90
447.32	3627.83
447.51	3665.28
447.69	3730.81
447.88	3686.34
448.06	3569.32
448.25	3606.77
448.43	3562.30
448.62	3559.95
448.80	3494.42
448.99	3695.71
449.17	3688.68
449.36	3620.81
449.54	3784.65
449.73	3707.41
449.91	3719.11
450.10	3728.47
450.28	3887.63
450.46	3922.74
450.65	3871.25
450.83	3918.06
451.02	3829.12
451.20	3953.16
451.39	3918.06
451.57	3822.09
451.76	3784.65
451.94	3896.99
452.13	4051.47
452.31	3981.25
452.49	3981.25
452.68	3892.31
452.86	3866.56
453.05	4072.53
453.23	4107.64
453.42	3939.12
453.60	4156.79
453.78	3880.61
453.97	3964.87
454.15	3899.33
454.34	3915.72
454.52	4121.68
454.70	4189.56
454.89	4044.45
455.07	4107.64
455.26	4271.48
455.44	4205.94
455.62	4152.11
455.81	4208.28
455.99	4215.30
456.17	4308.93
456.36	3992.95
456.54	4266.80
456.73	4301.90
456.91	4397.87
457.09	4510.21
457.28	4489.15
457.46	4238.71
457.64	4528.94
457.83	4514.89
458.01	4442.34
458.19	4554.68
458.38	4552.34
458.56	4704.48
458.74	4631.92
458.93	4484.47
459.11	4578.09
459.29	4503.19
459.48	4428.29
459.66	4645.96
459.84	4690.43
460.03	4734.90
460.21	4514.89
460.39	4624.90
460.57	4667.03
460.76	4655.33
460.94	4695.11
461.12	4741.93
461.31	4477.44
461.49	4709.16
461.67	4840.23
461.85	4959.60
462.04	4882.36
462.22	4950.23
462.40	4676.39
462.59	4755.97
462.77	4830.87
462.95	5008.75
463.13	4968.96
463.32	5076.62
463.50	4992.36
463.68	4966.62
463.86	5008.75
464.05	4931.51
464.23	4964.28
464.41	5144.50
464.59	4917.47
464.78	4933.85
464.96	5060.24
465.14	4919.81
465.32	5041.51
465.50	5088.32
465.69	5102.37
465.87	4985.34
466.05	5032.15
466.23	5013.43
466.41	5193.65
466.60	5439.40
466.78	5057.90
466.96	5114.07
467.14	5284.93
467.32	5249.82
467.51	5289.61
467.69	5163.22
467.87	5114.07
468.05	5240.46
468.23	5238.12
468.41	5219.39
468.60	5153.86
468.78	5369.19
468.96	5280.25
469.14	5533.03
469.32	5380.89
469.50	5151.52
469.69	5507.28
469.87	5582.18
470.05	5591.54
470.23	5467.49
470.41	5514.30
470.59	5411.32
470.77	5638.35
470.95	5582.18
471.14	5731.97
471.32	5446.43
471.50	5783.46
471.68	5638.35
471.86	5767.08
472.04	5736.65
472.22	6029.22
472.40	5891.13
472.58	5884.11
472.77	5928.58
472.95	6045.60
473.13	6146.25
473.31	6078.37
473.49	6005.81
473.67	6036.24
473.85	6108.80
474.03	6059.65
474.21	6214.12
474.39	6106.46
474.57	6153.27
474.75	6207.10
474.93	6270.30
475.12	6303.06
475.30	6352.21
475.48	6342.85
475.66	6424.77
475.84	6387.32
476.02	6424.77
476.20	6476.26
476.38	6684.57
476.56	6829.68
476.74	6609.67
476.92	6595.63
477.10	6759.47
477.28	6656.48
477.46	6679.89
477.64	6846.07
477.82	6899.90
478.00	7117.57
478.18	6991.18
478.36	7180.76
478.54	7358.64
478.72	7410.14
478.90	7178.42
479.08	7206.51
479.26	7538.87
479.44	7407.80
479.62	7492.05
479.80	7602.06
479.98	7707.38
480.16	7646.53
480.34	7758.88
480.52	7726.11
480.70	7981.23
480.88	7822.07
481.06	7803.35
481.24	7686.32
481.41	7920.37
481.59	8163.79
481.77	8191.88
481.95	8170.81
482.13	8257.41
482.31	8351.03
482.49	8505.51
482.67	8320.60
482.85	8610.83
483.03	8606.15
483.21	8636.58
483.39	8887.01
483.57	8882.33
483.74	8835.52
483.92	9050.85
484.10	8919.78
484.28	9254.48
484.46	9228.73
484.64	9315.33
484.82	9296.61
485.00	9174.90
485.18	9521.30
485.35	9701.52
485.53	9813.87
485.71	9614.92
485.89	9699.18
486.07	9741.31
486.25	9745.99
486.43	9956.64
486.61	9900.47
486.78	9951.96
486.96	10045.58
487.14	10218.78
487.32	10277.29
487.50	10228.14
487.68	10452.83
487.85	10782.85
488.03	10721.99
488.21	10740.72
488.39	10913.92
488.57	10967.75
488.75	10916.26
488.92	11119.89
489.10	11061.37
489.28	11279.04
489.46	11363.30
489.64	11344.58
489.81	11632.46
489.99	11463.94
490.17	11557.57
490.35	11592.67
490.53	11920.35
490.70	11960.14
490.88	11751.83
491.06	12292.49
491.24	11960.14
491.41	12119.29
491.59	12147.38
491.77	12212.92
491.95	12346.33
492.13	12500.80
492.30	12622.51
492.48	12425.90
492.66	12713.79
492.84	12582.72
493.01	12870.61
493.19	12950.18
493.37	13209.98
493.54	13034.44
493.72	13025.08
493.90	13249.77
494.08	13226.37
494.25	13195.94
494.43	13650.00
494.61	13458.08
494.79	13788.10
494.96	13385.52
495.14	13944.91
495.32	13820.86
495.49	13642.98
495.67	13827.88
495.85	14331.10
496.02	14335.78
496.20	14207.05
496.38	14342.80
496.55	14171.94
496.73	14413.02
496.91	14478.55
497.09	14621.33
497.26	14757.08
497.44	14581.54
497.62	14740.69
497.79	14965.39
497.97	14794.53
498.14	14892.83
498.32	15229.87
498.50	15049.64
498.67	15288.38
498.85	15110.50
499.03	15204.12
499.20	15379.66
499.38	15353.91
499.56	15461.58
499.73	15946.07
499.91	15520.09
500.08	15812.66
500.26	15531.80
500.44	15679.25
500.61	15889.90
500.79	15910.96
500.97	15875.85
501.14	16156.72
501.32	16343.96
501.49	16437.58
501.67	16243.32
501.84	16304.17
502.02	16336.94
502.20	16453.97
502.37	16744.19
502.55	16535.88
502.72	16769.94
502.90	16615.46
503.07	16652.91
503.25	16669.30
503.43	16678.66
503.60	16938.46
503.78	16786.32
503.95	16936.12
504.13	17022.72
504.30	17102.29
504.48	17174.85
504.65	16905.69
504.83	17319.96
505.01	17614.87
505.18	17294.22
505.36	17619.55
505.53	17425.29
505.71	17528.27
505.88	17432.31
506.06	17486.14
506.23	17621.89
506.41	17724.88
506.58	17554.02
506.76	18139.15
506.93	17865.31
507.11	17647.64
507.28	18043.19
507.46	18244.48
507.63	18178.94
507.81	18384.91
507.98	18228.09
508.16	17972.97
508.33	18321.71
508.50	18375.55
508.68	18553.43
508.85	18705.56
509.03	18457.46
509.20	18878.76
509.38	18885.78
509.55	18925.57
509.73	18775.78
509.90	19094.09
510.08	18850.67
510.25	18831.95
510.42	19016.85
510.60	19037.92
510.77	19538.79
510.95	19154.94
511.12	19391.34
511.30	19243.88
511.47	19302.40
511.64	19311.76
511.82	19386.66
511.99	19311.76
512.17	19632.41
512.34	19449.85
512.51	19653.48
512.69	19927.32
512.86	19887.53
513.04	19637.09
513.21	19974.13
513.38	20201.16
513.56	20042.01
513.73	20004.56
513.90	19992.86
514.08	19686.25
514.25	20168.40
514.43	20339.26
514.60	20161.37
514.77	20472.67
514.95	20645.87
515.12	20144.99
515.29	20463.30
515.47	20582.67
515.64	20783.96
515.81	20423.51
515.99	20685.65
516.16	20870.56
516.33	20819.07
516.51	20798.00
516.68	20793.32
516.85	20861.19
517.03	21118.65
517.20	20992.26
517.37	21235.68
517.54	21083.55
517.72	21235.68
517.89	20999.29
518.06	21198.23
518.24	21310.58
518.41	21081.21
518.58	21238.02
518.75	21202.91
518.93	21455.69
519.10	21465.05
519.27	21640.59
519.45	21366.75
519.62	21619.53
519.79	21706.13
519.96	21664.00
520.14	21909.75
520.31	21621.87
520.48	21944.86
520.65	21891.03
520.83	21795.07
521.00	22061.89
521.17	22335.73
521.34	22162.53
521.52	22162.53
521.69	21996.35
521.86	22169.55
522.03	22466.80
522.20	21970.61
522.38	22632.98
522.55	22113.38
522.72	22242.11
522.89	22487.87
523.07	22747.67
523.24	22499.57
523.41	22899.80
523.58	22724.26
523.75	22661.07
523.92	22604.89
524.10	22621.28
524.27	22532.34
524.44	23180.67
524.61	23276.63
524.78	23269.61
524.96	22955.97
525.13	22869.37
525.30	23215.77
525.47	23288.33
525.64	23180.67
525.81	23623.03
525.98	23400.68
526.16	23250.88
526.33	23332.80
526.50	23489.62
526.67	23498.98
526.84	23641.75
527.01	23105.77
527.18	23669.84
527.36	23473.23
527.53	23655.79
527.70	23864.10
527.87	23803.25
528.04	23559.83
528.21	23632.39
528.38	23728.35
528.55	23782.18
528.72	23978.79
528.89	24353.27
529.07	24060.71
529.24	23957.72
529.41	24149.65
529.58	24147.31
529.75	24072.41
529.92	24112.20
530.09	24154.33
530.26	24584.99
530.43	24463.28
530.60	24285.40
530.77	24556.90
530.94	24627.12
531.11	24676.27
531.28	24308.80
531.46	24549.88
531.63	24610.73
531.80	24615.41
531.97	24582.65
532.14	25020.33
532.31	24877.55
532.48	24741.80
532.65	24954.79
532.82	24423.49
532.99	24453.92
533.16	24727.76
533.33	25104.59
533.50	25165.44
533.67	24943.09
533.84	25027.35
534.01	24975.86
534.18	25109.27
534.35	25385.45
534.52	24966.49
534.69	25095.22
534.86	25593.76
535.03	25563.33
535.20	25607.80
535.37	25397.15
535.54	25490.77
535.71	25008.62
535.88	25273.10
536.05	25460.35
536.22	25682.70
536.38	25675.68
536.55	25937.82
536.72	25685.04
536.89	25610.14
537.06	25441.62
537.23	25762.28
537.40	25610.14
537.57	25523.54
537.74	25759.94
537.91	26274.85
538.08	25867.60
538.25	25898.03
538.42	26244.43
538.59	26256.13
538.75	25802.07
538.92	25776.32
539.09	26352.09
539.26	25928.45
539.43	26361.45
539.60	26251.45
539.77	26249.11
539.94	26178.89
540.11	26134.42
540.28	26487.84
540.44	26363.79
540.61	26150.81
540.78	26216.34
540.95	26412.95
541.12	26525.29
541.29	26527.63
541.46	26529.97
541.62	26522.95
541.79	26555.72
541.96	26197.62
542.13	26347.41
542.30	26359.11
542.47	26703.17
542.63	26799.13
542.80	27222.77
542.97	26829.56
543.14	27267.24
543.31	27035.53
543.48	26904.46
543.64	27431.08
543.81	26965.31
543.98	27208.73
544.15	27487.25
544.32	27232.13
544.48	27639.39
544.65	27105.74
544.82	27175.96
544.99	26656.36
545.16	27028.51
545.32	27044.89
545.49	27674.49
545.66	27625.34
545.83	27887.48
546.00	27901.53
546.16	27648.75
546.33	27391.29
546.50	27241.50
546.67	27578.53
546.83	27065.96
547.00	27651.09
547.17	27367.88
547.34	27536.40
547.50	27938.97
547.67	27789.18
547.84	27756.41
548.00	28114.52
548.17	27988.13
548.34	27924.93
548.51	28011.53
548.67	28254.95
548.84	28046.64
549.01	27763.43
549.18	28140.26
549.34	27828.97
549.51	28086.43
549.68	28280.69
549.84	27873.44
550.01	28163.67
550.18	28175.37
550.34	28332.18
550.51	28418.78
550.68	28264.31
550.84	27995.15
551.01	28224.52
551.18	28130.90
551.34	28369.63
551.51	28423.47
551.68	28512.41
551.84	28496.02
552.01	28613.05
552.18	28676.24
552.34	28383.68
552.51	28484.32
552.68	28428.15
552.84	28566.24
553.01	28683.27
553.18	28491.34
553.34	28556.88
553.51	28657.52
553.67	28994.56
553.84	28914.98
554.01	29048.39
554.17	28891.57
554.34	28678.58
554.51	28744.12
554.67	28793.27
554.84	28856.46
555.00	29055.41
555.17	28746.46
555.33	29200.52
555.50	29064.77
555.67	29074.13
555.83	29137.33
556.00	29233.29
556.16	29352.66
556.33	29085.84
556.50	29071.79
556.66	29202.86
556.83	28868.17
556.99	28987.53
557.16	29539.90
557.32	29022.64
557.49	29345.64
557.65	28959.45
557.82	29078.82
557.98	29399.47
558.15	29556.28
558.32	29507.13
558.48	29406.49
558.65	29649.91
558.81	29516.50
558.98	29472.03
559.14	29551.60
559.31	29146.69
559.47	29488.41
559.64	29558.63
559.80	29675.65
559.97	29776.30
560.13	29523.52
560.30	29860.55
560.46	29921.41
560.63	29493.09
560.79	29553.94
560.96	29558.63
561.12	29750.55
561.29	29813.74
561.45	29741.19
561.61	29963.54
561.78	29937.79
561.94	29837.15
562.11	29813.74
562.27	30202.27
562.44	29862.90
562.60	29724.80
562.77	29633.52
562.93	29689.70
563.10	29860.55
563.26	29556.28
563.42	30485.48
563.59	29752.89
563.75	29970.56
563.92	29921.41
564.08	30017.37
564.24	30132.06
564.41	30022.05
564.57	29954.18
564.74	29989.28
564.90	30188.23
565.07	29912.05
565.23	30071.20
565.39	30387.18
565.56	30125.04
565.72	30148.44
565.88	29813.74
566.05	29972.90
566.21	29780.98
566.38	30251.42
566.54	30181.21
566.70	30630.59
566.87	30251.42
567.03	30686.76
567.19	30583.78
567.36	30178.87
567.52	30375.47
567.68	29792.68
567.85	30169.51
568.01	30305.26
568.17	30129.72
568.34	30221.00
568.50	30490.16
568.66	30773.36
568.83	30651.66
568.99	30579.10
569.15	30146.10
569.32	30122.69
569.48	30101.63
569.64	30352.07
569.81	30389.52
569.97	30644.63
570.13	30419.94
570.30	30525.27
570.46	30529.95
570.62	30527.61
570.78	30555.69
570.95	30232.70
571.11	30359.09
571.27	30494.84
571.43	30293.55
571.60	30501.86
571.76	30380.15
571.92	30546.33
572.09	30654.00
572.25	30429.30
572.41	30773.36
572.57	30574.42
572.74	30497.18
572.90	30221.00
573.06	30103.97
573.22	30558.03
573.38	30328.66
573.55	30642.29
573.71	31110.40
573.87	30829.54
574.03	30621.23
574.20	30483.14
574.36	30050.14
574.52	30761.66
574.68	30792.09
574.84	30625.91
575.01	30745.28
575.17	30831.88
575.33	30263.13
575.49	30555.69
575.65	30333.34
575.82	30824.86
575.98	30487.82
576.14	30761.66
576.30	30375.47
576.46	30600.16
576.62	30249.08
576.79	30649.32
576.95	30576.76
577.11	30693.79
577.27	30448.03
577.43	30635.27
577.59	30998.06
577.75	31115.08
577.92	30230.36
578.08	30525.27
578.24	30256.11
578.40	30497.18
578.56	30979.33
578.72	30614.21
578.88	31061.25
579.04	30829.54
579.21	30824.86
579.37	30918.48
579.53	30838.90
579.69	30677.40
579.85	31124.44
580.01	30508.88
580.17	31143.17
580.33	30787.41
580.49	30555.69
580.65	30476.12
580.82	31260.20
580.98	30960.61
581.14	30710.17
581.30	30998.06
581.46	30897.41
581.62	30752.30
581.78	30965.29
581.94	30623.57
582.10	30838.90
582.26	30658.68
582.42	30555.69
582.58	31197.00
582.74	31019.12
582.90	31103.38
583.06	30806.13
583.22	31084.65
583.38	30972.31
583.54	30958.27
583.70	30731.23
583.86	30597.82
584.02	30595.48
584.18	30981.67
584.34	31342.11
584.50	31040.18
584.66	30663.36
584.82	31030.82
584.98	30944.22
585.14	30637.61
585.30	30651.66
585.46	30691.44
585.62	30614.21
585.78	31079.97
585.94	30501.86
586.10	31112.74
586.26	30764.00
586.42	31094.02
586.58	31054.23
586.74	31164.23
586.90	30792.09
587.06	30976.99
587.22	31222.75
587.38	31035.50
587.54	31138.49
587.70	31241.47
587.86	31353.82
588.02	31325.73
588.18	31524.68
588.34	31253.17
588.49	31075.29
588.65	30939.54
588.81	30925.50
588.97	31157.21
589.13	30890.39
589.29	31084.65
589.45	30925.50
589.61	31454.46
589.77	31412.33
589.93	31407.65
590.08	31379.56
590.24	31545.74
590.40	31323.39
590.56	31171.25
590.72	30789.75
590.88	31232.11
591.04	31316.37
591.20	31215.72
591.35	31590.21
591.51	31557.44
591.67	31232.11
591.83	31227.43
591.99	31295.30
592.15	31548.08
592.31	31185.30
592.46	31332.75
592.62	31269.56
592.78	31302.32
592.94	31129.12
593.10	31061.25
593.26	31412.33
593.41	31505.95
593.57	31501.27
593.73	31599.57
593.89	31353.82
594.05	31508.29
594.20	30979.33
594.36	31412.33
594.52	31309.35
594.68	31311.69
594.84	31026.14
594.99	31725.96
595.15	31674.47
595.31	31379.56
595.47	31538.72
595.62	31749.37
595.78	31473.18
595.94	31302.32
596.10	31470.84
596.25	31325.73
596.41	31241.47
596.57	31145.51
596.73	31466.16
596.88	30953.58
597.04	31454.46
597.20	31365.52
597.36	31393.61
597.51	31508.29
597.67	31618.30
597.83	31084.65
597.99	31496.59
598.14	31311.69
598.30	31714.26
598.46	31548.08
598.61	31332.75
598.77	31222.75
598.93	31344.45
599.09	31981.08
599.24	31641.70
599.40	31805.54
599.56	31777.45
599.71	31908.52
599.87	31388.92
600.03	31775.11
600.18	31388.92
600.34	31353.82
600.50	31468.50
600.65	31393.61
600.81	31772.77
600.97	31887.46
601.12	32123.85
601.28	31613.62
601.44	32055.98
601.59	31983.42
601.75	31484.89
601.91	31622.98
602.06	31608.93
602.22	31838.31
602.37	31374.88
602.53	31655.75
602.69	31768.09
602.84	31840.65
603.00	32011.51
603.16	31899.16
603.31	31426.37
603.47	31534.04
603.62	31442.76
603.78	31707.24
603.94	31197.00
604.09	31632.34
604.25	31166.57
604.40	31606.59
604.56	31744.69
604.71	32151.94
604.87	31644.04
605.03	31634.68
605.18	31452.12
605.34	31576.17
605.49	31459.14
605.65	31019.12
605.80	31014.44
605.96	31276.58
606.12	31400.63
606.27	31756.39
606.43	31419.35
606.58	31662.77
606.74	31468.50
606.89	31676.81
607.05	31295.30
607.20	31714.26
607.36	31459.14
607.51	31559.78
607.67	31585.53
607.82	31541.06
607.98	31777.45
608.13	31463.82
608.29	31541.06
608.44	31236.79
608.60	31264.88
608.75	31620.64
608.91	31314.03
609.06	31103.38
609.22	31314.03
609.37	30845.92
609.53	31206.36
609.68	31243.81
609.84	31309.35
609.99	31253.17
610.15	31150.19
610.30	31374.88
610.46	31213.38
610.61	31466.16
610.76	31227.43
610.92	31740.00
611.07	31026.14
611.23	31023.80
611.38	31311.69
611.54	31021.46
611.69	30916.14
611.84	31227.43
612.00	31098.70
612.15	30848.26
612.31	31484.89
612.46	31054.23
612.62	30932.52
612.77	31166.57
612.92	31639.36
613.08	31295.30
613.23	30941.88
613.39	30560.37
613.54	30892.73
613.69	30864.64
613.85	30752.30
614.00	31164.23
614.15	31264.88
614.31	31016.78
614.46	31452.12
614.62	31145.51
614.77	31271.90
614.92	31189.98
615.08	30927.84
615.23	30934.86
615.38	30918.48
615.54	30543.99
615.69	30941.88
615.84	31005.08
616.00	30656.34
616.15	30747.62
616.30	30944.22
616.46	30698.47
616.61	30581.44
616.76	30953.58
616.92	31063.59
617.07	31227.43
617.22	30700.81
617.37	30604.84
617.53	30775.70
617.68	30838.90
617.83	30801.45
617.99	30817.83
618.14	30773.36
618.29	30305.26
618.45	30347.39
618.60	30555.69
618.75	30731.23
618.90	30857.62
619.06	30548.67
619.21	30803.79
619.36	30457.39
619.51	30178.87
619.67	29827.79
619.82	30246.74
619.97	30724.21
620.12	30443.35
620.28	30356.75
620.43	30476.12
620.58	30857.62
620.73	30888.05
620.89	30433.99
621.04	30462.07
621.19	30607.19
621.34	30157.80
621.49	30073.54
621.65	30029.07
621.80	30536.97
621.95	30085.25
622.10	30338.02
622.25	30256.11
622.41	30270.15
622.56	30305.26
622.71	30448.03
622.86	30520.59
623.01	30270.15
623.16	30132.06
623.32	30251.42
623.47	30005.67
623.62	29827.79
623.77	29933.11
623.92	29930.77
624.07	29982.26
624.23	30127.38
624.38	30127.38
624.53	30258.45
624.68	30211.64
624.83	30504.20
624.98	30085.25
625.13	30043.12
625.29	30656.34
625.44	29713.10
625.59	29846.51
625.74	29729.48
625.89	29575.01
626.04	29670.97
626.19	29670.97
626.34	29956.52
626.49	29305.85
626.65	29652.25
626.80	29797.36
626.95	29661.61
627.10	30045.46
627.25	29584.37
627.40	29722.46
627.55	29532.88
627.70	29317.55
627.85	29523.52
628.00	29347.98
628.15	30012.69
628.30	29582.03
628.45	29584.37
628.60	29469.69
628.76	29799.70
628.91	29518.84
629.06	29488.41
629.21	29645.23
629.36	29469.69
629.51	29132.65
629.66	29324.57
629.81	29062.43
629.96	29345.64
630.11	29085.84
630.26	28973.49
630.41	29102.22
630.56	29102.22
630.71	29151.37
630.86	29443.94
631.01	29109.24
631.16	29675.65
631.31	29317.55
631.46	28833.06
631.61	29083.50
631.76	29116.26
631.91	28973.49
632.06	28734.76
632.21	29333.93
632.36	29130.31
632.51	28926.68
632.66	29036.69
632.81	29118.60
632.96	29144.35
633.10	28795.61
633.25	29228.61
633.40	29085.84
633.55	28896.25
633.70	28526.45
633.85	28559.22
634.00	28978.17
634.15	28559.22
634.30	28458.57
634.45	28734.76
634.60	28776.89
634.75	28610.71
634.90	28561.56
635.05	28999.24
635.19	28870.51
635.34	29020.30
635.49	28898.59
635.64	28790.93
635.79	28807.31
635.94	28301.76
636.09	28692.63
636.24	28505.38
636.39	28332.18
636.53	28762.84
636.68	28481.98
636.83	28676.24
636.98	28795.61
637.13	28596.67
637.28	28814.34
637.43	28891.57
637.57	29048.39
637.72	28879.87
637.87	28357.93
638.02	28830.72
638.17	28465.60
638.32	28517.09
638.46	27892.16
638.61	28226.86
638.76	28166.01
638.91	28133.24
639.06	28088.77
639.20	27981.10
639.35	28067.70
639.50	28343.89
639.65	28119.20
639.80	28535.81
639.94	28285.37
640.09	27936.63
640.24	28208.14
640.39	28156.64
640.54	28130.90
640.68	28037.28
640.83	27763.43
640.98	27728.33
641.13	27728.33
641.27	28044.30
641.42	27707.26
641.57	28297.08
641.72	28009.19
641.86	27648.75
642.01	27711.94
642.16	27885.14
642.31	27630.02
642.45	27960.04
642.60	27681.52
642.75	27899.19
642.90	27496.61
643.04	27379.59
643.19	27812.59
643.34	27644.07
643.48	27407.67
643.63	27524.70
643.78	27601.94
643.93	27728.33
644.07	27847.69
644.22	27606.62
644.37	27681.52
644.51	27833.65
644.66	27850.03
644.81	27531.72
644.95	27814.93
645.10	27487.25
645.25	27599.60
645.39	27651.09
645.54	27459.16
645.69	27456.82
645.83	27096.38
645.98	27840.67
646.13	27639.39
646.27	27342.14
646.42	27363.20
646.57	27262.56
646.71	27232.13
646.86	27417.04
647.00	27215.75
647.15	27136.17
647.30	27087.02
647.44	27440.44
647.59	27302.35
647.74	27421.72
647.88	27150.21
648.03	27515.34
648.17	27187.66
648.32	27227.45
648.47	27447.46
648.61	27154.90
648.76	27187.66
648.90	27395.97
649.05	26993.40
649.20	26939.57
649.34	27089.36
649.49	26473.80
649.63	26930.20
649.78	27056.59
649.92	26808.50
650.07	27101.06
650.21	26876.37
650.36	26719.56
650.51	26698.49
650.65	26967.65
650.80	27035.53
650.94	26796.79
651.09	26871.69
651.23	26822.54
651.38	26600.19
651.52	26913.82
651.67	26831.90
651.81	26637.64
651.96	26813.18
652.10	26766.37
652.25	26731.26
652.39	27084.68
652.54	26991.06
652.68	26766.37
652.83	27103.40
652.97	26574.44
653.12	26562.74
653.26	26600.19
653.41	26930.20
653.55	26387.20
653.70	25989.31
653.84	26576.78
653.99	26331.03
654.13	26412.95
654.27	26569.76
654.42	26417.63
654.56	26665.72
654.71	26494.86
654.85	26501.89
655.00	26766.37
655.14	26384.86
655.29	26338.05
655.43	26424.65
655.57	26380.18
655.72	26239.75
655.86	26621.25
656.01	26534.65
656.15	26307.62
656.30	26132.08
656.44	26256.13
656.58	26174.21
656.73	25933.14
656.87	26466.78
657.01	25923.77
657.16	26522.95
657.30	25998.67
657.45	26349.75
657.59	26003.35
657.73	26153.15
657.88	25986.97
658.02	26118.04
658.16	25731.85
658.31	25954.20
658.45	25977.61
658.60	25788.02
658.74	25839.51
658.88	25696.74
659.03	25722.49
659.17	25689.72
659.31	25788.02
659.46	25989.31
659.60	26307.62
659.74	25956.54
659.89	25937.82
660.03	25598.44
660.17	25823.13
660.32	25645.25
660.46	25324.60
660.60	24982.88
660.74	25282.47
660.89	25715.47
661.03	25607.80
661.17	25462.69
661.32	25472.05
661.46	25312.89
661.60	25577.37
661.74	25467.37
661.89	25682.70
662.03	25029.69
662.17	25326.94
662.31	24961.81
662.46	25017.99
662.60	25228.63
662.74	25238.00
662.88	25336.30
663.03	24809.68
663.17	24716.06
663.31	24631.80
663.45	24685.63
663.60	24797.98
663.74	24882.24
663.88	24528.81
664.02	24751.17
664.17	25053.09
664.31	24584.99
664.45	24884.58
664.59	24622.44
664.73	24554.56
664.88	24800.32
665.02	24582.65
665.16	24184.76
665.30	24631.80
665.44	24198.80
665.59	24222.20
665.73	24400.08
665.87	24112.20
666.01	24273.70
666.15	24587.33
666.29	24402.43
666.44	24304.12
666.58	24126.24
666.72	24187.10
666.86	24301.78
667.00	24081.77
667.14	24290.08
667.28	24278.38
667.43	24006.87
667.57	23992.83
667.71	24098.16
667.85	23852.40
667.99	23800.91
668.13	23978.79
668.27	23936.66
668.41	23946.02
668.56	23592.60
668.70	23929.64
668.84	23889.85
668.98	23803.25
669.12	23740.05
669.26	23417.06
669.40	23522.38
669.54	23747.08
669.68	23510.68
669.82	23491.96
669.96	23002.78
670.10	23388.97
670.25	23227.48
670.39	23222.80
670.53	23236.84
670.67	23194.71
670.81	23234.50
670.95	23054.28
671.09	22852.99
671.23	23171.30
671.37	23349.18
671.51	23084.70
671.65	23229.82
671.79	22710.22
671.93	22867.03
672.07	23101.09
672.21	22497.23
672.35	22656.39
672.49	22522.98
672.63	22911.50
672.77	22094.66
672.91	22497.23
673.05	22829.59
673.19	22490.21
673.33	22450.42
673.47	22246.79
673.61	22654.05
673.75	22331.05
673.89	22511.27
674.03	22129.77
674.17	22162.53
674.31	22059.55
674.45	22134.45
674.59	21998.70
674.73	22281.90
674.87	21855.92
675.01	21752.94
675.15	21736.56
675.29	22125.08
675.43	21944.86
675.56	21500.16
675.70	21668.68
675.84	21706.13
675.98	21088.23
676.12	21671.02
676.26	21785.71
676.40	21893.37
676.54	21486.12
676.68	21455.69
676.82	20954.82
676.96	21172.49
677.10	21366.75
677.23	21022.69
677.37	20980.56
677.51	21074.18
677.65	20924.39
677.79	21214.62
677.93	20498.41
678.07	20645.87
678.21	20603.74
678.34	20535.86
678.48	20627.14
678.62	20573.31
678.76	20549.90
678.90	20287.76
679.04	20498.41
679.18	19899.23
679.31	20229.25
679.45	19903.92
679.59	19936.68
679.73	19695.61
679.87	19829.02
680.00	19967.11
680.14	19922.64
680.28	19873.49
680.42	19791.57
680.56	20088.82
680.70	19702.63
680.83	19775.19
680.97	19513.05
681.11	19644.12
681.25	19627.73
681.39	19627.73
681.52	19342.19
681.66	19211.12
681.80	19250.91
681.94	19239.20
682.07	19307.08
682.21	18998.13
682.35	18698.54
682.49	19101.11
682.62	18614.28
682.76	18684.50
682.90	19101.11
683.04	18663.43
683.17	18696.20
683.31	18515.98
683.45	18953.66
683.59	18661.09
683.72	18427.04
683.86	18572.15
684.00	18583.85
684.13	18391.93
684.27	18153.20
684.41	18305.33
684.55	18085.32
684.68	17858.29
684.82	17996.38
684.96	18082.98
685.09	17982.34
685.23	17757.64
685.37	18073.62
685.50	18066.60
685.64	17895.74
685.78	17724.88
685.91	17954.25
686.05	17891.06
686.19	17532.95
686.32	17383.16
686.46	17146.76
686.60	17390.18
686.73	17600.83
686.87	17160.81
687.01	17249.75
687.14	17011.01
687.28	16856.54
687.42	16915.05
687.55	17011.01
687.69	16889.31
687.82	17011.01
687.96	16762.92
688.10	16791.00
688.23	16999.31
688.37	16596.74
688.50	16793.34
688.64	16563.97
688.78	16369.71
688.91	16629.51
689.05	16372.05
689.18	16119.27
689.32	16060.76
689.46	15962.45
689.59	16166.08
689.73	16133.31
689.86	16011.60
690.00	16198.85
690.13	16273.74
690.27	15704.99
690.41	15611.37
690.54	15690.95
690.68	15854.79
690.81	15864.15
690.95	15587.97
691.08	15709.68
691.22	15515.41
691.35	15669.89
691.49	15456.90
691.62	15592.65
691.76	15403.07
691.89	15220.50
692.03	15007.52
692.16	14941.98
692.30	15131.56
692.43	14768.78
692.57	14766.44
692.70	14771.12
692.84	14911.55
692.97	14452.81
693.11	14490.26
693.24	14628.35
693.38	14595.58
693.51	14532.39
693.65	14459.83
693.78	14527.71
693.92	14471.53
694.05	14363.87
694.19	14174.28
694.32	14223.44
694.45	14267.91
694.59	14008.11
694.72	14185.99
694.86	13933.21
694.99	13635.96
695.13	13579.79
695.26	13764.69
695.39	13523.62
695.53	13898.10
695.66	13804.48
695.80	13516.59
695.93	13654.69
696.07	13437.02
696.20	13687.45
696.33	13846.61
696.47	13308.29
696.60	13547.02
696.73	13437.02
696.87	13301.26
697.00	13322.33
697.14	13013.38
697.27	12671.66
697.40	12889.33
697.54	12809.75
697.67	12791.03
697.80	12865.92
697.94	12556.97
698.07	12514.84
698.21	12512.50
698.34	12786.35
698.47	12666.98
698.61	12573.36
698.74	12636.55
698.87	12657.62
699.01	12409.52
699.14	12411.86
699.27	12334.62
699.40	12367.39
699.54	11964.82
699.67	11967.16
699.80	12128.66
699.94	11950.78
700.07	11602.04
700.20	11927.37
700.34	11674.59
700.47	11775.24
700.60	11815.02
700.73	11843.11
700.87	11541.18
701.00	11527.14
701.13	11576.29
701.26	11702.68
701.40	11761.19
701.53	11468.62
701.66	11555.22
701.79	11382.03
701.93	11363.30
702.06	11274.36
702.19	11075.42
702.32	11145.63
702.46	10850.72
702.59	10668.16
702.72	10951.37
702.85	10888.17
702.99	10609.65
703.12	10806.25
703.25	10677.52
703.38	10757.10
703.51	10649.44
703.65	10726.68
703.78	10534.75
703.91	10590.92
704.04	10600.29
704.17	10677.52
704.31	10562.84
704.44	10562.84
704.57	10169.63
704.70	10169.63
704.83	10113.45
704.96	10036.22
705.10	9926.21
705.23	10113.45
>>>>>End Processed Spectral Data<<<<<
