SpectraSuite Data File
++++++++++++++++++++++++++++++++++++
Date: Fri Oct 18 13:58:38 GMT-05:00 2013
User: bianchi
Dark Spectrum Present: No
Reference Spectrum Present: No
Number of Sampled Component Spectra: 1
Spectrometers: USB2+H05261
Integration Time (usec): 50000 (USB2+H05261)
Spectra Averaged: 1 (USB2+H05261)
Boxcar Smoothing: 0 (USB2+H05261)
Correct for Electrical Dark: No (USB2+H05261)
Strobe/Lamp Enabled: No (USB2+H05261)
Correct for Detector Non-linearity: No (USB2+H05261)
Correct for Stray Light: No (USB2+H05261)
Number of Pixels in Processed Spectrum: 2048
>>>>>Begin Processed Spectral Data<<<<<
365.73	0.00
365.92	0.00
366.12	0.00
366.32	0.00
366.52	0.00
366.72	0.00
366.91	0.00
367.11	0.00
367.31	0.00
367.51	0.00
367.70	0.00
367.90	0.00
368.10	0.00
368.30	0.00
368.49	0.00
368.69	0.00
368.89	0.00
369.09	0.00
369.28	0.00
369.48	0.00
369.68	0.00
369.87	0.00
370.07	0.00
370.27	0.00
370.47	0.00
370.66	70.22
370.86	114.69
371.06	112.35
371.25	121.71
371.45	161.50
371.65	161.50
371.84	180.22
372.04	77.24
372.24	140.43
372.44	177.88
372.63	248.10
372.83	173.20
373.03	154.48
373.22	194.26
373.42	205.97
373.62	215.33
373.81	222.35
374.01	194.26
374.21	220.01
374.40	140.43
374.60	250.44
374.79	191.92
374.99	262.14
375.19	215.33
375.38	273.84
375.58	168.52
375.78	266.82
375.97	250.44
376.17	243.42
376.37	271.50
376.56	311.29
376.76	255.12
376.95	264.48
377.15	306.61
377.35	264.48
377.54	292.57
377.74	212.99
377.93	241.08
378.13	273.84
378.33	304.27
378.52	224.69
378.72	327.68
378.91	337.04
379.11	215.33
379.31	294.91
379.50	241.08
379.70	238.73
379.89	306.61
380.09	287.89
380.28	330.02
380.48	238.73
380.68	287.89
380.87	301.93
381.07	365.12
381.26	344.06
381.46	369.80
381.65	353.42
381.85	322.99
382.04	327.68
382.24	322.99
382.43	369.80
382.63	322.99
382.83	297.25
383.02	341.72
383.22	435.34
383.41	348.74
383.61	259.80
383.80	468.11
384.00	379.17
384.19	355.76
384.39	430.66
384.58	379.17
384.78	337.04
384.97	360.44
385.17	437.68
385.36	320.65
385.56	301.93
385.75	360.44
385.95	500.87
386.14	477.47
386.34	301.93
386.53	449.38
386.72	383.85
386.92	397.89
387.11	397.89
387.31	433.00
387.50	442.36
387.70	409.59
387.89	503.22
388.09	440.02
388.28	507.90
388.48	484.49
388.67	500.87
388.86	486.83
389.06	468.11
389.25	531.30
389.45	540.66
389.64	374.49
389.84	433.00
390.03	367.46
390.22	449.38
390.42	482.15
390.61	428.32
390.81	444.70
391.00	411.93
391.19	463.43
391.39	444.70
391.58	550.03
391.78	568.75
391.97	594.50
392.16	458.74
392.36	571.09
392.55	568.75
392.75	538.32
392.94	528.96
393.13	526.62
393.33	592.16
393.52	486.83
393.71	533.64
393.91	528.96
394.10	594.50
394.29	582.79
394.49	627.26
394.68	566.41
394.88	543.00
395.07	641.31
395.26	566.41
395.46	543.00
395.65	695.14
395.84	603.86
396.04	627.26
396.23	547.69
396.42	580.45
396.62	690.46
396.81	657.69
397.00	643.65
397.19	667.05
397.39	578.11
397.58	655.35
397.77	657.69
397.97	592.16
398.16	648.33
398.35	678.76
398.55	608.54
398.74	692.80
398.93	763.01
399.12	772.38
399.32	723.23
399.51	704.50
399.70	741.95
399.90	653.01
400.09	739.61
400.28	770.04
400.47	784.08
400.67	711.52
400.86	784.08
401.05	823.87
401.24	833.23
401.44	854.30
401.63	861.32
401.82	795.78
402.01	784.08
402.21	795.78
402.40	847.27
402.59	793.44
402.78	861.32
402.97	912.81
403.17	919.83
403.36	894.08
403.55	819.19
403.74	851.96
403.93	875.36
404.13	938.55
404.32	957.28
404.51	805.14
404.70	922.17
404.89	814.51
405.09	795.78
405.28	898.77
405.47	945.58
405.66	968.98
405.85	952.60
406.05	952.60
406.24	1062.60
406.43	1029.84
406.62	1041.54
406.81	1057.92
407.00	1027.50
407.20	978.34
407.39	1076.65
407.58	992.39
407.77	980.68
407.96	1090.69
408.15	990.05
408.34	1095.37
408.54	1095.37
408.73	1111.75
408.92	1050.90
409.11	1149.20
409.30	1139.84
409.49	1142.18
409.68	1212.40
409.87	1083.67
410.07	1135.16
410.26	1172.61
410.45	1181.97
410.64	1177.29
410.83	1184.31
411.02	1193.67
411.21	1273.25
411.40	1291.98
411.59	1238.14
411.78	1261.55
411.98	1200.69
412.17	1355.17
412.36	1357.51
412.55	1362.19
412.74	1380.92
412.93	1308.36
413.12	1338.79
413.31	1462.83
413.50	1350.49
413.69	1409.00
413.88	1416.02
414.07	1437.09
414.26	1390.28
414.45	1425.39
414.64	1458.15
414.83	1526.03
415.02	1572.84
415.22	1476.88
415.41	1575.18
415.60	1511.99
415.79	1511.99
415.98	1593.90
416.17	1537.73
416.36	1547.09
416.55	1638.38
416.74	1570.50
416.93	1614.97
417.12	1612.63
417.31	1678.16
417.50	1727.32
417.69	1640.72
417.88	1675.82
418.07	1713.27
418.26	1764.76
418.45	1741.36
418.64	1870.09
418.83	1877.11
419.02	1701.57
419.21	1849.02
419.39	1928.60
419.58	1802.21
419.77	1788.17
419.96	1776.47
420.15	1879.45
420.34	1937.96
420.53	1891.15
420.72	1732.00
420.91	1886.47
421.10	2008.18
421.29	1895.83
421.48	1937.96
421.67	2036.27
421.86	1928.60
422.05	1921.58
422.24	2026.90
422.43	2010.52
422.61	1907.54
422.80	2062.01
422.99	1872.43
423.18	2045.63
423.37	2010.52
423.56	1963.71
423.75	2097.12
423.94	2015.20
424.13	1886.47
424.32	1846.68
424.50	1923.92
424.69	2043.29
424.88	2136.91
425.07	2038.61
425.26	2036.27
425.45	2057.33
425.64	2071.37
425.83	2132.23
426.01	2139.25
426.20	2094.78
426.39	1996.48
426.58	2087.76
426.77	2143.93
426.96	2202.44
427.15	2143.93
427.33	2169.68
427.52	2033.93
427.71	2129.89
427.90	2001.16
428.09	2132.23
428.28	2150.95
428.46	2195.42
428.65	2272.66
428.84	2209.47
429.03	2239.89
429.22	2190.74
429.40	2307.77
429.59	2186.06
429.78	2052.65
429.97	2172.02
430.16	2153.29
430.34	2282.02
430.53	2298.41
430.72	2272.66
430.91	2232.87
431.10	2221.17
431.28	2457.56
431.47	2314.79
431.66	2403.73
431.85	2356.92
432.03	2310.11
432.22	2480.97
432.41	2441.18
432.60	2544.16
432.79	2492.67
432.97	2448.20
433.16	2349.90
433.35	2527.78
433.54	2354.58
433.72	2396.71
433.91	2511.39
434.10	2434.16
434.28	2422.45
434.47	2558.21
434.66	2658.85
434.85	2539.48
435.03	2595.65
435.22	2520.76
435.41	2775.88
435.59	2703.32
435.78	2640.12
435.97	2478.63
436.16	2558.21
436.34	2752.47
436.53	2579.27
436.72	2726.72
436.90	2621.40
437.09	2834.39
437.28	2654.17
437.46	2778.22
437.65	2750.13
437.84	2796.94
438.02	2846.09
438.21	2792.26
438.40	2834.39
438.58	2818.00
438.77	2871.84
438.96	2782.90
439.14	3052.06
439.33	3105.89
439.52	2885.88
439.70	2991.20
439.89	2977.16
440.08	3087.17
440.26	3075.46
440.45	2998.23
440.63	3117.59
440.82	3260.37
441.01	3143.34
441.19	3213.56
441.38	3126.96
441.57	3262.71
441.75	3311.86
441.94	3281.43
442.12	3281.43
442.31	3304.84
442.50	3265.05
442.68	3267.39
442.87	3449.95
443.05	3391.44
443.24	3410.16
443.43	3363.35
443.61	3236.96
443.80	3487.40
443.98	3246.32
444.17	3145.68
444.35	3382.07
444.54	3588.04
444.73	3410.16
444.91	3405.48
445.10	3379.73
445.28	3368.03
445.47	3391.44
445.65	3421.86
445.84	3524.85
446.02	3559.95
446.21	3445.27
446.39	3456.97
446.58	3428.88
446.77	3478.04
446.95	3325.90
447.14	3468.67
447.32	3325.90
447.51	3428.88
447.69	3494.42
447.88	3667.62
448.06	3410.16
448.25	3468.67
448.43	3597.40
448.62	3400.80
448.80	3609.11
448.99	3562.30
449.17	3604.42
449.36	3559.95
449.54	3651.24
449.73	3698.05
449.91	3688.68
450.10	3632.51
450.28	3763.58
450.46	3695.71
450.65	3845.50
450.83	3817.41
451.02	3684.00
451.20	3660.60
451.39	3819.75
451.57	3751.88
451.76	3707.41
451.94	3845.50
452.13	3763.58
452.31	3763.58
452.49	3719.11
452.68	3794.01
452.86	3866.56
453.05	3913.38
453.23	3974.23
453.42	3885.29
453.60	3796.35
453.78	3936.78
453.97	3913.38
454.15	3815.07
454.34	3852.52
454.52	4091.26
454.70	3843.16
454.89	4056.15
455.07	4011.68
455.26	3999.98
455.44	4107.64
455.62	4114.66
455.81	4053.81
455.99	4084.23
456.17	4222.33
456.36	4152.11
456.54	4175.52
456.73	4182.54
456.91	4313.61
457.09	4365.10
457.28	4276.16
457.46	4273.82
457.64	4418.93
457.83	4346.37
458.01	4278.50
458.19	4491.49
458.38	4346.37
458.56	4458.72
458.74	4437.66
458.93	4339.35
459.11	4285.52
459.29	4339.35
459.48	4306.59
459.66	4472.76
459.84	4547.66
460.03	4655.33
460.21	4519.57
460.39	4472.76
460.57	4674.05
460.76	4456.38
460.94	4585.11
461.12	4606.17
461.31	4580.43
461.49	4601.49
461.67	4444.68
461.85	4744.27
462.04	4697.46
462.22	4889.38
462.40	4830.87
462.59	4711.50
462.77	4748.95
462.95	4980.66
463.13	4720.86
463.32	4711.50
463.50	4973.64
463.68	4798.10
463.86	4980.66
464.05	4887.04
464.23	4781.71
464.41	4880.02
464.59	4865.97
464.78	5179.61
464.96	4730.22
465.14	4945.55
465.32	4985.34
465.50	4903.42
465.69	5064.92
465.87	4821.50
466.05	4954.91
466.23	5008.75
466.41	5022.79
466.60	4837.89
466.78	4802.78
466.96	5043.85
467.14	5111.73
467.32	5121.09
467.51	5200.67
467.69	4975.98
467.87	5160.88
468.05	5235.78
468.23	5156.20
468.41	5095.35
468.60	5107.05
468.78	5153.86
468.96	5226.42
469.14	5153.86
469.32	5284.93
469.50	5088.32
469.69	5322.38
469.87	5383.23
470.05	5352.81
470.23	5383.23
470.41	5462.81
470.59	5530.69
470.77	5294.29
470.95	5334.08
471.14	5556.43
471.32	5420.68
471.50	5493.24
471.68	5678.14
471.86	5579.84
472.04	5511.96
472.22	5834.96
472.40	5603.24
472.58	5572.82
472.77	5596.22
472.95	5891.13
473.13	5909.85
473.31	5678.14
473.49	5944.96
473.67	5776.44
473.85	5944.96
474.03	6155.61
474.21	5959.00
474.39	6099.44
474.57	6094.76
474.75	6090.07
474.93	6146.25
475.12	6043.26
475.30	6202.42
475.48	6202.42
475.66	6181.35
475.84	6223.48
476.02	6312.42
476.20	6377.96
476.38	6438.81
476.56	6469.24
476.74	6511.37
476.92	6576.91
477.10	6560.52
477.28	6733.72
477.46	6593.29
477.64	6801.60
477.82	6747.76
478.00	6768.83
478.18	6813.30
478.36	6909.26
478.54	6953.73
478.72	7087.14
478.90	7028.63
479.08	7206.51
479.26	7246.30
479.44	7262.68
479.62	7199.49
479.80	7353.96
479.98	7496.74
480.16	7529.50
480.34	7515.46
480.52	7463.97
480.70	7651.21
480.88	7440.56
481.06	7786.96
481.24	7709.72
481.41	7770.58
481.59	7885.26
481.77	8028.04
481.95	7957.82
482.13	7845.48
482.31	8042.08
482.49	8166.13
482.67	8285.50
482.85	8542.96
483.03	8334.65
483.21	8580.40
483.39	8748.92
483.57	8575.72
483.74	8573.38
483.92	8692.75
484.10	8662.32
484.28	8954.89
484.46	8884.67
484.64	9179.58
484.82	8800.41
485.00	9149.15
485.18	9273.20
485.35	9462.79
485.53	9186.60
485.71	9448.74
485.89	9467.47
486.07	9680.46
486.25	9624.28
486.43	9652.37
486.61	9741.31
486.78	9863.02
486.96	9832.59
487.14	10120.48
487.32	9823.23
487.50	10054.94
487.68	10017.49
487.85	10434.11
488.03	10586.24
488.21	10729.02
488.39	10595.61
488.57	10675.18
488.75	10740.72
488.92	10717.31
489.10	11112.86
489.28	10869.45
489.46	10965.41
489.64	11061.37
489.81	11466.28
489.99	11417.13
490.17	11300.11
490.35	11494.37
490.53	11435.86
490.70	11580.97
490.88	11616.08
491.06	11428.84
491.24	11740.13
491.41	11786.94
491.59	12020.99
491.77	11936.73
491.95	12154.40
492.13	12154.40
492.30	12430.59
492.48	12194.19
492.66	12280.79
492.84	12542.93
493.01	12360.37
493.19	12521.87
493.37	12666.98
493.54	12828.48
493.72	12835.50
493.90	12992.31
494.08	13231.05
494.25	13099.98
494.43	12994.65
494.61	13329.35
494.79	13226.37
494.96	13097.64
495.14	13439.36
495.32	13556.38
495.49	13593.83
495.67	13518.93
495.85	13600.85
496.02	13984.70
496.20	13973.00
496.38	13769.37
496.55	14045.55
496.73	14256.20
496.91	14104.07
497.09	14169.60
497.26	14237.48
497.44	14319.40
497.62	14321.74
497.79	14485.58
497.97	14611.96
498.14	14836.66
498.32	14895.17
498.50	15005.17
498.67	14904.53
498.85	14913.89
499.03	15002.83
499.20	14932.62
499.38	14967.73
499.56	14883.47
499.73	15269.66
499.91	15522.43
500.08	15307.10
500.26	15180.71
500.44	15374.98
500.61	15426.47
500.79	15403.07
500.97	15536.48
501.14	15700.31
501.32	15704.99
501.49	15637.12
501.67	15620.74
501.84	15915.64
502.02	16201.19
502.20	15943.73
502.37	16091.18
502.55	16128.63
502.72	15988.20
502.90	16142.67
503.07	16046.71
503.25	16402.47
503.43	16301.83
503.60	16643.55
503.78	16648.23
503.95	16685.68
504.13	16491.41
504.30	16194.17
504.48	16638.87
504.65	16891.65
504.83	16809.73
505.01	17055.48
505.18	17018.04
505.36	16823.77
505.53	16849.52
505.71	17076.55
505.88	17027.40
506.06	16975.91
506.23	17284.86
506.41	17621.89
506.58	17184.21
506.76	17507.21
506.93	17652.32
507.11	17195.92
507.28	17671.04
507.46	17579.76
507.63	17593.81
507.81	17848.93
507.98	17680.41
508.16	17762.33
508.33	17881.69
508.50	17989.36
508.68	18054.89
508.85	18033.83
509.03	17865.31
509.20	18218.73
509.38	18405.97
509.55	18284.26
509.73	18452.78
509.90	18384.91
510.08	18434.06
510.25	18384.91
510.42	18441.08
510.60	18625.98
510.77	18448.10
510.95	18721.95
511.12	18691.52
511.30	18764.07
511.47	18946.64
511.64	18813.23
511.82	19243.88
511.99	18946.64
512.17	19157.28
512.34	18682.16
512.51	18923.23
512.69	19201.76
512.86	19066.00
513.04	19583.26
513.21	19218.14
513.38	19580.92
513.56	19271.97
513.73	19363.25
513.90	19803.27
514.08	19508.37
514.25	19555.18
514.43	19676.88
514.60	19770.51
514.77	19969.45
514.95	19999.88
515.12	19892.21
515.29	19641.78
515.47	20053.71
515.64	20013.92
515.81	19924.98
515.99	20283.08
516.16	19924.98
516.33	20320.53
516.51	20446.92
516.68	20175.42
516.85	20233.93
517.03	20402.45
517.20	20299.47
517.37	20566.29
517.54	20390.75
517.72	20854.17
517.89	20496.07
518.06	20662.25
518.24	20556.93
518.41	20617.78
518.58	20870.56
518.75	20531.18
518.93	21055.46
519.10	20929.07
519.27	20800.34
519.45	20980.56
519.62	21025.03
519.79	20840.13
519.96	20957.16
520.14	21177.17
520.31	20957.16
520.48	21170.15
520.65	21228.66
520.83	21270.79
521.00	21448.67
521.17	21488.46
521.34	21415.90
521.52	21366.75
521.69	21451.01
521.86	21537.61
522.03	21752.94
522.20	21961.25
522.38	21916.78
522.55	21549.31
522.72	21851.24
522.89	21699.11
523.07	22066.57
523.24	22010.40
523.41	22038.48
523.58	22005.72
523.75	22160.19
523.92	22223.39
524.10	21914.44
524.27	21994.01
524.44	22504.25
524.61	22583.83
524.78	22518.29
524.96	22080.61
525.13	22443.40
525.30	22621.28
525.47	22752.35
525.64	22829.59
525.81	22471.48
525.98	22665.75
526.16	22906.82
526.33	22808.52
526.50	22892.78
526.67	22654.05
526.84	22881.08
527.01	22647.02
527.18	22810.86
527.36	23220.45
527.53	22878.74
527.70	23246.20
527.87	23220.45
528.04	22895.12
528.21	23342.16
528.38	23098.75
528.55	23300.03
528.72	23454.51
528.89	23573.88
529.07	23255.56
529.24	23648.77
529.41	23321.10
529.58	23381.95
529.75	23522.38
529.92	23496.64
530.09	23751.76
530.26	23688.56
530.43	23821.97
530.60	23679.20
530.77	23805.59
530.94	23868.78
531.11	23496.64
531.28	23690.90
531.46	23868.78
531.63	24072.41
531.80	23906.23
531.97	24247.95
532.14	24070.07
532.31	23878.15
532.48	23931.98
532.65	23960.06
532.82	23997.51
532.99	24208.16
533.16	24130.92
533.33	24334.55
533.50	24744.14
533.67	24496.05
533.84	24482.00
534.01	24257.31
534.18	24350.93
534.35	24631.80
534.52	24517.11
534.69	24809.68
534.86	25153.74
535.03	24432.85
535.20	24664.57
535.37	24561.58
535.54	24842.45
535.71	24290.08
535.88	24573.28
536.05	24751.17
536.22	24690.31
536.38	25069.48
536.55	25078.84
536.72	25252.04
536.89	24835.42
537.06	25001.60
537.23	24996.92
537.40	25046.07
537.57	24915.00
537.74	25336.30
537.91	25415.88
538.08	25546.95
538.25	25221.61
538.42	25298.85
538.59	25476.73
538.75	25291.83
538.92	24877.55
539.09	25216.93
539.26	25539.93
539.43	25343.32
539.60	25757.60
539.77	25418.22
539.94	25532.90
540.11	25607.80
540.28	25610.14
540.44	25481.41
540.61	25359.70
540.78	25638.23
540.95	25862.92
541.12	25542.27
541.29	25593.76
541.46	25685.04
541.62	25692.06
541.79	25841.85
541.96	25628.87
542.13	25933.14
542.30	25874.62
542.47	26118.04
542.63	25874.62
542.80	26459.76
542.97	26410.60
543.14	26244.43
543.31	26361.45
543.48	25919.09
543.64	26686.79
543.81	26579.12
543.98	26607.21
544.15	26567.42
544.32	26586.15
544.48	26408.26
544.65	26452.73
544.82	26448.05
544.99	26260.81
545.16	26375.50
545.32	26691.47
545.49	26499.55
545.66	27047.23
545.83	26967.65
546.00	26820.20
546.16	26778.07
546.33	26553.38
546.50	26710.19
546.67	26721.90
546.83	26457.42
547.00	26452.73
547.17	27122.13
547.34	26962.97
547.50	26981.70
547.67	27250.86
547.84	26759.34
548.00	27283.62
548.17	26920.84
548.34	27211.07
548.51	27215.75
548.67	27421.72
548.84	27267.24
549.01	27154.90
549.18	27278.94
549.34	27300.01
549.51	27227.45
549.68	27316.39
549.84	27152.55
550.01	27332.78
550.18	27026.17
550.34	27913.23
550.51	27433.42
550.68	27835.99
550.84	27428.74
551.01	27693.22
551.18	27494.27
551.34	27505.98
551.51	27433.42
551.68	28016.21
551.84	27655.77
552.01	27440.44
552.18	27758.75
552.34	27674.49
552.51	27742.37
552.68	27665.13
552.84	27950.68
553.01	27740.03
553.18	27824.29
553.34	27569.17
553.51	27679.18
553.67	27967.06
553.84	28210.48
554.01	28336.87
554.17	28430.49
554.34	28332.18
554.51	27936.63
554.67	27847.69
554.84	28135.58
555.00	27992.81
555.17	28180.05
555.33	28151.96
555.50	27995.15
555.67	28161.33
555.83	28027.92
556.00	28046.64
556.16	28496.02
556.33	28512.41
556.50	28058.34
556.66	28837.74
556.83	28414.10
556.99	28517.09
557.16	28959.45
557.32	28559.22
557.49	28278.35
557.65	28360.27
557.82	28266.65
557.98	28416.44
558.15	28535.81
558.32	28730.08
558.48	28573.26
558.65	28685.61
558.81	28367.29
558.98	28505.38
559.14	28435.17
559.31	28531.13
559.47	28404.74
559.64	28517.09
559.80	28659.86
559.97	28854.12
560.13	28629.43
560.30	28678.58
560.46	28706.67
560.63	29198.18
560.79	28807.31
560.96	29006.26
561.12	28606.03
561.29	28730.08
561.45	28690.29
561.61	28854.12
561.78	28779.23
561.94	28814.34
562.11	28833.06
562.27	29062.43
562.44	29172.44
562.60	29244.99
562.77	29008.60
562.93	28744.12
563.10	29186.48
563.26	28924.34
563.42	29411.17
563.59	29085.84
563.75	29088.18
563.92	28795.61
564.08	28868.17
564.24	28907.96
564.41	28940.72
564.57	28964.13
564.74	28723.05
564.90	29130.31
565.07	29214.57
565.23	29333.93
565.39	28748.80
565.56	29324.57
565.72	28994.56
565.88	29401.81
566.05	29345.64
566.21	28929.02
566.38	29029.66
566.54	29432.24
566.70	29528.20
566.87	29465.00
567.03	29546.92
567.19	29511.81
567.36	29652.25
567.52	29366.70
567.68	29181.80
567.85	28819.02
568.01	29336.27
568.17	29015.62
568.34	29411.17
568.50	29277.76
568.66	29537.56
568.83	29563.31
568.99	29347.98
569.15	29666.29
569.32	29326.91
569.48	29027.32
569.64	29083.50
569.81	29434.58
569.97	29336.27
570.13	29331.59
570.30	29266.06
570.46	29799.70
570.62	29362.02
570.78	29275.42
570.95	29457.98
571.11	29170.10
571.27	29490.75
571.43	29563.31
571.60	29701.40
571.76	29649.91
571.92	29914.39
572.09	29703.74
572.25	29640.54
572.41	29633.52
572.57	29785.66
572.74	29202.86
572.90	29563.31
573.06	29640.54
573.22	29586.71
573.38	29509.47
573.55	29539.90
573.71	29827.79
573.87	29979.92
574.03	29731.83
574.20	29460.32
574.36	29336.27
574.52	29797.36
574.68	29692.04
574.84	29535.22
575.01	29603.10
575.17	29839.49
575.33	29886.30
575.49	29848.85
575.65	29752.89
575.82	29694.38
575.98	29855.87
576.14	29542.24
576.30	29649.91
576.46	29703.74
576.62	29415.85
576.79	29942.47
576.95	29460.32
577.11	29612.46
577.27	29764.59
577.43	29764.59
577.59	29670.97
577.75	29923.75
577.92	29706.08
578.08	29362.02
578.24	29605.44
578.40	30244.40
578.56	29425.22
578.72	29916.73
578.88	29975.24
579.04	30178.87
579.21	30024.39
579.37	30115.67
579.53	29876.94
579.69	29766.93
579.85	29687.36
580.01	29720.12
580.17	29827.79
580.33	29483.73
580.49	29823.11
580.65	29933.11
580.82	29898.00
580.98	29851.19
581.14	29947.15
581.30	30338.02
581.46	29720.12
581.62	29677.99
581.78	29848.85
581.94	30071.20
582.10	29935.45
582.26	29799.70
582.42	30085.25
582.58	30375.47
582.74	29998.65
582.90	30279.51
583.06	29940.13
583.22	29823.11
583.38	29715.44
583.54	29979.92
583.70	29640.54
583.86	29954.18
584.02	30139.08
584.18	30387.18
584.34	30221.00
584.50	30242.06
584.66	29956.52
584.82	30066.52
584.98	30134.40
585.14	30199.93
585.30	29605.44
585.46	29694.38
585.62	29855.87
585.78	30139.08
585.94	29785.66
586.10	29888.64
586.26	30089.93
586.42	30419.94
586.58	29895.66
586.74	30036.09
586.90	29757.57
587.06	29383.09
587.22	29977.58
587.38	29902.68
587.54	30003.33
587.70	30113.33
587.86	30146.10
588.02	30321.64
588.18	30206.95
588.34	30342.70
588.49	30015.03
588.65	29869.92
588.81	29560.97
588.97	30485.48
589.13	29795.02
589.29	29895.66
589.45	30103.97
589.61	29989.28
589.77	30426.96
589.93	30136.74
590.08	30345.05
590.24	30410.58
590.40	30384.83
590.56	30253.76
590.72	30050.14
590.88	30003.33
591.04	30129.72
591.20	30359.09
591.35	30382.49
591.51	30693.79
591.67	30412.92
591.83	30820.17
591.99	30401.22
592.15	30600.16
592.31	30331.00
592.46	30251.42
592.62	30050.14
592.78	30169.51
592.94	30363.77
593.10	30338.02
593.26	30314.62
593.41	30450.37
593.57	30480.80
593.73	30040.78
593.89	30529.95
594.05	30284.19
594.20	30518.25
594.36	30155.46
594.52	30150.78
594.68	29851.19
594.84	29825.45
594.99	30684.42
595.15	30401.22
595.31	30696.13
595.47	30515.90
595.62	30499.52
595.78	30466.75
595.94	30705.49
596.10	30302.92
596.25	30253.76
596.41	30368.45
596.57	30244.40
596.73	30380.15
596.88	30328.66
597.04	30803.79
597.20	30499.52
597.36	30518.25
597.51	30780.39
597.67	30401.22
597.83	30405.90
597.99	30555.69
598.14	30480.80
598.30	30450.37
598.46	29996.31
598.61	30300.58
598.77	30462.07
598.93	30368.45
599.09	30396.54
599.24	30820.17
599.40	30771.02
599.56	30712.51
599.71	30441.01
599.87	30335.68
600.03	30326.32
600.18	30206.95
600.34	30520.59
600.50	30335.68
600.65	30293.55
600.81	30206.95
600.97	30590.80
601.12	30859.96
601.28	30801.45
601.44	30529.95
601.59	30827.20
601.75	30576.76
601.91	30675.06
602.06	30300.58
602.22	30513.56
602.37	30520.59
602.53	30614.21
602.69	30803.79
602.84	30639.95
603.00	30705.49
603.16	30520.59
603.31	30462.07
603.47	30546.33
603.62	30384.83
603.78	30426.96
603.94	30438.67
604.09	30618.89
604.25	30487.82
604.40	30043.12
604.56	30441.01
604.71	30691.44
604.87	30265.47
605.03	30876.35
605.18	30654.00
605.34	30288.87
605.49	30199.93
605.65	30370.79
605.80	30441.01
605.96	30579.10
606.12	30284.19
606.27	30623.57
606.43	30195.25
606.58	30656.34
606.74	30326.32
606.89	30288.87
607.05	30178.87
607.20	30508.88
607.36	30565.06
607.51	30466.75
607.67	30199.93
607.82	29965.88
607.98	30178.87
608.13	30307.60
608.29	30422.28
608.44	30473.78
608.60	30471.43
608.75	30597.82
608.91	30670.38
609.06	30209.29
609.22	30661.02
609.37	30167.16
609.53	30136.74
609.68	30698.47
609.84	30448.03
609.99	30197.59
610.15	30043.12
610.30	30513.56
610.46	30071.20
610.61	30401.22
610.76	30195.25
610.92	30249.08
611.07	30183.55
611.23	30223.34
611.38	30251.42
611.54	30197.59
611.69	29699.06
611.84	29837.15
612.00	30092.27
612.15	29621.82
612.31	30352.07
612.46	29890.98
612.62	30387.18
612.77	29963.54
612.92	30387.18
613.08	29853.53
613.23	30225.68
613.39	30228.02
613.54	29984.60
613.69	29869.92
613.85	29867.58
614.00	30396.54
614.15	29902.68
614.31	29748.21
614.46	30328.66
614.62	30185.89
614.77	29872.26
614.92	29874.60
615.08	29809.06
615.23	29862.90
615.38	30120.35
615.54	29490.75
615.69	29785.66
615.84	29528.20
616.00	29795.02
616.15	29958.86
616.30	29944.81
616.46	29876.94
616.61	29738.85
616.76	29844.17
616.92	29820.77
617.07	29656.93
617.22	29483.73
617.37	29584.37
617.53	29743.53
617.68	29237.97
617.83	30019.71
617.99	29521.18
618.14	29413.51
618.29	29823.11
618.45	29305.85
618.60	29532.88
618.75	29460.32
618.90	29572.67
619.06	29703.74
619.21	29624.16
619.36	30134.40
619.51	29308.19
619.67	29226.27
619.82	29244.99
619.97	29418.19
620.12	29055.41
620.28	29408.83
620.43	29497.77
620.58	29359.68
620.73	29322.23
620.89	29689.70
621.04	29097.54
621.19	29078.82
621.34	29144.35
621.49	29252.02
621.65	29134.99
621.80	29699.06
621.95	29022.64
622.10	29118.60
622.25	28755.82
622.41	29001.58
622.56	29202.86
622.71	29097.54
622.86	29048.39
623.01	29106.90
623.16	29151.37
623.32	28624.75
623.47	28978.17
623.62	29336.27
623.77	29008.60
623.92	28671.56
624.07	28994.56
624.23	28914.98
624.38	29102.22
624.53	29027.32
624.68	29465.00
624.83	29216.91
624.98	28947.75
625.13	28929.02
625.29	28847.10
625.44	28809.65
625.59	28669.22
625.74	28676.24
625.89	28699.65
626.04	28563.90
626.19	28306.44
626.34	28671.56
626.49	28634.11
626.65	28505.38
626.80	28795.61
626.95	28835.40
627.10	28547.51
627.25	28409.42
627.40	28308.78
627.55	28362.61
627.70	28659.86
627.85	28074.73
628.00	28622.41
628.15	28072.39
628.30	28381.34
628.45	28222.18
628.60	28252.61
628.76	28491.34
628.91	28606.03
629.06	28161.33
629.21	28273.67
629.36	28308.78
629.51	28285.37
629.66	28336.87
629.81	28009.19
629.96	27908.55
630.11	28212.82
630.26	27730.67
630.41	27861.74
630.56	28184.73
630.71	28226.86
630.86	28404.74
631.01	28030.26
631.16	28201.11
631.31	27988.13
631.46	28063.02
631.61	28210.48
631.76	28107.49
631.91	28077.07
632.06	28301.76
632.21	27847.69
632.36	28086.43
632.51	27756.41
632.66	27903.87
632.81	28081.75
632.96	28306.44
633.10	28044.30
633.25	28397.72
633.40	28063.02
633.55	27903.87
633.70	27861.74
633.85	27576.19
634.00	27985.79
634.15	27700.24
634.30	27522.36
634.45	27576.19
634.60	27707.26
634.75	27833.65
634.90	27665.13
635.05	27566.83
635.19	27517.68
635.34	27749.39
635.49	27845.35
635.64	27880.46
635.79	27517.68
635.94	27667.47
636.09	27342.14
636.24	27491.93
636.39	27332.78
636.53	27112.77
636.68	27447.46
636.83	27538.74
636.98	27866.42
637.13	27346.82
637.28	27527.04
637.43	27491.93
637.57	27477.89
637.72	27410.01
637.87	27180.64
638.02	27679.18
638.17	27728.33
638.32	27454.48
638.46	27197.02
638.61	27402.99
638.76	26918.50
638.91	27412.35
639.06	26817.86
639.20	27037.87
639.35	27344.48
639.50	27482.57
639.65	27496.61
639.80	27379.59
639.94	26977.01
640.09	27285.97
640.24	27091.70
640.39	27049.57
640.54	26909.14
640.68	26927.86
640.83	26991.06
640.98	27180.64
641.13	26993.40
641.27	27239.15
641.42	27089.36
641.57	27161.92
641.72	27335.12
641.86	26974.67
642.01	26817.86
642.16	26682.11
642.31	26586.15
642.45	26780.41
642.60	27047.23
642.75	26455.08
642.90	26316.98
643.04	26841.26
643.19	26511.25
643.34	26845.94
643.48	26656.36
643.63	26827.22
643.78	26520.61
643.93	26752.32
644.07	26927.86
644.22	26824.88
644.37	26923.18
644.51	26426.99
644.66	26785.09
644.81	26101.65
644.95	26658.70
645.10	26471.46
645.25	26529.97
645.39	26445.71
645.54	26485.50
645.69	26476.14
645.83	26319.32
645.98	26429.33
646.13	26450.39
646.27	26728.92
646.42	26452.73
646.57	26588.49
646.71	26328.69
646.86	25977.61
647.00	26171.87
647.15	25991.65
647.30	26113.36
647.44	26066.55
647.59	26492.52
647.74	26150.81
647.88	26178.89
648.03	26625.93
648.17	26558.06
648.32	26279.54
648.47	26429.33
648.61	26246.77
648.76	26244.43
648.90	26441.03
649.05	26419.97
649.20	26005.69
649.34	26031.44
649.49	25614.82
649.63	25965.90
649.78	26057.18
649.92	25923.77
650.07	26185.91
650.21	25876.96
650.36	26174.21
650.51	25844.20
650.65	26134.42
650.80	25792.70
650.94	26047.82
651.09	25956.54
651.23	25958.88
651.38	25958.88
651.52	25549.29
651.67	25837.17
651.81	25645.25
651.96	25413.54
652.10	26106.34
652.25	25844.20
652.39	25972.92
652.54	25675.68
652.68	25851.22
652.83	25710.78
652.97	25680.36
653.12	25291.83
653.26	25788.02
653.41	25764.62
653.55	25699.08
653.70	25577.37
653.84	25617.16
653.99	25497.80
654.13	25542.27
654.27	25205.23
654.42	25390.13
654.56	25560.99
654.71	25834.83
654.85	25722.49
655.00	25717.81
655.14	25465.03
655.29	25289.49
655.43	25291.83
655.57	25369.07
655.72	25102.25
655.86	25179.48
656.01	25326.94
656.15	25270.76
656.30	25163.10
656.44	24816.70
656.58	25064.80
656.73	25195.87
656.87	25490.77
657.01	25069.48
657.16	25308.21
657.30	25511.84
657.45	25223.95
657.59	25184.16
657.73	24870.53
657.88	25184.16
658.02	24790.95
658.16	25198.21
658.31	24936.07
658.45	25015.65
658.60	24720.74
658.74	24884.58
658.88	24964.15
659.03	24580.31
659.17	24613.07
659.31	25130.33
659.46	24903.30
659.60	24805.00
659.74	24596.69
659.89	24828.40
660.03	24383.70
660.17	24519.45
660.32	24442.21
660.46	24395.40
660.60	24425.83
660.74	24423.49
660.89	24271.36
661.03	23990.49
661.17	24287.74
661.32	24292.42
661.46	24526.47
661.60	24360.30
661.74	24687.97
661.89	24430.51
662.03	24634.14
662.17	24135.60
662.31	24084.11
662.46	24402.43
662.60	24011.56
662.74	24074.75
662.88	23955.38
663.03	23927.30
663.17	23871.12
663.31	23847.72
663.45	23819.63
663.60	23587.92
663.74	23946.02
663.88	23854.74
664.02	23716.65
664.17	24093.47
664.31	23854.74
664.45	23740.05
664.59	23843.04
664.73	23878.15
664.88	23442.81
665.02	23136.20
665.16	23351.52
665.30	23433.44
665.44	23232.16
665.59	23234.50
665.73	23206.41
665.87	23473.23
666.01	23484.94
666.15	23515.36
666.29	23278.97
666.44	23365.57
666.58	23068.32
666.72	23157.26
666.86	23445.15
667.00	23529.41
667.14	23527.06
667.28	23211.09
667.43	22827.24
667.57	22852.99
667.71	23108.11
667.85	22904.48
667.99	23026.19
668.13	22719.58
668.27	22710.22
668.41	22953.63
668.56	22913.84
668.70	22654.05
668.84	22850.65
668.98	22562.76
669.12	22904.48
669.26	22960.66
669.40	22457.44
669.54	22623.62
669.68	22689.15
669.82	22572.13
669.96	22562.76
670.10	22714.90
670.25	22480.85
670.39	22295.94
670.53	22012.74
670.67	22082.95
670.81	22356.80
670.95	22324.03
671.09	22274.88
671.23	22043.17
671.37	22370.84
671.51	22375.52
671.65	22141.47
671.79	21968.27
671.93	21813.79
672.07	22160.19
672.21	22066.57
672.35	21968.27
672.49	21413.56
672.63	21823.16
672.77	21769.32
672.91	21659.32
673.05	21453.35
673.19	21553.99
673.33	21549.31
673.47	21448.67
673.61	21296.53
673.75	21469.73
673.89	21455.69
674.03	21432.29
674.17	21228.66
674.31	21057.80
674.45	21123.33
674.59	21135.04
674.73	21135.04
674.87	20961.84
675.01	21394.84
675.15	21092.91
675.29	20594.37
675.43	20931.41
675.56	20767.57
675.70	20704.38
675.84	20748.85
675.98	20215.21
676.12	20900.98
676.26	20755.87
676.40	20971.20
676.54	20734.81
676.68	20505.43
676.82	20271.38
676.96	20538.20
677.10	20189.46
677.23	20198.82
677.37	20168.40
677.51	19957.75
677.65	20238.61
677.79	20142.65
677.93	19882.85
678.07	19765.82
678.21	19920.30
678.34	20027.96
678.48	20025.62
678.62	19882.85
678.76	19728.38
678.90	19585.60
679.04	19662.84
679.18	19468.58
679.31	19061.32
679.45	18951.32
679.59	19318.78
679.73	19323.46
679.87	18841.31
680.00	19049.62
680.14	19042.60
680.28	19194.73
680.42	18967.70
680.56	19101.11
680.70	18684.50
680.83	18752.37
680.97	18862.38
681.11	18892.80
681.25	18775.78
681.39	18565.13
681.52	18455.12
681.66	18654.07
681.80	18480.87
681.94	18515.98
682.07	18588.53
682.21	18340.44
682.35	17902.76
682.49	18548.75
682.62	18302.99
682.76	18125.11
682.90	18139.15
683.04	17797.43
683.17	18160.22
683.31	17877.01
683.45	18242.14
683.59	18022.12
683.72	17750.62
683.86	17846.58
684.00	17633.60
684.13	17642.96
684.27	17343.37
684.41	17741.26
684.55	17123.36
684.68	17371.46
684.82	17135.06
684.96	17268.47
685.09	17195.92
685.23	16849.52
685.37	17165.49
685.50	17137.40
685.64	17032.08
685.78	17055.48
685.91	17034.42
686.05	16776.96
686.19	16610.78
686.32	16769.94
686.46	16709.08
686.60	16400.13
686.73	16510.14
686.87	16393.11
687.01	16435.24
687.14	16383.75
687.28	16535.88
687.42	16009.26
687.55	16109.91
687.69	16432.90
687.82	16222.25
687.96	16166.08
688.10	16161.40
688.23	16240.98
688.37	15948.41
688.50	15892.24
688.64	16023.31
688.78	15810.32
688.91	15527.11
689.05	15702.65
689.18	15461.58
689.32	15335.19
689.46	15475.62
689.59	15571.58
689.73	15374.98
689.86	15276.68
690.00	15110.50
690.13	15300.08
690.27	15190.08
690.41	15250.93
690.54	14956.02
690.68	15044.96
690.81	15075.39
690.95	15075.39
691.08	15070.71
691.22	14923.26
691.35	15021.56
691.49	14693.88
691.62	14555.79
691.76	14658.78
691.89	14410.68
692.03	14410.68
692.16	14349.82
692.30	13956.61
692.43	14326.42
692.57	14129.81
692.70	14066.62
692.84	14108.75
692.97	13933.21
693.11	14185.99
693.24	14118.11
693.38	14005.77
693.51	13893.42
693.65	13764.69
693.78	13710.86
693.92	13891.08
694.05	13994.06
694.19	13685.11
694.32	13792.78
694.45	13511.91
694.59	13261.48
694.72	13378.50
694.86	13263.82
694.99	13135.09
695.13	13048.49
695.26	12950.18
695.39	13053.17
695.53	13331.69
695.66	12952.52
695.80	13088.28
695.93	13029.76
696.07	13067.21
696.20	13107.00
696.33	13036.78
696.47	12784.01
696.60	12833.16
696.73	12793.37
696.87	12500.80
697.00	12826.14
697.14	12479.74
697.27	12409.52
697.40	12400.16
697.54	12418.88
697.67	12311.22
697.80	12339.30
697.94	12304.20
698.07	12201.21
698.21	12154.40
698.34	12119.29
698.47	12194.19
698.61	12166.10
698.74	12168.45
698.87	11941.41
699.01	11812.68
699.14	11932.05
699.27	11864.18
699.40	11847.79
699.54	11791.62
699.67	11520.12
699.80	11377.34
699.94	11407.77
700.07	11346.92
700.20	11183.08
700.34	11206.48
700.47	11236.91
700.60	11543.52
700.73	11438.20
700.87	11239.25
701.00	11066.05
701.13	11234.57
701.26	11007.54
701.40	11344.58
701.53	10986.47
701.66	11124.57
701.79	10796.89
701.93	10771.15
702.06	10672.84
702.19	10628.37
702.32	10579.22
702.46	10710.29
702.59	10672.84
702.72	10480.92
702.85	10537.09
702.99	10499.64
703.12	10335.81
703.25	10087.71
703.38	10352.19
703.51	10399.00
703.65	10284.31
703.78	10031.54
703.91	10178.99
704.04	10134.52
704.17	10331.12
704.31	10223.46
704.44	10141.54
704.57	10115.80
704.70	9991.75
704.83	9687.48
704.96	9877.06
705.10	9668.75
705.23	9628.96
>>>>>End Processed Spectral Data<<<<<
