SpectraSuite Data File
++++++++++++++++++++++++++++++++++++
Date: Fri Oct 18 13:57:58 GMT-05:00 2013
User: bianchi
Dark Spectrum Present: No
Reference Spectrum Present: No
Number of Sampled Component Spectra: 1
Spectrometers: USB2+H05261
Integration Time (usec): 50000 (USB2+H05261)
Spectra Averaged: 1 (USB2+H05261)
Boxcar Smoothing: 0 (USB2+H05261)
Correct for Electrical Dark: No (USB2+H05261)
Strobe/Lamp Enabled: No (USB2+H05261)
Correct for Detector Non-linearity: No (USB2+H05261)
Correct for Stray Light: No (USB2+H05261)
Number of Pixels in Processed Spectrum: 2048
>>>>>Begin Processed Spectral Data<<<<<
365.73	0.00
365.92	0.00
366.12	0.00
366.32	0.00
366.52	0.00
366.72	0.00
366.91	0.00
367.11	0.00
367.31	0.00
367.51	0.00
367.70	0.00
367.90	0.00
368.10	0.00
368.30	0.00
368.49	0.00
368.69	0.00
368.89	0.00
369.09	0.00
369.28	0.00
369.48	0.00
369.68	0.00
369.87	0.00
370.07	0.00
370.27	0.00
370.47	0.00
370.66	51.49
370.86	49.15
371.06	149.79
371.25	156.82
371.45	175.54
371.65	173.20
371.84	100.64
372.04	95.96
372.24	227.03
372.44	196.60
372.63	217.67
372.83	208.31
373.03	201.29
373.22	175.54
373.42	201.29
373.62	210.65
373.81	227.03
374.01	191.92
374.21	208.31
374.40	262.14
374.60	311.29
374.79	236.39
374.99	255.12
375.19	264.48
375.38	205.97
375.58	266.82
375.78	290.23
375.97	283.20
376.17	273.84
376.37	229.37
376.56	229.37
376.76	262.14
376.95	236.39
377.15	248.10
377.35	290.23
377.54	250.44
377.74	294.91
377.93	262.14
378.13	322.99
378.33	243.42
378.52	280.86
378.72	292.57
378.91	287.89
379.11	278.52
379.31	313.63
379.50	313.63
379.70	325.33
379.89	332.36
380.09	287.89
380.28	264.48
380.48	262.14
380.68	362.78
380.87	287.89
381.07	325.33
381.26	334.70
381.46	334.70
381.65	292.57
381.85	236.39
382.04	367.46
382.24	318.31
382.43	266.82
382.63	355.76
382.83	287.89
383.02	304.27
383.22	292.57
383.41	369.80
383.61	369.80
383.80	425.98
384.00	362.78
384.19	402.57
384.39	430.66
384.58	327.68
384.78	362.78
384.97	416.62
385.17	397.89
385.36	393.21
385.56	393.21
385.75	372.15
385.95	397.89
386.14	423.64
386.34	411.93
386.53	461.09
386.72	404.91
386.92	489.17
387.11	484.49
387.31	428.32
387.50	388.53
387.70	451.72
387.89	423.64
388.09	442.36
388.28	477.47
388.48	435.34
388.67	482.15
388.86	498.53
389.06	465.77
389.25	592.16
389.45	472.79
389.64	514.92
389.84	440.02
390.03	479.81
390.22	486.83
390.42	418.96
390.61	517.26
390.81	475.13
391.00	505.56
391.19	538.32
391.39	503.22
391.58	484.49
391.78	538.32
391.97	561.73
392.16	454.06
392.36	526.62
392.55	521.94
392.75	449.38
392.94	531.30
393.13	599.18
393.33	566.41
393.52	589.82
393.71	629.60
393.91	535.98
394.10	526.62
394.29	648.33
394.49	681.10
394.68	699.82
394.88	571.09
395.07	601.52
395.26	606.20
395.46	718.54
395.65	566.41
395.84	550.03
396.04	613.22
396.23	657.69
396.42	699.82
396.62	601.52
396.81	667.05
397.00	662.37
397.19	629.60
397.39	690.46
397.58	634.29
397.77	725.57
397.97	685.78
398.16	725.57
398.35	718.54
398.55	699.82
398.74	809.83
398.93	720.88
399.12	802.80
399.32	636.63
399.51	706.84
399.70	814.51
399.90	758.33
400.09	765.36
400.28	854.30
400.47	828.55
400.67	791.10
400.86	791.10
401.05	786.42
401.24	779.40
401.44	774.72
401.63	917.49
401.82	851.96
402.01	779.40
402.21	816.85
402.40	814.51
402.59	903.45
402.78	891.74
402.97	868.34
403.17	791.10
403.36	868.34
403.55	973.66
403.74	936.21
403.93	903.45
404.13	1071.97
404.32	936.21
404.51	1043.88
404.70	1008.77
404.89	901.11
405.09	1015.79
405.28	922.17
405.47	964.30
405.66	926.85
405.85	1025.15
406.05	954.94
406.24	1048.56
406.43	1004.09
406.62	964.30
406.81	1142.18
407.00	1078.99
407.20	1013.45
407.39	1090.69
407.58	1097.71
407.77	1083.67
407.96	1102.39
408.15	1156.22
408.34	1001.75
408.54	1102.39
408.73	1100.05
408.92	1165.59
409.11	1179.63
409.30	1219.42
409.49	1132.82
409.68	1137.50
409.87	1191.33
410.07	1277.93
410.26	1149.20
410.45	1193.67
410.64	1196.01
410.83	1160.91
411.02	1301.34
411.21	1256.87
411.40	1191.33
411.59	1315.38
411.78	1418.36
411.98	1359.85
412.17	1362.19
412.36	1345.81
412.55	1313.04
412.74	1425.39
412.93	1444.11
413.12	1399.64
413.31	1497.94
413.50	1448.79
413.69	1472.20
413.88	1486.24
414.07	1465.18
414.26	1500.28
414.45	1526.03
414.64	1530.71
414.83	1603.27
415.02	1565.82
415.22	1668.80
415.41	1652.42
415.60	1469.86
415.79	1586.88
415.98	1614.97
416.17	1760.08
416.36	1638.38
416.55	1689.87
416.74	1673.48
416.93	1792.85
417.12	1668.80
417.31	1748.38
417.50	1671.14
417.69	1886.47
417.88	1678.16
418.07	1825.62
418.26	1795.19
418.45	1870.09
418.64	1884.13
418.83	1788.17
419.02	1802.21
419.21	1977.75
419.39	1839.66
419.58	1865.41
419.77	1839.66
419.96	1956.69
420.15	1853.70
420.34	1837.32
420.53	1937.96
420.72	2083.08
420.91	1989.46
421.10	2012.86
421.29	1994.14
421.48	1919.24
421.67	1975.41
421.86	1998.82
422.05	1926.26
422.24	2029.24
422.43	1994.14
422.61	1980.09
422.80	2148.61
422.99	2190.74
423.18	2005.84
423.37	2052.65
423.56	2066.69
423.75	2066.69
423.94	1987.11
424.13	1963.71
424.32	2104.14
424.50	2059.67
424.69	2076.06
424.88	2132.23
425.07	2052.65
425.26	2059.67
425.45	2064.35
425.64	2108.82
425.83	2033.93
426.01	2160.31
426.20	2099.46
426.39	2054.99
426.58	2202.44
426.77	2223.51
426.96	2160.31
427.15	2179.04
427.33	2132.23
427.52	2211.81
427.71	2253.94
427.90	2279.68
428.09	2200.10
428.28	2263.30
428.46	2289.04
428.65	2225.85
428.84	2368.62
429.03	2345.22
429.22	2155.63
429.40	2246.91
429.59	2370.96
429.78	2190.74
429.97	2209.47
430.16	2209.47
430.34	2457.56
430.53	2464.58
430.72	2389.69
430.91	2452.88
431.10	2401.39
431.28	2385.01
431.47	2445.86
431.66	2422.45
431.85	2377.98
432.03	2422.45
432.22	2565.23
432.41	2457.56
432.60	2525.44
432.79	2352.24
432.97	2497.35
433.16	2555.86
433.35	2532.46
433.54	2607.36
433.72	2689.28
433.91	2574.59
434.10	2586.29
434.28	2600.34
434.47	2651.83
434.66	2567.57
434.85	2705.66
435.03	2527.78
435.22	2649.49
435.41	2782.90
435.59	2715.02
435.78	2642.46
435.97	2551.18
436.16	2754.81
436.34	2708.00
436.53	2649.49
436.72	2867.16
436.90	2731.41
437.09	2693.96
437.28	2649.49
437.46	2752.47
437.65	2794.60
437.84	2853.11
438.02	2820.35
438.21	2822.69
438.40	2810.98
438.58	2939.71
438.77	2897.58
438.96	2906.95
439.14	2988.86
439.33	3061.42
439.52	3009.93
439.70	2991.20
439.89	3173.77
440.08	3094.19
440.26	3227.60
440.45	3136.32
440.63	3091.85
440.82	3204.19
441.01	3213.56
441.19	3199.51
441.38	3260.37
441.57	3241.64
441.75	3243.98
441.94	3648.90
442.12	3379.73
442.31	3435.91
442.50	3407.82
442.68	3435.91
442.87	3438.25
443.05	3346.97
443.24	3487.40
443.43	3529.53
443.61	3438.25
443.80	3588.04
443.98	3438.25
444.17	3419.52
444.35	3693.37
444.54	3468.67
444.73	3576.34
444.91	3426.54
445.10	3445.27
445.28	3508.46
445.47	3543.57
445.65	3478.04
445.84	3599.74
446.02	3648.90
446.21	3616.13
446.39	3379.73
446.58	3550.59
446.77	3749.54
446.95	3461.65
447.14	3578.68
447.32	3655.92
447.51	3641.87
447.69	3606.77
447.88	3590.38
448.06	3590.38
448.25	3714.43
448.43	3623.15
448.62	3555.27
448.80	3585.70
448.99	3742.52
449.17	3641.87
449.36	3630.17
449.54	3747.20
449.73	3786.99
449.91	3861.88
450.10	3782.31
450.28	3847.84
450.46	3798.69
450.65	3693.37
450.83	3880.61
451.02	4009.34
451.20	3911.04
451.39	3920.40
451.57	3906.35
451.76	3796.35
451.94	3976.57
452.13	3913.38
452.31	3953.16
452.49	4004.66
452.68	3925.08
452.86	3922.74
453.05	4046.79
453.23	4018.70
453.42	3934.44
453.60	3768.26
453.78	3932.10
453.97	3962.53
454.15	3950.82
454.34	3971.89
454.52	4262.12
454.70	4067.85
454.89	3971.89
455.07	4182.54
455.26	4238.71
455.44	4255.09
455.62	4098.28
455.81	4224.67
455.99	4119.34
456.17	4243.39
456.36	4234.03
456.54	4402.55
456.73	4400.21
456.91	4362.76
457.09	4397.87
457.28	4517.23
457.46	4528.94
457.64	4318.29
457.83	4517.23
458.01	4437.66
458.19	4512.55
458.38	4498.51
458.56	4444.68
458.74	4603.83
458.93	4585.11
459.11	4603.83
459.29	4454.04
459.48	4638.94
459.66	4601.49
459.84	4620.22
460.03	4744.27
460.21	4559.36
460.39	4641.28
460.57	4650.64
460.76	4610.86
460.94	4725.54
461.12	4788.74
461.31	4762.99
461.49	4681.07
461.67	4791.08
461.85	4847.25
462.04	4795.76
462.22	5142.16
462.40	4814.48
462.59	4814.48
462.77	4713.84
462.95	4901.08
463.13	4952.57
463.32	5064.92
463.50	5067.26
463.68	4873.00
463.86	4915.12
464.05	4835.55
464.23	4919.81
464.41	5064.92
464.59	4889.38
464.78	5067.26
464.96	4980.66
465.14	5060.24
465.32	5095.35
465.50	5114.07
465.69	5107.05
465.87	5069.60
466.05	5121.09
466.23	5102.37
466.41	5151.52
466.60	5266.21
466.78	5149.18
466.96	5083.64
467.14	5165.56
467.32	5195.99
467.51	5242.80
467.69	5149.18
467.87	5198.33
468.05	5268.55
468.23	5371.53
468.41	5242.80
468.60	5195.99
468.78	5280.25
468.96	5294.29
469.14	5509.62
469.32	5448.77
469.50	5348.12
469.69	5394.93
469.87	5661.76
470.05	5472.17
470.23	5589.20
470.41	5582.18
470.59	5713.25
470.77	5558.77
470.95	5561.11
471.14	5502.60
471.32	5638.35
471.50	5715.59
471.68	5785.80
471.86	5837.30
472.04	5797.51
472.22	5748.36
472.40	5888.79
472.58	5731.97
472.77	5942.62
472.95	5942.62
473.13	6125.18
473.31	5851.34
473.49	5921.56
473.67	6141.57
473.85	6040.92
474.03	6179.01
474.21	6176.67
474.39	6314.77
474.57	6370.94
474.75	6134.54
474.93	6242.21
475.12	6321.79
475.30	6417.75
475.48	6380.30
475.66	6429.45
475.84	6455.20
476.02	6518.39
476.20	6658.82
476.38	6562.86
476.56	6857.77
476.74	6773.51
476.92	6576.91
477.10	6698.61
477.28	6836.70
477.46	6897.56
477.64	6836.70
477.82	6927.99
478.00	7155.02
478.18	7094.16
478.36	7283.75
478.54	7199.49
478.72	7192.47
478.90	7260.34
479.08	7328.22
479.26	7396.09
479.44	7569.29
479.62	7609.08
479.80	7585.68
479.98	7786.96
480.16	7676.96
480.34	7660.57
480.52	7824.41
480.70	8009.31
480.88	7833.77
481.06	7981.23
481.24	7927.39
481.41	7899.31
481.59	8212.94
481.77	8084.21
481.95	7896.97
482.13	8276.13
482.31	8229.32
482.49	8505.51
482.67	8451.67
482.85	8407.20
483.03	8535.93
483.21	8784.03
483.39	8737.22
483.57	8746.58
483.74	8952.55
483.92	9048.51
484.10	8945.53
484.28	9135.11
484.46	9226.39
484.64	9516.62
484.82	9308.31
485.00	9301.29
485.18	9610.24
485.35	9650.03
485.53	9659.39
485.71	9753.01
485.89	9907.49
486.07	9916.85
486.25	9778.76
486.43	9764.72
486.61	9956.64
486.78	10146.22
486.96	10265.59
487.14	10303.04
487.32	10293.68
487.50	10445.81
487.68	10670.50
487.85	10703.27
488.03	10644.76
488.21	10998.18
488.39	11007.54
488.57	10979.45
488.75	10892.85
488.92	10981.79
489.10	11311.81
489.28	11098.82
489.46	11548.20
489.64	11218.19
489.81	11616.08
489.99	11489.69
490.17	11606.72
490.35	11719.06
490.53	11829.07
490.70	12023.33
490.88	11798.64
491.06	12142.70
491.24	11894.60
491.41	11997.59
491.59	12212.92
491.77	12329.94
491.95	12549.95
492.13	12390.80
492.30	12894.01
492.48	12657.62
492.66	12943.16
492.84	12528.89
493.01	12877.63
493.19	12849.54
493.37	12915.08
493.54	13212.32
493.72	13275.52
493.90	13149.13
494.08	13490.85
494.25	13706.18
494.43	13483.83
494.61	13453.40
494.79	13767.03
494.96	13673.41
495.14	13675.75
495.32	13795.12
495.49	14127.47
495.67	14040.87
495.85	14267.91
496.02	14335.78
496.20	14370.89
496.38	14183.65
496.55	14211.73
496.73	14658.78
496.91	14642.39
497.09	14815.59
497.26	14656.43
497.44	14911.55
497.62	14972.41
497.79	14946.66
497.97	15063.69
498.14	15279.02
498.32	15171.35
498.50	15272.00
498.67	15225.18
498.85	15374.98
499.03	15403.07
499.20	15300.08
499.38	15597.33
499.56	15665.21
499.73	15726.06
499.91	15784.57
500.08	15941.39
500.26	15690.95
500.44	16032.67
500.61	15857.13
500.79	16032.67
500.97	16388.43
501.14	15866.49
501.32	16051.39
501.49	16109.91
501.67	16098.20
501.84	16498.44
502.02	16334.60
502.20	16514.82
502.37	16936.12
502.55	16512.48
502.72	16503.12
502.90	16758.24
503.07	16704.40
503.25	17027.40
503.43	16868.24
503.60	16924.41
503.78	16978.25
503.95	17008.67
504.13	16893.99
504.30	17376.14
504.48	17123.36
504.65	17329.33
504.83	17263.79
505.01	17432.31
505.18	17376.14
505.36	17708.49
505.53	17209.96
505.71	17713.17
505.88	17355.07
506.06	17434.65
506.23	17769.35
506.41	17914.46
506.58	17816.16
506.76	17930.84
506.93	17907.44
507.11	17844.24
507.28	18256.18
507.46	17921.48
507.63	18221.07
507.81	18300.65
507.98	18223.41
508.16	18218.73
508.33	18642.37
508.50	18422.36
508.68	18087.66
508.85	18689.18
509.03	18579.17
509.20	18558.11
509.38	19033.24
509.55	18953.66
509.73	19030.90
509.90	18611.94
510.08	18995.79
510.25	18782.80
510.42	19026.21
510.60	18974.72
510.77	19260.27
510.95	19218.14
511.12	19480.28
511.30	19063.66
511.47	19154.94
511.64	19440.49
511.82	19716.67
511.99	19683.91
512.17	19594.96
512.34	19864.13
512.51	19807.95
512.69	19934.34
512.86	20011.58
513.04	20201.16
513.21	19899.23
513.38	20156.69
513.56	20149.67
513.73	19903.92
513.90	19992.86
514.08	19995.20
514.25	20343.94
514.43	20355.64
514.60	20159.03
514.77	20510.11
514.95	20683.31
515.12	20484.37
515.29	20383.73
515.47	20533.52
515.64	20542.88
515.81	20435.22
515.99	20627.14
516.16	21184.19
516.33	20767.57
516.51	20807.36
516.68	20886.94
516.85	20723.10
517.03	21043.76
517.20	21270.79
517.37	21137.38
517.54	21167.80
517.72	21406.54
517.89	21359.73
518.06	20931.41
518.24	21186.53
518.41	21041.42
518.58	21439.31
518.75	21511.86
518.93	21596.12
519.10	21231.00
519.27	21565.70
519.45	21778.68
519.62	21886.35
519.79	21380.79
519.96	21668.68
520.14	21818.47
520.31	21766.98
520.48	21876.99
520.65	22082.95
520.83	22115.72
521.00	21895.71
521.17	22202.32
521.34	22223.39
521.52	22230.41
521.69	22246.79
521.86	22389.56
522.03	22429.35
522.20	22253.81
522.38	22300.62
522.55	22492.55
522.72	22478.50
522.89	22640.00
523.07	22902.14
523.24	22892.78
523.41	22600.21
523.58	22384.88
523.75	22761.71
523.92	22511.27
524.10	22794.48
524.27	22977.04
524.44	23143.22
524.61	22766.39
524.78	23325.78
524.96	23330.46
525.13	22909.16
525.30	23262.58
525.47	22958.31
525.64	23154.92
525.81	23559.83
525.98	23278.97
526.16	23323.44
526.33	23466.21
526.50	23641.75
526.67	23611.32
526.84	23461.53
527.01	23604.30
527.18	23679.20
527.36	23616.01
527.53	23711.97
527.70	24067.73
527.87	24030.28
528.04	23882.83
528.21	23901.55
528.38	23836.02
528.55	23999.85
528.72	23611.32
528.89	23859.42
529.07	23960.06
529.24	24156.67
529.41	24449.24
529.58	24114.54
529.75	24063.05
529.92	24226.89
530.09	24201.14
530.26	24247.95
530.43	24334.55
530.60	24308.80
530.77	24105.18
530.94	24100.50
531.11	24297.10
531.28	24357.96
531.46	24191.78
531.63	24788.61
531.80	24758.19
531.97	24570.94
532.14	24893.94
532.31	24893.94
532.48	24617.75
532.65	24926.71
532.82	24905.64
532.99	25172.46
533.16	24723.08
533.33	25123.31
533.50	24823.72
533.67	25200.55
533.84	25322.26
534.01	25034.37
534.18	24802.66
534.35	25228.63
534.52	25214.59
534.69	25296.51
534.86	25427.58
535.03	25448.64
535.20	25376.09
535.37	25467.37
535.54	25319.92
535.71	25521.20
535.88	25202.89
536.05	25429.92
536.22	25621.84
536.38	25869.94
536.55	26003.35
536.72	26050.16
536.89	25560.99
537.06	25633.55
537.23	25874.62
537.40	25385.45
537.57	25982.29
537.74	25832.49
537.91	26284.22
538.08	26012.71
538.25	25504.82
538.42	26022.08
538.59	26054.84
538.75	25518.86
538.92	25930.80
539.09	26019.74
539.26	26167.19
539.43	26195.28
539.60	25968.24
539.77	26522.95
539.94	26167.19
540.11	26410.60
540.28	26419.97
540.44	26206.98
540.61	26286.56
540.78	26284.22
540.95	26663.38
541.12	26253.79
541.29	26544.02
541.46	26391.88
541.62	26600.19
541.79	26728.92
541.96	26286.56
542.13	26548.70
542.30	26597.85
542.47	26684.45
542.63	27154.90
542.80	27051.91
542.97	26909.14
543.14	27192.34
543.31	27159.58
543.48	27236.81
543.64	27232.13
543.81	27346.82
543.98	27257.88
544.15	27250.86
544.32	27559.81
544.48	27302.35
544.65	27391.29
544.82	27400.65
544.99	27105.74
545.16	27145.53
545.32	27248.52
545.49	27304.69
545.66	27789.18
545.83	27754.07
546.00	27718.96
546.16	27693.22
546.33	27756.41
546.50	27094.04
546.67	27917.91
546.83	27615.98
547.00	27552.79
547.17	27695.56
547.34	27711.94
547.50	27814.93
547.67	27761.09
547.84	28030.26
548.00	27587.89
548.17	28084.09
548.34	27690.88
548.51	27716.62
548.67	28238.56
548.84	27873.44
549.01	27730.67
549.18	28350.91
549.34	28077.07
549.51	27857.06
549.68	28280.69
549.84	28072.39
550.01	27768.12
550.18	28013.87
550.34	28067.70
550.51	28428.15
550.68	28622.41
550.84	27892.16
551.01	28582.62
551.18	28252.61
551.34	28128.56
551.51	28346.23
551.68	28577.94
551.84	28599.01
552.01	28456.23
552.18	28587.30
552.34	28486.66
552.51	28786.25
552.68	28259.63
552.84	28453.89
553.01	28865.83
553.18	28648.16
553.34	28835.40
553.51	28643.48
553.67	28634.11
553.84	29090.52
554.01	28989.88
554.17	28865.83
554.34	28732.42
554.51	28926.68
554.67	29324.57
554.84	28678.58
555.00	29111.58
555.17	29074.13
555.33	29209.89
555.50	29113.92
555.67	28922.00
555.83	28952.43
556.00	29404.15
556.16	29399.47
556.33	29366.70
556.50	29179.46
556.66	29188.82
556.83	29319.89
556.99	29474.37
557.16	29668.63
557.32	29418.19
557.49	29497.77
557.65	29106.90
557.82	29022.64
557.98	29130.31
558.15	29713.10
558.32	29626.50
558.48	29017.96
558.65	29701.40
558.81	29560.97
558.98	29322.23
559.14	29301.17
559.31	29188.82
559.47	29439.26
559.64	29692.04
559.80	29429.90
559.97	29727.14
560.13	29483.73
560.30	29745.87
560.46	29762.25
560.63	29537.56
560.79	29797.36
560.96	29617.14
561.12	29549.26
561.29	29790.34
561.45	29869.92
561.61	29706.08
561.78	30029.07
561.94	29956.52
562.11	29790.34
562.27	29855.87
562.44	29823.11
562.60	29617.14
562.77	29647.57
562.93	30043.12
563.10	29869.92
563.26	29989.28
563.42	30375.47
563.59	29727.14
563.75	30012.69
563.92	29993.97
564.08	29825.45
564.24	30190.57
564.41	29703.74
564.57	29993.97
564.74	30115.67
564.90	30082.91
565.07	29970.56
565.23	30082.91
565.39	29956.52
565.56	30008.01
565.72	29476.71
565.88	30059.50
566.05	29546.92
566.21	29991.62
566.38	30242.06
566.54	29972.90
566.70	30698.47
566.87	30073.54
567.03	30405.90
567.19	30543.99
567.36	30511.22
567.52	29881.62
567.68	30384.83
567.85	30354.41
568.01	30260.79
568.17	29996.31
568.34	30370.79
568.50	30508.88
568.66	30810.81
568.83	30576.76
568.99	30773.36
569.15	30279.51
569.32	29886.30
569.48	30064.18
569.64	30466.75
569.81	30459.73
569.97	30347.39
570.13	30618.89
570.30	30230.36
570.46	30539.31
570.62	30621.23
570.78	30377.81
570.95	30361.43
571.11	30595.48
571.27	30686.76
571.43	29921.41
571.60	30583.78
571.76	30773.36
571.92	30466.75
572.09	30466.75
572.25	30635.27
572.41	30518.25
572.57	30504.20
572.74	30501.86
572.90	30553.35
573.06	30532.29
573.22	30607.19
573.38	30419.94
573.55	30717.19
573.71	30700.81
573.87	30864.64
574.03	30686.76
574.20	30424.62
574.36	30513.56
574.52	30543.99
574.68	30705.49
574.84	31058.91
575.01	30611.87
575.17	30689.10
575.33	30766.34
575.49	30305.26
575.65	30548.67
575.82	30682.08
575.98	30836.56
576.14	30520.59
576.30	30483.14
576.46	30354.41
576.62	30602.50
576.79	30754.64
576.95	30567.40
577.11	30646.97
577.27	30520.59
577.43	30534.63
577.59	30913.80
577.75	30721.87
577.92	30740.60
578.08	30394.20
578.24	30396.54
578.40	30864.64
578.56	30607.19
578.72	30473.78
578.88	31147.85
579.04	31225.09
579.21	30775.70
579.37	30911.46
579.53	30614.21
579.69	30834.22
579.85	30909.11
580.01	30527.61
580.17	30632.93
580.33	30810.81
580.49	30593.14
580.65	30565.06
580.82	30799.11
580.98	31175.94
581.14	31007.42
581.30	30899.75
581.46	30733.57
581.62	31087.00
581.78	30897.41
581.94	30834.22
582.10	30579.10
582.26	31091.68
582.42	30831.88
582.58	30480.80
582.74	31042.53
582.90	30866.98
583.06	30918.48
583.22	30529.95
583.38	30808.47
583.54	30979.33
583.70	30911.46
583.86	31239.13
584.02	30473.78
584.18	31314.03
584.34	31023.80
584.50	30595.48
584.66	30986.35
584.82	30810.81
584.98	30792.09
585.14	30649.32
585.30	30782.73
585.46	30974.65
585.62	30785.07
585.78	31115.08
585.94	30630.59
586.10	31182.96
586.26	30864.64
586.42	31218.07
586.58	31222.75
586.74	30677.40
586.90	31070.61
587.06	30389.52
587.22	30913.80
587.38	30457.39
587.54	30855.28
587.70	31307.01
587.86	31330.41
588.02	31281.26
588.18	31342.11
588.34	31009.76
588.49	31393.61
588.65	31243.81
588.81	30859.96
588.97	30920.82
589.13	31087.00
589.29	30923.16
589.45	31173.60
589.61	31035.50
589.77	31632.34
589.93	31075.29
590.08	31276.58
590.24	31510.63
590.40	31147.85
590.56	31372.54
590.72	31173.60
590.88	31124.44
591.04	31082.31
591.20	31562.12
591.35	31590.21
591.51	31833.63
591.67	31798.52
591.83	31548.08
591.99	31690.85
592.15	31538.72
592.31	31056.57
592.46	31173.60
592.62	31208.70
592.78	31365.52
592.94	31220.41
593.10	31257.85
593.26	31585.53
593.41	31232.11
593.57	31236.79
593.73	31386.58
593.89	31468.50
594.05	31620.64
594.20	31391.26
594.36	31094.02
594.52	31129.12
594.68	31208.70
594.84	30824.86
594.99	31330.41
595.15	31185.30
595.31	31990.44
595.47	31782.13
595.62	31440.42
595.78	31250.83
595.94	31550.42
596.10	31419.35
596.25	31442.76
596.41	31292.96
596.57	31225.09
596.73	31220.41
596.88	31625.32
597.04	31468.50
597.20	31711.92
597.36	31470.84
597.51	31683.83
597.67	31730.64
597.83	31232.11
597.99	31871.07
598.14	31693.19
598.30	31412.33
598.46	31175.94
598.61	31908.52
598.77	31824.26
598.93	31594.89
599.09	31620.64
599.24	32105.13
599.40	31660.43
599.56	31812.56
599.71	31269.56
599.87	31826.60
600.03	31777.45
600.18	31772.77
600.34	31580.85
600.50	31323.39
600.65	31674.47
600.81	31669.79
600.97	31765.75
601.12	31910.86
601.28	31782.13
601.44	31377.22
601.59	31498.93
601.75	31424.03
601.91	31683.83
602.06	31314.03
602.22	31260.20
602.37	31449.78
602.53	31704.90
602.69	31847.67
602.84	31693.19
603.00	31651.06
603.16	31880.44
603.31	31601.91
603.47	31826.60
603.62	31620.64
603.78	31655.75
603.94	31412.33
604.09	31594.89
604.25	31438.08
604.40	31880.44
604.56	31281.26
604.71	31662.77
604.87	31466.16
605.03	31971.72
605.18	31283.60
605.34	31611.28
605.49	31407.65
605.65	31630.00
605.80	31253.17
605.96	31566.81
606.12	31473.18
606.27	31496.59
606.43	31271.90
606.58	31662.77
606.74	31676.81
606.89	31580.85
607.05	31702.56
607.20	31751.71
607.36	31644.04
607.51	31707.24
607.67	31646.38
607.82	30878.69
607.98	31468.50
608.13	31641.70
608.29	31236.79
608.44	31587.87
608.60	31505.95
608.75	31637.02
608.91	31695.53
609.06	31419.35
609.22	31564.46
609.37	31204.02
609.53	31070.61
609.68	31283.60
609.84	31241.47
609.99	31658.09
610.15	31140.83
610.30	30883.37
610.46	31328.07
610.61	31330.41
610.76	31496.59
610.92	31466.16
611.07	31599.57
611.23	31021.46
611.38	31009.76
611.54	31204.02
611.69	30738.26
611.84	31409.99
612.00	30934.86
612.15	30932.52
612.31	30986.35
612.46	30787.41
612.62	31288.28
612.77	31208.70
612.92	31234.45
613.08	30909.11
613.23	31225.09
613.39	31061.25
613.54	30848.26
613.69	31014.44
613.85	30820.17
614.00	31124.44
614.15	30953.58
614.31	30984.01
614.46	31276.58
614.62	30717.19
614.77	31133.81
614.92	30752.30
615.08	30717.19
615.23	30948.90
615.38	30972.31
615.54	30719.53
615.69	30637.61
615.84	30838.90
616.00	31147.85
616.15	30398.88
616.30	31101.04
616.46	30948.90
616.61	30874.01
616.76	30876.35
616.92	30658.68
617.07	31058.91
617.22	30693.79
617.37	30457.39
617.53	30869.33
617.68	30705.49
617.83	30424.62
617.99	30726.55
618.14	30565.06
618.29	30403.56
618.45	30412.92
618.60	31178.28
618.75	30794.43
618.90	30728.89
619.06	30658.68
619.21	30309.94
619.36	30679.74
619.51	30333.34
619.67	30590.80
619.82	30225.68
619.97	30796.77
620.12	30375.47
620.28	30300.58
620.43	30368.45
620.58	30466.75
620.73	30197.59
620.89	30141.42
621.04	30401.22
621.19	30321.64
621.34	30291.21
621.49	30125.04
621.65	30270.15
621.80	30012.69
621.95	30361.43
622.10	29928.43
622.25	30059.50
622.41	30092.27
622.56	30197.59
622.71	30546.33
622.86	30118.01
623.01	29869.92
623.16	30148.44
623.32	30005.67
623.47	29839.49
623.62	30085.25
623.77	29823.11
623.92	29944.81
624.07	30305.26
624.23	30127.38
624.38	30209.29
624.53	30274.83
624.68	30143.76
624.83	30052.48
624.98	30242.06
625.13	29738.85
625.29	29820.77
625.44	30031.41
625.59	29378.40
625.74	30003.33
625.89	29577.35
626.04	29607.78
626.19	29656.93
626.34	29780.98
626.49	29394.79
626.65	29523.52
626.80	29865.24
626.95	29729.48
627.10	29455.64
627.25	29521.18
627.40	29589.05
627.55	29715.44
627.70	29275.42
627.85	29266.06
628.00	29287.12
628.15	29179.46
628.30	29350.32
628.45	29408.83
628.60	29401.81
628.76	29481.39
628.91	29436.92
629.06	29071.79
629.21	29174.78
629.36	29366.70
629.51	29017.96
629.66	29076.48
629.81	29144.35
629.96	29034.35
630.11	29120.95
630.26	29340.96
630.41	29090.52
630.56	28844.76
630.71	29233.29
630.86	29039.03
631.01	28840.08
631.16	29111.58
631.31	28987.53
631.46	29158.39
631.61	29347.98
631.76	29029.66
631.91	29205.20
632.06	28985.19
632.21	28992.22
632.36	29090.52
632.51	28868.17
632.66	28538.15
632.81	28844.76
632.96	29027.32
633.10	28800.29
633.25	29455.64
633.40	29144.35
633.55	29062.43
633.70	28746.46
633.85	28744.12
634.00	28830.72
634.15	28732.42
634.30	28739.44
634.45	28830.72
634.60	28596.67
634.75	28353.25
634.90	28568.58
635.05	28582.62
635.19	28774.55
635.34	28760.50
635.49	28835.40
635.64	28561.56
635.79	28706.67
635.94	28177.71
636.09	28692.63
636.24	28591.98
636.39	28608.37
636.53	28402.40
636.68	28163.67
636.83	28828.38
636.98	28673.90
637.13	28699.65
637.28	28648.16
637.43	29006.26
637.57	28779.23
637.72	28070.04
637.87	28245.58
638.02	28362.61
638.17	28641.14
638.32	28287.71
638.46	28063.02
638.61	28034.94
638.76	28294.74
638.91	28444.53
639.06	28039.62
639.20	28191.75
639.35	28601.35
639.50	28229.20
639.65	28297.08
639.80	28226.86
639.94	28034.94
640.09	28126.22
640.24	28105.15
640.39	27683.86
640.54	27571.51
640.68	28065.36
640.83	28229.20
640.98	27971.74
641.13	27613.64
641.27	27709.60
641.42	27938.97
641.57	27953.02
641.72	28032.60
641.86	27594.92
642.01	27381.93
642.16	27798.54
642.31	27578.53
642.45	27960.04
642.60	27527.04
642.75	27653.43
642.90	27548.11
643.04	27859.40
643.19	27461.51
643.34	27796.20
643.48	27796.20
643.63	27817.27
643.78	27328.10
643.93	27718.96
644.07	27672.15
644.22	27662.79
644.37	27723.65
644.51	27466.19
644.66	27573.85
644.81	27395.97
644.95	27583.21
645.10	27538.74
645.25	27625.34
645.39	27321.07
645.54	28027.92
645.69	26995.74
645.83	27772.80
645.98	27229.79
646.13	27541.08
646.27	27276.60
646.42	27555.13
646.57	27225.11
646.71	27094.04
646.86	27253.20
647.00	27372.57
647.15	27091.70
647.30	27199.37
647.44	26998.08
647.59	27124.47
647.74	27424.06
647.88	27318.73
648.03	27611.30
648.17	27880.46
648.32	27157.24
648.47	27229.79
648.61	27285.97
648.76	27175.96
648.90	27112.77
649.05	26927.86
649.20	27154.90
649.34	26904.46
649.49	26888.07
649.63	27077.66
649.78	27082.34
649.92	26684.45
650.07	27005.10
650.21	26848.29
650.36	26923.18
650.51	26604.87
650.65	26801.47
650.80	26925.52
650.94	27051.91
651.09	27033.19
651.23	26993.40
651.38	27175.96
651.52	26274.85
651.67	27126.81
651.81	26850.63
651.96	26410.60
652.10	26679.77
652.25	26665.72
652.39	26986.38
652.54	26796.79
652.68	26579.12
652.83	26621.25
652.97	27021.48
653.12	26658.70
653.26	26457.42
653.41	26651.68
653.55	26181.23
653.70	26277.19
653.84	26525.29
653.99	26583.80
654.13	26637.64
654.27	26485.50
654.42	26480.82
654.56	26789.77
654.71	26265.49
654.85	26565.08
655.00	26796.79
655.14	26614.23
655.29	26604.87
655.43	26331.03
655.57	26356.77
655.72	26223.36
655.86	26071.23
656.01	25827.81
656.15	26366.13
656.30	26150.81
656.44	26206.98
656.58	26279.54
656.73	26335.71
656.87	26122.72
657.01	25883.98
657.16	26373.16
657.30	26347.41
657.45	26239.75
657.59	26127.40
657.73	25958.88
657.88	25872.28
658.02	25942.50
658.16	26087.61
658.31	25921.43
658.45	25649.93
658.60	25598.44
658.74	25661.63
658.88	26118.04
659.03	25649.93
659.17	25724.83
659.31	25479.07
659.46	26089.95
659.60	25886.32
659.74	25752.91
659.89	25638.23
660.03	25469.71
660.17	25722.49
660.32	25394.81
660.46	25593.76
660.60	25282.47
660.74	25256.72
660.89	25408.86
661.03	25020.33
661.17	25621.84
661.32	25291.83
661.46	25362.04
661.60	25226.29
661.74	25198.21
661.89	25064.80
662.03	25186.50
662.17	25099.90
662.31	24758.19
662.46	25373.75
662.60	25399.49
662.74	25214.59
662.88	24851.81
663.03	24992.24
663.17	24704.35
663.31	24559.24
663.45	24692.65
663.60	24924.36
663.74	24854.15
663.88	25036.71
664.02	25039.05
664.17	24725.42
664.31	24737.12
664.45	24430.51
664.59	24776.91
664.73	24805.00
664.88	24477.32
665.02	24224.54
665.16	24170.71
665.30	24177.73
665.44	24802.66
665.59	24379.02
665.73	24383.70
665.87	23990.49
666.01	24156.67
666.15	24301.78
666.29	24332.21
666.44	24383.70
666.58	24194.12
666.72	24247.95
666.86	24519.45
667.00	24123.90
667.14	23831.33
667.28	24074.75
667.43	24123.90
667.57	23819.63
667.71	23889.85
667.85	23601.96
667.99	23960.06
668.13	23826.65
668.27	23611.32
668.41	23843.04
668.56	23503.66
668.70	23452.17
668.84	23726.01
668.98	23714.31
669.12	23520.04
669.26	23641.75
669.40	23634.73
669.54	23651.11
669.68	23618.35
669.82	23346.84
669.96	23314.08
670.10	23243.86
670.25	23183.01
670.39	23108.11
670.53	23185.35
670.67	22939.59
670.81	23126.83
670.95	23143.22
671.09	23154.92
671.23	23098.75
671.37	23089.38
671.51	23051.94
671.65	23019.17
671.79	22916.19
671.93	22773.41
672.07	22733.62
672.21	22731.28
672.35	22530.00
672.49	22478.50
672.63	22672.77
672.77	22436.38
672.91	22785.12
673.05	22630.64
673.19	22717.24
673.33	22630.64
673.47	22513.61
673.61	22377.86
673.75	22457.44
673.89	22689.15
674.03	22085.30
674.17	22012.74
674.31	22534.68
674.45	22235.09
674.59	21998.70
674.73	22015.08
674.87	22078.27
675.01	21818.47
675.15	21804.43
675.29	21816.13
675.43	21745.92
675.56	21411.22
675.70	21516.54
675.84	21666.34
675.98	21083.55
676.12	21509.52
676.26	21996.35
676.40	21734.21
676.54	21549.31
676.68	21397.18
676.82	20915.03
676.96	21331.64
677.10	21135.04
677.23	21163.12
677.37	20730.12
677.51	21120.99
677.65	20915.03
677.79	20744.17
677.93	20697.36
678.07	20858.85
678.21	20510.11
678.34	20540.54
678.48	20479.69
678.62	20369.68
678.76	20421.17
678.90	19964.77
679.04	20538.20
679.18	20140.31
679.31	19983.49
679.45	20130.95
679.59	20346.28
679.73	20159.03
679.87	19683.91
680.00	19803.27
680.14	19747.10
680.28	19639.44
680.42	19824.34
680.56	19620.71
680.70	19737.74
680.83	19679.22
680.97	19323.46
681.11	19215.80
681.25	19562.20
681.39	19377.30
681.52	19601.99
681.66	19213.46
681.80	19286.01
681.94	19194.73
682.07	19257.93
682.21	18813.23
682.35	18829.61
682.49	18682.16
682.62	18885.78
682.76	18801.52
682.90	18951.32
683.04	18679.82
683.17	18668.11
683.31	18988.77
683.45	19117.50
683.59	18738.33
683.72	18408.31
683.86	18347.46
684.00	18422.36
684.13	18457.46
684.27	18256.18
684.41	18024.47
684.55	17921.48
684.68	17680.41
684.82	17724.88
684.96	17603.17
685.09	17848.93
685.23	17776.37
685.37	17987.02
685.50	17900.42
685.64	17692.11
685.78	17481.46
685.91	17727.22
686.05	17905.10
686.19	17591.47
686.32	17614.87
686.46	17305.92
686.60	17216.98
686.73	17111.66
686.87	17315.28
687.01	17184.21
687.14	17008.67
687.28	16863.56
687.42	16961.86
687.55	16812.07
687.69	16975.91
687.82	16610.78
687.96	16690.36
688.10	16812.07
688.23	16311.19
688.37	16709.08
688.50	16421.20
688.64	16346.30
688.78	16386.09
688.91	16407.16
689.05	16037.35
689.18	16360.34
689.32	15899.26
689.46	15894.58
689.59	15920.32
689.73	15962.45
689.86	15793.94
690.00	15957.77
690.13	15707.34
690.27	15740.10
690.41	15529.45
690.54	15508.39
690.68	15592.65
690.81	15508.39
690.95	15492.01
691.08	15690.95
691.22	15623.08
691.35	15407.75
691.49	15522.43
691.62	14972.41
691.76	15122.20
691.89	15227.53
692.03	15049.64
692.16	15021.56
692.30	14696.22
692.43	14633.03
692.57	14740.69
692.70	14782.82
692.84	14640.05
692.97	14532.39
693.11	14719.63
693.24	14586.22
693.38	14696.22
693.51	14637.71
693.65	14560.47
693.78	14003.43
693.92	14352.16
694.05	14420.04
694.19	14286.63
694.32	14188.33
694.45	13998.74
694.59	14024.49
694.72	13722.56
694.86	14059.60
694.99	13642.98
695.13	13614.90
695.26	13610.22
695.39	13989.38
695.53	13642.98
695.66	13626.60
695.80	13392.55
695.93	13575.11
696.07	13624.26
696.20	13781.07
696.33	13334.03
696.47	13184.24
696.60	13303.60
696.73	13376.16
696.87	13107.00
697.00	13240.41
697.14	12999.34
697.27	12737.20
697.40	13128.06
697.54	12727.83
697.67	12762.94
697.80	12638.89
697.94	12898.69
698.07	12692.73
698.21	12519.53
698.34	12650.60
698.47	12559.31
698.61	12397.82
698.74	12348.67
698.87	12519.53
699.01	12442.29
699.14	12231.64
699.27	12189.51
699.40	12184.83
699.54	12154.40
699.67	12180.15
699.80	12166.10
699.94	12142.70
700.07	12138.02
700.20	11950.78
700.34	11595.01
700.47	11501.39
700.60	11796.30
700.73	11662.89
700.87	11639.48
701.00	11529.48
701.13	11611.40
701.26	11644.17
701.40	11541.18
701.53	11571.61
701.66	11590.33
701.79	11332.87
701.93	11356.28
702.06	10981.79
702.19	10906.90
702.32	10974.77
702.46	11192.44
702.59	10953.71
702.72	10787.53
702.85	10803.91
702.99	10780.51
703.12	10883.49
703.25	10597.95
703.38	10857.75
703.51	10733.70
703.65	10794.55
703.78	10661.14
703.91	10497.30
704.04	10682.20
704.17	10560.50
704.31	10677.52
704.44	10494.96
704.57	10448.15
704.70	10197.71
704.83	10050.26
704.96	10277.29
705.10	10090.05
705.23	10141.54
>>>>>End Processed Spectral Data<<<<<
