SpectraSuite Data File
++++++++++++++++++++++++++++++++++++
Date: Fri Oct 18 13:58:17 GMT-05:00 2013
User: bianchi
Dark Spectrum Present: No
Reference Spectrum Present: No
Number of Sampled Component Spectra: 1
Spectrometers: USB2+H05261
Integration Time (usec): 50000 (USB2+H05261)
Spectra Averaged: 1 (USB2+H05261)
Boxcar Smoothing: 0 (USB2+H05261)
Correct for Electrical Dark: No (USB2+H05261)
Strobe/Lamp Enabled: No (USB2+H05261)
Correct for Detector Non-linearity: No (USB2+H05261)
Correct for Stray Light: No (USB2+H05261)
Number of Pixels in Processed Spectrum: 2048
>>>>>Begin Processed Spectral Data<<<<<
365.73	0.00
365.92	0.00
366.12	0.00
366.32	0.00
366.52	0.00
366.72	0.00
366.91	0.00
367.11	0.00
367.31	0.00
367.51	0.00
367.70	0.00
367.90	0.00
368.10	0.00
368.30	0.00
368.49	0.00
368.69	0.00
368.89	0.00
369.09	0.00
369.28	0.00
369.48	0.00
369.68	0.00
369.87	0.00
370.07	0.00
370.27	0.00
370.47	0.00
370.66	112.35
370.86	126.39
371.06	93.62
371.25	128.73
371.45	77.24
371.65	184.90
371.84	107.66
372.04	203.63
372.24	161.50
372.44	133.41
372.63	205.97
372.83	224.69
373.03	238.73
373.22	142.77
373.42	229.37
373.62	168.52
373.81	243.42
374.01	259.80
374.21	236.39
374.40	243.42
374.60	224.69
374.79	220.01
374.99	227.03
375.19	229.37
375.38	205.97
375.58	290.23
375.78	367.46
375.97	250.44
376.17	301.93
376.37	264.48
376.56	255.12
376.76	217.67
376.95	252.78
377.15	217.67
377.35	273.84
377.54	266.82
377.74	201.29
377.93	255.12
378.13	301.93
378.33	315.97
378.52	227.03
378.72	351.08
378.91	227.03
379.11	294.91
379.31	287.89
379.50	287.89
379.70	273.84
379.89	278.52
380.09	327.68
380.28	337.04
380.48	358.10
380.68	358.10
380.87	271.50
381.07	278.52
381.26	388.53
381.46	259.80
381.65	334.70
381.85	313.63
382.04	351.08
382.24	428.32
382.43	306.61
382.63	262.14
382.83	271.50
383.02	339.38
383.22	346.40
383.41	257.46
383.61	318.31
383.80	299.59
384.00	376.83
384.19	332.36
384.39	337.04
384.58	402.57
384.78	365.12
384.97	435.34
385.17	416.62
385.36	423.64
385.56	365.12
385.75	381.51
385.95	308.95
386.14	390.87
386.34	374.49
386.53	421.30
386.72	369.80
386.92	463.43
387.11	421.30
387.31	358.10
387.50	362.78
387.70	423.64
387.89	390.87
388.09	395.55
388.28	477.47
388.48	414.27
388.67	409.59
388.86	463.43
389.06	421.30
389.25	421.30
389.45	463.43
389.64	458.74
389.84	486.83
390.03	606.20
390.22	451.72
390.42	458.74
390.61	428.32
390.81	463.43
391.00	500.87
391.19	592.16
391.39	503.22
391.58	479.81
391.78	507.90
391.97	528.96
392.16	470.45
392.36	507.90
392.55	608.54
392.75	528.96
392.94	573.43
393.13	580.45
393.33	500.87
393.52	634.29
393.71	594.50
393.91	545.34
394.10	561.73
394.29	559.39
394.49	615.56
394.68	571.09
394.88	610.88
395.07	615.56
395.26	620.24
395.46	594.50
395.65	629.60
395.84	685.78
396.04	657.69
396.23	678.76
396.42	697.48
396.62	706.84
396.81	688.12
397.00	624.92
397.19	711.52
397.39	613.22
397.58	706.84
397.77	667.05
397.97	688.12
398.16	725.57
398.35	725.57
398.55	748.97
398.74	657.69
398.93	699.82
399.12	744.29
399.32	660.03
399.51	695.14
399.70	657.69
399.90	720.88
400.09	732.59
400.28	826.21
400.47	751.31
400.67	795.78
400.86	758.33
401.05	828.55
401.24	802.80
401.44	784.08
401.63	805.14
401.82	826.21
402.01	814.51
402.21	760.67
402.40	795.78
402.59	784.08
402.78	1015.79
402.97	835.57
403.17	844.93
403.36	908.13
403.55	863.66
403.74	851.96
403.93	847.27
404.13	924.51
404.32	915.15
404.51	889.40
404.70	863.66
404.89	875.36
405.09	929.19
405.28	884.72
405.47	1025.15
405.66	903.45
405.85	947.92
406.05	999.41
406.24	999.41
406.43	931.53
406.62	1027.50
406.81	1100.05
407.00	1025.15
407.20	1083.67
407.39	997.07
407.58	1036.86
407.77	1018.13
407.96	1074.31
408.15	994.73
408.34	1053.24
408.54	1116.44
408.73	1043.88
408.92	1163.25
409.11	1123.46
409.30	1128.14
409.49	1102.39
409.68	1158.57
409.87	1144.52
410.07	1198.35
410.26	1207.72
410.45	1139.84
410.64	1203.04
410.83	1177.29
411.02	1170.27
411.21	1256.87
411.40	1224.10
411.59	1331.76
411.78	1291.98
411.98	1280.27
412.17	1301.34
412.36	1247.51
412.55	1383.26
412.74	1306.02
412.93	1317.72
413.12	1355.17
413.31	1406.66
413.50	1320.06
413.69	1399.64
413.88	1458.15
414.07	1282.61
414.26	1406.66
414.45	1533.05
414.64	1486.24
414.83	1488.58
415.02	1575.18
415.22	1629.01
415.41	1509.65
415.60	1678.16
415.79	1558.80
415.98	1549.43
416.17	1668.80
416.36	1645.40
416.55	1511.99
416.74	1657.10
416.93	1624.33
417.12	1687.53
417.31	1682.85
417.50	1652.42
417.69	1863.07
417.88	1654.76
418.07	1699.23
418.26	1689.87
418.45	1783.49
418.64	1802.21
418.83	1790.51
419.02	1755.40
419.21	1839.66
419.39	1851.36
419.58	1732.00
419.77	1813.92
419.96	1877.11
420.15	1886.47
420.34	1858.39
420.53	1823.28
420.72	1944.99
420.91	1900.52
421.10	1825.62
421.29	1919.24
421.48	1980.09
421.67	1923.92
421.86	1893.49
422.05	2019.88
422.24	1874.77
422.43	1844.34
422.61	2038.61
422.80	1926.26
422.99	1956.69
423.18	2087.76
423.37	2040.95
423.56	2015.20
423.75	2062.01
423.94	1987.11
424.13	1872.43
424.32	1905.20
424.50	2078.40
424.69	1980.09
424.88	2017.54
425.07	1933.28
425.26	2036.27
425.45	2012.86
425.64	2066.69
425.83	2008.18
426.01	2024.56
426.20	2017.54
426.39	2066.69
426.58	2017.54
426.77	2087.76
426.96	1832.64
427.15	2019.88
427.33	2069.03
427.52	2057.33
427.71	2157.97
427.90	2181.38
428.09	2031.58
428.28	2155.63
428.46	2127.55
428.65	2209.47
428.84	2153.29
429.03	2155.63
429.22	2253.94
429.40	2286.70
429.59	2277.34
429.78	2179.04
429.97	2153.29
430.16	2190.74
430.34	2340.54
430.53	2277.34
430.72	2321.81
430.91	2204.78
431.10	2305.43
431.28	2424.80
431.47	2300.75
431.66	2275.00
431.85	2385.01
432.03	2347.56
432.22	2265.64
432.41	2422.45
432.60	2473.95
432.79	2429.48
432.97	2518.42
433.16	2471.61
433.35	2569.91
433.54	2422.45
433.72	2511.39
433.91	2513.74
434.10	2499.69
434.28	2502.03
434.47	2560.55
434.66	2623.74
434.85	2588.63
435.03	2541.82
435.22	2602.68
435.41	2691.62
435.59	2703.32
435.78	2607.36
435.97	2668.21
436.16	2626.08
436.34	2607.36
436.53	2663.53
436.72	2822.69
436.90	2656.51
437.09	2766.51
437.28	2677.57
437.46	2857.79
437.65	2738.43
437.84	2651.83
438.02	2740.77
438.21	2743.11
438.40	2686.94
438.58	2867.16
438.77	2918.65
438.96	2815.66
439.14	2913.97
439.33	2939.71
439.52	2925.67
439.70	2979.50
439.89	2935.03
440.08	2981.84
440.26	3030.99
440.45	2920.99
440.63	3063.76
440.82	3108.23
441.01	3155.04
441.19	3204.19
441.38	3192.49
441.57	3234.62
441.75	3199.51
441.94	3246.32
442.12	3171.43
442.31	3349.31
442.50	3288.45
442.68	3225.26
442.87	3267.39
443.05	3307.18
443.24	3480.38
443.43	3325.90
443.61	3300.16
443.80	3466.33
443.98	3370.37
444.17	3377.39
444.35	3431.23
444.54	3405.48
444.73	3372.71
444.91	3435.91
445.10	3426.54
445.28	3389.10
445.47	3302.50
445.65	3370.37
445.84	3494.42
446.02	3361.01
446.21	3342.28
446.39	3480.38
446.58	3517.83
446.77	3562.30
446.95	3279.09
447.14	3522.51
447.32	3592.72
447.51	3384.41
447.69	3487.40
447.88	3449.95
448.06	3517.83
448.25	3508.46
448.43	3522.51
448.62	3543.57
448.80	3569.32
448.99	3592.72
449.17	3522.51
449.36	3506.12
449.54	3627.83
449.73	3721.45
449.91	3651.24
450.10	3824.44
450.28	3749.54
450.46	3789.33
450.65	3772.94
450.83	3763.58
451.02	3688.68
451.20	3693.37
451.39	3775.28
451.57	3719.11
451.76	3693.37
451.94	3859.54
452.13	3896.99
452.31	3861.88
452.49	3639.53
452.68	3794.01
452.86	3892.31
453.05	3957.85
453.23	3964.87
453.42	3852.52
453.60	3777.62
453.78	3904.01
453.97	3798.69
454.15	3927.42
454.34	3866.56
454.52	4086.58
454.70	4056.15
454.89	4021.04
455.07	4044.45
455.26	4051.47
455.44	3995.29
455.62	3950.82
455.81	4030.40
455.99	4091.26
456.17	4257.43
456.36	4070.19
456.54	4098.28
456.73	4191.90
456.91	4196.58
457.09	4194.24
457.28	4337.01
457.46	4365.10
457.64	4374.46
457.83	4341.69
458.01	4210.62
458.19	4346.37
458.38	4304.25
458.56	4400.21
458.74	4273.82
458.93	4278.50
459.11	4334.67
459.29	4472.76
459.48	4489.15
459.66	4458.72
459.84	4470.42
460.03	4507.87
460.21	4610.86
460.39	4489.15
460.57	4547.66
460.76	4650.64
460.94	4718.52
461.12	4507.87
461.31	4540.64
461.49	4463.40
461.67	4629.58
461.85	4669.37
462.04	4667.03
462.22	4987.68
462.40	4643.62
462.59	4634.26
462.77	4713.84
462.95	4690.43
463.13	4779.37
463.32	4798.10
463.50	4772.35
463.68	4784.06
463.86	4685.75
464.05	4692.77
464.23	4828.53
464.41	4657.67
464.59	4826.18
464.78	5008.75
464.96	4936.19
465.14	4887.04
465.32	4896.40
465.50	4856.61
465.69	5043.85
465.87	5032.15
466.05	5004.07
466.23	4823.84
466.41	4964.28
466.60	5289.61
466.78	4943.21
466.96	5085.98
467.14	5011.09
467.32	5107.05
467.51	5174.92
467.69	4987.68
467.87	5263.86
468.05	5123.43
468.23	5277.91
468.41	5174.92
468.60	5085.98
468.78	5313.02
468.96	5188.97
469.14	5200.67
469.32	5242.80
469.50	5322.38
469.69	5329.40
469.87	5399.62
470.05	5228.76
470.23	5467.49
470.41	5425.36
470.59	5401.96
470.77	5289.61
470.95	5458.13
471.14	5673.46
471.32	5425.36
471.50	5584.52
471.68	5680.48
471.86	5575.16
472.04	5481.53
472.22	5706.23
472.40	5607.92
472.58	5785.80
472.77	5664.10
472.95	5888.79
473.13	5926.24
473.31	5685.16
473.49	5877.09
473.67	5687.50
473.85	5867.72
474.03	6001.13
474.21	6024.54
474.39	6012.84
474.57	6141.57
474.75	6146.25
474.93	6015.18
475.12	6069.01
475.30	6183.70
475.48	6057.31
475.66	6363.92
475.84	6289.02
476.02	6553.50
476.20	6256.25
476.38	6375.62
476.56	6413.07
476.74	6438.81
476.92	6455.20
477.10	6490.31
477.28	6595.63
477.46	6649.46
477.64	6675.21
477.82	6579.25
478.00	6993.52
478.18	6827.34
478.36	7026.29
478.54	7061.40
478.72	7061.40
478.90	7164.38
479.08	7119.91
479.26	7185.44
479.44	7173.74
479.62	7346.94
479.80	7344.60
479.98	7501.42
480.16	7391.41
480.34	7456.95
480.52	7487.37
480.70	7590.36
480.88	7583.34
481.06	7639.51
481.24	7920.37
481.41	7836.11
481.59	8016.33
481.77	8023.36
481.95	7850.16
482.13	8201.24
482.31	7882.92
482.49	8210.60
482.67	8444.65
482.85	8369.76
483.03	8435.29
483.21	8542.96
483.39	8437.63
483.57	8659.98
483.74	8601.47
483.92	8727.86
484.10	8608.49
484.28	8681.05
484.46	9013.40
484.64	9184.26
484.82	8933.82
485.00	8992.34
485.18	9315.33
485.35	9320.01
485.53	9315.33
485.71	9305.97
485.89	9584.49
486.07	9355.12
486.25	9579.81
486.43	9451.08
486.61	9797.48
486.78	9736.63
486.96	9947.28
487.14	9982.38
487.32	10043.24
487.50	10214.10
487.68	10202.40
487.85	10143.88
488.03	10370.91
488.21	10686.89
488.39	10394.32
488.57	10609.65
488.75	10745.40
488.92	10782.85
489.10	10925.62
489.28	10885.83
489.46	11094.14
489.64	10979.45
489.81	11236.91
489.99	11056.69
490.17	11229.89
490.35	11393.73
490.53	11616.08
490.70	11573.95
490.88	11770.55
491.06	11707.36
491.24	11761.19
491.41	11730.76
491.59	11847.79
491.77	12013.97
491.95	12060.78
492.13	12250.36
492.30	12224.62
492.48	12086.53
492.66	12348.67
492.84	12116.95
493.01	12540.59
493.19	12650.60
493.37	12805.07
493.54	12755.92
493.72	12535.91
493.90	12821.45
494.08	13055.51
494.25	13025.08
494.43	13118.70
494.61	13193.60
494.79	13277.86
494.96	13275.52
495.14	13341.05
495.32	13561.06
495.49	13661.71
495.67	13701.50
495.85	13888.74
496.02	13736.60
496.20	13888.74
496.38	13980.02
496.55	13774.05
496.73	14410.68
496.91	14314.72
497.09	14143.86
497.26	14590.90
497.44	14108.75
497.62	14293.65
497.79	14445.79
497.97	14466.85
498.14	14614.30
498.32	14920.92
498.50	14949.00
498.67	14977.09
498.85	14693.88
499.03	15075.39
499.20	14799.21
499.38	14944.32
499.56	14979.43
499.73	15300.08
499.91	15314.13
500.08	15363.28
500.26	15164.33
500.44	15513.07
500.61	15433.49
500.79	15281.36
500.97	15613.71
501.14	15758.83
501.32	15901.60
501.49	15634.78
501.67	15903.94
501.84	15892.24
502.02	15655.84
502.20	16013.95
502.37	16095.86
502.55	16095.86
502.72	16112.25
502.90	16095.86
503.07	16372.05
503.25	16243.32
503.43	16301.83
503.60	16542.91
503.78	16379.07
503.95	16559.29
504.13	16699.72
504.30	16393.11
504.48	16634.19
504.65	16659.93
504.83	16943.14
505.01	17074.21
505.18	16802.71
505.36	17043.78
505.53	16791.00
505.71	17057.82
505.88	16940.80
506.06	16968.88
506.23	17130.38
506.41	17212.30
506.58	17181.87
506.76	17111.66
506.93	17561.04
507.11	17334.01
507.28	17273.15
507.46	17364.43
507.63	17523.59
507.81	18080.64
507.98	17451.03
508.16	17654.66
508.33	17783.39
508.50	17759.98
508.68	17994.04
508.85	17963.61
509.03	18094.68
509.20	18171.92
509.38	18090.00
509.55	18160.22
509.73	18139.15
509.90	17949.57
510.08	18225.75
510.25	18092.34
510.42	18611.94
510.60	18764.07
510.77	18881.10
510.95	18860.04
511.12	18574.49
511.30	18644.71
511.47	18698.54
511.64	18532.36
511.82	18789.82
511.99	19084.73
512.17	18841.31
512.34	18916.21
512.51	18986.43
512.69	19152.60
512.86	19431.13
513.04	19419.42
513.21	19194.73
513.38	19309.42
513.56	19414.74
513.73	19454.53
513.90	19531.77
514.08	19262.61
514.25	19646.46
514.43	19578.58
514.60	19630.07
514.77	19756.46
514.95	20203.50
515.12	19711.99
515.29	19814.98
515.47	19948.39
515.64	19941.36
515.81	20067.75
515.99	20191.80
516.16	20664.59
516.33	20259.68
516.51	20365.00
516.68	20091.16
516.85	20308.83
517.03	20175.42
517.20	20343.94
517.37	20372.02
517.54	20177.76
517.72	20702.04
517.89	20390.75
518.06	20615.44
518.24	20456.28
518.41	20552.24
518.58	20915.03
518.75	20552.24
518.93	20655.23
519.10	20936.09
519.27	20987.58
519.45	20865.88
519.62	20875.24
519.79	20893.96
519.96	21261.43
520.14	20905.66
520.31	21149.08
520.48	21172.49
520.65	21326.96
520.83	21429.94
521.00	21544.63
521.17	21626.55
521.34	21383.13
521.52	21284.83
521.69	21472.07
521.86	21341.00
522.03	21628.89
522.20	21795.07
522.38	21736.56
522.55	21783.37
522.72	21759.96
522.89	21867.63
523.07	22235.09
523.24	22012.74
523.41	22075.93
523.58	22101.68
523.75	22218.71
523.92	21891.03
524.10	22300.62
524.27	22120.40
524.44	22082.95
524.61	22553.40
524.78	22408.29
524.96	22324.03
525.13	22251.47
525.30	22499.57
525.47	22408.29
525.64	22436.38
525.81	22637.66
525.98	22670.43
526.16	22993.42
526.33	22588.51
526.50	22726.60
526.67	22438.72
526.84	22499.57
527.01	22658.73
527.18	22574.47
527.36	22960.66
527.53	22955.97
527.70	23297.69
527.87	23143.22
528.04	23173.64
528.21	23124.49
528.38	22789.80
528.55	23222.80
528.72	23321.10
528.89	23075.34
529.07	23393.65
529.24	23407.70
529.41	23646.43
529.58	23543.45
529.75	23475.57
529.92	23403.02
530.09	23185.35
530.26	23573.88
530.43	23964.75
530.60	23480.25
530.77	23534.09
530.94	23559.83
531.11	23461.53
531.28	23805.59
531.46	23927.30
531.63	23929.64
531.80	24030.28
531.97	24074.75
532.14	23658.14
532.31	23723.67
532.48	23943.68
532.65	23782.18
532.82	24016.24
532.99	24477.32
533.16	24034.96
533.33	24704.35
533.50	24549.88
533.67	24184.76
533.84	24257.31
534.01	24039.64
534.18	24245.61
534.35	24470.30
534.52	24189.44
534.69	24685.63
534.86	24503.07
535.03	24446.90
535.20	24627.12
535.37	24496.05
535.54	24706.70
535.71	24329.87
535.88	24648.18
536.05	24950.11
536.22	24809.68
536.38	24957.13
536.55	24877.55
536.72	24872.87
536.89	24830.74
537.06	24493.71
537.23	24924.36
537.40	24500.73
537.57	24954.79
537.74	25380.77
537.91	25582.06
538.08	25376.09
538.25	25266.08
538.42	25427.58
538.59	25298.85
538.75	25046.07
538.92	25390.13
539.09	25252.04
539.26	25207.57
539.43	25495.46
539.60	25741.21
539.77	25343.32
539.94	25235.66
540.11	25301.19
540.28	25317.57
540.44	25528.22
540.61	25348.00
540.78	25296.51
540.95	25729.51
541.12	25586.74
541.29	25671.00
541.46	25993.99
541.62	25785.68
541.79	26223.36
541.96	25338.64
542.13	25692.06
542.30	25621.84
542.47	25984.63
542.63	26260.81
542.80	25926.11
542.97	26178.89
543.14	26085.27
543.31	25998.67
543.48	25762.28
543.64	26656.36
543.81	26157.83
543.98	26345.07
544.15	26405.92
544.32	26527.63
544.48	26569.76
544.65	26501.89
544.82	26419.97
544.99	26143.78
545.16	26494.86
545.32	26476.14
545.49	26759.34
545.66	26874.03
545.83	26560.40
546.00	26555.72
546.16	26651.68
546.33	26642.32
546.50	26396.56
546.67	26576.78
546.83	26387.20
547.00	26740.62
547.17	26944.25
547.34	26960.63
547.50	26796.79
547.67	26906.80
547.84	27222.77
548.00	26958.29
548.17	27278.94
548.34	26916.16
548.51	27325.75
548.67	27384.27
548.84	26885.73
549.01	27075.32
549.18	26841.26
549.34	27283.62
549.51	27192.34
549.68	27175.96
549.84	27192.34
550.01	27236.81
550.18	27115.11
550.34	27639.39
550.51	27211.07
550.68	27545.76
550.84	27531.72
551.01	27407.67
551.18	27105.74
551.34	27124.47
551.51	27449.80
551.68	27463.85
551.84	27583.21
552.01	27311.71
552.18	27632.36
552.34	27796.20
552.51	27597.26
552.68	28074.73
552.84	27824.29
553.01	27608.96
553.18	27524.70
553.34	27981.10
553.51	27534.06
553.67	27955.36
553.84	27852.38
554.01	27857.06
554.17	27737.69
554.34	28037.28
554.51	27690.88
554.67	28287.71
554.84	27957.70
555.00	27990.47
555.17	27782.16
555.33	28105.15
555.50	28046.64
555.67	28016.21
555.83	27835.99
556.00	27793.86
556.16	28039.62
556.33	28056.00
556.50	28081.75
556.66	28379.00
556.83	28231.54
556.99	28898.59
557.16	28367.29
557.32	28264.31
557.49	28680.92
557.65	27981.10
557.82	28116.86
557.98	28416.44
558.15	28430.49
558.32	28268.99
558.48	28130.90
558.65	28472.62
558.81	28725.39
558.98	28606.03
559.14	28320.48
559.31	28404.74
559.47	28816.68
559.64	28493.68
559.80	28924.34
559.97	28959.45
560.13	28369.63
560.30	28772.21
560.46	28540.49
560.63	28245.58
560.79	28648.16
560.96	28802.63
561.12	28772.21
561.29	28709.01
561.45	28666.88
561.61	28599.01
561.78	29102.22
561.94	29209.89
562.11	28428.15
562.27	28758.16
562.44	28947.75
562.60	28568.58
562.77	28833.06
562.93	28790.93
563.10	29017.96
563.26	29043.71
563.42	29111.58
563.59	28922.00
563.75	29139.67
563.92	29088.18
564.08	28725.39
564.24	29165.42
564.41	28929.02
564.57	28718.37
564.74	28868.17
564.90	29195.84
565.07	29280.10
565.23	29163.08
565.39	29612.46
565.56	29132.65
565.72	29039.03
565.88	29043.71
566.05	28978.17
566.21	29326.91
566.38	29429.90
566.54	29326.91
566.70	29134.99
566.87	29680.33
567.03	29228.61
567.19	29483.73
567.36	29532.88
567.52	28987.53
567.68	29355.00
567.85	29273.08
568.01	29200.52
568.17	29095.20
568.34	28924.34
568.50	29170.10
568.66	29479.05
568.83	29607.78
568.99	29460.32
569.15	29507.13
569.32	29392.45
569.48	29142.01
569.64	29780.98
569.81	29153.71
569.97	29591.39
570.13	29607.78
570.30	29369.04
570.46	29469.69
570.62	29486.07
570.78	29338.62
570.95	28882.21
571.11	29640.54
571.27	28933.70
571.43	28994.56
571.60	29340.96
571.76	29502.45
571.92	29322.23
572.09	29373.72
572.25	29748.21
572.41	29369.04
572.57	29567.99
572.74	29837.15
572.90	29399.47
573.06	29331.59
573.22	29745.87
573.38	29198.18
573.55	29390.11
573.71	29638.20
573.87	29436.92
574.03	29710.76
574.20	29390.11
574.36	29301.17
574.52	29921.41
574.68	29556.28
574.84	29558.63
575.01	29586.71
575.17	29752.89
575.33	29645.23
575.49	29230.95
575.65	29898.00
575.82	29820.77
575.98	29371.38
576.14	29575.01
576.30	29493.09
576.46	29642.88
576.62	29710.76
576.79	29472.03
576.95	29811.40
577.11	29762.25
577.27	29802.04
577.43	29202.86
577.59	29233.29
577.75	29687.36
577.92	29312.87
578.08	29572.67
578.24	29659.27
578.40	29577.35
578.56	29362.02
578.72	29830.13
578.88	30209.29
579.04	29476.71
579.21	29303.51
579.37	29811.40
579.53	29886.30
579.69	29359.68
579.85	29694.38
580.01	29450.96
580.17	29598.41
580.33	29675.65
580.49	29935.45
580.65	30169.51
580.82	29834.81
580.98	29984.60
581.14	29635.86
581.30	30113.33
581.46	29598.41
581.62	29741.19
581.78	29612.46
581.94	29565.65
582.10	29523.52
582.26	29434.58
582.42	29483.73
582.58	29872.26
582.74	29701.40
582.90	29930.77
583.06	29949.50
583.22	30134.40
583.38	30127.38
583.54	29680.33
583.70	29757.57
583.86	29479.05
584.02	29453.30
584.18	30174.19
584.34	29855.87
584.50	29703.74
584.66	30120.35
584.82	29495.43
584.98	29701.40
585.14	30094.61
585.30	29521.18
585.46	29429.90
585.62	30089.93
585.78	30183.55
585.94	29560.97
586.10	30005.67
586.26	29617.14
586.42	30125.04
586.58	30209.29
586.74	30288.87
586.90	30033.75
587.06	29476.71
587.22	29799.70
587.38	30043.12
587.54	30293.55
587.70	30448.03
587.86	29972.90
588.02	29900.34
588.18	30199.93
588.34	30178.87
588.49	30008.01
588.65	29818.42
588.81	29834.81
588.97	30436.33
589.13	29809.06
589.29	30052.48
589.45	30539.31
589.61	30342.70
589.77	30450.37
589.93	30103.97
590.08	30508.88
590.24	30089.93
590.40	30588.46
590.56	30314.62
590.72	30099.29
590.88	30005.67
591.04	29979.92
591.20	30611.87
591.35	30162.48
591.51	30073.54
591.67	30211.64
591.83	30323.98
591.99	30183.55
592.15	30328.66
592.31	30125.04
592.46	29834.81
592.62	29418.19
592.78	29867.58
592.94	30228.02
593.10	29853.53
593.26	30293.55
593.41	30401.22
593.57	30265.47
593.73	30195.25
593.89	30429.30
594.05	29977.58
594.20	29905.02
594.36	30099.29
594.52	30160.14
594.68	30335.68
594.84	30110.99
594.99	30654.00
595.15	30307.60
595.31	30389.52
595.47	30560.37
595.62	30466.75
595.78	30136.74
595.94	30333.34
596.10	30141.42
596.25	30118.01
596.41	30096.95
596.57	30293.55
596.73	30548.67
596.88	29972.90
597.04	30417.60
597.20	30515.90
597.36	30312.28
597.51	30843.58
597.67	30298.23
597.83	30403.56
597.99	30522.93
598.14	30426.96
598.30	30417.60
598.46	30422.28
598.61	30431.65
598.77	30321.64
598.93	30583.78
599.09	30408.24
599.24	30656.34
599.40	30485.48
599.56	30810.81
599.71	30335.68
599.87	30153.12
600.03	30183.55
600.18	30164.82
600.34	30153.12
600.50	30387.18
600.65	30450.37
600.81	30433.99
600.97	30515.90
601.12	30731.23
601.28	30656.34
601.44	30913.80
601.59	30562.72
601.75	30546.33
601.91	30480.80
602.06	30176.53
602.22	30256.11
602.37	30639.95
602.53	30553.35
602.69	30525.27
602.84	30562.72
603.00	30347.39
603.16	30710.17
603.31	30258.45
603.47	30394.20
603.62	30244.40
603.78	30153.12
603.94	30096.95
604.09	30555.69
604.25	30047.80
604.40	30485.48
604.56	30319.30
604.71	30555.69
604.87	30892.73
605.03	30462.07
605.18	30251.42
605.34	30466.75
605.49	30429.30
605.65	30581.44
605.80	29909.71
605.96	30174.19
606.12	30216.32
606.27	30338.02
606.43	30270.15
606.58	30295.89
606.74	30455.05
606.89	30419.94
607.05	30380.15
607.20	30548.67
607.36	30373.13
607.51	30438.67
607.67	30237.38
607.82	30340.36
607.98	30242.06
608.13	30249.08
608.29	29954.18
608.44	30426.96
608.60	30621.23
608.75	30485.48
608.91	30534.63
609.06	30256.11
609.22	30771.02
609.37	30085.25
609.53	29890.98
609.68	29867.58
609.84	30169.51
609.99	29879.28
610.15	30136.74
610.30	29916.73
610.46	30122.69
610.61	30529.95
610.76	30448.03
610.92	30085.25
611.07	30089.93
611.23	30302.92
611.38	29795.02
611.54	29795.02
611.69	29694.38
611.84	29685.01
612.00	29818.42
612.15	29846.51
612.31	30103.97
612.46	30080.56
612.62	29951.84
612.77	30291.21
612.92	30181.21
613.08	30094.61
613.23	29806.72
613.39	29834.81
613.54	29642.88
613.69	30029.07
613.85	29797.36
614.00	29811.40
614.15	29673.31
614.31	29745.87
614.46	30228.02
614.62	29727.14
614.77	30213.98
614.92	29771.61
615.08	29706.08
615.23	29680.33
615.38	29659.27
615.54	29495.43
615.69	29708.42
615.84	29441.60
616.00	29696.72
616.15	29441.60
616.30	29715.44
616.46	29745.87
616.61	29666.29
616.76	29832.47
616.92	29846.51
617.07	30045.46
617.22	29221.59
617.37	29656.93
617.53	29443.94
617.68	29535.22
617.83	29106.90
617.99	29102.22
618.14	29476.71
618.29	29294.14
618.45	29619.48
618.60	29752.89
618.75	29420.53
618.90	29635.86
619.06	29675.65
619.21	29139.67
619.36	29465.00
619.51	29083.50
619.67	29326.91
619.82	29125.63
619.97	29467.34
620.12	28966.47
620.28	29048.39
620.43	29582.03
620.58	29214.57
620.73	29605.44
620.89	29120.95
621.04	29207.55
621.19	29310.53
621.34	29015.62
621.49	29106.90
621.65	29322.23
621.80	28884.55
621.95	29034.35
622.10	29088.18
622.25	28922.00
622.41	29046.05
622.56	29273.08
622.71	29212.23
622.86	29181.80
623.01	29270.74
623.16	28952.43
623.32	28821.36
623.47	28790.93
623.62	29010.94
623.77	29116.26
623.92	28676.24
624.07	28947.75
624.23	28940.72
624.38	28865.83
624.53	29069.45
624.68	29144.35
624.83	29050.73
624.98	28903.28
625.13	28776.89
625.29	28608.37
625.44	28725.39
625.59	28793.27
625.74	28758.16
625.89	28336.87
626.04	28613.05
626.19	28388.36
626.34	28650.50
626.49	28465.60
626.65	28463.25
626.80	28283.03
626.95	28692.63
627.10	28173.03
627.25	28294.74
627.40	28624.75
627.55	28236.22
627.70	28423.47
627.85	28580.28
628.00	28121.54
628.15	28390.70
628.30	27903.87
628.45	28423.47
628.60	28151.96
628.76	28364.95
628.91	27985.79
629.06	28287.71
629.21	28582.62
629.36	28521.77
629.51	28278.35
629.66	27871.10
629.81	28070.04
629.96	28048.98
630.11	27723.65
630.26	28088.77
630.41	28158.99
630.56	27861.74
630.71	27819.61
630.86	28041.96
631.01	28606.03
631.16	28063.02
631.31	28013.87
631.46	28095.79
631.61	28119.20
631.76	28432.83
631.91	28058.34
632.06	27941.32
632.21	27592.58
632.36	28116.86
632.51	27751.73
632.66	27943.66
632.81	27700.24
632.96	27924.93
633.10	27751.73
633.25	28271.33
633.40	27742.37
633.55	27868.76
633.70	27456.82
633.85	27335.12
634.00	27625.34
634.15	27679.18
634.30	27718.96
634.45	27676.83
634.60	27534.06
634.75	27592.58
634.90	27473.21
635.05	27765.78
635.19	27442.78
635.34	27892.16
635.49	27618.32
635.64	27665.13
635.79	27585.55
635.94	27690.88
636.09	27524.70
636.24	27772.80
636.39	27522.36
636.53	27173.62
636.68	27353.84
636.83	27323.41
636.98	27288.31
637.13	27402.99
637.28	27332.78
637.43	27175.96
637.57	27714.28
637.72	27201.71
637.87	27580.87
638.02	27452.14
638.17	27110.43
638.32	26946.59
638.46	26960.63
638.61	27021.48
638.76	27033.19
638.91	26988.72
639.06	26848.29
639.20	27255.54
639.35	27314.05
639.50	27459.16
639.65	27115.11
639.80	27316.39
639.94	27248.52
640.09	27197.02
640.24	27131.49
640.39	27023.83
640.54	26558.06
640.68	26848.29
640.83	26843.60
640.98	27147.87
641.13	26714.87
641.27	27435.76
641.42	26757.00
641.57	27061.27
641.72	26815.52
641.86	26649.34
642.01	26946.59
642.16	26834.24
642.31	26382.52
642.45	26616.57
642.60	26731.26
642.75	26471.46
642.90	26221.02
643.04	26576.78
643.19	26185.91
643.34	26583.80
643.48	26855.31
643.63	26632.96
643.78	26712.53
643.93	26352.09
644.07	26291.24
644.22	26703.17
644.37	26471.46
644.51	26623.59
644.66	26682.11
644.81	26441.03
644.95	26274.85
645.10	26569.76
645.25	26396.56
645.39	26508.91
645.54	26403.58
645.69	26370.82
645.83	26256.13
645.98	26387.20
646.13	26366.13
646.27	26637.64
646.42	26434.01
646.57	26228.04
646.71	26092.29
646.86	26150.81
647.00	26073.57
647.15	26150.81
647.30	26181.23
647.44	26111.02
647.59	26218.68
647.74	26483.16
647.88	25853.56
648.03	25893.35
648.17	26216.34
648.32	26120.38
648.47	26356.77
648.61	26214.00
648.76	26412.95
648.90	26354.43
649.05	25968.24
649.20	26127.40
649.34	25881.64
649.49	25895.69
649.63	25715.47
649.78	25663.97
649.92	25633.55
650.07	25954.20
650.21	25792.70
650.36	26052.50
650.51	26096.97
650.65	25961.22
650.80	25687.38
650.94	25830.15
651.09	25249.70
651.23	25923.77
651.38	25874.62
651.52	25792.70
651.67	25851.22
651.81	25612.48
651.96	25846.54
652.10	25682.70
652.25	25666.31
652.39	25706.10
652.54	25867.60
652.68	25848.88
652.83	25631.21
652.97	25678.02
653.12	25502.48
653.26	25532.90
653.41	25261.40
653.55	25460.35
653.70	25160.76
653.84	25558.65
653.99	25202.89
654.13	25436.94
654.27	25366.73
654.42	25467.37
654.56	25195.87
654.71	25364.39
654.85	25516.52
655.00	25886.32
655.14	25238.00
655.29	25025.01
655.43	25385.45
655.57	25284.81
655.72	25441.62
655.86	24973.52
656.01	25139.69
656.15	25022.67
656.30	25333.96
656.44	25146.72
656.58	24943.09
656.73	25071.82
656.87	25071.82
657.01	25149.06
657.16	25376.09
657.30	25046.07
657.45	25249.70
657.59	25146.72
657.73	24980.54
657.88	24854.15
658.02	24943.09
658.16	24821.38
658.31	25113.95
658.45	24617.75
658.60	24460.94
658.74	24865.85
658.88	24636.48
659.03	24936.07
659.17	24858.83
659.31	24943.09
659.46	24697.33
659.60	24849.47
659.74	24795.64
659.89	24540.52
660.03	24648.18
660.17	24437.53
660.32	24418.81
660.46	24329.87
660.60	24240.93
660.74	24364.98
660.89	24411.79
661.03	24189.44
661.17	24393.06
661.32	24238.59
661.46	24510.09
661.60	24226.89
661.74	24479.66
661.89	24325.19
662.03	24372.00
662.17	24257.31
662.31	24194.12
662.46	24313.48
662.60	24135.60
662.74	24013.90
662.88	23988.15
663.03	23571.54
663.17	23747.08
663.31	23796.23
663.45	23667.50
663.60	24063.05
663.74	23676.86
663.88	23716.65
664.02	23875.80
664.17	23889.85
664.31	23543.45
664.45	23763.46
664.59	23931.98
664.73	23421.74
664.88	23555.15
665.02	23192.37
665.16	23552.81
665.30	23484.94
665.44	23101.09
665.59	23419.40
665.73	23281.31
665.87	22834.27
666.01	23578.56
666.15	23300.03
666.29	23229.82
666.44	23241.52
666.58	23445.15
666.72	23241.52
666.86	23208.75
667.00	23220.45
667.14	22939.59
667.28	22890.44
667.43	22977.04
667.57	22801.50
667.71	23204.07
667.85	22857.67
667.99	23000.44
668.13	22862.35
668.27	22625.96
668.41	23098.75
668.56	22864.69
668.70	22726.60
668.84	23199.39
668.98	22747.67
669.12	22944.27
669.26	22726.60
669.40	22464.46
669.54	22576.81
669.68	22473.82
669.82	22445.74
669.96	22326.37
670.10	22347.44
670.25	22408.29
670.39	22160.19
670.53	22445.74
670.67	22228.07
670.81	22380.20
670.95	22366.16
671.09	22183.60
671.23	22015.08
671.37	22183.60
671.51	22223.39
671.65	22029.12
671.79	21907.41
671.93	21738.90
672.07	22176.58
672.21	21923.80
672.35	21537.61
672.49	21771.66
672.63	21804.43
672.77	21453.35
672.91	21886.35
673.05	21682.72
673.19	21652.30
673.33	21521.23
673.47	21656.98
673.61	21671.02
673.75	21530.59
673.89	21231.00
674.03	21305.90
674.17	21329.30
674.31	21069.50
674.45	21216.96
674.59	21460.37
674.73	21259.09
674.87	21193.55
675.01	21013.33
675.15	21191.21
675.29	20973.54
675.43	20933.75
675.56	20730.12
675.70	20989.92
675.84	20746.51
675.98	20079.46
676.12	20952.48
676.26	20938.43
676.40	20692.68
676.54	20585.01
676.68	20482.03
676.82	20269.04
676.96	20219.89
677.10	20355.64
677.23	20336.91
677.37	20100.52
677.51	20056.05
677.65	20257.34
677.79	19999.88
677.93	19873.49
678.07	20037.33
678.21	19910.94
678.34	19957.75
678.48	19573.90
678.62	19775.19
678.76	19590.28
678.90	19442.83
679.04	19463.90
679.18	19311.76
679.31	19147.92
679.45	19295.38
679.59	19215.80
679.73	18984.09
679.87	19033.24
680.00	19241.54
680.14	18892.80
680.28	19040.26
680.42	18827.27
680.56	19026.21
680.70	19105.79
680.83	18981.74
680.97	18817.91
681.11	18775.78
681.25	18281.92
681.39	18768.76
681.52	18270.22
681.66	18576.83
681.80	18434.06
681.94	18448.10
682.07	18331.08
682.21	18230.43
682.35	17998.72
682.49	17816.16
682.62	17865.31
682.76	17860.63
682.90	18066.60
683.04	18132.13
683.17	17977.65
683.31	17912.12
683.45	17975.31
683.59	17947.23
683.72	17617.21
683.86	17614.87
684.00	17582.10
684.13	17563.38
684.27	17282.52
684.41	17184.21
684.55	17207.62
684.68	17319.96
684.82	17015.69
684.96	17219.32
685.09	16840.15
685.23	17121.02
685.37	17123.36
685.50	17036.76
685.64	17432.31
685.78	16582.70
685.91	16814.41
686.05	16849.52
686.19	16964.20
686.32	17046.12
686.46	16617.80
686.60	16386.09
686.73	16372.05
686.87	16226.93
687.01	16460.99
687.14	16224.59
687.28	16067.78
687.42	16348.64
687.55	16121.61
687.69	16346.30
687.82	15981.18
687.96	16177.78
688.10	16023.31
688.23	16299.49
688.37	16053.73
688.50	15894.58
688.64	15751.81
688.78	15932.03
688.91	15847.77
689.05	15730.74
689.18	15449.88
689.32	15389.02
689.46	15363.28
689.59	15592.65
689.73	15185.40
689.86	15470.94
690.00	15410.09
690.13	15218.16
690.27	15204.12
690.41	15246.25
690.54	14846.02
690.68	14831.97
690.81	15206.46
690.95	14878.79
691.08	14820.27
691.22	14899.85
691.35	14824.95
691.49	14691.54
691.62	14677.50
691.76	14738.35
691.89	14424.72
692.03	14160.24
692.16	14303.01
692.30	14335.78
692.43	14260.88
692.57	14193.01
692.70	14368.55
692.84	13870.01
692.97	14059.60
693.11	14005.77
693.24	14132.15
693.38	14005.77
693.51	13834.91
693.65	13921.51
693.78	13816.18
693.92	13734.26
694.05	13621.92
694.19	13502.55
694.32	13755.33
694.45	13488.51
694.59	13282.54
694.72	13399.57
694.86	13144.45
694.99	13188.92
695.13	13345.73
695.26	13378.50
695.39	13186.58
695.53	13170.19
695.66	13142.11
695.80	12968.91
695.93	13139.77
696.07	13041.46
696.20	12966.57
696.33	12947.84
696.47	12706.77
696.60	12631.87
696.73	12540.59
696.87	12517.18
697.00	12549.95
697.14	12542.93
697.27	12507.82
697.40	12266.75
697.54	12299.52
697.67	11946.09
697.80	12325.26
697.94	12152.06
698.07	12224.62
698.21	11992.90
698.34	12252.70
698.47	11749.49
698.61	12098.23
698.74	11901.62
698.87	11990.56
699.01	11712.04
699.14	11875.88
699.27	11948.43
699.40	11534.16
699.54	11590.33
699.67	11548.20
699.80	11651.19
699.94	11382.03
700.07	11506.07
700.20	11501.39
700.34	11260.32
700.47	11379.68
700.60	11435.86
700.73	11382.03
700.87	11234.57
701.00	10986.47
701.13	11056.69
701.26	11220.53
701.40	11225.21
701.53	11201.80
701.66	11047.33
701.79	11014.56
701.93	10986.47
702.06	10841.36
702.19	10506.66
702.32	10441.13
702.46	10616.67
702.59	10415.38
702.72	10478.58
702.85	10270.27
702.99	10473.90
703.12	10541.77
703.25	10616.67
703.38	9980.04
703.51	10204.74
703.65	10345.17
703.78	10153.24
703.91	10076.01
704.04	9968.34
704.17	10321.76
704.31	10230.48
704.44	10122.82
704.57	10022.17
704.70	9713.22
704.83	9678.12
704.96	9671.09
705.10	9535.34
705.23	9654.71
>>>>>End Processed Spectral Data<<<<<
