SpectraSuite Data File
++++++++++++++++++++++++++++++++++++
Date: Fri Oct 18 13:58:14 GMT-05:00 2013
User: bianchi
Dark Spectrum Present: No
Reference Spectrum Present: No
Number of Sampled Component Spectra: 1
Spectrometers: USB2+H05261
Integration Time (usec): 50000 (USB2+H05261)
Spectra Averaged: 1 (USB2+H05261)
Boxcar Smoothing: 0 (USB2+H05261)
Correct for Electrical Dark: No (USB2+H05261)
Strobe/Lamp Enabled: No (USB2+H05261)
Correct for Detector Non-linearity: No (USB2+H05261)
Correct for Stray Light: No (USB2+H05261)
Number of Pixels in Processed Spectrum: 2048
>>>>>Begin Processed Spectral Data<<<<<
365.73	0.00
365.92	0.00
366.12	0.00
366.32	0.00
366.52	0.00
366.72	0.00
366.91	0.00
367.11	0.00
367.31	0.00
367.51	0.00
367.70	0.00
367.90	0.00
368.10	0.00
368.30	0.00
368.49	0.00
368.69	0.00
368.89	0.00
369.09	0.00
369.28	0.00
369.48	0.00
369.68	0.00
369.87	0.00
370.07	0.00
370.27	0.00
370.47	0.00
370.66	21.06
370.86	149.79
371.06	95.96
371.25	187.24
371.45	102.98
371.65	93.62
371.84	187.24
372.04	189.58
372.24	149.79
372.44	163.84
372.63	255.12
372.83	205.97
373.03	220.01
373.22	297.25
373.42	212.99
373.62	215.33
373.81	196.60
374.01	212.99
374.21	252.78
374.40	168.52
374.60	208.31
374.79	224.69
374.99	259.80
375.19	273.84
375.38	224.69
375.58	217.67
375.78	266.82
375.97	287.89
376.17	311.29
376.37	264.48
376.56	159.16
376.76	224.69
376.95	238.73
377.15	217.67
377.35	273.84
377.54	271.50
377.74	304.27
377.93	294.91
378.13	283.20
378.33	322.99
378.52	250.44
378.72	381.51
378.91	292.57
379.11	266.82
379.31	283.20
379.50	280.86
379.70	280.86
379.89	311.29
380.09	283.20
380.28	285.55
380.48	344.06
380.68	327.68
380.87	351.08
381.07	283.20
381.26	360.44
381.46	306.61
381.65	414.27
381.85	271.50
382.04	297.25
382.24	397.89
382.43	313.63
382.63	348.74
382.83	294.91
383.02	365.12
383.22	348.74
383.41	379.17
383.61	433.00
383.80	416.62
384.00	355.76
384.19	376.83
384.39	362.78
384.58	369.80
384.78	435.34
384.97	348.74
385.17	437.68
385.36	395.55
385.56	390.87
385.75	397.89
385.95	374.49
386.14	423.64
386.34	414.27
386.53	369.80
386.72	454.06
386.92	404.91
387.11	421.30
387.31	414.27
387.50	435.34
387.70	416.62
387.89	414.27
388.09	498.53
388.28	442.36
388.48	393.21
388.67	414.27
388.86	454.06
389.06	493.85
389.25	507.90
389.45	531.30
389.64	500.87
389.84	447.04
390.03	477.47
390.22	526.62
390.42	528.96
390.61	477.47
390.81	461.09
391.00	503.22
391.19	526.62
391.39	456.40
391.58	538.32
391.78	479.81
391.97	505.56
392.16	444.70
392.36	592.16
392.55	531.30
392.75	493.85
392.94	629.60
393.13	627.26
393.33	531.30
393.52	608.54
393.71	587.47
393.91	596.84
394.10	587.47
394.29	552.37
394.49	596.84
394.68	608.54
394.88	559.39
395.07	638.97
395.26	608.54
395.46	655.35
395.65	599.18
395.84	620.24
396.04	692.80
396.23	608.54
396.42	629.60
396.62	699.82
396.81	638.97
397.00	629.60
397.19	653.01
397.39	678.76
397.58	669.39
397.77	608.54
397.97	795.78
398.16	690.46
398.35	610.88
398.55	737.27
398.74	603.86
398.93	730.25
399.12	594.50
399.32	720.88
399.51	678.76
399.70	748.97
399.90	702.16
400.09	734.93
400.28	779.40
400.47	709.18
400.67	734.93
400.86	716.20
401.05	767.70
401.24	840.25
401.44	781.74
401.63	863.66
401.82	795.78
402.01	763.01
402.21	800.46
402.40	814.51
402.59	861.32
402.78	730.25
402.97	952.60
403.17	884.72
403.36	929.19
403.55	856.64
403.74	847.27
403.93	978.34
404.13	901.11
404.32	931.53
404.51	840.25
404.70	873.02
404.89	898.77
405.09	1041.54
405.28	959.62
405.47	964.30
405.66	976.00
405.85	1057.92
406.05	875.36
406.24	1001.75
406.43	882.38
406.62	1013.45
406.81	1083.67
407.00	1025.15
407.20	1020.47
407.39	1001.75
407.58	954.94
407.77	1088.35
407.96	1029.84
408.15	1064.94
408.34	1121.12
408.54	1034.52
408.73	1104.73
408.92	1144.52
409.11	1132.82
409.30	1198.35
409.49	1095.37
409.68	1071.97
409.87	1116.44
410.07	1210.06
410.26	1280.27
410.45	1186.65
410.64	1221.76
410.83	1217.08
411.02	1287.29
411.21	1252.19
411.40	1212.40
411.59	1291.98
411.78	1242.82
411.98	1172.61
412.17	1277.93
412.36	1345.81
412.55	1245.16
412.74	1270.91
412.93	1315.38
413.12	1231.12
413.31	1469.86
413.50	1357.51
413.69	1289.64
413.88	1486.24
414.07	1427.73
414.26	1401.98
414.45	1551.78
414.64	1439.43
414.83	1394.96
415.02	1474.54
415.22	1523.69
415.41	1565.82
415.60	1558.80
415.79	1509.65
415.98	1614.97
416.17	1591.56
416.36	1570.50
416.55	1521.35
416.74	1528.37
416.93	1664.12
417.12	1680.50
417.31	1769.44
417.50	1706.25
417.69	1729.66
417.88	1631.35
418.07	1629.01
418.26	1650.08
418.45	1685.19
418.64	1767.10
418.83	1652.42
419.02	1715.61
419.21	1877.11
419.39	1816.26
419.58	1750.72
419.77	1813.92
419.96	1919.24
420.15	1769.44
420.34	1870.09
420.53	1914.56
420.72	1928.60
420.91	1930.94
421.10	1935.62
421.29	1977.75
421.48	1907.54
421.67	1959.03
421.86	1952.01
422.05	2008.18
422.24	1949.67
422.43	2059.67
422.61	2015.20
422.80	1994.14
422.99	2024.56
423.18	2076.06
423.37	2073.71
423.56	2054.99
423.75	1968.39
423.94	2073.71
424.13	1867.75
424.32	1907.54
424.50	1991.80
424.69	2157.97
424.88	2050.31
425.07	1977.75
425.26	2010.52
425.45	2005.84
425.64	2052.65
425.83	2092.44
426.01	2069.03
426.20	2052.65
426.39	2054.99
426.58	2043.29
426.77	2097.12
426.96	1935.62
427.15	2080.74
427.33	2249.25
427.52	2167.34
427.71	2139.25
427.90	2186.06
428.09	2249.25
428.28	2047.97
428.46	2169.68
428.65	2209.47
428.84	2223.51
429.03	2349.90
429.22	2122.87
429.40	2333.51
429.59	2237.55
429.78	2157.97
429.97	2085.42
430.16	2148.61
430.34	2244.57
430.53	2434.16
430.72	2296.07
430.91	2340.54
431.10	2296.07
431.28	2251.60
431.47	2197.76
431.66	2272.66
431.85	2520.76
432.03	2410.75
432.22	2394.37
432.41	2406.07
432.60	2356.92
432.79	2307.77
432.97	2361.60
433.16	2551.18
433.35	2457.56
433.54	2595.65
433.72	2492.67
433.91	2459.90
434.10	2469.27
434.28	2537.14
434.47	2431.82
434.66	2476.29
434.85	2640.12
435.03	2668.21
435.22	2548.84
435.41	2686.94
435.59	2597.99
435.78	2684.59
435.97	2686.94
436.16	2733.75
436.34	2581.61
436.53	2656.51
436.72	2731.41
436.90	2696.30
437.09	2705.66
437.28	2656.51
437.46	2717.36
437.65	2792.26
437.84	2637.78
438.02	2832.05
438.21	2644.81
438.40	2883.54
438.58	2829.71
438.77	2904.60
438.96	2956.10
439.14	2972.48
439.33	2899.92
439.52	3087.17
439.70	2850.77
439.89	3061.42
440.08	3035.67
440.26	2916.31
440.45	3082.49
440.63	3042.70
440.82	3075.46
441.01	3002.91
441.19	3131.64
441.38	3162.06
441.57	3192.49
441.75	3267.39
441.94	3246.32
442.12	3353.99
442.31	3281.43
442.50	3286.11
442.68	3323.56
442.87	3356.33
443.05	3337.60
443.24	3379.73
443.43	3386.76
443.61	3424.20
443.80	3506.12
443.98	3272.07
444.17	3178.45
444.35	3328.24
444.54	3510.80
444.73	3382.07
444.91	3398.46
445.10	3379.73
445.28	3419.52
445.47	3454.63
445.65	3515.48
445.84	3557.61
446.02	3524.85
446.21	3440.59
446.39	3442.93
446.58	3492.08
446.77	3595.06
446.95	3562.30
447.14	3428.88
447.32	3506.12
447.51	3534.21
447.69	3506.12
447.88	3562.30
448.06	3571.66
448.25	3492.08
448.43	3599.74
448.62	3522.51
448.80	3625.49
448.99	3562.30
449.17	3541.23
449.36	3602.08
449.54	3606.77
449.73	3466.33
449.91	3679.32
450.10	3634.85
450.28	3684.00
450.46	3798.69
450.65	3726.13
450.83	3719.11
451.02	3737.84
451.20	3791.67
451.39	3864.22
451.57	3852.52
451.76	3756.56
451.94	3779.97
452.13	3927.42
452.31	3967.21
452.49	3819.75
452.68	3852.52
452.86	3852.52
453.05	3768.26
453.23	3936.78
453.42	3929.76
453.60	3723.79
453.78	3880.61
453.97	3899.33
454.15	3997.64
454.34	3889.97
454.52	4105.30
454.70	3906.35
454.89	4121.68
455.07	4002.32
455.26	4046.79
455.44	4138.07
455.62	4028.06
455.81	4021.04
455.99	4044.45
456.17	4180.20
456.36	4208.28
456.54	4079.55
456.73	4201.26
456.91	4322.97
457.09	4320.63
457.28	4454.04
457.46	4290.20
457.64	4416.59
457.83	4367.44
458.01	4166.15
458.19	4388.50
458.38	4456.38
458.56	4475.10
458.74	4346.37
458.93	4449.36
459.11	4376.80
459.29	4344.03
459.48	4456.38
459.66	4519.57
459.84	4587.45
460.03	4807.46
460.21	4531.28
460.39	4568.73
460.57	4624.90
460.76	4550.00
460.94	4402.55
461.12	4507.87
461.31	4512.55
461.49	4699.80
461.67	4706.82
461.85	4723.20
462.04	4641.28
462.22	5041.51
462.40	4779.37
462.59	4819.16
462.77	4905.76
462.95	4753.63
463.13	4732.56
463.32	4791.08
463.50	4994.70
463.68	4884.70
463.86	4720.86
464.05	4709.16
464.23	4919.81
464.41	5069.60
464.59	4786.40
464.78	4978.32
464.96	4755.97
465.14	4751.29
465.32	5004.07
465.50	4966.62
465.69	4943.21
465.87	4910.44
466.05	4908.10
466.23	4964.28
466.41	5039.17
466.60	4912.78
466.78	5093.01
466.96	5034.49
467.14	5174.92
467.32	5118.75
467.51	5275.57
467.69	4922.15
467.87	5200.67
468.05	5231.10
468.23	5146.84
468.41	5100.03
468.60	5128.11
468.78	5214.71
468.96	5123.43
469.14	5310.68
469.32	5371.53
469.50	5217.05
469.69	5390.25
469.87	5392.59
470.05	5451.11
470.23	5366.85
470.41	5413.66
470.59	5518.98
470.77	5390.25
470.95	5518.98
471.14	5657.07
471.32	5310.68
471.50	5710.91
471.68	5533.03
471.86	5544.73
472.04	5612.60
472.22	5853.68
472.40	5626.65
472.58	5738.99
472.77	5692.18
472.95	5914.53
473.13	5973.05
473.31	5767.08
473.49	5767.08
473.67	5841.98
473.85	5912.19
474.03	6139.23
474.21	6108.80
474.39	6026.88
474.57	6125.18
474.75	6111.14
474.93	6066.67
475.12	6061.99
475.30	6342.85
475.48	6232.85
475.66	6111.14
475.84	6483.28
476.02	6284.34
476.20	6298.38
476.38	6480.94
476.56	6555.84
476.74	6572.22
476.92	6464.56
477.10	6537.12
477.28	6668.19
477.46	6546.48
477.64	6696.27
477.82	6874.15
478.00	6881.18
478.18	6944.37
478.36	7037.99
478.54	7059.06
478.72	7014.59
478.90	7229.91
479.08	7262.68
479.26	7253.32
479.44	7286.09
479.62	7302.47
479.80	7412.48
479.98	7398.43
480.16	7550.57
480.34	7543.55
480.52	7634.83
480.70	7468.65
480.88	7630.15
481.06	7796.32
481.24	7784.62
481.41	7819.73
481.59	7969.52
481.77	8044.42
481.95	8131.02
482.13	8205.92
482.31	8119.32
482.49	8327.63
482.67	8248.05
482.85	8531.25
483.03	8503.17
483.21	8512.53
483.39	8510.19
483.57	8718.50
483.74	8624.87
483.92	8704.45
484.10	8781.69
484.28	8919.78
484.46	8957.23
484.64	9261.50
484.82	9053.19
485.00	9092.98
485.18	9128.09
485.35	9582.15
485.53	9603.22
485.71	9315.33
485.89	9645.35
486.07	9474.49
486.25	9619.60
486.43	9778.76
486.61	9738.97
486.78	10099.41
486.96	9940.26
487.14	10113.45
487.32	10024.51
487.50	10209.42
487.68	10296.02
487.85	10382.62
488.03	10373.25
488.21	10441.13
488.39	10342.83
488.57	10600.29
488.75	10707.95
488.92	10949.03
489.10	10897.53
489.28	11063.71
489.46	11304.79
489.64	10974.77
489.81	11379.68
489.99	11262.66
490.17	11321.17
490.35	11356.28
490.53	11496.71
490.70	11580.97
490.88	11639.48
491.06	11641.82
491.24	11857.15
491.41	11775.24
491.59	11854.81
491.77	12273.77
491.95	12013.97
492.13	12156.74
492.30	12493.78
492.48	12489.10
492.66	12351.01
492.84	12327.60
493.01	12608.47
493.19	12755.92
493.37	12692.73
493.54	12802.73
493.72	12704.43
493.90	12732.51
494.08	13174.88
494.25	13158.49
494.43	13310.63
494.61	13252.11
494.79	13357.44
494.96	13284.88
495.14	13343.39
495.32	13338.71
495.49	13561.06
495.67	13799.80
495.85	13785.76
496.02	14075.98
496.20	14085.34
496.38	13879.38
496.55	14085.34
496.73	14363.87
496.91	14319.40
497.09	14331.10
497.26	14333.44
497.44	14480.89
497.62	14211.73
497.79	14677.50
497.97	14466.85
498.14	14768.78
498.32	14850.70
498.50	14824.95
498.67	15042.62
498.85	14721.97
499.03	15002.83
499.20	15173.69
499.38	15033.26
499.56	15309.44
499.73	15391.36
499.91	15346.89
500.08	15424.13
500.26	15405.41
500.44	15592.65
500.61	15744.78
500.79	15658.18
500.97	15669.89
501.14	15957.77
501.32	16109.91
501.49	15669.89
501.67	15915.64
501.84	15901.60
502.02	15967.13
502.20	16039.69
502.37	16290.13
502.55	16128.63
502.72	16369.71
502.90	16133.31
503.07	16133.31
503.25	16336.94
503.43	16418.86
503.60	16814.41
503.78	16613.12
503.95	16449.28
504.13	16648.23
504.30	16538.23
504.48	16547.59
504.65	16821.43
504.83	16835.47
505.01	16875.26
505.18	17130.38
505.36	17008.67
505.53	16924.41
505.71	17226.34
505.88	17263.79
506.06	17221.66
506.23	16961.86
506.41	17589.13
506.58	17539.97
506.76	17516.57
506.93	17378.48
507.11	17334.01
507.28	17909.78
507.46	17502.53
507.63	17745.94
507.81	17884.03
507.98	17736.58
508.16	17825.52
508.33	17848.93
508.50	17928.50
508.68	17879.35
508.85	18249.16
509.03	18019.78
509.20	18331.08
509.38	18359.16
509.55	18478.53
509.73	18284.26
509.90	18452.78
510.08	18387.25
510.25	18462.15
510.42	18527.68
510.60	18637.69
510.77	19033.24
510.95	18661.09
511.12	18244.48
511.30	18635.35
511.47	18836.63
511.64	19054.30
511.82	19192.39
511.99	19281.33
512.17	19133.88
512.34	19049.62
512.51	19396.02
512.69	19344.53
512.86	19260.27
513.04	19250.91
513.21	19370.27
513.38	19686.25
513.56	19442.83
513.73	19494.32
513.90	19587.94
514.08	19271.97
514.25	19791.57
514.43	19784.55
514.60	19721.35
514.77	19693.27
514.95	20034.99
515.12	20006.90
515.29	19793.91
515.47	19997.54
515.64	20423.51
515.81	19913.28
515.99	20266.70
516.16	20257.34
516.33	20496.07
516.51	20475.01
516.68	20388.41
516.85	20147.33
517.03	20554.58
517.20	20367.34
517.37	20379.04
517.54	20297.13
517.72	20489.05
517.89	20262.02
518.06	20781.62
518.24	20741.83
518.41	20819.07
518.58	20655.23
518.75	21006.31
518.93	20812.04
519.10	21156.10
519.27	20931.41
519.45	21132.70
519.62	21029.71
519.79	21158.44
519.96	21200.57
520.14	21146.74
520.31	21207.59
520.48	21357.39
520.65	21355.05
520.83	21521.23
521.00	21610.17
521.17	21460.37
521.34	21500.16
521.52	21685.06
521.69	21762.30
521.86	21731.87
522.03	21998.70
522.20	21837.20
522.38	21855.92
522.55	21940.18
522.72	22029.12
522.89	21862.94
523.07	22106.36
523.24	21886.35
523.41	22185.94
523.58	22162.53
523.75	21989.33
523.92	22223.39
524.10	22279.56
524.27	22525.32
524.44	22464.46
524.61	22478.50
524.78	22415.31
524.96	22382.54
525.13	22616.60
525.30	22637.66
525.47	22874.06
525.64	22728.94
525.81	22913.84
525.98	22677.45
526.16	22419.99
526.33	22712.56
526.50	22890.44
526.67	22735.96
526.84	22998.10
527.01	22867.03
527.18	23349.18
527.36	23157.26
527.53	23190.03
527.70	23433.44
527.87	23445.15
528.04	23136.20
528.21	23009.81
528.38	23080.02
528.55	23410.04
528.72	23346.84
528.89	23316.42
529.07	23557.49
529.24	23344.50
529.41	23843.04
529.58	23447.49
529.75	23440.47
529.92	23850.06
530.09	23716.65
530.26	23861.76
530.43	23814.95
530.60	23805.59
530.77	23721.33
530.94	23749.42
531.11	23969.43
531.28	23936.66
531.46	24034.96
531.63	23824.31
531.80	24116.88
531.97	24027.94
532.14	24217.52
532.31	24166.03
532.48	24072.41
532.65	24259.65
532.82	24236.25
532.99	24297.10
533.16	24285.40
533.33	24151.99
533.50	24645.84
533.67	24601.37
533.84	24575.62
534.01	24451.58
534.18	24493.71
534.35	24535.84
534.52	24322.85
534.69	24783.93
534.86	24535.84
535.03	24720.74
535.20	24418.81
535.37	24690.31
535.54	25291.83
535.71	24489.03
535.88	24599.03
536.05	25132.67
536.22	24861.17
536.38	24915.00
536.55	25209.91
536.72	25090.54
536.89	25249.70
537.06	25289.49
537.23	25186.50
537.40	24952.45
537.57	25083.52
537.74	25266.08
537.91	25598.44
538.08	25439.28
538.25	25324.60
538.42	25149.06
538.59	25804.41
538.75	25003.94
538.92	25443.96
539.09	25266.08
539.26	25481.41
539.43	25584.40
539.60	25319.92
539.77	25500.14
539.94	25460.35
540.11	25710.78
540.28	25586.74
540.44	25518.86
540.61	25610.14
540.78	25495.46
540.95	25371.41
541.12	25315.23
541.29	25998.67
541.46	25942.50
541.62	25764.62
541.79	25949.52
541.96	25610.14
542.13	25949.52
542.30	26115.70
542.47	25914.41
542.63	26001.01
542.80	25949.52
542.97	26335.71
543.14	26778.07
543.31	26185.91
543.48	26286.56
543.64	26529.97
543.81	26689.13
543.98	26845.94
544.15	26314.64
544.32	26522.95
544.48	26642.32
544.65	26618.91
544.82	26705.51
544.99	26419.97
545.16	26775.73
545.32	26370.82
545.49	26796.79
545.66	27325.75
545.83	26838.92
546.00	26965.31
546.16	26892.76
546.33	26810.84
546.50	26288.90
546.67	27028.51
546.83	26838.92
547.00	26867.01
547.17	27278.94
547.34	27314.05
547.50	27274.26
547.67	27278.94
547.84	27159.58
548.00	27351.50
548.17	27091.70
548.34	26944.25
548.51	27386.61
548.67	27562.15
548.84	27171.28
549.01	27583.21
549.18	27372.57
549.34	27108.08
549.51	27580.87
549.68	27314.05
549.84	27281.28
550.01	27782.16
550.18	27115.11
550.34	27779.82
550.51	27908.55
550.68	27913.23
550.84	27168.94
551.01	27573.85
551.18	27660.45
551.34	27239.15
551.51	27557.47
551.68	27831.31
551.84	27833.65
552.01	27868.76
552.18	27929.61
552.34	27758.75
552.51	28137.92
552.68	27665.13
552.84	27768.12
553.01	28203.46
553.18	28163.67
553.34	28063.02
553.51	27257.88
553.67	28107.49
553.84	28421.13
554.01	27889.82
554.17	28325.16
554.34	27936.63
554.51	27960.04
554.67	27887.48
554.84	28313.46
555.00	28451.55
555.17	28072.39
555.33	28304.10
555.50	28205.80
555.67	28327.50
555.83	28205.80
556.00	28133.24
556.16	28608.37
556.33	28315.80
556.50	28301.76
556.66	28430.49
556.83	28355.59
556.99	28414.10
557.16	28423.47
557.32	28617.73
557.49	28507.72
557.65	28081.75
557.82	28168.35
557.98	28678.58
558.15	28402.40
558.32	28678.58
558.48	28622.41
558.65	29144.35
558.81	28945.41
558.98	28645.82
559.14	28723.05
559.31	28463.25
559.47	28727.74
559.64	28903.28
559.80	28725.39
559.97	28666.88
560.13	28545.17
560.30	28442.19
560.46	28694.97
560.63	28559.22
560.79	29134.99
560.96	29036.69
561.12	28613.05
561.29	28765.18
561.45	28697.31
561.61	28980.51
561.78	29050.73
561.94	29312.87
562.11	29134.99
562.27	29205.20
562.44	28922.00
562.60	29216.91
562.77	28793.27
562.93	28863.49
563.10	29273.08
563.26	29413.51
563.42	29378.40
563.59	29022.64
563.75	29109.24
563.92	29202.86
564.08	28985.19
564.24	29486.07
564.41	29029.66
564.57	29125.63
564.74	28985.19
564.90	29027.32
565.07	29195.84
565.23	29434.58
565.39	28849.44
565.56	29350.32
565.72	28617.73
565.88	29326.91
566.05	29408.83
566.21	29193.50
566.38	29312.87
566.54	29282.44
566.70	29364.36
566.87	29682.67
567.03	29153.71
567.19	29708.42
567.36	29383.09
567.52	29221.59
567.68	29305.85
567.85	29160.73
568.01	29790.34
568.17	29731.83
568.34	29727.14
568.50	29558.63
568.66	29156.05
568.83	29546.92
568.99	29308.19
569.15	29228.61
569.32	29242.65
569.48	29376.06
569.64	29460.32
569.81	29837.15
569.97	29481.39
570.13	29956.52
570.30	29626.50
570.46	29532.88
570.62	29549.26
570.78	29921.41
570.95	29518.84
571.11	29497.77
571.27	29567.99
571.43	29399.47
571.60	29670.97
571.76	29448.62
571.92	29692.04
572.09	29706.08
572.25	29621.82
572.41	29575.01
572.57	29610.12
572.74	30036.09
572.90	29713.10
573.06	29963.54
573.22	29556.28
573.38	29656.93
573.55	29888.64
573.71	29975.24
573.87	29956.52
574.03	30022.05
574.20	29750.55
574.36	29598.41
574.52	29961.20
574.68	29436.92
574.84	29656.93
575.01	30089.93
575.17	29771.61
575.33	29710.76
575.49	29663.95
575.65	29722.46
575.82	29708.42
575.98	29677.99
576.14	29893.32
576.30	29860.55
576.46	29806.72
576.62	29802.04
576.79	29890.98
576.95	29867.58
577.11	29766.93
577.27	30192.91
577.43	30202.27
577.59	29736.51
577.75	29811.40
577.92	29780.98
578.08	29584.37
578.24	29780.98
578.40	29689.70
578.56	29989.28
578.72	29883.96
578.88	30230.36
579.04	30153.12
579.21	29736.51
579.37	29586.71
579.53	30178.87
579.69	29575.01
579.85	29855.87
580.01	29940.13
580.17	29907.37
580.33	29769.27
580.49	30029.07
580.65	30387.18
580.82	29991.62
580.98	30129.72
581.14	29989.28
581.30	30043.12
581.46	29832.47
581.62	30057.16
581.78	29949.50
581.94	29876.94
582.10	30054.82
582.26	29748.21
582.42	30045.46
582.58	29993.97
582.74	30157.80
582.90	29855.87
583.06	29968.22
583.22	29968.22
583.38	30122.69
583.54	29975.24
583.70	30022.05
583.86	29898.00
584.02	29743.53
584.18	30618.89
584.34	30127.38
584.50	29989.28
584.66	30073.54
584.82	29968.22
584.98	29909.71
585.14	29986.94
585.30	30015.03
585.46	29549.26
585.62	29909.71
585.78	30059.50
585.94	29883.96
586.10	29998.65
586.26	29979.92
586.42	30101.63
586.58	30235.04
586.74	30031.41
586.90	29968.22
587.06	30284.19
587.22	29748.21
587.38	30029.07
587.54	30263.13
587.70	30433.99
587.86	30230.36
588.02	30274.83
588.18	30192.91
588.34	30284.19
588.49	29715.44
588.65	29797.36
588.81	30387.18
588.97	30237.38
589.13	30188.23
589.29	30162.48
589.45	30249.08
589.61	30438.67
589.77	30649.32
589.93	30752.30
590.08	30326.32
590.24	30387.18
590.40	30239.72
590.56	30263.13
590.72	30256.11
590.88	29706.08
591.04	30555.69
591.20	30448.03
591.35	30534.63
591.51	30588.46
591.67	30651.66
591.83	30476.12
591.99	30478.46
592.15	30403.56
592.31	30485.48
592.46	30391.86
592.62	30298.23
592.78	30199.93
592.94	30293.55
593.10	30190.57
593.26	30424.62
593.41	30445.69
593.57	30485.48
593.73	30307.60
593.89	30646.97
594.05	30471.43
594.20	30373.13
594.36	30511.22
594.52	30476.12
594.68	30457.39
594.84	30424.62
594.99	30520.59
595.15	30237.38
595.31	30459.73
595.47	30328.66
595.62	30981.67
595.78	30433.99
595.94	30424.62
596.10	30698.47
596.25	30185.89
596.41	30768.68
596.57	29905.02
596.73	30689.10
596.88	30284.19
597.04	31213.38
597.20	30522.93
597.36	30415.26
597.51	30583.78
597.67	30607.19
597.83	30492.50
597.99	30668.04
598.14	30398.88
598.30	30670.38
598.46	30340.36
598.61	30518.25
598.77	30373.13
598.93	30836.56
599.09	31007.42
599.24	30991.03
599.40	30976.99
599.56	30976.99
599.71	30455.05
599.87	30492.50
600.03	30452.71
600.18	30595.48
600.34	30654.00
600.50	30511.22
600.65	31164.23
600.81	30742.94
600.97	30646.97
601.12	30686.76
601.28	30738.26
601.44	30911.46
601.59	30595.48
601.75	30480.80
601.91	30993.37
602.06	30881.03
602.22	30857.62
602.37	30551.01
602.53	30782.73
602.69	30859.96
602.84	30565.06
603.00	31035.50
603.16	30483.14
603.31	30738.26
603.47	30560.37
603.62	30665.70
603.78	30532.29
603.94	30661.02
604.09	30602.50
604.25	30581.44
604.40	30866.98
604.56	30637.61
604.71	30464.41
604.87	30487.82
605.03	30686.76
605.18	30366.11
605.34	30712.51
605.49	30663.36
605.65	30490.16
605.80	30335.68
605.96	30518.25
606.12	30445.69
606.27	30494.84
606.43	30263.13
606.58	30441.01
606.74	30579.10
606.89	30551.01
607.05	30927.84
607.20	30630.59
607.36	30756.98
607.51	30771.02
607.67	30323.98
607.82	30153.12
607.98	30583.78
608.13	30319.30
608.29	30651.66
608.44	30543.99
608.60	30543.99
608.75	30829.54
608.91	30700.81
609.06	30527.61
609.22	30478.46
609.37	30082.91
609.53	30412.92
609.68	30258.45
609.84	30143.76
609.99	30476.12
610.15	30389.52
610.30	30281.85
610.46	30438.67
610.61	30431.65
610.76	30347.39
610.92	30520.59
611.07	30396.54
611.23	30291.21
611.38	30363.77
611.54	29804.38
611.69	30036.09
611.84	30087.59
612.00	29993.97
612.15	30267.81
612.31	30260.79
612.46	29692.04
612.62	30370.79
612.77	30513.56
612.92	30478.46
613.08	30302.92
613.23	29783.32
613.39	30003.33
613.54	30010.35
613.69	30045.46
613.85	30141.42
614.00	29872.26
614.15	30281.85
614.31	30291.21
614.46	30401.22
614.62	29895.66
614.77	30146.10
614.92	29993.97
615.08	29907.37
615.23	30118.01
615.38	30246.74
615.54	29280.10
615.69	29731.83
615.84	29944.81
616.00	29841.83
616.15	29579.69
616.30	29907.37
616.46	30110.99
616.61	29766.93
616.76	29839.49
616.92	29984.60
617.07	30089.93
617.22	29731.83
617.37	29680.33
617.53	29851.19
617.68	29738.85
617.83	29530.54
617.99	29699.06
618.14	29551.60
618.29	29472.03
618.45	29579.69
618.60	29596.07
618.75	29497.77
618.90	29312.87
619.06	29579.69
619.21	29766.93
619.36	29553.94
619.51	29525.86
619.67	29170.10
619.82	29441.60
619.97	29305.85
620.12	29493.09
620.28	29146.69
620.43	29846.51
620.58	29593.73
620.73	29771.61
620.89	29572.67
621.04	29404.15
621.19	29809.06
621.34	29415.85
621.49	29205.20
621.65	29015.62
621.80	29436.92
621.95	29362.02
622.10	29357.34
622.25	28861.15
622.41	29186.48
622.56	29261.38
622.71	29689.70
622.86	29439.26
623.01	29336.27
623.16	29633.52
623.32	29113.92
623.47	29214.57
623.62	28931.36
623.77	29024.98
623.92	29144.35
624.07	28891.57
624.23	29092.86
624.38	29097.54
624.53	29165.42
624.68	28910.30
624.83	29160.73
624.98	29216.91
625.13	28697.31
625.29	28987.53
625.44	28758.16
625.59	28603.69
625.74	28837.74
625.89	28606.03
626.04	29139.67
626.19	28912.64
626.34	28725.39
626.49	28816.68
626.65	28620.07
626.80	29062.43
626.95	28374.31
627.10	28568.58
627.25	28907.96
627.40	28863.49
627.55	28751.14
627.70	28652.84
627.85	28566.24
628.00	28666.88
628.15	28655.18
628.30	28411.76
628.45	28442.19
628.60	28549.85
628.76	28959.45
628.91	28400.06
629.06	28645.82
629.21	28526.45
629.36	28510.07
629.51	28063.02
629.66	28519.43
629.81	28144.94
629.96	28168.35
630.11	27964.72
630.26	28362.61
630.41	28137.92
630.56	28240.90
630.71	28315.80
630.86	28252.61
631.01	27971.74
631.16	28364.95
631.31	28397.72
631.46	28095.79
631.61	28402.40
631.76	28332.18
631.91	28173.03
632.06	28481.98
632.21	28205.80
632.36	28390.70
632.51	27789.18
632.66	28095.79
632.81	27740.03
632.96	28093.45
633.10	28102.81
633.25	28334.53
633.40	28147.28
633.55	28212.82
633.70	27613.64
633.85	27859.40
634.00	27662.79
634.15	27838.33
634.30	28020.89
634.45	27735.35
634.60	27946.00
634.75	27985.79
634.90	27606.62
635.05	27824.29
635.19	27653.43
635.34	28268.99
635.49	27861.74
635.64	27503.64
635.79	27667.47
635.94	27683.86
636.09	27828.97
636.24	27632.36
636.39	27468.53
636.53	27611.30
636.68	27721.30
636.83	27889.82
636.98	27789.18
637.13	27513.00
637.28	27417.04
637.43	27943.66
637.57	27669.81
637.72	27269.58
637.87	27248.52
638.02	27501.29
638.17	27674.49
638.32	27524.70
638.46	27445.12
638.61	27419.38
638.76	27147.87
638.91	27089.36
639.06	27267.24
639.20	27384.27
639.35	27454.48
639.50	28070.04
639.65	27644.07
639.80	27620.66
639.94	27349.16
640.09	27459.16
640.24	27243.84
640.39	27072.98
640.54	27007.44
640.68	27056.59
640.83	27311.71
640.98	26761.69
641.13	26668.06
641.27	27414.69
641.42	26780.41
641.57	27271.92
641.72	27136.17
641.86	26665.72
642.01	27026.17
642.16	27323.41
642.31	26941.91
642.45	26897.44
642.60	26574.44
642.75	26824.88
642.90	26668.06
643.04	27021.48
643.19	26565.08
643.34	26441.03
643.48	27037.87
643.63	26941.91
643.78	26761.69
643.93	26761.69
644.07	26881.05
644.22	26862.33
644.37	26909.14
644.51	26677.43
644.66	26642.32
644.81	26572.10
644.95	26595.51
645.10	26419.97
645.25	26335.71
645.39	26478.48
645.54	26464.44
645.69	26583.80
645.83	26658.70
645.98	26455.08
646.13	26820.20
646.27	26431.67
646.42	26499.55
646.57	26494.86
646.71	26494.86
646.86	26242.09
647.00	26375.50
647.15	26574.44
647.30	26424.65
647.44	26242.09
647.59	26544.02
647.74	25855.90
647.88	25743.55
648.03	26511.25
648.17	26375.50
648.32	26522.95
648.47	26263.15
648.61	26211.66
648.76	26319.32
648.90	26455.08
649.05	26469.12
649.20	26515.93
649.34	26401.24
649.49	25825.47
649.63	25912.07
649.78	26319.32
649.92	25979.95
650.07	26080.59
650.21	25940.16
650.36	25937.82
650.51	25846.54
650.65	26001.01
650.80	26319.32
650.94	26085.27
651.09	25926.11
651.23	26377.84
651.38	25876.96
651.52	26190.59
651.67	25867.60
651.81	25855.90
651.96	25979.95
652.10	25624.18
652.25	25802.07
652.39	25827.81
652.54	25900.37
652.68	25825.47
652.83	26024.42
652.97	26071.23
653.12	26258.47
653.26	25865.26
653.41	25832.49
653.55	25673.34
653.70	25308.21
653.84	25635.89
653.99	25551.63
654.13	25771.64
654.27	25628.87
654.42	25385.45
654.56	25729.51
654.71	25717.81
654.85	25687.38
655.00	25876.96
655.14	25553.97
655.29	25607.80
655.43	25886.32
655.57	25476.73
655.72	25507.16
655.86	25649.93
656.01	25270.76
656.15	25397.15
656.30	25242.68
656.44	25362.04
656.58	25317.57
656.73	25312.89
656.87	25149.06
657.01	25593.76
657.16	25104.59
657.30	25413.54
657.45	25348.00
657.59	25301.19
657.73	24952.45
657.88	25149.06
658.02	24851.81
658.16	25303.53
658.31	24907.98
658.45	24924.36
658.60	24760.53
658.74	24884.58
658.88	25179.48
659.03	25172.46
659.17	24819.04
659.31	25282.47
659.46	25270.76
659.60	25036.71
659.74	24889.26
659.89	25139.69
660.03	24870.53
660.17	24809.68
660.32	24753.51
660.46	24519.45
660.60	24472.64
660.74	24601.37
660.89	24528.81
661.03	24421.15
661.17	24643.50
661.32	24416.47
661.46	24542.86
661.60	24482.00
661.74	24547.54
661.89	24891.60
662.03	24821.38
662.17	24589.67
662.31	24341.57
662.46	24257.31
662.60	24699.67
662.74	24144.97
662.88	23885.17
663.03	24159.01
663.17	23927.30
663.31	23672.18
663.45	24102.84
663.60	24013.90
663.74	24065.39
663.88	24180.07
664.02	24142.63
664.17	24201.14
664.31	23798.57
664.45	23810.27
664.59	24182.42
664.73	23840.70
664.88	24016.24
665.02	23269.61
665.16	23562.17
665.30	23796.23
665.44	23580.90
665.59	23690.90
665.73	23494.30
665.87	23304.71
666.01	23459.19
666.15	23396.00
666.29	23770.48
666.44	23580.90
666.58	23328.12
666.72	22869.37
666.86	23440.47
667.00	23653.45
667.14	23150.24
667.28	23232.16
667.43	23248.54
667.57	23117.47
667.71	23028.53
667.85	23138.54
667.99	22808.52
668.13	22841.29
668.27	22948.95
668.41	23112.79
668.56	22902.14
668.70	22977.04
668.84	23131.51
668.98	22759.37
669.12	22843.63
669.26	22750.01
669.40	22813.20
669.54	22705.54
669.68	22499.57
669.82	22412.97
669.96	22384.88
670.10	22480.85
670.25	22480.85
670.39	22171.89
670.53	22309.99
670.67	22506.59
670.81	22403.61
670.95	22539.36
671.09	22305.31
671.23	22455.10
671.37	22256.15
671.51	22132.11
671.65	22616.60
671.79	22134.45
671.93	22260.84
672.07	22101.68
672.21	22324.03
672.35	21977.63
672.49	21825.50
672.63	21827.84
672.77	21553.99
672.91	22190.62
673.05	21935.50
673.19	21996.35
673.33	21553.99
673.47	21605.49
673.61	21385.47
673.75	21455.69
673.89	21542.29
674.03	21614.85
674.17	21240.36
674.31	21497.82
674.45	21380.79
674.59	21411.22
674.73	21219.30
674.87	21443.99
675.01	21399.52
675.15	21144.40
675.29	21158.44
675.43	21060.14
675.56	20945.45
675.70	21032.05
675.84	20807.36
675.98	20442.24
676.12	21137.38
676.26	20947.79
676.40	20554.58
676.54	20893.96
676.68	20744.17
676.82	20386.07
676.96	20570.97
677.10	20538.20
677.23	20350.96
677.37	20137.97
677.51	20250.32
677.65	20245.63
677.79	20210.53
677.93	20105.20
678.07	20086.48
678.21	20016.26
678.34	19822.00
678.48	19585.60
678.62	20037.33
678.76	19742.42
678.90	19679.22
679.04	19634.75
679.18	19571.56
679.31	19630.07
679.45	19470.92
679.59	19138.56
679.73	18995.79
679.87	19412.40
680.00	19302.40
680.14	19037.92
680.28	18946.64
680.42	19042.60
680.56	19089.41
680.70	19419.42
680.83	18941.96
680.97	19021.53
681.11	18874.08
681.25	18906.85
681.39	18878.76
681.52	18696.20
681.66	18941.96
681.80	18515.98
681.94	18501.93
682.07	18501.93
682.21	18209.37
682.35	18092.34
682.49	18499.59
682.62	18113.41
682.76	18068.94
682.90	18104.04
683.04	18258.52
683.17	17991.70
683.31	18008.08
683.45	18022.12
683.59	17975.31
683.72	17937.87
683.86	17937.87
684.00	17736.58
684.13	17657.00
684.27	17521.25
684.41	17504.87
684.55	17200.60
684.68	17245.07
684.82	17193.58
684.96	17081.23
685.09	17205.28
685.23	17095.27
685.37	16903.35
685.50	17057.82
685.64	17006.33
685.78	16992.29
685.91	17415.93
686.05	17097.61
686.19	16924.41
686.32	17092.93
686.46	16826.11
686.60	16599.08
686.73	16835.47
686.87	16435.24
687.01	16730.15
687.14	16264.38
687.28	16294.81
687.42	16156.72
687.55	16133.31
687.69	16187.14
687.82	16053.73
687.96	16145.02
688.10	16128.63
688.23	16091.18
688.37	15997.56
688.50	15829.04
688.64	15974.16
688.78	15681.59
688.91	15730.74
689.05	15744.78
689.18	15939.05
689.32	15517.75
689.46	15524.77
689.59	15599.67
689.73	15428.81
689.86	15339.87
690.00	15096.46
690.13	15330.51
690.27	15314.13
690.41	15021.56
690.54	15035.60
690.68	15330.51
690.81	15304.76
690.95	14909.21
691.08	14913.89
691.22	15054.33
691.35	14995.81
691.49	14853.04
691.62	14787.50
691.76	14822.61
691.89	14759.42
692.03	14434.08
692.16	14230.46
692.30	14544.09
692.43	14485.58
692.57	14099.39
692.70	14178.97
692.84	14345.14
692.97	14232.80
693.11	14026.83
693.24	14204.71
693.38	14265.57
693.51	14167.26
693.65	13996.40
693.78	13900.44
693.92	13987.04
694.05	13818.52
694.19	13680.43
694.32	13788.10
694.45	13680.43
694.59	13458.08
694.72	13378.50
694.86	13284.88
694.99	13390.20
695.13	13298.92
695.26	13004.02
695.39	13263.82
695.53	13448.72
695.66	13158.49
695.80	13015.72
695.93	12999.34
696.07	13048.49
696.20	13011.04
696.33	13025.08
696.47	12833.16
696.60	12788.69
696.73	12889.33
696.87	12758.26
697.00	12662.30
697.14	12538.25
697.27	12472.71
697.40	12430.59
697.54	12465.69
697.67	12278.45
697.80	12332.28
697.94	12219.94
698.07	12189.51
698.21	12011.63
698.34	12060.78
698.47	12219.94
698.61	12365.05
698.74	12224.62
698.87	12152.06
699.01	11960.14
699.14	11815.02
699.27	11899.28
699.40	11880.56
699.54	11719.06
699.67	11819.71
699.80	11417.13
699.94	11784.60
700.07	11576.29
700.20	11365.64
700.34	11562.25
700.47	11534.16
700.60	11569.27
700.73	11489.69
700.87	11328.19
701.00	11103.50
701.13	11117.54
701.26	11260.32
701.40	11150.31
701.53	11126.91
701.66	11044.99
701.79	10923.28
701.93	10799.23
702.06	10883.49
702.19	10689.23
702.32	10780.51
702.46	10382.62
702.59	10574.54
702.72	10377.94
702.85	10466.88
702.99	10541.77
703.12	10471.56
703.25	10340.49
703.38	10300.70
703.51	10321.76
703.65	10342.83
703.78	10429.43
703.91	10054.94
704.04	10317.08
704.17	10129.84
704.31	10031.54
704.44	9958.98
704.57	9977.70
704.70	9921.53
704.83	9774.08
704.96	9764.72
705.10	9488.53
705.23	9713.22
>>>>>End Processed Spectral Data<<<<<
