SpectraSuite Data File
++++++++++++++++++++++++++++++++++++
Date: Fri Oct 18 13:58:17 GMT-05:00 2013
User: bianchi
Dark Spectrum Present: No
Reference Spectrum Present: No
Number of Sampled Component Spectra: 1
Spectrometers: USB2+H05261
Integration Time (usec): 50000 (USB2+H05261)
Spectra Averaged: 1 (USB2+H05261)
Boxcar Smoothing: 0 (USB2+H05261)
Correct for Electrical Dark: No (USB2+H05261)
Strobe/Lamp Enabled: No (USB2+H05261)
Correct for Detector Non-linearity: No (USB2+H05261)
Correct for Stray Light: No (USB2+H05261)
Number of Pixels in Processed Spectrum: 2048
>>>>>Begin Processed Spectral Data<<<<<
365.73	0.00
365.92	0.00
366.12	0.00
366.32	0.00
366.52	0.00
366.72	0.00
366.91	0.00
367.11	0.00
367.31	0.00
367.51	0.00
367.70	0.00
367.90	0.00
368.10	0.00
368.30	0.00
368.49	0.00
368.69	0.00
368.89	0.00
369.09	0.00
369.28	0.00
369.48	0.00
369.68	0.00
369.87	0.00
370.07	0.00
370.27	0.00
370.47	0.00
370.66	117.03
370.86	107.66
371.06	84.26
371.25	191.92
371.45	49.15
371.65	124.05
371.84	163.84
372.04	77.24
372.24	117.03
372.44	194.26
372.63	227.03
372.83	278.52
373.03	229.37
373.22	180.22
373.42	229.37
373.62	262.14
373.81	205.97
374.01	269.16
374.21	201.29
374.40	330.02
374.60	208.31
374.79	297.25
374.99	205.97
375.19	257.46
375.38	215.33
375.58	278.52
375.78	355.76
375.97	248.10
376.17	355.76
376.37	276.18
376.56	285.55
376.76	250.44
376.95	231.71
377.15	315.97
377.35	273.84
377.54	243.42
377.74	224.69
377.93	222.35
378.13	266.82
378.33	322.99
378.52	299.59
378.72	292.57
378.91	283.20
379.11	276.18
379.31	304.27
379.50	294.91
379.70	344.06
379.89	290.23
380.09	245.76
380.28	264.48
380.48	339.38
380.68	203.63
380.87	320.65
381.07	283.20
381.26	292.57
381.46	306.61
381.65	311.29
381.85	325.33
382.04	325.33
382.24	262.14
382.43	266.82
382.63	325.33
382.83	306.61
383.02	358.10
383.22	435.34
383.41	304.27
383.61	299.59
383.80	372.15
384.00	355.76
384.19	367.46
384.39	372.15
384.58	330.02
384.78	351.08
384.97	449.38
385.17	435.34
385.36	374.49
385.56	341.72
385.75	433.00
385.95	456.40
386.14	339.38
386.34	381.51
386.53	351.08
386.72	365.12
386.92	433.00
387.11	440.02
387.31	423.64
387.50	344.06
387.70	435.34
387.89	423.64
388.09	388.53
388.28	454.06
388.48	433.00
388.67	449.38
388.86	393.21
389.06	360.44
389.25	538.32
389.45	472.79
389.64	456.40
389.84	535.98
390.03	540.66
390.22	458.74
390.42	465.77
390.61	463.43
390.81	496.19
391.00	454.06
391.19	503.22
391.39	575.77
391.58	484.49
391.78	526.62
391.97	533.64
392.16	484.49
392.36	561.73
392.55	550.03
392.75	557.05
392.94	482.15
393.13	477.47
393.33	535.98
393.52	645.99
393.71	592.16
393.91	568.75
394.10	568.75
394.29	538.32
394.49	585.13
394.68	615.56
394.88	603.86
395.07	575.77
395.26	681.10
395.46	660.03
395.65	685.78
395.84	622.58
396.04	645.99
396.23	702.16
396.42	676.41
396.62	517.26
396.81	657.69
397.00	585.13
397.19	653.01
397.39	648.33
397.58	610.88
397.77	688.12
397.97	690.46
398.16	688.12
398.35	683.44
398.55	638.97
398.74	624.92
398.93	732.59
399.12	767.70
399.32	711.52
399.51	706.84
399.70	741.95
399.90	711.52
400.09	816.85
400.28	767.70
400.47	779.40
400.67	786.42
400.86	744.29
401.05	868.34
401.24	816.85
401.44	826.21
401.63	835.57
401.82	805.14
402.01	774.72
402.21	837.91
402.40	802.80
402.59	828.55
402.78	835.57
402.97	781.74
403.17	835.57
403.36	844.93
403.55	915.15
403.74	856.64
403.93	968.98
404.13	887.06
404.32	924.51
404.51	884.72
404.70	947.92
404.89	896.43
405.09	926.85
405.28	1011.11
405.47	936.21
405.66	992.39
405.85	968.98
406.05	1029.84
406.24	1071.97
406.43	1006.43
406.62	1076.65
406.81	1107.07
407.00	987.71
407.20	954.94
407.39	1062.60
407.58	1053.24
407.77	1008.77
407.96	1027.50
408.15	1071.97
408.34	1093.03
408.54	1109.41
408.73	1109.41
408.92	1062.60
409.11	1093.03
409.30	1235.80
409.49	1053.24
409.68	1104.73
409.87	1181.97
410.07	1132.82
410.26	1214.74
410.45	1196.01
410.64	1198.35
410.83	1256.87
411.02	1212.40
411.21	1198.35
411.40	1221.76
411.59	1217.08
411.78	1273.25
411.98	1160.91
412.17	1235.80
412.36	1233.46
412.55	1207.72
412.74	1427.73
412.93	1336.45
413.12	1378.58
413.31	1420.71
413.50	1371.55
413.69	1394.96
413.88	1483.90
414.07	1530.71
414.26	1474.54
414.45	1441.77
414.64	1514.33
414.83	1497.94
415.02	1474.54
415.22	1430.07
415.41	1537.73
415.60	1540.07
415.79	1521.35
415.98	1523.69
416.17	1675.82
416.36	1652.42
416.55	1678.16
416.74	1621.99
416.93	1689.87
417.12	1720.29
417.31	1713.27
417.50	1582.20
417.69	1776.47
417.88	1778.81
418.07	1696.89
418.26	1694.55
418.45	1872.43
418.64	1891.15
418.83	1790.51
419.02	1795.19
419.21	1870.09
419.39	1914.56
419.58	1783.49
419.77	1849.02
419.96	1834.98
420.15	1900.52
420.34	1767.10
420.53	1748.38
420.72	1966.05
420.91	1881.79
421.10	2052.65
421.29	1989.46
421.48	1799.87
421.67	1984.77
421.86	1966.05
422.05	1916.90
422.24	1947.33
422.43	1891.15
422.61	1853.70
422.80	1966.05
422.99	2010.52
423.18	2057.33
423.37	2069.03
423.56	1998.82
423.75	2047.97
423.94	2012.86
424.13	1898.17
424.32	2003.50
424.50	1975.41
424.69	2054.99
424.88	1963.71
425.07	1935.62
425.26	2059.67
425.45	2104.14
425.64	2066.69
425.83	1996.48
426.01	2186.06
426.20	1987.11
426.39	2038.61
426.58	2094.78
426.77	2026.90
426.96	1973.07
427.15	2162.66
427.33	2059.67
427.52	2090.10
427.71	2036.27
427.90	2176.70
428.09	2062.01
428.28	2155.63
428.46	2076.06
428.65	2221.17
428.84	2230.53
429.03	2132.23
429.22	2256.28
429.40	2202.44
429.59	2202.44
429.78	2071.37
429.97	2200.10
430.16	2167.34
430.34	2296.07
430.53	2286.70
430.72	2293.72
430.91	2272.66
431.10	2235.21
431.28	2377.98
431.47	2331.17
431.66	2464.58
431.85	2282.02
432.03	2445.86
432.22	2551.18
432.41	2457.56
432.60	2495.01
432.79	2368.62
432.97	2562.89
433.16	2392.03
433.35	2286.70
433.54	2445.86
433.72	2443.52
433.91	2534.80
434.10	2471.61
434.28	2464.58
434.47	2485.65
434.66	2509.05
434.85	2548.84
435.03	2614.38
435.22	2651.83
435.41	2548.84
435.59	2635.44
435.78	2700.98
435.97	2686.94
436.16	2562.89
436.34	2644.81
436.53	2710.34
436.72	2677.57
436.90	2630.76
437.09	2768.85
437.28	2759.49
437.46	2691.62
437.65	2703.32
437.84	2803.96
438.02	2752.47
438.21	2733.75
438.40	2686.94
438.58	2853.11
438.77	2857.79
438.96	2843.75
439.14	2993.55
439.33	3019.29
439.52	2995.89
439.70	2998.23
439.89	2911.63
440.08	3052.06
440.26	2923.33
440.45	3040.36
440.63	2988.86
440.82	3141.00
441.01	3016.95
441.19	3253.34
441.38	3211.22
441.57	3339.94
441.75	3162.06
441.94	3236.96
442.12	3187.81
442.31	3241.64
442.50	3346.97
442.68	3206.53
442.87	3297.81
443.05	3433.57
443.24	3316.54
443.43	3417.18
443.61	3492.08
443.80	3557.61
443.98	3361.01
444.17	3335.26
444.35	3386.76
444.54	3459.31
444.73	3400.80
444.91	3487.40
445.10	3358.67
445.28	3445.27
445.47	3473.36
445.65	3431.23
445.84	3468.67
446.02	3529.53
446.21	3463.99
446.39	3438.25
446.58	3552.93
446.77	3550.59
446.95	3466.33
447.14	3461.65
447.32	3501.44
447.51	3410.16
447.69	3445.27
447.88	3557.61
448.06	3534.21
448.25	3606.77
448.43	3597.40
448.62	3508.46
448.80	3447.61
448.99	3480.38
449.17	3684.00
449.36	3555.27
449.54	3688.68
449.73	3646.55
449.91	3887.63
450.10	3789.33
450.28	3733.15
450.46	3658.26
450.65	3705.07
450.83	3803.37
451.02	3737.84
451.20	3723.79
451.39	3829.12
451.57	3796.35
451.76	3721.45
451.94	3967.21
452.13	3875.93
452.31	3798.69
452.49	3845.50
452.68	3889.97
452.86	3939.12
453.05	3962.53
453.23	3875.93
453.42	3889.97
453.60	3815.07
453.78	3981.25
453.97	3946.14
454.15	3892.31
454.34	3894.65
454.52	4018.70
454.70	3899.33
454.89	4021.04
455.07	3957.85
455.26	4147.43
455.44	4140.41
455.62	4072.53
455.81	4205.94
455.99	4210.62
456.17	4208.28
456.36	4210.62
456.54	4175.52
456.73	4198.92
456.91	4402.55
457.09	4259.78
457.28	4182.54
457.46	4222.33
457.64	4416.59
457.83	4496.17
458.01	4252.75
458.19	4259.78
458.38	4458.72
458.56	4440.00
458.74	4400.21
458.93	4500.85
459.11	4472.76
459.29	4484.47
459.48	4341.69
459.66	4404.89
459.84	4505.53
460.03	4566.39
460.21	4613.20
460.39	4601.49
460.57	4594.47
460.76	4594.47
460.94	4697.46
461.12	4676.39
461.31	4723.20
461.49	4564.04
461.67	4500.85
461.85	4816.82
462.04	4692.77
462.22	4830.87
462.40	4660.01
462.59	4800.44
462.77	4683.41
462.95	4723.20
463.13	4662.35
463.32	4840.23
463.50	4903.42
463.68	4713.84
463.86	4795.76
464.05	4842.57
464.23	4819.16
464.41	4966.62
464.59	4847.25
464.78	5069.60
464.96	4931.51
465.14	4938.53
465.32	4933.85
465.50	5193.65
465.69	5050.88
465.87	5057.90
466.05	5193.65
466.23	4891.72
466.41	5273.23
466.60	5130.45
466.78	4950.23
466.96	4875.34
467.14	4819.16
467.32	5116.41
467.51	5125.77
467.69	4917.47
467.87	5139.82
468.05	5097.69
468.23	5170.24
468.41	5130.45
468.60	5081.30
468.78	5273.23
468.96	5289.61
469.14	5313.02
469.32	5345.78
469.50	5343.44
469.69	5451.11
469.87	5322.38
470.05	5526.00
470.23	5345.78
470.41	5397.28
470.59	5425.36
470.77	5437.06
470.95	5495.58
471.14	5731.97
471.32	5371.53
471.50	5488.56
471.68	5640.69
471.86	5652.39
472.04	5650.05
472.22	5628.99
472.40	5591.54
472.58	5813.89
472.77	5776.44
472.95	5834.96
473.13	5860.70
473.31	5989.43
473.49	5788.14
473.67	5898.15
473.85	5877.09
474.03	6043.26
474.21	6059.65
474.39	5982.41
474.57	6118.16
474.75	6061.99
474.93	6101.78
475.12	6171.99
475.30	6214.12
475.48	6080.71
475.66	6111.14
475.84	6319.45
476.02	6396.68
476.20	6331.15
476.38	6436.47
476.56	6623.72
476.74	6494.99
476.92	6429.45
477.10	6520.73
477.28	6614.35
477.46	6640.10
477.64	6747.76
477.82	6801.60
478.00	6956.07
478.18	6918.62
478.36	7115.23
478.54	6967.77
478.72	7035.65
478.90	7185.44
479.08	7108.21
479.26	7272.04
479.44	7150.34
479.62	7365.67
479.80	7398.43
479.98	7300.13
480.16	7496.74
480.34	7204.17
480.52	7749.51
480.70	7620.78
480.88	7674.62
481.06	7761.22
481.24	7590.36
481.41	7744.83
481.59	7712.07
481.77	7948.46
481.95	8030.38
482.13	8006.97
482.31	8098.25
482.49	8280.82
482.67	8318.26
482.85	8283.16
483.03	8678.71
483.21	8531.25
483.39	8519.55
483.57	8688.07
483.74	8781.69
483.92	8706.79
484.10	8709.13
484.28	8887.01
484.46	8961.91
484.64	9149.15
484.82	9050.85
485.00	9006.38
485.18	9408.95
485.35	9474.49
485.53	9495.55
485.71	9348.10
485.89	9708.54
486.07	9451.08
486.25	9619.60
486.43	9811.53
486.61	9542.36
486.78	9968.34
486.96	9937.91
487.14	10061.96
487.32	9867.70
487.50	10115.80
487.68	10298.36
487.85	10253.89
488.03	10394.32
488.21	10459.85
488.39	10434.11
488.57	10623.69
488.75	10853.06
488.92	10724.33
489.10	10834.34
489.28	10642.42
489.46	11014.56
489.64	11143.29
489.81	11227.55
489.99	11307.13
490.17	11377.34
490.35	11611.40
490.53	11456.92
490.70	11426.50
490.88	11545.86
491.06	12006.95
491.24	12013.97
491.41	11679.27
491.59	12194.19
491.77	11918.01
491.95	11992.90
492.13	12233.98
492.30	12233.98
492.48	12381.43
492.66	12404.84
492.84	12589.74
493.01	12278.45
493.19	12461.01
493.37	12980.61
493.54	12769.96
493.72	12812.09
493.90	12917.42
494.08	13085.94
494.25	13158.49
494.43	13268.50
494.61	13179.56
494.79	13336.37
494.96	13371.48
495.14	13268.50
495.32	13378.50
495.49	13635.96
495.67	13809.16
495.85	13586.81
496.02	13675.75
496.20	14024.49
496.38	13935.55
496.55	13942.57
496.73	14286.63
496.91	14148.54
497.09	14401.32
497.26	14616.65
497.44	14260.88
497.62	14171.94
497.79	14628.35
497.97	14579.20
498.14	14616.65
498.32	14878.79
498.50	14946.66
498.67	14897.51
498.85	14808.57
499.03	14857.72
499.20	14925.60
499.38	14911.55
499.56	15169.01
499.73	15164.33
499.91	15042.62
500.08	15508.39
500.26	15119.86
500.44	15272.00
500.61	15538.82
500.79	15522.43
500.97	15499.03
501.14	15922.66
501.32	15913.30
501.49	15899.26
501.67	15948.41
501.84	15594.99
502.02	16065.44
502.20	16020.97
502.37	16013.95
502.55	16365.03
502.72	16032.67
502.90	16304.17
503.07	16051.39
503.25	16198.85
503.43	16325.24
503.60	16549.93
503.78	16549.93
503.95	16627.17
504.13	16510.14
504.30	16512.48
504.48	16641.21
504.65	16739.51
504.83	16695.04
505.01	17153.79
505.18	17212.30
505.36	17048.46
505.53	16760.58
505.71	17062.51
505.88	17132.72
506.06	17043.78
506.23	17172.51
506.41	17341.03
506.58	17390.18
506.76	17568.06
506.93	17734.24
507.11	17572.74
507.28	17575.08
507.46	17387.84
507.63	17696.79
507.81	17785.73
507.98	17785.73
508.16	17879.35
508.33	17980.00
508.50	18090.00
508.68	17958.93
508.85	18211.71
509.03	18068.94
509.20	18073.62
509.38	18494.91
509.55	18480.87
509.73	18448.10
509.90	18310.01
510.08	18464.49
510.25	18417.68
510.42	18410.65
510.60	18445.76
510.77	18883.44
510.95	18761.73
511.12	18623.64
511.30	18855.36
511.47	18878.76
511.64	18707.90
511.82	19318.78
511.99	18731.31
512.17	19424.11
512.34	18925.57
512.51	18979.40
512.69	18930.25
512.86	19239.20
513.04	19475.60
513.21	19365.59
513.38	19639.44
513.56	19571.56
513.73	19066.00
513.90	19503.68
514.08	19735.40
514.25	19611.35
514.43	19782.21
514.60	19847.74
514.77	19934.34
514.95	19772.85
515.12	19637.09
515.29	20243.29
515.47	20301.81
515.64	20130.95
515.81	20271.38
515.99	20280.74
516.16	20297.13
516.33	20395.43
516.51	20114.56
516.68	20208.19
516.85	20201.16
517.03	20416.49
517.20	20589.69
517.37	20276.06
517.54	20563.95
517.72	20526.50
517.89	20425.86
518.06	20861.19
518.24	20627.14
518.41	20819.07
518.58	20704.38
518.75	20753.53
518.93	21090.57
519.10	20954.82
519.27	20912.69
519.45	20814.38
519.62	21085.89
519.79	21219.30
519.96	21277.81
520.14	21479.10
520.31	21221.64
520.48	21415.90
520.65	21343.35
520.83	21376.11
521.00	21699.11
521.17	21317.60
521.34	21530.59
521.52	21186.53
521.69	21460.37
521.86	21497.82
522.03	21652.30
522.20	21994.01
522.38	21916.78
522.55	22141.47
522.72	21830.18
522.89	21729.53
523.07	22122.74
523.24	21865.28
523.41	21994.01
523.58	21884.01
523.75	22274.88
523.92	21998.70
524.10	21867.63
524.27	22686.81
524.44	22445.74
524.61	22436.38
524.78	22436.38
524.96	22766.39
525.13	22520.63
525.30	22471.48
525.47	22394.25
525.64	22895.12
525.81	22691.49
525.98	22829.59
526.16	22834.27
526.33	22668.09
526.50	23044.91
526.67	22658.73
526.84	22923.21
527.01	22820.22
527.18	23410.04
527.36	22918.53
527.53	23250.88
527.70	23122.15
527.87	23421.74
528.04	23227.48
528.21	23403.02
528.38	23044.91
528.55	23442.81
528.72	23398.34
528.89	23508.34
529.07	23721.33
529.24	23407.70
529.41	23807.93
529.58	23484.94
529.75	23482.59
529.92	23501.32
530.09	23784.52
530.26	23791.55
530.43	24116.88
530.60	23681.54
530.77	23754.10
530.94	23845.38
531.11	23754.10
531.28	23655.79
531.46	23927.30
531.63	24325.19
531.80	24041.98
531.97	24217.52
532.14	24451.58
532.31	23948.36
532.48	24084.11
532.65	24046.66
532.82	23997.51
532.99	24269.01
533.16	24114.54
533.33	24755.85
533.50	24650.52
533.67	24589.67
533.84	24704.35
534.01	24121.56
534.18	24507.75
534.35	25013.31
534.52	24711.38
534.69	24851.81
534.86	24898.62
535.03	24538.18
535.20	24589.67
535.37	24533.50
535.54	25153.74
535.71	24517.11
535.88	24912.66
536.05	24692.65
536.22	24723.08
536.38	25057.78
536.55	25055.43
536.72	25144.38
536.89	24996.92
537.06	25111.61
537.23	25226.29
537.40	24687.97
537.57	24989.90
537.74	25029.69
537.91	25092.88
538.08	25294.17
538.25	25411.20
538.42	25383.11
538.59	25556.31
538.75	25139.69
538.92	25556.31
539.09	25404.17
539.26	25652.27
539.43	25511.84
539.60	25352.68
539.77	25706.10
539.94	25827.81
540.11	25979.95
540.28	25385.45
540.44	25663.97
540.61	26101.65
540.78	25261.40
540.95	25781.00
541.12	26113.36
541.29	25975.27
541.46	25827.81
541.62	25617.16
541.79	25731.85
541.96	25589.08
542.13	25865.26
542.30	26199.96
542.47	26284.22
542.63	26354.43
542.80	26209.32
542.97	26228.04
543.14	26281.88
543.31	26441.03
543.48	26223.36
543.64	26518.27
543.81	26485.50
543.98	26434.01
544.15	26328.69
544.32	26981.70
544.48	26541.68
544.65	26438.69
544.82	26178.89
544.99	26607.21
545.16	26618.91
545.32	26665.72
545.49	26906.80
545.66	26881.05
545.83	26958.29
546.00	27117.45
546.16	27328.10
546.33	26874.03
546.50	26398.90
546.67	27131.49
546.83	26820.20
547.00	26689.13
547.17	26913.82
547.34	27161.92
547.50	27058.93
547.67	27449.80
547.84	27225.11
548.00	27461.51
548.17	27517.68
548.34	27562.15
548.51	27250.86
548.67	27695.56
548.84	27658.11
549.01	26965.31
549.18	27302.35
549.34	27248.52
549.51	27321.07
549.68	27332.78
549.84	27267.24
550.01	27693.22
550.18	27543.42
550.34	28067.70
550.51	27655.77
550.68	27552.79
550.84	27314.05
551.01	27763.43
551.18	27236.81
551.34	27557.47
551.51	27709.60
551.68	27756.41
551.84	27669.81
552.01	27651.09
552.18	27688.54
552.34	27852.38
552.51	27814.93
552.68	27770.46
552.84	27655.77
553.01	28339.21
553.18	27969.40
553.34	28112.17
553.51	28161.33
553.67	28439.85
553.84	28154.30
554.01	27784.50
554.17	27955.36
554.34	28067.70
554.51	27992.81
554.67	28371.97
554.84	27934.29
555.00	27990.47
555.17	27779.82
555.33	28177.71
555.50	28254.95
555.67	28526.45
555.83	28222.18
556.00	28765.18
556.16	28676.24
556.33	28011.53
556.50	28250.27
556.66	28442.19
556.83	28395.38
556.99	28547.51
557.16	28505.38
557.32	28568.58
557.49	28723.05
557.65	28367.29
557.82	28196.43
557.98	28636.45
558.15	28390.70
558.32	28636.45
558.48	28687.95
558.65	28964.13
558.81	28884.55
558.98	28959.45
559.14	28648.16
559.31	28664.54
559.47	28465.60
559.64	28896.25
559.80	28938.38
559.97	28718.37
560.13	28854.12
560.30	28849.44
560.46	28751.14
560.63	28591.98
560.79	28893.91
560.96	29125.63
561.12	29010.94
561.29	28907.96
561.45	28629.43
561.61	28795.61
561.78	29198.18
561.94	29163.08
562.11	28748.80
562.27	28797.95
562.44	28868.17
562.60	28978.17
562.77	29275.42
562.93	29078.82
563.10	29179.46
563.26	29034.35
563.42	29605.44
563.59	29167.76
563.75	28889.23
563.92	29163.08
564.08	28800.29
564.24	29039.03
564.41	29097.54
564.57	29252.02
564.74	29104.56
564.90	28971.15
565.07	29549.26
565.23	29294.14
565.39	29556.28
565.56	29457.98
565.72	29207.55
565.88	29233.29
566.05	29188.82
566.21	29212.23
566.38	29565.65
566.54	29240.31
566.70	29397.13
566.87	29453.30
567.03	29373.72
567.19	29820.77
567.36	29383.09
567.52	29347.98
567.68	29692.04
567.85	29247.33
568.01	29432.24
568.17	29174.78
568.34	29212.23
568.50	29734.17
568.66	29717.78
568.83	29422.87
568.99	29546.92
569.15	29392.45
569.32	29603.10
569.48	29600.76
569.64	30075.88
569.81	29280.10
569.97	29434.58
570.13	29703.74
570.30	29518.84
570.46	29600.76
570.62	30040.78
570.78	29439.26
570.95	29677.99
571.11	29572.67
571.27	29715.44
571.43	29612.46
571.60	29715.44
571.76	29820.77
571.92	29743.53
572.09	29942.47
572.25	29935.45
572.41	29638.20
572.57	29422.87
572.74	29696.72
572.90	29626.50
573.06	29734.17
573.22	29570.33
573.38	29605.44
573.55	29558.63
573.71	30153.12
573.87	29916.73
574.03	29567.99
574.20	29579.69
574.36	29673.31
574.52	30052.48
574.68	29937.79
574.84	29839.49
575.01	29886.30
575.17	29673.31
575.33	29530.54
575.49	29876.94
575.65	29865.24
575.82	29895.66
575.98	29500.11
576.14	29996.31
576.30	29729.48
576.46	29596.07
576.62	29699.06
576.79	29989.28
576.95	29947.15
577.11	29642.88
577.27	29565.65
577.43	30033.75
577.59	29956.52
577.75	29993.97
577.92	29898.00
578.08	29816.08
578.24	29795.02
578.40	29860.55
578.56	29682.67
578.72	29928.43
578.88	29827.79
579.04	30061.84
579.21	29940.13
579.37	30064.18
579.53	29993.97
579.69	29495.43
579.85	29486.07
580.01	29624.16
580.17	29298.83
580.33	29844.17
580.49	30075.88
580.65	29944.81
580.82	30197.59
580.98	30071.20
581.14	30026.73
581.30	30211.64
581.46	30218.66
581.62	30190.57
581.78	29537.56
581.94	29788.00
582.10	29680.33
582.26	30279.51
582.42	29977.58
582.58	30192.91
582.74	29998.65
582.90	29553.94
583.06	29961.20
583.22	29677.99
583.38	29921.41
583.54	30061.84
583.70	29720.12
583.86	29755.23
584.02	29837.15
584.18	30003.33
584.34	30148.44
584.50	30588.46
584.66	30457.39
584.82	29788.00
584.98	29991.62
585.14	29745.87
585.30	29818.42
585.46	30115.67
585.62	29673.31
585.78	30185.89
585.94	29972.90
586.10	30380.15
586.26	30125.04
586.42	29858.21
586.58	30391.86
586.74	30022.05
586.90	29898.00
587.06	29825.45
587.22	30026.73
587.38	29696.72
587.54	30249.08
587.70	30225.68
587.86	30443.35
588.02	30216.32
588.18	30223.34
588.34	30415.26
588.49	30277.17
588.65	29851.19
588.81	30082.91
588.97	30026.73
589.13	30026.73
589.29	29795.02
589.45	30302.92
589.61	30527.61
589.77	30478.46
589.93	30204.61
590.08	30742.94
590.24	30148.44
590.40	30295.89
590.56	30331.00
590.72	30164.82
590.88	30492.50
591.04	30536.97
591.20	30415.26
591.35	30789.75
591.51	30740.60
591.67	30319.30
591.83	30480.80
591.99	30553.35
592.15	30871.67
592.31	30251.42
592.46	30050.14
592.62	30654.00
592.78	30349.73
592.94	30415.26
593.10	30499.52
593.26	30338.02
593.41	30429.30
593.57	30646.97
593.73	30382.49
593.89	30436.33
594.05	30546.33
594.20	30391.86
594.36	30642.29
594.52	30242.06
594.68	30443.35
594.84	30445.69
594.99	30749.96
595.15	30274.83
595.31	30958.27
595.47	30707.83
595.62	31028.48
595.78	30429.30
595.94	30272.49
596.10	30698.47
596.25	30253.76
596.41	30230.36
596.57	30331.00
596.73	30518.25
596.88	30663.36
597.04	30740.60
597.20	30895.07
597.36	30829.54
597.51	30609.53
597.67	30974.65
597.83	30295.89
597.99	30443.35
598.14	30515.90
598.30	30501.86
598.46	30408.24
598.61	30632.93
598.77	30569.74
598.93	30630.59
599.09	30579.10
599.24	30848.26
599.40	30546.33
599.56	30874.01
599.71	30132.06
599.87	30668.04
600.03	30682.08
600.18	30408.24
600.34	30429.30
600.50	30480.80
600.65	30764.00
600.81	30663.36
600.97	30693.79
601.12	31000.40
601.28	30740.60
601.44	30871.67
601.59	30689.10
601.75	30974.65
601.91	30890.39
602.06	30881.03
602.22	30218.66
602.37	30398.88
602.53	30136.74
602.69	30630.59
602.84	30799.11
603.00	30902.09
603.16	30588.46
603.31	30944.22
603.47	30663.36
603.62	30466.75
603.78	30857.62
603.94	30623.57
604.09	30185.89
604.25	30595.48
604.40	30644.63
604.56	30675.06
604.71	30951.24
604.87	30735.92
605.03	30483.14
605.18	30705.49
605.34	30745.28
605.49	30794.43
605.65	30555.69
605.80	30588.46
605.96	30649.32
606.12	30445.69
606.27	30726.55
606.43	30441.01
606.58	30866.98
606.74	30831.88
606.89	30480.80
607.05	30455.05
607.20	30724.21
607.36	30649.32
607.51	30733.57
607.67	30635.27
607.82	30373.13
607.98	30403.56
608.13	30560.37
608.29	30398.88
608.44	30244.40
608.60	30499.52
608.75	30979.33
608.91	30441.01
609.06	30082.91
609.22	30419.94
609.37	30120.35
609.53	30033.75
609.68	30646.97
609.84	30122.69
609.99	30078.22
610.15	30223.34
610.30	30099.29
610.46	29949.50
610.61	30087.59
610.76	30338.02
610.92	30623.57
611.07	30300.58
611.23	30590.80
611.38	30293.55
611.54	29888.64
611.69	29886.30
611.84	29795.02
612.00	30127.38
612.15	29989.28
612.31	30450.37
612.46	30108.65
612.62	29986.94
612.77	30340.36
612.92	30312.28
613.08	29888.64
613.23	30160.14
613.39	29940.13
613.54	29780.98
613.69	30384.83
613.85	29759.91
614.00	29795.02
614.15	30263.13
614.31	30309.94
614.46	30263.13
614.62	30087.59
614.77	29993.97
614.92	29954.18
615.08	29890.98
615.23	30057.16
615.38	30178.87
615.54	29905.02
615.69	29954.18
615.84	29837.15
616.00	29989.28
616.15	29963.54
616.30	29848.85
616.46	29701.40
616.61	29748.21
616.76	29942.47
616.92	30012.69
617.07	29780.98
617.22	29811.40
617.37	29729.48
617.53	29947.15
617.68	29776.30
617.83	29589.05
617.99	29633.52
618.14	29483.73
618.29	29975.24
618.45	29397.13
618.60	29525.86
618.75	29663.95
618.90	29317.55
619.06	29888.64
619.21	29633.52
619.36	29249.67
619.51	29586.71
619.67	29186.48
619.82	29434.58
619.97	29490.75
620.12	29797.36
620.28	28896.25
620.43	29621.82
620.58	29788.00
620.73	29530.54
620.89	29558.63
621.04	29694.38
621.19	29640.54
621.34	29546.92
621.49	29350.32
621.65	29013.28
621.80	29488.41
621.95	29102.22
622.10	29076.48
622.25	29043.71
622.41	29404.15
622.56	29111.58
622.71	29280.10
622.86	29406.49
623.01	28924.34
623.16	29088.18
623.32	28940.72
623.47	29567.99
623.62	29376.06
623.77	29010.94
623.92	29249.67
624.07	28931.36
624.23	29158.39
624.38	29104.56
624.53	29296.49
624.68	29488.41
624.83	29345.64
624.98	29160.73
625.13	28797.95
625.29	29017.96
625.44	28879.87
625.59	29048.39
625.74	28526.45
625.89	28999.24
626.04	28879.87
626.19	28662.20
626.34	28811.99
626.49	28879.87
626.65	28627.09
626.80	28769.86
626.95	28952.43
627.10	28624.75
627.25	28664.54
627.40	28865.83
627.55	28463.25
627.70	28673.90
627.85	28687.95
628.00	28334.53
628.15	28552.20
628.30	28507.72
628.45	28587.30
628.60	28166.01
628.76	28765.18
628.91	28491.34
629.06	28575.60
629.21	28636.45
629.36	28217.50
629.51	28474.96
629.66	28353.25
629.81	28030.26
629.96	28573.26
630.11	28229.20
630.26	27955.36
630.41	27906.21
630.56	28379.00
630.71	28217.50
630.86	28423.47
631.01	28290.06
631.16	28173.03
631.31	28194.09
631.46	28166.01
631.61	28243.24
631.76	28554.54
631.91	27850.03
632.06	27850.03
632.21	28114.52
632.36	28184.73
632.51	27744.71
632.66	28044.30
632.81	28114.52
632.96	27957.70
633.10	28287.71
633.25	28189.41
633.40	28182.39
633.55	28023.23
633.70	27889.82
633.85	27971.74
634.00	27899.19
634.15	27983.44
634.30	27807.90
634.45	27885.14
634.60	27690.88
634.75	28006.85
634.90	27733.01
635.05	27730.67
635.19	27957.70
635.34	28065.36
635.49	27962.38
635.64	28168.35
635.79	28240.90
635.94	27770.46
636.09	27889.82
636.24	27838.33
636.39	27489.59
636.53	27812.59
636.68	27744.71
636.83	27587.89
636.98	27494.27
637.13	27363.20
637.28	27332.78
637.43	27646.41
637.57	27459.16
637.72	27615.98
637.87	27314.05
638.02	27669.81
638.17	27510.66
638.32	27332.78
638.46	27033.19
638.61	27283.62
638.76	27133.83
638.91	27400.65
639.06	27070.64
639.20	27763.43
639.35	27587.89
639.50	27304.69
639.65	27730.67
639.80	27468.53
639.94	27353.84
640.09	27480.23
640.24	27222.77
640.39	27077.66
640.54	26848.29
640.68	27402.99
640.83	27035.53
640.98	26794.45
641.13	26700.83
641.27	27154.90
641.42	26808.50
641.57	27356.18
641.72	26962.97
641.86	27080.00
642.01	26574.44
642.16	26941.91
642.31	26639.98
642.45	26932.54
642.60	26635.30
642.75	26394.22
642.90	26749.98
643.04	26749.98
643.19	26923.18
643.34	26471.46
643.48	26906.80
643.63	26803.82
643.78	26869.35
643.93	27077.66
644.07	27197.02
644.22	26913.82
644.37	26539.33
644.51	26628.27
644.66	26808.50
644.81	26635.30
644.95	26438.69
645.10	26759.34
645.25	26731.26
645.39	26417.63
645.54	26555.72
645.69	26520.61
645.83	26628.27
645.98	26363.79
646.13	26618.91
646.27	26625.93
646.42	26394.22
646.57	26855.31
646.71	26204.64
646.86	26267.83
647.00	26176.55
647.15	26462.10
647.30	26340.39
647.44	25881.64
647.59	26307.62
647.74	25919.09
647.88	26373.16
648.03	26630.62
648.17	26600.19
648.32	26387.20
648.47	26309.96
648.61	26120.38
648.76	26455.08
648.90	26490.18
649.05	26267.83
649.20	26473.80
649.34	26410.60
649.49	25956.54
649.63	26141.44
649.78	26085.27
649.92	26054.84
650.07	25841.85
650.21	26246.77
650.36	26099.31
650.51	26118.04
650.65	26508.91
650.80	25837.17
650.94	25963.56
651.09	26108.68
651.23	25891.01
651.38	25961.22
651.52	26094.63
651.67	25825.47
651.81	25893.35
651.96	25862.92
652.10	25975.27
652.25	25804.41
652.39	25898.03
652.54	25909.73
652.68	25638.23
652.83	26015.05
652.97	26235.06
653.12	26178.89
653.26	25413.54
653.41	25556.31
653.55	25703.76
653.70	25385.45
653.84	25542.27
653.99	25638.23
654.13	25556.31
654.27	25795.04
654.42	25720.15
654.56	25577.37
654.71	25858.24
654.85	25846.54
655.00	25722.49
655.14	25893.35
655.29	25741.21
655.43	25659.29
655.57	25514.18
655.72	25315.23
655.86	25469.71
656.01	25401.83
656.15	25345.66
656.30	25343.32
656.44	25067.14
656.58	25366.73
656.73	25287.15
656.87	25469.71
657.01	25495.46
657.16	25366.73
657.30	25418.22
657.45	25186.50
657.59	25310.55
657.73	25439.28
657.88	25432.26
658.02	25378.43
658.16	25144.38
658.31	25123.31
658.45	25200.55
658.60	24769.89
658.74	25376.09
658.88	24893.94
659.03	24985.22
659.17	24664.57
659.31	25205.23
659.46	24950.11
659.60	25039.05
659.74	25109.27
659.89	24819.04
660.03	25003.94
660.17	24905.64
660.32	24554.56
660.46	24655.20
660.60	24533.50
660.74	24673.93
660.89	24678.61
661.03	24299.44
661.17	24556.90
661.32	24416.47
661.46	24769.89
661.60	24652.86
661.74	24599.03
661.89	24599.03
662.03	24765.21
662.17	24423.49
662.31	24505.41
662.46	24116.88
662.60	24025.60
662.74	24283.06
662.88	24177.73
663.03	24315.83
663.17	24189.44
663.31	24074.75
663.45	24238.59
663.60	24276.04
663.74	23992.83
663.88	24079.43
664.02	24030.28
664.17	23936.66
664.31	23730.69
664.45	23777.50
664.59	24116.88
664.73	23910.91
664.88	23807.93
665.02	23674.52
665.16	23704.95
665.30	23931.98
665.44	23679.20
665.59	23585.58
665.73	23234.50
665.87	23208.75
666.01	23454.51
666.15	23426.42
666.29	23740.05
666.44	23496.64
666.58	23761.12
666.72	23557.49
666.86	23672.18
667.00	23630.05
667.14	23047.26
667.28	23054.28
667.43	23154.92
667.57	23253.22
667.71	23262.58
667.85	23098.75
667.99	22981.72
668.13	22881.08
668.27	23042.57
668.41	23321.10
668.56	22759.37
668.70	22888.10
668.84	23154.92
668.98	22794.48
669.12	22574.47
669.26	22644.68
669.40	22735.96
669.54	23047.26
669.68	22588.51
669.82	22527.66
669.96	22750.01
670.10	22438.72
670.25	22270.20
670.39	22576.81
670.53	22558.08
670.67	22354.46
670.81	22249.13
670.95	22600.21
671.09	22625.96
671.23	22462.12
671.37	22618.94
671.51	22412.97
671.65	22375.52
671.79	22478.50
671.93	22068.91
672.07	22286.58
672.21	21963.59
672.35	21886.35
672.49	21970.61
672.63	21778.68
672.77	21565.70
672.91	21715.49
673.05	21781.03
673.19	21439.31
673.33	21392.50
673.47	21809.11
673.61	21668.68
673.75	21671.02
673.89	21633.57
674.03	21596.12
674.17	21465.05
674.31	21174.83
674.45	21364.41
674.59	21504.84
674.73	21542.29
674.87	21350.37
675.01	21067.16
675.15	20751.19
675.29	21053.12
675.43	21048.44
675.56	20922.05
675.70	20751.19
675.84	20891.62
675.98	20563.95
676.12	20903.32
676.26	20779.28
676.40	21120.99
676.54	20933.75
676.68	20561.61
676.82	20439.90
676.96	20561.61
677.10	20161.37
677.23	20147.33
677.37	20355.64
677.51	20217.55
677.65	19777.53
677.79	19798.59
677.93	20046.69
678.07	20245.63
678.21	19934.34
678.34	19990.52
678.48	19639.44
678.62	19903.92
678.76	19676.88
678.90	19356.23
679.04	19917.96
679.18	19543.47
679.31	19253.25
679.45	19241.54
679.59	19276.65
679.73	19131.54
679.87	19208.78
680.00	19344.53
680.14	19049.62
680.28	19105.79
680.42	19248.57
680.56	19211.12
680.70	18677.48
680.83	19204.10
680.97	18970.04
681.11	18644.71
681.25	18853.02
681.39	18523.00
681.52	18918.55
681.66	18356.82
681.80	18317.03
681.94	18637.69
682.07	18391.93
682.21	18267.88
682.35	18434.06
682.49	18295.97
682.62	18246.82
682.76	18335.76
682.90	18478.53
683.04	17884.03
683.17	17998.72
683.31	18211.71
683.45	18008.08
683.59	18003.40
683.72	17877.01
683.86	17675.73
684.00	17956.59
684.13	17862.97
684.27	17591.47
684.41	17380.82
684.55	17305.92
684.68	17202.94
684.82	17027.40
684.96	17376.14
685.09	17298.90
685.23	17284.86
685.37	17207.62
685.50	17095.27
685.64	17254.43
685.78	16968.88
685.91	16865.90
686.05	16884.62
686.19	16769.94
686.32	17249.75
686.46	17261.45
686.60	16772.28
686.73	16774.62
686.87	16400.13
687.01	16358.00
687.14	16727.81
687.28	16477.37
687.42	16325.24
687.55	16264.38
687.69	16290.13
687.82	16067.78
687.96	16107.57
688.10	16093.52
688.23	16039.69
688.37	16137.99
688.50	15992.88
688.64	15960.11
688.78	16009.26
688.91	15850.11
689.05	15864.15
689.18	15641.80
689.32	15398.38
689.46	15529.45
689.59	15545.84
689.73	15747.12
689.86	15098.80
690.00	15260.29
690.13	15377.32
690.27	15087.09
690.41	15508.39
690.54	15089.43
690.68	15349.23
690.81	15063.69
690.95	15178.37
691.08	15021.56
691.22	14736.01
691.35	14834.32
691.49	15019.22
691.62	14677.50
691.76	14588.56
691.89	14523.02
692.03	14490.26
692.16	14497.28
692.30	14420.04
692.43	14516.00
692.57	14225.78
692.70	14551.11
692.84	14178.97
692.97	14326.42
693.11	14270.25
693.24	14136.84
693.38	13982.36
693.51	13893.42
693.65	14036.19
693.78	14141.52
693.92	13823.20
694.05	13762.35
694.19	13731.92
694.32	13547.02
694.45	13692.13
694.59	13334.03
694.72	13385.52
694.86	13551.70
694.99	13282.54
695.13	13408.93
695.26	13142.11
695.39	13004.02
695.53	13317.65
695.66	13193.60
695.80	13020.40
695.93	13142.11
696.07	12917.42
696.20	13083.59
696.33	13343.39
696.47	12929.12
696.60	12933.80
696.73	12872.95
696.87	12664.64
697.00	12737.20
697.14	12468.03
697.27	12393.14
697.40	12629.53
697.54	12201.21
697.67	12381.43
697.80	12255.04
697.94	11999.93
698.07	12231.64
698.21	12208.23
698.34	12475.06
698.47	12351.01
698.61	12201.21
698.74	12152.06
698.87	12173.13
699.01	12002.27
699.14	11772.89
699.27	11803.32
699.40	11962.48
699.54	11742.47
699.67	11346.92
699.80	11548.20
699.94	11489.69
700.07	11541.18
700.20	11517.78
700.34	11323.51
700.47	11349.26
700.60	11234.57
700.73	11466.28
700.87	11229.89
701.00	11218.19
701.13	11293.08
701.26	10902.22
701.40	11250.96
701.53	11143.29
701.66	11260.32
701.79	11220.53
701.93	10885.83
702.06	10509.01
702.19	10684.55
702.32	10834.34
702.46	10871.79
702.59	10377.94
702.72	10501.98
702.85	10506.66
702.99	10368.57
703.12	10359.21
703.25	10256.23
703.38	10462.19
703.51	10267.93
703.65	10342.83
703.78	10319.42
703.91	10108.77
704.04	10298.36
704.17	10083.03
704.31	10132.18
704.44	10134.52
704.57	9928.55
704.70	9724.93
704.83	9671.09
704.96	9853.66
705.10	9724.93
705.23	9624.28
>>>>>End Processed Spectral Data<<<<<
