SpectraSuite Data File
++++++++++++++++++++++++++++++++++++
Date: Fri Oct 18 13:58:00 GMT-05:00 2013
User: bianchi
Dark Spectrum Present: No
Reference Spectrum Present: No
Number of Sampled Component Spectra: 1
Spectrometers: USB2+H05261
Integration Time (usec): 50000 (USB2+H05261)
Spectra Averaged: 1 (USB2+H05261)
Boxcar Smoothing: 0 (USB2+H05261)
Correct for Electrical Dark: No (USB2+H05261)
Strobe/Lamp Enabled: No (USB2+H05261)
Correct for Detector Non-linearity: No (USB2+H05261)
Correct for Stray Light: No (USB2+H05261)
Number of Pixels in Processed Spectrum: 2048
>>>>>Begin Processed Spectral Data<<<<<
365.73	0.00
365.92	0.00
366.12	0.00
366.32	0.00
366.52	0.00
366.72	0.00
366.91	0.00
367.11	0.00
367.31	0.00
367.51	0.00
367.70	0.00
367.90	0.00
368.10	0.00
368.30	0.00
368.49	0.00
368.69	0.00
368.89	0.00
369.09	0.00
369.28	0.00
369.48	0.00
369.68	0.00
369.87	0.00
370.07	0.00
370.27	0.00
370.47	0.00
370.66	4.68
370.86	88.94
371.06	182.56
371.25	152.13
371.45	65.54
371.65	110.01
371.84	72.56
372.04	147.45
372.24	201.29
372.44	229.37
372.63	163.84
372.83	117.03
373.03	241.08
373.22	196.60
373.42	217.67
373.62	252.78
373.81	292.57
374.01	222.35
374.21	259.80
374.40	222.35
374.60	210.65
374.79	205.97
374.99	184.90
375.19	196.60
375.38	201.29
375.58	255.12
375.78	245.76
375.97	271.50
376.17	222.35
376.37	241.08
376.56	280.86
376.76	252.78
376.95	273.84
377.15	241.08
377.35	276.18
377.54	236.39
377.74	217.67
377.93	297.25
378.13	339.38
378.33	273.84
378.52	273.84
378.72	327.68
378.91	332.36
379.11	346.40
379.31	306.61
379.50	238.73
379.70	290.23
379.89	330.02
380.09	283.20
380.28	369.80
380.48	311.29
380.68	320.65
380.87	297.25
381.07	306.61
381.26	297.25
381.46	257.46
381.65	269.16
381.85	320.65
382.04	287.89
382.24	383.85
382.43	374.49
382.63	393.21
382.83	339.38
383.02	344.06
383.22	318.31
383.41	311.29
383.61	320.65
383.80	344.06
384.00	390.87
384.19	386.19
384.39	320.65
384.58	355.76
384.78	306.61
384.97	318.31
385.17	360.44
385.36	395.55
385.56	374.49
385.75	451.72
385.95	358.10
386.14	344.06
386.34	400.23
386.53	393.21
386.72	381.51
386.92	379.17
387.11	386.19
387.31	416.62
387.50	437.68
387.70	465.77
387.89	433.00
388.09	369.80
388.28	372.15
388.48	435.34
388.67	442.36
388.86	437.68
389.06	435.34
389.25	477.47
389.45	425.98
389.64	433.00
389.84	479.81
390.03	489.17
390.22	477.47
390.42	496.19
390.61	449.38
390.81	449.38
391.00	554.71
391.19	519.60
391.39	568.75
391.58	458.74
391.78	547.69
391.97	498.53
392.16	463.43
392.36	498.53
392.55	517.26
392.75	507.90
392.94	545.34
393.13	554.71
393.33	540.66
393.52	575.77
393.71	594.50
393.91	601.52
394.10	524.28
394.29	620.24
394.49	498.53
394.68	645.99
394.88	655.35
395.07	582.79
395.26	587.47
395.46	678.76
395.65	613.22
395.84	697.48
396.04	655.35
396.23	566.41
396.42	608.54
396.62	723.23
396.81	664.71
397.00	645.99
397.19	699.82
397.39	655.35
397.58	653.01
397.77	641.31
397.97	739.61
398.16	669.39
398.35	723.23
398.55	624.92
398.74	692.80
398.93	697.48
399.12	653.01
399.32	748.97
399.51	730.25
399.70	699.82
399.90	704.50
400.09	765.36
400.28	805.14
400.47	779.40
400.67	767.70
400.86	802.80
401.05	828.55
401.24	795.78
401.44	697.48
401.63	805.14
401.82	770.04
402.01	791.10
402.21	826.21
402.40	774.72
402.59	781.74
402.78	748.97
402.97	835.57
403.17	910.47
403.36	873.02
403.55	877.70
403.74	910.47
403.93	884.72
404.13	842.59
404.32	896.43
404.51	880.04
404.70	849.61
404.89	940.90
405.09	968.98
405.28	945.58
405.47	917.49
405.66	973.66
405.85	980.68
406.05	1048.56
406.24	1034.52
406.43	1018.13
406.62	1013.45
406.81	1083.67
407.00	1036.86
407.20	1029.84
407.39	1025.15
407.58	973.66
407.77	1032.18
407.96	1090.69
408.15	987.71
408.34	1100.05
408.54	1071.97
408.73	1144.52
408.92	1144.52
409.11	1188.99
409.30	1114.10
409.49	1135.16
409.68	1107.07
409.87	1172.61
410.07	1226.44
410.26	1139.84
410.45	1139.84
410.64	1188.99
410.83	1177.29
411.02	1198.35
411.21	1224.10
411.40	1205.38
411.59	1226.44
411.78	1226.44
411.98	1217.08
412.17	1303.68
412.36	1231.12
412.55	1320.06
412.74	1238.14
412.93	1376.24
413.12	1247.51
413.31	1420.71
413.50	1275.59
413.69	1289.64
413.88	1369.21
414.07	1434.75
414.26	1500.28
414.45	1432.41
414.64	1432.41
414.83	1549.43
415.02	1577.52
415.22	1600.93
415.41	1682.85
415.60	1582.20
415.79	1570.50
415.98	1544.75
416.17	1666.46
416.36	1570.50
416.55	1652.42
416.74	1743.70
416.93	1598.59
417.12	1629.01
417.31	1724.97
417.50	1647.74
417.69	1755.40
417.88	1762.42
418.07	1774.13
418.26	1830.30
418.45	1764.76
418.64	1834.98
418.83	1837.32
419.02	1781.15
419.21	1689.87
419.39	1851.36
419.58	1792.85
419.77	1797.53
419.96	1785.83
420.15	1870.09
420.34	1907.54
420.53	1846.68
420.72	1839.66
420.91	1952.01
421.10	1919.24
421.29	1937.96
421.48	1853.70
421.67	2085.42
421.86	2024.56
422.05	1949.67
422.24	1966.05
422.43	1935.62
422.61	1961.37
422.80	1998.82
422.99	1973.07
423.18	2036.27
423.37	2003.50
423.56	2069.03
423.75	2026.90
423.94	2003.50
424.13	1886.47
424.32	1994.14
424.50	2141.59
424.69	2069.03
424.88	2106.48
425.07	2113.50
425.26	1989.46
425.45	2179.04
425.64	1991.80
425.83	2033.93
426.01	2120.53
426.20	2235.21
426.39	2012.86
426.58	1963.71
426.77	2176.70
426.96	1977.75
427.15	2179.04
427.33	2174.36
427.52	2118.18
427.71	2209.47
427.90	2174.36
428.09	2256.28
428.28	2172.02
428.46	2181.38
428.65	2188.40
428.84	2246.91
429.03	2242.23
429.22	2211.81
429.40	2197.76
429.59	2235.21
429.78	2139.25
429.97	2113.50
430.16	2162.66
430.34	2321.81
430.53	2406.07
430.72	2527.78
430.91	2179.04
431.10	2286.70
431.28	2291.38
431.47	2359.26
431.66	2382.67
431.85	2417.77
432.03	2443.52
432.22	2516.08
432.41	2478.63
432.60	2534.80
432.79	2476.29
432.97	2480.97
433.16	2392.03
433.35	2527.78
433.54	2509.05
433.72	2487.99
433.91	2553.52
434.10	2612.04
434.28	2516.08
434.47	2537.14
434.66	2509.05
434.85	2583.95
435.03	2677.57
435.22	2574.59
435.41	2602.68
435.59	2513.74
435.78	2670.55
435.97	2708.00
436.16	2799.28
436.34	2623.74
436.53	2747.79
436.72	2878.86
436.90	2677.57
437.09	2759.49
437.28	2677.57
437.46	2708.00
437.65	2869.50
437.84	2787.58
438.02	2796.94
438.21	2813.32
438.40	2874.18
438.58	2850.77
438.77	3026.31
438.96	2953.76
439.14	2993.55
439.33	3014.61
439.52	3019.29
439.70	2981.84
439.89	3073.12
440.08	3012.27
440.26	3136.32
440.45	3014.61
440.63	3082.49
440.82	3178.45
441.01	2911.63
441.19	3178.45
441.38	3194.83
441.57	3211.22
441.75	3307.18
441.94	3234.62
442.12	3300.16
442.31	3342.28
442.50	3311.86
442.68	3330.58
442.87	3267.39
443.05	3398.46
443.24	3363.35
443.43	3318.88
443.61	3255.69
443.80	3552.93
443.98	3339.94
444.17	3302.50
444.35	3389.10
444.54	3363.35
444.73	3400.80
444.91	3337.60
445.10	3353.99
445.28	3417.18
445.47	3332.92
445.65	3496.76
445.84	3471.01
446.02	3489.74
446.21	3454.63
446.39	3393.78
446.58	3702.73
446.77	3442.93
446.95	3520.17
447.14	3431.23
447.32	3571.66
447.51	3330.58
447.69	3513.14
447.88	3459.31
448.06	3574.00
448.25	3478.04
448.43	3599.74
448.62	3606.77
448.80	3602.08
448.99	3604.42
449.17	3510.80
449.36	3620.81
449.54	3604.42
449.73	3578.68
449.91	3723.79
450.10	3719.11
450.28	3726.13
450.46	3754.22
450.65	3688.68
450.83	3810.39
451.02	3644.21
451.20	3761.24
451.39	3904.01
451.57	3871.25
451.76	3698.05
451.94	3812.73
452.13	3871.25
452.31	3833.80
452.49	3714.43
452.68	3782.31
452.86	3794.01
453.05	4025.72
453.23	3833.80
453.42	3901.67
453.60	3948.48
453.78	3929.76
453.97	3901.67
454.15	3971.89
454.34	3985.93
454.52	4011.68
454.70	4004.66
454.89	4044.45
455.07	4030.40
455.26	4042.11
455.44	4065.51
455.62	4098.28
455.81	4210.62
455.99	4161.47
456.17	4121.68
456.36	4166.15
456.54	4201.26
456.73	4117.00
456.91	4325.31
457.09	4283.18
457.28	4428.29
457.46	4198.92
457.64	4245.73
457.83	4358.08
458.01	4175.52
458.19	4407.23
458.38	4414.25
458.56	4458.72
458.74	4423.61
458.93	4432.97
459.11	4599.15
459.29	4337.01
459.48	4367.44
459.66	4538.30
459.84	4540.64
460.03	4636.60
460.21	4442.34
460.39	4458.72
460.57	4456.38
460.76	4470.42
460.94	4575.75
461.12	4770.01
461.31	4643.62
461.49	4561.70
461.67	4582.77
461.85	4589.79
462.04	4720.86
462.22	5020.45
462.40	4730.22
462.59	4594.47
462.77	4730.22
462.95	4945.55
463.13	4807.46
463.32	4716.18
463.50	4856.61
463.68	4889.38
463.86	4826.18
464.05	4887.04
464.23	4856.61
464.41	4975.98
464.59	4919.81
464.78	5093.01
464.96	4973.64
465.14	4887.04
465.32	5011.09
465.50	5137.48
465.69	4947.89
465.87	4961.94
466.05	4994.70
466.23	5025.13
466.41	4931.51
466.60	5242.80
466.78	5011.09
466.96	5132.79
467.14	5041.51
467.32	5238.12
467.51	5090.67
467.69	5067.26
467.87	5179.61
468.05	5151.52
468.23	5111.73
468.41	5184.29
468.60	5085.98
468.78	5226.42
468.96	5074.28
469.14	5322.38
469.32	5394.93
469.50	5172.58
469.69	5483.88
469.87	5334.08
470.05	5591.54
470.23	5380.89
470.41	5376.21
470.59	5565.79
470.77	5490.90
470.95	5530.69
471.14	5624.31
471.32	5509.62
471.50	5731.97
471.68	5636.01
471.86	5589.20
472.04	5706.23
472.22	5832.62
472.40	5624.31
472.58	5781.12
472.77	5881.77
472.95	5774.10
473.13	6069.01
473.31	5757.72
473.49	5951.98
473.67	5769.42
473.85	6012.84
474.03	6207.10
474.21	5923.90
474.39	6054.97
474.57	5949.64
474.75	6160.29
474.93	6242.21
475.12	6012.84
475.30	6157.95
475.48	5916.87
475.66	6209.44
475.84	6279.66
476.02	6310.08
476.20	6406.05
476.38	6445.84
476.56	6595.63
476.74	6626.06
476.92	6558.18
477.10	6492.65
477.28	6719.68
477.46	6628.40
477.64	6796.92
477.82	6743.08
478.00	7045.01
478.18	7005.22
478.36	7054.37
478.54	7208.85
478.72	7229.91
478.90	7077.78
479.08	7321.20
479.26	7309.49
479.44	7304.81
479.62	7213.53
479.80	7473.33
479.98	7393.75
480.16	7634.83
480.34	7555.25
480.52	7639.51
480.70	7566.95
480.88	7606.74
481.06	7737.81
481.24	7798.66
481.41	7882.92
481.59	8011.65
481.77	8149.75
481.95	8042.08
482.13	8149.75
482.31	8280.82
482.49	8304.22
482.67	8182.51
482.85	8369.76
483.03	8664.66
483.21	8547.64
483.39	8578.06
483.57	8589.77
483.74	8844.88
483.92	8704.45
484.10	8828.50
484.28	8854.25
484.46	8898.72
484.64	9050.85
484.82	9067.24
485.00	9116.39
485.18	9275.54
485.35	9537.68
485.53	9511.94
485.71	9364.48
485.89	9694.50
486.07	9502.58
486.25	9589.17
486.43	9738.97
486.61	9673.43
486.78	9935.57
486.96	10033.88
487.14	10174.31
487.32	10108.77
487.50	10176.65
487.68	10146.22
487.85	10338.15
488.03	10558.16
488.21	10551.14
488.39	10637.73
488.57	10497.30
488.75	10733.70
488.92	10960.73
489.10	10874.13
489.28	11002.86
489.46	10967.75
489.64	11337.56
489.81	11295.43
489.99	11477.99
490.17	11297.77
490.35	11623.10
490.53	11592.67
490.70	11426.50
490.88	11576.29
491.06	11686.29
491.24	11847.79
491.41	11822.05
491.59	11803.32
491.77	12006.95
491.95	12098.23
492.13	12138.02
492.30	12336.96
492.48	12285.47
492.66	12299.52
492.84	12556.97
493.01	12594.42
493.19	12718.47
493.37	12634.21
493.54	12915.08
493.72	12702.09
493.90	13060.19
494.08	13209.98
494.25	13249.77
494.43	13177.22
494.61	13308.29
494.79	13242.75
494.96	13390.20
495.14	13483.83
495.32	13549.36
495.49	13556.38
495.67	13504.89
495.85	13727.24
496.02	13778.73
496.20	13771.71
496.38	14059.60
496.55	13949.59
496.73	14228.12
496.91	14031.51
497.09	14427.06
497.26	14272.59
497.44	14249.18
497.62	14581.54
497.79	14829.63
497.97	14558.13
498.14	14628.35
498.32	15185.40
498.50	14867.08
498.67	15028.58
498.85	14885.81
499.03	15136.24
499.20	14993.47
499.38	15253.27
499.56	15276.68
499.73	15482.64
499.91	15405.41
500.08	15293.06
500.26	15204.12
500.44	15391.36
500.61	15501.37
500.79	15594.99
500.97	15639.46
501.14	15658.18
501.32	15999.90
501.49	15955.43
501.67	15686.27
501.84	15992.88
502.02	15850.11
502.20	16304.17
502.37	16336.94
502.55	16140.33
502.72	16332.26
502.90	16287.79
503.07	16243.32
503.25	16329.92
503.43	16395.45
503.60	16615.46
503.78	16542.91
503.95	16744.19
504.13	16861.22
504.30	16498.44
504.48	16460.99
504.65	16383.75
504.83	17060.16
505.01	16856.54
505.18	17296.56
505.36	16891.65
505.53	16908.03
505.71	17216.98
505.88	17238.05
506.06	17170.17
506.23	17118.68
506.41	17511.89
506.58	17441.67
506.76	17525.93
506.93	17671.04
507.11	17504.87
507.28	17762.33
507.46	17640.62
507.63	17680.41
507.81	18026.81
507.98	17818.50
508.16	17834.88
508.33	17914.46
508.50	17867.65
508.68	17774.03
508.85	17848.93
509.03	18052.55
509.20	18235.11
509.38	18324.05
509.55	18494.91
509.73	18342.78
509.90	18443.42
510.08	18508.96
510.25	18391.93
510.42	18384.91
510.60	18721.95
510.77	18775.78
510.95	18600.24
511.12	18597.90
511.30	18527.68
511.47	18885.78
511.64	19234.52
511.82	18906.85
511.99	18717.26
512.17	19051.96
512.34	19054.30
512.51	19309.42
512.69	19218.14
512.86	19389.00
513.04	19564.54
513.21	19475.60
513.38	19342.19
513.56	19784.55
513.73	19447.51
513.90	19601.99
514.08	19433.47
514.25	19763.48
514.43	19740.08
514.60	19910.94
514.77	19606.67
514.95	20044.35
515.12	19550.49
515.29	20009.24
515.47	19899.23
515.64	20360.32
515.81	20231.59
515.99	20287.76
516.16	20353.30
516.33	20545.22
516.51	20702.04
516.68	20252.66
516.85	20446.92
517.03	20217.55
517.20	20453.94
517.37	20638.84
517.54	20650.55
517.72	20638.84
517.89	20477.35
518.06	20837.79
518.24	20872.90
518.41	20905.66
518.58	20744.17
518.75	20650.55
518.93	21123.33
519.10	21095.25
519.27	21362.07
519.45	21146.74
519.62	20816.72
519.79	20737.15
519.96	21238.02
520.14	21448.67
520.31	21153.76
520.48	21479.10
520.65	21656.98
520.83	21603.14
521.00	21504.84
521.17	21238.02
521.34	21331.64
521.52	21617.19
521.69	21394.84
521.86	21785.71
522.03	21909.75
522.20	21722.51
522.38	22223.39
522.55	21893.37
522.72	21687.40
522.89	22036.14
523.07	22183.60
523.24	22288.92
523.41	22389.56
523.58	22054.87
523.75	22391.91
523.92	22190.62
524.10	22183.60
524.27	22174.24
524.44	22443.40
524.61	22740.64
524.78	22520.63
524.96	22469.14
525.13	22354.46
525.30	22719.58
525.47	22780.43
525.64	22750.01
525.81	22691.49
525.98	22892.78
526.16	22850.65
526.33	22775.75
526.50	22960.66
526.67	22759.37
526.84	23080.02
527.01	22923.21
527.18	23124.49
527.36	23309.40
527.53	23110.45
527.70	23138.54
527.87	22944.27
528.04	23108.11
528.21	23267.27
528.38	23431.10
528.55	23524.72
528.72	23428.76
528.89	23527.06
529.07	23587.92
529.24	23726.01
529.41	23522.38
529.58	23323.44
529.75	23529.41
529.92	23515.36
530.09	23784.52
530.26	23735.37
530.43	24030.28
530.60	23545.79
530.77	23644.09
530.94	23903.89
531.11	24156.67
531.28	23850.06
531.46	23976.45
531.63	24381.36
531.80	24208.16
531.97	24226.89
532.14	24423.49
532.31	24280.72
532.48	24367.32
532.65	24236.25
532.82	23988.15
532.99	24589.67
533.16	24334.55
533.33	24620.10
533.50	24463.28
533.67	24826.06
533.84	24168.37
534.01	24482.00
534.18	24194.12
534.35	24931.39
534.52	24479.66
534.69	24755.85
534.86	24694.99
535.03	24711.38
535.20	24828.40
535.37	24872.87
535.54	24683.29
535.71	24643.50
535.88	25261.40
536.05	24905.64
536.22	24877.55
536.38	25219.27
536.55	25303.53
536.72	25048.41
536.89	24903.30
537.06	24999.26
537.23	24776.91
537.40	24975.86
537.57	24999.26
537.74	24907.98
537.91	25319.92
538.08	25453.33
538.25	25432.26
538.42	25350.34
538.59	25458.01
538.75	25163.10
538.92	25303.53
539.09	25221.61
539.26	25429.92
539.43	25729.51
539.60	25830.15
539.77	25645.25
539.94	25762.28
540.11	25738.87
540.28	25963.56
540.44	25532.90
540.61	25656.95
540.78	25195.87
540.95	25837.17
541.12	25951.86
541.29	25706.10
541.46	25839.51
541.62	25881.64
541.79	26195.28
541.96	25277.79
542.13	25621.84
542.30	26214.00
542.47	26272.51
542.63	26347.41
542.80	26483.16
542.97	26469.12
543.14	26036.12
543.31	26305.28
543.48	26309.96
543.64	26471.46
543.81	26787.43
543.98	26717.22
544.15	26452.73
544.32	26630.62
544.48	26647.00
544.65	26396.56
544.82	26324.01
544.99	26494.86
545.16	26752.32
545.32	26855.31
545.49	26944.25
545.66	27101.06
545.83	27035.53
546.00	26895.10
546.16	26663.38
546.33	27033.19
546.50	26778.07
546.67	27171.28
546.83	26654.02
547.00	26955.95
547.17	27304.69
547.34	27026.17
547.50	27227.45
547.67	26958.29
547.84	27075.32
548.00	27096.38
548.17	27049.57
548.34	27349.16
548.51	27388.95
548.67	27393.63
548.84	27793.86
549.01	27356.18
549.18	27218.09
549.34	27229.79
549.51	27180.64
549.68	27211.07
549.84	27594.92
550.01	27300.01
550.18	27452.14
550.34	27489.59
550.51	28044.30
550.68	27702.58
550.84	27370.22
551.01	27459.16
551.18	27503.64
551.34	27470.87
551.51	27707.26
551.68	27793.86
551.84	27934.29
552.01	27768.12
552.18	27639.39
552.34	27620.66
552.51	27917.91
552.68	28004.51
552.84	27859.40
553.01	27885.14
553.18	28254.95
553.34	28095.79
553.51	27901.53
553.67	28299.42
553.84	28254.95
554.01	28603.69
554.17	28126.22
554.34	28189.41
554.51	28156.64
554.67	28329.84
554.84	28217.50
555.00	28222.18
555.17	27995.15
555.33	28386.02
555.50	28196.43
555.67	28020.89
555.83	28481.98
556.00	28346.23
556.16	28219.84
556.33	28404.74
556.50	28671.56
556.66	28247.93
556.83	28556.88
556.99	28669.22
557.16	28559.22
557.32	28350.91
557.49	28636.45
557.65	28294.74
557.82	28261.97
557.98	28467.94
558.15	28268.99
558.32	28552.20
558.48	28865.83
558.65	28973.49
558.81	28666.88
558.98	28472.62
559.14	28594.32
559.31	28559.22
559.47	28437.51
559.64	28783.91
559.80	28816.68
559.97	28968.81
560.13	28807.31
560.30	28788.59
560.46	28610.71
560.63	28856.46
560.79	28699.65
560.96	28999.24
561.12	28767.52
561.29	28659.86
561.45	29151.37
561.61	29081.16
561.78	28837.74
561.94	29090.52
562.11	29036.69
562.27	29336.27
562.44	29106.90
562.60	28950.09
562.77	29071.79
562.93	29008.60
563.10	28931.36
563.26	29076.48
563.42	29244.99
563.59	29273.08
563.75	29102.22
563.92	29331.59
564.08	28716.03
564.24	29083.50
564.41	29062.43
564.57	28786.25
564.74	29048.39
564.90	29689.70
565.07	29090.52
565.23	29436.92
565.39	29317.55
565.56	29755.23
565.72	28980.51
565.88	29071.79
566.05	28912.64
566.21	29322.23
566.38	28933.70
566.54	29177.12
566.70	29273.08
566.87	29675.65
567.03	29457.98
567.19	29720.12
567.36	29731.83
567.52	29535.22
567.68	29542.24
567.85	29207.55
568.01	29902.68
568.17	29212.23
568.34	29525.86
568.50	29687.36
568.66	29659.27
568.83	29493.09
568.99	29575.01
569.15	29736.51
569.32	29408.83
569.48	29338.62
569.64	29425.22
569.81	29479.05
569.97	29764.59
570.13	29984.60
570.30	29394.79
570.46	29427.56
570.62	29762.25
570.78	29465.00
570.95	29556.28
571.11	29741.19
571.27	29233.29
571.43	29495.43
571.60	29771.61
571.76	29429.90
571.92	29654.59
572.09	29947.15
572.25	29626.50
572.41	29649.91
572.57	29823.11
572.74	30169.51
572.90	29591.39
573.06	29476.71
573.22	29825.45
573.38	29717.78
573.55	29759.91
573.71	30008.01
573.87	30228.02
574.03	29729.48
574.20	29773.95
574.36	29755.23
574.52	29663.95
574.68	29797.36
574.84	29846.51
575.01	29965.88
575.17	29869.92
575.33	29795.02
575.49	29656.93
575.65	29834.81
575.82	29818.42
575.98	30043.12
576.14	30185.89
576.30	29677.99
576.46	29572.67
576.62	29315.21
576.79	29771.61
576.95	29490.75
577.11	29926.09
577.27	29890.98
577.43	29947.15
577.59	29937.79
577.75	29832.47
577.92	29982.26
578.08	29649.91
578.24	29350.32
578.40	29734.17
578.56	29940.13
578.72	29996.31
578.88	30232.70
579.04	30347.39
579.21	29951.84
579.37	29998.65
579.53	29640.54
579.69	29958.86
579.85	29900.34
580.01	29757.57
580.17	29209.89
580.33	29942.47
580.49	29919.07
580.65	30047.80
580.82	29965.88
580.98	29982.26
581.14	30281.85
581.30	29867.58
581.46	29975.24
581.62	30113.33
581.78	30043.12
581.94	30206.95
582.10	29589.05
582.26	29919.07
582.42	29762.25
582.58	30174.19
582.74	29944.81
582.90	30312.28
583.06	30061.84
583.22	29848.85
583.38	30038.44
583.54	29685.01
583.70	30260.79
583.86	29919.07
584.02	29521.18
584.18	30412.92
584.34	30185.89
584.50	29933.11
584.66	30029.07
584.82	29436.92
584.98	30410.58
585.14	30015.03
585.30	29713.10
585.46	30155.46
585.62	29743.53
585.78	30204.61
585.94	29923.75
586.10	30038.44
586.26	30038.44
586.42	30338.02
586.58	29965.88
586.74	30213.98
586.90	29701.40
587.06	29785.66
587.22	30017.37
587.38	29530.54
587.54	30143.76
587.70	30209.29
587.86	30490.16
588.02	30352.07
588.18	30796.77
588.34	30417.60
588.49	30108.65
588.65	30153.12
588.81	30253.76
588.97	30218.66
589.13	30305.26
589.29	30087.59
589.45	30312.28
589.61	30623.57
589.77	30043.12
589.93	30244.40
590.08	30707.83
590.24	30132.06
590.40	30326.32
590.56	30558.03
590.72	30595.48
590.88	30272.49
591.04	29881.62
591.20	30885.71
591.35	30359.09
591.51	30731.23
591.67	30504.20
591.83	30822.51
591.99	30593.14
592.15	30462.07
592.31	30644.63
592.46	30632.93
592.62	30239.72
592.78	30008.01
592.94	30445.69
593.10	30473.78
593.26	30328.66
593.41	30354.41
593.57	30410.58
593.73	30340.36
593.89	30644.63
594.05	30766.34
594.20	30436.33
594.36	30433.99
594.52	30508.88
594.68	30686.76
594.84	30150.78
594.99	30588.46
595.15	30199.93
595.31	30768.68
595.47	30632.93
595.62	30279.51
595.78	30693.79
595.94	30279.51
596.10	30747.62
596.25	30305.26
596.41	30316.96
596.57	30038.44
596.73	30859.96
596.88	30281.85
597.04	30567.40
597.20	30766.34
597.36	30593.14
597.51	30967.63
597.67	30756.98
597.83	30464.41
597.99	30581.44
598.14	30616.55
598.30	30279.51
598.46	30541.65
598.61	30728.89
598.77	30768.68
598.93	30473.78
599.09	30721.87
599.24	30955.93
599.40	30829.54
599.56	30941.88
599.71	30644.63
599.87	30838.90
600.03	30630.59
600.18	30696.13
600.34	30684.42
600.50	30693.79
600.65	30799.11
600.81	30878.69
600.97	31288.28
601.12	30845.92
601.28	30899.75
601.44	30703.15
601.59	30693.79
601.75	30539.31
601.91	30808.47
602.06	30607.19
602.22	30808.47
602.37	30511.22
602.53	30759.32
602.69	30595.48
602.84	30731.23
603.00	30609.53
603.16	30642.29
603.31	30941.88
603.47	30850.60
603.62	30761.66
603.78	30462.07
603.94	30263.13
604.09	30115.67
604.25	30726.55
604.40	30494.84
604.56	30359.09
604.71	30621.23
604.87	30623.57
605.03	30885.71
605.18	30532.29
605.34	30799.11
605.49	30551.01
605.65	30714.85
605.80	30373.13
605.96	30583.78
606.12	30539.31
606.27	30759.32
606.43	30625.91
606.58	30885.71
606.74	30363.77
606.89	30883.37
607.05	30520.59
607.20	30656.34
607.36	30752.30
607.51	30487.82
607.67	30347.39
607.82	30658.68
607.98	30445.69
608.13	30520.59
608.29	30649.32
608.44	30279.51
608.60	30487.82
608.75	30235.04
608.91	30515.90
609.06	30586.12
609.22	30668.04
609.37	30213.98
609.53	30501.86
609.68	30546.33
609.84	30363.77
609.99	30401.22
610.15	30438.67
610.30	30270.15
610.46	30263.13
610.61	30546.33
610.76	30274.83
610.92	30331.00
611.07	30288.87
611.23	30316.96
611.38	30361.43
611.54	30167.16
611.69	29886.30
611.84	30080.56
612.00	30494.84
612.15	30026.73
612.31	30431.65
612.46	30050.14
612.62	30501.86
612.77	30188.23
612.92	30541.65
613.08	29982.26
613.23	30132.06
613.39	30169.51
613.54	30349.73
613.69	30244.40
613.85	29912.05
614.00	30068.86
614.15	30277.17
614.31	29893.32
614.46	30260.79
614.62	30106.31
614.77	30412.92
614.92	29993.97
615.08	29905.02
615.23	29916.73
615.38	30232.70
615.54	30099.29
615.69	29841.83
615.84	29565.65
616.00	30078.22
616.15	29907.37
616.30	30260.79
616.46	30005.67
616.61	29759.91
616.76	29951.84
616.92	29858.21
617.07	29804.38
617.22	29600.76
617.37	29397.13
617.53	29593.73
617.68	29940.13
617.83	29230.95
617.99	29694.38
618.14	29504.79
618.29	29284.78
618.45	29659.27
618.60	29741.19
618.75	29874.60
618.90	29900.34
619.06	29472.03
619.21	29860.55
619.36	29788.00
619.51	29713.10
619.67	29558.63
619.82	29565.65
619.97	29457.98
620.12	29546.92
620.28	29355.00
620.43	29816.08
620.58	29544.58
620.73	29233.29
620.89	29902.68
621.04	29366.70
621.19	29439.26
621.34	29153.71
621.49	29024.98
621.65	29551.60
621.80	29408.83
621.95	28924.34
622.10	29242.65
622.25	29385.43
622.41	29319.89
622.56	29303.51
622.71	29582.03
622.86	29450.96
623.01	29156.05
623.16	29701.40
623.32	29223.93
623.47	29385.43
623.62	29039.03
623.77	29621.82
623.92	29097.54
624.07	29308.19
624.23	29062.43
624.38	29160.73
624.53	29003.92
624.68	28914.98
624.83	29401.81
624.98	29132.65
625.13	28945.41
625.29	29202.86
625.44	29214.57
625.59	28837.74
625.74	28858.81
625.89	28659.86
626.04	28683.27
626.19	28872.85
626.34	28659.86
626.49	28774.55
626.65	28776.89
626.80	29095.20
626.95	28922.00
627.10	28903.28
627.25	28914.98
627.40	28748.80
627.55	28542.83
627.70	28893.91
627.85	28617.73
628.00	28294.74
628.15	28676.24
628.30	28287.71
628.45	28730.08
628.60	28821.36
628.76	28786.25
628.91	28587.30
629.06	28573.26
629.21	28542.83
629.36	28395.38
629.51	28404.74
629.66	28423.47
629.81	27892.16
629.96	28182.39
630.11	28175.37
630.26	28425.81
630.41	28379.00
630.56	28570.92
630.71	28746.46
630.86	28304.10
631.01	28168.35
631.16	28486.66
631.31	28718.37
631.46	27859.40
631.61	28379.00
631.76	28507.72
631.91	28126.22
632.06	28074.73
632.21	28334.53
632.36	28098.13
632.51	28081.75
632.66	28194.09
632.81	28112.17
632.96	28023.23
633.10	27892.16
633.25	28013.87
633.40	28077.07
633.55	27997.49
633.70	27740.03
633.85	27854.72
634.00	28175.37
634.15	27784.50
634.30	27655.77
634.45	27674.49
634.60	28219.84
634.75	27908.55
634.90	27807.90
635.05	27744.71
635.19	27707.26
635.34	28107.49
635.49	27896.85
635.64	28147.28
635.79	27910.89
635.94	27709.60
636.09	27475.55
636.24	27510.66
636.39	27690.88
636.53	27620.66
636.68	27402.99
636.83	27758.75
636.98	27527.04
637.13	27484.91
637.28	27807.90
637.43	27674.49
637.57	27658.11
637.72	27562.15
637.87	27190.00
638.02	27285.97
638.17	27302.35
638.32	27620.66
638.46	27288.31
638.61	27292.99
638.76	27292.99
638.91	26979.36
639.06	27344.48
639.20	27637.05
639.35	27295.33
639.50	27527.04
639.65	27262.56
639.80	27440.44
639.94	27555.13
640.09	27314.05
640.24	27384.27
640.39	27199.37
640.54	27042.55
640.68	26771.05
640.83	26874.03
640.98	27096.38
641.13	26864.67
641.27	27367.88
641.42	27264.90
641.57	27185.32
641.72	27302.35
641.86	26850.63
642.01	26771.05
642.16	26965.31
642.31	26345.07
642.45	26869.35
642.60	26771.05
642.75	27178.30
642.90	26546.36
643.04	26602.53
643.19	26916.16
643.34	26845.94
643.48	26354.43
643.63	26696.15
643.78	26801.47
643.93	27023.83
644.07	27049.57
644.22	26848.29
644.37	26583.80
644.51	26759.34
644.66	26527.63
644.81	26391.88
644.95	26356.77
645.10	26583.80
645.25	26792.11
645.39	26497.20
645.54	26768.71
645.69	26492.52
645.83	26658.70
645.98	26668.06
646.13	26551.04
646.27	26677.43
646.42	26878.71
646.57	26733.60
646.71	26630.62
646.86	26590.83
647.00	26347.41
647.15	26499.55
647.30	26693.81
647.44	26457.42
647.59	26401.24
647.74	26586.15
647.88	26752.32
648.03	26445.71
648.17	26436.35
648.32	26284.22
648.47	26625.93
648.61	26185.91
648.76	26363.79
648.90	26162.51
649.05	26132.08
649.20	26061.87
649.34	26412.95
649.49	25792.70
649.63	25663.97
649.78	25867.60
649.92	26139.10
650.07	26120.38
650.21	25867.60
650.36	26036.12
650.51	25795.04
650.65	26103.99
650.80	26061.87
650.94	26008.03
651.09	26038.46
651.23	25631.21
651.38	25759.94
651.52	26078.25
651.67	25968.24
651.81	25916.75
651.96	25820.79
652.10	26059.52
652.25	25989.31
652.39	26300.60
652.54	25649.93
652.68	26146.12
652.83	25762.28
652.97	26153.15
653.12	25661.63
653.26	25851.22
653.41	25549.29
653.55	25315.23
653.70	25958.88
653.84	25570.35
653.99	25490.77
654.13	26022.08
654.27	25401.83
654.42	25701.42
654.56	25589.08
654.71	25614.82
654.85	25795.04
655.00	25764.62
655.14	25682.70
655.29	25551.63
655.43	25696.74
655.57	25315.23
655.72	25434.60
655.86	25202.89
656.01	25511.84
656.15	25343.32
656.30	25331.62
656.44	25352.68
656.58	25156.08
656.73	25422.90
656.87	25474.39
657.01	25247.36
657.16	25153.74
657.30	25544.61
657.45	25406.52
657.59	25266.08
657.73	25010.96
657.88	25200.55
658.02	24940.75
658.16	25127.99
658.31	25296.51
658.45	24987.56
658.60	25022.67
658.74	24898.62
658.88	24627.12
659.03	24961.81
659.17	24870.53
659.31	24744.14
659.46	25142.03
659.60	25343.32
659.74	24746.48
659.89	24540.52
660.03	24542.86
660.17	24669.25
660.32	24613.07
660.46	24470.30
660.60	24355.61
660.74	24407.11
660.89	24727.76
661.03	24177.73
661.17	24397.74
661.32	24844.79
661.46	24833.08
661.60	24336.89
661.74	24592.01
661.89	24416.47
662.03	24746.48
662.17	24615.41
662.31	24702.01
662.46	24702.01
662.60	24704.35
662.74	24350.93
662.88	24215.18
663.03	23508.34
663.17	24236.25
663.31	23838.36
663.45	23821.97
663.60	23817.29
663.74	24161.35
663.88	24107.52
664.02	24119.22
664.17	24142.63
664.31	23887.51
664.45	23599.62
664.59	23997.51
664.73	24215.18
664.88	23880.49
665.02	23587.92
665.16	23461.53
665.30	23396.00
665.44	23506.00
665.59	23559.83
665.73	23604.30
665.87	23452.17
666.01	23513.02
666.15	23758.78
666.29	23611.32
666.44	23747.08
666.58	23412.38
666.72	23314.08
666.86	23304.71
667.00	23637.07
667.14	23330.46
667.28	22984.06
667.43	23117.47
667.57	23227.48
667.71	22965.34
667.85	22972.36
667.99	22995.76
668.13	22977.04
668.27	22909.16
668.41	23147.90
668.56	23098.75
668.70	22888.10
668.84	22913.84
668.98	23002.78
669.12	22972.36
669.26	22977.04
669.40	22808.52
669.54	22630.64
669.68	22625.96
669.82	22480.85
669.96	22848.31
670.10	22274.88
670.25	22354.46
670.39	22340.41
670.53	22225.73
670.67	22448.08
670.81	22242.11
670.95	22551.06
671.09	22176.58
671.23	22295.94
671.37	22583.83
671.51	22284.24
671.65	22436.38
671.79	22197.64
671.93	22249.13
672.07	22099.34
672.21	22010.40
672.35	21792.73
672.49	21790.39
672.63	21762.30
672.77	21675.70
672.91	22017.42
673.05	21692.08
673.19	21785.71
673.33	21696.77
673.47	21839.54
673.61	21736.56
673.75	21671.02
673.89	21553.99
674.03	21532.93
674.17	21605.49
674.31	21703.79
674.45	21509.52
674.59	21523.57
674.73	21411.22
674.87	21289.51
675.01	21284.83
675.15	21387.82
675.29	21029.71
675.43	20908.01
675.56	21181.85
675.70	21001.63
675.84	20865.88
675.98	20617.78
676.12	21085.89
676.26	21062.48
676.40	21078.86
676.54	20943.11
676.68	20517.14
676.82	20676.29
676.96	20800.34
677.10	20287.76
677.23	20608.42
677.37	20343.94
677.51	20458.62
677.65	20332.23
677.79	19887.53
677.93	19957.75
678.07	19906.26
678.21	19922.64
678.34	19997.54
678.48	20144.99
678.62	19733.06
678.76	19791.57
678.90	19929.66
679.04	19681.56
679.18	19679.22
679.31	19564.54
679.45	19201.76
679.59	19286.01
679.73	19171.33
679.87	19332.82
680.00	18970.04
680.14	18941.96
680.28	19386.66
680.42	19386.66
680.56	19208.78
680.70	19150.26
680.83	18808.54
680.97	18937.27
681.11	19000.47
681.25	18831.95
681.39	18752.37
681.52	18780.46
681.66	18897.49
681.80	18258.52
681.94	18558.11
682.07	18405.97
682.21	18270.22
682.35	18207.03
682.49	18146.17
682.62	18335.76
682.76	18242.14
682.90	18101.70
683.04	18040.85
683.17	18148.51
683.31	17951.91
683.45	18375.55
683.59	17596.15
683.72	18068.94
683.86	17916.80
684.00	17827.86
684.13	17841.90
684.27	17610.19
684.41	17303.58
684.55	17642.96
684.68	17102.29
684.82	17224.00
684.96	17198.26
685.09	17497.84
685.23	16980.59
685.37	17083.57
685.50	17369.12
685.64	17268.47
685.78	17404.22
685.91	17254.43
686.05	17078.89
686.19	17036.76
686.32	16767.60
686.46	16540.57
686.60	16683.34
686.73	16388.43
686.87	16673.98
687.01	16430.56
687.14	16135.65
687.28	16390.77
687.42	16409.50
687.55	16360.34
687.69	16187.14
687.82	16299.49
687.96	16435.24
688.10	16084.16
688.23	16065.44
688.37	16006.92
688.50	16006.92
688.64	15651.16
688.78	15957.77
688.91	15665.21
689.05	15669.89
689.18	15819.68
689.32	15185.40
689.46	15260.29
689.59	15559.88
689.73	15454.56
689.86	15091.77
690.00	15393.70
690.13	15269.66
690.27	15433.49
690.41	15098.80
690.54	15185.40
690.68	15091.77
690.81	15351.57
690.95	15133.90
691.08	15302.42
691.22	15173.69
691.35	14853.04
691.49	14932.62
691.62	14604.94
691.76	14846.02
691.89	14413.02
692.03	14609.62
692.16	14384.93
692.30	14249.18
692.43	14237.48
692.57	14445.79
692.70	14284.29
692.84	14279.61
692.97	14090.02
693.11	14090.02
693.24	14036.19
693.38	14087.68
693.51	13989.38
693.65	14115.77
693.78	14015.13
693.92	13713.20
694.05	13816.18
694.19	13916.83
694.32	13760.01
694.45	13570.43
694.59	13593.83
694.72	13437.02
694.86	13125.72
694.99	13275.52
695.13	13329.35
695.26	13345.73
695.39	13200.62
695.53	13233.39
695.66	13125.72
695.80	13029.76
695.93	12978.27
696.07	13294.24
696.20	13179.56
696.33	13025.08
696.47	12652.94
696.60	12894.01
696.73	12552.29
696.87	12676.34
697.00	12868.27
697.14	12556.97
697.27	12599.10
697.40	12297.17
697.54	12346.33
697.67	12283.13
697.80	12339.30
697.94	12283.13
698.07	12046.74
698.21	12196.53
698.34	12266.75
698.47	12292.49
698.61	12105.25
698.74	12004.61
698.87	12212.92
699.01	12056.10
699.14	11957.80
699.27	11880.56
699.40	11782.26
699.54	11833.75
699.67	11573.95
699.80	11623.10
699.94	11693.32
700.07	11613.74
700.20	11302.45
700.34	11356.28
700.47	11365.64
700.60	11269.68
700.73	11185.42
700.87	11367.98
701.00	11105.84
701.13	11232.23
701.26	11126.91
701.40	11222.87
701.53	10930.30
701.66	11012.22
701.79	10909.24
701.93	11087.12
702.06	10633.05
702.19	10827.32
702.32	10649.44
702.46	10740.72
702.59	10768.80
702.72	10628.37
702.85	10274.95
702.99	10459.85
703.12	10427.09
703.25	10307.72
703.38	10457.51
703.51	10476.24
703.65	10387.30
703.78	10284.31
703.91	10258.57
704.04	10317.08
704.17	10230.48
704.31	10022.17
704.44	10221.12
704.57	10162.61
704.70	9839.61
704.83	9846.63
704.96	9783.44
705.10	9846.63
705.23	9544.70
>>>>>End Processed Spectral Data<<<<<
