SpectraSuite Data File
++++++++++++++++++++++++++++++++++++
Date: Fri Oct 18 13:58:18 GMT-05:00 2013
User: bianchi
Dark Spectrum Present: No
Reference Spectrum Present: No
Number of Sampled Component Spectra: 1
Spectrometers: USB2+H05261
Integration Time (usec): 50000 (USB2+H05261)
Spectra Averaged: 1 (USB2+H05261)
Boxcar Smoothing: 0 (USB2+H05261)
Correct for Electrical Dark: No (USB2+H05261)
Strobe/Lamp Enabled: No (USB2+H05261)
Correct for Detector Non-linearity: No (USB2+H05261)
Correct for Stray Light: No (USB2+H05261)
Number of Pixels in Processed Spectrum: 2048
>>>>>Begin Processed Spectral Data<<<<<
365.73	9.36
365.92	9.36
366.12	9.36
366.32	0.00
366.52	0.00
366.72	0.00
366.91	0.00
367.11	0.00
367.31	0.00
367.51	0.00
367.70	0.00
367.90	0.00
368.10	0.00
368.30	0.00
368.49	0.00
368.69	0.00
368.89	0.00
369.09	0.00
369.28	0.00
369.48	0.00
369.68	0.00
369.87	0.00
370.07	0.00
370.27	0.00
370.47	0.00
370.66	65.54
370.86	81.92
371.06	74.90
371.25	79.58
371.45	35.11
371.65	166.18
371.84	107.66
372.04	191.92
372.24	191.92
372.44	196.60
372.63	170.86
372.83	210.65
373.03	203.63
373.22	184.90
373.42	217.67
373.62	271.50
373.81	210.65
374.01	320.65
374.21	224.69
374.40	161.50
374.60	301.93
374.79	205.97
374.99	159.16
375.19	299.59
375.38	280.86
375.58	255.12
375.78	299.59
375.97	299.59
376.17	301.93
376.37	234.05
376.56	311.29
376.76	222.35
376.95	287.89
377.15	297.25
377.35	255.12
377.54	297.25
377.74	304.27
377.93	236.39
378.13	322.99
378.33	308.95
378.52	308.95
378.72	353.42
378.91	334.70
379.11	241.08
379.31	236.39
379.50	294.91
379.70	273.84
379.89	287.89
380.09	348.74
380.28	266.82
380.48	341.72
380.68	365.12
380.87	299.59
381.07	332.36
381.26	243.42
381.46	330.02
381.65	306.61
381.85	313.63
382.04	313.63
382.24	344.06
382.43	397.89
382.63	418.96
382.83	339.38
383.02	322.99
383.22	404.91
383.41	355.76
383.61	292.57
383.80	341.72
384.00	306.61
384.19	306.61
384.39	344.06
384.58	411.93
384.78	402.57
384.97	285.55
385.17	315.97
385.36	451.72
385.56	449.38
385.75	383.85
385.95	388.53
386.14	430.66
386.34	440.02
386.53	428.32
386.72	332.36
386.92	367.46
387.11	397.89
387.31	397.89
387.50	414.27
387.70	379.17
387.89	400.23
388.09	484.49
388.28	493.85
388.48	421.30
388.67	440.02
388.86	442.36
389.06	423.64
389.25	475.13
389.45	444.70
389.64	437.68
389.84	447.04
390.03	533.64
390.22	500.87
390.42	564.07
390.61	461.09
390.81	491.51
391.00	461.09
391.19	528.96
391.39	425.98
391.58	507.90
391.78	538.32
391.97	463.43
392.16	477.47
392.36	575.77
392.55	503.22
392.75	505.56
392.94	526.62
393.13	496.19
393.33	500.87
393.52	601.52
393.71	596.84
393.91	524.28
394.10	610.88
394.29	559.39
394.49	486.83
394.68	613.22
394.88	606.20
395.07	662.37
395.26	692.80
395.46	641.31
395.65	645.99
395.84	580.45
396.04	751.31
396.23	674.07
396.42	624.92
396.62	634.29
396.81	627.26
397.00	648.33
397.19	624.92
397.39	720.88
397.58	725.57
397.77	711.52
397.97	695.14
398.16	695.14
398.35	716.20
398.55	697.48
398.74	709.18
398.93	784.08
399.12	678.76
399.32	589.82
399.51	631.94
399.70	727.91
399.90	788.76
400.09	798.12
400.28	739.61
400.47	692.80
400.67	772.38
400.86	835.57
401.05	779.40
401.24	730.25
401.44	777.06
401.63	816.85
401.82	777.06
402.01	784.08
402.21	802.80
402.40	805.14
402.59	791.10
402.78	908.13
402.97	863.66
403.17	957.28
403.36	901.11
403.55	840.25
403.74	894.08
403.93	912.81
404.13	896.43
404.32	912.81
404.51	945.58
404.70	875.36
404.89	973.66
405.09	926.85
405.28	959.62
405.47	908.13
405.66	961.96
405.85	978.34
406.05	983.02
406.24	980.68
406.43	938.55
406.62	990.05
406.81	1025.15
407.00	1060.26
407.20	968.98
407.39	1088.35
407.58	1062.60
407.77	1130.48
407.96	1053.24
408.15	1179.63
408.34	1090.69
408.54	1137.50
408.73	1018.13
408.92	1100.05
409.11	1186.65
409.30	1144.52
409.49	1121.12
409.68	1055.58
409.87	1081.33
410.07	1130.48
410.26	1212.40
410.45	1249.85
410.64	1196.01
410.83	1090.69
411.02	1170.27
411.21	1226.44
411.40	1238.14
411.59	1174.95
411.78	1266.23
411.98	1303.68
412.17	1420.71
412.36	1334.11
412.55	1268.57
412.74	1291.98
412.93	1392.62
413.12	1378.58
413.31	1364.53
413.50	1315.38
413.69	1423.05
413.88	1378.58
414.07	1423.05
414.26	1479.22
414.45	1549.43
414.64	1446.45
414.83	1479.22
415.02	1420.71
415.22	1455.81
415.41	1605.61
415.60	1521.35
415.79	1577.52
415.98	1570.50
416.17	1596.25
416.36	1593.90
416.55	1647.74
416.74	1561.14
416.93	1724.97
417.12	1661.78
417.31	1621.99
417.50	1720.29
417.69	1687.53
417.88	1769.44
418.07	1804.55
418.26	1657.10
418.45	1647.74
418.64	1762.42
418.83	1750.72
419.02	1827.96
419.21	1874.77
419.39	1809.23
419.58	1818.60
419.77	1816.26
419.96	1954.35
420.15	1863.07
420.34	1790.51
420.53	1933.28
420.72	1891.15
420.91	2071.37
421.10	1905.20
421.29	1877.11
421.48	2003.50
421.67	2019.88
421.86	1989.46
422.05	1956.69
422.24	1947.33
422.43	1881.79
422.61	1944.99
422.80	2069.03
422.99	1940.30
423.18	1902.86
423.37	1991.80
423.56	2026.90
423.75	2083.08
423.94	1940.30
424.13	1849.02
424.32	1893.49
424.50	2024.56
424.69	2090.10
424.88	2017.54
425.07	1928.60
425.26	1905.20
425.45	1912.22
425.64	2153.29
425.83	2069.03
426.01	2008.18
426.20	2136.91
426.39	2148.61
426.58	2045.63
426.77	2040.95
426.96	2108.82
427.15	2076.06
427.33	2054.99
427.52	2040.95
427.71	2043.29
427.90	2242.23
428.09	2150.95
428.28	2134.57
428.46	2244.57
428.65	2218.83
428.84	2331.17
429.03	2235.21
429.22	2087.76
429.40	2186.06
429.59	2223.51
429.78	2190.74
429.97	2179.04
430.16	2143.93
430.34	2303.09
430.53	2282.02
430.72	2251.60
430.91	2345.22
431.10	2370.96
431.28	2345.22
431.47	2382.67
431.66	2349.90
431.85	2363.94
432.03	2602.68
432.22	2417.77
432.41	2504.37
432.60	2525.44
432.79	2363.94
432.97	2487.99
433.16	2368.62
433.35	2326.49
433.54	2483.31
433.72	2459.90
433.91	2546.50
434.10	2401.39
434.28	2605.02
434.47	2492.67
434.66	2595.65
434.85	2614.38
435.03	2628.42
435.22	2654.17
435.41	2546.50
435.59	2576.93
435.78	2593.31
435.97	2612.04
436.16	2754.81
436.34	2635.44
436.53	2675.23
436.72	2764.17
436.90	2696.30
437.09	2672.89
437.28	2612.04
437.46	2693.96
437.65	2642.46
437.84	2869.50
438.02	2808.64
438.21	2942.05
438.40	2724.38
438.58	2822.69
438.77	2888.22
438.96	2780.56
439.14	2913.97
439.33	3023.97
439.52	3047.38
439.70	2951.42
439.89	2981.84
440.08	2963.12
440.26	3103.55
440.45	2979.50
440.63	3063.76
440.82	3152.70
441.01	3129.30
441.19	3239.30
441.38	3314.20
441.57	3248.66
441.75	3164.40
441.94	3211.22
442.12	3393.78
442.31	3342.28
442.50	3243.98
442.68	3260.37
442.87	3410.16
443.05	3428.88
443.24	3323.56
443.43	3393.78
443.61	3375.05
443.80	3548.25
443.98	3325.90
444.17	3288.45
444.35	3318.88
444.54	3398.46
444.73	3353.99
444.91	3353.99
445.10	3475.70
445.28	3431.23
445.47	3503.78
445.65	3456.97
445.84	3407.82
446.02	3456.97
446.21	3452.29
446.39	3452.29
446.58	3442.93
446.77	3398.46
446.95	3459.31
447.14	3452.29
447.32	3515.48
447.51	3545.91
447.69	3513.14
447.88	3557.61
448.06	3508.46
448.25	3485.06
448.43	3492.08
448.62	3522.51
448.80	3471.01
448.99	3574.00
449.17	3581.02
449.36	3438.25
449.54	3574.00
449.73	3559.95
449.91	3705.07
450.10	3721.45
450.28	3803.37
450.46	3777.62
450.65	3737.84
450.83	3843.16
451.02	3541.23
451.20	3772.94
451.39	3801.03
451.57	3742.52
451.76	3763.58
451.94	3873.59
452.13	3911.04
452.31	3946.14
452.49	3794.01
452.68	3850.18
452.86	3836.14
453.05	3859.54
453.23	3992.95
453.42	3934.44
453.60	3978.91
453.78	3817.41
453.97	3894.65
454.15	3822.09
454.34	3927.42
454.52	4079.55
454.70	4119.34
454.89	4021.04
455.07	3941.46
455.26	4063.17
455.44	4070.19
455.62	4098.28
455.81	3911.04
455.99	4121.68
456.17	4273.82
456.36	4138.07
456.54	4182.54
456.73	4126.36
456.91	4437.66
457.09	4266.80
457.28	4379.14
457.46	4191.90
457.64	4285.52
457.83	4355.74
458.01	4264.46
458.19	4503.19
458.38	4461.06
458.56	4372.12
458.74	4395.53
458.93	4353.40
459.11	4454.04
459.29	4538.30
459.48	4615.54
459.66	4458.72
459.84	4573.41
460.03	4498.51
460.21	4571.07
460.39	4491.49
460.57	4538.30
460.76	4475.10
460.94	4650.64
461.12	4585.11
461.31	4601.49
461.49	4622.56
461.67	4664.69
461.85	4638.94
462.04	4767.67
462.22	4990.02
462.40	4732.56
462.59	4837.89
462.77	4650.64
462.95	4760.65
463.13	4695.11
463.32	4837.89
463.50	4798.10
463.68	4755.97
463.86	4786.40
464.05	4863.63
464.23	4807.46
464.41	5011.09
464.59	4812.14
464.78	4943.21
464.96	4835.55
465.14	4765.33
465.32	5022.79
465.50	5008.75
465.69	4898.74
465.87	4973.64
466.05	4985.34
466.23	4985.34
466.41	4959.60
466.60	5153.86
466.78	4924.49
466.96	4990.02
467.14	5109.39
467.32	5064.92
467.51	5224.08
467.69	5071.94
467.87	5455.79
468.05	5163.22
468.23	5172.58
468.41	5132.79
468.60	5130.45
468.78	5188.97
468.96	5252.16
469.14	5280.25
469.32	5247.48
469.50	5179.61
469.69	5263.86
469.87	5390.25
470.05	5483.88
470.23	5366.85
470.41	5394.93
470.59	5425.36
470.77	5408.98
470.95	5490.90
471.14	5483.88
471.32	5404.30
471.50	5750.70
471.68	5570.48
471.86	5572.82
472.04	5607.92
472.22	5799.85
472.40	5626.65
472.58	5783.46
472.77	5708.57
472.95	5818.57
473.13	5980.07
473.31	5825.59
473.49	5636.01
473.67	5673.46
473.85	5743.67
474.03	5795.17
474.21	6099.44
474.39	6113.48
474.57	6099.44
474.75	6029.22
474.93	6148.59
475.12	6235.19
475.30	6167.31
475.48	6176.67
475.66	6108.80
475.84	6354.55
476.02	6293.70
476.20	6380.30
476.38	6555.84
476.56	6579.25
476.74	6471.58
476.92	6487.96
477.10	6532.44
477.28	6647.12
477.46	6651.80
477.64	6726.70
477.82	6867.13
478.00	6995.86
478.18	7026.29
478.36	7019.27
478.54	7178.42
478.72	7026.29
478.90	7152.68
479.08	7075.44
479.26	7407.80
479.44	7478.01
479.62	7344.60
479.80	7475.67
479.98	7328.22
480.16	7658.23
480.34	7368.01
480.52	7669.94
480.70	7489.71
480.88	7559.93
481.06	7672.28
481.24	7653.55
481.41	7775.26
481.59	7810.37
481.77	8030.38
481.95	8016.33
482.13	8095.91
482.31	8234.00
482.49	8266.77
482.67	8294.86
482.85	8404.86
483.03	8535.93
483.21	8489.12
483.39	8500.83
483.57	8753.60
483.74	8461.04
483.92	8397.84
484.10	8816.80
484.28	8891.70
484.46	8978.30
484.64	9071.92
484.82	8898.72
485.00	8929.14
485.18	9151.49
485.35	9184.26
485.53	9437.04
485.71	9418.32
485.89	9692.16
486.07	9451.08
486.25	9703.86
486.43	9661.73
486.61	9757.69
486.78	9769.40
486.96	9970.68
487.14	10143.88
487.32	10057.28
487.50	10146.22
487.68	10108.77
487.85	10417.72
488.03	10267.93
488.21	10574.54
488.39	10768.80
488.57	10733.70
488.75	10764.12
488.92	10860.09
489.10	10867.11
489.28	11077.76
489.46	10951.37
489.64	10920.94
489.81	11337.56
489.99	11276.70
490.17	11232.23
490.35	11377.34
490.53	11302.45
490.70	11569.27
490.88	11494.37
491.06	11782.26
491.24	11793.96
491.41	11847.79
491.59	11840.77
491.77	12065.46
491.95	12276.11
492.13	11815.02
492.30	12250.36
492.48	12273.77
492.66	12395.48
492.84	12404.84
493.01	12601.44
493.19	12360.37
493.37	12739.54
493.54	12819.11
493.72	12985.29
493.90	12671.66
494.08	12950.18
494.25	13209.98
494.43	13048.49
494.61	13352.76
494.79	13268.50
494.96	13315.31
495.14	13589.15
495.32	13387.86
495.49	13542.34
495.67	13547.02
495.85	13755.33
496.02	13734.26
496.20	13699.16
496.38	13916.83
496.55	14167.26
496.73	14450.47
496.91	14054.92
497.09	14169.60
497.26	14455.15
497.44	14185.99
497.62	14335.78
497.79	14443.45
497.97	14406.00
498.14	14977.09
498.32	14993.47
498.50	14572.18
498.67	15012.20
498.85	15066.03
499.03	14719.63
499.20	15227.53
499.38	14932.62
499.56	15122.20
499.73	14984.11
499.91	15243.91
500.08	15506.05
500.26	15274.34
500.44	15300.08
500.61	15309.44
500.79	15747.12
500.97	15513.07
501.14	16002.24
501.32	15625.42
501.49	15742.44
501.67	16004.58
501.84	15967.13
502.02	16032.67
502.20	16276.09
502.37	16297.15
502.55	16123.95
502.72	16180.12
502.90	16292.47
503.07	16137.99
503.25	16222.25
503.43	16177.78
503.60	16376.73
503.78	16332.26
503.95	16688.02
504.13	16589.72
504.30	16540.57
504.48	16634.19
504.65	16882.28
504.83	16959.52
505.01	16982.93
505.18	16966.54
505.36	17163.15
505.53	17088.25
505.71	17116.34
505.88	17188.89
506.06	17099.95
506.23	17373.80
506.41	17216.98
506.58	17685.09
506.76	17642.96
506.93	17525.93
507.11	17472.10
507.28	17394.86
507.46	17362.09
507.63	17914.46
507.81	17502.53
507.98	17586.79
508.16	17621.89
508.33	17666.36
508.50	17488.48
508.68	17994.04
508.85	18244.48
509.03	18211.71
509.20	18003.40
509.38	18284.26
509.55	18071.28
509.73	18244.48
509.90	18530.02
510.08	18487.89
510.25	18504.28
510.42	18324.05
510.60	18654.07
510.77	18600.24
510.95	19023.87
511.12	18487.89
511.30	18677.48
511.47	18635.35
511.64	18773.44
511.82	19117.50
511.99	18705.56
512.17	19211.12
512.34	19194.73
512.51	19176.01
512.69	19346.87
512.86	19360.91
513.04	19566.88
513.21	19412.40
513.38	19229.84
513.56	19529.43
513.73	19377.30
513.90	19625.39
514.08	19269.63
514.25	19784.55
514.43	19922.64
514.60	19929.66
514.77	19803.27
514.95	19969.45
515.12	20072.43
515.29	19735.40
515.47	20339.26
515.64	20456.28
515.81	19957.75
515.99	20184.78
516.16	20411.81
516.33	20159.03
516.51	20336.91
516.68	20294.79
516.85	20130.95
517.03	20470.33
517.20	20437.56
517.37	20570.97
517.54	20395.43
517.72	20556.93
517.89	20608.42
518.06	20666.93
518.24	20706.72
518.41	20720.76
518.58	20781.62
518.75	20912.69
518.93	20816.72
519.10	20872.90
519.27	21027.37
519.45	20959.50
519.62	21006.31
519.79	20971.20
519.96	21223.98
520.14	20987.58
520.31	21245.04
520.48	21518.89
520.65	21291.85
520.83	21483.78
521.00	21425.26
521.17	21252.06
521.34	21546.97
521.52	21537.61
521.69	21469.73
521.86	21649.96
522.03	21846.56
522.20	21790.39
522.38	21965.93
522.55	21921.46
522.72	21879.33
522.89	22368.50
523.07	22153.17
523.24	22295.94
523.41	22134.45
523.58	21876.99
523.75	22342.75
523.92	22106.36
524.10	22242.11
524.27	22129.77
524.44	22656.39
524.61	22485.53
524.78	22405.95
524.96	22288.92
525.13	22492.55
525.30	22499.57
525.47	22525.32
525.64	22597.87
525.81	22817.88
525.98	22911.50
526.16	22869.37
526.33	22649.36
526.50	23014.49
526.67	22712.56
526.84	22843.63
527.01	23063.64
527.18	22937.25
527.36	22895.12
527.53	23112.79
527.70	23445.15
527.87	23648.77
528.04	23257.90
528.21	23227.48
528.38	23225.14
528.55	23140.88
528.72	23454.51
528.89	23145.56
529.07	23161.94
529.24	23356.21
529.41	23496.64
529.58	23585.58
529.75	23630.05
529.92	23463.87
530.09	23482.59
530.26	23857.08
530.43	23522.38
530.60	23494.30
530.77	23658.14
530.94	23896.87
531.11	23995.17
531.28	23765.80
531.46	23704.95
531.63	23850.06
531.80	24027.94
531.97	24020.92
532.14	24313.48
532.31	23761.12
532.48	24079.43
532.65	23955.38
532.82	24159.01
532.99	24116.88
533.16	24130.92
533.33	24491.37
533.50	24730.10
533.67	24297.10
533.84	24460.94
534.01	24217.52
534.18	23971.77
534.35	24638.82
534.52	24283.06
534.69	24840.11
534.86	24442.21
535.03	24318.17
535.20	24704.35
535.37	24886.92
535.54	24751.17
535.71	24847.13
535.88	24435.19
536.05	24573.28
536.22	24938.41
536.38	24746.48
536.55	24875.21
536.72	25170.12
536.89	25039.05
537.06	24919.68
537.23	25329.28
537.40	25027.35
537.57	25013.31
537.74	25046.07
537.91	25415.88
538.08	25516.52
538.25	25263.74
538.42	25287.15
538.59	25127.99
538.75	25111.61
538.92	25029.69
539.09	25570.35
539.26	25610.14
539.43	25060.12
539.60	25558.65
539.77	25418.22
539.94	25860.58
540.11	25387.79
540.28	25654.61
540.44	25350.34
540.61	25727.17
540.78	25633.55
540.95	25825.47
541.12	25694.40
541.29	25628.87
541.46	25493.12
541.62	25584.40
541.79	25811.43
541.96	25722.49
542.13	25919.09
542.30	26195.28
542.47	26150.81
542.63	25865.26
542.80	26043.14
542.97	26202.30
543.14	26244.43
543.31	26331.03
543.48	26345.07
543.64	26679.77
543.81	26663.38
543.98	26586.15
544.15	26450.39
544.32	26417.63
544.48	26780.41
544.65	26614.23
544.82	26546.36
544.99	26190.59
545.16	26356.77
545.32	26656.36
545.49	26979.36
545.66	26768.71
545.83	26897.44
546.00	26782.75
546.16	26878.71
546.33	26761.69
546.50	26225.70
546.67	26738.28
546.83	26665.72
547.00	27136.17
547.17	26754.66
547.34	26934.88
547.50	27126.81
547.67	27307.03
547.84	27260.22
548.00	26944.25
548.17	27103.40
548.34	27154.90
548.51	27295.33
548.67	27180.64
548.84	27393.63
549.01	27475.55
549.18	27285.97
549.34	27239.15
549.51	27276.60
549.68	27129.15
549.84	27094.04
550.01	27208.73
550.18	27063.61
550.34	27623.00
550.51	27725.99
550.68	27772.80
550.84	27395.97
551.01	27573.85
551.18	27634.71
551.34	27328.10
551.51	27292.99
551.68	27356.18
551.84	27604.28
552.01	27531.72
552.18	27882.80
552.34	27417.04
552.51	27417.04
552.68	27688.54
552.84	27880.46
553.01	28039.62
553.18	27749.39
553.34	28081.75
553.51	27772.80
553.67	27931.95
553.84	28233.88
554.01	28170.69
554.17	27960.04
554.34	28023.23
554.51	27903.87
554.67	27690.88
554.84	27461.51
555.00	28065.36
555.17	27995.15
555.33	28018.55
555.50	28077.07
555.67	28173.03
555.83	28130.90
556.00	28493.68
556.16	28582.62
556.33	28556.88
556.50	27948.34
556.66	28477.30
556.83	28400.06
556.99	28659.86
557.16	28823.70
557.32	28584.96
557.49	28774.55
557.65	28100.47
557.82	28128.56
557.98	28266.65
558.15	28402.40
558.32	28620.07
558.48	28694.97
558.65	28641.14
558.81	28716.03
558.98	28496.02
559.14	28669.22
559.31	28100.47
559.47	28416.44
559.64	28666.88
559.80	29010.94
559.97	29312.87
560.13	28720.71
560.30	28790.93
560.46	28795.61
560.63	28769.86
560.79	29205.20
560.96	28699.65
561.12	28978.17
561.29	28446.87
561.45	28631.77
561.61	29046.05
561.78	28673.90
561.94	28664.54
562.11	28980.51
562.27	28950.09
562.44	28788.59
562.60	29062.43
562.77	28896.25
562.93	28533.47
563.10	29067.11
563.26	29057.75
563.42	29284.78
563.59	29153.71
563.75	29209.89
563.92	29017.96
564.08	28800.29
564.24	29252.02
564.41	28751.14
564.57	29172.44
564.74	28842.42
564.90	29120.95
565.07	28896.25
565.23	29092.86
565.39	29198.18
565.56	29270.74
565.72	29097.54
565.88	29214.57
566.05	29125.63
566.21	29223.93
566.38	29099.88
566.54	29347.98
566.70	29490.75
566.87	29556.28
567.03	29303.51
567.19	29521.18
567.36	29254.36
567.52	29104.56
567.68	29144.35
567.85	29326.91
568.01	29567.99
568.17	29340.96
568.34	29235.63
568.50	29488.41
568.66	29317.55
568.83	30029.07
568.99	29296.49
569.15	29453.30
569.32	29413.51
569.48	29488.41
569.64	29312.87
569.81	29397.13
569.97	29261.38
570.13	29912.05
570.30	29488.41
570.46	29874.60
570.62	29380.74
570.78	29448.62
570.95	29301.17
571.11	29259.04
571.27	29535.22
571.43	29635.86
571.60	29773.95
571.76	29949.50
571.92	29228.61
572.09	29780.98
572.25	29839.49
572.41	29329.25
572.57	29652.25
572.74	29956.52
572.90	29472.03
573.06	29345.64
573.22	29582.03
573.38	29565.65
573.55	29638.20
573.71	30024.39
573.87	29806.72
574.03	29926.09
574.20	29795.02
574.36	29380.74
574.52	29317.55
574.68	29628.84
574.84	29532.88
575.01	29685.01
575.17	29921.41
575.33	29717.78
575.49	29717.78
575.65	29874.60
575.82	30024.39
575.98	29411.17
576.14	29930.77
576.30	29930.77
576.46	29638.20
576.62	29607.78
576.79	29806.72
576.95	29827.79
577.11	29708.42
577.27	29479.05
577.43	29682.67
577.59	29731.83
577.75	29661.61
577.92	29837.15
578.08	29544.58
578.24	29851.19
578.40	30120.35
578.56	29783.32
578.72	29605.44
578.88	30106.31
579.04	30057.16
579.21	29511.81
579.37	30199.93
579.53	30082.91
579.69	29535.22
579.85	29656.93
580.01	30015.03
580.17	29549.26
580.33	29797.36
580.49	29893.32
580.65	29998.65
580.82	29734.17
580.98	29762.25
581.14	29778.64
581.30	30160.14
581.46	29858.21
581.62	29991.62
581.78	29523.52
581.94	29820.77
582.10	29841.83
582.26	29811.40
582.42	30125.04
582.58	30015.03
582.74	29834.81
582.90	29649.91
583.06	29790.34
583.22	29813.74
583.38	30113.33
583.54	29638.20
583.70	29792.68
583.86	29986.94
584.02	29617.14
584.18	29694.38
584.34	30293.55
584.50	30246.74
584.66	30340.36
584.82	29617.14
584.98	29825.45
585.14	29673.31
585.30	29935.45
585.46	29680.33
585.62	30118.01
585.78	29759.91
585.94	29535.22
586.10	30012.69
586.26	29909.71
586.42	30054.82
586.58	30326.32
586.74	29883.96
586.90	29865.24
587.06	29766.93
587.22	30148.44
587.38	29570.33
587.54	30115.67
587.70	30218.66
587.86	30230.36
588.02	30213.98
588.18	30424.62
588.34	30157.80
588.49	30419.94
588.65	29722.46
588.81	29741.19
588.97	30031.41
589.13	30253.76
589.29	29785.66
589.45	30473.78
589.61	30448.03
589.77	30363.77
589.93	30649.32
590.08	30698.47
590.24	29963.54
590.40	30684.42
590.56	30328.66
590.72	30312.28
590.88	29830.13
591.04	30302.92
591.20	30377.81
591.35	30703.15
591.51	30462.07
591.67	30417.60
591.83	30476.12
591.99	30195.25
592.15	30298.23
592.31	30134.40
592.46	30277.17
592.62	30181.21
592.78	30085.25
592.94	30139.08
593.10	30305.26
593.26	30199.93
593.41	30171.85
593.57	30228.02
593.73	30265.47
593.89	30340.36
594.05	30551.01
594.20	29961.20
594.36	30419.94
594.52	30630.59
594.68	29975.24
594.84	30232.70
594.99	30534.63
595.15	30408.24
595.31	30749.96
595.47	30703.15
595.62	30719.53
595.78	30382.49
595.94	30668.04
596.10	30412.92
596.25	30391.86
596.41	30096.95
596.57	30312.28
596.73	30576.76
596.88	30286.53
597.04	30635.27
597.20	30958.27
597.36	30644.63
597.51	30831.88
597.67	30499.52
597.83	30305.26
597.99	30740.60
598.14	30134.40
598.30	30340.36
598.46	30307.60
598.61	30501.86
598.77	30431.65
598.93	30838.90
599.09	30492.50
599.24	30897.41
599.40	30895.07
599.56	31197.00
599.71	30635.27
599.87	30466.75
600.03	30501.86
600.18	30057.16
600.34	30525.27
600.50	30408.24
600.65	30651.66
600.81	30581.44
600.97	30799.11
601.12	30885.71
601.28	30948.90
601.44	31061.25
601.59	30813.15
601.75	30672.72
601.91	30742.94
602.06	30366.11
602.22	30719.53
602.37	30391.86
602.53	30504.20
602.69	30644.63
602.84	30859.96
603.00	30567.40
603.16	30621.23
603.31	30323.98
603.47	30607.19
603.62	30749.96
603.78	30459.73
603.94	30452.71
604.09	30562.72
604.25	30328.66
604.40	30438.67
604.56	30742.94
604.71	30618.89
604.87	30661.02
605.03	30532.29
605.18	30433.99
605.34	30787.41
605.49	30323.98
605.65	30352.07
605.80	29820.77
605.96	30513.56
606.12	30174.19
606.27	30679.74
606.43	30263.13
606.58	30792.09
606.74	30520.59
606.89	30848.26
607.05	30712.51
607.20	30710.17
607.36	30389.52
607.51	30349.73
607.67	30567.40
607.82	30293.55
607.98	30515.90
608.13	30141.42
608.29	29996.31
608.44	30361.43
608.60	30492.50
608.75	30424.62
608.91	30476.12
609.06	30218.66
609.22	30623.57
609.37	30064.18
609.53	30033.75
609.68	30103.97
609.84	30562.72
609.99	30476.12
610.15	30298.23
610.30	30469.09
610.46	30359.09
610.61	30513.56
610.76	30206.95
610.92	30115.67
611.07	30396.54
611.23	30263.13
611.38	30139.08
611.54	30038.44
611.69	29961.20
611.84	29802.04
612.00	29825.45
612.15	29879.28
612.31	30218.66
612.46	30321.64
612.62	30661.02
612.77	30213.98
612.92	30167.16
613.08	29673.31
613.23	30370.79
613.39	30380.15
613.54	29965.88
613.69	29757.57
613.85	29874.60
614.00	30068.86
614.15	29961.20
614.31	29851.19
614.46	30022.05
614.62	30235.04
614.77	29647.57
614.92	29869.92
615.08	30110.99
615.23	30045.46
615.38	30309.94
615.54	29434.58
615.69	29617.14
615.84	29610.12
616.00	29699.06
616.15	29617.14
616.30	29860.55
616.46	29638.20
616.61	29860.55
616.76	29937.79
616.92	29607.78
617.07	30169.51
617.22	29703.74
617.37	29511.81
617.53	29605.44
617.68	29900.34
617.83	29511.81
617.99	29539.90
618.14	29635.86
618.29	29553.94
618.45	29715.44
618.60	29233.29
618.75	29713.10
618.90	29453.30
619.06	29591.39
619.21	29731.83
619.36	30005.67
619.51	29373.72
619.67	29151.37
619.82	29095.20
619.97	29614.80
620.12	29024.98
620.28	29039.03
620.43	29593.73
620.58	29792.68
620.73	29488.41
620.89	29448.62
621.04	29446.28
621.19	29575.01
621.34	29472.03
621.49	29184.14
621.65	29223.93
621.80	29596.07
621.95	29062.43
622.10	29390.11
622.25	28994.56
622.41	29280.10
622.56	29067.11
622.71	29205.20
622.86	29106.90
623.01	29249.67
623.16	29039.03
623.32	29516.50
623.47	29034.35
623.62	29312.87
623.77	29193.50
623.92	29268.40
624.07	29165.42
624.23	28837.74
624.38	29284.78
624.53	28847.10
624.68	29228.61
624.83	29254.36
624.98	29048.39
625.13	29008.60
625.29	29305.85
625.44	28877.53
625.59	28978.17
625.74	28779.23
625.89	28666.88
626.04	28596.67
626.19	28503.04
626.34	28767.52
626.49	28503.04
626.65	28657.52
626.80	28851.78
626.95	28835.40
627.10	28584.96
627.25	28678.58
627.40	28266.65
627.55	28629.43
627.70	28341.55
627.85	28797.95
628.00	28676.24
628.15	28507.72
628.30	28297.08
628.45	28201.11
628.60	28671.56
628.76	28608.37
628.91	28404.74
629.06	27999.83
629.21	28493.68
629.36	28620.07
629.51	28444.53
629.66	28189.41
629.81	28268.99
629.96	28044.30
630.11	28294.74
630.26	28191.75
630.41	28315.80
630.56	27655.77
630.71	28594.32
630.86	28030.26
631.01	28613.05
631.16	28503.04
631.31	28189.41
631.46	27840.67
631.61	28154.30
631.76	28140.26
631.91	27887.48
632.06	27906.21
632.21	27995.15
632.36	28020.89
632.51	27840.67
632.66	28151.96
632.81	28058.34
632.96	28060.68
633.10	28105.15
633.25	28308.78
633.40	27782.16
633.55	27957.70
633.70	27618.32
633.85	27777.48
634.00	27634.71
634.15	27363.20
634.30	27655.77
634.45	27990.47
634.60	27496.61
634.75	27435.76
634.90	27400.65
635.05	28100.47
635.19	27758.75
635.34	28077.07
635.49	27534.06
635.64	27761.09
635.79	27906.21
635.94	27896.85
636.09	27821.95
636.24	27552.79
636.39	27606.62
636.53	27531.72
636.68	27381.93
636.83	27384.27
636.98	27459.16
637.13	27557.47
637.28	27536.40
637.43	27613.64
637.57	27302.35
637.72	27611.30
637.87	27517.68
638.02	27332.78
638.17	27379.59
638.32	27243.84
638.46	27063.61
638.61	27175.96
638.76	27140.85
638.91	27213.41
639.06	27311.71
639.20	27218.09
639.35	27072.98
639.50	27414.69
639.65	27550.45
639.80	27688.54
639.94	27428.74
640.09	27009.78
640.24	27550.45
640.39	27007.44
640.54	26586.15
640.68	27063.61
640.83	26909.14
640.98	27161.92
641.13	26441.03
641.27	26946.59
641.42	26789.77
641.57	26944.25
641.72	27227.45
641.86	27192.34
642.01	26504.23
642.16	26806.16
642.31	26958.29
642.45	27056.59
642.60	26485.50
642.75	26909.14
642.90	26859.99
643.04	26778.07
643.19	26785.09
643.34	26705.51
643.48	26611.89
643.63	26724.24
643.78	26637.64
643.93	26761.69
644.07	26939.57
644.22	26927.86
644.37	26663.38
644.51	26859.99
644.66	26757.00
644.81	26401.24
644.95	26497.20
645.10	26581.46
645.25	26726.58
645.39	26443.37
645.54	26576.78
645.69	26525.29
645.83	26670.40
645.98	26398.90
646.13	26803.82
646.27	26534.65
646.42	26199.96
646.57	26235.06
646.71	26464.44
646.86	26412.95
647.00	26314.64
647.15	26410.60
647.30	26424.65
647.44	26228.04
647.59	26370.82
647.74	26253.79
647.88	26434.01
648.03	26611.89
648.17	26153.15
648.32	26450.39
648.47	26459.76
648.61	26345.07
648.76	26342.73
648.90	26101.65
649.05	26478.48
649.20	26307.62
649.34	26017.40
649.49	26015.05
649.63	26094.63
649.78	25748.23
649.92	26199.96
650.07	26366.13
650.21	26071.23
650.36	25965.90
650.51	25762.28
650.65	25820.79
650.80	25909.73
650.94	25820.79
651.09	25764.62
651.23	25530.56
651.38	25663.97
651.52	25841.85
651.67	25933.14
651.81	25862.92
651.96	25872.28
652.10	26239.75
652.25	25645.25
652.39	26066.55
652.54	25706.10
652.68	25860.58
652.83	25682.70
652.97	26005.69
653.12	26029.10
653.26	25743.55
653.41	25635.89
653.55	25748.23
653.70	25546.95
653.84	25373.75
653.99	25598.44
654.13	25390.13
654.27	25383.11
654.42	25427.58
654.56	25420.56
654.71	25738.87
654.85	25530.56
655.00	25551.63
655.14	25589.08
655.29	25647.59
655.43	25568.01
655.57	25600.78
655.72	25240.34
655.86	25376.09
656.01	25345.66
656.15	25287.15
656.30	25745.89
656.44	25532.90
656.58	25057.78
656.73	24964.15
656.87	25177.14
657.01	25415.88
657.16	25319.92
657.30	25626.53
657.45	25043.73
657.59	25502.48
657.73	25006.28
657.88	25338.64
658.02	24989.90
658.16	25041.39
658.31	25088.20
658.45	25111.61
658.60	24439.87
658.74	25167.78
658.88	24807.34
659.03	24907.98
659.17	24875.21
659.31	25387.79
659.46	24577.97
659.60	25032.03
659.74	25076.50
659.89	24797.98
660.03	24886.92
660.17	24680.95
660.32	24465.62
660.46	24774.57
660.60	24547.54
660.74	24652.86
660.89	24835.42
661.03	24407.11
661.17	24304.12
661.32	24390.72
661.46	24467.96
661.60	24056.03
661.74	24517.11
661.89	24690.31
662.03	24299.44
662.17	24067.73
662.31	24116.88
662.46	24353.27
662.60	24088.79
662.74	24163.69
662.88	24168.37
663.03	24112.20
663.17	23843.04
663.31	23789.20
663.45	24044.32
663.60	23969.43
663.74	23438.12
663.88	24191.78
664.02	23798.57
664.17	24070.07
664.31	23868.78
664.45	23812.61
664.59	23903.89
664.73	23957.72
664.88	23772.82
665.02	23377.27
665.16	23875.80
665.30	23789.20
665.44	23379.61
665.59	23225.14
665.73	23150.24
665.87	23316.42
666.01	23557.49
666.15	23239.18
666.29	23372.59
666.44	23309.40
666.58	23094.07
666.72	23227.48
666.86	23206.41
667.00	23384.29
667.14	23335.14
667.28	23187.69
667.43	22831.93
667.57	23318.76
667.71	22878.74
667.85	23028.53
667.99	23229.82
668.13	22686.81
668.27	23058.96
668.41	23063.64
668.56	22972.36
668.70	22731.28
668.84	22906.82
668.98	23229.82
669.12	22642.34
669.26	22693.83
669.40	22895.12
669.54	22754.69
669.68	22682.13
669.82	22328.71
669.96	22728.94
670.10	22312.33
670.25	22530.00
670.39	22370.84
670.53	22237.43
670.67	22284.24
670.81	22176.58
670.95	22354.46
671.09	22207.00
671.23	22263.18
671.37	22162.53
671.51	22298.28
671.65	22265.52
671.79	22295.94
671.93	22094.66
672.07	22010.40
672.21	21898.05
672.35	21453.35
672.49	21656.98
672.63	21429.94
672.77	21706.13
672.91	21736.56
673.05	21549.31
673.19	21813.79
673.33	21647.61
673.47	21336.32
673.61	21516.54
673.75	21699.11
673.89	21762.30
674.03	21364.41
674.17	21582.08
674.31	21556.33
674.45	21549.31
674.59	21434.63
674.73	21362.07
674.87	21146.74
675.01	21263.77
675.15	21118.65
675.29	21071.84
675.43	20961.84
675.56	20957.16
675.70	20929.07
675.84	20507.77
675.98	20285.42
676.12	20896.30
676.26	20638.84
676.40	20690.34
676.54	20713.74
676.68	20531.18
676.82	20411.81
676.96	20210.53
677.10	20545.22
677.23	20095.84
677.37	20049.03
677.51	20128.61
677.65	20042.01
677.79	20154.35
677.93	20294.79
678.07	19829.02
678.21	19601.99
678.34	19866.47
678.48	19765.82
678.62	19894.55
678.76	19819.66
678.90	19754.12
679.04	19489.64
679.18	19477.94
679.31	19005.15
679.45	19227.50
679.59	19199.41
679.73	19396.02
679.87	19168.99
680.00	18995.79
680.14	19115.16
680.28	19073.03
680.42	19087.07
680.56	19491.98
680.70	18958.34
680.83	18888.12
680.97	18698.54
681.11	18824.93
681.25	18956.00
681.39	18728.97
681.52	18843.65
681.66	18562.79
681.80	18623.64
681.94	18263.20
682.07	18427.04
682.21	18452.78
682.35	17996.38
682.49	17851.27
682.62	18134.47
682.76	18043.19
682.90	18204.69
683.04	18068.94
683.17	17914.46
683.31	17834.88
683.45	18274.90
683.59	17907.44
683.72	17783.39
683.86	17823.18
684.00	17511.89
684.13	17701.47
684.27	17734.24
684.41	17446.35
684.55	17242.73
684.68	17050.80
684.82	17001.65
684.96	17240.39
685.09	17001.65
685.23	17125.70
685.37	17160.81
685.50	17263.79
685.64	17212.30
685.78	17013.35
685.91	17050.80
686.05	17015.69
686.19	16741.85
686.32	17062.51
686.46	16702.06
686.60	16299.49
686.73	16592.06
686.87	16500.78
687.01	16547.59
687.14	16634.19
687.28	16329.92
687.42	16397.79
687.55	16217.57
687.69	16341.62
687.82	16088.84
687.96	16248.00
688.10	15957.77
688.23	15962.45
688.37	15758.83
688.50	16067.78
688.64	15960.11
688.78	16011.60
688.91	15819.68
689.05	15779.89
689.18	15557.54
689.32	15307.10
689.46	15339.87
689.59	15082.41
689.73	15494.35
689.86	15178.37
690.00	15213.48
690.13	15145.61
690.27	15185.40
690.41	15183.06
690.54	15147.95
690.68	15080.07
690.81	14984.11
690.95	14960.70
691.08	15044.96
691.22	14960.70
691.35	15014.54
691.49	14885.81
691.62	14764.10
691.76	14703.25
691.89	14459.83
692.03	14317.06
692.16	14476.21
692.30	14377.91
692.43	14347.48
692.57	14232.80
692.70	14113.43
692.84	14129.81
692.97	14164.92
693.11	14183.65
693.24	14211.73
693.38	14139.18
693.51	14097.05
693.65	13905.12
693.78	13914.48
693.92	13820.86
694.05	13933.21
694.19	13476.80
694.32	13635.96
694.45	13413.61
694.59	13551.70
694.72	13542.34
694.86	13521.27
694.99	13385.52
695.13	13195.94
695.26	13207.64
695.39	12936.14
695.53	13022.74
695.66	13256.79
695.80	13191.26
695.93	13336.37
696.07	13245.09
696.20	13137.43
696.33	13022.74
696.47	12758.26
696.60	12772.30
696.73	12589.74
696.87	12676.34
697.00	12725.49
697.14	12233.98
697.27	12397.82
697.40	12372.07
697.54	12376.75
697.67	12231.64
697.80	12280.79
697.94	12304.20
698.07	12119.29
698.21	12203.55
698.34	12222.28
698.47	12198.87
698.61	12095.89
698.74	12182.49
698.87	12147.38
699.01	11969.50
699.14	11770.55
699.27	11749.49
699.40	11899.28
699.54	11634.80
699.67	11719.06
699.80	11449.90
699.94	11538.84
700.07	11363.30
700.20	11426.50
700.34	11241.59
700.47	11232.23
700.60	11527.14
700.73	11440.54
700.87	11129.25
701.00	11021.58
701.13	11300.11
701.26	11000.52
701.40	11342.24
701.53	11267.34
701.66	10946.69
701.79	10820.30
701.93	10878.81
702.06	10567.52
702.19	10696.25
702.32	10785.19
702.46	10562.84
702.59	10506.66
702.72	10413.04
702.85	10260.91
702.99	10541.77
703.12	10429.43
703.25	10321.76
703.38	10377.94
703.51	10286.65
703.65	10176.65
703.78	10209.42
703.91	10047.92
704.04	10347.51
704.17	10113.45
704.31	10064.30
704.44	10155.58
704.57	9909.83
704.70	9643.01
704.83	9881.74
704.96	9848.97
705.10	9748.33
705.23	9724.93
>>>>>End Processed Spectral Data<<<<<
