SpectraSuite Data File
++++++++++++++++++++++++++++++++++++
Date: Fri Oct 18 13:58:38 GMT-05:00 2013
User: bianchi
Dark Spectrum Present: No
Reference Spectrum Present: No
Number of Sampled Component Spectra: 1
Spectrometers: USB2+H05261
Integration Time (usec): 50000 (USB2+H05261)
Spectra Averaged: 1 (USB2+H05261)
Boxcar Smoothing: 0 (USB2+H05261)
Correct for Electrical Dark: No (USB2+H05261)
Strobe/Lamp Enabled: No (USB2+H05261)
Correct for Detector Non-linearity: No (USB2+H05261)
Correct for Stray Light: No (USB2+H05261)
Number of Pixels in Processed Spectrum: 2048
>>>>>Begin Processed Spectral Data<<<<<
365.73	0.00
365.92	0.00
366.12	0.00
366.32	0.00
366.52	0.00
366.72	0.00
366.91	0.00
367.11	0.00
367.31	0.00
367.51	0.00
367.70	0.00
367.90	0.00
368.10	0.00
368.30	0.00
368.49	0.00
368.69	0.00
368.89	0.00
369.09	0.00
369.28	0.00
369.48	0.00
369.68	0.00
369.87	0.00
370.07	0.00
370.27	0.00
370.47	0.00
370.66	88.94
370.86	65.54
371.06	86.60
371.25	177.88
371.45	84.26
371.65	161.50
371.84	175.54
372.04	98.30
372.24	175.54
372.44	159.16
372.63	191.92
372.83	245.76
373.03	173.20
373.22	142.77
373.42	210.65
373.62	163.84
373.81	159.16
374.01	241.08
374.21	294.91
374.40	252.78
374.60	269.16
374.79	297.25
374.99	245.76
375.19	257.46
375.38	245.76
375.58	203.63
375.78	227.03
375.97	212.99
376.17	297.25
376.37	241.08
376.56	212.99
376.76	234.05
376.95	245.76
377.15	318.31
377.35	266.82
377.54	332.36
377.74	273.84
377.93	278.52
378.13	334.70
378.33	322.99
378.52	271.50
378.72	287.89
378.91	313.63
379.11	287.89
379.31	348.74
379.50	280.86
379.70	283.20
379.89	292.57
380.09	369.80
380.28	245.76
380.48	327.68
380.68	264.48
380.87	255.12
381.07	306.61
381.26	294.91
381.46	320.65
381.65	351.08
381.85	285.55
382.04	248.10
382.24	337.04
382.43	330.02
382.63	395.55
382.83	402.57
383.02	313.63
383.22	367.46
383.41	290.23
383.61	402.57
383.80	351.08
384.00	418.96
384.19	369.80
384.39	367.46
384.58	344.06
384.78	372.15
384.97	390.87
385.17	381.51
385.36	379.17
385.56	367.46
385.75	381.51
385.95	400.23
386.14	383.85
386.34	327.68
386.53	414.27
386.72	379.17
386.92	404.91
387.11	383.85
387.31	416.62
387.50	423.64
387.70	425.98
387.89	287.89
388.09	369.80
388.28	451.72
388.48	393.21
388.67	447.04
388.86	337.04
389.06	421.30
389.25	433.00
389.45	433.00
389.64	458.74
389.84	500.87
390.03	540.66
390.22	447.04
390.42	433.00
390.61	423.64
390.81	465.77
391.00	519.60
391.19	503.22
391.39	383.85
391.58	500.87
391.78	503.22
391.97	540.66
392.16	517.26
392.36	573.43
392.55	498.53
392.75	533.64
392.94	561.73
393.13	540.66
393.33	589.82
393.52	479.81
393.71	638.97
393.91	554.71
394.10	540.66
394.29	552.37
394.49	517.26
394.68	550.03
394.88	645.99
395.07	606.20
395.26	550.03
395.46	660.03
395.65	599.18
395.84	580.45
396.04	648.33
396.23	699.82
396.42	622.58
396.62	664.71
396.81	681.10
397.00	585.13
397.19	589.82
397.39	634.29
397.58	692.80
397.77	667.05
397.97	697.48
398.16	664.71
398.35	678.76
398.55	695.14
398.74	643.65
398.93	692.80
399.12	667.05
399.32	711.52
399.51	690.46
399.70	800.46
399.90	709.18
400.09	748.97
400.28	781.74
400.47	814.51
400.67	725.57
400.86	739.61
401.05	763.01
401.24	849.61
401.44	725.57
401.63	758.33
401.82	819.19
402.01	748.97
402.21	833.23
402.40	781.74
402.59	777.06
402.78	858.98
402.97	814.51
403.17	791.10
403.36	847.27
403.55	884.72
403.74	863.66
403.93	884.72
404.13	919.83
404.32	835.57
404.51	887.06
404.70	978.34
404.89	964.30
405.09	929.19
405.28	875.36
405.47	894.08
405.66	868.34
405.85	994.73
406.05	983.02
406.24	924.51
406.43	1069.62
406.62	976.00
406.81	1069.62
407.00	966.64
407.20	1046.22
407.39	945.58
407.58	1034.52
407.77	971.32
407.96	1076.65
408.15	1057.92
408.34	1062.60
408.54	1104.73
408.73	1078.99
408.92	1151.54
409.11	1071.97
409.30	1086.01
409.49	1062.60
409.68	1032.18
409.87	1118.78
410.07	1097.71
410.26	1132.82
410.45	1263.89
410.64	1125.80
410.83	1212.40
411.02	1259.21
411.21	1247.51
411.40	1174.95
411.59	1341.13
411.78	1322.40
411.98	1196.01
412.17	1235.80
412.36	1289.64
412.55	1357.51
412.74	1336.45
412.93	1341.13
413.12	1322.40
413.31	1345.81
413.50	1413.68
413.69	1394.96
413.88	1397.30
414.07	1390.28
414.26	1397.30
414.45	1462.83
414.64	1409.00
414.83	1413.68
415.02	1540.07
415.22	1519.01
415.41	1591.56
415.60	1575.18
415.79	1568.16
415.98	1549.43
416.17	1614.97
416.36	1526.03
416.55	1596.25
416.74	1650.08
416.93	1624.33
417.12	1589.22
417.31	1701.57
417.50	1621.99
417.69	1722.63
417.88	1675.82
418.07	1682.85
418.26	1769.44
418.45	1724.97
418.64	1757.74
418.83	1722.63
419.02	1781.15
419.21	1813.92
419.39	1741.36
419.58	1767.10
419.77	1823.28
419.96	1877.11
420.15	1858.39
420.34	1743.70
420.53	1956.69
420.72	1867.75
420.91	1860.73
421.10	1928.60
421.29	1942.64
421.48	1891.15
421.67	1898.17
421.86	1959.03
422.05	1966.05
422.24	1947.33
422.43	2040.95
422.61	1966.05
422.80	2071.37
422.99	2015.20
423.18	1856.04
423.37	1954.35
423.56	2031.58
423.75	2019.88
423.94	1888.81
424.13	1813.92
424.32	1914.56
424.50	2010.52
424.69	2069.03
424.88	2097.12
425.07	2043.29
425.26	2076.06
425.45	1989.46
425.64	2015.20
425.83	2071.37
426.01	2045.63
426.20	2057.33
426.39	1982.43
426.58	2017.54
426.77	2108.82
426.96	2155.63
427.15	2176.70
427.33	2097.12
427.52	2106.48
427.71	2310.11
427.90	2202.44
428.09	2136.91
428.28	2062.01
428.46	2195.42
428.65	2202.44
428.84	2183.72
429.03	2251.60
429.22	2162.66
429.40	2209.47
429.59	2235.21
429.78	2094.78
429.97	2113.50
430.16	2263.30
430.34	2249.25
430.53	2347.56
430.72	2246.91
430.91	2272.66
431.10	2202.44
431.28	2342.88
431.47	2389.69
431.66	2354.58
431.85	2363.94
432.03	2441.18
432.22	2450.54
432.41	2328.83
432.60	2452.88
432.79	2471.61
432.97	2434.16
433.16	2438.84
433.35	2410.75
433.54	2513.74
433.72	2544.16
433.91	2424.80
434.10	2471.61
434.28	2457.56
434.47	2406.07
434.66	2541.82
434.85	2665.87
435.03	2605.02
435.22	2612.04
435.41	2661.19
435.59	2537.14
435.78	2558.21
435.97	2698.64
436.16	2586.29
436.34	2586.29
436.53	2672.89
436.72	2689.28
436.90	2672.89
437.09	2726.72
437.28	2630.76
437.46	2623.74
437.65	2736.09
437.84	2787.58
438.02	2843.75
438.21	2876.52
438.40	2724.38
438.58	2738.43
438.77	2911.63
438.96	2967.80
439.14	2995.89
439.33	2867.16
439.52	2993.55
439.70	2956.10
439.89	3000.57
440.08	3054.40
440.26	3005.25
440.45	2937.37
440.63	3094.19
440.82	3014.61
441.01	3105.89
441.19	3077.80
441.38	3145.68
441.57	3190.15
441.75	3159.72
441.94	3349.31
442.12	3225.26
442.31	3255.69
442.50	3187.81
442.68	3211.22
442.87	3251.00
443.05	3396.12
443.24	3393.78
443.43	3311.86
443.61	3407.82
443.80	3487.40
443.98	3332.92
444.17	3152.70
444.35	3398.46
444.54	3325.90
444.73	3346.97
444.91	3389.10
445.10	3279.09
445.28	3372.71
445.47	3283.77
445.65	3403.14
445.84	3433.57
446.02	3379.73
446.21	3339.94
446.39	3433.57
446.58	3487.40
446.77	3545.91
446.95	3386.76
447.14	3463.99
447.32	3630.17
447.51	3414.84
447.69	3489.74
447.88	3499.10
448.06	3506.12
448.25	3606.77
448.43	3522.51
448.62	3524.85
448.80	3531.87
448.99	3538.89
449.17	3676.98
449.36	3545.91
449.54	3508.46
449.73	3581.02
449.91	3606.77
450.10	3660.60
450.28	3665.28
450.46	3595.06
450.65	3655.92
450.83	3665.28
451.02	3794.01
451.20	3899.33
451.39	3779.97
451.57	3784.65
451.76	3751.88
451.94	3679.32
452.13	3707.41
452.31	3824.44
452.49	3674.64
452.68	3805.71
452.86	3831.46
453.05	3833.80
453.23	3985.93
453.42	3941.46
453.60	3819.75
453.78	3908.69
453.97	3749.54
454.15	3854.86
454.34	3843.16
454.52	3918.06
454.70	3819.75
454.89	4025.72
455.07	4016.36
455.26	4037.42
455.44	4102.96
455.62	4018.70
455.81	4014.02
455.99	4074.87
456.17	3925.08
456.36	4147.43
456.54	4117.00
456.73	4119.34
456.91	4395.53
457.09	4339.35
457.28	4276.16
457.46	4248.07
457.64	4440.00
457.83	4259.78
458.01	4264.46
458.19	4491.49
458.38	4301.90
458.56	4358.08
458.74	4355.74
458.93	4231.69
459.11	4292.54
459.29	4442.34
459.48	4545.32
459.66	4400.21
459.84	4440.00
460.03	4477.44
460.21	4514.89
460.39	4603.83
460.57	4456.38
460.76	4442.34
460.94	4542.98
461.12	4643.62
461.31	4566.39
461.49	4603.83
461.67	4531.28
461.85	4582.77
462.04	4596.81
462.22	4854.27
462.40	4702.14
462.59	4699.80
462.77	4681.07
462.95	4753.63
463.13	4821.50
463.32	4807.46
463.50	4802.78
463.68	4744.27
463.86	4690.43
464.05	4695.11
464.23	4706.82
464.41	4809.80
464.59	4676.39
464.78	4964.28
464.96	5029.81
465.14	4812.14
465.32	4985.34
465.50	4837.89
465.69	4966.62
465.87	4880.02
466.05	4889.38
466.23	4975.98
466.41	4786.40
466.60	5205.35
466.78	4936.19
466.96	4891.72
467.14	5064.92
467.32	5118.75
467.51	5156.20
467.69	4891.72
467.87	5111.73
468.05	5181.95
468.23	5142.16
468.41	5055.56
468.60	5088.32
468.78	5083.64
468.96	5095.35
469.14	5399.62
469.32	5240.46
469.50	5130.45
469.69	5217.05
469.87	5282.59
470.05	5305.99
470.23	5254.50
470.41	5310.68
470.59	5411.32
470.77	5394.93
470.95	5343.44
471.14	5406.64
471.32	5352.81
471.50	5385.57
471.68	5345.78
471.86	5551.75
472.04	5626.65
472.22	5624.31
472.40	5617.29
472.58	5940.28
472.77	5734.31
472.95	5785.80
473.13	6040.92
473.31	5905.17
473.49	5699.20
473.67	5846.66
473.85	5753.04
474.03	6085.39
474.21	6104.12
474.39	6073.69
474.57	5806.87
474.75	6052.63
474.93	6148.59
475.12	6143.91
475.30	6207.10
475.48	6176.67
475.66	6303.06
475.84	6160.29
476.02	6296.04
476.20	6214.12
476.38	6462.22
476.56	6490.31
476.74	6689.25
476.92	6502.01
477.10	6373.28
477.28	6483.28
477.46	6494.99
477.64	6726.70
477.82	6745.42
478.00	6939.69
478.18	6857.77
478.36	6773.51
478.54	6953.73
478.72	7002.88
478.90	7016.93
479.08	7211.19
479.26	7166.72
479.44	7358.64
479.62	7253.32
479.80	7332.90
479.98	7314.17
480.16	7386.73
480.34	7403.11
480.52	7665.25
480.70	7557.59
480.88	7407.80
481.06	7508.44
481.24	7508.44
481.41	7740.15
481.59	7707.38
481.77	7845.48
481.95	8067.83
482.13	7899.31
482.31	7995.27
482.49	8360.39
482.67	8056.12
482.85	8259.75
483.03	8245.71
483.21	8383.80
483.39	8528.91
483.57	8566.36
483.74	8760.63
483.92	8568.70
484.10	8844.88
484.28	8760.63
484.46	8889.35
484.64	8795.73
484.82	8936.17
485.00	9217.03
485.18	8912.76
485.35	9289.59
485.53	9310.65
485.71	9287.25
485.89	9624.28
486.07	9245.12
486.25	9364.48
486.43	9577.47
486.61	9544.70
486.78	9825.57
486.96	9891.10
487.14	9949.62
487.32	9916.85
487.50	10083.03
487.68	10097.07
487.85	10207.08
488.03	10279.63
488.21	10457.51
488.39	10279.63
488.57	10431.77
488.75	10693.91
488.92	10899.87
489.10	10757.10
489.28	10815.62
489.46	10820.30
489.64	10869.45
489.81	11124.57
489.99	11192.44
490.17	11023.92
490.35	11477.99
490.53	11279.04
490.70	11538.84
490.88	11473.31
491.06	11672.25
491.24	11679.27
491.41	11426.50
491.59	11690.98
491.77	11910.99
491.95	11910.99
492.13	12304.20
492.30	11742.47
492.48	12121.63
492.66	12002.27
492.84	12285.47
493.01	12306.54
493.19	12395.48
493.37	12573.36
493.54	12486.76
493.72	12458.67
493.90	12606.13
494.08	12830.82
494.25	12980.61
494.43	12996.99
494.61	13020.40
494.79	13172.54
494.96	13345.73
495.14	13472.12
495.32	13378.50
495.49	13441.70
495.67	13523.62
495.85	13668.73
496.02	13710.86
496.20	13692.13
496.38	13886.40
496.55	13701.50
496.73	14178.97
496.91	14005.77
497.09	13935.55
497.26	13930.87
497.44	14136.84
497.62	14232.80
497.79	14263.22
497.97	14321.74
498.14	14267.91
498.32	14626.01
498.50	14621.33
498.67	14860.06
498.85	14890.49
499.03	14937.30
499.20	14909.21
499.38	14995.81
499.56	15084.75
499.73	15431.15
499.91	15241.57
500.08	15220.50
500.26	15192.42
500.44	15236.89
500.61	15777.55
500.79	15342.21
500.97	15513.07
501.14	15784.57
501.32	15594.99
501.49	15754.15
501.67	15728.40
501.84	15913.30
502.02	15695.63
502.20	16074.80
502.37	16030.33
502.55	15812.66
502.72	15955.43
502.90	16011.60
503.07	15908.62
503.25	15901.60
503.43	16194.17
503.60	16339.28
503.78	16126.29
503.95	16350.98
504.13	16446.94
504.30	16390.77
504.48	16683.34
504.65	16388.43
504.83	16498.44
505.01	16851.86
505.18	16666.95
505.36	16924.41
505.53	16627.17
505.71	16905.69
505.88	16975.91
506.06	16851.86
506.23	16896.33
506.41	17048.46
506.58	17451.03
506.76	17104.64
506.93	17034.42
507.11	17345.71
507.28	17542.32
507.46	17181.87
507.63	17802.11
507.81	17717.86
507.98	17303.58
508.16	17605.51
508.33	17291.88
508.50	17678.07
508.68	17708.49
508.85	17860.63
509.03	17600.83
509.20	17837.22
509.38	18279.58
509.55	18223.41
509.73	17902.76
509.90	17921.48
510.08	18331.08
510.25	18087.66
510.42	18415.34
510.60	18518.32
510.77	18679.82
510.95	18363.84
511.12	18539.38
511.30	18480.87
511.47	18506.62
511.64	18504.28
511.82	18759.39
511.99	18712.58
512.17	18995.79
512.34	18843.65
512.51	18827.27
512.69	19112.81
512.86	18855.36
513.04	19477.94
513.21	19264.95
513.38	19122.18
513.56	19293.04
513.73	18970.04
513.90	19201.76
514.08	19199.41
514.25	19187.71
514.43	19775.19
514.60	19601.99
514.77	19644.12
514.95	19864.13
515.12	19674.54
515.29	19782.21
515.47	19796.25
515.64	19800.93
515.81	19927.32
515.99	20250.32
516.16	20168.40
516.33	20002.22
516.51	20011.58
516.68	19847.74
516.85	20091.16
517.03	20329.89
517.20	20109.88
517.37	20196.48
517.54	20276.06
517.72	20449.26
517.89	20533.52
518.06	20231.59
518.24	20430.54
518.41	20381.38
518.58	20519.48
518.75	20585.01
518.93	20662.25
519.10	20500.75
519.27	21029.71
519.45	20814.38
519.62	20615.44
519.79	20772.25
519.96	21125.68
520.14	21130.36
520.31	20711.40
520.48	21511.86
520.65	21186.53
520.83	20872.90
521.00	21387.82
521.17	21202.91
521.34	21451.01
521.52	21198.23
521.69	21062.48
521.86	21612.51
522.03	21317.60
522.20	21387.82
522.38	21699.11
522.55	21731.87
522.72	21694.43
522.89	21802.09
523.07	21912.10
523.24	21654.64
523.41	21923.80
523.58	21977.63
523.75	21984.65
523.92	21748.26
524.10	21729.53
524.27	21738.90
524.44	22408.29
524.61	22136.79
524.78	22342.75
524.96	22459.78
525.13	22380.20
525.30	22410.63
525.47	22293.60
525.64	22398.93
525.81	22295.94
525.98	22515.95
526.16	22040.82
526.33	22419.99
526.50	22565.10
526.67	22567.45
526.84	22288.92
527.01	22696.17
527.18	22766.39
527.36	22682.13
527.53	22696.17
527.70	23255.56
527.87	22970.02
528.04	22827.24
528.21	22483.19
528.38	22801.50
528.55	22906.82
528.72	23304.71
528.89	23056.62
529.07	23131.51
529.24	23218.11
529.41	23414.72
529.58	23522.38
529.75	23168.96
529.92	23552.81
530.09	23445.15
530.26	23611.32
530.43	23552.81
530.60	23316.42
530.77	23328.12
530.94	23763.46
531.11	23330.46
531.28	23690.90
531.46	23297.69
531.63	23896.87
531.80	23676.86
531.97	24056.03
532.14	23850.06
532.31	23571.54
532.48	23576.22
532.65	23604.30
532.82	23765.80
532.99	23924.96
533.16	23868.78
533.33	24194.12
533.50	24187.10
533.67	24016.24
533.84	24297.10
534.01	24404.77
534.18	23733.03
534.35	24662.22
534.52	24187.10
534.69	24353.27
534.86	24360.30
535.03	24285.40
535.20	24224.54
535.37	24313.48
535.54	24425.83
535.71	24425.83
535.88	24622.44
536.05	24517.11
536.22	24437.53
536.38	24498.39
536.55	24840.11
536.72	24517.11
536.89	24570.94
537.06	24627.12
537.23	24929.05
537.40	24615.41
537.57	24737.12
537.74	24966.49
537.91	24971.18
538.08	25120.97
538.25	24905.64
538.42	25104.59
538.59	25223.95
538.75	25069.48
538.92	24776.91
539.09	25046.07
539.26	25233.32
539.43	25362.04
539.60	25259.06
539.77	25202.89
539.94	25167.78
540.11	25593.76
540.28	25535.24
540.44	25287.15
540.61	25472.05
540.78	25296.51
540.95	25429.92
541.12	25357.36
541.29	25493.12
541.46	25310.55
541.62	25462.69
541.79	25390.13
541.96	25380.77
542.13	25708.44
542.30	25612.48
542.47	25972.92
542.63	25699.08
542.80	25708.44
542.97	26307.62
543.14	25968.24
543.31	25928.45
543.48	26031.44
543.64	26235.06
543.81	25865.26
543.98	26366.13
544.15	26286.56
544.32	26429.33
544.48	26412.95
544.65	26153.15
544.82	26387.20
544.99	26054.84
545.16	26316.98
545.32	26082.93
545.49	26476.14
545.66	26457.42
545.83	26153.15
546.00	26312.30
546.16	26473.80
546.33	26391.88
546.50	26022.08
546.67	26504.23
546.83	25942.50
547.00	26368.48
547.17	26691.47
547.34	26569.76
547.50	26478.48
547.67	26771.05
547.84	26745.30
548.00	26773.39
548.17	27005.10
548.34	27007.44
548.51	26771.05
548.67	27122.13
548.84	27204.05
549.01	26927.86
549.18	27051.91
549.34	26618.91
549.51	26843.60
549.68	26728.92
549.84	26721.90
550.01	26597.85
550.18	26888.07
550.34	27253.20
550.51	27311.71
550.68	27194.68
550.84	27325.75
551.01	27557.47
551.18	26895.10
551.34	26703.17
551.51	26993.40
551.68	27679.18
551.84	27370.22
552.01	27222.77
552.18	27660.45
552.34	27269.58
552.51	27576.19
552.68	26932.54
552.84	27674.49
553.01	27395.97
553.18	27180.64
553.34	28196.43
553.51	27597.26
553.67	27449.80
553.84	27833.65
554.01	27908.55
554.17	28041.96
554.34	27618.32
554.51	27580.87
554.67	27840.67
554.84	27611.30
555.00	27889.82
555.17	28081.75
555.33	27971.74
555.50	27679.18
555.67	27868.76
555.83	27541.08
556.00	27775.14
556.16	28011.53
556.33	27770.46
556.50	27683.86
556.66	27814.93
556.83	28030.26
556.99	28280.69
557.16	28421.13
557.32	28023.23
557.49	28442.19
557.65	27793.86
557.82	27758.75
557.98	28451.55
558.15	28105.15
558.32	28126.22
558.48	28025.57
558.65	28299.42
558.81	28594.32
558.98	28063.02
559.14	28381.34
559.31	28170.69
559.47	28332.18
559.64	28322.82
559.80	28250.27
559.97	28648.16
560.13	28507.72
560.30	28404.74
560.46	28631.77
560.63	28428.15
560.79	28673.90
560.96	28175.37
561.12	28430.49
561.29	28290.06
561.45	28402.40
561.61	28617.73
561.78	28545.17
561.94	29069.45
562.11	28833.06
562.27	28697.31
562.44	28465.60
562.60	28465.60
562.77	28697.31
562.93	28535.81
563.10	28833.06
563.26	28524.11
563.42	28854.12
563.59	28589.64
563.75	28224.52
563.92	28926.68
564.08	28470.28
564.24	28662.20
564.41	28690.29
564.57	28676.24
564.74	28725.39
564.90	28631.77
565.07	28706.67
565.23	28994.56
565.39	28744.12
565.56	28968.81
565.72	28624.75
565.88	28662.20
566.05	28496.02
566.21	28533.47
566.38	28683.27
566.54	28910.30
566.70	29003.92
566.87	29076.48
567.03	28936.04
567.19	29163.08
567.36	28741.78
567.52	28790.93
567.68	29069.45
567.85	29104.56
568.01	29362.02
568.17	28933.70
568.34	29022.64
568.50	28919.66
568.66	29048.39
568.83	29289.46
568.99	28938.38
569.15	29060.09
569.32	28996.90
569.48	28992.22
569.64	29010.94
569.81	28947.75
569.97	28786.25
570.13	29303.51
570.30	28774.55
570.46	29060.09
570.62	28973.49
570.78	28840.08
570.95	28957.11
571.11	29134.99
571.27	28933.70
571.43	28980.51
571.60	29125.63
571.76	28989.88
571.92	29106.90
572.09	29163.08
572.25	29443.94
572.41	29078.82
572.57	28968.81
572.74	29352.66
572.90	29275.42
573.06	29174.78
573.22	29024.98
573.38	29406.49
573.55	29525.86
573.71	29097.54
573.87	29338.62
574.03	29139.67
574.20	29214.57
574.36	29315.21
574.52	29020.30
574.68	29350.32
574.84	29113.92
575.01	29647.57
575.17	29120.95
575.33	29282.44
575.49	29343.30
575.65	29640.54
575.82	29572.67
575.98	29450.96
576.14	29193.50
576.30	29219.25
576.46	29439.26
576.62	29235.63
576.79	29376.06
576.95	29118.60
577.11	29284.78
577.27	29343.30
577.43	29528.20
577.59	29521.18
577.75	29619.48
577.92	29130.31
578.08	28950.09
578.24	29200.52
578.40	29352.66
578.56	29432.24
578.72	29329.25
578.88	29390.11
579.04	29565.65
579.21	29244.99
579.37	29570.33
579.53	29696.72
579.69	29350.32
579.85	29394.79
580.01	29298.83
580.17	29472.03
580.33	29371.38
580.49	29539.90
580.65	29710.76
580.82	29329.25
580.98	29355.00
581.14	29731.83
581.30	29333.93
581.46	29518.84
581.62	29294.14
581.78	29259.04
581.94	29586.71
582.10	29734.17
582.26	29158.39
582.42	29853.53
582.58	29773.95
582.74	29387.77
582.90	29589.05
583.06	29399.47
583.22	29322.23
583.38	29406.49
583.54	29441.60
583.70	29696.72
583.86	29694.38
584.02	29383.09
584.18	29874.60
584.34	29914.39
584.50	29567.99
584.66	29764.59
584.82	29666.29
584.98	29586.71
585.14	29350.32
585.30	29284.78
585.46	29511.81
585.62	29504.79
585.78	29898.00
585.94	29355.00
586.10	29469.69
586.26	29776.30
586.42	29846.51
586.58	29670.97
586.74	29252.02
586.90	29460.32
587.06	29450.96
587.22	29558.63
587.38	29383.09
587.54	29832.47
587.70	30110.99
587.86	29263.72
588.02	29832.47
588.18	30019.71
588.34	29347.98
588.49	29844.17
588.65	29296.49
588.81	29593.73
588.97	29685.01
589.13	29558.63
589.29	29696.72
589.45	29579.69
589.61	29666.29
589.77	29497.77
589.93	29792.68
590.08	29986.94
590.24	30122.69
590.40	29682.67
590.56	29928.43
590.72	29888.64
590.88	29633.52
591.04	29921.41
591.20	29972.90
591.35	30146.10
591.51	30302.92
591.67	30022.05
591.83	30356.75
591.99	29977.58
592.15	29741.19
592.31	29909.71
592.46	29975.24
592.62	29670.97
592.78	29771.61
592.94	29792.68
593.10	29818.42
593.26	30300.58
593.41	30211.64
593.57	29942.47
593.73	30003.33
593.89	30155.46
594.05	29797.36
594.20	29804.38
594.36	29766.93
594.52	29883.96
594.68	29958.86
594.84	29876.94
594.99	29954.18
595.15	30213.98
595.31	30284.19
595.47	29795.02
595.62	30410.58
595.78	29736.51
595.94	29872.26
596.10	30125.04
596.25	29902.68
596.41	29687.36
596.57	29668.63
596.73	30249.08
596.88	29853.53
597.04	30396.54
597.20	30216.32
597.36	30160.14
597.51	30164.82
597.67	30136.74
597.83	30263.13
597.99	30251.42
598.14	29872.26
598.30	29982.26
598.46	29982.26
598.61	30321.64
598.77	29724.80
598.93	30099.29
599.09	30279.51
599.24	30417.60
599.40	30331.00
599.56	30176.53
599.71	30370.79
599.87	30115.67
600.03	29820.77
600.18	30235.04
600.34	29972.90
600.50	30160.14
600.65	30272.49
600.81	30181.21
600.97	30099.29
601.12	29940.13
601.28	30356.75
601.44	30195.25
601.59	30094.61
601.75	30211.64
601.91	30141.42
602.06	29827.79
602.22	30469.09
602.37	29996.31
602.53	30157.80
602.69	30384.83
602.84	30377.81
603.00	30204.61
603.16	30431.65
603.31	29914.39
603.47	29560.97
603.62	30288.87
603.78	30082.91
603.94	30199.93
604.09	30015.03
604.25	30024.39
604.40	30057.16
604.56	30408.24
604.71	30127.38
604.87	29898.00
605.03	30188.23
605.18	30492.50
605.34	30326.32
605.49	29907.37
605.65	29963.54
605.80	29830.13
605.96	29886.30
606.12	29738.85
606.27	29984.60
606.43	29886.30
606.58	30235.04
606.74	30017.37
606.89	29879.28
607.05	30235.04
607.20	30293.55
607.36	29933.11
607.51	29818.42
607.67	29699.06
607.82	29734.17
607.98	29668.63
608.13	29888.64
608.29	29755.23
608.44	30225.68
608.60	30096.95
608.75	30221.00
608.91	30089.93
609.06	29696.72
609.22	30209.29
609.37	29582.03
609.53	29912.05
609.68	29689.70
609.84	29593.73
609.99	29949.50
610.15	29790.34
610.30	29886.30
610.46	29427.56
610.61	29593.73
610.76	29898.00
610.92	30031.41
611.07	29652.25
611.23	29764.59
611.38	29788.00
611.54	29874.60
611.69	29472.03
611.84	29722.46
612.00	29507.13
612.15	30000.99
612.31	30155.46
612.46	29472.03
612.62	29551.60
612.77	29734.17
612.92	29912.05
613.08	29748.21
613.23	29509.47
613.39	29589.05
613.54	29654.59
613.69	29874.60
613.85	29572.67
614.00	29392.45
614.15	29516.50
614.31	29415.85
614.46	29280.10
614.62	29603.10
614.77	29338.62
614.92	29291.80
615.08	29663.95
615.23	29635.86
615.38	29509.47
615.54	29362.02
615.69	29516.50
615.84	29284.78
616.00	29055.41
616.15	28851.78
616.30	29453.30
616.46	29322.23
616.61	29495.43
616.76	29633.52
616.92	29343.30
617.07	29158.39
617.22	29390.11
617.37	28893.91
617.53	29677.99
617.68	29109.24
617.83	29134.99
617.99	28783.91
618.14	29120.95
618.29	29401.81
618.45	29146.69
618.60	29380.74
618.75	28910.30
618.90	29029.66
619.06	29497.77
619.21	29001.58
619.36	29228.61
619.51	29134.99
619.67	28669.22
619.82	28685.61
619.97	28919.66
620.12	28730.08
620.28	28964.13
620.43	28999.24
620.58	29357.34
620.73	29179.46
620.89	29252.02
621.04	29280.10
621.19	29401.81
621.34	28821.36
621.49	28938.38
621.65	29088.18
621.80	28886.89
621.95	28769.86
622.10	28793.27
622.25	28931.36
622.41	28723.05
622.56	28907.96
622.71	28926.68
622.86	28711.35
623.01	28744.12
623.16	28594.32
623.32	28460.91
623.47	28931.36
623.62	28769.86
623.77	28922.00
623.92	28346.23
624.07	28161.33
624.23	28507.72
624.38	28779.23
624.53	28411.76
624.68	28584.96
624.83	29095.20
624.98	28767.52
625.13	28409.42
625.29	28409.42
625.44	28690.29
625.59	28500.70
625.74	28203.46
625.89	27906.21
626.04	28411.76
626.19	28006.85
626.34	28156.64
626.49	28357.93
626.65	28416.44
626.80	28556.88
626.95	28311.12
627.10	28449.21
627.25	28360.27
627.40	27859.40
627.55	27873.44
627.70	27796.20
627.85	27620.66
628.00	28144.94
628.15	28170.69
628.30	27946.00
628.45	27948.34
628.60	28102.81
628.76	28189.41
628.91	28137.92
629.06	27920.25
629.21	27948.34
629.36	27917.91
629.51	27995.15
629.66	27672.15
629.81	27936.63
629.96	27791.52
630.11	27768.12
630.26	28070.04
630.41	27358.52
630.56	27740.03
630.71	27908.55
630.86	27880.46
631.01	27592.58
631.16	27824.29
631.31	27885.14
631.46	27674.49
631.61	27725.99
631.76	27878.12
631.91	27875.78
632.06	27672.15
632.21	27241.50
632.36	27653.43
632.51	27246.18
632.66	27651.09
632.81	27538.74
632.96	27620.66
633.10	27466.19
633.25	27728.33
633.40	27922.59
633.55	27433.42
633.70	27559.81
633.85	27138.51
634.00	26808.50
634.15	27456.82
634.30	27332.78
634.45	27000.42
634.60	27190.00
634.75	27370.22
634.90	27335.12
635.05	27342.14
635.19	27583.21
635.34	27489.59
635.49	27494.27
635.64	27487.25
635.79	27641.73
635.94	26888.07
636.09	27080.00
636.24	26796.79
636.39	26885.73
636.53	27054.25
636.68	27136.17
636.83	26841.26
636.98	27285.97
637.13	27087.02
637.28	27274.26
637.43	27257.88
637.57	26955.95
637.72	27426.40
637.87	26707.85
638.02	26857.65
638.17	27051.91
638.32	26752.32
638.46	26726.58
638.61	26803.82
638.76	26951.27
638.91	26565.08
639.06	26679.77
639.20	27173.62
639.35	26806.16
639.50	27012.12
639.65	27087.02
639.80	26951.27
639.94	26738.28
640.09	26766.37
640.24	26602.53
640.39	26228.04
640.54	26235.06
640.68	26408.26
640.83	26644.66
640.98	26782.75
641.13	26492.52
641.27	26522.95
641.42	26843.60
641.57	26384.86
641.72	26642.32
641.86	26544.02
642.01	25893.35
642.16	26572.10
642.31	26349.75
642.45	26642.32
642.60	26281.88
642.75	26197.62
642.90	26190.59
643.04	25956.54
643.19	26345.07
643.34	26256.13
643.48	26401.24
643.63	26569.76
643.78	26551.04
643.93	26260.81
644.07	26501.89
644.22	26525.29
644.37	26043.14
644.51	26146.12
644.66	26223.36
644.81	26038.46
644.95	26134.42
645.10	25888.67
645.25	26403.58
645.39	26108.68
645.54	26492.52
645.69	26024.42
645.83	26031.44
645.98	26101.65
646.13	26298.26
646.27	26092.29
646.42	25715.47
646.57	25818.45
646.71	25895.69
646.86	25940.16
647.00	26197.62
647.15	25752.91
647.30	25898.03
647.44	25769.30
647.59	25579.71
647.74	25968.24
647.88	26319.32
648.03	25844.20
648.17	25944.84
648.32	25825.47
648.47	25764.62
648.61	25773.98
648.76	26029.10
648.90	25713.13
649.05	25680.36
649.20	25773.98
649.34	25631.21
649.49	25537.59
649.63	25282.47
649.78	25722.49
649.92	25671.00
650.07	25539.93
650.21	25621.84
650.36	25483.75
650.51	25467.37
650.65	25387.79
650.80	25673.34
650.94	25429.92
651.09	25406.52
651.23	25507.16
651.38	25280.13
651.52	25333.96
651.67	25549.29
651.81	25373.75
651.96	25371.41
652.10	25322.26
652.25	25172.46
652.39	25556.31
652.54	25504.82
652.68	25724.83
652.83	25483.75
652.97	25584.40
653.12	25446.30
653.26	25273.10
653.41	25523.54
653.55	25324.60
653.70	25294.17
653.84	25593.76
653.99	25221.61
654.13	25025.01
654.27	25245.02
654.42	25226.29
654.56	24971.18
654.71	24980.54
654.85	25074.16
655.00	25074.16
655.14	24994.58
655.29	25062.46
655.43	25181.82
655.57	25090.54
655.72	25025.01
655.86	24767.55
656.01	24680.95
656.15	24896.28
656.30	24727.76
656.44	24886.92
656.58	24767.55
656.73	24652.86
656.87	24830.74
657.01	24929.05
657.16	24816.70
657.30	25209.91
657.45	24512.43
657.59	25022.67
657.73	24795.64
657.88	25069.48
658.02	24327.53
658.16	24833.08
658.31	24521.79
658.45	24339.23
658.60	24505.41
658.74	24315.83
658.88	24528.81
659.03	24397.74
659.17	24348.59
659.31	24540.52
659.46	24458.60
659.60	24524.13
659.74	24556.90
659.89	24465.62
660.03	24198.80
660.17	24442.21
660.32	24283.06
660.46	24322.85
660.60	24173.05
660.74	23899.21
660.89	24198.80
661.03	23718.99
661.17	24126.24
661.32	24325.19
661.46	24233.91
661.60	24409.45
661.74	24135.60
661.89	24070.07
662.03	24226.89
662.17	24034.96
662.31	23803.25
662.46	23906.23
662.60	23704.95
662.74	23756.44
662.88	23578.56
663.03	23482.59
663.17	23576.22
663.31	23550.47
663.45	23426.42
663.60	23056.62
663.74	23396.00
663.88	23555.15
664.02	23480.25
664.17	23466.21
664.31	23073.00
664.45	22988.74
664.59	23510.68
664.73	23293.01
664.88	22995.76
665.02	23056.62
665.16	22960.66
665.30	23337.48
665.44	23208.75
665.59	22885.76
665.73	23143.22
665.87	23026.19
666.01	23080.02
666.15	23042.57
666.29	23002.78
666.44	22958.31
666.58	22939.59
666.72	22647.02
666.86	22731.28
667.00	23180.67
667.14	22970.02
667.28	22682.13
667.43	22787.46
667.57	22658.73
667.71	22235.09
667.85	22710.22
667.99	22682.13
668.13	22625.96
668.27	23007.47
668.41	22707.88
668.56	22183.60
668.70	22665.75
668.84	22331.05
668.98	22176.58
669.12	22422.33
669.26	22394.25
669.40	22249.13
669.54	22101.68
669.68	22274.88
669.82	22368.50
669.96	22043.17
670.10	21778.68
670.25	21921.46
670.39	21994.01
670.53	21731.87
670.67	21898.05
670.81	22026.78
670.95	21930.82
671.09	22040.82
671.23	21823.16
671.37	22197.64
671.51	21813.79
671.65	21745.92
671.79	21996.35
671.93	21867.63
672.07	21919.12
672.21	21380.79
672.35	21303.56
672.49	21345.69
672.63	21202.91
672.77	21577.40
672.91	21488.46
673.05	21329.30
673.19	21312.92
673.33	21331.64
673.47	21294.19
673.61	21455.69
673.75	21514.20
673.89	21317.60
674.03	21341.00
674.17	20961.84
674.31	20826.09
674.45	20713.74
674.59	21132.70
674.73	21062.48
674.87	20683.31
675.01	20851.83
675.15	20381.38
675.29	20627.14
675.43	20898.64
675.56	20772.25
675.70	20624.80
675.84	20695.02
675.98	20004.56
676.12	20432.88
676.26	20407.13
676.40	20360.32
676.54	20421.17
676.68	19978.81
676.82	20009.24
676.96	20006.90
677.10	20133.29
677.23	19990.52
677.37	19950.73
677.51	19583.26
677.65	19494.32
677.79	19807.95
677.93	19508.37
678.07	19730.72
678.21	19758.80
678.34	19400.70
678.48	19541.13
678.62	19339.85
678.76	19164.31
678.90	19250.91
679.04	19499.00
679.18	19124.52
679.31	18733.65
679.45	19026.21
679.59	19183.03
679.73	18906.85
679.87	18972.38
680.00	18609.60
680.14	18717.26
680.28	18939.62
680.42	18848.33
680.56	18668.11
680.70	18450.44
680.83	18827.27
680.97	18576.83
681.11	18670.45
681.25	18501.93
681.39	18443.42
681.52	18504.28
681.66	18239.79
681.80	18113.41
681.94	18045.53
682.07	18207.03
682.21	18246.82
682.35	17736.58
682.49	17624.23
682.62	17804.46
682.76	17570.40
682.90	17827.86
683.04	17785.73
683.17	17649.98
683.31	17610.19
683.45	17914.46
683.59	17762.33
683.72	17530.61
683.86	17598.49
684.00	17479.12
684.13	17200.60
684.27	17261.45
684.41	17504.87
684.55	17195.92
684.68	16875.26
684.82	16901.01
684.96	16886.97
685.09	16648.23
685.23	17025.06
685.37	16725.47
685.50	16968.88
685.64	16861.22
685.78	16556.95
685.91	16720.79
686.05	16594.40
686.19	16491.41
686.32	16727.81
686.46	16297.15
686.60	16414.18
686.73	16372.05
686.87	16240.98
687.01	16348.64
687.14	16105.23
687.28	15833.72
687.42	15925.00
687.55	16084.16
687.69	15901.60
687.82	15775.21
687.96	15882.88
688.10	15644.14
688.23	15733.08
688.37	15632.44
688.50	15910.96
688.64	15623.08
688.78	15641.80
688.91	15185.40
689.05	15452.22
689.18	15283.70
689.32	14944.32
689.46	15087.09
689.59	15180.71
689.73	15108.16
689.86	14981.77
690.00	15290.72
690.13	15192.42
690.27	15028.58
690.41	15021.56
690.54	14644.73
690.68	14853.04
690.81	15108.16
690.95	14829.63
691.08	14794.53
691.22	14626.01
691.35	14572.18
691.49	14726.65
691.62	14441.11
691.76	14260.88
691.89	14382.59
692.03	14356.85
692.16	14272.59
692.30	14239.82
692.43	14122.79
692.57	13947.25
692.70	13792.78
692.84	13841.93
692.97	13855.97
693.11	13975.34
693.24	13799.80
693.38	13902.78
693.51	13806.82
693.65	13624.26
693.78	13568.09
693.92	13617.24
694.05	13483.83
694.19	13245.09
694.32	13163.17
694.45	13317.65
694.59	13177.22
694.72	13228.71
694.86	12994.65
694.99	12968.91
695.13	12919.76
695.26	12915.08
695.39	12952.52
695.53	12910.40
695.66	13200.62
695.80	12755.92
695.93	12917.42
696.07	12748.90
696.20	12564.00
696.33	12599.10
696.47	12767.62
696.60	12456.33
696.73	12468.03
696.87	12266.75
697.00	12332.28
697.14	12470.37
697.27	12313.56
697.40	12123.98
697.54	11866.52
697.67	11969.50
697.80	12035.03
697.94	12056.10
698.07	11955.46
698.21	11861.84
698.34	11803.32
698.47	11852.47
698.61	11866.52
698.74	12002.27
698.87	12009.29
699.01	11719.06
699.14	11646.51
699.27	11606.72
699.40	11576.29
699.54	11737.79
699.67	11349.26
699.80	11410.11
699.94	11162.01
700.07	11248.61
700.20	11131.59
700.34	11035.63
700.47	11150.31
700.60	10895.19
700.73	11049.67
700.87	11014.56
701.00	10930.30
701.13	11009.88
701.26	11119.89
701.40	10953.71
701.53	10881.15
701.66	11066.05
701.79	10740.72
701.93	10871.79
702.06	10803.91
702.19	10532.41
702.32	10324.10
702.46	10429.43
702.59	10368.57
702.72	10239.84
702.85	10354.53
702.99	10314.74
703.12	10115.80
703.25	10073.67
703.38	10171.97
703.51	10225.80
703.65	10090.05
703.78	10183.67
703.91	9790.46
704.04	10136.86
704.17	9867.70
704.31	9909.83
704.44	9870.04
704.57	9891.10
704.70	9767.06
704.83	9509.60
704.96	9394.91
705.10	9554.07
705.23	9373.85
>>>>>End Processed Spectral Data<<<<<
