SpectraSuite Data File
++++++++++++++++++++++++++++++++++++
Date: Fri Oct 18 13:58:28 GMT-05:00 2013
User: bianchi
Dark Spectrum Present: No
Reference Spectrum Present: No
Number of Sampled Component Spectra: 1
Spectrometers: USB2+H05261
Integration Time (usec): 50000 (USB2+H05261)
Spectra Averaged: 1 (USB2+H05261)
Boxcar Smoothing: 0 (USB2+H05261)
Correct for Electrical Dark: No (USB2+H05261)
Strobe/Lamp Enabled: No (USB2+H05261)
Correct for Detector Non-linearity: No (USB2+H05261)
Correct for Stray Light: No (USB2+H05261)
Number of Pixels in Processed Spectrum: 2048
>>>>>Begin Processed Spectral Data<<<<<
365.73	0.00
365.92	0.00
366.12	0.00
366.32	0.00
366.52	0.00
366.72	0.00
366.91	0.00
367.11	0.00
367.31	0.00
367.51	0.00
367.70	0.00
367.90	0.00
368.10	0.00
368.30	0.00
368.49	0.00
368.69	0.00
368.89	0.00
369.09	0.00
369.28	0.00
369.48	0.00
369.68	0.00
369.87	0.00
370.07	0.00
370.27	0.00
370.47	30.43
370.66	102.98
370.86	149.79
371.06	135.75
371.25	161.50
371.45	42.13
371.65	126.39
371.84	86.60
372.04	173.20
372.24	191.92
372.44	196.60
372.63	156.82
372.83	187.24
373.03	156.82
373.22	117.03
373.42	203.63
373.62	161.50
373.81	168.52
374.01	182.56
374.21	177.88
374.40	184.90
374.60	252.78
374.79	184.90
374.99	248.10
375.19	257.46
375.38	285.55
375.58	234.05
375.78	308.95
375.97	304.27
376.17	313.63
376.37	224.69
376.56	234.05
376.76	287.89
376.95	203.63
377.15	234.05
377.35	229.37
377.54	269.16
377.74	234.05
377.93	273.84
378.13	255.12
378.33	262.14
378.52	250.44
378.72	273.84
378.91	255.12
379.11	238.73
379.31	273.84
379.50	290.23
379.70	299.59
379.89	346.40
380.09	252.78
380.28	339.38
380.48	299.59
380.68	271.50
380.87	271.50
381.07	304.27
381.26	231.71
381.46	315.97
381.65	297.25
381.85	264.48
382.04	339.38
382.24	320.65
382.43	304.27
382.63	287.89
382.83	337.04
383.02	330.02
383.22	308.95
383.41	344.06
383.61	344.06
383.80	374.49
384.00	348.74
384.19	339.38
384.39	365.12
384.58	369.80
384.78	376.83
384.97	334.70
385.17	383.85
385.36	355.76
385.56	332.36
385.75	308.95
385.95	369.80
386.14	376.83
386.34	458.74
386.53	425.98
386.72	337.04
386.92	465.77
387.11	407.25
387.31	348.74
387.50	440.02
387.70	435.34
387.89	425.98
388.09	409.59
388.28	444.70
388.48	484.49
388.67	437.68
388.86	442.36
389.06	477.47
389.25	524.28
389.45	493.85
389.64	468.11
389.84	484.49
390.03	482.15
390.22	421.30
390.42	435.34
390.61	423.64
390.81	552.37
391.00	566.41
391.19	498.53
391.39	477.47
391.58	547.69
391.78	524.28
391.97	517.26
392.16	449.38
392.36	552.37
392.55	517.26
392.75	433.00
392.94	512.58
393.13	559.39
393.33	519.60
393.52	526.62
393.71	596.84
393.91	470.45
394.10	580.45
394.29	575.77
394.49	568.75
394.68	617.90
394.88	552.37
395.07	580.45
395.26	564.07
395.46	550.03
395.65	524.28
395.84	662.37
396.04	664.71
396.23	596.84
396.42	624.92
396.62	603.86
396.81	601.52
397.00	645.99
397.19	667.05
397.39	608.54
397.58	585.13
397.77	678.76
397.97	683.44
398.16	613.22
398.35	650.67
398.55	744.29
398.74	674.07
398.93	641.31
399.12	692.80
399.32	741.95
399.51	657.69
399.70	695.14
399.90	718.54
400.09	844.93
400.28	760.67
400.47	631.94
400.67	688.12
400.86	795.78
401.05	711.52
401.24	674.07
401.44	753.65
401.63	755.99
401.82	751.31
402.01	795.78
402.21	671.73
402.40	751.31
402.59	833.23
402.78	779.40
402.97	840.25
403.17	870.68
403.36	887.06
403.55	744.29
403.74	788.76
403.93	884.72
404.13	884.72
404.32	828.55
404.51	830.89
404.70	837.91
404.89	868.34
405.09	957.28
405.28	971.32
405.47	940.90
405.66	887.06
405.85	903.45
406.05	940.90
406.24	926.85
406.43	896.43
406.62	926.85
406.81	1057.92
407.00	945.58
407.20	947.92
407.39	912.81
407.58	1125.80
407.77	990.05
407.96	973.66
408.15	1011.11
408.34	1114.10
408.54	1064.94
408.73	1090.69
408.92	1029.84
409.11	1001.75
409.30	1116.44
409.49	1034.52
409.68	1083.67
409.87	1118.78
410.07	1142.18
410.26	1170.27
410.45	1217.08
410.64	1219.42
410.83	1142.18
411.02	1060.26
411.21	1156.22
411.40	1240.48
411.59	1242.82
411.78	1270.91
411.98	1277.93
412.17	1219.42
412.36	1299.00
412.55	1306.02
412.74	1434.75
412.93	1313.04
413.12	1301.34
413.31	1394.96
413.50	1345.81
413.69	1423.05
413.88	1317.72
414.07	1411.34
414.26	1350.49
414.45	1345.81
414.64	1359.85
414.83	1504.96
415.02	1469.86
415.22	1549.43
415.41	1488.58
415.60	1497.94
415.79	1610.29
415.98	1614.97
416.17	1633.69
416.36	1409.00
416.55	1563.48
416.74	1579.86
416.93	1586.88
417.12	1633.69
417.31	1734.34
417.50	1640.72
417.69	1675.82
417.88	1764.76
418.07	1797.53
418.26	1636.03
418.45	1764.76
418.64	1764.76
418.83	1706.25
419.02	1699.23
419.21	1746.04
419.39	1816.26
419.58	1813.92
419.77	1837.32
419.96	1832.64
420.15	1839.66
420.34	1823.28
420.53	1783.49
420.72	1778.81
420.91	1748.38
421.10	1919.24
421.29	1928.60
421.48	1783.49
421.67	1935.62
421.86	1839.66
422.05	1998.82
422.24	1912.22
422.43	1755.40
422.61	2024.56
422.80	2012.86
422.99	1942.64
423.18	1895.83
423.37	1944.99
423.56	2059.67
423.75	2012.86
423.94	1877.11
424.13	1825.62
424.32	1867.75
424.50	1952.01
424.69	2129.89
424.88	2043.29
425.07	1891.15
425.26	1923.92
425.45	1980.09
425.64	1851.36
425.83	1984.77
426.01	2066.69
426.20	1959.03
426.39	2043.29
426.58	2015.20
426.77	1994.14
426.96	2069.03
427.15	2073.71
427.33	1984.77
427.52	2141.59
427.71	2059.67
427.90	2113.50
428.09	2099.46
428.28	2066.69
428.46	2106.48
428.65	2179.04
428.84	2230.53
429.03	2202.44
429.22	2279.68
429.40	2307.77
429.59	2235.21
429.78	2083.08
429.97	2101.80
430.16	2188.40
430.34	2265.64
430.53	2211.81
430.72	2225.85
430.91	2186.06
431.10	2246.91
431.28	2209.47
431.47	2305.43
431.66	2223.51
431.85	2347.56
432.03	2333.51
432.22	2352.24
432.41	2396.71
432.60	2427.14
432.79	2403.73
432.97	2530.12
433.16	2462.24
433.35	2382.67
433.54	2466.92
433.72	2459.90
433.91	2399.05
434.10	2450.54
434.28	2408.41
434.47	2469.27
434.66	2551.18
434.85	2593.31
435.03	2541.82
435.22	2480.97
435.41	2663.53
435.59	2546.50
435.78	2473.95
435.97	2551.18
436.16	2576.93
436.34	2635.44
436.53	2635.44
436.72	2719.70
436.90	2511.39
437.09	2642.46
437.28	2715.02
437.46	2663.53
437.65	2710.34
437.84	2689.28
438.02	2682.25
438.21	2764.17
438.40	2668.21
438.58	2717.36
438.77	2689.28
438.96	2815.66
439.14	2822.69
439.33	2836.73
439.52	2792.26
439.70	2899.92
439.89	3035.67
440.08	2862.48
440.26	2967.80
440.45	2939.71
440.63	3077.80
440.82	2981.84
441.01	2977.16
441.19	3211.22
441.38	3047.38
441.57	3164.40
441.75	3173.77
441.94	3206.53
442.12	3162.06
442.31	3204.19
442.50	3066.10
442.68	3243.98
442.87	3318.88
443.05	3339.94
443.24	3358.67
443.43	3293.13
443.61	3332.92
443.80	3370.37
443.98	3370.37
444.17	3157.38
444.35	3279.09
444.54	3372.71
444.73	3398.46
444.91	3419.52
445.10	3325.90
445.28	3361.01
445.47	3246.32
445.65	3337.60
445.84	3325.90
446.02	3424.20
446.21	3368.03
446.39	3330.58
446.58	3445.27
446.77	3365.69
446.95	3459.31
447.14	3328.24
447.32	3496.76
447.51	3325.90
447.69	3421.86
447.88	3391.44
448.06	3459.31
448.25	3480.38
448.43	3585.70
448.62	3522.51
448.80	3431.23
448.99	3412.50
449.17	3613.79
449.36	3496.76
449.54	3648.90
449.73	3627.83
449.91	3597.40
450.10	3667.62
450.28	3712.09
450.46	3667.62
450.65	3761.24
450.83	3641.87
451.02	3644.21
451.20	3770.60
451.39	3826.78
451.57	3854.86
451.76	3887.63
451.94	3824.44
452.13	3712.09
452.31	3641.87
452.49	3712.09
452.68	3740.18
452.86	3873.59
453.05	3857.20
453.23	4025.72
453.42	3894.65
453.60	3861.88
453.78	3786.99
453.97	3810.39
454.15	3819.75
454.34	3854.86
454.52	3927.42
454.70	3960.19
454.89	4042.11
455.07	3939.12
455.26	4025.72
455.44	3913.38
455.62	3969.55
455.81	3941.46
455.99	4081.89
456.17	4032.74
456.36	4102.96
456.54	4060.83
456.73	3999.98
456.91	4341.69
457.09	4058.49
457.28	4196.58
457.46	4182.54
457.64	4308.93
457.83	4372.12
458.01	4145.09
458.19	4224.67
458.38	4147.43
458.56	4386.16
458.74	4325.31
458.93	4189.56
459.11	4238.71
459.29	4470.42
459.48	4491.49
459.66	4332.33
459.84	4444.68
460.03	4713.84
460.21	4341.69
460.39	4458.72
460.57	4547.66
460.76	4514.89
460.94	4648.30
461.12	4554.68
461.31	4571.07
461.49	4489.15
461.67	4519.57
461.85	4643.62
462.04	4601.49
462.22	4692.77
462.40	4844.91
462.59	4526.60
462.77	4624.90
462.95	4751.29
463.13	4648.30
463.32	4662.35
463.50	4772.35
463.68	4692.77
463.86	4596.81
464.05	4596.81
464.23	4716.18
464.41	4730.22
464.59	4699.80
464.78	4903.42
464.96	4746.61
465.14	4830.87
465.32	4809.80
465.50	4891.72
465.69	4959.60
465.87	4861.29
466.05	4809.80
466.23	4884.70
466.41	4990.02
466.60	5029.81
466.78	4975.98
466.96	4910.44
467.14	4987.68
467.32	5132.79
467.51	5029.81
467.69	4861.29
467.87	5093.01
468.05	5039.17
468.23	5004.07
468.41	4940.87
468.60	5146.84
468.78	5123.43
468.96	4961.94
469.14	5305.99
469.32	5263.86
469.50	5032.15
469.69	5177.26
469.87	5338.76
470.05	5380.89
470.23	5479.19
470.41	5268.55
470.59	5338.76
470.77	5289.61
470.95	5437.06
471.14	5298.97
471.32	5401.96
471.50	5589.20
471.68	5481.53
471.86	5495.58
472.04	5500.26
472.22	5617.29
472.40	5444.09
472.58	5430.04
472.77	5603.24
472.95	5731.97
473.13	5851.34
473.31	5628.99
473.49	5633.67
473.67	5624.31
473.85	5776.44
474.03	6005.81
474.21	5844.32
474.39	5994.11
474.57	5994.11
474.75	6122.84
474.93	6057.31
475.12	6043.26
475.30	5937.94
475.48	5963.68
475.66	6099.44
475.84	6036.24
476.02	6188.38
476.20	6181.35
476.38	6228.17
476.56	6307.74
476.74	6387.32
476.92	6490.31
477.10	6349.87
477.28	6413.07
477.46	6502.01
477.64	6590.95
477.82	6619.04
478.00	6724.36
478.18	6707.98
478.36	6768.83
478.54	6707.98
478.72	6981.82
478.90	7110.55
479.08	6991.18
479.26	7140.97
479.44	7274.38
479.62	7098.84
479.80	7187.79
479.98	7220.55
480.16	7485.03
480.34	7243.96
480.52	7433.54
480.70	7623.12
480.88	7389.07
481.06	7391.41
481.24	7564.61
481.41	7585.68
481.59	7740.15
481.77	7728.45
481.95	7911.01
482.13	8060.80
482.31	7950.80
482.49	8234.00
482.67	7981.23
482.85	8241.03
483.03	8182.51
483.21	8374.44
483.39	8383.80
483.57	8456.36
483.74	8514.87
483.92	8432.95
484.10	8365.07
484.28	8603.81
484.46	8819.14
484.64	8964.25
484.82	8870.63
485.00	8915.10
485.18	9027.45
485.35	9252.14
485.53	9118.73
485.71	9252.14
485.89	9521.30
486.07	9261.50
486.25	9430.02
486.43	9430.02
486.61	9490.87
486.78	9706.20
486.96	10008.13
487.14	9937.91
487.32	9935.57
487.50	9778.76
487.68	10059.62
487.85	10223.46
488.03	10279.63
488.21	10448.15
488.39	10345.17
488.57	10410.70
488.75	10387.30
488.92	10560.50
489.10	10651.78
489.28	10750.08
489.46	10729.02
489.64	10846.04
489.81	10913.92
489.99	10719.65
490.17	10970.09
490.35	11375.00
490.53	11218.19
490.70	11377.34
490.88	11276.70
491.06	11440.54
491.24	11571.61
491.41	11637.14
491.59	11712.04
491.77	11751.83
491.95	11765.87
492.13	11943.75
492.30	12086.53
492.48	12262.07
492.66	12273.77
492.84	12109.93
493.01	12358.03
493.19	12241.00
493.37	12484.42
493.54	12496.12
493.72	12776.98
493.90	12585.06
494.08	12372.07
494.25	12816.77
494.43	12814.43
494.61	12980.61
494.79	13057.85
494.96	13046.15
495.14	13050.83
495.32	13420.63
495.49	13069.55
495.67	13341.05
495.85	13500.21
496.02	13626.60
496.20	13483.83
496.38	13603.19
496.55	13554.04
496.73	14029.17
496.91	13661.71
497.09	14157.90
497.26	14010.45
497.44	13930.87
497.62	13865.33
497.79	14267.91
497.97	14211.73
498.14	14380.25
498.32	14555.79
498.50	14335.78
498.67	14621.33
498.85	14546.43
499.03	14614.30
499.20	14696.22
499.38	14860.06
499.56	15023.90
499.73	14953.68
499.91	15213.48
500.08	15187.74
500.26	15070.71
500.44	15183.06
500.61	15276.68
500.79	15220.50
500.97	15618.39
501.14	15288.38
501.32	15541.16
501.49	15545.84
501.67	15161.99
501.84	15630.10
502.02	15520.09
502.20	15737.76
502.37	15777.55
502.55	15704.99
502.72	15730.74
502.90	15667.55
503.07	15824.36
503.25	15969.48
503.43	15702.65
503.60	16004.58
503.78	16381.41
503.95	16397.79
504.13	16105.23
504.30	16233.96
504.48	16439.92
504.65	16182.46
504.83	16531.20
505.01	16781.64
505.18	16601.42
505.36	16580.36
505.53	16643.55
505.71	16791.00
505.88	16823.77
506.06	16746.53
506.23	17062.51
506.41	17170.17
506.58	16933.78
506.76	17125.70
506.93	17074.21
507.11	17111.66
507.28	17195.92
507.46	17219.32
507.63	17371.46
507.81	17455.72
507.98	17537.63
508.16	17455.72
508.33	17600.83
508.50	17411.25
508.68	17617.21
508.85	17696.79
509.03	17551.68
509.20	17774.03
509.38	17886.37
509.55	18150.85
509.73	18122.77
509.90	17919.14
510.08	18127.45
510.25	18075.96
510.42	18115.75
510.60	18295.97
510.77	18178.94
510.95	18291.29
511.12	18429.38
511.30	18174.26
511.47	18663.43
511.64	18354.48
511.82	18752.37
511.99	18422.36
512.17	18665.77
512.34	18757.05
512.51	18565.13
512.69	19105.79
512.86	18995.79
513.04	19026.21
513.21	18857.70
513.38	18988.77
513.56	18941.96
513.73	19199.41
513.90	19051.96
514.08	19028.56
514.25	18956.00
514.43	19136.22
514.60	19227.50
514.77	19276.65
514.95	19351.55
515.12	19190.05
515.29	19536.45
515.47	19531.77
515.64	19728.38
515.81	19049.62
515.99	19424.11
516.16	20077.12
516.33	19786.89
516.51	20152.01
516.68	19894.55
516.85	19756.46
517.03	20011.58
517.20	19791.57
517.37	20402.45
517.54	20290.10
517.72	20240.95
517.89	20074.77
518.06	20030.30
518.24	20196.48
518.41	20182.44
518.58	20362.66
518.75	20376.70
518.93	20538.20
519.10	20395.43
519.27	20636.50
519.45	20437.56
519.62	20580.33
519.79	20587.35
519.96	20685.65
520.14	21006.31
520.31	20648.21
520.48	20858.85
520.65	20767.57
520.83	20790.98
521.00	20823.75
521.17	20833.11
521.34	21125.68
521.52	21186.53
521.69	21472.07
521.86	21106.95
522.03	21275.47
522.20	21546.97
522.38	21003.97
522.55	21408.88
522.72	21064.82
522.89	21488.46
523.07	21813.79
523.24	21343.35
523.41	21668.68
523.58	21539.95
523.75	21970.61
523.92	21385.47
524.10	21486.12
524.27	21867.63
524.44	21752.94
524.61	22342.75
524.78	22164.87
524.96	22546.38
525.13	22038.48
525.30	22125.08
525.47	22104.02
525.64	21867.63
525.81	22139.13
525.98	22022.10
526.16	22284.24
526.33	22401.27
526.50	22490.21
526.67	22181.26
526.84	22373.18
527.01	22356.80
527.18	22429.35
527.36	22405.95
527.53	22614.26
527.70	22717.24
527.87	23089.38
528.04	22803.84
528.21	22845.97
528.38	22775.75
528.55	22932.57
528.72	22775.75
528.89	22932.57
529.07	22836.61
529.24	22897.46
529.41	23016.83
529.58	22883.42
529.75	22899.80
529.92	23061.30
530.09	22878.74
530.26	23016.83
530.43	23065.98
530.60	23295.35
530.77	23133.86
530.94	23314.08
531.11	23407.70
531.28	23323.44
531.46	23321.10
531.63	23365.57
531.80	23482.59
531.97	23468.55
532.14	24130.92
532.31	23718.99
532.48	23487.28
532.65	23421.74
532.82	23400.68
532.99	23534.09
533.16	23393.65
533.33	23440.47
533.50	23807.93
533.67	23950.70
533.84	23658.14
534.01	23803.25
534.18	23833.68
534.35	23913.25
534.52	24077.09
534.69	23770.48
534.86	24187.10
535.03	23887.51
535.20	23695.58
535.37	23859.42
535.54	24442.21
535.71	23922.62
535.88	24114.54
536.05	24229.23
536.22	24526.47
536.38	24414.13
536.55	24313.48
536.72	24521.79
536.89	24112.20
537.06	24374.34
537.23	24528.81
537.40	24308.80
537.57	24615.41
537.74	24388.38
537.91	24870.53
538.08	24725.42
538.25	24797.98
538.42	24870.53
538.59	24900.96
538.75	24613.07
538.92	24603.71
539.09	24875.21
539.26	24601.37
539.43	24739.46
539.60	24851.81
539.77	24814.36
539.94	25425.24
540.11	24947.77
540.28	24812.02
540.44	24893.94
540.61	25046.07
540.78	24999.26
540.95	24891.60
541.12	25090.54
541.29	25029.69
541.46	25113.95
541.62	25113.95
541.79	25439.28
541.96	24837.76
542.13	25097.56
542.30	25415.88
542.47	25551.63
542.63	25446.30
542.80	25493.12
542.97	25785.68
543.14	25593.76
543.31	25699.08
543.48	25418.22
543.64	25879.30
543.81	25881.64
543.98	26118.04
544.15	26127.40
544.32	26022.08
544.48	25755.26
544.65	25926.11
544.82	26054.84
544.99	25406.52
545.16	26061.87
545.32	26101.65
545.49	26466.78
545.66	26520.61
545.83	26302.94
546.00	26225.70
546.16	26288.90
546.33	25921.43
546.50	26169.53
546.67	25898.03
546.83	25570.35
547.00	25986.97
547.17	26436.35
547.34	26192.94
547.50	26405.92
547.67	26941.91
547.84	26319.32
548.00	26352.09
548.17	26824.88
548.34	26906.80
548.51	26726.58
548.67	26785.09
548.84	26188.25
549.01	26536.99
549.18	26625.93
549.34	26735.94
549.51	26462.10
549.68	26703.17
549.84	26775.73
550.01	26747.64
550.18	26583.80
550.34	26614.23
550.51	26843.60
550.68	26909.14
550.84	26787.43
551.01	27257.88
551.18	26892.76
551.34	27012.12
551.51	26719.56
551.68	27370.22
551.84	26890.41
552.01	26808.50
552.18	27117.45
552.34	26953.61
552.51	27019.14
552.68	26991.06
552.84	27311.71
553.01	27433.42
553.18	27110.43
553.34	27161.92
553.51	27475.55
553.67	27433.42
553.84	27651.09
554.01	27735.35
554.17	27297.67
554.34	27548.11
554.51	27241.50
554.67	27538.74
554.84	27332.78
555.00	27445.12
555.17	27243.84
555.33	27562.15
555.50	27360.86
555.67	27562.15
555.83	27569.17
556.00	27470.87
556.16	27899.19
556.33	27173.62
556.50	27405.33
556.66	27906.21
556.83	27754.07
556.99	27721.30
557.16	27882.80
557.32	27559.81
557.49	27838.33
557.65	27412.35
557.82	27885.14
557.98	27615.98
558.15	27716.62
558.32	27896.85
558.48	28147.28
558.65	27957.70
558.81	27838.33
558.98	28395.38
559.14	27878.12
559.31	28128.56
559.47	27880.46
559.64	27892.16
559.80	28280.69
559.97	28229.20
560.13	27779.82
560.30	27927.27
560.46	27924.93
560.63	28048.98
560.79	28119.20
560.96	28126.22
561.12	27978.76
561.29	27967.06
561.45	28128.56
561.61	28479.64
561.78	28004.51
561.94	28205.80
562.11	28453.89
562.27	28315.80
562.44	28355.59
562.60	27971.74
562.77	28142.60
562.93	28240.90
563.10	28528.79
563.26	28063.02
563.42	28348.57
563.59	28538.15
563.75	28414.10
563.92	28446.87
564.08	28381.34
564.24	27960.04
564.41	27992.81
564.57	28283.03
564.74	28683.27
564.90	28489.00
565.07	28187.07
565.23	28435.17
565.39	28737.10
565.56	29039.03
565.72	28477.30
565.88	28559.22
566.05	28341.55
566.21	28140.26
566.38	28636.45
566.54	28538.15
566.70	28737.10
566.87	28779.23
567.03	28596.67
567.19	28748.80
567.36	28826.04
567.52	28046.64
567.68	28664.54
567.85	28341.55
568.01	28648.16
568.17	28444.53
568.34	28936.04
568.50	28783.91
568.66	28758.16
568.83	28690.29
568.99	28641.14
569.15	28629.43
569.32	28491.34
569.48	28435.17
569.64	28783.91
569.81	28638.80
569.97	28379.00
570.13	28961.79
570.30	28594.32
570.46	28727.74
570.62	29123.29
570.78	28521.77
570.95	28638.80
571.11	28570.92
571.27	28652.84
571.43	28769.86
571.60	29013.28
571.76	28884.55
571.92	28769.86
572.09	28797.95
572.25	29221.59
572.41	28886.89
572.57	29057.75
572.74	28797.95
572.90	28608.37
573.06	29139.67
573.22	28692.63
573.38	28938.38
573.55	29181.80
573.71	29230.95
573.87	29156.05
574.03	28826.04
574.20	29198.18
574.36	28353.25
574.52	28739.44
574.68	29336.27
574.84	28692.63
575.01	28826.04
575.17	28641.14
575.33	29032.00
575.49	28591.98
575.65	29273.08
575.82	29457.98
575.98	28690.29
576.14	29123.29
576.30	29074.13
576.46	28790.93
576.62	28701.99
576.79	29158.39
576.95	29172.44
577.11	29408.83
577.27	29132.65
577.43	29088.18
577.59	29029.66
577.75	29275.42
577.92	28849.44
578.08	28788.59
578.24	29048.39
578.40	29127.97
578.56	28840.08
578.72	29017.96
578.88	29390.11
579.04	29319.89
579.21	29310.53
579.37	29181.80
579.53	29003.92
579.69	28847.10
579.85	28760.50
580.01	29024.98
580.17	29046.05
580.33	29228.61
580.49	29436.92
580.65	29542.24
580.82	28999.24
580.98	28978.17
581.14	29195.84
581.30	29305.85
581.46	28896.25
581.62	29411.17
581.78	29177.12
581.94	29036.69
582.10	29261.38
582.26	29057.75
582.42	29149.03
582.58	29406.49
582.74	29008.60
582.90	29390.11
583.06	29277.76
583.22	29553.94
583.38	28926.68
583.54	28891.57
583.70	29165.42
583.86	28638.80
584.02	29268.40
584.18	29422.87
584.34	29329.25
584.50	29219.25
584.66	29411.17
584.82	29439.26
584.98	29563.31
585.14	29387.77
585.30	29149.03
585.46	28975.83
585.62	29179.46
585.78	29200.52
585.94	28849.44
586.10	28980.51
586.26	29198.18
586.42	29460.32
586.58	29483.73
586.74	28999.24
586.90	29172.44
587.06	29130.31
587.22	29366.70
587.38	29043.71
587.54	29184.14
587.70	29516.50
587.86	29259.04
588.02	29539.90
588.18	29677.99
588.34	29474.37
588.49	29308.19
588.65	29116.26
588.81	29106.90
588.97	29413.51
589.13	29457.98
589.29	29647.57
589.45	29481.39
589.61	29413.51
589.77	29551.60
589.93	29675.65
590.08	29682.67
590.24	29715.44
590.40	29455.64
590.56	29797.36
590.72	29727.14
590.88	29387.77
591.04	29443.94
591.20	29467.34
591.35	29420.53
591.51	30047.80
591.67	29865.24
591.83	29741.19
591.99	29259.04
592.15	29486.07
592.31	29483.73
592.46	29216.91
592.62	29340.96
592.78	29282.44
592.94	29846.51
593.10	29214.57
593.26	29418.19
593.41	29890.98
593.57	29912.05
593.73	29525.86
593.89	29876.94
594.05	29841.83
594.20	29584.37
594.36	29867.58
594.52	29502.45
594.68	29546.92
594.84	29390.11
594.99	29511.81
595.15	29677.99
595.31	29757.57
595.47	30075.88
595.62	29666.29
595.78	29900.34
595.94	29743.53
596.10	29727.14
596.25	29483.73
596.41	29537.56
596.57	29589.05
596.73	29949.50
596.88	29673.31
597.04	29734.17
597.20	29610.12
597.36	29825.45
597.51	29816.08
597.67	29682.67
597.83	29670.97
597.99	30176.53
598.14	29408.83
598.30	29839.49
598.46	29469.69
598.61	29685.01
598.77	29511.81
598.93	29687.36
599.09	29855.87
599.24	30181.21
599.40	30181.21
599.56	29963.54
599.71	30141.42
599.87	29970.56
600.03	29486.07
600.18	29692.04
600.34	29715.44
600.50	29928.43
600.65	30017.37
600.81	29818.42
600.97	29958.86
601.12	30136.74
601.28	29701.40
601.44	30071.20
601.59	29806.72
601.75	30015.03
601.91	29755.23
602.06	29752.89
602.22	29996.31
602.37	29816.08
602.53	29834.81
602.69	29970.56
602.84	29558.63
603.00	29862.90
603.16	30190.57
603.31	30235.04
603.47	29631.18
603.62	29757.57
603.78	29823.11
603.94	29776.30
604.09	29532.88
604.25	29633.52
604.40	29626.50
604.56	29989.28
604.71	29610.12
604.87	30094.61
605.03	29977.58
605.18	30036.09
605.34	29825.45
605.49	29287.12
605.65	29628.84
605.80	29649.91
605.96	29514.16
606.12	29308.19
606.27	29734.17
606.43	29699.06
606.58	29734.17
606.74	29610.12
606.89	29970.56
607.05	29699.06
607.20	29933.11
607.36	30096.95
607.51	29649.91
607.67	29266.06
607.82	29483.73
607.98	29511.81
608.13	29422.87
608.29	29535.22
608.44	29752.89
608.60	29706.08
608.75	29694.38
608.91	29902.68
609.06	29509.47
609.22	29457.98
609.37	29371.38
609.53	29142.01
609.68	29443.94
609.84	29472.03
609.99	29551.60
610.15	29216.91
610.30	29474.37
610.46	29486.07
610.61	29235.63
610.76	29525.86
610.92	29694.38
611.07	29462.66
611.23	29240.31
611.38	29193.50
611.54	29474.37
611.69	29008.60
611.84	29427.56
612.00	29303.51
612.15	29109.24
612.31	29542.24
612.46	28924.34
612.62	29406.49
612.77	29397.13
612.92	29509.47
613.08	29193.50
613.23	29212.23
613.39	29488.41
613.54	29008.60
613.69	29186.48
613.85	29228.61
614.00	29483.73
614.15	28968.81
614.31	29137.33
614.46	29212.23
614.62	29317.55
614.77	29357.34
614.92	29017.96
615.08	29120.95
615.23	29249.67
615.38	29289.46
615.54	29043.71
615.69	28926.68
615.84	28882.21
616.00	28727.74
616.15	28720.71
616.30	29223.93
616.46	28795.61
616.61	28912.64
616.76	28872.85
616.92	28968.81
617.07	29207.55
617.22	28907.96
617.37	28760.50
617.53	28704.33
617.68	28718.37
617.83	28744.12
617.99	29024.98
618.14	28896.25
618.29	29064.77
618.45	28706.67
618.60	28795.61
618.75	28936.04
618.90	28577.94
619.06	28720.71
619.21	28512.41
619.36	28877.53
619.51	28629.43
619.67	28201.11
619.82	28510.07
619.97	28730.08
620.12	28273.67
620.28	28636.45
620.43	28484.32
620.58	28697.31
620.73	28816.68
620.89	28893.91
621.04	28922.00
621.19	28699.65
621.34	28596.67
621.49	28201.11
621.65	28514.75
621.80	28486.66
621.95	28580.28
622.10	28498.36
622.25	28517.09
622.41	28266.65
622.56	28105.15
622.71	28247.93
622.86	28409.42
623.01	28463.25
623.16	28266.65
623.32	28339.21
623.47	28627.09
623.62	28205.80
623.77	28140.26
623.92	28114.52
624.07	28173.03
624.23	28098.13
624.38	27978.76
624.53	27946.00
624.68	28439.85
624.83	28311.12
624.98	28245.58
625.13	28084.09
625.29	28283.03
625.44	27953.02
625.59	28048.98
625.74	28016.21
625.89	27758.75
626.04	27681.52
626.19	28166.01
626.34	27590.24
626.49	27662.79
626.65	28016.21
626.80	28030.26
626.95	28025.57
627.10	27955.36
627.25	27901.53
627.40	27658.11
627.55	27901.53
627.70	27737.69
627.85	27791.52
628.00	27765.78
628.15	27599.60
628.30	27756.41
628.45	27398.31
628.60	27920.25
628.76	27964.72
628.91	27550.45
629.06	27498.95
629.21	27871.10
629.36	27494.27
629.51	27445.12
629.66	27592.58
629.81	27103.40
629.96	27178.30
630.11	27297.67
630.26	27246.18
630.41	27297.67
630.56	27330.44
630.71	27323.41
630.86	27405.33
631.01	27182.98
631.16	27393.63
631.31	27178.30
631.46	27372.57
631.61	27356.18
631.76	27316.39
631.91	27101.06
632.06	27129.15
632.21	27412.35
632.36	26951.27
632.51	27157.24
632.66	27178.30
632.81	27002.76
632.96	27311.71
633.10	27498.95
633.25	27395.97
633.40	27157.24
633.55	26841.26
633.70	26857.65
633.85	26909.14
634.00	27054.25
634.15	26864.67
634.30	27075.32
634.45	27002.76
634.60	27084.68
634.75	27028.51
634.90	27501.29
635.05	27101.06
635.19	27103.40
635.34	27175.96
635.49	26766.37
635.64	26871.69
635.79	27131.49
635.94	27056.59
636.09	27068.30
636.24	26969.99
636.39	26700.83
636.53	26789.77
636.68	26534.65
636.83	26469.12
636.98	26944.25
637.13	27112.77
637.28	26560.40
637.43	26754.66
637.57	27000.42
637.72	26738.28
637.87	26735.94
638.02	27019.14
638.17	26649.34
638.32	26410.60
638.46	26590.83
638.61	26436.35
638.76	26078.25
638.91	26258.47
639.06	26567.42
639.20	26717.22
639.35	26366.13
639.50	26768.71
639.65	26637.64
639.80	26852.97
639.94	26286.56
640.09	26363.79
640.24	26113.36
640.39	26405.92
640.54	26082.93
640.68	25844.20
640.83	26209.32
640.98	26068.89
641.13	25876.96
641.27	26373.16
641.42	26108.68
641.57	26272.51
641.72	26391.88
641.86	25783.34
642.01	25961.22
642.16	26111.02
642.31	25970.58
642.45	26300.60
642.60	26017.40
642.75	25898.03
642.90	25528.22
643.04	26288.90
643.19	25940.16
643.34	25799.73
643.48	26134.42
643.63	25844.20
643.78	26356.77
643.93	26190.59
644.07	26045.48
644.22	26345.07
644.37	26026.76
644.51	25734.19
644.66	25914.41
644.81	25891.01
644.95	25729.51
645.10	25729.51
645.25	25736.53
645.39	25626.53
645.54	26103.99
645.69	25858.24
645.83	25617.16
645.98	25769.30
646.13	25441.62
646.27	25624.18
646.42	25762.28
646.57	25568.01
646.71	25621.84
646.86	25661.63
647.00	25610.14
647.15	25495.46
647.30	25331.62
647.44	25535.24
647.59	25530.56
647.74	25273.10
647.88	25579.71
648.03	26132.08
648.17	25956.54
648.32	25310.55
648.47	25493.12
648.61	25724.83
648.76	25572.69
648.90	25245.02
649.05	25565.67
649.20	25558.65
649.34	25731.85
649.49	25282.47
649.63	25446.30
649.78	25064.80
649.92	25228.63
650.07	25371.41
650.21	25331.62
650.36	24999.26
650.51	24896.28
650.65	25296.51
650.80	25247.36
650.94	25165.44
651.09	24982.88
651.23	24893.94
651.38	25135.01
651.52	25163.10
651.67	24912.66
651.81	25034.37
651.96	25071.82
652.10	24982.88
652.25	25188.85
652.39	25450.99
652.54	25207.57
652.68	25116.29
652.83	25118.63
652.97	25369.07
653.12	24877.55
653.26	24713.72
653.41	25118.63
653.55	24706.70
653.70	24905.64
653.84	25027.35
653.99	24886.92
654.13	25067.14
654.27	24861.17
654.42	24844.79
654.56	24809.68
654.71	24915.00
654.85	25013.31
655.00	24849.47
655.14	24760.53
655.29	24856.49
655.43	24797.98
655.57	24872.87
655.72	24812.02
655.86	24416.47
656.01	24645.84
656.15	24372.00
656.30	24271.36
656.44	24364.98
656.58	24334.55
656.73	24608.39
656.87	24173.05
657.01	24868.19
657.16	24617.75
657.30	24748.82
657.45	24484.34
657.59	24467.96
657.73	24318.17
657.88	24374.34
658.02	24390.72
658.16	24566.26
658.31	24285.40
658.45	24573.28
658.60	24020.92
658.74	24074.75
658.88	24009.22
659.03	24034.96
659.17	23974.11
659.31	23950.70
659.46	24254.97
659.60	24477.32
659.74	24486.68
659.89	24095.82
660.03	24011.56
660.17	23955.38
660.32	23913.25
660.46	24027.94
660.60	23824.31
660.74	23882.83
660.89	23489.62
661.03	23583.24
661.17	23971.77
661.32	23704.95
661.46	24243.27
661.60	23690.90
661.74	23381.95
661.89	24149.65
662.03	23850.06
662.17	23339.82
662.31	23910.91
662.46	23623.03
662.60	23810.27
662.74	23360.89
662.88	23143.22
663.03	23328.12
663.17	23400.68
663.31	23374.93
663.45	23194.71
663.60	22972.36
663.74	23215.77
663.88	23456.85
664.02	23173.64
664.17	23026.19
664.31	23367.91
664.45	23255.56
664.59	23012.15
664.73	23175.98
664.88	23269.61
665.02	22757.03
665.16	22862.35
665.30	22794.48
665.44	22750.01
665.59	22742.99
665.73	22499.57
665.87	22757.03
666.01	22852.99
666.15	22792.14
666.29	22972.36
666.44	22483.19
666.58	22874.06
666.72	22457.44
666.86	22703.20
667.00	22534.68
667.14	22640.00
667.28	22726.60
667.43	22553.40
667.57	22684.47
667.71	22207.00
667.85	22473.82
667.99	22162.53
668.13	22230.41
668.27	22417.65
668.41	22356.80
668.56	21898.05
668.70	22029.12
668.84	22178.92
668.98	22225.73
669.12	22221.05
669.26	21970.61
669.40	22022.10
669.54	22157.85
669.68	21984.65
669.82	21872.31
669.96	21451.01
670.10	21806.77
670.25	21839.54
670.39	22036.14
670.53	21624.21
670.67	21495.48
670.81	21729.53
670.95	21785.71
671.09	21607.83
671.23	21902.73
671.37	21411.22
671.51	21755.28
671.65	21930.82
671.79	21537.61
671.93	21205.25
672.07	21341.00
672.21	21085.89
672.35	21586.76
672.49	21198.23
672.63	21181.85
672.77	21043.76
672.91	21238.02
673.05	21207.59
673.19	21088.23
673.33	20968.86
673.47	20957.16
673.61	21123.33
673.75	21085.89
673.89	21083.55
674.03	20833.11
674.17	21025.03
674.31	20685.65
674.45	20444.58
674.59	20779.28
674.73	21027.37
674.87	20360.32
675.01	20599.05
675.15	20184.78
675.29	20517.14
675.43	20327.55
675.56	20201.16
675.70	20386.07
675.84	20472.67
675.98	19346.87
676.12	20107.54
676.26	20311.17
676.40	19894.55
676.54	19719.01
676.68	19917.96
676.82	19597.31
676.96	19679.22
677.10	19641.78
677.23	19592.62
677.37	19616.03
677.51	19726.04
677.65	19932.00
677.79	19393.68
677.93	19541.13
678.07	19342.19
678.21	19154.94
678.34	19293.04
678.48	19164.31
678.62	18831.95
678.76	19164.31
678.90	19040.26
679.04	18930.25
679.18	18974.72
679.31	18778.12
679.45	18789.82
679.59	18743.01
679.73	18867.06
679.87	18513.64
680.00	18546.40
680.14	18523.00
680.28	18625.98
680.42	18651.73
680.56	18230.43
680.70	18321.71
680.83	18363.84
680.97	18628.32
681.11	18480.87
681.25	18401.29
681.39	18260.86
681.52	18092.34
681.66	17783.39
681.80	18150.85
681.94	17914.46
682.07	17907.44
682.21	17891.06
682.35	17486.14
682.49	17631.26
682.62	17687.43
682.76	17371.46
682.90	17706.15
683.04	17401.88
683.17	17481.46
683.31	17727.22
683.45	17469.76
683.59	17284.86
683.72	17261.45
683.86	17078.89
684.00	17116.34
684.13	17142.08
684.27	16982.93
684.41	17006.33
684.55	16870.58
684.68	16620.14
684.82	16606.10
684.96	16666.95
685.09	16643.55
685.23	16432.90
685.37	16510.14
685.50	16507.80
685.64	16659.93
685.78	16781.64
685.91	16411.84
686.05	16559.29
686.19	16475.03
686.32	16418.86
686.46	16198.85
686.60	16006.92
686.73	16297.15
686.87	15992.88
687.01	16116.93
687.14	15807.98
687.28	15995.22
687.42	15854.79
687.55	15740.10
687.69	15721.38
687.82	15810.32
687.96	15569.24
688.10	15620.74
688.23	15730.74
688.37	15735.42
688.50	15803.30
688.64	15194.76
688.78	15609.03
688.91	15255.61
689.05	15161.99
689.18	15295.40
689.32	15101.14
689.46	14946.66
689.59	15049.64
689.73	14967.73
689.86	14941.98
690.00	14944.32
690.13	14668.14
690.27	14745.38
690.41	14728.99
690.54	14511.32
690.68	14944.32
690.81	14595.58
690.95	14904.53
691.08	14633.03
691.22	14768.78
691.35	14504.30
691.49	14394.29
691.62	14319.40
691.76	14015.13
691.89	14401.32
692.03	13905.12
692.16	14010.45
692.30	14211.73
692.43	13970.66
692.57	13748.31
692.70	13680.43
692.84	13598.51
692.97	13717.88
693.11	13762.35
693.24	13804.48
693.38	13628.94
693.51	13638.30
693.65	13532.98
693.78	13289.56
693.92	13338.71
694.05	13317.65
694.19	13074.23
694.32	13362.12
694.45	13156.15
694.59	12901.03
694.72	12898.69
694.86	12943.16
694.99	12945.50
695.13	12849.54
695.26	13116.36
695.39	12837.84
695.53	12692.73
695.66	12533.57
695.80	12760.60
695.93	12819.11
696.07	12872.95
696.20	12695.07
696.33	12496.12
696.47	12362.71
696.60	12362.71
696.73	12383.77
696.87	12369.73
697.00	12299.52
697.14	11929.71
697.27	11861.84
697.40	12028.01
697.54	11765.87
697.67	11995.25
697.80	12070.14
697.94	11777.58
698.07	11978.86
698.21	11943.75
698.34	12098.23
698.47	11688.64
698.61	11953.12
698.74	11939.07
698.87	11606.72
699.01	11330.53
699.14	11611.40
699.27	11520.12
699.40	11442.88
699.54	11295.43
699.67	11358.62
699.80	11211.17
699.94	11300.11
700.07	11126.91
700.20	11096.48
700.34	10740.72
700.47	10902.22
700.60	10984.13
700.73	10981.79
700.87	10846.04
701.00	10808.59
701.13	10995.84
701.26	10832.00
701.40	10892.85
701.53	10719.65
701.66	10607.31
701.79	10518.37
701.93	10511.35
702.06	10422.41
702.19	10200.05
702.32	10394.32
702.46	10359.21
702.59	10279.63
702.72	10029.20
702.85	10153.24
702.99	10321.76
703.12	10031.54
703.25	9905.15
703.38	10111.11
703.51	10111.11
703.65	9982.38
703.78	10003.45
703.91	9844.29
704.04	9905.15
704.17	10054.94
704.31	9802.16
704.44	9900.47
704.57	9579.81
704.70	9525.98
704.83	9371.50
704.96	9231.07
705.10	9460.45
705.23	9378.53
>>>>>End Processed Spectral Data<<<<<
