SpectraSuite Data File
++++++++++++++++++++++++++++++++++++
Date: Fri Oct 18 13:58:34 GMT-05:00 2013
User: bianchi
Dark Spectrum Present: No
Reference Spectrum Present: No
Number of Sampled Component Spectra: 1
Spectrometers: USB2+H05261
Integration Time (usec): 50000 (USB2+H05261)
Spectra Averaged: 1 (USB2+H05261)
Boxcar Smoothing: 0 (USB2+H05261)
Correct for Electrical Dark: No (USB2+H05261)
Strobe/Lamp Enabled: No (USB2+H05261)
Correct for Detector Non-linearity: No (USB2+H05261)
Correct for Stray Light: No (USB2+H05261)
Number of Pixels in Processed Spectrum: 2048
>>>>>Begin Processed Spectral Data<<<<<
365.73	16.38
365.92	16.38
366.12	16.38
366.32	0.00
366.52	0.00
366.72	0.00
366.91	0.00
367.11	0.00
367.31	0.00
367.51	0.00
367.70	0.00
367.90	0.00
368.10	0.00
368.30	0.00
368.49	0.00
368.69	0.00
368.89	0.00
369.09	0.00
369.28	0.00
369.48	0.00
369.68	0.00
369.87	0.00
370.07	0.00
370.27	0.00
370.47	0.00
370.66	81.92
370.86	145.11
371.06	149.79
371.25	191.92
371.45	93.62
371.65	194.26
371.84	138.09
372.04	133.41
372.24	210.65
372.44	177.88
372.63	149.79
372.83	173.20
373.03	245.76
373.22	175.54
373.42	203.63
373.62	308.95
373.81	175.54
374.01	187.24
374.21	191.92
374.40	243.42
374.60	227.03
374.79	290.23
374.99	245.76
375.19	138.09
375.38	189.58
375.58	184.90
375.78	227.03
375.97	278.52
376.17	334.70
376.37	334.70
376.56	252.78
376.76	306.61
376.95	234.05
377.15	304.27
377.35	257.46
377.54	311.29
377.74	262.14
377.93	257.46
378.13	241.08
378.33	278.52
378.52	292.57
378.72	262.14
378.91	320.65
379.11	301.93
379.31	262.14
379.50	308.95
379.70	255.12
379.89	266.82
380.09	351.08
380.28	308.95
380.48	259.80
380.68	259.80
380.87	383.85
381.07	327.68
381.26	325.33
381.46	339.38
381.65	278.52
381.85	287.89
382.04	294.91
382.24	395.55
382.43	367.46
382.63	322.99
382.83	409.59
383.02	344.06
383.22	330.02
383.41	355.76
383.61	369.80
383.80	365.12
384.00	383.85
384.19	325.33
384.39	416.62
384.58	337.04
384.78	379.17
384.97	365.12
385.17	269.16
385.36	425.98
385.56	397.89
385.75	390.87
385.95	362.78
386.14	418.96
386.34	402.57
386.53	395.55
386.72	425.98
386.92	526.62
387.11	395.55
387.31	374.49
387.50	327.68
387.70	397.89
387.89	393.21
388.09	402.57
388.28	454.06
388.48	322.99
388.67	418.96
388.86	449.38
389.06	390.87
389.25	484.49
389.45	486.83
389.64	482.15
389.84	547.69
390.03	386.19
390.22	496.19
390.42	442.36
390.61	552.37
390.81	433.00
391.00	514.92
391.19	531.30
391.39	465.77
391.58	463.43
391.78	514.92
391.97	531.30
392.16	479.81
392.36	512.58
392.55	547.69
392.75	533.64
392.94	596.84
393.13	592.16
393.33	458.74
393.52	491.51
393.71	568.75
393.91	603.86
394.10	594.50
394.29	554.71
394.49	526.62
394.68	650.67
394.88	554.71
395.07	543.00
395.26	592.16
395.46	667.05
395.65	664.71
395.84	594.50
396.04	629.60
396.23	603.86
396.42	608.54
396.62	624.92
396.81	643.65
397.00	528.96
397.19	613.22
397.39	655.35
397.58	627.26
397.77	671.73
397.97	690.46
398.16	772.38
398.35	737.27
398.55	603.86
398.74	664.71
398.93	758.33
399.12	624.92
399.32	692.80
399.51	751.31
399.70	767.70
399.90	641.31
400.09	821.53
400.28	730.25
400.47	725.57
400.67	798.12
400.86	821.53
401.05	791.10
401.24	858.98
401.44	765.36
401.63	772.38
401.82	809.83
402.01	716.20
402.21	851.96
402.40	777.06
402.59	858.98
402.78	821.53
402.97	842.59
403.17	706.84
403.36	795.78
403.55	858.98
403.74	812.17
403.93	940.90
404.13	863.66
404.32	842.59
404.51	936.21
404.70	851.96
404.89	875.36
405.09	915.15
405.28	919.83
405.47	884.72
405.66	929.19
405.85	940.90
406.05	898.77
406.24	931.53
406.43	1015.79
406.62	952.60
406.81	1043.88
407.00	1022.81
407.20	1018.13
407.39	1097.71
407.58	1149.20
407.77	1081.33
407.96	1015.79
408.15	1083.67
408.34	1036.86
408.54	1088.35
408.73	1095.37
408.92	1146.86
409.11	1196.01
409.30	1121.12
409.49	1104.73
409.68	1167.93
409.87	1100.05
410.07	1149.20
410.26	1163.25
410.45	1153.88
410.64	1170.27
410.83	1219.42
411.02	1165.59
411.21	1135.16
411.40	1341.13
411.59	1228.78
411.78	1198.35
411.98	1219.42
412.17	1315.38
412.36	1306.02
412.55	1221.76
412.74	1275.59
412.93	1366.87
413.12	1320.06
413.31	1490.92
413.50	1439.43
413.69	1359.85
413.88	1444.11
414.07	1427.73
414.26	1352.83
414.45	1378.58
414.64	1481.56
414.83	1509.65
415.02	1451.13
415.22	1385.60
415.41	1523.69
415.60	1516.67
415.79	1647.74
415.98	1675.82
416.17	1603.27
416.36	1610.29
416.55	1542.41
416.74	1577.52
416.93	1612.63
417.12	1645.40
417.31	1757.74
417.50	1696.89
417.69	1769.44
417.88	1734.34
418.07	1694.55
418.26	1654.76
418.45	1729.66
418.64	1832.64
418.83	1736.68
419.02	1769.44
419.21	1874.77
419.39	1769.44
419.58	1837.32
419.77	1746.04
419.96	1893.49
420.15	1919.24
420.34	1797.53
420.53	1874.77
420.72	1856.04
420.91	1912.22
421.10	1879.45
421.29	1842.00
421.48	1806.89
421.67	1937.96
421.86	1987.11
422.05	1853.70
422.24	2043.29
422.43	1963.71
422.61	1963.71
422.80	1921.58
422.99	2026.90
423.18	2101.80
423.37	2071.37
423.56	1916.90
423.75	2031.58
423.94	1949.67
424.13	1909.88
424.32	1898.17
424.50	1994.14
424.69	1991.80
424.88	2017.54
425.07	1961.37
425.26	1926.26
425.45	2040.95
425.64	2010.52
425.83	1991.80
426.01	1975.41
426.20	2113.50
426.39	2033.93
426.58	2132.23
426.77	2052.65
426.96	2071.37
427.15	2054.99
427.33	2160.31
427.52	2092.44
427.71	2146.27
427.90	2022.22
428.09	2195.42
428.28	2136.91
428.46	2214.15
428.65	2200.10
428.84	2150.95
429.03	2162.66
429.22	2183.72
429.40	2256.28
429.59	2263.30
429.78	2139.25
429.97	2200.10
430.16	2200.10
430.34	2249.25
430.53	2284.36
430.72	2200.10
430.91	2284.36
431.10	2340.54
431.28	2361.60
431.47	2223.51
431.66	2415.43
431.85	2225.85
432.03	2373.30
432.22	2534.80
432.41	2480.97
432.60	2518.42
432.79	2410.75
432.97	2333.51
433.16	2389.69
433.35	2462.24
433.54	2530.12
433.72	2513.74
433.91	2513.74
434.10	2420.11
434.28	2546.50
434.47	2581.61
434.66	2588.63
434.85	2633.10
435.03	2661.19
435.22	2560.55
435.41	2553.52
435.59	2579.27
435.78	2698.64
435.97	2616.72
436.16	2708.00
436.34	2654.17
436.53	2738.43
436.72	2818.00
436.90	2553.52
437.09	2679.91
437.28	2663.53
437.46	2668.21
437.65	2822.69
437.84	2715.02
438.02	2806.30
438.21	2761.83
438.40	2562.89
438.58	2857.79
438.77	3019.29
438.96	2899.92
439.14	2932.69
439.33	2862.48
439.52	2953.76
439.70	2963.12
439.89	3007.59
440.08	2988.86
440.26	2984.18
440.45	2953.76
440.63	3000.57
440.82	3021.63
441.01	3000.57
441.19	3126.96
441.38	3070.78
441.57	3185.47
441.75	3084.83
441.94	3150.36
442.12	3176.11
442.31	3405.48
442.50	3192.49
442.68	3222.92
442.87	3171.43
443.05	3330.58
443.24	3197.17
443.43	3311.86
443.61	3466.33
443.80	3527.19
443.98	3192.49
444.17	3229.94
444.35	3316.54
444.54	3368.03
444.73	3377.39
444.91	3344.63
445.10	3433.57
445.28	3438.25
445.47	3358.67
445.65	3473.36
445.84	3417.18
446.02	3562.30
446.21	3449.95
446.39	3316.54
446.58	3538.89
446.77	3492.08
446.95	3358.67
447.14	3569.32
447.32	3435.91
447.51	3555.27
447.69	3482.72
447.88	3501.44
448.06	3588.04
448.25	3445.27
448.43	3595.06
448.62	3618.47
448.80	3459.31
448.99	3618.47
449.17	3566.98
449.36	3552.93
449.54	3716.77
449.73	3634.85
449.91	3618.47
450.10	3578.68
450.28	3735.50
450.46	3634.85
450.65	3651.24
450.83	3595.06
451.02	3854.86
451.20	3723.79
451.39	3871.25
451.57	3662.94
451.76	3674.64
451.94	3866.56
452.13	3815.07
452.31	3838.48
452.49	3770.60
452.68	3859.54
452.86	3819.75
453.05	3817.41
453.23	3997.64
453.42	3859.54
453.60	3896.99
453.78	4011.68
453.97	3936.78
454.15	4007.00
454.34	3852.52
454.52	3964.87
454.70	3941.46
454.89	4124.02
455.07	3988.27
455.26	4159.13
455.44	4053.81
455.62	3936.78
455.81	4065.51
455.99	4023.38
456.17	4145.09
456.36	4100.62
456.54	4203.60
456.73	4131.05
456.91	4393.19
457.09	4149.77
457.28	4315.95
457.46	4187.22
457.64	4318.29
457.83	4358.08
458.01	4287.86
458.19	4358.08
458.38	4325.31
458.56	4262.12
458.74	4407.23
458.93	4262.12
459.11	4306.59
459.29	4360.42
459.48	4622.56
459.66	4496.17
459.84	4468.08
460.03	4554.68
460.21	4449.36
460.39	4456.38
460.57	4369.78
460.76	4554.68
460.94	4559.36
461.12	4636.60
461.31	4699.80
461.49	4484.47
461.67	4641.28
461.85	4655.33
462.04	4676.39
462.22	4615.54
462.40	4704.48
462.59	4472.76
462.77	4753.63
462.95	4664.69
463.13	4737.24
463.32	4830.87
463.50	4730.22
463.68	4938.53
463.86	4952.57
464.05	4727.88
464.23	4933.85
464.41	4844.91
464.59	4758.31
464.78	4844.91
464.96	4903.42
465.14	4784.06
465.32	5036.83
465.50	4938.53
465.69	5125.77
465.87	4802.78
466.05	4781.71
466.23	4880.02
466.41	4875.34
466.60	5114.07
466.78	5062.58
466.96	4952.57
467.14	4978.32
467.32	4973.64
467.51	5107.05
467.69	5090.67
467.87	5121.09
468.05	5174.92
468.23	4992.36
468.41	5111.73
468.60	5254.50
468.78	5336.42
468.96	5123.43
469.14	5114.07
469.32	5313.02
469.50	5029.81
469.69	5317.70
469.87	5481.53
470.05	5420.68
470.23	5359.83
470.41	5369.19
470.59	5411.32
470.77	5399.62
470.95	5528.35
471.14	5493.24
471.32	5549.41
471.50	5624.31
471.68	5418.34
471.86	5603.24
472.04	5579.84
472.22	5596.22
472.40	5729.63
472.58	5645.37
472.77	5816.23
472.95	5715.59
473.13	5935.60
473.31	5778.78
473.49	5788.14
473.67	5856.02
473.85	5820.91
474.03	6008.16
474.21	5851.34
474.39	6085.39
474.57	6174.33
474.75	5966.03
474.93	6139.23
475.12	6066.67
475.30	6050.28
475.48	6141.57
475.66	6244.55
475.84	6143.91
476.02	6300.72
476.20	6242.21
476.38	6249.23
476.56	6574.56
476.74	6277.32
476.92	6251.57
477.10	6497.33
477.28	6539.46
477.46	6551.16
477.64	6722.02
477.82	6766.49
478.00	6832.02
478.18	6895.22
478.36	6960.75
478.54	7014.59
478.72	7162.04
478.90	7124.59
479.08	7047.35
479.26	7082.46
479.44	7208.85
479.62	7300.13
479.80	7375.03
479.98	7290.77
480.16	7426.52
480.34	7440.56
480.52	7630.15
480.70	7655.89
480.88	7485.03
481.06	7520.14
481.24	7667.60
481.41	7754.19
481.59	7899.31
481.77	8049.10
481.95	7988.25
482.13	8037.40
482.31	7901.65
482.49	8238.69
482.67	7967.18
482.85	8243.37
483.03	8264.43
483.21	8568.70
483.39	8638.92
483.57	8346.35
483.74	8486.78
483.92	8692.75
484.10	8517.21
484.28	8697.43
484.46	9085.96
484.64	9069.58
484.82	8926.80
485.00	9041.49
485.18	9291.93
485.35	9334.06
485.53	9205.33
485.71	9507.26
485.89	9455.76
486.07	9563.43
486.25	9355.12
486.43	9561.09
486.61	9584.49
486.78	9638.33
486.96	9919.19
487.14	10136.86
487.32	9902.81
487.50	10176.65
487.68	10003.45
487.85	10340.49
488.03	10345.17
488.21	10534.75
488.39	10403.68
488.57	10382.62
488.75	10558.16
488.92	10712.63
489.10	10523.05
489.28	10801.57
489.46	10988.82
489.64	11056.69
489.81	11192.44
489.99	11243.93
490.17	11094.14
490.35	11356.28
490.53	11309.47
490.70	11597.35
490.88	11419.47
491.06	11545.86
491.24	11559.91
491.41	11571.61
491.59	11726.08
491.77	11833.75
491.95	12025.67
492.13	12056.10
492.30	12184.83
492.48	11981.20
492.66	12231.64
492.84	12182.49
493.01	12355.69
493.19	12664.64
493.37	12573.36
493.54	12463.35
493.72	12500.80
493.90	12659.96
494.08	12610.81
494.25	12762.94
494.43	12739.54
494.61	12922.10
494.79	13287.22
494.96	13128.06
495.14	13156.15
495.32	13376.16
495.49	13355.10
495.67	13650.00
495.85	13568.09
496.02	13851.29
496.20	13760.01
496.38	13881.72
496.55	13729.58
496.73	14279.61
496.91	13921.51
497.09	14242.16
497.26	14075.98
497.44	14382.59
497.62	14272.59
497.79	14232.80
497.97	14501.96
498.14	14623.67
498.32	14649.41
498.50	14682.18
498.67	14878.79
498.85	14607.28
499.03	14764.10
499.20	14998.15
499.38	14836.66
499.56	15169.01
499.73	15185.40
499.91	15115.18
500.08	15342.21
500.26	15194.76
500.44	15295.40
500.61	15569.24
500.79	15424.13
500.97	15686.27
501.14	15939.05
501.32	15798.62
501.49	15625.42
501.67	15569.24
501.84	15803.30
502.02	15690.95
502.20	16006.92
502.37	16074.80
502.55	15840.75
502.72	15833.72
502.90	16147.36
503.07	15793.94
503.25	16308.85
503.43	16060.76
503.60	16325.24
503.78	16137.99
503.95	16512.48
504.13	16430.56
504.30	16556.95
504.48	16360.34
504.65	16400.13
504.83	16549.93
505.01	16814.41
505.18	16858.88
505.36	16781.64
505.53	16744.19
505.71	16744.19
505.88	16746.53
506.06	17128.04
506.23	16996.97
506.41	17163.15
506.58	17392.52
506.76	17111.66
506.93	17228.68
507.11	17109.32
507.28	17521.25
507.46	17413.59
507.63	17312.94
507.81	17855.95
507.98	17500.19
508.16	17549.34
508.33	17441.67
508.50	17809.14
508.68	17867.65
508.85	17874.67
509.03	17912.12
509.20	17914.46
509.38	18122.77
509.55	18097.02
509.73	18197.67
509.90	17994.04
510.08	18148.51
510.25	17806.80
510.42	18394.27
510.60	18218.73
510.77	18258.52
510.95	18471.51
511.12	18380.23
511.30	18466.83
511.47	18600.24
511.64	18904.51
511.82	18946.64
511.99	18888.12
512.17	18892.80
512.34	18972.38
512.51	18937.27
512.69	18827.27
512.86	18890.46
513.04	19255.59
513.21	19239.20
513.38	19393.68
513.56	19173.67
513.73	19353.89
513.90	19286.01
514.08	19124.52
514.25	19391.34
514.43	19564.54
514.60	19634.75
514.77	19803.27
514.95	20011.58
515.12	19573.90
515.29	19358.57
515.47	19779.87
515.64	19899.23
515.81	20123.93
515.99	20119.24
516.16	20173.08
516.33	20177.76
516.51	20152.01
516.68	19962.43
516.85	20018.60
517.03	20152.01
517.20	20212.87
517.37	20264.36
517.54	20498.41
517.72	20500.75
517.89	20327.55
518.06	20198.82
518.24	20463.30
518.41	20393.09
518.58	20376.70
518.75	20606.08
518.93	20477.35
519.10	20308.83
519.27	20945.45
519.45	20568.63
519.62	21039.08
519.79	20690.34
519.96	20760.55
520.14	20828.43
520.31	20975.88
520.48	21144.40
520.65	21130.36
520.83	21195.89
521.00	21151.42
521.17	20952.48
521.34	21160.78
521.52	21111.63
521.69	21596.12
521.86	21254.40
522.03	21743.58
522.20	21853.58
522.38	21827.84
522.55	21710.81
522.72	21455.69
522.89	21233.34
523.07	21900.39
523.24	21778.68
523.41	21781.03
523.58	21886.35
523.75	22106.36
523.92	21577.40
524.10	21998.70
524.27	22089.98
524.44	22160.19
524.61	22260.84
524.78	22132.11
524.96	22424.67
525.13	22192.96
525.30	22228.07
525.47	22314.67
525.64	22183.60
525.81	22508.93
525.98	22375.52
526.16	22431.69
526.33	22614.26
526.50	22782.77
526.67	22471.48
526.84	22345.09
527.01	22408.29
527.18	22787.46
527.36	22714.90
527.53	22871.72
527.70	23005.13
527.87	23147.90
528.04	23040.23
528.21	22883.42
528.38	22640.00
528.55	23159.60
528.72	23241.52
528.89	23192.37
529.07	22991.08
529.24	23138.54
529.41	23180.67
529.58	23150.24
529.75	23480.25
529.92	23538.77
530.09	23414.72
530.26	23201.73
530.43	23470.89
530.60	23206.41
530.77	23470.89
530.94	23428.76
531.11	23751.76
531.28	23433.44
531.46	23433.44
531.63	23836.02
531.80	23672.18
531.97	23868.78
532.14	23866.44
532.31	23995.17
532.48	23983.47
532.65	24053.69
532.82	24077.09
532.99	23901.55
533.16	24177.73
533.33	24189.44
533.50	24030.28
533.67	24049.00
533.84	24135.60
534.01	24091.13
534.18	23833.68
534.35	24332.21
534.52	24081.77
534.69	23988.15
534.86	24570.94
535.03	24521.79
535.20	24266.67
535.37	24294.76
535.54	24386.04
535.71	24467.96
535.88	24353.27
536.05	24596.69
536.22	24823.72
536.38	24760.53
536.55	24786.27
536.72	24542.86
536.89	24629.46
537.06	24673.93
537.23	24966.49
537.40	24372.00
537.57	24725.42
537.74	24753.51
537.91	24912.66
538.08	24893.94
538.25	25013.31
538.42	25301.19
538.59	24980.54
538.75	24561.58
538.92	24833.08
539.09	25020.33
539.26	25270.76
539.43	24980.54
539.60	25364.39
539.77	25186.50
539.94	25221.61
540.11	25338.64
540.28	25160.76
540.44	25380.77
540.61	25111.61
540.78	25010.96
540.95	25659.29
541.12	25448.64
541.29	25553.97
541.46	25034.37
541.62	25460.35
541.79	25296.51
541.96	25507.16
542.13	25282.47
542.30	25539.93
542.47	25991.65
542.63	25661.63
542.80	25872.28
542.97	25940.16
543.14	26380.18
543.31	25891.01
543.48	26019.74
543.64	26260.81
543.81	25818.45
543.98	26286.56
544.15	26111.02
544.32	26307.62
544.48	26270.17
544.65	26085.27
544.82	26377.84
544.99	25979.95
545.16	26237.41
545.32	25834.83
545.49	26906.80
545.66	26707.85
545.83	26450.39
546.00	26672.74
546.16	26450.39
546.33	26576.78
546.50	26221.02
546.67	26160.17
546.83	26682.11
547.00	26202.30
547.17	26354.43
547.34	26733.60
547.50	26618.91
547.67	26864.67
547.84	26855.31
548.00	26881.05
548.17	26906.80
548.34	26757.00
548.51	27023.83
548.67	27206.39
548.84	27070.64
549.01	26848.29
549.18	27030.85
549.34	27049.57
549.51	27014.46
549.68	26562.74
549.84	26771.05
550.01	26747.64
550.18	26967.65
550.34	27250.86
550.51	27412.35
550.68	27278.94
550.84	27157.24
551.01	27494.27
551.18	27283.62
551.34	26892.76
551.51	27232.13
551.68	27215.75
551.84	27494.27
552.01	27646.41
552.18	27363.20
552.34	27180.64
552.51	27606.62
552.68	27417.04
552.84	27037.87
553.01	27342.14
553.18	27236.81
553.34	27859.40
553.51	27463.85
553.67	27562.15
553.84	28013.87
554.01	28020.89
554.17	27725.99
554.34	27358.52
554.51	27475.55
554.67	27639.39
554.84	28130.90
555.00	27740.03
555.17	27896.85
555.33	28119.20
555.50	27632.36
555.67	27686.20
555.83	27838.33
556.00	27854.72
556.16	28105.15
556.33	28332.18
556.50	27864.08
556.66	28201.11
556.83	28116.86
556.99	28294.74
557.16	28301.76
557.32	28231.54
557.49	28098.13
557.65	28060.68
557.82	28404.74
557.98	28257.29
558.15	28114.52
558.32	28259.63
558.48	27887.48
558.65	28481.98
558.81	27978.76
558.98	28173.03
559.14	28292.40
559.31	28215.16
559.47	28290.06
559.64	28091.11
559.80	28151.96
559.97	28177.71
560.13	28428.15
560.30	28570.92
560.46	28376.66
560.63	28458.57
560.79	28357.93
560.96	28458.57
561.12	28245.58
561.29	28226.86
561.45	28489.00
561.61	28765.18
561.78	28587.30
561.94	28744.12
562.11	28608.37
562.27	28606.03
562.44	28692.63
562.60	28435.17
562.77	27971.74
562.93	28077.07
563.10	28748.80
563.26	28760.50
563.42	29123.29
563.59	28634.11
563.75	28521.77
563.92	28849.44
564.08	28779.23
564.24	28723.05
564.41	28496.02
564.57	28404.74
564.74	28685.61
564.90	28383.68
565.07	28624.75
565.23	28690.29
565.39	28545.17
565.56	28996.90
565.72	28797.95
565.88	28975.83
566.05	28528.79
566.21	28917.32
566.38	28716.03
566.54	29076.48
566.70	28680.92
566.87	28900.94
567.03	28840.08
567.19	29163.08
567.36	29266.06
567.52	28840.08
567.68	28961.79
567.85	28922.00
568.01	28917.32
568.17	28776.89
568.34	28985.19
568.50	28898.59
568.66	28877.53
568.83	28950.09
568.99	29230.95
569.15	28898.59
569.32	28882.21
569.48	28936.04
569.64	29163.08
569.81	28926.68
569.97	29191.16
570.13	29263.72
570.30	29022.64
570.46	29111.58
570.62	28680.92
570.78	29188.82
570.95	29287.12
571.11	29102.22
571.27	29083.50
571.43	29071.79
571.60	28938.38
571.76	29259.04
571.92	29024.98
572.09	29202.86
572.25	29408.83
572.41	29216.91
572.57	29383.09
572.74	29479.05
572.90	29120.95
573.06	29219.25
573.22	29039.03
573.38	29298.83
573.55	29308.19
573.71	29790.34
573.87	29633.52
574.03	29284.78
574.20	29317.55
574.36	29041.37
574.52	29053.07
574.68	29305.85
574.84	29282.44
575.01	29083.50
575.17	29376.06
575.33	29223.93
575.49	29427.56
575.65	28753.48
575.82	29216.91
575.98	29507.13
576.14	29277.76
576.30	29240.31
576.46	29193.50
576.62	29493.09
576.79	29479.05
576.95	29287.12
577.11	29216.91
577.27	29755.23
577.43	29076.48
577.59	29205.20
577.75	28826.04
577.92	28900.94
578.08	29184.14
578.24	29156.05
578.40	29214.57
578.56	29244.99
578.72	29420.53
578.88	29116.26
579.04	29708.42
579.21	29462.66
579.37	29336.27
579.53	29387.77
579.69	29383.09
579.85	29696.72
580.01	29053.07
580.17	29266.06
580.33	29397.13
580.49	29291.80
580.65	29439.26
580.82	29729.48
580.98	29549.26
581.14	29518.84
581.30	29628.84
581.46	29708.42
581.62	29357.34
581.78	29481.39
581.94	29549.26
582.10	29209.89
582.26	29179.46
582.42	29713.10
582.58	29252.02
582.74	29511.81
582.90	29830.13
583.06	29579.69
583.22	29493.09
583.38	29340.96
583.54	29439.26
583.70	29572.67
583.86	29446.28
584.02	29413.51
584.18	29659.27
584.34	30038.44
584.50	29298.83
584.66	29392.45
584.82	29610.12
584.98	29418.19
585.14	29429.90
585.30	29596.07
585.46	29441.60
585.62	29465.00
585.78	29266.06
585.94	29514.16
586.10	29502.45
586.26	29797.36
586.42	29530.54
586.58	29345.64
586.74	29600.76
586.90	29287.12
587.06	29472.03
587.22	29509.47
587.38	29427.56
587.54	29699.06
587.70	29710.76
587.86	29802.04
588.02	29823.11
588.18	29933.11
588.34	29860.55
588.49	29572.67
588.65	29553.94
588.81	29432.24
588.97	29717.78
589.13	29544.58
589.29	29441.60
589.45	29607.78
589.61	30251.42
589.77	29837.15
589.93	30125.04
590.08	29570.33
590.24	30022.05
590.40	29750.55
590.56	29844.17
590.72	30061.84
590.88	29235.63
591.04	29823.11
591.20	29916.73
591.35	30082.91
591.51	30302.92
591.67	29986.94
591.83	30150.78
591.99	29930.77
592.15	30008.01
592.31	29898.00
592.46	29659.27
592.62	29731.83
592.78	29567.99
592.94	29621.82
593.10	29757.57
593.26	29876.94
593.41	30174.19
593.57	29816.08
593.73	29820.77
593.89	29933.11
594.05	30110.99
594.20	29759.91
594.36	29846.51
594.52	29881.62
594.68	29921.41
594.84	29949.50
594.99	29820.77
595.15	29914.39
595.31	30253.76
595.47	29902.68
595.62	30183.55
595.78	30073.54
595.94	30068.86
596.10	29839.49
596.25	30223.34
596.41	29586.71
596.57	29635.86
596.73	30101.63
596.88	29830.13
597.04	30192.91
597.20	30113.33
597.36	30314.62
597.51	30118.01
597.67	30134.40
597.83	30029.07
597.99	29846.51
598.14	29984.60
598.30	30026.73
598.46	30223.34
598.61	29898.00
598.77	30054.82
598.93	30459.73
599.09	29792.68
599.24	30223.34
599.40	30225.68
599.56	30438.67
599.71	30010.35
599.87	30120.35
600.03	29914.39
600.18	30120.35
600.34	30216.32
600.50	30073.54
600.65	29673.31
600.81	30546.33
600.97	30143.76
601.12	30485.48
601.28	30452.71
601.44	30323.98
601.59	29986.94
601.75	30024.39
601.91	30106.31
602.06	30110.99
602.22	29900.34
602.37	29991.62
602.53	30164.82
602.69	30127.38
602.84	30340.36
603.00	30560.37
603.16	30211.64
603.31	30110.99
603.47	30169.51
603.62	30085.25
603.78	29940.13
603.94	29752.89
604.09	30171.85
604.25	29916.73
604.40	29926.09
604.56	29975.24
604.71	30221.00
604.87	30038.44
605.03	30675.06
605.18	30122.69
605.34	30281.85
605.49	29823.11
605.65	29790.34
605.80	29944.81
605.96	29921.41
606.12	29575.01
606.27	30331.00
606.43	29942.47
606.58	30366.11
606.74	29886.30
606.89	30164.82
607.05	30181.21
607.20	30331.00
607.36	30213.98
607.51	29713.10
607.67	29986.94
607.82	29881.62
607.98	29699.06
608.13	30155.46
608.29	30029.07
608.44	29989.28
608.60	29685.01
608.75	30305.26
608.91	29879.28
609.06	29986.94
609.22	29998.65
609.37	29738.85
609.53	30150.78
609.68	29633.52
609.84	30239.72
609.99	29764.59
610.15	29383.09
610.30	29818.42
610.46	29813.74
610.61	29532.88
610.76	30139.08
610.92	30082.91
611.07	29954.18
611.23	29582.03
611.38	29722.46
611.54	29666.29
611.69	29392.45
611.84	29600.76
612.00	29525.86
612.15	29689.70
612.31	29996.31
612.46	29755.23
612.62	29783.32
612.77	29355.00
612.92	29820.77
613.08	29631.18
613.23	29443.94
613.39	29247.33
613.54	29289.46
613.69	29523.52
613.85	29706.08
614.00	29500.11
614.15	29453.30
614.31	29399.47
614.46	29940.13
614.62	29853.53
614.77	29198.18
614.92	29530.54
615.08	29450.96
615.23	29575.01
615.38	29287.12
615.54	29322.23
615.69	29198.18
615.84	29181.80
616.00	29425.22
616.15	29184.14
616.30	29682.67
616.46	29511.81
616.61	29862.90
616.76	29404.15
616.92	29640.54
617.07	29383.09
617.22	29057.75
617.37	29006.26
617.53	29654.59
617.68	29310.53
617.83	29017.96
617.99	28865.83
618.14	29013.28
618.29	29174.78
618.45	29188.82
618.60	29165.42
618.75	29298.83
618.90	29282.44
619.06	29097.54
619.21	29024.98
619.36	28781.57
619.51	29111.58
619.67	28762.84
619.82	28725.39
619.97	28964.13
620.12	28840.08
620.28	28781.57
620.43	29029.66
620.58	29308.19
620.73	29193.50
620.89	28919.66
621.04	28910.30
621.19	28826.04
621.34	28996.90
621.49	28732.42
621.65	28896.25
621.80	28844.76
621.95	28556.88
622.10	28718.37
622.25	28428.15
622.41	28793.27
622.56	28835.40
622.71	28788.59
622.86	28781.57
623.01	29055.41
623.16	28545.17
623.32	28362.61
623.47	28809.65
623.62	28624.75
623.77	28772.21
623.92	28357.93
624.07	28442.19
624.23	28299.42
624.38	28533.47
624.53	28573.26
624.68	28882.21
624.83	28517.09
624.98	28772.21
625.13	28203.46
625.29	28346.23
625.44	28666.88
625.59	28196.43
625.74	28329.84
625.89	28343.89
626.04	28116.86
626.19	28147.28
626.34	28184.73
626.49	28180.05
626.65	28496.02
626.80	28650.50
626.95	27831.31
627.10	28371.97
627.25	28224.52
627.40	28201.11
627.55	27798.54
627.70	27765.78
627.85	27817.27
628.00	27852.38
628.15	28128.56
628.30	27744.71
628.45	27859.40
628.60	27941.32
628.76	28034.94
628.91	27639.39
629.06	27728.33
629.21	28060.68
629.36	27878.12
629.51	27814.93
629.66	27859.40
629.81	27845.35
629.96	27789.18
630.11	27611.30
630.26	27845.35
630.41	27454.48
630.56	27496.61
630.71	28056.00
630.86	27426.40
631.01	27683.86
631.16	27981.10
631.31	27889.82
631.46	27487.25
631.61	27910.89
631.76	27772.80
631.91	27524.70
632.06	27487.25
632.21	27379.59
632.36	27433.42
632.51	27480.23
632.66	27580.87
632.81	27335.12
632.96	27192.34
633.10	27475.55
633.25	27360.86
633.40	27487.25
633.55	27639.39
633.70	27150.21
633.85	27225.11
634.00	27138.51
634.15	27246.18
634.30	27236.81
634.45	27051.91
634.60	27424.06
634.75	27000.42
634.90	27028.51
635.05	27414.69
635.19	27255.54
635.34	27395.97
635.49	27110.43
635.64	27185.32
635.79	27218.09
635.94	27190.00
636.09	27246.18
636.24	26969.99
636.39	26955.95
636.53	27140.85
636.68	27133.83
636.83	26981.70
636.98	27112.77
637.13	27002.76
637.28	27328.10
637.43	26981.70
637.57	26614.23
637.72	27190.00
637.87	26855.31
638.02	26801.47
638.17	27190.00
638.32	26778.07
638.46	26331.03
638.61	27115.11
638.76	26822.54
638.91	27175.96
639.06	26668.06
639.20	26696.15
639.35	26630.62
639.50	26969.99
639.65	27414.69
639.80	26848.29
639.94	26679.77
640.09	26899.78
640.24	27019.14
640.39	26642.32
640.54	26668.06
640.68	26815.52
640.83	26551.04
640.98	26015.05
641.13	26370.82
641.27	26637.64
641.42	26419.97
641.57	26686.79
641.72	26529.97
641.86	26455.08
642.01	26354.43
642.16	26286.56
642.31	26087.61
642.45	26614.23
642.60	25750.57
642.75	26270.17
642.90	26029.10
643.04	26146.12
643.19	26197.62
643.34	26593.17
643.48	26284.22
643.63	26319.32
643.78	26232.72
643.93	26150.81
644.07	26284.22
644.22	26260.81
644.37	26153.15
644.51	26499.55
644.66	26258.47
644.81	26047.82
644.95	26235.06
645.10	26101.65
645.25	26270.17
645.39	25935.48
645.54	26211.66
645.69	26052.50
645.83	25982.29
645.98	25715.47
646.13	26071.23
646.27	25977.61
646.42	25989.31
646.57	25914.41
646.71	25752.91
646.86	26008.03
647.00	25886.32
647.15	25699.08
647.30	25958.88
647.44	25837.17
647.59	25869.94
647.74	26033.78
647.88	25865.26
648.03	26139.10
648.17	26108.68
648.32	25858.24
648.47	25923.77
648.61	25649.93
648.76	26005.69
648.90	25750.57
649.05	26115.70
649.20	25455.67
649.34	25855.90
649.49	24980.54
649.63	25324.60
649.78	25582.06
649.92	25195.87
650.07	25542.27
650.21	25355.02
650.36	25472.05
650.51	25504.82
650.65	25312.89
650.80	25277.79
650.94	25511.84
651.09	25254.38
651.23	25273.10
651.38	25350.34
651.52	24919.68
651.67	25172.46
651.81	25277.79
651.96	25343.32
652.10	25219.27
652.25	25200.55
652.39	24992.24
652.54	25443.96
652.68	25479.07
652.83	25280.13
652.97	25446.30
653.12	25406.52
653.26	25294.17
653.41	25366.73
653.55	25350.34
653.70	25046.07
653.84	25003.94
653.99	25254.38
654.13	24856.49
654.27	24849.47
654.42	25216.93
654.56	25195.87
654.71	25460.35
654.85	25198.21
655.00	25228.63
655.14	25191.19
655.29	24664.57
655.43	25120.97
655.57	25137.35
655.72	24734.78
655.86	24725.42
656.01	25085.86
656.15	24926.71
656.30	24907.98
656.44	24795.64
656.58	24779.25
656.73	25039.05
656.87	24664.57
657.01	25008.62
657.16	24980.54
657.30	25036.71
657.45	24765.21
657.59	24411.79
657.73	24697.33
657.88	24933.73
658.02	24755.85
658.16	24645.84
658.31	24341.57
658.45	24685.63
658.60	24439.87
658.74	24587.33
658.88	24397.74
659.03	24388.38
659.17	24355.61
659.31	24482.00
659.46	24355.61
659.60	24620.10
659.74	24194.12
659.89	24388.38
660.03	23957.72
660.17	24711.38
660.32	24105.18
660.46	24245.61
660.60	23812.61
660.74	24107.52
660.89	24219.86
661.03	23992.83
661.17	24334.55
661.32	23850.06
661.46	24041.98
661.60	24163.69
661.74	24243.27
661.89	24056.03
662.03	23988.15
662.17	23983.47
662.31	23653.45
662.46	24135.60
662.60	23613.66
662.74	23826.65
662.88	23658.14
663.03	23527.06
663.17	23599.62
663.31	23358.55
663.45	23391.31
663.60	23548.13
663.74	23482.59
663.88	23262.58
664.02	23454.51
664.17	23527.06
664.31	23601.96
664.45	23791.55
664.59	23452.17
664.73	23578.56
664.88	23323.44
665.02	22867.03
665.16	23358.55
665.30	23442.81
665.44	23278.97
665.59	22796.82
665.73	22977.04
665.87	22852.99
666.01	23175.98
666.15	22888.10
666.29	23194.71
666.44	22794.48
666.58	22682.13
666.72	22735.96
666.86	22955.97
667.00	22857.67
667.14	22782.77
667.28	22766.39
667.43	22719.58
667.57	22719.58
667.71	22782.77
667.85	22745.33
667.99	22377.86
668.13	22455.10
668.27	22651.70
668.41	22607.23
668.56	22340.41
668.70	22211.68
668.84	22228.07
668.98	22644.68
669.12	22628.30
669.26	22387.22
669.40	22389.56
669.54	22527.66
669.68	22335.73
669.82	22057.21
669.96	21914.44
670.10	21846.56
670.25	22080.61
670.39	21949.54
670.53	21862.94
670.67	21584.42
670.81	21596.12
670.95	21944.86
671.09	21825.50
671.23	22101.68
671.37	22001.04
671.51	21813.79
671.65	21832.52
671.79	21823.16
671.93	21664.00
672.07	21701.45
672.21	21628.89
672.35	21539.95
672.49	21446.33
672.63	21284.83
672.77	21252.06
672.91	21333.98
673.05	21252.06
673.19	20989.92
673.33	21085.89
673.47	21392.50
673.61	21465.05
673.75	20964.18
673.89	21027.37
674.03	20922.05
674.17	20833.11
674.31	21039.08
674.45	20882.26
674.59	20695.02
674.73	20893.96
674.87	20755.87
675.01	20851.83
675.15	20517.14
675.29	20332.23
675.43	20568.63
675.56	20664.59
675.70	20613.10
675.84	20582.67
675.98	20133.29
676.12	20318.19
676.26	20498.41
676.40	20580.33
676.54	20027.96
676.68	20512.46
676.82	19644.12
676.96	20056.05
677.10	19969.45
677.23	19997.54
677.37	19751.78
677.51	19852.42
677.65	19814.98
677.79	19637.09
677.93	19489.64
678.07	19447.51
678.21	19276.65
678.34	19798.59
678.48	19550.49
678.62	19449.85
678.76	19332.82
678.90	19187.71
679.04	19302.40
679.18	19325.80
679.31	18927.91
679.45	18820.25
679.59	19112.81
679.73	18782.80
679.87	18897.49
680.00	18490.23
680.14	18794.50
680.28	18317.03
680.42	18654.07
680.56	18656.41
680.70	18710.24
680.83	18677.48
680.97	18408.31
681.11	18506.62
681.25	18494.91
681.39	18335.76
681.52	18305.33
681.66	18363.84
681.80	18202.35
681.94	18183.62
682.07	18169.58
682.21	18050.21
682.35	18066.60
682.49	17830.20
682.62	18022.12
682.76	17626.57
682.90	17818.50
683.04	17647.64
683.17	17584.44
683.31	17624.23
683.45	17666.36
683.59	17727.22
683.72	17422.95
683.86	17621.89
684.00	17514.23
684.13	17245.07
684.27	17294.22
684.41	17198.26
684.55	17006.33
684.68	17081.23
684.82	17025.06
684.96	16875.26
685.09	16959.52
685.23	16774.62
685.37	16807.39
685.50	16828.45
685.64	16992.29
685.78	16765.26
685.91	16624.83
686.05	16652.91
686.19	16652.91
686.32	16863.56
686.46	16290.13
686.60	16154.38
686.73	16074.80
686.87	16053.73
687.01	16137.99
687.14	15714.36
687.28	16035.01
687.42	15969.48
687.55	15927.35
687.69	15616.05
687.82	15969.48
687.96	15833.72
688.10	15768.19
688.23	15625.42
688.37	15658.18
688.50	15812.66
688.64	15552.86
688.78	15494.35
688.91	15335.19
689.05	15239.23
689.18	15246.25
689.32	14967.73
689.46	15309.44
689.59	15279.02
689.73	15152.63
689.86	15126.88
690.00	14974.75
690.13	14867.08
690.27	14843.68
690.41	15054.33
690.54	14656.43
690.68	14885.81
690.81	14668.14
690.95	14927.94
691.08	14752.40
691.22	14829.63
691.35	14525.36
691.49	14733.67
691.62	14347.48
691.76	14242.16
691.89	14384.93
692.03	14216.41
692.16	13902.78
692.30	14164.92
692.43	14157.90
692.57	13729.58
692.70	13886.40
692.84	13862.99
692.97	13781.07
693.11	13820.86
693.24	13818.52
693.38	13818.52
693.51	13612.56
693.65	13752.99
693.78	13635.96
693.92	13624.26
694.05	13413.61
694.19	13486.17
694.32	13408.93
694.45	13212.32
694.59	13097.64
694.72	13193.60
694.86	13172.54
694.99	12826.14
695.13	13139.77
695.26	13043.81
695.39	12800.39
695.53	12975.93
695.66	12875.29
695.80	12975.93
695.93	12706.77
696.07	12812.09
696.20	12872.95
696.33	12858.90
696.47	12664.64
696.60	12589.74
696.73	12554.63
696.87	12451.65
697.00	12287.81
697.14	12257.39
697.27	12318.24
697.40	12292.49
697.54	12166.10
697.67	12035.03
697.80	12037.38
697.94	11999.93
698.07	12100.57
698.21	11896.94
698.34	11866.52
698.47	11995.25
698.61	11817.36
698.74	11873.54
698.87	11709.70
699.01	11595.01
699.14	11700.34
699.27	11335.21
699.40	11573.95
699.54	11419.47
699.67	11300.11
699.80	11302.45
699.94	11365.64
700.07	11332.87
700.20	11082.44
700.34	11012.22
700.47	11105.84
700.60	11075.42
700.73	11073.07
700.87	10841.36
701.00	10956.05
701.13	11063.71
701.26	10956.05
701.40	11070.73
701.53	10558.16
701.66	10773.49
701.79	10703.27
701.93	10574.54
702.06	10492.62
702.19	10604.97
702.32	10427.09
702.46	10366.23
702.59	10307.72
702.72	10429.43
702.85	10368.57
702.99	10267.93
703.12	10270.27
703.25	9975.36
703.38	10134.52
703.51	10073.67
703.65	10190.69
703.78	10003.45
703.91	10087.71
704.04	9893.44
704.17	10003.45
704.31	9853.66
704.44	9848.97
704.57	9727.27
704.70	9500.23
704.83	9586.83
704.96	9554.07
705.10	9315.33
705.23	9378.53
>>>>>End Processed Spectral Data<<<<<
