SpectraSuite Data File
++++++++++++++++++++++++++++++++++++
Date: Fri Oct 18 13:58:18 GMT-05:00 2013
User: bianchi
Dark Spectrum Present: No
Reference Spectrum Present: No
Number of Sampled Component Spectra: 1
Spectrometers: USB2+H05261
Integration Time (usec): 50000 (USB2+H05261)
Spectra Averaged: 1 (USB2+H05261)
Boxcar Smoothing: 0 (USB2+H05261)
Correct for Electrical Dark: No (USB2+H05261)
Strobe/Lamp Enabled: No (USB2+H05261)
Correct for Detector Non-linearity: No (USB2+H05261)
Correct for Stray Light: No (USB2+H05261)
Number of Pixels in Processed Spectrum: 2048
>>>>>Begin Processed Spectral Data<<<<<
365.73	0.00
365.92	0.00
366.12	0.00
366.32	0.00
366.52	0.00
366.72	0.00
366.91	0.00
367.11	0.00
367.31	0.00
367.51	0.00
367.70	0.00
367.90	0.00
368.10	0.00
368.30	0.00
368.49	0.00
368.69	0.00
368.89	0.00
369.09	0.00
369.28	0.00
369.48	0.00
369.68	0.00
369.87	0.00
370.07	0.00
370.27	0.00
370.47	0.00
370.66	0.00
370.86	124.05
371.06	175.54
371.25	159.16
371.45	166.18
371.65	121.71
371.84	65.54
372.04	203.63
372.24	168.52
372.44	212.99
372.63	124.05
372.83	147.45
373.03	198.95
373.22	187.24
373.42	168.52
373.62	224.69
373.81	243.42
374.01	191.92
374.21	201.29
374.40	182.56
374.60	210.65
374.79	224.69
374.99	217.67
375.19	266.82
375.38	238.73
375.58	215.33
375.78	271.50
375.97	262.14
376.17	292.57
376.37	194.26
376.56	294.91
376.76	273.84
376.95	280.86
377.15	182.56
377.35	311.29
377.54	306.61
377.74	283.20
377.93	269.16
378.13	280.86
378.33	264.48
378.52	187.24
378.72	276.18
378.91	322.99
379.11	304.27
379.31	334.70
379.50	287.89
379.70	327.68
379.89	259.80
380.09	241.08
380.28	315.97
380.48	294.91
380.68	266.82
380.87	248.10
381.07	402.57
381.26	379.17
381.46	308.95
381.65	330.02
381.85	341.72
382.04	292.57
382.24	346.40
382.43	327.68
382.63	311.29
382.83	386.19
383.02	353.42
383.22	346.40
383.41	355.76
383.61	315.97
383.80	381.51
384.00	376.83
384.19	362.78
384.39	402.57
384.58	351.08
384.78	372.15
384.97	311.29
385.17	381.51
385.36	393.21
385.56	339.38
385.75	355.76
385.95	454.06
386.14	404.91
386.34	479.81
386.53	395.55
386.72	367.46
386.92	395.55
387.11	433.00
387.31	386.19
387.50	351.08
387.70	386.19
387.89	332.36
388.09	409.59
388.28	456.40
388.48	472.79
388.67	440.02
388.86	425.98
389.06	486.83
389.25	421.30
389.45	477.47
389.64	472.79
389.84	543.00
390.03	524.28
390.22	470.45
390.42	489.17
390.61	477.47
390.81	528.96
391.00	465.77
391.19	505.56
391.39	533.64
391.58	535.98
391.78	519.60
391.97	589.82
392.16	533.64
392.36	477.47
392.55	585.13
392.75	491.51
392.94	524.28
393.13	449.38
393.33	479.81
393.52	566.41
393.71	596.84
393.91	620.24
394.10	468.11
394.29	552.37
394.49	610.88
394.68	622.58
394.88	533.64
395.07	702.16
395.26	624.92
395.46	650.67
395.65	585.13
395.84	620.24
396.04	674.07
396.23	634.29
396.42	592.16
396.62	636.63
396.81	650.67
397.00	610.88
397.19	615.56
397.39	744.29
397.58	613.22
397.77	660.03
397.97	702.16
398.16	660.03
398.35	706.84
398.55	650.67
398.74	704.50
398.93	706.84
399.12	667.05
399.32	671.73
399.51	634.29
399.70	760.67
399.90	786.42
400.09	711.52
400.28	702.16
400.47	767.70
400.67	828.55
400.86	706.84
401.05	816.85
401.24	734.93
401.44	844.93
401.63	781.74
401.82	767.70
402.01	746.63
402.21	828.55
402.40	856.64
402.59	877.70
402.78	793.44
402.97	851.96
403.17	882.38
403.36	856.64
403.55	868.34
403.74	926.85
403.93	887.06
404.13	875.36
404.32	870.68
404.51	856.64
404.70	905.79
404.89	973.66
405.09	1004.09
405.28	933.87
405.47	905.79
405.66	966.64
405.85	1043.88
406.05	973.66
406.24	922.17
406.43	884.72
406.62	971.32
406.81	1069.62
407.00	1118.78
407.20	987.71
407.39	985.37
407.58	987.71
407.77	1004.09
407.96	1130.48
408.15	1097.71
408.34	1046.22
408.54	1114.10
408.73	1078.99
408.92	1048.56
409.11	1172.61
409.30	1111.75
409.49	1172.61
409.68	1184.31
409.87	1135.16
410.07	1109.41
410.26	1207.72
410.45	1142.18
410.64	1217.08
410.83	1224.10
411.02	1151.54
411.21	1212.40
411.40	1149.20
411.59	1263.89
411.78	1242.82
411.98	1280.27
412.17	1313.04
412.36	1252.19
412.55	1256.87
412.74	1369.21
412.93	1331.76
413.12	1263.89
413.31	1341.13
413.50	1329.42
413.69	1411.34
413.88	1425.39
414.07	1490.92
414.26	1479.22
414.45	1486.24
414.64	1453.47
414.83	1547.09
415.02	1467.52
415.22	1490.92
415.41	1554.12
415.60	1593.90
415.79	1579.86
415.98	1528.37
416.17	1540.07
416.36	1568.16
416.55	1591.56
416.74	1724.97
416.93	1535.39
417.12	1647.74
417.31	1657.10
417.50	1781.15
417.69	1673.48
417.88	1816.26
418.07	1809.23
418.26	1703.91
418.45	1736.68
418.64	1774.13
418.83	1809.23
419.02	1764.76
419.21	1860.73
419.39	1825.62
419.58	1652.42
419.77	1774.13
419.96	1830.30
420.15	1832.64
420.34	1818.60
420.53	1818.60
420.72	1912.22
420.91	1912.22
421.10	1907.54
421.29	1998.82
421.48	2045.63
421.67	1977.75
421.86	1933.28
422.05	1987.11
422.24	1912.22
422.43	1912.22
422.61	1975.41
422.80	2022.22
422.99	2047.97
423.18	2052.65
423.37	2026.90
423.56	1973.07
423.75	1888.81
423.94	1947.33
424.13	1935.62
424.32	1895.83
424.50	2113.50
424.69	1987.11
424.88	2139.25
425.07	2024.56
425.26	1961.37
425.45	2062.01
425.64	2031.58
425.83	2090.10
426.01	2111.16
426.20	2031.58
426.39	2008.18
426.58	1963.71
426.77	2087.76
426.96	2106.48
427.15	2118.18
427.33	2132.23
427.52	1989.46
427.71	2204.78
427.90	2179.04
428.09	2104.14
428.28	2146.27
428.46	2202.44
428.65	2324.15
428.84	2221.17
429.03	2146.27
429.22	2207.13
429.40	2188.40
429.59	2249.25
429.78	2188.40
429.97	2146.27
430.16	2242.23
430.34	2230.53
430.53	2312.45
430.72	2321.81
430.91	2209.47
431.10	2272.66
431.28	2328.83
431.47	2394.37
431.66	2377.98
431.85	2349.90
432.03	2429.48
432.22	2385.01
432.41	2506.71
432.60	2427.14
432.79	2422.45
432.97	2537.14
433.16	2480.97
433.35	2429.48
433.54	2471.61
433.72	2403.73
433.91	2473.95
434.10	2443.52
434.28	2492.67
434.47	2539.48
434.66	2579.27
434.85	2588.63
435.03	2616.72
435.22	2490.33
435.41	2647.15
435.59	2677.57
435.78	2579.27
435.97	2700.98
436.16	2738.43
436.34	2677.57
436.53	2672.89
436.72	2679.91
436.90	2530.12
437.09	2551.18
437.28	2579.27
437.46	2743.11
437.65	2715.02
437.84	2836.73
438.02	2890.56
438.21	2862.48
438.40	2780.56
438.58	2778.22
438.77	2906.95
438.96	2712.68
439.14	2850.77
439.33	2942.05
439.52	3000.57
439.70	2855.45
439.89	2876.52
440.08	3014.61
440.26	3178.45
440.45	2920.99
440.63	3087.17
440.82	3204.19
441.01	3148.02
441.19	3131.64
441.38	3145.68
441.57	3075.46
441.75	3119.93
441.94	3208.87
442.12	3269.73
442.31	3316.54
442.50	3262.71
442.68	3262.71
442.87	3368.03
443.05	3316.54
443.24	3325.90
443.43	3353.99
443.61	3482.72
443.80	3487.40
443.98	3379.73
444.17	3208.87
444.35	3323.56
444.54	3494.42
444.73	3480.38
444.91	3386.76
445.10	3330.58
445.28	3300.16
445.47	3337.60
445.65	3417.18
445.84	3517.83
446.02	3499.10
446.21	3386.76
446.39	3478.04
446.58	3564.64
446.77	3592.72
446.95	3396.12
447.14	3508.46
447.32	3590.38
447.51	3496.76
447.69	3506.12
447.88	3499.10
448.06	3522.51
448.25	3454.63
448.43	3604.42
448.62	3482.72
448.80	3569.32
448.99	3630.17
449.17	3740.18
449.36	3534.21
449.54	3721.45
449.73	3581.02
449.91	3700.39
450.10	3637.19
450.28	3698.05
450.46	3747.20
450.65	3782.31
450.83	3735.50
451.02	3665.28
451.20	3786.99
451.39	3733.15
451.57	3765.92
451.76	3660.60
451.94	3786.99
452.13	3728.47
452.31	3801.03
452.49	3885.29
452.68	3817.41
452.86	3826.78
453.05	3880.61
453.23	3976.57
453.42	3892.31
453.60	3840.82
453.78	4011.68
453.97	3709.75
454.15	3976.57
454.34	3946.14
454.52	3974.23
454.70	4032.74
454.89	4152.11
455.07	4072.53
455.26	4086.58
455.44	4166.15
455.62	4098.28
455.81	3981.25
455.99	4095.94
456.17	4032.74
456.36	4093.60
456.54	4149.77
456.73	4278.50
456.91	4404.89
457.09	4234.03
457.28	4390.84
457.46	4308.93
457.64	4369.78
457.83	4212.96
458.01	4264.46
458.19	4306.59
458.38	4327.65
458.56	4535.96
458.74	4545.32
458.93	4559.36
459.11	4440.00
459.29	4360.42
459.48	4301.90
459.66	4496.17
459.84	4648.30
460.03	4550.00
460.21	4400.21
460.39	4624.90
460.57	4533.62
460.76	4723.20
460.94	4596.81
461.12	4795.76
461.31	4610.86
461.49	4465.74
461.67	4638.94
461.85	4697.46
462.04	4557.02
462.22	5006.41
462.40	4603.83
462.59	4683.41
462.77	4781.71
462.95	4692.77
463.13	4641.28
463.32	4648.30
463.50	4800.44
463.68	4723.20
463.86	4751.29
464.05	4695.11
464.23	4905.76
464.41	4912.78
464.59	4795.76
464.78	5053.22
464.96	4954.91
465.14	4912.78
465.32	4983.00
465.50	5057.90
465.69	4968.96
465.87	5128.11
466.05	5048.54
466.23	4943.21
466.41	5036.83
466.60	5093.01
466.78	5064.92
466.96	5100.03
467.14	5090.67
467.32	5195.99
467.51	5219.39
467.69	4990.02
467.87	5100.03
468.05	5083.64
468.23	5165.56
468.41	5081.30
468.60	5090.67
468.78	5266.21
468.96	5177.26
469.14	5270.89
469.32	5280.25
469.50	5177.26
469.69	5259.18
469.87	5481.53
470.05	5387.91
470.23	5437.06
470.41	5277.91
470.59	5640.69
470.77	5462.81
470.95	5465.15
471.14	5575.16
471.32	5390.25
471.50	5694.52
471.68	5572.82
471.86	5558.77
472.04	5696.86
472.22	5795.17
472.40	5607.92
472.58	5769.42
472.77	5638.35
472.95	5792.83
473.13	6024.54
473.31	5753.04
473.49	5799.85
473.67	6012.84
473.85	5902.83
474.03	5867.72
474.21	6104.12
474.39	6040.92
474.57	5951.98
474.75	6022.20
474.93	6043.26
475.12	6061.99
475.30	6340.51
475.48	6235.19
475.66	6214.12
475.84	6251.57
476.02	6375.62
476.20	6417.75
476.38	6593.29
476.56	6562.86
476.74	6387.32
476.92	6696.27
477.10	6607.33
477.28	6672.87
477.46	6637.76
477.64	6602.65
477.82	6799.26
478.00	6731.38
478.18	6895.22
478.36	6953.73
478.54	7023.95
478.72	7052.03
478.90	7052.03
479.08	7192.47
479.26	7344.60
479.44	7307.15
479.62	7360.98
479.80	7342.26
479.98	7255.66
480.16	7653.55
480.34	7368.01
480.52	7595.04
480.70	7386.73
480.88	7569.29
481.06	7723.77
481.24	7782.28
481.41	7861.86
481.59	7892.29
481.77	7908.67
481.95	7913.35
482.13	7999.95
482.31	8086.55
482.49	8212.94
482.67	8063.15
482.85	8245.71
483.03	8294.86
483.21	8552.32
483.39	8662.32
483.57	8493.80
483.74	8709.13
483.92	8549.98
484.10	8706.79
484.28	8706.79
484.46	8997.02
484.64	9001.70
484.82	9015.74
485.00	9118.73
485.18	9160.86
485.35	9315.33
485.53	9252.14
485.71	9404.27
485.89	9792.80
486.07	9364.48
486.25	9652.37
486.43	9692.16
486.61	9647.69
486.78	9863.02
486.96	9839.61
487.14	10120.48
487.32	10164.95
487.50	10139.20
487.68	10094.73
487.85	10408.36
488.03	10375.59
488.21	10333.47
488.39	10490.28
488.57	10569.86
488.75	10651.78
488.92	10815.62
489.10	11082.44
489.28	10939.66
489.46	11044.99
489.64	10960.73
489.81	11199.46
489.99	11194.78
490.17	11330.53
490.35	11576.29
490.53	11669.91
490.70	11716.72
490.88	11506.07
491.06	11779.92
491.24	11878.22
491.41	11616.08
491.59	11768.21
491.77	11932.05
491.95	12212.92
492.13	12276.11
492.30	12365.05
492.48	12224.62
492.66	12348.67
492.84	12208.23
493.01	12737.20
493.19	12617.83
493.37	12594.42
493.54	12732.51
493.72	12725.49
493.90	12814.43
494.08	12865.92
494.25	13146.79
494.43	13184.24
494.61	13284.88
494.79	13446.38
494.96	13263.82
495.14	13231.05
495.32	13472.12
495.49	13610.22
495.67	13579.79
495.85	13540.00
496.02	13806.82
496.20	13598.51
496.38	13830.23
496.55	13907.46
496.73	14230.46
496.91	14340.46
497.09	14326.42
497.26	14471.53
497.44	14246.84
497.62	14377.91
497.79	14480.89
497.97	14530.05
498.14	14422.38
498.32	14977.09
498.50	14803.89
498.67	14937.30
498.85	14925.60
499.03	15035.60
499.20	15080.07
499.38	14981.77
499.56	15124.54
499.73	15119.86
499.91	15419.45
500.08	15311.78
500.26	15077.73
500.44	15517.75
500.61	15452.22
500.79	15452.22
500.97	15506.05
501.14	15819.68
501.32	16009.26
501.49	15623.08
501.67	15681.59
501.84	16006.92
502.02	15976.50
502.20	16294.81
502.37	16119.27
502.55	16079.48
502.72	16187.14
502.90	16250.34
503.07	16159.06
503.25	16133.31
503.43	16182.46
503.60	16327.58
503.78	16624.83
503.95	16460.99
504.13	16568.65
504.30	16627.17
504.48	16510.14
504.65	16812.07
504.83	16856.54
505.01	17039.10
505.18	17046.12
505.36	17050.80
505.53	17081.23
505.71	16957.18
505.88	16945.48
506.06	17067.19
506.23	17282.52
506.41	17184.21
506.58	17399.54
506.76	17254.43
506.93	17453.37
507.11	17528.27
507.28	17399.54
507.46	17460.40
507.63	17640.62
507.81	17582.10
507.98	17738.92
508.16	17781.05
508.33	17738.92
508.50	18017.44
508.68	17727.22
508.85	18293.63
509.03	18272.56
509.20	17778.71
509.38	18286.61
509.55	18459.81
509.73	18281.92
509.90	18136.81
510.08	18359.16
510.25	18230.43
510.42	18551.09
510.60	18745.35
510.77	18752.37
510.95	18930.25
511.12	18551.09
511.30	18988.77
511.47	18581.51
511.64	18698.54
511.82	19084.73
511.99	19075.37
512.17	19140.90
512.34	18642.37
512.51	19358.57
512.69	19007.49
512.86	19084.73
513.04	18923.23
513.21	19503.68
513.38	19264.95
513.56	19716.67
513.73	19220.48
513.90	19480.28
514.08	19548.15
514.25	19763.48
514.43	20016.26
514.60	20203.50
514.77	19396.02
514.95	19840.72
515.12	19447.51
515.29	19578.58
515.47	19726.04
515.64	19971.79
515.81	20189.46
515.99	19936.68
516.16	20320.53
516.33	20191.80
516.51	20336.91
516.68	20430.54
516.85	20313.51
517.03	20240.95
517.20	20439.90
517.37	20423.51
517.54	20702.04
517.72	20500.75
517.89	20273.72
518.06	20257.34
518.24	20152.01
518.41	20711.40
518.58	20739.49
518.75	20772.25
518.93	20673.95
519.10	20751.19
519.27	20954.82
519.45	20566.29
519.62	20905.66
519.79	20774.60
519.96	20758.21
520.14	21214.62
520.31	21205.25
520.48	21301.22
520.65	21205.25
520.83	21039.08
521.00	21380.79
521.17	21289.51
521.34	21420.58
521.52	21439.31
521.69	21844.22
521.86	21764.64
522.03	21727.19
522.20	21530.59
522.38	21759.96
522.55	21858.26
522.72	22054.87
522.89	21776.34
523.07	22319.35
523.24	21844.22
523.41	22317.01
523.58	22059.55
523.75	22155.51
523.92	21741.24
524.10	22122.74
524.27	22221.05
524.44	22429.35
524.61	22515.95
524.78	22401.27
524.96	22190.62
525.13	22429.35
525.30	22539.36
525.47	22518.29
525.64	22600.21
525.81	22654.05
525.98	22499.57
526.16	22499.57
526.33	22892.78
526.50	23119.81
526.67	22445.74
526.84	22995.76
527.01	22939.59
527.18	22939.59
527.36	23000.44
527.53	23152.58
527.70	23304.71
527.87	23571.54
528.04	22878.74
528.21	23042.57
528.38	23215.77
528.55	23063.64
528.72	23051.94
528.89	23412.38
529.07	23571.54
529.24	23367.91
529.41	23517.70
529.58	23283.65
529.75	23377.27
529.92	23438.12
530.09	23445.15
530.26	23290.67
530.43	23651.11
530.60	23894.53
530.77	23880.49
530.94	23683.88
531.11	23601.96
531.28	23868.78
531.46	23599.62
531.63	23957.72
531.80	24168.37
531.97	24093.47
532.14	23903.89
532.31	23826.65
532.48	23889.85
532.65	23997.51
532.82	24233.91
532.99	24599.03
533.16	24140.29
533.33	24554.56
533.50	24430.51
533.67	24364.98
533.84	24020.92
534.01	24400.08
534.18	24163.69
534.35	24505.41
534.52	24664.57
534.69	24592.01
534.86	24439.87
535.03	24496.05
535.20	24776.91
535.37	25022.67
535.54	24912.66
535.71	24570.94
535.88	24601.37
536.05	24533.50
536.22	24692.65
536.38	24966.49
536.55	25020.33
536.72	24931.39
536.89	24631.80
537.06	24994.58
537.23	25006.28
537.40	24900.96
537.57	24912.66
537.74	24999.26
537.91	25263.74
538.08	25338.64
538.25	25137.35
538.42	25287.15
538.59	25282.47
538.75	25277.79
538.92	24943.09
539.09	25605.46
539.26	25481.41
539.43	25614.82
539.60	25619.50
539.77	25369.07
539.94	25511.84
540.11	25376.09
540.28	25694.40
540.44	25345.66
540.61	25467.37
540.78	25479.07
540.95	25996.33
541.12	25418.22
541.29	25458.01
541.46	25675.68
541.62	25575.03
541.79	25612.48
541.96	25462.69
542.13	25736.53
542.30	25773.98
542.47	26192.94
542.63	25869.94
542.80	26279.54
542.97	26394.22
543.14	26473.80
543.31	26267.83
543.48	26106.34
543.64	26408.26
543.81	26656.36
543.98	26391.88
544.15	26391.88
544.32	26541.68
544.48	26937.23
544.65	26415.29
544.82	26134.42
544.99	26518.27
545.16	26405.92
545.32	26518.27
545.49	26885.73
545.66	26735.94
545.83	26455.08
546.00	27058.93
546.16	26841.26
546.33	26398.90
546.50	26349.75
546.67	26499.55
546.83	26579.12
547.00	27044.89
547.17	26618.91
547.34	26817.86
547.50	27292.99
547.67	27054.25
547.84	26567.42
548.00	26768.71
548.17	27351.50
548.34	26871.69
548.51	27236.81
548.67	27590.24
548.84	27154.90
549.01	27021.48
549.18	27140.85
549.34	27372.57
549.51	27185.32
549.68	27199.37
549.84	26974.67
550.01	27456.82
550.18	27152.55
550.34	27798.54
550.51	27473.21
550.68	27763.43
550.84	27201.71
551.01	27307.03
551.18	27531.72
551.34	27342.14
551.51	27131.49
551.68	27536.40
551.84	27545.76
552.01	27557.47
552.18	27599.60
552.34	27817.27
552.51	27744.71
552.68	27730.67
552.84	27653.43
553.01	27960.04
553.18	28140.26
553.34	28056.00
553.51	27758.75
553.67	27955.36
553.84	28126.22
554.01	28037.28
554.17	27775.14
554.34	27903.87
554.51	27651.09
554.67	27885.14
554.84	28280.69
555.00	28184.73
555.17	28166.01
555.33	28194.09
555.50	27838.33
555.67	27978.76
555.83	28065.36
556.00	27910.89
556.16	28084.09
556.33	28390.70
556.50	28549.85
556.66	28655.18
556.83	28020.89
556.99	28666.88
557.16	28561.56
557.32	28437.51
557.49	28563.90
557.65	28439.85
557.82	28034.94
557.98	28397.72
558.15	28713.69
558.32	28481.98
558.48	28472.62
558.65	28629.43
558.81	28442.19
558.98	28402.40
559.14	28800.29
559.31	28243.24
559.47	28161.33
559.64	28694.97
559.80	28292.40
559.97	28566.24
560.13	28868.17
560.30	28414.10
560.46	28821.36
560.63	28685.61
560.79	28802.63
560.96	29022.64
561.12	28753.48
561.29	28451.55
561.45	29062.43
561.61	28622.41
561.78	28884.55
561.94	28856.46
562.11	29071.79
562.27	28676.24
562.44	28987.53
562.60	28622.41
562.77	28706.67
562.93	28505.38
563.10	29069.45
563.26	28828.38
563.42	29039.03
563.59	29139.67
563.75	28936.04
563.92	28982.85
564.08	28573.26
564.24	29039.03
564.41	29062.43
564.57	28716.03
564.74	28931.36
564.90	28952.43
565.07	29397.13
565.23	29270.74
565.39	29123.29
565.56	29055.41
565.72	28844.76
565.88	29085.84
566.05	28828.38
566.21	29340.96
566.38	28999.24
566.54	29362.02
566.70	29420.53
566.87	29336.27
567.03	29230.95
567.19	29759.91
567.36	29668.63
567.52	29214.57
567.68	29067.11
567.85	29455.64
568.01	28989.88
568.17	29214.57
568.34	29450.96
568.50	29223.93
568.66	29191.16
568.83	29544.58
568.99	29249.67
569.15	29359.68
569.32	29113.92
569.48	28725.39
569.64	29322.23
569.81	29074.13
569.97	29092.86
570.13	29521.18
570.30	29443.94
570.46	29717.78
570.62	29474.37
570.78	29310.53
570.95	29305.85
571.11	29673.31
571.27	29380.74
571.43	28718.37
571.60	29766.93
571.76	29106.90
571.92	29465.00
572.09	29422.87
572.25	29717.78
572.41	29329.25
572.57	29488.41
572.74	29916.73
572.90	29434.58
573.06	29472.03
573.22	29708.42
573.38	29399.47
573.55	29214.57
573.71	29717.78
573.87	29865.24
574.03	29436.92
574.20	29490.75
574.36	29149.03
574.52	29483.73
574.68	29462.66
574.84	29780.98
575.01	29422.87
575.17	29626.50
575.33	29312.87
575.49	29687.36
575.65	30003.33
575.82	29858.21
575.98	29759.91
576.14	29614.80
576.30	29596.07
576.46	29607.78
576.62	29233.29
576.79	29614.80
576.95	29570.33
577.11	29649.91
577.27	29544.58
577.43	29759.91
577.59	29780.98
577.75	29771.61
577.92	29619.48
578.08	29483.73
578.24	29256.70
578.40	29490.75
578.56	29907.37
578.72	29591.39
578.88	29741.19
579.04	29853.53
579.21	29640.54
579.37	29614.80
579.53	29720.12
579.69	29827.79
579.85	29701.40
580.01	30019.71
580.17	29621.82
580.33	29479.05
580.49	29933.11
580.65	30073.54
580.82	30127.38
580.98	29848.85
581.14	29848.85
581.30	29926.09
581.46	30054.82
581.62	29495.43
581.78	29593.73
581.94	29970.56
582.10	29544.58
582.26	29720.12
582.42	29685.01
582.58	29834.81
582.74	30094.61
582.90	30101.63
583.06	29919.07
583.22	29734.17
583.38	29816.08
583.54	29708.42
583.70	29504.79
583.86	29867.58
584.02	29699.06
584.18	30024.39
584.34	30040.78
584.50	29748.21
584.66	29598.41
584.82	29532.88
584.98	29844.17
585.14	29666.29
585.30	29916.73
585.46	29890.98
585.62	29766.93
585.78	29951.84
585.94	29785.66
586.10	29993.97
586.26	30099.29
586.42	30202.27
586.58	29865.24
586.74	29766.93
586.90	29706.08
587.06	29954.18
587.22	29862.90
587.38	29607.78
587.54	29951.84
587.70	30115.67
587.86	30113.33
588.02	30101.63
588.18	30188.23
588.34	30103.97
588.49	29928.43
588.65	29921.41
588.81	29443.94
588.97	29984.60
589.13	29860.55
589.29	29956.52
589.45	29958.86
589.61	29986.94
589.77	30335.68
589.93	30125.04
590.08	30501.86
590.24	30188.23
590.40	30480.80
590.56	30644.63
590.72	30204.61
590.88	29736.51
591.04	30040.78
591.20	30661.02
591.35	30164.82
591.51	30368.45
591.67	30618.89
591.83	30293.55
591.99	30450.37
592.15	30127.38
592.31	30370.79
592.46	30532.29
592.62	29984.60
592.78	30153.12
592.94	30228.02
593.10	29972.90
593.26	30644.63
593.41	30300.58
593.57	30171.85
593.73	30181.21
593.89	30574.42
594.05	30541.65
594.20	30192.91
594.36	29930.77
594.52	30277.17
594.68	30064.18
594.84	30466.75
594.99	30639.95
595.15	30148.44
595.31	30649.32
595.47	30693.79
595.62	30487.82
595.78	30323.98
595.94	30195.25
596.10	30291.21
596.25	30099.29
596.41	30153.12
596.57	30078.22
596.73	30139.08
596.88	30431.65
597.04	30562.72
597.20	30621.23
597.36	30740.60
597.51	30433.99
597.67	30134.40
597.83	30134.40
597.99	30003.33
598.14	30382.49
598.30	30548.67
598.46	30029.07
598.61	30298.23
598.77	30345.05
598.93	30574.42
599.09	30649.32
599.24	30778.04
599.40	30822.51
599.56	30450.37
599.71	30433.99
599.87	30838.90
600.03	30300.58
600.18	30478.46
600.34	29996.31
600.50	30471.43
600.65	30405.90
600.81	30740.60
600.97	30649.32
601.12	30616.55
601.28	30419.94
601.44	30745.28
601.59	30548.67
601.75	30841.24
601.91	30380.15
602.06	30593.14
602.22	30843.58
602.37	30073.54
602.53	30169.51
602.69	30349.73
602.84	30476.12
603.00	30291.21
603.16	30485.48
603.31	30375.47
603.47	30464.41
603.62	30342.70
603.78	30054.82
603.94	30113.33
604.09	30223.34
604.25	30408.24
604.40	30188.23
604.56	30682.08
604.71	30506.54
604.87	30321.64
605.03	30513.56
605.18	30836.56
605.34	30785.07
605.49	29865.24
605.65	30265.47
605.80	29998.65
605.96	30520.59
606.12	30419.94
606.27	30684.42
606.43	30031.41
606.58	30469.09
606.74	30251.42
606.89	30457.39
607.05	30228.02
607.20	30412.92
607.36	30398.88
607.51	30209.29
607.67	29900.34
607.82	29879.28
607.98	30443.35
608.13	30560.37
608.29	30429.30
608.44	30211.64
608.60	30286.53
608.75	30356.75
608.91	30724.21
609.06	30527.61
609.22	30377.81
609.37	29935.45
609.53	30075.88
609.68	29778.64
609.84	30005.67
609.99	30295.89
610.15	30106.31
610.30	30192.91
610.46	30143.76
610.61	30267.81
610.76	30466.75
610.92	30199.93
611.07	30085.25
611.23	30190.57
611.38	30106.31
611.54	29706.08
611.69	29986.94
611.84	30075.88
612.00	30279.51
612.15	30000.99
612.31	30080.56
612.46	30089.93
612.62	30141.42
612.77	29701.40
612.92	30143.76
613.08	30134.40
613.23	30136.74
613.39	30312.28
613.54	29778.64
613.69	29668.63
613.85	30286.53
614.00	29621.82
614.15	29713.10
614.31	29551.60
614.46	29788.00
614.62	29649.91
614.77	30272.49
614.92	29713.10
615.08	29553.94
615.23	29858.21
615.38	30015.03
615.54	29734.17
615.69	29436.92
615.84	29406.49
616.00	29692.04
616.15	29598.41
616.30	29862.90
616.46	30017.37
616.61	29804.38
616.76	29858.21
616.92	29584.37
617.07	29759.91
617.22	29443.94
617.37	29689.70
617.53	29799.70
617.68	29326.91
617.83	29333.93
617.99	29118.60
618.14	29366.70
618.29	29457.98
618.45	29383.09
618.60	29773.95
618.75	29298.83
618.90	29465.00
619.06	29584.37
619.21	29378.40
619.36	29315.21
619.51	29504.79
619.67	29137.33
619.82	29350.32
619.97	28868.17
620.12	29160.73
620.28	28954.77
620.43	29567.99
620.58	29535.22
620.73	29336.27
620.89	29523.52
621.04	29153.71
621.19	29415.85
621.34	29230.95
621.49	28800.29
621.65	29050.73
621.80	28917.32
621.95	29163.08
622.10	29340.96
622.25	28858.81
622.41	28727.74
622.56	28999.24
622.71	29102.22
622.86	28641.14
623.01	29013.28
623.16	28673.90
623.32	28936.04
623.47	29039.03
623.62	28982.85
623.77	29081.16
623.92	28807.31
624.07	28938.38
624.23	28692.63
624.38	28542.83
624.53	28886.89
624.68	28933.70
624.83	29109.24
624.98	29022.64
625.13	28510.07
625.29	29221.59
625.44	28804.97
625.59	28388.36
625.74	28271.33
625.89	28353.25
626.04	27976.42
626.19	28226.86
626.34	28629.43
626.49	28297.08
626.65	28638.80
626.80	28622.41
626.95	28386.02
627.10	28407.08
627.25	28524.11
627.40	28533.47
627.55	28458.57
627.70	28570.92
627.85	28449.21
628.00	28386.02
628.15	28723.05
628.30	28369.63
628.45	28257.29
628.60	28587.30
628.76	28624.75
628.91	28397.72
629.06	28051.32
629.21	28320.48
629.36	28360.27
629.51	28215.16
629.66	27978.76
629.81	28098.13
629.96	28699.65
630.11	27779.82
630.26	28322.82
630.41	28067.70
630.56	28056.00
630.71	28212.82
630.86	27969.40
631.01	28126.22
631.16	28334.53
631.31	28273.67
631.46	27997.49
631.61	28151.96
631.76	28058.34
631.91	28126.22
632.06	27887.48
632.21	27917.91
632.36	27768.12
632.51	27779.82
632.66	27934.29
632.81	27690.88
632.96	28025.57
633.10	27772.80
633.25	27962.38
633.40	28098.13
633.55	27688.54
633.70	27845.35
633.85	27548.11
634.00	27445.12
634.15	27592.58
634.30	27637.05
634.45	27271.92
634.60	27791.52
634.75	27927.27
634.90	27590.24
635.05	27681.52
635.19	27693.22
635.34	27461.51
635.49	27564.49
635.64	27960.04
635.79	27683.86
635.94	27461.51
636.09	27847.69
636.24	27550.45
636.39	27260.22
636.53	27154.90
636.68	27229.79
636.83	27412.35
636.98	27477.89
637.13	27452.14
637.28	27742.37
637.43	27414.69
637.57	27410.01
637.72	27201.71
637.87	27346.82
638.02	27300.01
638.17	27166.60
638.32	27335.12
638.46	27171.28
638.61	27349.16
638.76	26855.31
638.91	26766.37
639.06	26979.36
639.20	27016.80
639.35	27147.87
639.50	27002.76
639.65	27541.08
639.80	27421.72
639.94	27182.98
640.09	27339.80
640.24	27365.54
640.39	27178.30
640.54	26941.91
640.68	26775.73
640.83	26925.52
640.98	26632.96
641.13	26857.65
641.27	26941.91
641.42	26728.92
641.57	26845.94
641.72	26991.06
641.86	26579.12
642.01	26579.12
642.16	26569.76
642.31	26569.76
642.45	26686.79
642.60	26824.88
642.75	26656.36
642.90	26607.21
643.04	26506.57
643.19	26668.06
643.34	26368.48
643.48	26541.68
643.63	26562.74
643.78	26581.46
643.93	26637.64
644.07	26590.83
644.22	26691.47
644.37	26724.24
644.51	26501.89
644.66	26771.05
644.81	26478.48
644.95	26391.88
645.10	26295.92
645.25	26316.98
645.39	26274.85
645.54	26441.03
645.69	26469.12
645.83	26513.59
645.98	26298.26
646.13	26197.62
646.27	26579.12
646.42	25773.98
646.57	26368.48
646.71	26522.95
646.86	25984.63
647.00	26314.64
647.15	25975.27
647.30	26183.57
647.44	26415.29
647.59	26312.30
647.74	26019.74
647.88	26057.18
648.03	26101.65
648.17	26377.84
648.32	26188.25
648.47	26485.50
648.61	25722.49
648.76	26082.93
648.90	26155.49
649.05	25907.39
649.20	25841.85
649.34	25996.33
649.49	25972.92
649.63	25902.71
649.78	25802.07
649.92	25905.05
650.07	26305.28
650.21	25745.89
650.36	26047.82
650.51	25851.22
650.65	25907.39
650.80	25984.63
650.94	25766.96
651.09	26024.42
651.23	25778.66
651.38	25565.67
651.52	25804.41
651.67	25940.16
651.81	25764.62
651.96	25905.05
652.10	25663.97
652.25	25614.82
652.39	25455.67
652.54	25769.30
652.68	25883.98
652.83	25668.66
652.97	25846.54
653.12	25923.77
653.26	25565.67
653.41	25575.03
653.55	25549.29
653.70	25488.43
653.84	25589.08
653.99	25277.79
654.13	25315.23
654.27	25488.43
654.42	25355.02
654.56	25621.84
654.71	25376.09
654.85	25523.54
655.00	25771.64
655.14	25015.65
655.29	25443.96
655.43	25198.21
655.57	25443.96
655.72	24947.77
655.86	25235.66
656.01	25418.22
656.15	25200.55
656.30	25132.67
656.44	25008.62
656.58	25303.53
656.73	24994.58
656.87	25390.13
657.01	25432.26
657.16	25284.81
657.30	25280.13
657.45	25184.16
657.59	25226.29
657.73	25081.18
657.88	24800.32
658.02	24886.92
658.16	25095.22
658.31	24952.45
658.45	24975.86
658.60	24819.04
658.74	24671.59
658.88	24692.65
659.03	24931.39
659.17	24720.74
659.31	25069.48
659.46	24739.46
659.60	24826.06
659.74	24769.89
659.89	24669.25
660.03	24561.58
660.17	24643.50
660.32	24741.80
660.46	24259.65
660.60	24257.31
660.74	24205.82
660.89	24276.04
661.03	24421.15
661.17	24638.82
661.32	24720.74
661.46	24451.58
661.60	24191.78
661.74	24526.47
661.89	24149.65
662.03	24285.40
662.17	24273.70
662.31	23908.57
662.46	24137.94
662.60	24088.79
662.74	23901.55
662.88	23772.82
663.03	23824.31
663.17	23922.62
663.31	23758.78
663.45	23903.89
663.60	23819.63
663.74	23396.00
663.88	23758.78
664.02	23744.73
664.17	23882.83
664.31	23459.19
664.45	23683.88
664.59	24023.26
664.73	23487.28
664.88	23695.58
665.02	23225.14
665.16	23246.20
665.30	23344.50
665.44	23576.22
665.59	23412.38
665.73	23442.81
665.87	22855.33
666.01	23393.65
666.15	23557.49
666.29	23117.47
666.44	23356.21
666.58	23070.66
666.72	23241.52
666.86	23297.69
667.00	23651.11
667.14	22848.31
667.28	23049.60
667.43	23091.73
667.57	23246.20
667.71	22864.69
667.85	22771.07
667.99	23009.81
668.13	22782.77
668.27	22831.93
668.41	22860.01
668.56	22668.09
668.70	22698.52
668.84	23154.92
668.98	22951.29
669.12	23009.81
669.26	23014.49
669.40	22616.60
669.54	22810.86
669.68	22443.40
669.82	22073.59
669.96	22244.45
670.10	22300.62
670.25	22281.90
670.39	22071.25
670.53	22443.40
670.67	22057.21
670.81	22160.19
670.95	22214.02
671.09	22305.31
671.23	22169.55
671.37	22309.99
671.51	22422.33
671.65	21991.67
671.79	22352.12
671.93	22052.53
672.07	22118.06
672.21	21855.92
672.35	21692.08
672.49	21759.96
672.63	21951.88
672.77	21427.60
672.91	21436.97
673.05	21378.45
673.19	21465.05
673.33	21462.71
673.47	21752.94
673.61	21652.30
673.75	21371.43
673.89	21195.89
674.03	21373.77
674.17	21170.15
674.31	21247.38
674.45	21090.57
674.59	21074.18
674.73	21275.47
674.87	21212.28
675.01	21010.99
675.15	20758.21
675.29	20769.91
675.43	20987.58
675.56	20947.79
675.70	21158.44
675.84	20716.08
675.98	20002.22
676.12	20788.64
676.26	20865.88
676.40	20718.42
676.54	20453.94
676.68	20652.89
676.82	20236.27
676.96	20311.17
677.10	20250.32
677.23	20184.78
677.37	20060.73
677.51	20065.41
677.65	20318.19
677.79	19906.26
677.93	19747.10
678.07	20114.56
678.21	19426.45
678.34	20102.86
678.48	19824.34
678.62	19665.18
678.76	19599.65
678.90	19529.43
679.04	19697.95
679.18	19438.15
679.31	19370.27
679.45	19431.13
679.59	19002.81
679.73	18979.40
679.87	18874.08
680.00	19157.28
680.14	18956.00
680.28	18890.46
680.42	18787.48
680.56	19044.94
680.70	18768.76
680.83	19332.82
680.97	19047.28
681.11	18860.04
681.25	18668.11
681.39	18703.22
681.52	18450.44
681.66	18672.79
681.80	18450.44
681.94	18607.26
682.07	18410.65
682.21	18169.58
682.35	18192.98
682.49	17930.84
682.62	17987.02
682.76	17947.23
682.90	18087.66
683.04	18012.76
683.17	17795.09
683.31	17935.53
683.45	18064.25
683.59	17855.95
683.72	17839.56
683.86	17586.79
684.00	17610.19
684.13	17661.68
684.27	17497.84
684.41	17455.72
684.55	17226.34
684.68	17034.42
684.82	17006.33
684.96	17238.05
685.09	16886.97
685.23	17116.34
685.37	17128.04
685.50	16978.25
685.64	16893.99
685.78	16945.48
685.91	17102.29
686.05	16779.30
686.19	17053.14
686.32	16809.73
686.46	16418.86
686.60	16456.31
686.73	16652.91
686.87	16322.90
687.01	16519.50
687.14	16592.06
687.28	15999.90
687.42	16149.70
687.55	16020.97
687.69	16168.42
687.82	15946.07
687.96	15985.86
688.10	16231.62
688.23	15826.70
688.37	16009.26
688.50	15693.29
688.64	15700.31
688.78	15927.35
688.91	15541.16
689.05	15779.89
689.18	15456.90
689.32	15398.38
689.46	15370.30
689.59	15424.13
689.73	15311.78
689.86	15255.61
690.00	15194.76
690.13	14970.07
690.27	15056.67
690.41	15227.53
690.54	15049.64
690.68	14888.15
690.81	14951.34
690.95	15019.22
691.08	14839.00
691.22	14792.19
691.35	14801.55
691.49	14860.06
691.62	14736.01
691.76	14391.95
691.89	14230.46
692.03	14307.69
692.16	14190.67
692.30	14197.69
692.43	14197.69
692.57	14115.77
692.70	13860.65
692.84	14342.80
692.97	13956.61
693.11	14087.68
693.24	13771.71
693.38	13965.98
693.51	13729.58
693.65	13792.78
693.78	13774.05
693.92	13771.71
694.05	13664.05
694.19	13752.99
694.32	13694.47
694.45	13493.19
694.59	13371.48
694.72	13540.00
694.86	13514.25
694.99	13123.38
695.13	13165.51
695.26	13153.81
695.39	13046.15
695.53	13254.45
695.66	13324.67
695.80	13128.06
695.93	13013.38
696.07	13160.83
696.20	12812.09
696.33	12699.75
696.47	12753.58
696.60	12751.24
696.73	12650.60
696.87	12723.15
697.00	12755.92
697.14	12437.61
697.27	12638.89
697.40	12355.69
697.54	12065.46
697.67	12262.07
697.80	12334.62
697.94	12093.55
698.07	12025.67
698.21	12053.76
698.34	12067.80
698.47	12119.29
698.61	11943.75
698.74	11777.58
698.87	11983.54
699.01	12100.57
699.14	11616.08
699.27	11756.51
699.40	11887.58
699.54	11653.53
699.67	11506.07
699.80	11595.01
699.94	11431.18
700.07	11550.54
700.20	11211.17
700.34	11281.38
700.47	11122.23
700.60	11112.86
700.73	11276.70
700.87	11026.26
701.00	10864.77
701.13	10890.51
701.26	10897.53
701.40	11330.53
701.53	10988.82
701.66	11192.44
701.79	10988.82
701.93	10803.91
702.06	10862.43
702.19	10581.56
702.32	10483.26
702.46	10705.61
702.59	10696.25
702.72	10630.71
702.85	10272.61
702.99	10279.63
703.12	10539.43
703.25	10319.42
703.38	10195.37
703.51	10183.67
703.65	10431.77
703.78	10274.95
703.91	10005.79
704.04	10181.33
704.17	10040.90
704.31	9909.83
704.44	9928.55
704.57	9900.47
704.70	9893.44
704.83	9837.27
704.96	9832.59
705.10	9490.87
705.23	9778.76
>>>>>End Processed Spectral Data<<<<<
