SpectraSuite Data File
++++++++++++++++++++++++++++++++++++
Date: Fri Oct 18 13:58:41 GMT-05:00 2013
User: bianchi
Dark Spectrum Present: No
Reference Spectrum Present: No
Number of Sampled Component Spectra: 1
Spectrometers: USB2+H05261
Integration Time (usec): 50000 (USB2+H05261)
Spectra Averaged: 1 (USB2+H05261)
Boxcar Smoothing: 0 (USB2+H05261)
Correct for Electrical Dark: No (USB2+H05261)
Strobe/Lamp Enabled: No (USB2+H05261)
Correct for Detector Non-linearity: No (USB2+H05261)
Correct for Stray Light: No (USB2+H05261)
Number of Pixels in Processed Spectrum: 2048
>>>>>Begin Processed Spectral Data<<<<<
365.73	0.00
365.92	0.00
366.12	0.00
366.32	0.00
366.52	0.00
366.72	0.00
366.91	0.00
367.11	0.00
367.31	0.00
367.51	0.00
367.70	0.00
367.90	0.00
368.10	0.00
368.30	0.00
368.49	0.00
368.69	0.00
368.89	0.00
369.09	0.00
369.28	0.00
369.48	0.00
369.68	0.00
369.87	0.00
370.07	0.00
370.27	0.00
370.47	0.00
370.66	93.62
370.86	72.56
371.06	124.05
371.25	175.54
371.45	156.82
371.65	131.07
371.84	161.50
372.04	229.37
372.24	215.33
372.44	255.12
372.63	163.84
372.83	189.58
373.03	177.88
373.22	189.58
373.42	241.08
373.62	217.67
373.81	238.73
374.01	290.23
374.21	236.39
374.40	269.16
374.60	212.99
374.79	215.33
374.99	224.69
375.19	236.39
375.38	175.54
375.58	283.20
375.78	220.01
375.97	238.73
376.17	273.84
376.37	231.71
376.56	285.55
376.76	285.55
376.95	266.82
377.15	285.55
377.35	299.59
377.54	220.01
377.74	273.84
377.93	301.93
378.13	194.26
378.33	290.23
378.52	325.33
378.72	257.46
378.91	255.12
379.11	259.80
379.31	330.02
379.50	299.59
379.70	353.42
379.89	299.59
380.09	264.48
380.28	315.97
380.48	231.71
380.68	322.99
380.87	301.93
381.07	292.57
381.26	299.59
381.46	257.46
381.65	330.02
381.85	327.68
382.04	322.99
382.24	325.33
382.43	341.72
382.63	365.12
382.83	381.51
383.02	315.97
383.22	430.66
383.41	362.78
383.61	327.68
383.80	273.84
384.00	374.49
384.19	411.93
384.39	411.93
384.58	404.91
384.78	437.68
384.97	409.59
385.17	414.27
385.36	369.80
385.56	402.57
385.75	360.44
385.95	395.55
386.14	454.06
386.34	325.33
386.53	442.36
386.72	423.64
386.92	458.74
387.11	393.21
387.31	358.10
387.50	407.25
387.70	425.98
387.89	454.06
388.09	482.15
388.28	479.81
388.48	437.68
388.67	409.59
388.86	425.98
389.06	468.11
389.25	498.53
389.45	440.02
389.64	486.83
389.84	535.98
390.03	423.64
390.22	468.11
390.42	421.30
390.61	435.34
390.81	533.64
391.00	484.49
391.19	500.87
391.39	538.32
391.58	470.45
391.78	533.64
391.97	491.51
392.16	545.34
392.36	503.22
392.55	447.04
392.75	587.47
392.94	627.26
393.13	468.11
393.33	599.18
393.52	545.34
393.71	589.82
393.91	507.90
394.10	706.84
394.29	610.88
394.49	554.71
394.68	603.86
394.88	596.84
395.07	568.75
395.26	566.41
395.46	540.66
395.65	587.47
395.84	655.35
396.04	641.31
396.23	664.71
396.42	543.00
396.62	622.58
396.81	751.31
397.00	629.60
397.19	685.78
397.39	713.86
397.58	695.14
397.77	720.88
397.97	704.50
398.16	645.99
398.35	716.20
398.55	660.03
398.74	674.07
398.93	741.95
399.12	671.73
399.32	767.70
399.51	695.14
399.70	709.18
399.90	770.04
400.09	732.59
400.28	755.99
400.47	746.63
400.67	772.38
400.86	793.44
401.05	704.50
401.24	786.42
401.44	800.46
401.63	837.91
401.82	760.67
402.01	763.01
402.21	828.55
402.40	786.42
402.59	868.34
402.78	884.72
402.97	847.27
403.17	873.02
403.36	795.78
403.55	908.13
403.74	887.06
403.93	870.68
404.13	929.19
404.32	915.15
404.51	835.57
404.70	931.53
404.89	896.43
405.09	999.41
405.28	983.02
405.47	898.77
405.66	915.15
405.85	943.24
406.05	1015.79
406.24	922.17
406.43	980.68
406.62	1118.78
406.81	1093.03
407.00	947.92
407.20	964.30
407.39	999.41
407.58	1043.88
407.77	1083.67
407.96	1057.92
408.15	1032.18
408.34	1064.94
408.54	1116.44
408.73	1102.39
408.92	1118.78
409.11	1095.37
409.30	1146.86
409.49	1107.07
409.68	1128.14
409.87	1193.67
410.07	1139.84
410.26	1170.27
410.45	1224.10
410.64	1158.57
410.83	1076.65
411.02	1179.63
411.21	1317.72
411.40	1174.95
411.59	1247.51
411.78	1313.04
411.98	1296.66
412.17	1268.57
412.36	1214.74
412.55	1338.79
412.74	1345.81
412.93	1413.68
413.12	1336.45
413.31	1371.55
413.50	1413.68
413.69	1343.47
413.88	1533.05
414.07	1387.94
414.26	1504.96
414.45	1533.05
414.64	1493.26
414.83	1558.80
415.02	1476.88
415.22	1521.35
415.41	1533.05
415.60	1631.35
415.79	1614.97
415.98	1624.33
416.17	1507.30
416.36	1584.54
416.55	1650.08
416.74	1554.12
416.93	1596.25
417.12	1682.85
417.31	1694.55
417.50	1722.63
417.69	1734.34
417.88	1729.66
418.07	1629.01
418.26	1748.38
418.45	1699.23
418.64	1902.86
418.83	1863.07
419.02	1825.62
419.21	1834.98
419.39	1818.60
419.58	1736.68
419.77	1907.54
419.96	1830.30
420.15	1830.30
420.34	1849.02
420.53	1874.77
420.72	1823.28
420.91	1942.64
421.10	1975.41
421.29	1996.48
421.48	1874.77
421.67	1942.64
421.86	1949.67
422.05	2052.65
422.24	1944.99
422.43	1867.75
422.61	1956.69
422.80	2059.67
422.99	2069.03
423.18	1952.01
423.37	2033.93
423.56	2066.69
423.75	2104.14
423.94	1959.03
424.13	1827.96
424.32	2012.86
424.50	1909.88
424.69	2097.12
424.88	1998.82
425.07	1984.77
425.26	1961.37
425.45	1975.41
425.64	1980.09
425.83	1928.60
426.01	2054.99
426.20	1998.82
426.39	1959.03
426.58	2064.35
426.77	2101.80
426.96	2132.23
427.15	2050.31
427.33	2104.14
427.52	2092.44
427.71	2186.06
427.90	2244.57
428.09	2069.03
428.28	2071.37
428.46	2132.23
428.65	2162.66
428.84	2228.19
429.03	2296.07
429.22	2221.17
429.40	2249.25
429.59	2296.07
429.78	2129.89
429.97	2207.13
430.16	2228.19
430.34	2387.35
430.53	2326.49
430.72	2359.26
430.91	2204.78
431.10	2277.34
431.28	2424.80
431.47	2317.13
431.66	2375.64
431.85	2363.94
432.03	2473.95
432.22	2394.37
432.41	2424.80
432.60	2403.73
432.79	2408.41
432.97	2406.07
433.16	2420.11
433.35	2422.45
433.54	2499.69
433.72	2511.39
433.91	2551.18
434.10	2572.25
434.28	2492.67
434.47	2520.76
434.66	2605.02
434.85	2597.99
435.03	2555.86
435.22	2506.71
435.41	2553.52
435.59	2672.89
435.78	2696.30
435.97	2649.49
436.16	2581.61
436.34	2761.83
436.53	2686.94
436.72	2719.70
436.90	2684.59
437.09	2761.83
437.28	2696.30
437.46	2614.38
437.65	2640.12
437.84	2731.41
438.02	2780.56
438.21	2754.81
438.40	2771.19
438.58	2757.15
438.77	2932.69
438.96	2937.37
439.14	2949.08
439.33	3014.61
439.52	2984.18
439.70	3009.93
439.89	3082.49
440.08	3150.36
440.26	2935.03
440.45	3033.33
440.63	3110.57
440.82	2995.89
441.01	3023.97
441.19	3157.38
441.38	3087.17
441.57	3176.11
441.75	3194.83
441.94	3251.00
442.12	3157.38
442.31	3375.05
442.50	3297.81
442.68	3321.22
442.87	3321.22
443.05	3297.81
443.24	3379.73
443.43	3332.92
443.61	3375.05
443.80	3473.36
443.98	3328.24
444.17	3265.05
444.35	3283.77
444.54	3262.71
444.73	3447.61
444.91	3424.20
445.10	3276.75
445.28	3499.10
445.47	3398.46
445.65	3363.35
445.84	3368.03
446.02	3506.12
446.21	3398.46
446.39	3445.27
446.58	3433.57
446.77	3417.18
446.95	3391.44
447.14	3377.39
447.32	3536.55
447.51	3330.58
447.69	3478.04
447.88	3581.02
448.06	3562.30
448.25	3461.65
448.43	3506.12
448.62	3555.27
448.80	3648.90
448.99	3599.74
449.17	3503.78
449.36	3623.15
449.54	3763.58
449.73	3779.97
449.91	3882.95
450.10	3714.43
450.28	3578.68
450.46	3779.97
450.65	3786.99
450.83	3754.22
451.02	3735.50
451.20	3637.19
451.39	3669.96
451.57	3794.01
451.76	3702.73
451.94	3953.16
452.13	3974.23
452.31	3791.67
452.49	3805.71
452.68	3868.91
452.86	3861.88
453.05	3824.44
453.23	3742.52
453.42	3826.78
453.60	3880.61
453.78	3990.61
453.97	3763.58
454.15	3911.04
454.34	3927.42
454.52	4079.55
454.70	4074.87
454.89	4131.05
455.07	4081.89
455.26	3964.87
455.44	4170.83
455.62	4025.72
455.81	4004.66
455.99	4100.62
456.17	4007.00
456.36	4234.03
456.54	4322.97
456.73	4320.63
456.91	4243.39
457.09	4205.94
457.28	4372.12
457.46	4215.30
457.64	4297.22
457.83	4271.48
458.01	4187.22
458.19	4374.46
458.38	4219.99
458.56	4369.78
458.74	4402.55
458.93	4152.11
459.11	4442.34
459.29	4278.50
459.48	4411.91
459.66	4542.98
459.84	4545.32
460.03	4514.89
460.21	4568.73
460.39	4491.49
460.57	4383.82
460.76	4624.90
460.94	4603.83
461.12	4528.94
461.31	4528.94
461.49	4596.81
461.67	4671.71
461.85	4622.56
462.04	4711.50
462.22	4702.14
462.40	4791.08
462.59	4629.58
462.77	4779.37
462.95	4664.69
463.13	4770.01
463.32	4662.35
463.50	4791.08
463.68	4873.00
463.86	4821.50
464.05	4802.78
464.23	4924.49
464.41	4952.57
464.59	4741.93
464.78	4847.25
464.96	4997.04
465.14	4929.17
465.32	5004.07
465.50	4994.70
465.69	5114.07
465.87	4842.57
466.05	4894.06
466.23	5034.49
466.41	5123.43
466.60	5004.07
466.78	5111.73
466.96	4997.04
467.14	5114.07
467.32	5172.58
467.51	5064.92
467.69	5020.45
467.87	5062.58
468.05	5195.99
468.23	4987.68
468.41	5008.75
468.60	5214.71
468.78	5107.05
468.96	5111.73
469.14	5142.16
469.32	5224.08
469.50	5242.80
469.69	5221.74
469.87	5238.12
470.05	5170.24
470.23	5364.51
470.41	5280.25
470.59	5495.58
470.77	5425.36
470.95	5427.70
471.14	5638.35
471.32	5462.81
471.50	5455.79
471.68	5493.24
471.86	5643.03
472.04	5687.50
472.22	5738.99
472.40	5610.26
472.58	5605.58
472.77	5802.19
472.95	5741.33
473.13	5996.45
473.31	5757.72
473.49	5802.19
473.67	5949.64
473.85	5956.66
474.03	6143.91
474.21	5989.43
474.39	5881.77
474.57	5996.45
474.75	6134.54
474.93	6237.53
475.12	6239.87
475.30	6218.80
475.48	6120.50
475.66	6310.08
475.84	6190.72
476.02	6242.21
476.20	6211.78
476.38	6305.40
476.56	6612.01
476.74	6590.95
476.92	6441.15
477.10	6497.33
477.28	6644.78
477.46	6726.70
477.64	6696.27
477.82	6707.98
478.00	6967.77
478.18	6970.12
478.36	6848.41
478.54	6972.46
478.72	6946.71
478.90	7236.94
479.08	7204.17
479.26	7112.89
479.44	7318.86
479.62	7358.64
479.80	7485.03
479.98	7531.84
480.16	7529.50
480.34	7431.20
480.52	7777.60
480.70	7779.94
480.88	7702.70
481.06	7597.38
481.24	7740.15
481.41	7840.79
481.59	7950.80
481.77	8121.66
481.95	7983.57
482.13	7950.80
482.31	8124.00
482.49	8215.28
482.67	8226.98
482.85	8313.58
483.03	8456.36
483.21	8489.12
483.39	8437.63
483.57	8669.34
483.74	8482.10
483.92	8472.74
484.10	8428.27
484.28	8961.91
484.46	9015.74
484.64	8943.19
484.82	8826.16
485.00	9174.90
485.18	9153.84
485.35	9308.31
485.53	9261.50
485.71	9469.81
485.89	9500.23
486.07	9659.39
486.25	9624.28
486.43	9694.50
486.61	9790.46
486.78	9921.53
486.96	9937.91
487.14	9881.74
487.32	9956.64
487.50	10092.39
487.68	10022.17
487.85	10216.44
488.03	10305.38
488.21	10754.76
488.39	10445.81
488.57	10506.66
488.75	10628.37
488.92	10949.03
489.10	10745.40
489.28	10801.57
489.46	11000.52
489.64	11225.21
489.81	10979.45
489.99	11225.21
490.17	11206.48
490.35	11206.48
490.53	11604.38
490.70	11613.74
490.88	11669.91
491.06	11826.73
491.24	11712.04
491.41	11941.41
491.59	11852.47
491.77	11854.81
491.95	12072.48
492.13	12100.57
492.30	12435.27
492.48	12217.60
492.66	12269.09
492.84	12339.30
493.01	12500.80
493.19	12505.48
493.37	12816.77
493.54	12659.96
493.72	12851.88
493.90	12720.81
494.08	13013.38
494.25	12938.48
494.43	13146.79
494.61	13067.21
494.79	13310.63
494.96	13387.86
495.14	13303.60
495.32	13514.25
495.49	13371.48
495.67	13544.68
495.85	13731.92
496.02	13614.90
496.20	13607.87
496.38	13804.48
496.55	14005.77
496.73	14148.54
496.91	14122.79
497.09	14097.05
497.26	14497.28
497.44	14239.82
497.62	14422.38
497.79	14651.75
497.97	14602.60
498.14	14731.33
498.32	14927.94
498.50	14689.20
498.67	14796.87
498.85	14876.44
499.03	14853.04
499.20	14817.93
499.38	14890.49
499.56	15133.90
499.73	15185.40
499.91	15110.50
500.08	15302.42
500.26	15255.61
500.44	15098.80
500.61	15363.28
500.79	15398.38
500.97	15634.78
501.14	15871.17
501.32	15665.21
501.49	15754.15
501.67	15545.84
501.84	15721.38
502.02	15981.18
502.20	16126.29
502.37	16421.20
502.55	16137.99
502.72	16004.58
502.90	16224.59
503.07	15950.75
503.25	16095.86
503.43	16341.62
503.60	16341.62
503.78	16395.45
503.95	16425.88
504.13	16460.99
504.30	16699.72
504.48	16374.39
504.65	16533.54
504.83	16690.36
505.01	17043.78
505.18	16870.58
505.36	17006.33
505.53	16819.09
505.71	17240.39
505.88	17249.75
506.06	16854.20
506.23	17167.83
506.41	17228.68
506.58	17170.17
506.76	17324.65
506.93	17537.63
507.11	17118.68
507.28	17624.23
507.46	17441.67
507.63	17678.07
507.81	17905.10
507.98	17572.74
508.16	17504.87
508.33	17687.43
508.50	17710.83
508.68	17820.84
508.85	17961.27
509.03	18017.44
509.20	17933.18
509.38	18099.36
509.55	18036.17
509.73	18218.73
509.90	18389.59
510.08	18207.03
510.25	18420.02
510.42	18328.74
510.60	18462.15
510.77	18405.97
510.95	18764.07
511.12	18731.31
511.30	18658.75
511.47	18897.49
511.64	18778.12
511.82	18836.63
511.99	18754.71
512.17	18661.09
512.34	19023.87
512.51	19058.98
512.69	19026.21
512.86	19197.07
513.04	19349.21
513.21	19117.50
513.38	19271.97
513.56	19414.74
513.73	19002.81
513.90	19129.20
514.08	19185.37
514.25	19576.24
514.43	19538.79
514.60	19866.47
514.77	19751.78
514.95	19786.89
515.12	19587.94
515.29	19349.21
515.47	19836.04
515.64	20011.58
515.81	20027.96
515.99	20210.53
516.16	20350.96
516.33	20198.82
516.51	20255.00
516.68	20086.48
516.85	19721.35
517.03	20311.17
517.20	20283.08
517.37	20489.05
517.54	20336.91
517.72	20758.21
517.89	20290.10
518.06	20458.62
518.24	20926.73
518.41	20350.96
518.58	20669.27
518.75	20760.55
518.93	21027.37
519.10	20772.25
519.27	20966.52
519.45	20753.53
519.62	20947.79
519.79	20854.17
519.96	20769.91
520.14	21242.70
520.31	21090.57
520.48	21341.00
520.65	21050.78
520.83	21486.12
521.00	21298.88
521.17	21521.23
521.34	21369.09
521.52	21376.11
521.69	21308.24
521.86	21816.13
522.03	21916.78
522.20	21860.60
522.38	21893.37
522.55	21731.87
522.72	21455.69
522.89	21848.90
523.07	22244.45
523.24	21937.84
523.41	21748.26
523.58	21923.80
523.75	22017.42
523.92	21916.78
524.10	22202.32
524.27	22356.80
524.44	22113.38
524.61	22478.50
524.78	22530.00
524.96	22333.39
525.13	22464.46
525.30	22677.45
525.47	22539.36
525.64	22295.94
525.81	22635.32
525.98	22661.07
526.16	22576.81
526.33	22445.74
526.50	22815.54
526.67	22728.94
526.84	23040.23
527.01	22473.82
527.18	22611.92
527.36	22883.42
527.53	23016.83
527.70	23552.81
527.87	22876.40
528.04	22845.97
528.21	23255.56
528.38	23297.69
528.55	23075.34
528.72	23056.62
528.89	23150.24
529.07	23328.12
529.24	23295.35
529.41	23496.64
529.58	23194.71
529.75	23489.62
529.92	23140.88
530.09	23304.71
530.26	23543.45
530.43	23522.38
530.60	23728.35
530.77	23761.12
530.94	23597.28
531.11	23538.77
531.28	23527.06
531.46	23807.93
531.63	24084.11
531.80	23803.25
531.97	24060.71
532.14	24437.53
532.31	23768.14
532.48	24198.80
532.65	24072.41
532.82	23763.46
532.99	24049.00
533.16	23906.23
533.33	24301.78
533.50	24666.91
533.67	24388.38
533.84	24210.50
534.01	24107.52
534.18	24072.41
534.35	24477.32
534.52	24182.42
534.69	24402.43
534.86	24643.50
535.03	24261.99
535.20	24561.58
535.37	24479.66
535.54	24467.96
535.71	24346.25
535.88	24439.87
536.05	24261.99
536.22	24528.81
536.38	24844.79
536.55	25095.22
536.72	24840.11
536.89	24926.71
537.06	24790.95
537.23	24957.13
537.40	24730.10
537.57	25081.18
537.74	25212.25
537.91	25207.57
538.08	24973.52
538.25	25043.73
538.42	25177.14
538.59	25340.98
538.75	24786.27
538.92	25277.79
539.09	25081.18
539.26	25525.88
539.43	25450.99
539.60	25273.10
539.77	25401.83
539.94	25420.56
540.11	25338.64
540.28	25486.09
540.44	25551.63
540.61	25233.32
540.78	25518.86
540.95	25689.72
541.12	25596.10
541.29	25469.71
541.46	25678.02
541.62	25638.23
541.79	26075.91
541.96	25380.77
542.13	26082.93
542.30	25837.17
542.47	26082.93
542.63	25755.26
542.80	26141.44
542.97	26434.01
543.14	25944.84
543.31	26045.48
543.48	25975.27
543.64	26188.25
543.81	26426.99
543.98	26214.00
544.15	26368.48
544.32	26249.11
544.48	26398.90
544.65	26373.16
544.82	26529.97
544.99	25867.60
545.16	26167.19
545.32	26403.58
545.49	26841.26
545.66	26621.25
545.83	26803.82
546.00	26735.94
546.16	27002.76
546.33	26532.31
546.50	26169.53
546.67	26859.99
546.83	26394.22
547.00	26948.93
547.17	26733.60
547.34	26649.34
547.50	26691.47
547.67	27278.94
547.84	26953.61
548.00	27028.51
548.17	27236.81
548.34	26892.76
548.51	27047.23
548.67	27112.77
548.84	27168.94
549.01	26946.59
549.18	26623.59
549.34	26850.63
549.51	27091.70
549.68	26806.16
549.84	27129.15
550.01	27140.85
550.18	27274.26
550.34	27419.38
550.51	27501.29
550.68	27531.72
550.84	27075.32
551.01	27639.39
551.18	27300.01
551.34	27431.08
551.51	27302.35
551.68	27510.66
551.84	27517.68
552.01	27356.18
552.18	27733.01
552.34	27639.39
552.51	27536.40
552.68	27917.91
552.84	27775.14
553.01	27555.13
553.18	28025.57
553.34	27606.62
553.51	27513.00
553.67	28130.90
553.84	27957.70
554.01	27852.38
554.17	27601.94
554.34	27791.52
554.51	27929.61
554.67	27946.00
554.84	27805.56
555.00	27740.03
555.17	27859.40
555.33	27950.68
555.50	28098.13
555.67	28189.41
555.83	27761.09
556.00	28098.13
556.16	28121.54
556.33	27653.43
556.50	28491.34
556.66	28243.24
556.83	28613.05
556.99	28273.67
557.16	28725.39
557.32	28212.82
557.49	28390.70
557.65	28142.60
557.82	28025.57
557.98	28304.10
558.15	28519.43
558.32	28603.69
558.48	28273.67
558.65	28659.86
558.81	28191.75
558.98	28301.76
559.14	28624.75
559.31	28418.78
559.47	28048.98
559.64	28486.66
559.80	28254.95
559.97	28449.21
560.13	28236.22
560.30	28285.37
560.46	28599.01
560.63	28905.62
560.79	28486.66
560.96	28594.32
561.12	28507.72
561.29	28486.66
561.45	28828.38
561.61	28491.34
561.78	28669.22
561.94	28545.17
562.11	28566.24
562.27	29242.65
562.44	28739.44
562.60	28430.49
562.77	28652.84
562.93	28680.92
563.10	29010.94
563.26	29130.31
563.42	29034.35
563.59	28999.24
563.75	28943.06
563.92	28790.93
564.08	28907.96
564.24	28678.58
564.41	28872.85
564.57	28678.58
564.74	28999.24
564.90	28975.83
565.07	28945.41
565.23	29069.45
565.39	29392.45
565.56	29102.22
565.72	28793.27
565.88	28971.15
566.05	28922.00
566.21	28830.72
566.38	29193.50
566.54	29200.52
566.70	29338.62
566.87	29151.37
567.03	29579.69
567.19	29303.51
567.36	29118.60
567.52	29039.03
567.68	29113.92
567.85	28774.55
568.01	29392.45
568.17	28943.06
568.34	29092.86
568.50	29001.58
568.66	29528.20
568.83	29546.92
568.99	29244.99
569.15	28992.22
569.32	29149.03
569.48	29015.62
569.64	29502.45
569.81	29413.51
569.97	29390.11
570.13	29242.65
570.30	29607.78
570.46	29748.21
570.62	29436.92
570.78	29350.32
570.95	29053.07
571.11	29273.08
571.27	29123.29
571.43	29277.76
571.60	29362.02
571.76	29385.43
571.92	29605.44
572.09	29387.77
572.25	29825.45
572.41	29766.93
572.57	29722.46
572.74	29605.44
572.90	29453.30
573.06	29457.98
573.22	29439.26
573.38	29221.59
573.55	29090.52
573.71	29474.37
573.87	29928.43
574.03	29544.58
574.20	29481.39
574.36	28879.87
574.52	29722.46
574.68	29537.56
574.84	29355.00
575.01	29565.65
575.17	29441.60
575.33	29404.15
575.49	29565.65
575.65	29799.70
575.82	29514.16
575.98	29591.39
576.14	29493.09
576.30	29813.74
576.46	29495.43
576.62	29450.96
576.79	29633.52
576.95	29670.97
577.11	29598.41
577.27	29874.60
577.43	29628.84
577.59	29364.36
577.75	29514.16
577.92	29345.64
578.08	29493.09
578.24	29301.17
578.40	29692.04
578.56	29565.65
578.72	29467.34
578.88	30057.16
579.04	30103.97
579.21	29750.55
579.37	29589.05
579.53	29528.20
579.69	29530.54
579.85	29549.26
580.01	29780.98
580.17	29593.73
580.33	29390.11
580.49	29879.28
580.65	29694.38
580.82	29818.42
580.98	29865.24
581.14	29888.64
581.30	29582.03
581.46	29928.43
581.62	29670.97
581.78	29792.68
581.94	29724.80
582.10	29518.84
582.26	29612.46
582.42	29809.06
582.58	30139.08
582.74	29942.47
582.90	29694.38
583.06	29771.61
583.22	29968.22
583.38	29582.03
583.54	29839.49
583.70	29780.98
583.86	29216.91
584.02	29282.44
584.18	30253.76
584.34	29757.57
584.50	30199.93
584.66	29656.93
584.82	29493.09
584.98	29839.49
585.14	29989.28
585.30	29792.68
585.46	29795.02
585.62	29876.94
585.78	29823.11
585.94	29467.34
586.10	30087.59
586.26	30061.84
586.42	29876.94
586.58	29743.53
586.74	29951.84
586.90	29127.97
587.06	29837.15
587.22	29947.15
587.38	29715.44
587.54	30288.87
587.70	30078.22
587.86	29570.33
588.02	30000.99
588.18	30455.05
588.34	30209.29
588.49	29874.60
588.65	29928.43
588.81	30040.78
588.97	29879.28
589.13	29788.00
589.29	29666.29
589.45	29518.84
589.61	30085.25
589.77	30237.38
589.93	30108.65
590.08	30366.11
590.24	30459.73
590.40	30181.21
590.56	30232.70
590.72	30183.55
590.88	29816.08
591.04	30000.99
591.20	30436.33
591.35	30323.98
591.51	30665.70
591.67	30300.58
591.83	30260.79
591.99	30043.12
592.15	29806.72
592.31	30225.68
592.46	29876.94
592.62	30225.68
592.78	29972.90
592.94	29853.53
593.10	30244.40
593.26	30260.79
593.41	30263.13
593.57	30326.32
593.73	30110.99
593.89	30263.13
594.05	30305.26
594.20	30356.75
594.36	30040.78
594.52	29977.58
594.68	30073.54
594.84	29670.97
594.99	30040.78
595.15	30394.20
595.31	30338.02
595.47	30504.20
595.62	30263.13
595.78	30583.78
595.94	30485.48
596.10	30323.98
596.25	30188.23
596.41	29965.88
596.57	29986.94
596.73	30033.75
596.88	29993.97
597.04	30492.50
597.20	30443.35
597.36	30342.70
597.51	30242.06
597.67	30188.23
597.83	30340.36
597.99	30668.04
598.14	29656.93
598.30	30284.19
598.46	30623.57
598.61	29956.52
598.77	30368.45
598.93	30574.42
599.09	30672.72
599.24	30785.07
599.40	30157.80
599.56	30560.37
599.71	30487.82
599.87	30567.40
600.03	30354.41
600.18	30052.48
600.34	30221.00
600.50	30347.39
600.65	30150.78
600.81	30497.18
600.97	30497.18
601.12	30635.27
601.28	30560.37
601.44	30363.77
601.59	30670.38
601.75	30008.01
601.91	30609.53
602.06	30279.51
602.22	30150.78
602.37	30335.68
602.53	29972.90
602.69	30455.05
602.84	30209.29
603.00	30646.97
603.16	30731.23
603.31	30492.50
603.47	30450.37
603.62	30331.00
603.78	30396.54
603.94	30532.29
604.09	30574.42
604.25	30251.42
604.40	30298.23
604.56	29982.26
604.71	30497.18
604.87	30288.87
605.03	30895.07
605.18	30218.66
605.34	30223.34
605.49	30015.03
605.65	30452.71
605.80	30033.75
605.96	30096.95
606.12	30059.50
606.27	30560.37
606.43	30181.21
606.58	30075.88
606.74	30682.08
606.89	30450.37
607.05	30246.74
607.20	30422.28
607.36	30445.69
607.51	29926.09
607.67	29954.18
607.82	29834.81
607.98	30328.66
608.13	30597.82
608.29	30099.29
608.44	30361.43
608.60	29935.45
608.75	30771.02
608.91	30190.57
609.06	30223.34
609.22	30443.35
609.37	29963.54
609.53	29811.40
609.68	30448.03
609.84	30017.37
609.99	30218.66
610.15	30010.35
610.30	29804.38
610.46	30155.46
610.61	30141.42
610.76	29893.32
610.92	30204.61
611.07	29862.90
611.23	29937.79
611.38	30122.69
611.54	29898.00
611.69	29832.47
611.84	29919.07
612.00	30022.05
612.15	30181.21
612.31	30288.87
612.46	29713.10
612.62	30546.33
612.77	30110.99
612.92	30424.62
613.08	29621.82
613.23	30242.06
613.39	29998.65
613.54	29614.80
613.69	29876.94
613.85	29874.60
614.00	29579.69
614.15	29677.99
614.31	29708.42
614.46	30101.63
614.62	30045.46
614.77	29839.49
614.92	29956.52
615.08	30331.00
615.23	29717.78
615.38	29841.83
615.54	29364.36
615.69	29673.31
615.84	29446.28
616.00	29575.01
616.15	29839.49
616.30	29631.18
616.46	29523.52
616.61	29586.71
616.76	29841.83
616.92	29132.65
617.07	29708.42
617.22	29296.49
617.37	29118.60
617.53	29565.65
617.68	29865.24
617.83	29242.65
617.99	29408.83
618.14	29460.32
618.29	29294.14
618.45	29331.59
618.60	29605.44
618.75	29729.48
618.90	29731.83
619.06	29280.10
619.21	29289.46
619.36	29589.05
619.51	28982.85
619.67	29085.84
619.82	29095.20
619.97	29296.49
620.12	29137.33
620.28	28968.81
620.43	29516.50
620.58	29380.74
620.73	29233.29
620.89	29053.07
621.04	29486.07
621.19	29125.63
621.34	29022.64
621.49	29230.95
621.65	29109.24
621.80	29289.46
621.95	28765.18
622.10	29106.90
622.25	29123.29
622.41	28744.12
622.56	29092.86
622.71	29469.69
622.86	29041.37
623.01	28966.47
623.16	28819.02
623.32	28444.53
623.47	28741.78
623.62	28804.97
623.77	28847.10
623.92	29132.65
624.07	28914.98
624.23	28496.02
624.38	28929.02
624.53	28912.64
624.68	28800.29
624.83	28716.03
624.98	29142.01
625.13	28521.77
625.29	28587.30
625.44	28599.01
625.59	28727.74
625.74	28325.16
625.89	28388.36
626.04	29017.96
626.19	28400.06
626.34	28205.80
626.49	28182.39
626.65	28692.63
626.80	28489.00
626.95	28615.39
627.10	28423.47
627.25	28591.98
627.40	28327.50
627.55	28397.72
627.70	28315.80
627.85	28273.67
628.00	28294.74
628.15	28301.76
628.30	28301.76
628.45	28205.80
628.60	28430.49
628.76	28339.21
628.91	28364.95
629.06	28311.12
629.21	28301.76
629.36	28257.29
629.51	27920.25
629.66	28379.00
629.81	27805.56
629.96	27978.76
630.11	27915.57
630.26	27913.23
630.41	28273.67
630.56	27866.42
630.71	28158.99
630.86	28264.31
631.01	28018.55
631.16	28060.68
631.31	28105.15
631.46	27880.46
631.61	28051.32
631.76	27700.24
631.91	27803.22
632.06	27672.15
632.21	27751.73
632.36	27749.39
632.51	27351.50
632.66	27625.34
632.81	27683.86
632.96	27906.21
633.10	27758.75
633.25	27974.08
633.40	27971.74
633.55	27683.86
633.70	27559.81
633.85	27182.98
634.00	27812.59
634.15	27236.81
634.30	27194.68
634.45	27522.36
634.60	27342.14
634.75	27604.28
634.90	27505.98
635.05	27744.71
635.19	27665.13
635.34	27625.34
635.49	27522.36
635.64	27943.66
635.79	27960.04
635.94	27461.51
636.09	27290.65
636.24	27199.37
636.39	27414.69
636.53	27468.53
636.68	27028.51
636.83	27510.66
636.98	27749.39
637.13	26883.39
637.28	27431.08
637.43	27325.75
637.57	27475.55
637.72	27129.15
637.87	27173.62
638.02	27236.81
638.17	27372.57
638.32	26902.12
638.46	27035.53
638.61	27108.08
638.76	26911.48
638.91	27182.98
639.06	26984.04
639.20	26874.03
639.35	27056.59
639.50	27175.96
639.65	27014.46
639.80	27222.77
639.94	27030.85
640.09	27068.30
640.24	26904.46
640.39	26710.19
640.54	26988.72
640.68	27204.05
640.83	27096.38
640.98	26602.53
641.13	26759.34
641.27	26820.20
641.42	26785.09
641.57	26670.40
641.72	27058.93
641.86	26544.02
642.01	26359.11
642.16	26544.02
642.31	26504.23
642.45	26647.00
642.60	26808.50
642.75	26136.76
642.90	26382.52
643.04	26611.89
643.19	26815.52
643.34	26635.30
643.48	26394.22
643.63	26485.50
643.78	26476.14
643.93	26979.36
644.07	26363.79
644.22	26691.47
644.37	26394.22
644.51	27126.81
644.66	26211.66
644.81	25935.48
644.95	26555.72
645.10	26443.37
645.25	26459.76
645.39	26548.70
645.54	26253.79
645.69	26061.87
645.83	26504.23
645.98	26405.92
646.13	26604.87
646.27	26815.52
646.42	26408.26
646.57	26043.14
646.71	26356.77
646.86	26316.98
647.00	26462.10
647.15	26038.46
647.30	25916.75
647.44	26417.63
647.59	26235.06
647.74	26281.88
647.88	25986.97
648.03	26169.53
648.17	26574.44
648.32	26078.25
648.47	26597.85
648.61	26075.91
648.76	26183.57
648.90	26003.35
649.05	26331.03
649.20	26008.03
649.34	25867.60
649.49	25951.86
649.63	25806.75
649.78	25846.54
649.92	25748.23
650.07	26068.89
650.21	25699.08
650.36	25624.18
650.51	25603.12
650.65	25680.36
650.80	25713.13
650.94	25802.07
651.09	25680.36
651.23	25816.11
651.38	25521.20
651.52	25635.89
651.67	25511.84
651.81	25694.40
651.96	25319.92
652.10	25846.54
652.25	25827.81
652.39	25853.56
652.54	25785.68
652.68	25605.46
652.83	25486.09
652.97	25659.29
653.12	25727.17
653.26	25476.73
653.41	25610.14
653.55	25329.28
653.70	25738.87
653.84	25448.64
653.99	25315.23
654.13	25149.06
654.27	25146.72
654.42	25289.49
654.56	25329.28
654.71	25436.94
654.85	25577.37
655.00	25497.80
655.14	25240.34
655.29	25397.15
655.43	25170.12
655.57	24943.09
655.72	25142.03
655.86	25010.96
656.01	25081.18
656.15	24996.92
656.30	25273.10
656.44	24919.68
656.58	25301.19
656.73	25046.07
656.87	25076.50
657.01	25179.48
657.16	25001.60
657.30	25303.53
657.45	25179.48
657.59	25006.28
657.73	24870.53
657.88	25282.47
658.02	25153.74
658.16	24706.70
658.31	24503.07
658.45	24891.60
658.60	24414.13
658.74	25132.67
658.88	24622.44
659.03	24484.34
659.17	24797.98
659.31	24716.06
659.46	24641.16
659.60	24599.03
659.74	24479.66
659.89	24755.85
660.03	24379.02
660.17	25006.28
660.32	24467.96
660.46	24364.98
660.60	24189.44
660.74	24592.01
660.89	24306.46
661.03	24374.34
661.17	24102.84
661.32	24126.24
661.46	24580.31
661.60	24219.86
661.74	24191.78
661.89	24325.19
662.03	24505.41
662.17	24079.43
662.31	23957.72
662.46	24194.12
662.60	24285.40
662.74	24245.61
662.88	23950.70
663.03	23623.03
663.17	24081.77
663.31	23763.46
663.45	23861.76
663.60	23866.44
663.74	23711.97
663.88	23957.72
664.02	23583.24
664.17	24039.64
664.31	23920.28
664.45	23662.82
664.59	23903.89
664.73	23545.79
664.88	23683.88
665.02	23344.50
665.16	23424.08
665.30	23300.03
665.44	23388.97
665.59	23131.51
665.73	23470.89
665.87	23229.82
666.01	23096.41
666.15	23161.94
666.29	23168.96
666.44	23133.86
666.58	22752.35
666.72	22665.75
666.86	23037.89
667.00	23021.51
667.14	22970.02
667.28	22913.84
667.43	22979.38
667.57	22937.25
667.71	22862.35
667.85	22560.42
667.99	22764.05
668.13	22635.32
668.27	22768.73
668.41	22881.08
668.56	22850.65
668.70	23023.85
668.84	22120.40
668.98	22794.48
669.12	22455.10
669.26	22712.56
669.40	22611.92
669.54	22501.91
669.68	22803.84
669.82	22239.77
669.96	22118.06
670.10	22312.33
670.25	22188.28
670.39	22146.15
670.53	22202.32
670.67	22139.13
670.81	22216.36
670.95	22546.38
671.09	22003.38
671.23	22270.20
671.37	22080.61
671.51	22148.49
671.65	21937.84
671.79	22031.46
671.93	21916.78
672.07	21984.65
672.21	21795.07
672.35	21685.06
672.49	21495.48
672.63	21811.45
672.77	21703.79
672.91	21617.19
673.05	21528.25
673.19	21535.27
673.33	21343.35
673.47	21656.98
673.61	21343.35
673.75	21511.86
673.89	21413.56
674.03	21558.67
674.17	21537.61
674.31	20917.37
674.45	21177.17
674.59	21399.52
674.73	21083.55
674.87	21331.64
675.01	20755.87
675.15	21055.46
675.29	20893.96
675.43	20872.90
675.56	20704.38
675.70	20758.21
675.84	20702.04
675.98	20161.37
676.12	20680.97
676.26	20734.81
676.40	20407.13
676.54	20545.22
676.68	20414.15
676.82	20219.89
676.96	20299.47
677.10	20430.54
677.23	20067.75
677.37	19983.49
677.51	19960.09
677.65	20004.56
677.79	19857.10
677.93	19971.79
678.07	19601.99
678.21	19463.90
678.34	19833.70
678.48	19758.80
678.62	19653.48
678.76	19562.20
678.90	19276.65
679.04	19384.32
679.18	19496.66
679.31	19342.19
679.45	19143.24
679.59	19239.20
679.73	19248.57
679.87	19082.39
680.00	19171.33
680.14	18841.31
680.28	19307.08
680.42	18911.53
680.56	19014.51
680.70	18948.98
680.83	18703.22
680.97	18796.84
681.11	18750.03
681.25	18881.10
681.39	18534.70
681.52	18623.64
681.66	18459.81
681.80	18518.32
681.94	18235.11
682.07	18448.10
682.21	18457.46
682.35	17982.34
682.49	17837.22
682.62	18033.83
682.76	18078.30
682.90	18298.31
683.04	18146.17
683.17	18001.06
683.31	18237.45
683.45	17759.98
683.59	17657.00
683.72	17804.46
683.86	17884.03
684.00	17432.31
684.13	17561.04
684.27	17570.40
684.41	17294.22
684.55	17165.49
684.68	16919.73
684.82	17390.18
684.96	17109.32
685.09	16898.67
685.23	16889.31
685.37	17102.29
685.50	17287.20
685.64	17205.28
685.78	17050.80
685.91	17050.80
686.05	16952.50
686.19	16809.73
686.32	16753.55
686.46	16554.61
686.60	16381.41
686.73	16847.18
686.87	16451.63
687.01	16098.20
687.14	16283.11
687.28	16283.11
687.42	16056.08
687.55	16170.76
687.69	16301.83
687.82	15892.24
687.96	16020.97
688.10	15936.71
688.23	15672.23
688.37	15789.25
688.50	15845.43
688.64	15920.32
688.78	15681.59
688.91	15428.81
689.05	15372.64
689.18	15625.42
689.32	15403.07
689.46	15445.20
689.59	15225.18
689.73	15461.58
689.86	15019.22
690.00	15262.63
690.13	15173.69
690.27	15070.71
690.41	15136.24
690.54	15030.92
690.68	14941.98
690.81	15047.30
690.95	15204.12
691.08	14911.55
691.22	14686.86
691.35	14810.91
691.49	14932.62
691.62	14958.36
691.76	14707.93
691.89	14658.78
692.03	14347.48
692.16	14319.40
692.30	14326.42
692.43	14377.91
692.57	14396.64
692.70	14073.64
692.84	13980.02
692.97	13877.04
693.11	14286.63
693.24	13905.12
693.38	14106.41
693.51	13748.31
693.65	13816.18
693.78	13563.40
693.92	13729.58
694.05	13748.31
694.19	13668.73
694.32	13738.94
694.45	13415.95
694.59	13252.11
694.72	13345.73
694.86	13359.78
694.99	13067.21
695.13	13200.62
695.26	13076.57
695.39	13078.91
695.53	13280.20
695.66	13111.68
695.80	13114.02
695.93	12879.97
696.07	12919.76
696.20	12940.82
696.33	12849.54
696.47	12837.84
696.60	13034.44
696.73	12896.35
696.87	12547.61
697.00	12709.11
697.14	12217.60
697.27	12264.41
697.40	12191.85
697.54	12411.86
697.67	12114.61
697.80	12198.87
697.94	12222.28
698.07	11978.86
698.21	12058.44
698.34	12114.61
698.47	11990.56
698.61	12060.78
698.74	12194.19
698.87	11922.69
699.01	11836.09
699.14	11641.82
699.27	11798.64
699.40	11599.70
699.54	11826.73
699.67	11550.54
699.80	11335.21
699.94	11428.84
700.07	11501.39
700.20	11351.60
700.34	11220.53
700.47	11166.70
700.60	11255.64
700.73	11286.06
700.87	11222.87
701.00	11098.82
701.13	11229.89
701.26	10988.82
701.40	11000.52
701.53	10862.43
701.66	11026.26
701.79	10785.19
701.93	10824.98
702.06	10810.93
702.19	10593.26
702.32	10565.18
702.46	10441.13
702.59	10389.64
702.72	10370.91
702.85	10633.05
702.99	10424.75
703.12	10324.10
703.25	10146.22
703.38	10113.45
703.51	10370.91
703.65	10384.96
703.78	10061.96
703.91	9919.19
704.04	10195.37
704.17	10134.52
704.31	10209.42
704.44	9923.87
704.57	9879.40
704.70	9563.43
704.83	9717.90
704.96	9570.45
705.10	9525.98
705.23	9633.64
>>>>>End Processed Spectral Data<<<<<
