SpectraSuite Data File
++++++++++++++++++++++++++++++++++++
Date: Fri Oct 18 13:58:29 GMT-05:00 2013
User: bianchi
Dark Spectrum Present: No
Reference Spectrum Present: No
Number of Sampled Component Spectra: 1
Spectrometers: USB2+H05261
Integration Time (usec): 50000 (USB2+H05261)
Spectra Averaged: 1 (USB2+H05261)
Boxcar Smoothing: 0 (USB2+H05261)
Correct for Electrical Dark: No (USB2+H05261)
Strobe/Lamp Enabled: No (USB2+H05261)
Correct for Detector Non-linearity: No (USB2+H05261)
Correct for Stray Light: No (USB2+H05261)
Number of Pixels in Processed Spectrum: 2048
>>>>>Begin Processed Spectral Data<<<<<
365.73	0.00
365.92	0.00
366.12	0.00
366.32	0.00
366.52	0.00
366.72	0.00
366.91	0.00
367.11	0.00
367.31	0.00
367.51	0.00
367.70	0.00
367.90	0.00
368.10	0.00
368.30	0.00
368.49	0.00
368.69	0.00
368.89	0.00
369.09	0.00
369.28	0.00
369.48	0.00
369.68	0.00
369.87	0.00
370.07	0.00
370.27	0.00
370.47	7.02
370.66	138.09
370.86	154.48
371.06	205.97
371.25	184.90
371.45	107.66
371.65	112.35
371.84	128.73
372.04	63.19
372.24	189.58
372.44	217.67
372.63	102.98
372.83	203.63
373.03	194.26
373.22	205.97
373.42	196.60
373.62	252.78
373.81	241.08
374.01	217.67
374.21	175.54
374.40	203.63
374.60	252.78
374.79	231.71
374.99	236.39
375.19	210.65
375.38	201.29
375.58	259.80
375.78	201.29
375.97	278.52
376.17	224.69
376.37	252.78
376.56	205.97
376.76	318.31
376.95	217.67
377.15	248.10
377.35	351.08
377.54	358.10
377.74	315.97
377.93	210.65
378.13	259.80
378.33	259.80
378.52	271.50
378.72	234.05
378.91	257.46
379.11	264.48
379.31	346.40
379.50	287.89
379.70	320.65
379.89	353.42
380.09	290.23
380.28	313.63
380.48	334.70
380.68	264.48
380.87	367.46
381.07	327.68
381.26	290.23
381.46	397.89
381.65	433.00
381.85	266.82
382.04	327.68
382.24	294.91
382.43	292.57
382.63	322.99
382.83	320.65
383.02	374.49
383.22	318.31
383.41	365.12
383.61	379.17
383.80	369.80
384.00	365.12
384.19	280.86
384.39	315.97
384.58	430.66
384.78	330.02
384.97	299.59
385.17	425.98
385.36	344.06
385.56	390.87
385.75	379.17
385.95	318.31
386.14	397.89
386.34	440.02
386.53	381.51
386.72	360.44
386.92	386.19
387.11	400.23
387.31	475.13
387.50	444.70
387.70	447.04
387.89	458.74
388.09	449.38
388.28	421.30
388.48	423.64
388.67	451.72
388.86	526.62
389.06	379.17
389.25	428.32
389.45	423.64
389.64	512.58
389.84	561.73
390.03	451.72
390.22	444.70
390.42	416.62
390.61	500.87
390.81	468.11
391.00	437.68
391.19	491.51
391.39	547.69
391.58	454.06
391.78	524.28
391.97	468.11
392.16	568.75
392.36	447.04
392.55	519.60
392.75	613.22
392.94	550.03
393.13	540.66
393.33	477.47
393.52	472.79
393.71	510.24
393.91	594.50
394.10	566.41
394.29	547.69
394.49	653.01
394.68	603.86
394.88	592.16
395.07	608.54
395.26	599.18
395.46	603.86
395.65	580.45
395.84	645.99
396.04	634.29
396.23	617.90
396.42	566.41
396.62	638.97
396.81	610.88
397.00	660.03
397.19	690.46
397.39	601.52
397.58	599.18
397.77	657.69
397.97	688.12
398.16	671.73
398.35	713.86
398.55	662.37
398.74	692.80
398.93	704.50
399.12	751.31
399.32	676.41
399.51	688.12
399.70	720.88
399.90	835.57
400.09	800.46
400.28	805.14
400.47	690.46
400.67	753.65
400.86	744.29
401.05	699.82
401.24	807.48
401.44	800.46
401.63	833.23
401.82	807.48
402.01	767.70
402.21	711.52
402.40	905.79
402.59	758.33
402.78	847.27
402.97	791.10
403.17	814.51
403.36	814.51
403.55	854.30
403.74	882.38
403.93	901.11
404.13	954.94
404.32	917.49
404.51	978.34
404.70	931.53
404.89	901.11
405.09	968.98
405.28	950.26
405.47	903.45
405.66	910.47
405.85	973.66
406.05	1001.75
406.24	910.47
406.43	973.66
406.62	1055.58
406.81	1015.79
407.00	933.87
407.20	957.28
407.39	1050.90
407.58	1048.56
407.77	1090.69
407.96	1086.01
408.15	1125.80
408.34	1027.50
408.54	1146.86
408.73	1081.33
408.92	1114.10
409.11	1062.60
409.30	1196.01
409.49	1093.03
409.68	1156.22
409.87	1198.35
410.07	1132.82
410.26	1226.44
410.45	1172.61
410.64	1200.69
410.83	1203.04
411.02	1266.23
411.21	1226.44
411.40	1259.21
411.59	1249.85
411.78	1247.51
411.98	1341.13
412.17	1217.08
412.36	1228.78
412.55	1313.04
412.74	1313.04
412.93	1355.17
413.12	1301.34
413.31	1437.09
413.50	1362.19
413.69	1341.13
413.88	1430.07
414.07	1540.07
414.26	1453.47
414.45	1362.19
414.64	1479.22
414.83	1535.39
415.02	1509.65
415.22	1514.33
415.41	1563.48
415.60	1535.39
415.79	1554.12
415.98	1469.86
416.17	1671.14
416.36	1561.14
416.55	1591.56
416.74	1664.12
416.93	1636.03
417.12	1589.22
417.31	1598.59
417.50	1617.31
417.69	1605.61
417.88	1643.06
418.07	1727.32
418.26	1678.16
418.45	1666.46
418.64	1881.79
418.83	1802.21
419.02	1778.81
419.21	1802.21
419.39	1774.13
419.58	1816.26
419.77	1783.49
419.96	1778.81
420.15	1799.87
420.34	1923.92
420.53	1806.89
420.72	1891.15
420.91	1907.54
421.10	1874.77
421.29	1940.30
421.48	1933.28
421.67	1928.60
421.86	1886.47
422.05	1944.99
422.24	1919.24
422.43	1989.46
422.61	2008.18
422.80	1994.14
422.99	1963.71
423.18	2031.58
423.37	2033.93
423.56	1912.22
423.75	2008.18
423.94	2066.69
424.13	1834.98
424.32	1844.34
424.50	2031.58
424.69	2036.27
424.88	2047.97
425.07	1956.69
425.26	2005.84
425.45	1898.17
425.64	1970.73
425.83	2036.27
426.01	2071.37
426.20	2038.61
426.39	2017.54
426.58	2054.99
426.77	2090.10
426.96	1966.05
427.15	2012.86
427.33	2148.61
427.52	2080.74
427.71	2118.18
427.90	2101.80
428.09	2120.53
428.28	2078.40
428.46	2036.27
428.65	2237.55
428.84	2153.29
429.03	2293.72
429.22	2143.93
429.40	2176.70
429.59	2277.34
429.78	2190.74
429.97	2092.44
430.16	2256.28
430.34	2270.32
430.53	2356.92
430.72	2277.34
430.91	2223.51
431.10	2246.91
431.28	2340.54
431.47	2595.65
431.66	2385.01
431.85	2270.32
432.03	2300.75
432.22	2558.21
432.41	2469.27
432.60	2471.61
432.79	2392.03
432.97	2490.33
433.16	2448.20
433.35	2373.30
433.54	2434.16
433.72	2544.16
433.91	2572.25
434.10	2614.38
434.28	2471.61
434.47	2506.71
434.66	2651.83
434.85	2609.70
435.03	2520.76
435.22	2612.04
435.41	2647.15
435.59	2485.65
435.78	2602.68
435.97	2642.46
436.16	2642.46
436.34	2534.80
436.53	2616.72
436.72	2773.53
436.90	2670.55
437.09	2703.32
437.28	2686.94
437.46	2705.66
437.65	2644.81
437.84	2682.25
438.02	2602.68
438.21	2871.84
438.40	2827.37
438.58	2850.77
438.77	2930.35
438.96	2799.28
439.14	2904.60
439.33	2902.26
439.52	3021.63
439.70	2965.46
439.89	2916.31
440.08	2906.95
440.26	3019.29
440.45	2967.80
440.63	2918.65
440.82	3052.06
441.01	3068.44
441.19	3145.68
441.38	3262.71
441.57	3173.77
441.75	3119.93
441.94	3215.90
442.12	3272.07
442.31	3300.16
442.50	3218.24
442.68	3239.30
442.87	3232.28
443.05	3365.69
443.24	3424.20
443.43	3262.71
443.61	3370.37
443.80	3485.06
443.98	3304.84
444.17	3290.79
444.35	3447.61
444.54	3449.95
444.73	3358.67
444.91	3293.13
445.10	3499.10
445.28	3337.60
445.47	3227.60
445.65	3445.27
445.84	3328.24
446.02	3566.98
446.21	3325.90
446.39	3433.57
446.58	3520.17
446.77	3609.11
446.95	3353.99
447.14	3569.32
447.32	3417.18
447.51	3445.27
447.69	3459.31
447.88	3452.29
448.06	3574.00
448.25	3599.74
448.43	3557.61
448.62	3555.27
448.80	3602.08
448.99	3595.06
449.17	3571.66
449.36	3449.95
449.54	3641.87
449.73	3693.37
449.91	3747.20
450.10	3695.71
450.28	3684.00
450.46	3674.64
450.65	3609.11
450.83	3719.11
451.02	3831.46
451.20	3761.24
451.39	3831.46
451.57	3822.09
451.76	3864.22
451.94	3751.88
452.13	3885.29
452.31	3819.75
452.49	3644.21
452.68	3742.52
452.86	3866.56
453.05	3960.19
453.23	3911.04
453.42	3822.09
453.60	3824.44
453.78	3918.06
453.97	3829.12
454.15	3880.61
454.34	3789.33
454.52	4023.38
454.70	4016.36
454.89	4100.62
455.07	4077.21
455.26	4037.42
455.44	4142.75
455.62	4028.06
455.81	3999.98
455.99	4056.15
456.17	4145.09
456.36	4173.18
456.54	4266.80
456.73	4170.83
456.91	4294.88
457.09	4273.82
457.28	4344.03
457.46	4163.81
457.64	4292.54
457.83	4255.09
458.01	4070.19
458.19	4351.06
458.38	4301.90
458.56	4386.16
458.74	4278.50
458.93	4449.36
459.11	4414.25
459.29	4334.67
459.48	4337.01
459.66	4411.91
459.84	4461.06
460.03	4559.36
460.21	4613.20
460.39	4568.73
460.57	4404.89
460.76	4617.88
460.94	4496.17
461.12	4664.69
461.31	4592.13
461.49	4505.53
461.67	4599.15
461.85	4648.30
462.04	4472.76
462.22	4777.03
462.40	4706.82
462.59	4517.23
462.77	4683.41
462.95	4547.66
463.13	4685.75
463.32	4837.89
463.50	4863.63
463.68	4795.76
463.86	4826.18
464.05	4690.43
464.23	4873.00
464.41	4873.00
464.59	4603.83
464.78	4854.27
464.96	4957.25
465.14	4737.24
465.32	4966.62
465.50	5029.81
465.69	5114.07
465.87	4919.81
466.05	4954.91
466.23	4805.12
466.41	4992.36
466.60	5104.71
466.78	4938.53
466.96	5060.24
467.14	5146.84
467.32	4987.68
467.51	5109.39
467.69	5081.30
467.87	5039.17
468.05	5102.37
468.23	4894.06
468.41	5034.49
468.60	5081.30
468.78	5036.83
468.96	5076.62
469.14	5298.97
469.32	5359.83
469.50	5191.31
469.69	5348.12
469.87	5441.75
470.05	5497.92
470.23	5528.35
470.41	5385.57
470.59	5369.19
470.77	5287.27
470.95	5420.68
471.14	5437.06
471.32	5357.49
471.50	5511.96
471.68	5591.54
471.86	5610.26
472.04	5731.97
472.22	5603.24
472.40	5731.97
472.58	5586.86
472.77	5687.50
472.95	5846.66
473.13	5830.27
473.31	5795.17
473.49	5818.57
473.67	5937.94
473.85	5921.56
474.03	6092.41
474.21	5956.66
474.39	5996.45
474.57	6106.46
474.75	5987.09
474.93	6190.72
475.12	6246.89
475.30	6054.97
475.48	6094.76
475.66	6218.80
475.84	6274.98
476.02	6225.82
476.20	6392.00
476.38	6555.84
476.56	6530.09
476.74	6476.26
476.92	6516.05
477.10	6558.18
477.28	6733.72
477.46	6588.61
477.64	6785.21
477.82	6684.57
478.00	6970.12
478.18	7073.10
478.36	6761.81
478.54	7035.65
478.72	7110.55
478.90	7108.21
479.08	6927.99
479.26	7372.69
479.44	7288.43
479.62	7536.52
479.80	7370.35
479.98	7295.45
480.16	7391.41
480.34	7470.99
480.52	7358.64
480.70	7669.94
480.88	7651.21
481.06	7522.48
481.24	7709.72
481.41	7726.11
481.59	7971.86
481.77	7969.52
481.95	8042.08
482.13	7969.52
482.31	7985.91
482.49	8116.98
482.67	8301.88
482.85	8388.48
483.03	8276.13
483.21	8561.68
483.39	8704.45
483.57	8629.56
483.74	8439.97
483.92	8582.74
484.10	8676.37
484.28	8847.22
484.46	8950.21
484.64	9088.30
484.82	8936.17
485.00	9193.62
485.18	9111.71
485.35	9423.00
485.53	9387.89
485.71	9308.31
485.89	9579.81
486.07	9493.21
486.25	9474.49
486.43	9554.07
486.61	9666.41
486.78	9832.59
486.96	9771.74
487.14	10003.45
487.32	9872.38
487.50	10010.47
487.68	10104.09
487.85	10223.46
488.03	10382.62
488.21	10501.98
488.39	10513.69
488.57	10656.46
488.75	10387.30
488.92	10752.42
489.10	10909.24
489.28	10963.07
489.46	10949.03
489.64	10958.39
489.81	11241.59
489.99	11297.77
490.17	11253.30
490.35	11391.39
490.53	11232.23
490.70	11508.41
490.88	11515.44
491.06	11899.28
491.24	11683.95
491.41	11674.59
491.59	11971.84
491.77	11735.45
491.95	12175.47
492.13	12109.93
492.30	12301.86
492.48	12184.83
492.66	12196.53
492.84	12269.09
493.01	12290.15
493.19	12428.24
493.37	12498.46
493.54	12580.38
493.72	12629.53
493.90	12788.69
494.08	12842.52
494.25	13212.32
494.43	13111.68
494.61	13378.50
494.79	13123.38
494.96	13516.59
495.14	13561.06
495.32	13301.26
495.49	13380.84
495.67	13399.57
495.85	13579.79
496.02	13621.92
496.20	13809.16
496.38	13870.01
496.55	13947.25
496.73	14019.81
496.91	13989.38
497.09	13909.80
497.26	14211.73
497.44	14139.18
497.62	14494.94
497.79	14349.82
497.97	14263.22
498.14	14700.90
498.32	14614.30
498.50	14906.87
498.67	15019.22
498.85	14670.48
499.03	14923.26
499.20	14932.62
499.38	15014.54
499.56	15302.42
499.73	15201.78
499.91	15005.17
500.08	15571.58
500.26	14824.95
500.44	15283.70
500.61	15541.16
500.79	15349.23
500.97	15618.39
501.14	15712.02
501.32	15641.80
501.49	15587.97
501.67	15470.94
501.84	15941.39
502.02	16009.26
502.20	16049.05
502.37	16013.95
502.55	15845.43
502.72	16205.87
502.90	16222.25
503.07	15833.72
503.25	15983.52
503.43	16201.19
503.60	16446.94
503.78	16477.37
503.95	16259.70
504.13	16072.46
504.30	16463.33
504.48	16339.28
504.65	16570.99
504.83	17025.06
505.01	16669.30
505.18	17048.46
505.36	17177.19
505.53	16596.74
505.71	17069.53
505.88	17123.36
506.06	17020.38
506.23	17090.59
506.41	17111.66
506.58	17289.54
506.76	17137.40
506.93	17312.94
507.11	17317.62
507.28	17268.47
507.46	17329.33
507.63	17577.42
507.81	17708.49
507.98	17326.99
508.16	17406.56
508.33	17467.42
508.50	17837.22
508.68	17717.86
508.85	17750.62
509.03	18064.25
509.20	18059.57
509.38	18314.69
509.55	18153.20
509.73	17972.97
509.90	18340.44
510.08	17965.95
510.25	18520.66
510.42	18242.14
510.60	18324.05
510.77	18539.38
510.95	18415.34
511.12	18436.40
511.30	18721.95
511.47	18904.51
511.64	18511.30
511.82	18544.06
511.99	19143.24
512.17	18808.54
512.34	18733.65
512.51	19264.95
512.69	19042.60
512.86	18703.22
513.04	19173.67
513.21	19307.08
513.38	19381.98
513.56	19213.46
513.73	19524.75
513.90	19335.17
514.08	19267.29
514.25	19679.22
514.43	19545.81
514.60	19473.26
514.77	20006.90
514.95	19632.41
515.12	19793.91
515.29	19665.18
515.47	19868.81
515.64	19964.77
515.81	19922.64
515.99	19878.17
516.16	20163.72
516.33	20325.21
516.51	20456.28
516.68	20072.43
516.85	20046.69
517.03	19974.13
517.20	20414.15
517.37	20313.51
517.54	20486.71
517.72	20610.76
517.89	20315.85
518.06	20383.73
518.24	20528.84
518.41	20456.28
518.58	20753.53
518.75	20783.96
518.93	20877.58
519.10	20582.67
519.27	20798.00
519.45	20753.53
519.62	20606.08
519.79	21018.01
519.96	20798.00
520.14	21106.95
520.31	20868.22
520.48	21085.89
520.65	21135.04
520.83	21132.70
521.00	21062.48
521.17	21436.97
521.34	21448.67
521.52	21219.30
521.69	21523.57
521.86	21678.04
522.03	21654.64
522.20	21710.81
522.38	21884.01
522.55	21626.55
522.72	21762.30
522.89	21895.71
523.07	21972.95
523.24	21860.60
523.41	21994.01
523.58	21584.42
523.75	21820.81
523.92	21706.13
524.10	21914.44
524.27	22125.08
524.44	22258.49
524.61	22380.20
524.78	22033.80
524.96	22146.15
525.13	22019.76
525.30	22424.67
525.47	22384.88
525.64	22412.97
525.81	22242.11
525.98	22574.47
526.16	22546.38
526.33	22279.56
526.50	22733.62
526.67	22597.87
526.84	22696.17
527.01	22520.63
527.18	22719.58
527.36	22881.08
527.53	22946.61
527.70	22988.74
527.87	23094.07
528.04	23073.00
528.21	22972.36
528.38	23250.88
528.55	23028.53
528.72	22848.31
528.89	23143.22
529.07	23037.89
529.24	23112.79
529.41	23611.32
529.58	23344.50
529.75	22960.66
529.92	23386.63
530.09	23281.31
530.26	23225.14
530.43	23342.16
530.60	23356.21
530.77	23639.41
530.94	23653.45
531.11	23758.78
531.28	23414.72
531.46	23498.98
531.63	23681.54
531.80	24041.98
531.97	23772.82
532.14	24051.34
532.31	24128.58
532.48	23775.16
532.65	23779.84
532.82	23821.97
532.99	23843.04
533.16	24030.28
533.33	24126.24
533.50	24699.67
533.67	24713.72
533.84	24039.64
534.01	24229.23
534.18	24224.54
534.35	24592.01
534.52	24018.58
534.69	24421.15
534.86	24655.20
535.03	24362.64
535.20	24751.17
535.37	24432.85
535.54	24166.03
535.71	24460.94
535.88	24594.35
536.05	24514.77
536.22	24683.29
536.38	24851.81
536.55	25046.07
536.72	24720.74
536.89	24318.17
537.06	24542.86
537.23	24460.94
537.40	24912.66
537.57	24505.41
537.74	25151.40
537.91	25558.65
538.08	25238.00
538.25	25090.54
538.42	25467.37
538.59	25015.65
538.75	24680.95
538.92	25125.65
539.09	25048.41
539.26	25671.00
539.43	25172.46
539.60	25415.88
539.77	25303.53
539.94	25266.08
540.11	25202.89
540.28	25633.55
540.44	25371.41
540.61	25062.46
540.78	25642.91
540.95	25418.22
541.12	25715.47
541.29	25511.84
541.46	25600.78
541.62	25242.68
541.79	25661.63
541.96	25135.01
542.13	25612.48
542.30	25722.49
542.47	25563.33
542.63	25825.47
542.80	26082.93
542.97	25825.47
543.14	26232.72
543.31	25937.82
543.48	25883.98
543.64	26331.03
543.81	26148.46
543.98	26305.28
544.15	26038.46
544.32	26759.34
544.48	26338.05
544.65	25748.23
544.82	26462.10
544.99	26047.82
545.16	26349.75
545.32	26321.66
545.49	26780.41
545.66	26654.02
545.83	26621.25
546.00	26747.64
546.16	26625.93
546.33	26295.92
546.50	26096.97
546.67	26635.30
546.83	26405.92
547.00	26391.88
547.17	26951.27
547.34	26696.15
547.50	26672.74
547.67	27316.39
547.84	26579.12
548.00	26778.07
548.17	26962.97
548.34	26913.82
548.51	26925.52
548.67	27222.77
548.84	26911.48
549.01	26836.58
549.18	26759.34
549.34	26995.74
549.51	26775.73
549.68	27292.99
549.84	27089.36
550.01	27255.54
550.18	27096.38
550.34	27349.16
550.51	27255.54
550.68	27412.35
550.84	26906.80
551.01	27035.53
551.18	27271.92
551.34	27290.65
551.51	27309.37
551.68	27522.36
551.84	27304.69
552.01	27749.39
552.18	27484.91
552.34	27571.51
552.51	27974.08
552.68	27374.91
552.84	27644.07
553.01	27955.36
553.18	27852.38
553.34	27349.16
553.51	27608.96
553.67	27695.56
553.84	28116.86
554.01	27749.39
554.17	27807.90
554.34	27845.35
554.51	27571.51
554.67	27934.29
554.84	27644.07
555.00	27644.07
555.17	28189.41
555.33	27868.76
555.50	27756.41
555.67	27524.70
555.83	27550.45
556.00	27971.74
556.16	28175.37
556.33	27758.75
556.50	27936.63
556.66	28072.39
556.83	28163.67
556.99	28393.04
557.16	28063.02
557.32	28109.83
557.49	28177.71
557.65	28311.12
557.82	27782.16
557.98	27857.06
558.15	28009.19
558.32	28205.80
558.48	28238.56
558.65	28407.08
558.81	28126.22
558.98	28280.69
559.14	27971.74
559.31	28662.20
559.47	28264.31
559.64	28397.72
559.80	28402.40
559.97	28346.23
560.13	28226.86
560.30	28453.89
560.46	28601.35
560.63	28758.16
560.79	28666.88
560.96	28582.62
561.12	28486.66
561.29	28528.79
561.45	28430.49
561.61	28582.62
561.78	28767.52
561.94	28369.63
562.11	28418.78
562.27	28795.61
562.44	28231.54
562.60	28100.47
562.77	28470.28
562.93	28292.40
563.10	28629.43
563.26	28680.92
563.42	28875.19
563.59	28896.25
563.75	28690.29
563.92	28641.14
564.08	28442.19
564.24	28369.63
564.41	28470.28
564.57	28804.97
564.74	28734.76
564.90	29060.09
565.07	28816.68
565.23	29081.16
565.39	28858.81
565.56	28746.46
565.72	28699.65
565.88	28870.51
566.05	28912.64
566.21	28854.12
566.38	28917.32
566.54	28622.41
566.70	29046.05
566.87	29453.30
567.03	29158.39
567.19	29205.20
567.36	29036.69
567.52	28875.19
567.68	28844.76
567.85	29010.94
568.01	28931.36
568.17	29034.35
568.34	29205.20
568.50	29397.13
568.66	29432.24
568.83	29266.06
568.99	29125.63
569.15	29050.73
569.32	28882.21
569.48	28802.63
569.64	29343.30
569.81	29336.27
569.97	29259.04
570.13	29027.32
570.30	29142.01
570.46	29081.16
570.62	28889.23
570.78	29329.25
570.95	28910.30
571.11	29439.26
571.27	29102.22
571.43	29139.67
571.60	29132.65
571.76	29240.31
571.92	29041.37
572.09	29362.02
572.25	29252.02
572.41	29083.50
572.57	29060.09
572.74	29717.78
572.90	29032.00
573.06	29043.71
573.22	29401.81
573.38	29523.52
573.55	29462.66
573.71	29649.91
573.87	29614.80
574.03	29081.16
574.20	29427.56
574.36	28910.30
574.52	29507.13
574.68	29153.71
574.84	29013.28
575.01	29394.79
575.17	29294.14
575.33	29280.10
575.49	29273.08
575.65	29584.37
575.82	29521.18
575.98	29607.78
576.14	29509.47
576.30	29254.36
576.46	29556.28
576.62	29132.65
576.79	29607.78
576.95	29296.49
577.11	29706.08
577.27	29441.60
577.43	29631.18
577.59	29621.82
577.75	29434.58
577.92	29338.62
578.08	29385.43
578.24	29301.17
578.40	29287.12
578.56	29546.92
578.72	29537.56
578.88	29729.48
579.04	29614.80
579.21	29333.93
579.37	29441.60
579.53	29497.77
579.69	29530.54
579.85	29619.48
580.01	29598.41
580.17	29296.49
580.33	29600.76
580.49	29233.29
580.65	29797.36
580.82	29830.13
580.98	29834.81
581.14	29567.99
581.30	29535.22
581.46	29476.71
581.62	29336.27
581.78	29319.89
581.94	29771.61
582.10	29659.27
582.26	29610.12
582.42	29553.94
582.58	29738.85
582.74	29425.22
582.90	29516.50
583.06	29446.28
583.22	29766.93
583.38	29296.49
583.54	29516.50
583.70	29848.85
583.86	29666.29
584.02	29465.00
584.18	29968.22
584.34	29544.58
584.50	29759.91
584.66	29647.57
584.82	29188.82
584.98	29748.21
585.14	29654.59
585.30	29242.65
585.46	29731.83
585.62	29701.40
585.78	29652.25
585.94	29551.60
586.10	29872.26
586.26	29949.50
586.42	29921.41
586.58	29820.77
586.74	29439.26
586.90	29649.91
587.06	29137.33
587.22	29319.89
587.38	29689.70
587.54	29708.42
587.70	30012.69
587.86	29621.82
588.02	29834.81
588.18	29668.63
588.34	29977.58
588.49	29738.85
588.65	30263.13
588.81	29305.85
588.97	29659.27
589.13	29792.68
589.29	29659.27
589.45	29710.76
589.61	29567.99
589.77	30047.80
589.93	30167.16
590.08	29956.52
590.24	30298.23
590.40	29958.86
590.56	29879.28
590.72	29621.82
590.88	29930.77
591.04	29605.44
591.20	30101.63
591.35	30326.32
591.51	30347.39
591.67	30110.99
591.83	30331.00
591.99	29867.58
592.15	30087.59
592.31	29944.81
592.46	29720.12
592.62	29743.53
592.78	29912.05
592.94	29741.19
593.10	29614.80
593.26	30078.22
593.41	29773.95
593.57	29860.55
593.73	29844.17
593.89	29741.19
594.05	30092.27
594.20	29851.19
594.36	29701.40
594.52	29708.42
594.68	29865.24
594.84	29830.13
594.99	30354.41
595.15	30319.30
595.31	30373.13
595.47	30157.80
595.62	30230.36
595.78	29947.15
595.94	30476.12
596.10	30066.52
596.25	29996.31
596.41	30066.52
596.57	29586.71
596.73	30118.01
596.88	29715.44
597.04	30574.42
597.20	30555.69
597.36	30040.78
597.51	30277.17
597.67	30082.91
597.83	30136.74
597.99	30426.96
598.14	29965.88
598.30	30443.35
598.46	29893.32
598.61	30164.82
598.77	29696.72
598.93	30155.46
599.09	30422.28
599.24	30646.97
599.40	30773.36
599.56	30185.89
599.71	30548.67
599.87	30469.09
600.03	30256.11
600.18	30122.69
600.34	30216.32
600.50	29802.04
600.65	30323.98
600.81	30309.94
600.97	30326.32
601.12	30204.61
601.28	30340.36
601.44	30316.96
601.59	30522.93
601.75	29933.11
601.91	30328.66
602.06	30232.70
602.22	29963.54
602.37	30010.35
602.53	30146.10
602.69	30258.45
602.84	30300.58
603.00	30237.38
603.16	30340.36
603.31	30288.87
603.47	30008.01
603.62	30443.35
603.78	30038.44
603.94	29902.68
604.09	29872.26
604.25	30190.57
604.40	30052.48
604.56	30401.22
604.71	30232.70
604.87	29949.50
605.03	30450.37
605.18	30246.74
605.34	30251.42
605.49	30340.36
605.65	30242.06
605.80	29799.70
605.96	30178.87
606.12	30092.27
606.27	30274.83
606.43	29748.21
606.58	30436.33
606.74	30452.71
606.89	30487.82
607.05	30422.28
607.20	30558.03
607.36	30307.60
607.51	30171.85
607.67	29710.76
607.82	30012.69
607.98	29895.66
608.13	30230.36
608.29	29778.64
608.44	30050.14
608.60	30024.39
608.75	30057.16
608.91	29958.86
609.06	29961.20
609.22	29947.15
609.37	29467.34
609.53	30071.20
609.68	29956.52
609.84	30043.12
609.99	29982.26
610.15	29785.66
610.30	29820.77
610.46	29240.31
610.61	30232.70
610.76	30183.55
610.92	29986.94
611.07	29666.29
611.23	29949.50
611.38	29886.30
611.54	29397.13
611.69	29626.50
611.84	29738.85
612.00	29713.10
612.15	29668.63
612.31	30103.97
612.46	29883.96
612.62	29797.36
612.77	29977.58
612.92	30089.93
613.08	29799.70
613.23	29621.82
613.39	29731.83
613.54	29467.34
613.69	29680.33
613.85	29385.43
614.00	29544.58
614.15	29659.27
614.31	29137.33
614.46	29965.88
614.62	29567.99
614.77	29610.12
614.92	29560.97
615.08	29259.04
615.23	29472.03
615.38	29333.93
615.54	29137.33
615.69	29209.89
615.84	29266.06
616.00	29312.87
616.15	28992.22
616.30	29230.95
616.46	29530.54
616.61	29163.08
616.76	29479.05
616.92	29226.27
617.07	29413.51
617.22	28910.30
617.37	28802.63
617.53	29081.16
617.68	29275.42
617.83	28636.45
617.99	29179.46
618.14	29294.14
618.29	29347.98
618.45	29226.27
618.60	29357.34
618.75	29378.40
618.90	29048.39
619.06	29373.72
619.21	29392.45
619.36	29113.92
619.51	29172.44
619.67	28671.56
619.82	28844.76
619.97	29233.29
620.12	28826.04
620.28	28716.03
620.43	29001.58
620.58	29127.97
620.73	28987.53
620.89	29090.52
621.04	29254.36
621.19	29460.32
621.34	28929.02
621.49	28699.65
621.65	28842.42
621.80	28744.12
621.95	28732.42
622.10	28821.36
622.25	29048.39
622.41	28730.08
622.56	28781.57
622.71	28643.48
622.86	28999.24
623.01	29006.26
623.16	28582.62
623.32	28587.30
623.47	28940.72
623.62	28711.35
623.77	28704.33
623.92	28477.30
624.07	28776.89
624.23	28514.75
624.38	28910.30
624.53	28765.18
624.68	28718.37
624.83	28816.68
624.98	29125.63
625.13	28226.86
625.29	28407.08
625.44	28774.55
625.59	28570.92
625.74	28608.37
625.89	28266.65
626.04	28292.40
626.19	28189.41
626.34	28397.72
626.49	28034.94
626.65	28020.89
626.80	28559.22
626.95	28503.04
627.10	28060.68
627.25	28268.99
627.40	28379.00
627.55	27908.55
627.70	28027.92
627.85	27917.91
628.00	27843.01
628.15	27999.83
628.30	28194.09
628.45	28034.94
628.60	28070.04
628.76	27953.02
628.91	28261.97
629.06	28053.66
629.21	28180.05
629.36	27908.55
629.51	27501.29
629.66	27791.52
629.81	27896.85
629.96	27800.88
630.11	27772.80
630.26	27402.99
630.41	28140.26
630.56	27508.32
630.71	27812.59
630.86	27374.91
631.01	27676.83
631.16	28130.90
631.31	27660.45
631.46	27735.35
631.61	27669.81
631.76	27901.53
631.91	27634.71
632.06	27700.24
632.21	27510.66
632.36	27709.60
632.51	27337.46
632.66	27913.23
632.81	27456.82
632.96	27843.01
633.10	27564.49
633.25	27330.44
633.40	27709.60
633.55	27826.63
633.70	27182.98
633.85	27164.26
634.00	27417.04
634.15	27466.19
634.30	27185.32
634.45	27325.75
634.60	27269.58
634.75	27566.83
634.90	27292.99
635.05	27466.19
635.19	27402.99
635.34	27094.04
635.49	27590.24
635.64	27690.88
635.79	27288.31
635.94	27351.50
636.09	27136.17
636.24	27342.14
636.39	27414.69
636.53	26869.35
636.68	26991.06
636.83	26955.95
636.98	27302.35
637.13	26998.08
637.28	27290.65
637.43	27105.74
637.57	26878.71
637.72	26838.92
637.87	27094.04
638.02	27101.06
638.17	27075.32
638.32	26616.57
638.46	26742.96
638.61	26649.34
638.76	26834.24
638.91	26726.58
639.06	26455.08
639.20	26792.11
639.35	27150.21
639.50	26885.73
639.65	27292.99
639.80	27131.49
639.94	27065.96
640.09	26560.40
640.24	26834.24
640.39	26623.59
640.54	26717.22
640.68	26288.90
640.83	26553.38
640.98	26618.91
641.13	26148.46
641.27	26558.06
641.42	26707.85
641.57	26831.90
641.72	26691.47
641.86	26644.66
642.01	26298.26
642.16	26349.75
642.31	26380.18
642.45	26214.00
642.60	26181.23
642.75	26267.83
642.90	26473.80
643.04	26424.65
643.19	26120.38
643.34	26244.43
643.48	26333.37
643.63	26394.22
643.78	26134.42
643.93	26597.85
644.07	26480.82
644.22	26525.29
644.37	26071.23
644.51	26047.82
644.66	26405.92
644.81	26015.05
644.95	25912.07
645.10	26331.03
645.25	26204.64
645.39	26139.10
645.54	26141.44
645.69	26263.15
645.83	26045.48
645.98	25954.20
646.13	25928.45
646.27	26019.74
646.42	26019.74
646.57	25979.95
646.71	26036.12
646.86	26122.72
647.00	25818.45
647.15	25977.61
647.30	25830.15
647.44	25841.85
647.59	26092.29
647.74	25813.77
647.88	26038.46
648.03	25792.70
648.17	25841.85
648.32	26408.26
648.47	26026.76
648.61	25762.28
648.76	26380.18
648.90	26031.44
649.05	25914.41
649.20	25986.97
649.34	25722.49
649.49	25509.50
649.63	25783.34
649.78	25411.20
649.92	25420.56
650.07	25926.11
650.21	25970.58
650.36	25556.31
650.51	25701.42
650.65	25671.00
650.80	25635.89
650.94	25617.16
651.09	25575.03
651.23	25460.35
651.38	25469.71
651.52	25408.86
651.67	25429.92
651.81	25439.28
651.96	25205.23
652.10	25467.37
652.25	25406.52
652.39	25736.53
652.54	25841.85
652.68	25207.57
652.83	25701.42
652.97	25287.15
653.12	25050.75
653.26	25200.55
653.41	25329.28
653.55	25366.73
653.70	25039.05
653.84	24870.53
653.99	24971.18
654.13	25074.16
654.27	25317.57
654.42	25020.33
654.56	25280.13
654.71	25205.23
654.85	25139.69
655.00	25090.54
655.14	25165.44
655.29	25032.03
655.43	25062.46
655.57	25095.22
655.72	24856.49
655.86	24683.29
656.01	24816.70
656.15	24620.10
656.30	24837.76
656.44	25020.33
656.58	24980.54
656.73	24559.24
656.87	25048.41
657.01	24641.16
657.16	25088.20
657.30	25008.62
657.45	24762.87
657.59	24659.88
657.73	24568.60
657.88	25127.99
658.02	24765.21
658.16	24503.07
658.31	24741.80
658.45	24432.85
658.60	24259.65
658.74	24580.31
658.88	24470.30
659.03	24339.23
659.17	24367.32
659.31	24491.37
659.46	24400.08
659.60	24474.98
659.74	24407.11
659.89	24460.94
660.03	24364.98
660.17	24465.62
660.32	24074.75
660.46	24308.80
660.60	23843.04
660.74	24589.67
660.89	24285.40
661.03	24144.97
661.17	24236.25
661.32	24156.67
661.46	24168.37
661.60	24081.77
661.74	24002.19
661.89	24210.50
662.03	24276.04
662.17	23777.50
662.31	23964.75
662.46	23948.36
662.60	23777.50
662.74	23873.46
662.88	23571.54
663.03	23339.82
663.17	23796.23
663.31	23351.52
663.45	23871.12
663.60	23632.39
663.74	23386.63
663.88	23482.59
664.02	23559.83
664.17	23445.15
664.31	23667.50
664.45	23241.52
664.59	23431.10
664.73	23143.22
664.88	22939.59
665.02	23171.30
665.16	23051.94
665.30	23393.65
665.44	23178.33
665.59	23007.47
665.73	23262.58
665.87	22551.06
666.01	23014.49
666.15	22864.69
666.29	23204.07
666.44	23126.83
666.58	22862.35
666.72	22815.54
666.86	22834.27
667.00	22733.62
667.14	22845.97
667.28	22890.44
667.43	22586.17
667.57	22822.56
667.71	22483.19
667.85	22766.39
667.99	22754.69
668.13	22534.68
668.27	22712.56
668.41	22824.90
668.56	22368.50
668.70	22862.35
668.84	22394.25
668.98	22429.35
669.12	22473.82
669.26	22537.02
669.40	22405.95
669.54	22462.12
669.68	22256.15
669.82	21830.18
669.96	21734.21
670.10	21858.26
670.25	22181.26
670.39	21923.80
670.53	21935.50
670.67	21837.20
670.81	22104.02
670.95	21914.44
671.09	22022.10
671.23	21671.02
671.37	21909.75
671.51	22040.82
671.65	21834.86
671.79	21624.21
671.93	21804.43
672.07	21504.84
672.21	21617.19
672.35	21458.03
672.49	21462.71
672.63	21118.65
672.77	21120.99
672.91	21390.16
673.05	21149.08
673.19	21432.29
673.33	21275.47
673.47	21451.01
673.61	21319.94
673.75	21010.99
673.89	21238.02
674.03	21064.82
674.17	21341.00
674.31	21071.84
674.45	20989.92
674.59	20982.90
674.73	20992.26
674.87	20893.96
675.01	20908.01
675.15	20730.12
675.29	20613.10
675.43	20538.20
675.56	20657.57
675.70	20947.79
675.84	20613.10
675.98	20039.67
676.12	20348.62
676.26	20456.28
676.40	20479.69
676.54	20601.40
676.68	20507.77
676.82	19674.54
676.96	20081.80
677.10	20112.22
677.23	19777.53
677.37	19578.58
677.51	19793.91
677.65	20013.92
677.79	19522.41
677.93	19964.77
678.07	19501.34
678.21	19389.00
678.34	19585.60
678.48	19651.14
678.62	19381.98
678.76	19007.49
678.90	19300.06
679.04	19580.92
679.18	19253.25
679.31	18820.25
679.45	18956.00
679.59	18801.52
679.73	18855.36
679.87	18956.00
680.00	18979.40
680.14	18527.68
680.28	18766.42
680.42	18609.60
680.56	18932.59
680.70	18494.91
680.83	18595.56
680.97	18401.29
681.11	18515.98
681.25	18623.64
681.39	18321.71
681.52	18195.32
681.66	18274.90
681.80	18050.21
681.94	18183.62
682.07	18326.39
682.21	18260.86
682.35	18132.13
682.49	17657.00
682.62	17860.63
682.76	17692.11
682.90	17785.73
683.04	17642.96
683.17	17661.68
683.31	17425.29
683.45	17813.82
683.59	17600.83
683.72	17362.09
683.86	17713.17
684.00	17427.63
684.13	17495.50
684.27	17167.83
684.41	17284.86
684.55	17163.15
684.68	17156.13
684.82	16800.37
684.96	16910.37
685.09	17139.74
685.23	16985.27
685.37	16730.15
685.50	16788.66
685.64	17048.46
685.78	16980.59
685.91	16664.61
686.05	16627.17
686.19	16393.11
686.32	16865.90
686.46	16257.36
686.60	16177.78
686.73	16292.47
686.87	16051.39
687.01	16137.99
687.14	16032.67
687.28	15857.13
687.42	15913.30
687.55	15833.72
687.69	16114.59
687.82	15892.24
687.96	15805.64
688.10	15992.88
688.23	15602.01
688.37	15845.43
688.50	15712.02
688.64	15597.33
688.78	15578.61
688.91	15428.81
689.05	15316.47
689.18	15208.80
689.32	14803.89
689.46	15360.94
689.59	15117.52
689.73	15143.27
689.86	15206.46
690.00	14906.87
690.13	15115.18
690.27	14925.60
690.41	15084.75
690.54	15002.83
690.68	15082.41
690.81	14764.10
690.95	14831.97
691.08	14745.38
691.22	14649.41
691.35	14909.21
691.49	14679.84
691.62	14691.54
691.76	14710.27
691.89	14347.48
692.03	14408.34
692.16	14155.56
692.30	13940.23
692.43	14277.27
692.57	14108.75
692.70	14132.15
692.84	13933.21
692.97	13994.06
693.11	14005.77
693.24	14043.21
693.38	13907.46
693.51	13689.79
693.65	13743.63
693.78	13589.15
693.92	13579.79
694.05	13490.85
694.19	13617.24
694.32	13422.97
694.45	13247.43
694.59	13263.82
694.72	13118.70
694.86	12861.24
694.99	12996.99
695.13	13064.87
695.26	13153.81
695.39	13156.15
695.53	13107.00
695.66	13006.36
695.80	13081.25
695.93	12847.20
696.07	12615.49
696.20	13015.72
696.33	12828.48
696.47	12711.45
696.60	12737.20
696.73	12493.78
696.87	12664.64
697.00	12329.94
697.14	12322.92
697.27	12128.66
697.40	12229.30
697.54	12210.57
697.67	12086.53
697.80	11925.03
697.94	11981.20
698.07	12002.27
698.21	12067.80
698.34	11873.54
698.47	11889.92
698.61	11836.09
698.74	11634.80
698.87	11735.45
699.01	11751.83
699.14	11620.76
699.27	11775.24
699.40	11751.83
699.54	11489.69
699.67	11400.75
699.80	11410.11
699.94	11363.30
700.07	11169.04
700.20	11337.56
700.34	11246.27
700.47	11236.91
700.60	11021.58
700.73	11248.61
700.87	10977.11
701.00	10977.11
701.13	11126.91
701.26	10745.40
701.40	11026.26
701.53	10848.38
701.66	10841.36
701.79	10815.62
701.93	10736.04
702.06	10670.50
702.19	10509.01
702.32	10340.49
702.46	10326.44
702.59	10361.55
702.72	10296.02
702.85	10251.55
702.99	10420.06
703.12	10326.44
703.25	10174.31
703.38	9956.64
703.51	10202.40
703.65	10092.39
703.78	10174.31
703.91	10003.45
704.04	9998.77
704.17	10097.07
704.31	10097.07
704.44	9795.14
704.57	9654.71
704.70	9771.74
704.83	9778.76
704.96	9643.01
705.10	9654.71
705.23	9352.78
>>>>>End Processed Spectral Data<<<<<
