SpectraSuite Data File
++++++++++++++++++++++++++++++++++++
Date: Fri Oct 18 13:58:25 GMT-05:00 2013
User: bianchi
Dark Spectrum Present: No
Reference Spectrum Present: No
Number of Sampled Component Spectra: 1
Spectrometers: USB2+H05261
Integration Time (usec): 50000 (USB2+H05261)
Spectra Averaged: 1 (USB2+H05261)
Boxcar Smoothing: 0 (USB2+H05261)
Correct for Electrical Dark: No (USB2+H05261)
Strobe/Lamp Enabled: No (USB2+H05261)
Correct for Detector Non-linearity: No (USB2+H05261)
Correct for Stray Light: No (USB2+H05261)
Number of Pixels in Processed Spectrum: 2048
>>>>>Begin Processed Spectral Data<<<<<
365.73	0.00
365.92	0.00
366.12	0.00
366.32	0.00
366.52	0.00
366.72	0.00
366.91	0.00
367.11	0.00
367.31	0.00
367.51	0.00
367.70	0.00
367.90	0.00
368.10	0.00
368.30	0.00
368.49	0.00
368.69	0.00
368.89	0.00
369.09	0.00
369.28	0.00
369.48	0.00
369.68	0.00
369.87	0.00
370.07	0.00
370.27	0.00
370.47	0.00
370.66	142.77
370.86	117.03
371.06	126.39
371.25	201.29
371.45	149.79
371.65	175.54
371.84	163.84
372.04	142.77
372.24	236.39
372.44	149.79
372.63	79.58
372.83	191.92
373.03	138.09
373.22	168.52
373.42	198.95
373.62	117.03
373.81	283.20
374.01	269.16
374.21	205.97
374.40	308.95
374.60	208.31
374.79	252.78
374.99	301.93
375.19	234.05
375.38	215.33
375.58	236.39
375.78	299.59
375.97	294.91
376.17	259.80
376.37	203.63
376.56	276.18
376.76	227.03
376.95	313.63
377.15	306.61
377.35	224.69
377.54	212.99
377.74	227.03
377.93	212.99
378.13	301.93
378.33	360.44
378.52	299.59
378.72	250.44
378.91	248.10
379.11	332.36
379.31	285.55
379.50	351.08
379.70	327.68
379.89	210.65
380.09	344.06
380.28	346.40
380.48	311.29
380.68	278.52
380.87	358.10
381.07	304.27
381.26	393.21
381.46	325.33
381.65	243.42
381.85	231.71
382.04	348.74
382.24	388.53
382.43	315.97
382.63	318.31
382.83	330.02
383.02	353.42
383.22	339.38
383.41	315.97
383.61	315.97
383.80	411.93
384.00	383.85
384.19	299.59
384.39	351.08
384.58	376.83
384.78	325.33
384.97	395.55
385.17	358.10
385.36	418.96
385.56	402.57
385.75	360.44
385.95	369.80
386.14	367.46
386.34	428.32
386.53	456.40
386.72	449.38
386.92	550.03
387.11	435.34
387.31	433.00
387.50	379.17
387.70	372.15
387.89	519.60
388.09	435.34
388.28	458.74
388.48	416.62
388.67	503.22
388.86	479.81
389.06	484.49
389.25	521.94
389.45	425.98
389.64	477.47
389.84	465.77
390.03	470.45
390.22	573.43
390.42	505.56
390.61	470.45
390.81	507.90
391.00	505.56
391.19	458.74
391.39	479.81
391.58	489.17
391.78	578.11
391.97	559.39
392.16	601.52
392.36	543.00
392.55	505.56
392.75	531.30
392.94	510.24
393.13	510.24
393.33	484.49
393.52	561.73
393.71	533.64
393.91	620.24
394.10	594.50
394.29	585.13
394.49	596.84
394.68	547.69
394.88	535.98
395.07	606.20
395.26	688.12
395.46	559.39
395.65	662.37
395.84	622.58
396.04	631.94
396.23	676.41
396.42	636.63
396.62	645.99
396.81	610.88
397.00	634.29
397.19	575.77
397.39	638.97
397.58	643.65
397.77	599.18
397.97	737.27
398.16	641.31
398.35	685.78
398.55	692.80
398.74	678.76
398.93	741.95
399.12	594.50
399.32	795.78
399.51	674.07
399.70	753.65
399.90	765.36
400.09	741.95
400.28	795.78
400.47	704.50
400.67	767.70
400.86	763.01
401.05	760.67
401.24	779.40
401.44	805.14
401.63	763.01
401.82	795.78
402.01	816.85
402.21	802.80
402.40	795.78
402.59	835.57
402.78	884.72
402.97	805.14
403.17	870.68
403.36	856.64
403.55	814.51
403.74	779.40
403.93	847.27
404.13	912.81
404.32	926.85
404.51	791.10
404.70	1004.09
404.89	957.28
405.09	919.83
405.28	954.94
405.47	863.66
405.66	929.19
405.85	947.92
406.05	938.55
406.24	898.77
406.43	987.71
406.62	971.32
406.81	1067.28
407.00	915.15
407.20	1046.22
407.39	999.41
407.58	1111.75
407.77	1156.22
407.96	999.41
408.15	1053.24
408.34	1064.94
408.54	1093.03
408.73	1172.61
408.92	1153.88
409.11	1135.16
409.30	1097.71
409.49	1116.44
409.68	1069.62
409.87	1217.08
410.07	1146.86
410.26	1245.16
410.45	1170.27
410.64	1198.35
410.83	1226.44
411.02	1163.25
411.21	1128.14
411.40	1256.87
411.59	1261.55
411.78	1193.67
411.98	1291.98
412.17	1219.42
412.36	1275.59
412.55	1282.61
412.74	1420.71
412.93	1366.87
413.12	1373.89
413.31	1409.00
413.50	1369.21
413.69	1441.77
413.88	1444.11
414.07	1406.66
414.26	1385.60
414.45	1460.49
414.64	1493.26
414.83	1535.39
415.02	1481.56
415.22	1689.87
415.41	1561.14
415.60	1612.63
415.79	1568.16
415.98	1643.06
416.17	1591.56
416.36	1554.12
416.55	1497.94
416.74	1652.42
416.93	1680.50
417.12	1746.04
417.31	1741.36
417.50	1675.82
417.69	1776.47
417.88	1753.06
418.07	1769.44
418.26	1739.02
418.45	1706.25
418.64	1778.81
418.83	1727.32
419.02	1813.92
419.21	1781.15
419.39	1863.07
419.58	1760.08
419.77	1865.41
419.96	1809.23
420.15	1884.13
420.34	1842.00
420.53	1879.45
420.72	2001.16
420.91	1973.07
421.10	2001.16
421.29	1982.43
421.48	1860.73
421.67	1937.96
421.86	1921.58
422.05	1996.48
422.24	1968.39
422.43	1947.33
422.61	1949.67
422.80	1977.75
422.99	2052.65
423.18	1975.41
423.37	1982.43
423.56	2019.88
423.75	1968.39
423.94	2008.18
424.13	1804.55
424.32	1788.17
424.50	2085.42
424.69	2160.31
424.88	2125.21
425.07	2040.95
425.26	1994.14
425.45	2036.27
425.64	2043.29
425.83	1933.28
426.01	2040.95
426.20	2078.40
426.39	1998.82
426.58	2012.86
426.77	2008.18
426.96	2057.33
427.15	2064.35
427.33	2090.10
427.52	2090.10
427.71	2148.61
427.90	2132.23
428.09	2188.40
428.28	2230.53
428.46	2136.91
428.65	2062.01
428.84	2183.72
429.03	2214.15
429.22	2197.76
429.40	2204.78
429.59	2211.81
429.78	2101.80
429.97	2118.18
430.16	2193.08
430.34	2284.36
430.53	2347.56
430.72	2450.54
430.91	2305.43
431.10	2359.26
431.28	2368.62
431.47	2424.80
431.66	2448.20
431.85	2352.24
432.03	2466.92
432.22	2436.50
432.41	2466.92
432.60	2471.61
432.79	2485.65
432.97	2473.95
433.16	2459.90
433.35	2480.97
433.54	2471.61
433.72	2665.87
433.91	2590.97
434.10	2473.95
434.28	2539.48
434.47	2424.80
434.66	2656.51
434.85	2675.23
435.03	2525.44
435.22	2548.84
435.41	2612.04
435.59	2658.85
435.78	2581.61
435.97	2647.15
436.16	2502.03
436.34	2647.15
436.53	2616.72
436.72	2810.98
436.90	2672.89
437.09	2829.71
437.28	2656.51
437.46	2698.64
437.65	2684.59
437.84	2726.72
438.02	2785.24
438.21	2843.75
438.40	2806.30
438.58	2899.92
438.77	2839.07
438.96	2836.73
439.14	2991.20
439.33	2937.37
439.52	2946.73
439.70	2925.67
439.89	2949.08
440.08	3033.33
440.26	3098.87
440.45	3098.87
440.63	2998.23
440.82	3143.34
441.01	3122.27
441.19	3201.85
441.38	3180.79
441.57	3201.85
441.75	3173.77
441.94	3236.96
442.12	3267.39
442.31	3246.32
442.50	3297.81
442.68	3318.88
442.87	3314.20
443.05	3262.71
443.24	3335.26
443.43	3187.81
443.61	3417.18
443.80	3489.74
443.98	3293.13
444.17	3178.45
444.35	3466.33
444.54	3459.31
444.73	3435.91
444.91	3548.25
445.10	3342.28
445.28	3428.88
445.47	3564.64
445.65	3349.31
445.84	3405.48
446.02	3459.31
446.21	3353.99
446.39	3365.69
446.58	3447.61
446.77	3428.88
446.95	3445.27
447.14	3396.12
447.32	3485.06
447.51	3478.04
447.69	3543.57
447.88	3520.17
448.06	3576.34
448.25	3669.96
448.43	3571.66
448.62	3410.16
448.80	3475.70
448.99	3527.19
449.17	3522.51
449.36	3630.17
449.54	3665.28
449.73	3667.62
449.91	3665.28
450.10	3606.77
450.28	3803.37
450.46	3801.03
450.65	3786.99
450.83	3786.99
451.02	3735.50
451.20	3763.58
451.39	3786.99
451.57	3908.69
451.76	3712.09
451.94	3833.80
452.13	3798.69
452.31	3957.85
452.49	3833.80
452.68	3735.50
452.86	4014.02
453.05	3894.65
453.23	3967.21
453.42	3857.20
453.60	3918.06
453.78	3953.16
453.97	3929.76
454.15	3899.33
454.34	4002.32
454.52	3988.27
454.70	4117.00
454.89	4046.79
455.07	3992.95
455.26	3918.06
455.44	4053.81
455.62	4086.58
455.81	4166.15
455.99	4168.49
456.17	4030.40
456.36	4140.41
456.54	4374.46
456.73	4159.13
456.91	4311.27
457.09	4173.18
457.28	4341.69
457.46	4140.41
457.64	4458.72
457.83	4252.75
458.01	4290.20
458.19	4517.23
458.38	4407.23
458.56	4393.19
458.74	4444.68
458.93	4493.83
459.11	4510.21
459.29	4428.29
459.48	4526.60
459.66	4550.00
459.84	4437.66
460.03	4533.62
460.21	4528.94
460.39	4447.02
460.57	4510.21
460.76	4498.51
460.94	4580.43
461.12	4582.77
461.31	4437.66
461.49	4519.57
461.67	4444.68
461.85	4933.85
462.04	4657.67
462.22	4812.14
462.40	4667.03
462.59	4699.80
462.77	4765.33
462.95	4837.89
463.13	4887.04
463.32	4938.53
463.50	4828.53
463.68	4660.01
463.86	4840.23
464.05	4774.69
464.23	4816.82
464.41	4957.25
464.59	4837.89
464.78	4882.36
464.96	4870.65
465.14	5011.09
465.32	4905.76
465.50	4905.76
465.69	5064.92
465.87	4929.17
466.05	5041.51
466.23	4943.21
466.41	5104.71
466.60	5160.88
466.78	5020.45
466.96	4966.62
467.14	5060.24
467.32	4971.30
467.51	5125.77
467.69	5123.43
467.87	5214.71
468.05	5139.82
468.23	5130.45
468.41	5210.03
468.60	5041.51
468.78	5238.12
468.96	5261.52
469.14	5371.53
469.32	5123.43
469.50	5263.86
469.69	5399.62
469.87	5605.58
470.05	5472.17
470.23	5444.09
470.41	5448.77
470.59	5352.81
470.77	5521.32
470.95	5495.58
471.14	5483.88
471.32	5338.76
471.50	5640.69
471.68	5495.58
471.86	5568.13
472.04	5675.80
472.22	5675.80
472.40	5694.52
472.58	5717.93
472.77	5839.64
472.95	5755.38
473.13	5919.21
473.31	5823.25
473.49	6026.88
473.67	5830.27
473.85	5944.96
474.03	5996.45
474.21	5987.09
474.39	6221.14
474.57	5963.68
474.75	6181.35
474.93	6078.37
475.12	6085.39
475.30	6204.76
475.48	6380.30
475.66	6223.48
475.84	6232.85
476.02	6394.34
476.20	6244.55
476.38	6436.47
476.56	6480.94
476.74	6466.90
476.92	6363.92
477.10	6504.35
477.28	6698.61
477.46	6628.40
477.64	6839.05
477.82	6897.56
478.00	6942.03
478.18	6951.39
478.36	6883.52
478.54	7084.80
478.72	7349.28
478.90	7194.81
479.08	7220.55
479.26	7293.11
479.44	7321.20
479.62	7246.30
479.80	7152.68
479.98	7426.52
480.16	7625.47
480.34	7475.67
480.52	7557.59
480.70	7557.59
480.88	7536.52
481.06	7630.15
481.24	7728.45
481.41	7602.06
481.59	7911.01
481.77	7878.24
481.95	7941.44
482.13	8226.98
482.31	8060.80
482.49	8194.22
482.67	8194.22
482.85	8358.05
483.03	8418.91
483.21	8461.04
483.39	8760.63
483.57	8594.45
483.74	8596.79
483.92	8807.44
484.10	8648.28
484.28	9102.34
484.46	8968.93
484.64	9132.77
484.82	9025.11
485.00	8863.61
485.18	9139.79
485.35	9341.08
485.53	9287.25
485.71	9359.80
485.89	9748.33
486.07	9350.44
486.25	9659.39
486.43	9568.11
486.61	9689.82
486.78	9834.93
486.96	10132.18
487.14	10178.99
487.32	10015.15
487.50	10052.60
487.68	10202.40
487.85	10277.29
488.03	10150.90
488.21	10504.32
488.39	10593.26
488.57	10626.03
488.75	10820.30
488.92	10986.47
489.10	10974.77
489.28	10778.17
489.46	11265.00
489.64	10911.58
489.81	11335.21
489.99	11185.42
490.17	11323.51
490.35	11637.14
490.53	11463.94
490.70	11616.08
490.88	11569.27
491.06	11726.08
491.24	11906.31
491.41	11784.60
491.59	11805.66
491.77	12018.65
491.95	12067.80
492.13	12266.75
492.30	12189.51
492.48	12425.90
492.66	12217.60
492.84	12395.48
493.01	12411.86
493.19	12613.15
493.37	12814.43
493.54	12886.99
493.72	12840.18
493.90	12805.07
494.08	12886.99
494.25	12936.14
494.43	13114.02
494.61	13331.69
494.79	13710.86
494.96	13301.26
495.14	13493.19
495.32	13528.30
495.49	13853.63
495.67	13804.48
495.85	13884.06
496.02	13720.22
496.20	13870.01
496.38	14157.90
496.55	13888.74
496.73	14352.16
496.91	14073.64
497.09	14293.65
497.26	14230.46
497.44	14307.69
497.62	14445.79
497.79	14728.99
497.97	14703.25
498.14	14766.44
498.32	14782.82
498.50	14925.60
498.67	14946.66
498.85	14967.73
499.03	15005.17
499.20	15264.97
499.38	15061.35
499.56	15351.57
499.73	15344.55
499.91	15159.65
500.08	15393.70
500.26	15316.47
500.44	15337.53
500.61	15513.07
500.79	15442.85
500.97	15704.99
501.14	15735.42
501.32	15946.07
501.49	15630.10
501.67	15637.12
501.84	16095.86
502.02	15974.16
502.20	16074.80
502.37	16297.15
502.55	16259.70
502.72	16170.76
502.90	16336.94
503.07	16327.58
503.25	16173.10
503.43	16215.23
503.60	16472.69
503.78	16362.69
503.95	16582.70
504.13	16631.85
504.30	16627.17
504.48	16505.46
504.65	16940.80
504.83	17015.69
505.01	16936.12
505.18	17099.95
505.36	17355.07
505.53	16931.44
505.71	17064.85
505.88	17149.11
506.06	16734.83
506.23	17046.12
506.41	17252.09
506.58	17357.41
506.76	17469.76
506.93	17380.82
507.11	17504.87
507.28	17355.07
507.46	17558.70
507.63	17673.39
507.81	17914.46
507.98	17893.40
508.16	17727.22
508.33	17659.34
508.50	17874.67
508.68	17745.94
508.85	18298.31
509.03	18113.41
509.20	17928.50
509.38	18082.98
509.55	18237.45
509.73	18380.23
509.90	18061.91
510.08	18466.83
510.25	18209.37
510.42	18361.50
510.60	18799.18
510.77	18649.39
510.95	18848.33
511.12	18843.65
511.30	18424.70
511.47	18743.01
511.64	18712.58
511.82	18855.36
511.99	18932.59
512.17	19124.52
512.34	19108.13
512.51	19035.58
512.69	19143.24
512.86	19005.15
513.04	19461.55
513.21	19253.25
513.38	19370.27
513.56	19452.19
513.73	19468.58
513.90	19297.72
514.08	19239.20
514.25	19618.37
514.43	19688.59
514.60	19597.31
514.77	19491.98
514.95	19871.15
515.12	19711.99
515.29	19948.39
515.47	19946.05
515.64	20032.65
515.81	19836.04
515.99	20039.67
516.16	20519.48
516.33	19840.72
516.51	20348.62
516.68	20355.64
516.85	20079.46
517.03	20229.25
517.20	20716.08
517.37	20346.28
517.54	20608.42
517.72	20460.96
517.89	20594.37
518.06	20475.01
518.24	20709.06
518.41	20666.93
518.58	20734.81
518.75	20746.51
518.93	20882.26
519.10	20613.10
519.27	20695.02
519.45	20905.66
519.62	20809.70
519.79	20982.90
519.96	20893.96
520.14	20992.26
520.31	21008.65
520.48	21120.99
520.65	21097.59
520.83	21376.11
521.00	21678.04
521.17	21137.38
521.34	21050.78
521.52	21111.63
521.69	21371.43
521.86	21565.70
522.03	21561.02
522.20	21823.16
522.38	21619.53
522.55	21736.56
522.72	21568.04
522.89	22043.17
523.07	21905.07
523.24	21984.65
523.41	21844.22
523.58	21902.73
523.75	22319.35
523.92	21891.03
524.10	21935.50
524.27	22281.90
524.44	22405.95
524.61	22597.87
524.78	22349.78
524.96	22672.77
525.13	22361.48
525.30	22527.66
525.47	22602.55
525.64	22483.19
525.81	22452.76
525.98	22635.32
526.16	22829.59
526.33	22675.11
526.50	23054.28
526.67	22546.38
526.84	22944.27
527.01	22412.97
527.18	22721.92
527.36	22623.62
527.53	22995.76
527.70	23180.67
527.87	23037.89
528.04	23161.94
528.21	23440.47
528.38	23065.98
528.55	23044.91
528.72	23297.69
528.89	23367.91
529.07	23236.84
529.24	23386.63
529.41	23569.19
529.58	23435.78
529.75	23363.23
529.92	23730.69
530.09	23543.45
530.26	23812.61
530.43	23723.67
530.60	23875.80
530.77	23630.05
530.94	23583.24
531.11	23398.34
531.28	23789.20
531.46	23864.10
531.63	23838.36
531.80	23772.82
531.97	24009.22
532.14	23857.08
532.31	24278.38
532.48	24020.92
532.65	24025.60
532.82	24381.36
532.99	24233.91
533.16	23985.81
533.33	24425.83
533.50	24390.72
533.67	24201.14
533.84	24322.85
534.01	24175.39
534.18	24334.55
534.35	24261.99
534.52	24393.06
534.69	24388.38
534.86	24414.13
535.03	24615.41
535.20	24645.84
535.37	24678.61
535.54	24760.53
535.71	24479.66
535.88	24643.50
536.05	24645.84
536.22	24900.96
536.38	24980.54
536.55	25010.96
536.72	24774.57
536.89	24819.04
537.06	24463.28
537.23	24872.87
537.40	24517.11
537.57	25125.65
537.74	25137.35
537.91	25357.36
538.08	25394.81
538.25	25340.98
538.42	25008.62
538.59	25474.39
538.75	24964.15
538.92	25502.48
539.09	25282.47
539.26	25439.28
539.43	25446.30
539.60	25460.35
539.77	25680.36
539.94	25500.14
540.11	25722.49
540.28	25453.33
540.44	25502.48
540.61	25544.61
540.78	25268.42
540.95	25490.77
541.12	25453.33
541.29	25727.17
541.46	25970.58
541.62	25837.17
541.79	25450.99
541.96	25436.94
542.13	26120.38
542.30	26036.12
542.47	25949.52
542.63	25841.85
542.80	25951.86
542.97	26356.77
543.14	26457.42
543.31	25666.31
543.48	26143.78
543.64	26335.71
543.81	26192.94
543.98	26359.11
544.15	26422.31
544.32	26316.98
544.48	26859.99
544.65	26295.92
544.82	26469.12
544.99	25839.51
545.16	26401.24
545.32	26312.30
545.49	26909.14
545.66	26794.45
545.83	26614.23
546.00	26354.43
546.16	26335.71
546.33	26700.83
546.50	26192.94
546.67	26656.36
546.83	26789.77
547.00	26707.85
547.17	27077.66
547.34	27147.87
547.50	27314.05
547.67	27201.71
547.84	27147.87
548.00	26934.88
548.17	27175.96
548.34	27143.19
548.51	27136.17
548.67	27304.69
548.84	26918.50
549.01	27278.94
549.18	27005.10
549.34	27255.54
549.51	26972.33
549.68	27292.99
549.84	27133.83
550.01	27435.76
550.18	27264.90
550.34	27487.25
550.51	27342.14
550.68	27515.34
550.84	27171.28
551.01	27187.66
551.18	27175.96
551.34	27056.59
551.51	27168.94
551.68	27307.03
551.84	27475.55
552.01	27227.45
552.18	27761.09
552.34	27419.38
552.51	27793.86
552.68	27517.68
552.84	27615.98
553.01	27763.43
553.18	28154.30
553.34	27740.03
553.51	27784.50
553.67	27807.90
553.84	27931.95
554.01	27950.68
554.17	27903.87
554.34	27826.63
554.51	27590.24
554.67	27690.88
554.84	28196.43
555.00	27779.82
555.17	28084.09
555.33	28400.06
555.50	28198.77
555.67	27620.66
555.83	28130.90
556.00	28004.51
556.16	28521.77
556.33	28196.43
556.50	28037.28
556.66	28229.20
556.83	28065.36
556.99	28432.83
557.16	28383.68
557.32	28327.50
557.49	28306.44
557.65	28224.52
557.82	28418.78
557.98	28208.14
558.15	28297.08
558.32	28484.32
558.48	28608.37
558.65	28201.11
558.81	28285.37
558.98	28194.09
559.14	28346.23
559.31	28519.43
559.47	28105.15
559.64	28622.41
559.80	28699.65
559.97	28858.81
560.13	28556.88
560.30	28744.12
560.46	28697.31
560.63	28884.55
560.79	28489.00
560.96	28657.52
561.12	28130.90
561.29	28547.51
561.45	28531.13
561.61	28982.85
561.78	28842.42
561.94	28814.34
562.11	28701.99
562.27	29151.37
562.44	28748.80
562.60	28999.24
562.77	28514.75
562.93	28826.04
563.10	29165.42
563.26	28758.16
563.42	29055.41
563.59	28940.72
563.75	28910.30
563.92	28830.72
564.08	28591.98
564.24	29142.01
564.41	28793.27
564.57	28926.68
564.74	28896.25
564.90	29081.16
565.07	29097.54
565.23	29177.12
565.39	28971.15
565.56	29156.05
565.72	28936.04
565.88	29390.11
566.05	29125.63
566.21	28992.22
566.38	29013.28
566.54	29013.28
566.70	29289.46
566.87	29575.01
567.03	29303.51
567.19	29537.56
567.36	29322.23
567.52	28926.68
567.68	29336.27
567.85	29312.87
568.01	29158.39
568.17	29170.10
568.34	29383.09
568.50	29383.09
568.66	29237.97
568.83	29235.63
568.99	29144.35
569.15	29261.38
569.32	29308.19
569.48	28936.04
569.64	29252.02
569.81	29296.49
569.97	29380.74
570.13	29591.39
570.30	29062.43
570.46	29448.62
570.62	29385.43
570.78	29392.45
570.95	29111.58
571.11	29394.79
571.27	29495.43
571.43	29200.52
571.60	29352.66
571.76	29174.78
571.92	29525.86
572.09	29546.92
572.25	29488.41
572.41	29446.28
572.57	29127.97
572.74	29406.49
572.90	29359.68
573.06	29411.17
573.22	29556.28
573.38	29359.68
573.55	29326.91
573.71	29820.77
573.87	29600.76
574.03	29738.85
574.20	29769.27
574.36	29495.43
574.52	29172.44
574.68	29584.37
574.84	29523.52
575.01	29565.65
575.17	29404.15
575.33	29668.63
575.49	29497.77
575.65	29511.81
575.82	29888.64
575.98	29338.62
576.14	29640.54
576.30	29788.00
576.46	29839.49
576.62	29149.03
576.79	29654.59
576.95	29659.27
577.11	29912.05
577.27	29663.95
577.43	29589.05
577.59	29593.73
577.75	29465.00
577.92	29778.64
578.08	29537.56
578.24	29273.08
578.40	29404.15
578.56	29816.08
578.72	29865.24
578.88	30015.03
579.04	29921.41
579.21	29638.20
579.37	29860.55
579.53	29663.95
579.69	29844.17
579.85	29509.47
580.01	29495.43
580.17	29427.56
580.33	29811.40
580.49	29692.04
580.65	29788.00
580.82	29883.96
580.98	29963.54
581.14	29724.80
581.30	29895.66
581.46	29600.76
581.62	29645.23
581.78	29785.66
581.94	29731.83
582.10	29668.63
582.26	29769.27
582.42	29567.99
582.58	29956.52
582.74	30047.80
582.90	29851.19
583.06	29928.43
583.22	29855.87
583.38	29558.63
583.54	29888.64
583.70	29584.37
583.86	30197.59
584.02	30033.75
584.18	30139.08
584.34	29755.23
584.50	30213.98
584.66	29610.12
584.82	29724.80
584.98	29755.23
585.14	29961.20
585.30	29621.82
585.46	29558.63
585.62	29528.20
585.78	29933.11
585.94	29642.88
586.10	29937.79
586.26	29912.05
586.42	30302.92
586.58	29926.09
586.74	29717.78
586.90	29888.64
587.06	29785.66
587.22	29692.04
587.38	29628.84
587.54	30368.45
587.70	30094.61
587.86	30019.71
588.02	30213.98
588.18	29813.74
588.34	30143.76
588.49	29921.41
588.65	29713.10
588.81	29699.06
588.97	29792.68
589.13	29879.28
589.29	29715.44
589.45	30096.95
589.61	29670.97
589.77	30162.48
589.93	30291.21
590.08	30370.79
590.24	29954.18
590.40	30162.48
590.56	30249.08
590.72	29600.76
590.88	29818.42
591.04	30237.38
591.20	30359.09
591.35	30164.82
591.51	30670.38
591.67	30452.71
591.83	30740.60
591.99	29993.97
592.15	30096.95
592.31	30485.48
592.46	30099.29
592.62	29951.84
592.78	30010.35
592.94	30000.99
593.10	30108.65
593.26	30340.36
593.41	30759.32
593.57	30164.82
593.73	30291.21
593.89	30614.21
594.05	30087.59
594.20	30054.82
594.36	30263.13
594.52	30029.07
594.68	29982.26
594.84	29832.47
594.99	30532.29
595.15	30132.06
595.31	30265.47
595.47	30543.99
595.62	31108.06
595.78	30103.97
595.94	30232.70
596.10	30408.24
596.25	30005.67
596.41	30199.93
596.57	30136.74
596.73	30286.53
596.88	30485.48
597.04	30878.69
597.20	30347.39
597.36	30719.53
597.51	30558.03
597.67	30431.65
597.83	30246.74
597.99	30483.14
598.14	30181.21
598.30	29989.28
598.46	30249.08
598.61	30401.22
598.77	30216.32
598.93	30391.86
599.09	30448.03
599.24	30698.47
599.40	30319.30
599.56	30373.13
599.71	30469.09
599.87	30766.34
600.03	30368.45
600.18	30527.61
600.34	30532.29
600.50	30202.27
600.65	30129.72
600.81	30485.48
600.97	30672.72
601.12	30895.07
601.28	30565.06
601.44	30452.71
601.59	30373.13
601.75	30623.57
601.91	30417.60
602.06	30401.22
602.22	30485.48
602.37	30410.58
602.53	30183.55
602.69	30380.15
602.84	30740.60
603.00	30721.87
603.16	30281.85
603.31	30424.62
603.47	30529.95
603.62	30096.95
603.78	30127.38
603.94	30162.48
604.09	30384.83
604.25	30183.55
604.40	30494.84
604.56	30543.99
604.71	30382.49
604.87	30110.99
605.03	30661.02
605.18	30600.16
605.34	30192.91
605.49	30181.21
605.65	30183.55
605.80	29979.92
605.96	30183.55
606.12	30167.16
606.27	30221.00
606.43	30298.23
606.58	30314.62
606.74	30232.70
606.89	30307.60
607.05	30565.06
607.20	30450.37
607.36	29972.90
607.51	30167.16
607.67	30228.02
607.82	30113.33
607.98	30431.65
608.13	30270.15
608.29	30160.14
608.44	30415.26
608.60	29956.52
608.75	30663.36
608.91	30258.45
609.06	30015.03
609.22	30298.23
609.37	29827.79
609.53	29982.26
609.68	30019.71
609.84	29855.87
609.99	29813.74
610.15	30286.53
610.30	30487.82
610.46	30094.61
610.61	30150.78
610.76	30103.97
610.92	30302.92
611.07	30206.95
611.23	30323.98
611.38	29942.47
611.54	29741.19
611.69	29762.25
611.84	29560.97
612.00	30157.80
612.15	29685.01
612.31	29869.92
612.46	29799.70
612.62	30106.31
612.77	30094.61
612.92	30150.78
613.08	30127.38
613.23	29846.51
613.39	30036.09
613.54	29656.93
613.69	29986.94
613.85	30040.78
614.00	29745.87
614.15	29975.24
614.31	29654.59
614.46	29731.83
614.62	29769.27
614.77	29677.99
614.92	29582.03
615.08	29848.85
615.23	29806.72
615.38	29699.06
615.54	29734.17
615.69	29336.27
615.84	29731.83
616.00	29797.36
616.15	29113.92
616.30	29930.77
616.46	29434.58
616.61	29376.06
616.76	29907.37
616.92	29483.73
617.07	29738.85
617.22	29338.62
617.37	29357.34
617.53	29544.58
617.68	29600.76
617.83	29291.80
617.99	29476.71
618.14	28833.06
618.29	29331.59
618.45	29619.48
618.60	29392.45
618.75	29139.67
618.90	29322.23
619.06	29376.06
619.21	28968.81
619.36	29273.08
619.51	29259.04
619.67	29067.11
619.82	29104.56
619.97	29347.98
620.12	29331.59
620.28	28924.34
620.43	29312.87
620.58	29551.60
620.73	29149.03
620.89	29364.36
621.04	29495.43
621.19	29448.62
621.34	29270.74
621.49	28716.03
621.65	29207.55
621.80	28552.20
621.95	29170.10
622.10	28973.49
622.25	28922.00
622.41	28739.44
622.56	28809.65
622.71	29134.99
622.86	29041.37
623.01	29303.51
623.16	28514.75
623.32	28664.54
623.47	28627.09
623.62	29017.96
623.77	28435.17
623.92	28746.46
624.07	28730.08
624.23	28645.82
624.38	28580.28
624.53	28758.16
624.68	28606.03
624.83	28996.90
624.98	28886.89
625.13	28535.81
625.29	29027.32
625.44	28936.04
625.59	28339.21
625.74	28856.46
625.89	28811.99
626.04	28510.07
626.19	28786.25
626.34	28367.29
626.49	28339.21
626.65	28360.27
626.80	28182.39
626.95	28772.21
627.10	28542.83
627.25	28491.34
627.40	28521.77
627.55	28425.81
627.70	28322.82
627.85	28084.09
628.00	28070.04
628.15	28254.95
628.30	28453.89
628.45	27985.79
628.60	28423.47
628.76	28343.89
628.91	27953.02
629.06	27908.55
629.21	28088.77
629.36	27960.04
629.51	28119.20
629.66	28044.30
629.81	28149.62
629.96	28163.67
630.11	27578.53
630.26	28112.17
630.41	28147.28
630.56	27955.36
630.71	27962.38
630.86	27800.88
631.01	27967.06
631.16	27875.78
631.31	27892.16
631.46	27859.40
631.61	27957.70
631.76	28048.98
631.91	27819.61
632.06	27562.15
632.21	27501.29
632.36	27534.06
632.51	27840.67
632.66	27796.20
632.81	27676.83
632.96	27639.39
633.10	27784.50
633.25	27868.76
633.40	27901.53
633.55	27927.27
633.70	27573.85
633.85	27278.94
634.00	27391.29
634.15	27419.38
634.30	27833.65
634.45	27707.26
634.60	27428.74
634.75	27716.62
634.90	27395.97
635.05	27845.35
635.19	27562.15
635.34	27901.53
635.49	27651.09
635.64	27503.64
635.79	27709.60
635.94	27426.40
636.09	27435.76
636.24	27339.80
636.39	27377.25
636.53	27271.92
636.68	27243.84
636.83	27475.55
636.98	27316.39
637.13	27112.77
637.28	27075.32
637.43	27784.50
637.57	27426.40
637.72	27129.15
637.87	27222.77
638.02	27269.58
638.17	27292.99
638.32	27096.38
638.46	26878.71
638.61	26941.91
638.76	27108.08
638.91	27023.83
639.06	27077.66
639.20	27215.75
639.35	27065.96
639.50	27040.21
639.65	27529.38
639.80	27297.67
639.94	26897.44
640.09	27075.32
640.24	27215.75
640.39	26972.33
640.54	26787.43
640.68	26740.62
640.83	27009.78
640.98	26602.53
641.13	27077.66
641.27	26710.19
641.42	26710.19
641.57	26852.97
641.72	27033.19
641.86	26630.62
642.01	26925.52
642.16	26637.64
642.31	26237.41
642.45	26892.76
642.60	26302.94
642.75	26265.49
642.90	26181.23
643.04	26352.09
643.19	26302.94
643.34	26459.76
643.48	26291.24
643.63	26422.31
643.78	26419.97
643.93	26731.26
644.07	26391.88
644.22	26415.29
644.37	26316.98
644.51	26525.29
644.66	26396.56
644.81	26256.13
644.95	26221.02
645.10	26106.34
645.25	26146.12
645.39	26450.39
645.54	26272.51
645.69	26431.67
645.83	26178.89
645.98	26291.24
646.13	26288.90
646.27	26639.98
646.42	26260.81
646.57	26354.43
646.71	26370.82
646.86	26487.84
647.00	26319.32
647.15	26265.49
647.30	26377.84
647.44	26115.70
647.59	26125.06
647.74	25982.29
647.88	26164.85
648.03	26429.33
648.17	26022.08
648.32	26206.98
648.47	26059.52
648.61	25837.17
648.76	26483.16
648.90	26066.55
649.05	26038.46
649.20	25979.95
649.34	25692.06
649.49	25678.02
649.63	26008.03
649.78	25755.26
649.92	26190.59
650.07	25851.22
650.21	25954.20
650.36	25788.02
650.51	25961.22
650.65	25738.87
650.80	25965.90
650.94	25776.32
651.09	25771.64
651.23	25539.93
651.38	25530.56
651.52	25640.57
651.67	25537.59
651.81	25858.24
651.96	25331.62
652.10	25614.82
652.25	25399.49
652.39	25830.15
652.54	25673.34
652.68	25851.22
652.83	25378.43
652.97	25486.09
653.12	25741.21
653.26	25256.72
653.41	25462.69
653.55	25212.25
653.70	25205.23
653.84	25284.81
653.99	25165.44
654.13	25156.08
654.27	25078.84
654.42	25378.43
654.56	25497.80
654.71	25329.28
654.85	25249.70
655.00	25324.60
655.14	25413.54
655.29	25376.09
655.43	25235.66
655.57	25188.85
655.72	25116.29
655.86	24973.52
656.01	25338.64
656.15	25205.23
656.30	25317.57
656.44	24861.17
656.58	24978.20
656.73	24980.54
656.87	25127.99
657.01	25120.97
657.16	25186.50
657.30	25230.98
657.45	25282.47
657.59	25034.37
657.73	24858.83
657.88	24868.19
658.02	24912.66
658.16	24943.09
658.31	24554.56
658.45	24851.81
658.60	24460.94
658.74	24702.01
658.88	24875.21
659.03	24734.78
659.17	24634.14
659.31	24823.72
659.46	24978.20
659.60	24659.88
659.74	24741.80
659.89	24503.07
660.03	24641.16
660.17	24460.94
660.32	24407.11
660.46	24409.45
660.60	24400.08
660.74	24229.23
660.89	24552.22
661.03	23917.93
661.17	24088.79
661.32	24217.52
661.46	24247.95
661.60	24236.25
661.74	24222.20
661.89	24554.56
662.03	24355.61
662.17	24063.05
662.31	23847.72
662.46	24329.87
662.60	23985.81
662.74	23974.11
662.88	23999.85
663.03	23859.42
663.17	23522.38
663.31	23548.13
663.45	23763.46
663.60	23665.16
663.74	23538.77
663.88	23658.14
664.02	23922.62
664.17	23552.81
664.31	23611.32
664.45	23594.94
664.59	23503.66
664.73	23311.74
664.88	23594.94
665.02	23101.09
665.16	23669.84
665.30	23009.81
665.44	23234.50
665.59	22897.46
665.73	23136.20
665.87	23152.58
666.01	22967.68
666.15	23534.09
666.29	23206.41
666.44	23660.48
666.58	23246.20
666.72	22860.01
666.86	22986.40
667.00	23241.52
667.14	22838.95
667.28	22808.52
667.43	23124.49
667.57	22806.18
667.71	22661.07
667.85	22663.41
667.99	22677.45
668.13	22593.19
668.27	22705.54
668.41	22476.16
668.56	22621.28
668.70	22595.53
668.84	22766.39
668.98	22445.74
669.12	22530.00
669.26	22473.82
669.40	22618.94
669.54	22658.73
669.68	22902.14
669.82	22272.54
669.96	22064.23
670.10	22155.51
670.25	22314.67
670.39	22111.04
670.53	22267.86
670.67	21998.70
670.81	22136.79
670.95	22361.48
671.09	22300.62
671.23	21912.10
671.37	21994.01
671.51	22022.10
671.65	22132.11
671.79	21958.91
671.93	21968.27
672.07	21619.53
672.21	21762.30
672.35	21287.17
672.49	21600.80
672.63	21429.94
672.77	21645.27
672.91	21429.94
673.05	21546.97
673.19	21785.71
673.33	21259.09
673.47	21436.97
673.61	21645.27
673.75	21582.08
673.89	21216.96
674.03	21198.23
674.17	21460.37
674.31	21153.76
674.45	20978.22
674.59	21228.66
674.73	20877.58
674.87	21275.47
675.01	20975.88
675.15	20938.43
675.29	20805.02
675.43	21055.46
675.56	20725.44
675.70	20917.37
675.84	20816.72
675.98	19960.09
676.12	20695.02
676.26	20599.05
676.40	20807.36
676.54	20547.56
676.68	20421.17
676.82	20056.05
676.96	20538.20
677.10	20116.90
677.23	19840.72
677.37	20182.44
677.51	19955.41
677.65	20079.46
677.79	19810.29
677.93	19824.34
678.07	19564.54
678.21	19592.62
678.34	19655.82
678.48	19592.62
678.62	19538.79
678.76	19363.25
678.90	19644.12
679.04	19559.86
679.18	19241.54
679.31	18981.74
679.45	19367.93
679.59	19213.46
679.73	19028.56
679.87	18934.93
680.00	18941.96
680.14	18834.29
680.28	18913.87
680.42	18740.67
680.56	18956.00
680.70	18815.57
680.83	18740.67
680.97	18904.51
681.11	18733.65
681.25	18796.84
681.39	18665.77
681.52	18569.81
681.66	18298.31
681.80	18188.30
681.94	18279.58
682.07	18359.16
682.21	18272.56
682.35	18167.24
682.49	17827.86
682.62	17696.79
682.76	18038.51
682.90	18050.21
683.04	17900.42
683.17	18078.30
683.31	17933.18
683.45	17734.24
683.59	18043.19
683.72	17687.43
683.86	17551.68
684.00	17460.40
684.13	17556.36
684.27	17399.54
684.41	17179.53
684.55	17081.23
684.68	17188.89
684.82	16975.91
684.96	17043.78
685.09	16851.86
685.23	16835.47
685.37	16975.91
685.50	17142.08
685.64	16781.64
685.78	16861.22
685.91	16851.86
686.05	16746.53
686.19	16748.87
686.32	16828.45
686.46	16709.08
686.60	16704.40
686.73	16306.51
686.87	16306.51
687.01	16460.99
687.14	16444.60
687.28	16149.70
687.42	16011.60
687.55	16135.65
687.69	16278.43
687.82	15807.98
687.96	16091.18
688.10	15695.63
688.23	16046.71
688.37	15906.28
688.50	15861.81
688.64	15910.96
688.78	15864.15
688.91	15857.13
689.05	15452.22
689.18	15440.51
689.32	14956.02
689.46	15260.29
689.59	15510.73
689.73	14817.93
689.86	15367.96
690.00	15075.39
690.13	15070.71
690.27	14904.53
690.41	15295.40
690.54	14949.00
690.68	15073.05
690.81	14846.02
690.95	15012.20
691.08	14967.73
691.22	14829.63
691.35	14691.54
691.49	14693.88
691.62	14558.13
691.76	14394.29
691.89	14583.88
692.03	14202.37
692.16	14202.37
692.30	14178.97
692.43	14050.24
692.57	14134.50
692.70	14157.90
692.84	13977.68
692.97	14019.81
693.11	14178.97
693.24	13858.31
693.38	13975.34
693.51	13851.29
693.65	13652.34
693.78	13699.16
693.92	13642.98
694.05	13558.72
694.19	13715.54
694.32	13469.78
694.45	13502.55
694.59	13207.64
694.72	13200.62
694.86	12908.05
694.99	12910.40
695.13	13092.96
695.26	13135.09
695.39	13060.19
695.53	13074.23
695.66	12912.74
695.80	12978.27
695.93	12936.14
696.07	12947.84
696.20	13053.17
696.33	12800.39
696.47	12681.02
696.60	12805.07
696.73	12711.45
696.87	12919.76
697.00	12566.34
697.14	12367.39
697.27	12262.07
697.40	12119.29
697.54	12290.15
697.67	12163.76
697.80	12191.85
697.94	12088.87
698.07	11892.26
698.21	11775.24
698.34	11775.24
698.47	12138.02
698.61	11882.90
698.74	12159.08
698.87	11889.92
699.01	11899.28
699.14	11901.62
699.27	11405.43
699.40	11805.66
699.54	11683.95
699.67	11463.94
699.80	11468.62
699.94	11215.85
700.07	11468.62
700.20	11283.72
700.34	11239.25
700.47	11346.92
700.60	11346.92
700.73	11173.72
700.87	11197.12
701.00	10890.51
701.13	10820.30
701.26	11208.83
701.40	11033.29
701.53	10885.83
701.66	10967.75
701.79	10775.83
701.93	10532.41
702.06	10693.91
702.19	10527.73
702.32	10513.69
702.46	10431.77
702.59	10530.07
702.72	10375.59
702.85	10427.09
702.99	10169.63
703.12	10361.55
703.25	10139.20
703.38	10291.34
703.51	10338.15
703.65	10228.14
703.78	10122.82
703.91	10258.57
704.04	10186.01
704.17	10272.61
704.31	9916.85
704.44	9806.84
704.57	9811.53
704.70	9596.20
704.83	9666.41
704.96	9593.86
705.10	9661.73
705.23	9497.89
>>>>>End Processed Spectral Data<<<<<
