SpectraSuite Data File
++++++++++++++++++++++++++++++++++++
Date: Fri Oct 18 13:58:01 GMT-05:00 2013
User: bianchi
Dark Spectrum Present: No
Reference Spectrum Present: No
Number of Sampled Component Spectra: 1
Spectrometers: USB2+H05261
Integration Time (usec): 50000 (USB2+H05261)
Spectra Averaged: 1 (USB2+H05261)
Boxcar Smoothing: 0 (USB2+H05261)
Correct for Electrical Dark: No (USB2+H05261)
Strobe/Lamp Enabled: No (USB2+H05261)
Correct for Detector Non-linearity: No (USB2+H05261)
Correct for Stray Light: No (USB2+H05261)
Number of Pixels in Processed Spectrum: 2048
>>>>>Begin Processed Spectral Data<<<<<
365.73	0.00
365.92	0.00
366.12	0.00
366.32	0.00
366.52	0.00
366.72	0.00
366.91	0.00
367.11	0.00
367.31	0.00
367.51	0.00
367.70	0.00
367.90	0.00
368.10	0.00
368.30	0.00
368.49	0.00
368.69	0.00
368.89	0.00
369.09	0.00
369.28	0.00
369.48	0.00
369.68	0.00
369.87	0.00
370.07	0.00
370.27	0.00
370.47	0.00
370.66	72.56
370.86	74.90
371.06	100.64
371.25	238.73
371.45	154.48
371.65	175.54
371.84	208.31
372.04	149.79
372.24	175.54
372.44	175.54
372.63	189.58
372.83	208.31
373.03	201.29
373.22	259.80
373.42	259.80
373.62	203.63
373.81	203.63
374.01	191.92
374.21	175.54
374.40	285.55
374.60	203.63
374.79	224.69
374.99	257.46
375.19	250.44
375.38	264.48
375.58	224.69
375.78	294.91
375.97	257.46
376.17	358.10
376.37	285.55
376.56	292.57
376.76	283.20
376.95	248.10
377.15	273.84
377.35	262.14
377.54	234.05
377.74	318.31
377.93	348.74
378.13	301.93
378.33	330.02
378.52	262.14
378.72	264.48
378.91	250.44
379.11	348.74
379.31	262.14
379.50	255.12
379.70	330.02
379.89	259.80
380.09	299.59
380.28	287.89
380.48	365.12
380.68	355.76
380.87	238.73
381.07	327.68
381.26	334.70
381.46	315.97
381.65	304.27
381.85	236.39
382.04	273.84
382.24	278.52
382.43	330.02
382.63	308.95
382.83	379.17
383.02	360.44
383.22	393.21
383.41	397.89
383.61	311.29
383.80	430.66
384.00	381.51
384.19	379.17
384.39	355.76
384.58	294.91
384.78	386.19
384.97	418.96
385.17	358.10
385.36	404.91
385.56	346.40
385.75	435.34
385.95	402.57
386.14	404.91
386.34	395.55
386.53	325.33
386.72	376.83
386.92	374.49
387.11	322.99
387.31	367.46
387.50	447.04
387.70	433.00
387.89	479.81
388.09	400.23
388.28	477.47
388.48	428.32
388.67	510.24
388.86	416.62
389.06	496.19
389.25	451.72
389.45	489.17
389.64	477.47
389.84	454.06
390.03	554.71
390.22	503.22
390.42	447.04
390.61	437.68
390.81	461.09
391.00	517.26
391.19	437.68
391.39	465.77
391.58	503.22
391.78	510.24
391.97	550.03
392.16	484.49
392.36	585.13
392.55	451.72
392.75	447.04
392.94	505.56
393.13	526.62
393.33	578.11
393.52	517.26
393.71	566.41
393.91	547.69
394.10	578.11
394.29	482.15
394.49	528.96
394.68	582.79
394.88	603.86
395.07	617.90
395.26	575.77
395.46	617.90
395.65	610.88
395.84	671.73
396.04	674.07
396.23	674.07
396.42	596.84
396.62	582.79
396.81	589.82
397.00	727.91
397.19	634.29
397.39	720.88
397.58	765.36
397.77	690.46
397.97	763.01
398.16	629.60
398.35	634.29
398.55	716.20
398.74	767.70
398.93	755.99
399.12	716.20
399.32	669.39
399.51	713.86
399.70	716.20
399.90	819.19
400.09	734.93
400.28	601.52
400.47	718.54
400.67	784.08
400.86	800.46
401.05	737.27
401.24	779.40
401.44	734.93
401.63	835.57
401.82	842.59
402.01	753.65
402.21	781.74
402.40	819.19
402.59	821.53
402.78	812.17
402.97	877.70
403.17	889.40
403.36	863.66
403.55	819.19
403.74	901.11
403.93	940.90
404.13	947.92
404.32	954.94
404.51	915.15
404.70	882.38
404.89	968.98
405.09	980.68
405.28	912.81
405.47	945.58
405.66	947.92
405.85	987.71
406.05	971.32
406.24	1025.15
406.43	1006.43
406.62	1050.90
406.81	1039.20
407.00	1067.28
407.20	926.85
407.39	1043.88
407.58	1015.79
407.77	1128.14
407.96	1025.15
408.15	1081.33
408.34	976.00
408.54	1043.88
408.73	1041.54
408.92	1057.92
409.11	1125.80
409.30	1156.22
409.49	1135.16
409.68	1137.50
409.87	1177.29
410.07	1057.92
410.26	1146.86
410.45	1167.93
410.64	1179.63
410.83	1231.12
411.02	1156.22
411.21	1219.42
411.40	1210.06
411.59	1301.34
411.78	1228.78
411.98	1275.59
412.17	1282.61
412.36	1329.42
412.55	1261.55
412.74	1284.95
412.93	1371.55
413.12	1301.34
413.31	1352.83
413.50	1369.21
413.69	1423.05
413.88	1420.71
414.07	1448.79
414.26	1401.98
414.45	1373.89
414.64	1444.11
414.83	1523.69
415.02	1577.52
415.22	1511.99
415.41	1507.30
415.60	1526.03
415.79	1607.95
415.98	1500.28
416.17	1575.18
416.36	1661.78
416.55	1631.35
416.74	1586.88
416.93	1746.04
417.12	1757.74
417.31	1666.46
417.50	1699.23
417.69	1778.81
417.88	1748.38
418.07	1734.34
418.26	1729.66
418.45	1710.93
418.64	1809.23
418.83	1762.42
419.02	1867.75
419.21	1792.85
419.39	1774.13
419.58	1778.81
419.77	1785.83
419.96	1820.94
420.15	1785.83
420.34	1788.17
420.53	1874.77
420.72	1858.39
420.91	1877.11
421.10	1893.49
421.29	1930.94
421.48	1837.32
421.67	1973.07
421.86	1799.87
422.05	1858.39
422.24	1944.99
422.43	2045.63
422.61	2052.65
422.80	2026.90
422.99	1959.03
423.18	1905.20
423.37	2104.14
423.56	2003.50
423.75	2059.67
423.94	2073.71
424.13	1849.02
424.32	1839.66
424.50	1884.13
424.69	2064.35
424.88	1987.11
425.07	1916.90
425.26	2026.90
425.45	1996.48
425.64	1872.43
425.83	2043.29
426.01	2132.23
426.20	1996.48
426.39	2047.97
426.58	2097.12
426.77	2118.18
426.96	2038.61
427.15	2134.57
427.33	2029.24
427.52	2157.97
427.71	2092.44
427.90	2127.55
428.09	2169.68
428.28	2148.61
428.46	2300.75
428.65	2069.03
428.84	2251.60
429.03	2267.98
429.22	2291.38
429.40	2202.44
429.59	2223.51
429.78	2118.18
429.97	2172.02
430.16	2417.77
430.34	2260.96
430.53	2300.75
430.72	2363.94
430.91	2359.26
431.10	2385.01
431.28	2406.07
431.47	2310.11
431.66	2380.32
431.85	2282.02
432.03	2377.98
432.22	2469.27
432.41	2415.43
432.60	2586.29
432.79	2457.56
432.97	2363.94
433.16	2452.88
433.35	2504.37
433.54	2513.74
433.72	2525.44
433.91	2513.74
434.10	2452.88
434.28	2567.57
434.47	2492.67
434.66	2527.78
434.85	2485.65
435.03	2590.97
435.22	2520.76
435.41	2705.66
435.59	2551.18
435.78	2626.08
435.97	2715.02
436.16	2597.99
436.34	2614.38
436.53	2715.02
436.72	2820.35
436.90	2750.13
437.09	2654.17
437.28	2642.46
437.46	2740.77
437.65	2527.78
437.84	2874.18
438.02	2698.64
438.21	2796.94
438.40	2736.09
438.58	2850.77
438.77	2829.71
438.96	2956.10
439.14	2960.78
439.33	2895.24
439.52	2899.92
439.70	2841.41
439.89	2864.82
440.08	2888.22
440.26	2832.05
440.45	2979.50
440.63	3162.06
440.82	3145.68
441.01	3131.64
441.19	3190.15
441.38	3253.34
441.57	3218.24
441.75	3145.68
441.94	3255.69
442.12	3201.85
442.31	3258.03
442.50	3316.54
442.68	3288.45
442.87	3276.75
443.05	3272.07
443.24	3421.86
443.43	3398.46
443.61	3281.43
443.80	3351.65
443.98	3445.27
444.17	3098.87
444.35	3377.39
444.54	3480.38
444.73	3337.60
444.91	3400.80
445.10	3328.24
445.28	3485.06
445.47	3428.88
445.65	3471.01
445.84	3431.23
446.02	3489.74
446.21	3461.65
446.39	3398.46
446.58	3459.31
446.77	3531.87
446.95	3482.72
447.14	3382.07
447.32	3475.70
447.51	3386.76
447.69	3433.57
447.88	3494.42
448.06	3541.23
448.25	3592.72
448.43	3487.40
448.62	3510.80
448.80	3435.91
448.99	3534.21
449.17	3571.66
449.36	3489.74
449.54	3651.24
449.73	3602.08
449.91	3716.77
450.10	3714.43
450.28	3674.64
450.46	3761.24
450.65	3831.46
450.83	3758.90
451.02	3791.67
451.20	3880.61
451.39	3899.33
451.57	3740.18
451.76	3723.79
451.94	3721.45
452.13	3686.34
452.31	3808.05
452.49	3758.90
452.68	3864.22
452.86	3782.31
453.05	3911.04
453.23	3922.74
453.42	3955.51
453.60	3810.39
453.78	4100.62
453.97	3857.20
454.15	3983.59
454.34	3943.80
454.52	3950.82
454.70	3990.61
454.89	4037.42
455.07	4028.06
455.26	4109.98
455.44	4166.15
455.62	4051.47
455.81	4091.26
455.99	4079.55
456.17	4255.09
456.36	4112.32
456.54	4156.79
456.73	4142.75
456.91	4440.00
457.09	4365.10
457.28	4318.29
457.46	4201.26
457.64	4395.53
457.83	4381.48
458.01	4224.67
458.19	4425.95
458.38	4311.27
458.56	4418.93
458.74	4358.08
458.93	4344.03
459.11	4414.25
459.29	4407.23
459.48	4329.99
459.66	4367.44
459.84	4587.45
460.03	4550.00
460.21	4456.38
460.39	4559.36
460.57	4411.91
460.76	4627.24
460.94	4461.06
461.12	4582.77
461.31	4767.67
461.49	4421.27
461.67	4566.39
461.85	4683.41
462.04	4608.51
462.22	4978.32
462.40	4751.29
462.59	4755.97
462.77	4781.71
462.95	4929.17
463.13	4910.44
463.32	4725.54
463.50	4786.40
463.68	4954.91
463.86	4727.88
464.05	4823.84
464.23	4889.38
464.41	4957.25
464.59	4746.61
464.78	4877.68
464.96	4924.49
465.14	4882.36
465.32	4905.76
465.50	4971.30
465.69	4868.31
465.87	4809.80
466.05	5043.85
466.23	4933.85
466.41	5046.20
466.60	5123.43
466.78	4936.19
466.96	4957.25
467.14	4987.68
467.32	5020.45
467.51	5247.48
467.69	5025.13
467.87	5116.41
468.05	5125.77
468.23	5067.26
468.41	4990.02
468.60	5313.02
468.78	5245.14
468.96	5142.16
469.14	5156.20
469.32	5329.40
469.50	5130.45
469.69	5378.55
469.87	5540.05
470.05	5472.17
470.23	5390.25
470.41	5256.84
470.59	5390.25
470.77	5385.57
470.95	5378.55
471.14	5521.32
471.32	5488.56
471.50	5570.48
471.68	5451.11
471.86	5692.18
472.04	5799.85
472.22	5853.68
472.40	5706.23
472.58	5685.16
472.77	5614.95
472.95	5816.23
473.13	5872.40
473.31	5671.12
473.49	5884.11
473.67	5947.30
473.85	5987.09
474.03	6108.80
474.21	5940.28
474.39	6090.07
474.57	6090.07
474.75	6125.18
474.93	6277.32
475.12	5921.56
475.30	6099.44
475.48	6146.25
475.66	6251.57
475.84	6282.00
476.02	6239.87
476.20	6291.36
476.38	6431.79
476.56	6707.98
476.74	6534.78
476.92	6436.47
477.10	6551.16
477.28	6750.10
477.46	6607.33
477.64	6518.39
477.82	6820.32
478.00	6827.34
478.18	6883.52
478.36	6963.09
478.54	7133.95
478.72	6883.52
478.90	7288.43
479.08	7124.59
479.26	7192.47
479.44	7227.57
479.62	7239.28
479.80	7417.16
479.98	7515.46
480.16	7639.51
480.34	7548.23
480.52	7805.69
480.70	7691.00
480.88	7517.80
481.06	7761.22
481.24	7772.92
481.41	7749.51
481.59	7873.56
481.77	8004.63
481.95	8156.77
482.13	8226.98
482.31	8063.15
482.49	8271.45
482.67	8297.20
482.85	8636.58
483.03	8573.38
483.21	8568.70
483.39	8542.96
483.57	8554.66
483.74	8533.59
483.92	8814.46
484.10	8669.34
484.28	8863.61
484.46	9022.77
484.64	8987.66
484.82	8985.32
485.00	8985.32
485.18	9015.74
485.35	9418.32
485.53	9170.22
485.71	9558.75
485.89	9860.68
486.07	9446.40
486.25	9680.46
486.43	9671.09
486.61	9937.91
486.78	9963.66
486.96	9947.28
487.14	9996.43
487.32	10232.82
487.50	10071.33
487.68	10157.92
487.85	10403.68
488.03	10572.20
488.21	10743.06
488.39	10516.03
488.57	10473.90
488.75	10630.71
488.92	10815.62
489.10	11056.69
489.28	10892.85
489.46	10869.45
489.64	10979.45
489.81	11424.15
489.99	11253.30
490.17	11213.51
490.35	11477.99
490.53	11496.71
490.70	11417.13
490.88	11524.80
491.06	11475.65
491.24	11751.83
491.41	11948.43
491.59	11936.73
491.77	11969.50
491.95	12044.40
492.13	12198.87
492.30	12100.57
492.48	12336.96
492.66	12393.14
492.84	12437.61
493.01	12479.74
493.19	12760.60
493.37	12739.54
493.54	12732.51
493.72	12809.75
493.90	12849.54
494.08	12681.02
494.25	12842.52
494.43	13142.11
494.61	13188.92
494.79	13324.67
494.96	13160.83
495.14	13392.55
495.32	13418.29
495.49	13575.11
495.67	13685.11
495.85	13724.90
496.02	13937.89
496.20	14195.35
496.38	13855.97
496.55	13837.25
496.73	14291.31
496.91	14303.01
497.09	14394.29
497.26	14483.24
497.44	14256.20
497.62	14211.73
497.79	14450.47
497.97	14331.10
498.14	14609.62
498.32	14801.55
498.50	14813.25
498.67	15012.20
498.85	14925.60
499.03	14703.25
499.20	15021.56
499.38	15044.96
499.56	15007.52
499.73	15335.19
499.91	15288.38
500.08	15499.03
500.26	15154.97
500.44	15239.23
500.61	15351.57
500.79	15363.28
500.97	15873.51
501.14	15981.18
501.32	15754.15
501.49	15623.08
501.67	15859.47
501.84	16180.12
502.02	16042.03
502.20	16025.65
502.37	16149.70
502.55	15908.62
502.72	16098.20
502.90	16042.03
503.07	16217.57
503.25	16271.40
503.43	16278.43
503.60	16219.91
503.78	16477.37
503.95	16613.12
504.13	16578.01
504.30	16444.60
504.48	16519.50
504.65	16795.68
504.83	16837.81
505.01	16943.14
505.18	16917.39
505.36	17078.89
505.53	16666.95
505.71	17151.45
505.88	16938.46
506.06	16898.67
506.23	17273.15
506.41	17200.60
506.58	17453.37
506.76	17479.12
506.93	17411.25
507.11	17291.88
507.28	17465.08
507.46	17596.15
507.63	17701.47
507.81	17928.50
507.98	17600.83
508.16	17713.17
508.33	18246.82
508.50	17968.29
508.68	17942.55
508.85	18270.22
509.03	18251.50
509.20	18012.76
509.38	18443.42
509.55	18279.58
509.73	18232.77
509.90	18239.79
510.08	18174.26
510.25	18354.48
510.42	18508.96
510.60	18876.42
510.77	18691.52
510.95	18649.39
511.12	18506.62
511.30	18934.93
511.47	18616.62
511.64	18981.74
511.82	19019.19
511.99	18822.59
512.17	19080.05
512.34	18888.12
512.51	18946.64
512.69	19222.82
512.86	19211.12
513.04	19346.87
513.21	19398.36
513.38	19442.83
513.56	19321.12
513.73	19566.88
513.90	19393.68
514.08	19381.98
514.25	19487.30
514.43	19552.84
514.60	19667.52
514.77	19992.86
514.95	20311.17
515.12	20011.58
515.29	19868.81
515.47	19936.68
515.64	20278.40
515.81	19957.75
515.99	20460.96
516.16	20318.19
516.33	20229.25
516.51	20315.85
516.68	20196.48
516.85	20273.72
517.03	20245.63
517.20	20645.87
517.37	20404.79
517.54	20411.81
517.72	20830.77
517.89	20355.64
518.06	20629.48
518.24	20629.48
518.41	20868.22
518.58	20638.84
518.75	20676.29
518.93	21165.46
519.10	20978.22
519.27	21090.57
519.45	21158.44
519.62	21036.74
519.79	21020.35
519.96	20987.58
520.14	21282.49
520.31	21008.65
520.48	21338.66
520.65	21249.72
520.83	21261.43
521.00	21472.07
521.17	21242.70
521.34	21310.58
521.52	21685.06
521.69	21586.76
521.86	21518.89
522.03	21923.80
522.20	21546.97
522.38	21621.87
522.55	21713.15
522.72	21774.00
522.89	21994.01
523.07	21820.81
523.24	21745.92
523.41	22183.60
523.58	21965.93
523.75	22291.26
523.92	22270.20
524.10	22045.51
524.27	22047.85
524.44	22492.55
524.61	22581.49
524.78	22382.54
524.96	22438.72
525.13	22558.08
525.30	22658.73
525.47	22171.89
525.64	22576.81
525.81	22665.75
525.98	22520.63
526.16	22686.81
526.33	22890.44
526.50	22635.32
526.67	22609.58
526.84	22394.25
527.01	22916.19
527.18	23014.49
527.36	23019.17
527.53	23136.20
527.70	22970.02
527.87	23168.96
528.04	23049.60
528.21	23260.24
528.38	23103.43
528.55	23494.30
528.72	23297.69
528.89	23300.03
529.07	23367.91
529.24	23386.63
529.41	23805.59
529.58	23524.72
529.75	23473.23
529.92	23276.63
530.09	23536.43
530.26	23477.91
530.43	23864.10
530.60	23524.72
530.77	23611.32
530.94	23688.56
531.11	23576.22
531.28	23824.31
531.46	23639.41
531.63	23681.54
531.80	23782.18
531.97	24020.92
532.14	24128.58
532.31	24072.41
532.48	23878.15
532.65	24102.84
532.82	23913.25
532.99	24095.82
533.16	24264.33
533.33	24477.32
533.50	24702.01
533.67	24292.42
533.84	24107.52
534.01	24381.36
534.18	24500.73
534.35	24769.89
534.52	24678.61
534.69	24498.39
534.86	24624.78
535.03	24446.90
535.20	24835.42
535.37	24554.56
535.54	24870.53
535.71	24720.74
535.88	24725.42
536.05	24837.76
536.22	24652.86
536.38	25181.82
536.55	25032.03
536.72	25305.87
536.89	24978.20
537.06	24936.07
537.23	25090.54
537.40	25088.20
537.57	25081.18
537.74	24854.15
537.91	25245.02
538.08	25245.02
538.25	25153.74
538.42	25268.42
538.59	25296.51
538.75	25280.13
538.92	25223.95
539.09	25514.18
539.26	25383.11
539.43	25362.04
539.60	25631.21
539.77	25748.23
539.94	25518.86
540.11	25563.33
540.28	25722.49
540.44	25605.46
540.61	25649.93
540.78	25511.84
540.95	25558.65
541.12	25394.81
541.29	25844.20
541.46	26017.40
541.62	25783.34
541.79	25867.60
541.96	25921.43
542.13	25846.54
542.30	25876.96
542.47	26038.46
542.63	26340.39
542.80	26045.48
542.97	26101.65
543.14	26450.39
543.31	26471.46
543.48	26410.60
543.64	26183.57
543.81	26375.50
543.98	26593.17
544.15	27007.44
544.32	26551.04
544.48	26916.16
544.65	26340.39
544.82	26553.38
544.99	26609.55
545.16	26586.15
545.32	26895.10
545.49	26801.47
545.66	27117.45
545.83	27014.46
546.00	26623.59
546.16	26541.68
546.33	26391.88
546.50	26204.64
546.67	26628.27
546.83	26246.77
547.00	26621.25
547.17	26836.58
547.34	26911.48
547.50	26895.10
547.67	26948.93
547.84	27087.02
548.00	27398.31
548.17	27435.76
548.34	27166.60
548.51	27262.56
548.67	27388.95
548.84	27215.75
549.01	27260.22
549.18	27122.13
549.34	26892.76
549.51	27028.51
549.68	27316.39
549.84	27234.47
550.01	27269.58
550.18	27192.34
550.34	27201.71
550.51	27440.44
550.68	27531.72
550.84	27388.95
551.01	27920.25
551.18	26909.14
551.34	27091.70
551.51	27608.96
551.68	27466.19
551.84	27899.19
552.01	27728.33
552.18	27608.96
552.34	27695.56
552.51	27955.36
552.68	27784.50
552.84	28039.62
553.01	28147.28
553.18	27716.62
553.34	28219.84
553.51	27964.72
553.67	28423.47
553.84	28067.70
554.01	28252.61
554.17	28308.78
554.34	27777.48
554.51	28224.52
554.67	28095.79
554.84	28158.99
555.00	28173.03
555.17	27791.52
555.33	28119.20
555.50	28247.93
555.67	28194.09
555.83	28250.27
556.00	27974.08
556.16	28313.46
556.33	28238.56
556.50	28156.64
556.66	28273.67
556.83	28128.56
556.99	29048.39
557.16	28343.89
557.32	28851.78
557.49	28376.66
557.65	28510.07
557.82	28166.01
557.98	28503.04
558.15	28364.95
558.32	28669.22
558.48	28292.40
558.65	28430.49
558.81	28203.46
558.98	28800.29
559.14	28847.10
559.31	28641.14
559.47	28802.63
559.64	28737.10
559.80	28617.73
559.97	28481.98
560.13	28676.24
560.30	28680.92
560.46	28755.82
560.63	28716.03
560.79	28900.94
560.96	29193.50
561.12	28510.07
561.29	28631.77
561.45	28664.54
561.61	28854.12
561.78	28898.59
561.94	28865.83
562.11	28753.48
562.27	28821.36
562.44	28741.78
562.60	29046.05
562.77	28931.36
562.93	28849.44
563.10	29029.66
563.26	28446.87
563.42	29085.84
563.59	29186.48
563.75	29174.78
563.92	29465.00
564.08	28692.63
564.24	28950.09
564.41	29048.39
564.57	29305.85
564.74	29010.94
564.90	29252.02
565.07	28947.75
565.23	29305.85
565.39	29322.23
565.56	29188.82
565.72	29340.96
565.88	29130.31
566.05	29132.65
566.21	28966.47
566.38	29205.20
566.54	29153.71
566.70	29617.14
566.87	29893.32
567.03	29195.84
567.19	29612.46
567.36	29237.97
567.52	29106.90
567.68	29472.03
567.85	29223.93
568.01	29233.29
568.17	29029.66
568.34	29240.31
568.50	29427.56
568.66	29326.91
568.83	29261.38
568.99	29413.51
569.15	29673.31
569.32	29315.21
569.48	29127.97
569.64	29401.81
569.81	29310.53
569.97	29355.00
570.13	29699.06
570.30	29530.54
570.46	29425.22
570.62	29675.65
570.78	29535.22
570.95	29312.87
571.11	29062.43
571.27	29041.37
571.43	29656.93
571.60	29596.07
571.76	29366.70
571.92	29352.66
572.09	29551.60
572.25	29813.74
572.41	29668.63
572.57	29839.49
572.74	29659.27
572.90	29294.14
573.06	29874.60
573.22	29457.98
573.38	29553.94
573.55	29214.57
573.71	29715.44
573.87	29923.75
574.03	29738.85
574.20	29713.10
574.36	29460.32
574.52	29394.79
574.68	29661.61
574.84	30043.12
575.01	29450.96
575.17	29713.10
575.33	29666.29
575.49	29944.81
575.65	29591.39
575.82	29640.54
575.98	29876.94
576.14	29802.04
576.30	29729.48
576.46	29350.32
576.62	29603.10
576.79	29865.24
576.95	29659.27
577.11	29968.22
577.27	29783.32
577.43	29923.75
577.59	29949.50
577.75	29703.74
577.92	29734.17
578.08	29963.54
578.24	29518.84
578.40	29876.94
578.56	29790.34
578.72	29673.31
578.88	29715.44
579.04	30251.42
579.21	29706.08
579.37	29855.87
579.53	29855.87
579.69	29785.66
579.85	29727.14
580.01	29851.19
580.17	29785.66
580.33	29722.46
580.49	29965.88
580.65	30022.05
580.82	29633.52
580.98	30183.55
581.14	29869.92
581.30	29984.60
581.46	29792.68
581.62	29844.17
581.78	29776.30
581.94	30106.31
582.10	29818.42
582.26	29401.81
582.42	30008.01
582.58	30253.76
582.74	30033.75
582.90	29954.18
583.06	29900.34
583.22	29764.59
583.38	29741.19
583.54	29937.79
583.70	29488.41
583.86	29596.07
584.02	29731.83
584.18	29921.41
584.34	30387.18
584.50	30204.61
584.66	29872.26
584.82	29853.53
584.98	30110.99
585.14	29701.40
585.30	29846.51
585.46	29809.06
585.62	29692.04
585.78	29956.52
585.94	29773.95
586.10	30015.03
586.26	30103.97
586.42	30094.61
586.58	30375.47
586.74	30216.32
586.90	29757.57
587.06	29612.46
587.22	30038.44
587.38	29970.56
587.54	29912.05
587.70	30286.53
587.86	30155.46
588.02	29841.83
588.18	30230.36
588.34	30211.64
588.49	30094.61
588.65	30120.35
588.81	29635.86
588.97	30202.27
589.13	30136.74
589.29	30167.16
589.45	30356.75
589.61	30232.70
589.77	30181.21
589.93	30462.07
590.08	30469.09
590.24	30377.81
590.40	30263.13
590.56	30342.70
590.72	29940.13
590.88	30401.22
591.04	29979.92
591.20	30689.10
591.35	30621.23
591.51	30712.51
591.67	30581.44
591.83	30665.70
591.99	30541.65
592.15	30614.21
592.31	30251.42
592.46	29862.90
592.62	30426.96
592.78	30251.42
592.94	29996.31
593.10	29963.54
593.26	30113.33
593.41	30242.06
593.57	30602.50
593.73	30347.39
593.89	30499.52
594.05	30403.56
594.20	30253.76
594.36	30473.78
594.52	29886.30
594.68	30251.42
594.84	30345.05
594.99	30419.94
595.15	30756.98
595.31	30604.84
595.47	30265.47
595.62	30551.01
595.78	30644.63
595.94	30361.43
596.10	30267.81
596.25	30085.25
596.41	30157.80
596.57	30134.40
596.73	30089.93
596.88	30316.96
597.04	30572.08
597.20	30363.77
597.36	30654.00
597.51	30616.55
597.67	30422.28
597.83	30429.30
597.99	30639.95
598.14	30487.82
598.30	30352.07
598.46	30426.96
598.61	30616.55
598.77	30455.05
598.93	30429.30
599.09	30621.23
599.24	30895.07
599.40	30803.79
599.56	30845.92
599.71	30756.98
599.87	30459.73
600.03	30799.11
600.18	30316.96
600.34	30419.94
600.50	30328.66
600.65	30602.50
600.81	30522.93
600.97	30827.20
601.12	30506.54
601.28	30733.57
601.44	30756.98
601.59	30869.33
601.75	30363.77
601.91	30895.07
602.06	30565.06
602.22	30403.56
602.37	30543.99
602.53	30820.17
602.69	30771.02
602.84	30792.09
603.00	30712.51
603.16	30843.58
603.31	30565.06
603.47	30707.83
603.62	30417.60
603.78	30717.19
603.94	30490.16
604.09	30323.98
604.25	30733.57
604.40	30375.47
604.56	30579.10
604.71	30499.52
604.87	30724.21
605.03	30642.29
605.18	30548.67
605.34	30616.55
605.49	30213.98
605.65	30108.65
605.80	30221.00
605.96	30293.55
606.12	30405.90
606.27	30782.73
606.43	30583.78
606.58	30607.19
606.74	30618.89
606.89	30754.64
607.05	30506.54
607.20	30745.28
607.36	30654.00
607.51	30022.05
607.67	30291.21
607.82	30462.07
607.98	29867.58
608.13	30370.79
608.29	30452.71
608.44	30520.59
608.60	30038.44
608.75	30438.67
608.91	30525.27
609.06	30181.21
609.22	30747.62
609.37	30230.36
609.53	30068.86
609.68	30192.91
609.84	30125.04
609.99	30183.55
610.15	30331.00
610.30	29970.56
610.46	30401.22
610.61	30277.17
610.76	30604.84
610.92	30314.62
611.07	30122.69
611.23	30022.05
611.38	30122.69
611.54	30057.16
611.69	29935.45
611.84	29792.68
612.00	30361.43
612.15	30089.93
612.31	30232.70
612.46	30141.42
612.62	30558.03
612.77	29916.73
612.92	30394.20
613.08	30504.20
613.23	30213.98
613.39	30230.36
613.54	29748.21
613.69	30005.67
613.85	29731.83
614.00	29921.41
614.15	30082.91
614.31	29785.66
614.46	30080.56
614.62	29912.05
614.77	29811.40
614.92	30228.02
615.08	30052.48
615.23	29780.98
615.38	29846.51
615.54	29490.75
615.69	29668.63
615.84	29631.18
616.00	29895.66
616.15	29841.83
616.30	30134.40
616.46	29727.14
616.61	30068.86
616.76	29916.73
616.92	29872.26
617.07	29841.83
617.22	29586.71
617.37	29933.11
617.53	29823.11
617.68	29837.15
617.83	29614.80
617.99	29455.64
618.14	29263.72
618.29	29291.80
618.45	29308.19
618.60	29507.13
618.75	29750.55
618.90	29596.07
619.06	29413.51
619.21	29518.84
619.36	29745.87
619.51	29165.42
619.67	29673.31
619.82	29209.89
619.97	29455.64
620.12	29457.98
620.28	29134.99
620.43	29502.45
620.58	29572.67
620.73	29502.45
620.89	29687.36
621.04	29497.77
621.19	29560.97
621.34	29532.88
621.49	28886.89
621.65	29233.29
621.80	29450.96
621.95	29212.23
622.10	28800.29
622.25	29043.71
622.41	29495.43
622.56	28933.70
622.71	29303.51
622.86	28811.99
623.01	29448.62
623.16	28957.11
623.32	28851.78
623.47	29111.58
623.62	29130.31
623.77	29158.39
623.92	28641.14
624.07	29146.69
624.23	29064.77
624.38	29090.52
624.53	28617.73
624.68	29137.33
624.83	29216.91
624.98	29200.52
625.13	29153.71
625.29	29041.37
625.44	29144.35
625.59	28584.96
625.74	28584.96
625.89	28718.37
626.04	28858.81
626.19	28606.03
626.34	28636.45
626.49	28606.03
626.65	28428.15
626.80	29221.59
626.95	28732.42
627.10	28552.20
627.25	28648.16
627.40	28666.88
627.55	28905.62
627.70	28762.84
627.85	28507.72
628.00	28435.17
628.15	28538.15
628.30	28411.76
628.45	28636.45
628.60	28163.67
628.76	28500.70
628.91	28388.36
629.06	28584.96
629.21	28521.77
629.36	28521.77
629.51	28432.83
629.66	27988.13
629.81	28400.06
629.96	28222.18
630.11	28135.58
630.26	28451.55
630.41	28641.14
630.56	28112.17
630.71	28093.45
630.86	28517.09
631.01	28280.69
631.16	28304.10
631.31	28037.28
631.46	28044.30
631.61	28102.81
631.76	27625.34
631.91	27852.38
632.06	28006.85
632.21	28058.34
632.36	27854.72
632.51	28023.23
632.66	27604.28
632.81	27953.02
632.96	27974.08
633.10	27833.65
633.25	28039.62
633.40	28297.08
633.55	27814.93
633.70	27761.09
633.85	27508.32
634.00	27587.89
634.15	27674.49
634.30	27697.90
634.45	27723.65
634.60	27487.25
634.75	27765.78
634.90	27707.26
635.05	27969.40
635.19	27637.05
635.34	27964.72
635.49	27695.56
635.64	27819.61
635.79	28140.26
635.94	27679.18
636.09	27861.74
636.24	27337.46
636.39	27400.65
636.53	27992.81
636.68	27536.40
636.83	27377.25
636.98	27388.95
637.13	27749.39
637.28	27786.84
637.43	27641.73
637.57	27742.37
637.72	27047.23
637.87	27145.53
638.02	27496.61
638.17	27466.19
638.32	27410.01
638.46	27175.96
638.61	27243.84
638.76	26923.18
638.91	26965.31
639.06	27005.10
639.20	27187.66
639.35	27297.67
639.50	27583.21
639.65	27290.65
639.80	27402.99
639.94	27342.14
640.09	27393.63
640.24	27037.87
640.39	26967.65
640.54	26864.67
640.68	27199.37
640.83	27159.58
640.98	26792.11
641.13	26625.93
641.27	27222.77
641.42	27026.17
641.57	27058.93
641.72	26991.06
641.86	26565.08
642.01	26735.94
642.16	26937.23
642.31	26733.60
642.45	26993.40
642.60	26324.01
642.75	26434.01
642.90	26656.36
643.04	26562.74
643.19	26684.45
643.34	26820.20
643.48	26803.82
643.63	26806.16
643.78	27040.21
643.93	27007.44
644.07	26916.16
644.22	26747.64
644.37	26567.42
644.51	26740.62
644.66	26693.81
644.81	26302.94
644.95	26473.80
645.10	26539.33
645.25	26579.12
645.39	26480.82
645.54	26639.98
645.69	26277.19
645.83	26256.13
645.98	26562.74
646.13	26778.07
646.27	26759.34
646.42	26539.33
646.57	26356.77
646.71	26155.49
646.86	26206.98
647.00	26497.20
647.15	26202.30
647.30	26625.93
647.44	26338.05
647.59	26352.09
647.74	26218.68
647.88	26139.10
648.03	26380.18
648.17	26141.44
648.32	26401.24
648.47	26284.22
648.61	26260.81
648.76	26291.24
648.90	26384.86
649.05	26345.07
649.20	26225.70
649.34	26206.98
649.49	25619.50
649.63	25619.50
649.78	26071.23
649.92	25902.71
650.07	26216.34
650.21	25984.63
650.36	26099.31
650.51	25797.38
650.65	26181.23
650.80	26192.94
650.94	25860.58
651.09	26012.71
651.23	25853.56
651.38	25722.49
651.52	25687.38
651.67	25865.26
651.81	26106.34
651.96	25919.09
652.10	25762.28
652.25	25720.15
652.39	25734.19
652.54	25724.83
652.68	25972.92
652.83	25900.37
652.97	25792.70
653.12	25832.49
653.26	25645.25
653.41	25624.18
653.55	25626.53
653.70	25876.96
653.84	25893.35
653.99	25535.24
654.13	25310.55
654.27	25642.91
654.42	25577.37
654.56	25568.01
654.71	25504.82
654.85	25956.54
655.00	25565.67
655.14	25432.26
655.29	25324.60
655.43	25689.72
655.57	25195.87
655.72	25123.31
655.86	25516.52
656.01	25366.73
656.15	25443.96
656.30	25261.40
656.44	25212.25
656.58	25132.67
656.73	25493.12
656.87	25549.29
657.01	25282.47
657.16	25249.70
657.30	25266.08
657.45	25179.48
657.59	25221.61
657.73	24964.15
657.88	25268.42
658.02	24819.04
658.16	25280.13
658.31	25116.29
658.45	25041.39
658.60	24716.06
658.74	24741.80
658.88	24790.95
659.03	25088.20
659.17	24940.75
659.31	24999.26
659.46	25010.96
659.60	25020.33
659.74	24786.27
659.89	24816.70
660.03	24709.04
660.17	24884.58
660.32	24694.99
660.46	24587.33
660.60	24374.34
660.74	24114.54
660.89	24575.62
661.03	24397.74
661.17	24357.96
661.32	24336.89
661.46	24425.83
661.60	24449.24
661.74	24517.11
661.89	24320.51
662.03	24264.33
662.17	24500.73
662.31	24217.52
662.46	24444.56
662.60	24329.87
662.74	24290.08
662.88	23798.57
663.03	24074.75
663.17	24414.13
663.31	24067.73
663.45	24123.90
663.60	24142.63
663.74	23882.83
663.88	23894.53
664.02	23770.48
664.17	23831.33
664.31	24013.90
664.45	23857.08
664.59	23992.83
664.73	23913.25
664.88	23871.12
665.02	23522.38
665.16	23381.95
665.30	23449.83
665.44	23793.89
665.59	23466.21
665.73	23674.52
665.87	23330.46
666.01	23498.98
666.15	23728.35
666.29	23398.34
666.44	23601.96
666.58	23124.49
666.72	23358.55
666.86	23293.01
667.00	23433.44
667.14	23344.50
667.28	23183.01
667.43	23498.98
667.57	22904.48
667.71	22958.31
667.85	23159.60
667.99	22932.57
668.13	22867.03
668.27	22876.40
668.41	23117.47
668.56	22548.72
668.70	22572.13
668.84	23185.35
668.98	22647.02
669.12	22775.75
669.26	22799.16
669.40	22668.09
669.54	22410.63
669.68	22726.60
669.82	22401.27
669.96	22490.21
670.10	22267.86
670.25	22251.47
670.39	22394.25
670.53	22565.10
670.67	22237.43
670.81	22363.82
670.95	22415.31
671.09	22530.00
671.23	22349.78
671.37	22459.78
671.51	22237.43
671.65	22291.26
671.79	22008.06
671.93	22113.38
672.07	22118.06
672.21	21902.73
672.35	21771.66
672.49	21628.89
672.63	21586.76
672.77	21493.14
672.91	21565.70
673.05	21661.66
673.19	21745.92
673.33	21659.32
673.47	21617.19
673.61	21797.41
673.75	21516.54
673.89	21612.51
674.03	21619.53
674.17	21490.80
674.31	21617.19
674.45	21111.63
674.59	21434.63
674.73	21233.34
674.87	21355.05
675.01	21137.38
675.15	20992.26
675.29	21006.31
675.43	20479.69
675.56	21074.18
675.70	20821.41
675.84	21149.08
675.98	20472.67
676.12	21076.52
676.26	21137.38
676.40	21074.18
676.54	21041.42
676.68	20835.45
676.82	20205.84
676.96	20386.07
677.10	20266.70
677.23	20194.14
677.37	20259.68
677.51	20084.14
677.65	20224.57
677.79	19950.73
677.93	19995.20
678.07	19814.98
678.21	19878.17
678.34	19730.72
678.48	19777.53
678.62	19716.67
678.76	19735.40
678.90	19688.59
679.04	19772.85
679.18	19793.91
679.31	19208.78
679.45	19414.74
679.59	19337.51
679.73	19061.32
679.87	19152.60
680.00	19159.63
680.14	18998.13
680.28	19040.26
680.42	18841.31
680.56	18934.93
680.70	18970.04
680.83	18937.27
680.97	19126.86
681.11	19063.66
681.25	18885.78
681.39	18656.41
681.52	18792.16
681.66	18534.70
681.80	18654.07
681.94	18305.33
682.07	18691.52
682.21	18387.25
682.35	18099.36
682.49	17991.70
682.62	18054.89
682.76	18148.51
682.90	18059.57
683.04	17928.50
683.17	18052.55
683.31	18127.45
683.45	18167.24
683.59	18085.32
683.72	17839.56
683.86	17743.60
684.00	17535.29
684.13	17493.16
684.27	17631.26
684.41	17593.81
684.55	17479.12
684.68	17078.89
684.82	17362.09
684.96	16872.92
685.09	17214.64
685.23	17188.89
685.37	16973.56
685.50	17224.00
685.64	17207.62
685.78	17219.32
685.91	17015.69
686.05	16903.35
686.19	16882.28
686.32	16798.02
686.46	16851.86
686.60	16638.87
686.73	16723.13
686.87	16528.86
687.01	16624.83
687.14	16137.99
687.28	16130.97
687.42	16030.33
687.55	16051.39
687.69	16411.84
687.82	16095.86
687.96	16020.97
688.10	16105.23
688.23	15969.48
688.37	15964.79
688.50	15950.75
688.64	15707.34
688.78	15829.04
688.91	15735.42
689.05	15555.20
689.18	15627.76
689.32	15243.91
689.46	15442.85
689.59	15384.34
689.73	15669.89
689.86	15374.98
690.00	15311.78
690.13	15300.08
690.27	15183.06
690.41	15171.35
690.54	14890.49
690.68	15400.72
690.81	15112.84
690.95	15218.16
691.08	14984.11
691.22	14890.49
691.35	14785.16
691.49	14958.36
691.62	14775.80
691.76	14518.34
691.89	14670.48
692.03	14551.11
692.16	14429.40
692.30	14317.06
692.43	14237.48
692.57	14408.34
692.70	14150.88
692.84	14324.08
692.97	14108.75
693.11	14377.91
693.24	14036.19
693.38	14101.73
693.51	14090.02
693.65	13919.17
693.78	13963.64
693.92	14038.53
694.05	13734.26
694.19	13830.23
694.32	13689.79
694.45	13727.24
694.59	13544.68
694.72	13270.84
694.86	13462.76
694.99	13458.08
695.13	13130.41
695.26	13217.01
695.39	13139.77
695.53	13233.39
695.66	13170.19
695.80	13195.94
695.93	13198.28
696.07	13163.17
696.20	13064.87
696.33	13004.02
696.47	12936.14
696.60	12741.88
696.73	12910.40
696.87	12662.30
697.00	12648.26
697.14	12732.51
697.27	12465.69
697.40	12287.81
697.54	12418.88
697.67	12322.92
697.80	12383.77
697.94	12362.71
698.07	12102.91
698.21	12147.38
698.34	12315.90
698.47	12154.40
698.61	12292.49
698.74	12243.34
698.87	12025.67
699.01	11800.98
699.14	12112.27
699.27	11974.18
699.40	11768.21
699.54	11541.18
699.67	11758.85
699.80	11590.33
699.94	11477.99
700.07	11485.01
700.20	11435.86
700.34	11307.13
700.47	11382.03
700.60	11459.26
700.73	11417.13
700.87	11234.57
701.00	11154.99
701.13	11124.57
701.26	11080.10
701.40	11241.59
701.53	11239.25
701.66	11033.29
701.79	10771.15
701.93	10743.06
702.06	10993.50
702.19	10705.61
702.32	10890.51
702.46	10832.00
702.59	10684.55
702.72	10410.70
702.85	10569.86
702.99	10380.28
703.12	10476.24
703.25	10370.91
703.38	10441.13
703.51	10361.55
703.65	10473.90
703.78	10143.88
703.91	10160.27
704.04	10298.36
704.17	10134.52
704.31	10328.78
704.44	9951.96
704.57	10047.92
704.70	9834.93
704.83	9561.09
704.96	9760.03
705.10	9809.19
705.23	9708.54
>>>>>End Processed Spectral Data<<<<<
