SpectraSuite Data File
++++++++++++++++++++++++++++++++++++
Date: Fri Oct 18 13:58:31 GMT-05:00 2013
User: bianchi
Dark Spectrum Present: No
Reference Spectrum Present: No
Number of Sampled Component Spectra: 1
Spectrometers: USB2+H05261
Integration Time (usec): 50000 (USB2+H05261)
Spectra Averaged: 1 (USB2+H05261)
Boxcar Smoothing: 0 (USB2+H05261)
Correct for Electrical Dark: No (USB2+H05261)
Strobe/Lamp Enabled: No (USB2+H05261)
Correct for Detector Non-linearity: No (USB2+H05261)
Correct for Stray Light: No (USB2+H05261)
Number of Pixels in Processed Spectrum: 2048
>>>>>Begin Processed Spectral Data<<<<<
365.73	0.00
365.92	0.00
366.12	0.00
366.32	0.00
366.52	0.00
366.72	0.00
366.91	0.00
367.11	0.00
367.31	0.00
367.51	0.00
367.70	0.00
367.90	0.00
368.10	0.00
368.30	0.00
368.49	0.00
368.69	0.00
368.89	0.00
369.09	0.00
369.28	0.00
369.48	0.00
369.68	0.00
369.87	0.00
370.07	0.00
370.27	0.00
370.47	2.34
370.66	2.34
370.86	93.62
371.06	154.48
371.25	159.16
371.45	159.16
371.65	140.43
371.84	126.39
372.04	229.37
372.24	145.11
372.44	121.71
372.63	168.52
372.83	224.69
373.03	145.11
373.22	100.64
373.42	234.05
373.62	147.45
373.81	241.08
374.01	224.69
374.21	201.29
374.40	220.01
374.60	264.48
374.79	189.58
374.99	231.71
375.19	124.05
375.38	273.84
375.58	194.26
375.78	212.99
375.97	257.46
376.17	248.10
376.37	241.08
376.56	259.80
376.76	301.93
376.95	287.89
377.15	196.60
377.35	276.18
377.54	250.44
377.74	273.84
377.93	264.48
378.13	229.37
378.33	252.78
378.52	257.46
378.72	203.63
378.91	266.82
379.11	330.02
379.31	304.27
379.50	297.25
379.70	273.84
379.89	360.44
380.09	348.74
380.28	234.05
380.48	285.55
380.68	271.50
380.87	292.57
381.07	280.86
381.26	262.14
381.46	276.18
381.65	278.52
381.85	332.36
382.04	367.46
382.24	250.44
382.43	388.53
382.63	374.49
382.83	294.91
383.02	208.31
383.22	418.96
383.41	390.87
383.61	362.78
383.80	376.83
384.00	367.46
384.19	440.02
384.39	388.53
384.58	397.89
384.78	423.64
384.97	379.17
385.17	383.85
385.36	322.99
385.56	397.89
385.75	299.59
385.95	358.10
386.14	334.70
386.34	428.32
386.53	395.55
386.72	533.64
386.92	400.23
387.11	383.85
387.31	447.04
387.50	386.19
387.70	421.30
387.89	390.87
388.09	404.91
388.28	393.21
388.48	416.62
388.67	425.98
388.86	505.56
389.06	440.02
389.25	475.13
389.45	470.45
389.64	444.70
389.84	458.74
390.03	458.74
390.22	437.68
390.42	416.62
390.61	437.68
390.81	435.34
391.00	526.62
391.19	454.06
391.39	500.87
391.58	491.51
391.78	470.45
391.97	489.17
392.16	470.45
392.36	482.15
392.55	528.96
392.75	535.98
392.94	519.60
393.13	545.34
393.33	554.71
393.52	489.17
393.71	489.17
393.91	552.37
394.10	578.11
394.29	566.41
394.49	524.28
394.68	517.26
394.88	468.11
395.07	493.85
395.26	510.24
395.46	610.88
395.65	643.65
395.84	582.79
396.04	641.31
396.23	585.13
396.42	664.71
396.62	650.67
396.81	608.54
397.00	615.56
397.19	627.26
397.39	613.22
397.58	615.56
397.77	664.71
397.97	699.82
398.16	681.10
398.35	727.91
398.55	627.26
398.74	730.25
398.93	758.33
399.12	660.03
399.32	554.71
399.51	674.07
399.70	805.14
399.90	704.50
400.09	784.08
400.28	695.14
400.47	823.87
400.67	809.83
400.86	690.46
401.05	692.80
401.24	788.76
401.44	730.25
401.63	786.42
401.82	751.31
402.01	798.12
402.21	770.04
402.40	805.14
402.59	842.59
402.78	741.95
402.97	800.46
403.17	889.40
403.36	851.96
403.55	795.78
403.74	830.89
403.93	854.30
404.13	917.49
404.32	856.64
404.51	912.81
404.70	997.07
404.89	851.96
405.09	873.02
405.28	945.58
405.47	936.21
405.66	912.81
405.85	901.11
406.05	987.71
406.24	961.96
406.43	957.28
406.62	1001.75
406.81	1013.45
407.00	957.28
407.20	1013.45
407.39	987.71
407.58	1022.81
407.77	1088.35
407.96	1041.54
408.15	1104.73
408.34	1100.05
408.54	1008.77
408.73	936.21
408.92	1118.78
409.11	1111.75
409.30	1004.09
409.49	1153.88
409.68	1086.01
409.87	1069.62
410.07	1144.52
410.26	1184.31
410.45	1088.35
410.64	1200.69
410.83	1196.01
411.02	1188.99
411.21	1245.16
411.40	1125.80
411.59	1193.67
411.78	1214.74
411.98	1247.51
412.17	1308.36
412.36	1254.53
412.55	1378.58
412.74	1277.93
412.93	1420.71
413.12	1322.40
413.31	1362.19
413.50	1432.41
413.69	1362.19
413.88	1334.11
414.07	1413.68
414.26	1413.68
414.45	1448.79
414.64	1416.02
414.83	1460.49
415.02	1441.77
415.22	1399.64
415.41	1448.79
415.60	1390.28
415.79	1572.84
415.98	1647.74
416.17	1591.56
416.36	1509.65
416.55	1582.20
416.74	1549.43
416.93	1577.52
417.12	1643.06
417.31	1680.50
417.50	1621.99
417.69	1612.63
417.88	1720.29
418.07	1696.89
418.26	1722.63
418.45	1703.91
418.64	1788.17
418.83	1703.91
419.02	1673.48
419.21	1760.08
419.39	1778.81
419.58	1722.63
419.77	1757.74
419.96	1842.00
420.15	1783.49
420.34	1900.52
420.53	1813.92
420.72	1820.94
420.91	1961.37
421.10	1818.60
421.29	1935.62
421.48	1785.83
421.67	1898.17
421.86	1827.96
422.05	1785.83
422.24	1956.69
422.43	1980.09
422.61	2010.52
422.80	2008.18
422.99	2066.69
423.18	1980.09
423.37	1973.07
423.56	2005.84
423.75	1952.01
423.94	1898.17
424.13	1818.60
424.32	1870.09
424.50	2017.54
424.69	1968.39
424.88	1982.43
425.07	1919.24
425.26	1989.46
425.45	1912.22
425.64	2017.54
425.83	2064.35
426.01	2008.18
426.20	1994.14
426.39	2080.74
426.58	1998.82
426.77	2193.08
426.96	2111.16
427.15	2062.01
427.33	2115.84
427.52	2179.04
427.71	2160.31
427.90	2169.68
428.09	2242.23
428.28	2176.70
428.46	2221.17
428.65	2146.27
428.84	2120.53
429.03	2307.77
429.22	2038.61
429.40	2104.14
429.59	2284.36
429.78	2167.34
429.97	2157.97
430.16	2183.72
430.34	2298.41
430.53	2275.00
430.72	2310.11
430.91	2155.63
431.10	2218.83
431.28	2275.00
431.47	2424.80
431.66	2509.05
431.85	2356.92
432.03	2314.79
432.22	2464.58
432.41	2406.07
432.60	2436.50
432.79	2448.20
432.97	2427.14
433.16	2413.09
433.35	2415.43
433.54	2459.90
433.72	2445.86
433.91	2483.31
434.10	2438.84
434.28	2614.38
434.47	2455.22
434.66	2539.48
434.85	2495.01
435.03	2534.80
435.22	2558.21
435.41	2633.10
435.59	2511.39
435.78	2590.97
435.97	2621.40
436.16	2729.06
436.34	2605.02
436.53	2715.02
436.72	2750.13
436.90	2469.27
437.09	2708.00
437.28	2747.79
437.46	2658.85
437.65	2839.07
437.84	2700.98
438.02	2871.84
438.21	2689.28
438.40	2836.73
438.58	2839.07
438.77	2803.96
438.96	2775.88
439.14	2843.75
439.33	3014.61
439.52	3038.02
439.70	2895.24
439.89	2932.69
440.08	2970.14
440.26	3119.93
440.45	2881.20
440.63	2939.71
440.82	3105.89
441.01	3070.78
441.19	3084.83
441.38	3131.64
441.57	3157.38
441.75	3227.60
441.94	3094.19
442.12	3225.26
442.31	3353.99
442.50	3176.11
442.68	3197.17
442.87	3253.34
443.05	3260.37
443.24	3407.82
443.43	3218.24
443.61	3288.45
443.80	3463.99
443.98	3155.04
444.17	3173.77
444.35	3426.54
444.54	3358.67
444.73	3379.73
444.91	3421.86
445.10	3386.76
445.28	3342.28
445.47	3412.50
445.65	3288.45
445.84	3466.33
446.02	3391.44
446.21	3391.44
446.39	3337.60
446.58	3524.85
446.77	3400.80
446.95	3375.05
447.14	3377.39
447.32	3382.07
447.51	3398.46
447.69	3391.44
447.88	3501.44
448.06	3482.72
448.25	3419.52
448.43	3386.76
448.62	3548.25
448.80	3494.42
448.99	3485.06
449.17	3485.06
449.36	3522.51
449.54	3597.40
449.73	3721.45
449.91	3543.57
450.10	3566.98
450.28	3730.81
450.46	3676.98
450.65	3651.24
450.83	3672.30
451.02	3604.42
451.20	3716.77
451.39	3730.81
451.57	3637.19
451.76	3784.65
451.94	3676.98
452.13	3733.15
452.31	3859.54
452.49	3747.20
452.68	3742.52
452.86	3786.99
453.05	3810.39
453.23	3882.95
453.42	3688.68
453.60	3932.10
453.78	3915.72
453.97	3810.39
454.15	3803.37
454.34	3779.97
454.52	3960.19
454.70	3957.85
454.89	3927.42
455.07	4049.13
455.26	3976.57
455.44	4081.89
455.62	4030.40
455.81	3925.08
455.99	4007.00
456.17	4035.08
456.36	3983.59
456.54	4163.81
456.73	4205.94
456.91	4140.41
457.09	4257.43
457.28	4198.92
457.46	4184.88
457.64	4252.75
457.83	4177.86
458.01	4227.01
458.19	4397.87
458.38	4208.28
458.56	4505.53
458.74	4351.06
458.93	4360.42
459.11	4341.69
459.29	4360.42
459.48	4341.69
459.66	4444.68
459.84	4430.63
460.03	4496.17
460.21	4547.66
460.39	4393.19
460.57	4472.76
460.76	4447.02
460.94	4545.32
461.12	4414.25
461.31	4613.20
461.49	4545.32
461.67	4437.66
461.85	4648.30
462.04	4575.75
462.22	4669.37
462.40	4657.67
462.59	4620.22
462.77	4657.67
462.95	4617.88
463.13	4723.20
463.32	4758.31
463.50	4842.57
463.68	4760.65
463.86	4629.58
464.05	4697.46
464.23	4732.56
464.41	4819.16
464.59	4720.86
464.78	4791.08
464.96	4744.27
465.14	4648.30
465.32	4931.51
465.50	4847.25
465.69	4992.36
465.87	5011.09
466.05	4887.04
466.23	4835.55
466.41	4847.25
466.60	5097.69
466.78	4835.55
466.96	4978.32
467.14	4997.04
467.32	5142.16
467.51	4971.30
467.69	4851.93
467.87	5060.24
468.05	5123.43
468.23	5095.35
468.41	4959.60
468.60	5156.20
468.78	5235.78
468.96	5020.45
469.14	5179.61
469.32	5343.44
469.50	5085.98
469.69	5139.82
469.87	5247.48
470.05	5188.97
470.23	5345.78
470.41	5259.18
470.59	5294.29
470.77	5420.68
470.95	5376.21
471.14	5380.89
471.32	5179.61
471.50	5406.64
471.68	5584.52
471.86	5551.75
472.04	5701.54
472.22	5664.10
472.40	5582.18
472.58	5526.00
472.77	5589.20
472.95	5816.23
473.13	5895.81
473.31	5818.57
473.49	5713.25
473.67	5666.44
473.85	5664.10
474.03	5879.43
474.21	5977.73
474.39	6045.60
474.57	6150.93
474.75	5949.64
474.93	6052.63
475.12	5912.19
475.30	5994.11
475.48	6059.65
475.66	6099.44
475.84	6279.66
476.02	6303.06
476.20	6150.93
476.38	6270.30
476.56	6392.00
476.74	6403.71
476.92	6361.58
477.10	6387.32
477.28	6656.48
477.46	6525.41
477.64	6502.01
477.82	6729.04
478.00	6815.64
478.18	6743.08
478.36	7037.99
478.54	6923.30
478.72	6916.28
478.90	7077.78
479.08	7002.88
479.26	7052.03
479.44	7145.66
479.62	7213.53
479.80	7194.81
479.98	7279.07
480.16	7393.75
480.34	7368.01
480.52	7501.42
480.70	7368.01
480.88	7428.86
481.06	7412.48
481.24	7506.10
481.41	7789.30
481.59	7786.96
481.77	7840.79
481.95	7793.98
482.13	7852.50
482.31	7992.93
482.49	8084.21
482.67	7901.65
482.85	8088.89
483.03	8313.58
483.21	8381.46
483.39	8383.80
483.57	8486.78
483.74	8325.29
483.92	8528.91
484.10	8564.02
484.28	8807.44
484.46	8924.46
484.64	8872.97
484.82	8786.37
485.00	8947.87
485.18	9327.03
485.35	9186.60
485.53	9235.75
485.71	9198.31
485.89	9315.33
486.07	9317.67
486.25	9394.91
486.43	9535.34
486.61	9568.11
486.78	9586.83
486.96	9584.49
487.14	9940.26
487.32	9769.40
487.50	9933.23
487.68	10136.86
487.85	10293.68
488.03	10176.65
488.21	10450.49
488.39	10441.13
488.57	10363.89
488.75	10415.38
488.92	10719.65
489.10	10619.01
489.28	10583.90
489.46	10958.39
489.64	10846.04
489.81	10972.43
489.99	11138.61
490.17	11082.44
490.35	11321.17
490.53	11304.79
490.70	11527.14
490.88	11564.59
491.06	11555.22
491.24	11508.41
491.41	11786.94
491.59	11662.89
491.77	12013.97
491.95	12013.97
492.13	11927.37
492.30	11929.71
492.48	11812.68
492.66	12023.33
492.84	12243.34
493.01	12311.22
493.19	12348.67
493.37	12362.71
493.54	12568.68
493.72	12432.93
493.90	12674.00
494.08	12556.97
494.25	12517.18
494.43	12765.28
494.61	13036.78
494.79	12938.48
494.96	13254.45
495.14	13298.92
495.32	13219.35
495.49	13240.41
495.67	13362.12
495.85	13217.01
496.02	13631.28
496.20	13699.16
496.38	13575.11
496.55	13760.01
496.73	13902.78
496.91	13858.31
497.09	14258.54
497.26	14017.47
497.44	13949.59
497.62	13970.66
497.79	14197.69
497.97	14291.31
498.14	14649.41
498.32	14108.75
498.50	14691.54
498.67	14602.60
498.85	14527.71
499.03	14544.09
499.20	14640.05
499.38	14743.03
499.56	14941.98
499.73	15166.67
499.91	15154.97
500.08	14834.32
500.26	14981.77
500.44	15002.83
500.61	15035.60
500.79	15218.16
500.97	15274.34
501.14	15356.25
501.32	15580.95
501.49	15901.60
501.67	15602.01
501.84	15686.27
502.02	15587.97
502.20	15899.26
502.37	15658.18
502.55	16020.97
502.72	15878.19
502.90	16039.69
503.07	15850.11
503.25	15929.69
503.43	16240.98
503.60	16189.49
503.78	16306.51
503.95	16285.45
504.13	16376.73
504.30	16355.66
504.48	16388.43
504.65	16690.36
504.83	16690.36
505.01	16594.40
505.18	16610.78
505.36	17032.08
505.53	16538.23
505.71	16650.57
505.88	16912.71
506.06	16549.93
506.23	17242.73
506.41	17214.64
506.58	17163.15
506.76	17097.61
506.93	16945.48
507.11	16968.88
507.28	17111.66
507.46	17188.89
507.63	17266.13
507.81	17469.76
507.98	17429.97
508.16	17404.22
508.33	17411.25
508.50	17373.80
508.68	17657.00
508.85	17439.33
509.03	17743.60
509.20	17816.16
509.38	18033.83
509.55	17905.10
509.73	18136.81
509.90	17799.77
510.08	18001.06
510.25	17745.94
510.42	18092.34
510.60	18148.51
510.77	18345.12
510.95	18253.84
511.12	18176.60
511.30	17972.97
511.47	18466.83
511.64	18370.86
511.82	18628.32
511.99	18668.11
512.17	18752.37
512.34	18838.97
512.51	18918.55
512.69	18937.27
512.86	18775.78
513.04	19124.52
513.21	19140.90
513.38	19180.69
513.56	19346.87
513.73	19068.34
513.90	18974.72
514.08	18820.25
514.25	19218.14
514.43	19126.86
514.60	19264.95
514.77	19449.85
514.95	19274.31
515.12	19398.36
515.29	19470.92
515.47	19506.02
515.64	19648.80
515.81	19379.64
515.99	19747.10
516.16	19922.64
516.33	19449.85
516.51	20046.69
516.68	19861.79
516.85	19840.72
517.03	20056.05
517.20	20173.08
517.37	20283.08
517.54	20245.63
517.72	20467.98
517.89	19936.68
518.06	20095.84
518.24	20128.61
518.41	20126.27
518.58	20659.91
518.75	20577.99
518.93	20444.58
519.10	20652.89
519.27	20563.95
519.45	20479.69
519.62	20521.82
519.79	20402.45
519.96	20521.82
520.14	20987.58
520.31	20631.82
520.48	20858.85
520.65	20884.60
520.83	20978.22
521.00	21116.31
521.17	21050.78
521.34	21071.84
521.52	21202.91
521.69	21233.34
521.86	21074.18
522.03	21111.63
522.20	21289.51
522.38	21280.15
522.55	21671.02
522.72	21085.89
522.89	21404.20
523.07	21809.11
523.24	21504.84
523.41	21759.96
523.58	21350.37
523.75	21818.47
523.92	21668.68
524.10	21649.96
524.27	21862.94
524.44	21832.52
524.61	22122.74
524.78	21968.27
524.96	22071.25
525.13	21907.41
525.30	21867.63
525.47	22286.58
525.64	22052.53
525.81	22302.96
525.98	22197.64
526.16	22443.40
526.33	22370.84
526.50	22436.38
526.67	22286.58
526.84	22223.39
527.01	22061.89
527.18	22471.48
527.36	22410.63
527.53	22735.96
527.70	22766.39
527.87	22799.16
528.04	22651.70
528.21	22684.47
528.38	22754.69
528.55	22874.06
528.72	22794.48
528.89	23084.70
529.07	22710.22
529.24	22899.80
529.41	22913.84
529.58	23000.44
529.75	22955.97
529.92	22995.76
530.09	22995.76
530.26	23304.71
530.43	23358.55
530.60	22836.61
530.77	23190.03
530.94	23491.96
531.11	23054.28
531.28	23227.48
531.46	23119.81
531.63	23166.62
531.80	23616.01
531.97	23569.19
532.14	23765.80
532.31	23447.49
532.48	23566.85
532.65	23325.78
532.82	23461.53
532.99	23524.72
533.16	23800.91
533.33	23885.17
533.50	23812.61
533.67	24009.22
533.84	24004.53
534.01	24051.34
534.18	23805.59
534.35	23931.98
534.52	23859.42
534.69	24203.48
534.86	24121.56
535.03	24051.34
535.20	24395.40
535.37	24208.16
535.54	24151.99
535.71	23733.03
535.88	24269.01
536.05	23875.80
536.22	24498.39
536.38	24500.73
536.55	24620.10
536.72	24751.17
536.89	24608.39
537.06	24610.73
537.23	24657.54
537.40	24460.94
537.57	24491.37
537.74	24584.99
537.91	24889.26
538.08	24521.79
538.25	24613.07
538.42	24622.44
538.59	24786.27
538.75	24823.72
538.92	24926.71
539.09	25067.14
539.26	24786.27
539.43	24634.14
539.60	24924.36
539.77	24926.71
539.94	24959.47
540.11	25315.23
540.28	24954.79
540.44	25181.82
540.61	25083.52
540.78	24987.56
540.95	25376.09
541.12	25060.12
541.29	25069.48
541.46	25020.33
541.62	25284.81
541.79	25184.16
541.96	25172.46
542.13	24978.20
542.30	25174.80
542.47	25755.26
542.63	25649.93
542.80	25673.34
542.97	25603.12
543.14	25879.30
543.31	25598.44
543.48	25713.13
543.64	25919.09
543.81	25848.88
543.98	26012.71
544.15	26153.15
544.32	26235.06
544.48	26218.68
544.65	25757.60
544.82	26092.29
544.99	25991.65
545.16	26228.04
545.32	25879.30
545.49	26192.94
545.66	26487.84
545.83	26157.83
546.00	26040.80
546.16	26127.40
546.33	26258.47
546.50	25867.60
546.67	26459.76
546.83	26192.94
547.00	26185.91
547.17	26457.42
547.34	26490.18
547.50	26551.04
547.67	26277.19
547.84	26153.15
548.00	26632.96
548.17	26345.07
548.34	26455.08
548.51	26841.26
548.67	26426.99
548.84	26808.50
549.01	26843.60
549.18	26391.88
549.34	26529.97
549.51	26757.00
549.68	26754.66
549.84	26654.02
550.01	26977.01
550.18	26630.62
550.34	27108.08
550.51	26895.10
550.68	27297.67
550.84	27075.32
551.01	26855.31
551.18	26883.39
551.34	26609.55
551.51	26522.95
551.68	27264.90
551.84	27112.77
552.01	26745.30
552.18	27051.91
552.34	26941.91
552.51	27292.99
552.68	27150.21
552.84	26981.70
553.01	27213.41
553.18	27229.79
553.34	27241.50
553.51	27398.31
553.67	27468.53
553.84	27716.62
554.01	27564.49
554.17	27152.55
554.34	27391.29
554.51	27527.04
554.67	27339.80
554.84	27667.47
555.00	27548.11
555.17	27323.41
555.33	27480.23
555.50	28084.09
555.67	27693.22
555.83	27709.60
556.00	27353.84
556.16	27882.80
556.33	27405.33
556.50	27826.63
556.66	27557.47
556.83	27824.29
556.99	27798.54
557.16	28009.19
557.32	27910.89
557.49	27946.00
557.65	27541.08
557.82	27777.48
557.98	27859.40
558.15	28074.73
558.32	28133.24
558.48	27892.16
558.65	27978.76
558.81	28325.16
558.98	28212.82
559.14	27887.48
559.31	27943.66
559.47	27803.22
559.64	27702.58
559.80	28278.35
559.97	28163.67
560.13	28020.89
560.30	27828.97
560.46	28474.96
560.63	28161.33
560.79	27948.34
560.96	28404.74
561.12	28044.30
561.29	27744.71
561.45	28261.97
561.61	28283.03
561.78	28039.62
561.94	28369.63
562.11	28615.39
562.27	27934.29
562.44	28549.85
562.60	28231.54
562.77	28210.48
562.93	28084.09
563.10	27871.10
563.26	28287.71
563.42	28514.75
563.59	28245.58
563.75	28332.18
563.92	28404.74
564.08	28107.49
564.24	28489.00
564.41	28393.04
564.57	28182.39
564.74	28290.06
564.90	28685.61
565.07	28652.84
565.23	28734.76
565.39	28074.73
565.56	28807.31
565.72	28479.64
565.88	28662.20
566.05	28297.08
566.21	28360.27
566.38	28531.13
566.54	28561.56
566.70	28549.85
566.87	28847.10
567.03	28533.47
567.19	28730.08
567.36	28926.68
567.52	28718.37
567.68	28802.63
567.85	28781.57
568.01	28669.22
568.17	28400.06
568.34	28858.81
568.50	29036.69
568.66	28472.62
568.83	28769.86
568.99	28552.20
569.15	28627.09
569.32	28573.26
569.48	28587.30
569.64	28783.91
569.81	28699.65
569.97	28526.45
570.13	28643.48
570.30	28760.50
570.46	28582.62
570.62	28893.91
570.78	28397.72
570.95	28535.81
571.11	28793.27
571.27	29181.80
571.43	28503.04
571.60	28741.78
571.76	28484.32
571.92	28641.14
572.09	28659.86
572.25	28982.85
572.41	29102.22
572.57	28896.25
572.74	28961.79
572.90	28563.90
573.06	28816.68
573.22	28552.20
573.38	29017.96
573.55	28828.38
573.71	29310.53
573.87	29364.36
574.03	28816.68
574.20	29216.91
574.36	28760.50
574.52	28933.70
574.68	28975.83
574.84	28886.89
575.01	29336.27
575.17	28634.11
575.33	29064.77
575.49	29001.58
575.65	29263.72
575.82	28978.17
575.98	28973.49
576.14	29308.19
576.30	28884.55
576.46	29347.98
576.62	28992.22
576.79	28652.84
576.95	28900.94
577.11	29179.46
577.27	29139.67
577.43	29001.58
577.59	29191.16
577.75	29116.26
577.92	29158.39
578.08	28657.52
578.24	29186.48
578.40	29064.77
578.56	28809.65
578.72	29326.91
578.88	29158.39
579.04	29266.06
579.21	29308.19
579.37	29008.60
579.53	29289.46
579.69	28732.42
579.85	29032.00
580.01	29048.39
580.17	29116.26
580.33	29188.82
580.49	29188.82
580.65	29249.67
580.82	29202.86
580.98	29158.39
581.14	29383.09
581.30	29270.74
581.46	28884.55
581.62	29223.93
581.78	29001.58
581.94	29319.89
582.10	29289.46
582.26	29296.49
582.42	29242.65
582.58	29483.73
582.74	28776.89
582.90	29111.58
583.06	29502.45
583.22	29198.18
583.38	29120.95
583.54	28964.13
583.70	28987.53
583.86	29074.13
584.02	28924.34
584.18	29233.29
584.34	29333.93
584.50	29083.50
584.66	29404.15
584.82	28999.24
584.98	29717.78
585.14	29076.48
585.30	28994.56
585.46	29050.73
585.62	29069.45
585.78	29085.84
585.94	29191.16
586.10	29186.48
586.26	29565.65
586.42	29462.66
586.58	29502.45
586.74	29092.86
586.90	29359.68
587.06	29036.69
587.22	28858.81
587.38	29177.12
587.54	29273.08
587.70	29514.16
587.86	28952.43
588.02	29336.27
588.18	29825.45
588.34	29432.24
588.49	29469.69
588.65	29205.20
588.81	29586.71
588.97	29319.89
589.13	29191.16
589.29	29254.36
589.45	29516.50
589.61	29376.06
589.77	29673.31
589.93	29565.65
590.08	29745.87
590.24	29518.84
590.40	29528.20
590.56	29465.00
590.72	29495.43
590.88	29282.44
591.04	29514.16
591.20	29645.23
591.35	29331.59
591.51	29923.75
591.67	30199.93
591.83	30213.98
591.99	29462.66
592.15	29560.97
592.31	29486.07
592.46	29493.09
592.62	29406.49
592.78	29263.72
592.94	29352.66
593.10	29383.09
593.26	29818.42
593.41	29844.17
593.57	29706.08
593.73	29610.12
593.89	29675.65
594.05	29785.66
594.20	29481.39
594.36	29675.65
594.52	29783.32
594.68	29518.84
594.84	29219.25
594.99	29820.77
595.15	29682.67
595.31	29624.16
595.47	29408.83
595.62	29663.95
595.78	29413.51
595.94	29813.74
596.10	29823.11
596.25	29415.85
596.41	29769.27
596.57	29411.17
596.73	29385.43
596.88	29404.15
597.04	29731.83
597.20	29752.89
597.36	29736.51
597.51	30040.78
597.67	29979.92
597.83	29773.95
597.99	29675.65
598.14	29778.64
598.30	29621.82
598.46	29771.61
598.61	30054.82
598.77	29701.40
598.93	29773.95
599.09	29621.82
599.24	29916.73
599.40	29846.51
599.56	30092.27
599.71	29565.65
599.87	29675.65
600.03	29993.97
600.18	29633.52
600.34	29694.38
600.50	30015.03
600.65	29579.69
600.81	30242.06
600.97	30110.99
601.12	30302.92
601.28	30321.64
601.44	29898.00
601.59	30162.48
601.75	29572.67
601.91	29961.20
602.06	30052.48
602.22	29818.42
602.37	29404.15
602.53	29944.81
602.69	30181.21
602.84	29890.98
603.00	30003.33
603.16	29816.08
603.31	29612.46
603.47	29755.23
603.62	29867.58
603.78	29890.98
603.94	30171.85
604.09	29497.77
604.25	29788.00
604.40	29867.58
604.56	29837.15
604.71	29975.24
604.87	29930.77
605.03	29879.28
605.18	29802.04
605.34	29940.13
605.49	29783.32
605.65	29642.88
605.80	29727.14
605.96	29397.13
606.12	29188.82
606.27	29570.33
606.43	29731.83
606.58	29825.45
606.74	29418.19
606.89	29841.83
607.05	29752.89
607.20	29865.24
607.36	29909.71
607.51	29614.80
607.67	29605.44
607.82	29490.75
607.98	29539.90
608.13	29418.19
608.29	29893.32
608.44	29745.87
608.60	29472.03
608.75	30066.52
608.91	29893.32
609.06	29427.56
609.22	29834.81
609.37	29039.03
609.53	29364.36
609.68	29586.71
609.84	29612.46
609.99	29130.31
610.15	29413.51
610.30	29167.76
610.46	29331.59
610.61	29252.02
610.76	29539.90
610.92	29507.13
611.07	29347.98
611.23	29675.65
611.38	29670.97
611.54	29165.42
611.69	29177.12
611.84	29357.34
612.00	28900.94
612.15	29319.89
612.31	29425.22
612.46	29270.74
612.62	29500.11
612.77	29570.33
612.92	29298.83
613.08	29521.18
613.23	29268.40
613.39	28685.61
613.54	29387.77
613.69	29191.16
613.85	29139.67
614.00	29001.58
614.15	29207.55
614.31	28936.04
614.46	29123.29
614.62	29170.10
614.77	29256.70
614.92	28912.64
615.08	29296.49
615.23	29062.43
615.38	28936.04
615.54	28863.49
615.69	28795.61
615.84	29209.89
616.00	29310.53
616.15	28863.49
616.30	28973.49
616.46	29249.67
616.61	29156.05
616.76	29184.14
616.92	28692.63
617.07	28931.36
617.22	29123.29
617.37	28952.43
617.53	29006.26
617.68	29085.84
617.83	28987.53
617.99	28781.57
618.14	28730.08
618.29	28755.82
618.45	28648.16
618.60	28914.98
618.75	28730.08
618.90	28931.36
619.06	28811.99
619.21	28767.52
619.36	28776.89
619.51	28505.38
619.67	28224.52
619.82	28203.46
619.97	28844.76
620.12	28465.60
620.28	28339.21
620.43	28809.65
620.58	28706.67
620.73	28421.13
620.89	28898.59
621.04	28959.45
621.19	28570.92
621.34	28554.54
621.49	28170.69
621.65	28535.81
621.80	28414.10
621.95	28217.50
622.10	28268.99
622.25	28140.26
622.41	28379.00
622.56	28364.95
622.71	28465.60
622.86	28388.36
623.01	28393.04
623.16	28229.20
623.32	28140.26
623.47	28041.96
623.62	28107.49
623.77	28463.25
623.92	28140.26
624.07	28034.94
624.23	28252.61
624.38	28393.04
624.53	28184.73
624.68	28257.29
624.83	28285.37
624.98	28198.77
625.13	28079.41
625.29	28166.01
625.44	27908.55
625.59	27943.66
625.74	28016.21
625.89	27742.37
626.04	27777.48
626.19	28056.00
626.34	27917.91
626.49	27758.75
626.65	27690.88
626.80	27885.14
626.95	27587.89
627.10	27630.02
627.25	27332.78
627.40	27990.47
627.55	27646.41
627.70	27477.89
627.85	27578.53
628.00	27639.39
628.15	27580.87
628.30	27363.20
628.45	27660.45
628.60	27667.47
628.76	27854.72
628.91	27637.05
629.06	27896.85
629.21	27562.15
629.36	27751.73
629.51	27494.27
629.66	27309.37
629.81	27351.50
629.96	27592.58
630.11	27307.03
630.26	27285.97
630.41	27580.87
630.56	27339.80
630.71	27618.32
630.86	27103.40
631.01	27307.03
631.16	27632.36
631.31	27414.69
631.46	27239.15
631.61	27515.34
631.76	26995.74
631.91	27077.66
632.06	27175.96
632.21	27274.26
632.36	27243.84
632.51	26902.12
632.66	27232.13
632.81	27117.45
632.96	27332.78
633.10	27257.88
633.25	27049.57
633.40	27028.51
633.55	27058.93
633.70	27199.37
633.85	26881.05
634.00	26731.26
634.15	27049.57
634.30	26761.69
634.45	26904.46
634.60	26934.88
634.75	27351.50
634.90	26518.27
635.05	27274.26
635.19	27145.53
635.34	27187.66
635.49	27250.86
635.64	26764.03
635.79	26754.66
635.94	26675.09
636.09	27194.68
636.24	26717.22
636.39	26649.34
636.53	26803.82
636.68	26595.51
636.83	27005.10
636.98	26710.19
637.13	26703.17
637.28	26499.55
637.43	26703.17
637.57	26843.60
637.72	26986.38
637.87	26590.83
638.02	26747.64
638.17	26338.05
638.32	26553.38
638.46	26656.36
638.61	26806.16
638.76	26419.97
638.91	26101.65
639.06	26426.99
639.20	26478.48
639.35	26836.58
639.50	26349.75
639.65	26574.44
639.80	26593.17
639.94	26415.29
640.09	26576.78
640.24	26398.90
640.39	26426.99
640.54	26237.41
640.68	26136.76
640.83	26167.19
640.98	26394.22
641.13	25998.67
641.27	26274.85
641.42	26157.83
641.57	26139.10
641.72	25944.84
641.86	26115.70
642.01	26263.15
642.16	26279.54
642.31	25678.02
642.45	25818.45
642.60	26127.40
642.75	25668.66
642.90	26073.57
643.04	25795.04
643.19	25497.80
643.34	26429.33
643.48	25666.31
643.63	25881.64
643.78	26164.85
643.93	26190.59
644.07	26188.25
644.22	26190.59
644.37	26050.16
644.51	25790.36
644.66	25701.42
644.81	26045.48
644.95	25862.92
645.10	25781.00
645.25	25296.51
645.39	25724.83
645.54	25773.98
645.69	25731.85
645.83	25970.58
645.98	25947.18
646.13	25862.92
646.27	25940.16
646.42	25827.81
646.57	25874.62
646.71	25605.46
646.86	25502.48
647.00	25937.82
647.15	25827.81
647.30	25671.00
647.44	25422.90
647.59	25378.43
647.74	25427.58
647.88	25282.47
648.03	25495.46
648.17	25640.57
648.32	25479.07
648.47	25642.91
648.61	25518.86
648.76	25710.78
648.90	25528.22
649.05	25659.29
649.20	25560.99
649.34	25247.36
649.49	25228.63
649.63	25364.39
649.78	25500.14
649.92	25256.72
650.07	25481.41
650.21	25298.85
650.36	25413.54
650.51	25048.41
650.65	25376.09
650.80	25301.19
650.94	25296.51
651.09	24898.62
651.23	24924.36
651.38	24915.00
651.52	25090.54
651.67	25074.16
651.81	25064.80
651.96	25263.74
652.10	25029.69
652.25	25289.49
652.39	24996.92
652.54	25085.86
652.68	25139.69
652.83	25041.39
652.97	25046.07
653.12	25151.40
653.26	24809.68
653.41	25036.71
653.55	24851.81
653.70	24781.59
653.84	25259.06
653.99	24933.73
654.13	24615.41
654.27	25022.67
654.42	24835.42
654.56	24870.53
654.71	24786.27
654.85	24954.79
655.00	24938.41
655.14	24851.81
655.29	24496.05
655.43	25008.62
655.57	24673.93
655.72	24538.18
655.86	24657.54
656.01	24704.35
656.15	24599.03
656.30	24381.36
656.44	24474.98
656.58	24575.62
656.73	24629.46
656.87	24505.41
657.01	24620.10
657.16	24699.67
657.30	24819.04
657.45	24425.83
657.59	24416.47
657.73	24535.84
657.88	24601.37
658.02	24140.29
658.16	24201.14
658.31	24505.41
658.45	24044.32
658.60	24149.65
658.74	24357.96
658.88	24034.96
659.03	24203.48
659.17	23964.75
659.31	23985.81
659.46	24407.11
659.60	24320.51
659.74	24381.36
659.89	23950.70
660.03	24240.93
660.17	24151.99
660.32	23880.49
660.46	23927.30
660.60	23981.13
660.74	23953.04
660.89	23796.23
661.03	23346.84
661.17	23941.34
661.32	23709.63
661.46	23625.37
661.60	23545.79
661.74	23718.99
661.89	24023.26
662.03	23620.69
662.17	23538.77
662.31	23620.69
662.46	23520.04
662.60	23517.70
662.74	23606.64
662.88	23360.89
663.03	23285.99
663.17	23351.52
663.31	23199.39
663.45	23089.38
663.60	23049.60
663.74	23145.56
663.88	23122.15
664.02	23091.73
664.17	23225.14
664.31	23344.50
664.45	23138.54
664.59	23000.44
664.73	23194.71
664.88	22787.46
665.02	22820.22
665.16	22700.86
665.30	22965.34
665.44	22532.34
665.59	22558.08
665.73	23211.09
665.87	22616.60
666.01	22654.05
666.15	22672.77
666.29	22647.02
666.44	22661.07
666.58	22291.26
666.72	22546.38
666.86	22806.18
667.00	22705.54
667.14	22539.36
667.28	22424.67
667.43	22431.69
667.57	22443.40
667.71	22647.02
667.85	22242.11
667.99	22146.15
668.13	21963.59
668.27	22167.21
668.41	22204.66
668.56	22087.64
668.70	22405.95
668.84	22258.49
668.98	22225.73
669.12	22024.44
669.26	21972.95
669.40	22003.38
669.54	21764.64
669.68	21944.86
669.82	21968.27
669.96	21965.93
670.10	21750.60
670.25	21846.56
670.39	21851.24
670.53	21699.11
670.67	21621.87
670.81	21692.08
670.95	21706.13
671.09	21390.16
671.23	21479.10
671.37	21310.58
671.51	21598.46
671.65	21380.79
671.79	21326.96
671.93	21453.35
672.07	21233.34
672.21	21549.31
672.35	21118.65
672.49	20702.04
672.63	21184.19
672.77	21116.31
672.91	21352.71
673.05	21167.80
673.19	21071.84
673.33	20952.48
673.47	21032.05
673.61	21013.33
673.75	20973.54
673.89	20648.21
674.03	21193.55
674.17	20798.00
674.31	20751.19
674.45	20790.98
674.59	20577.99
674.73	20648.21
674.87	20369.68
675.01	20442.24
675.15	20453.94
675.29	20252.66
675.43	20409.47
675.56	20463.30
675.70	20236.27
675.84	20622.46
675.98	19824.34
676.12	20315.85
676.26	20301.81
676.40	19988.18
676.54	19999.88
676.68	20018.60
676.82	19623.05
676.96	20002.22
677.10	19864.13
677.23	19623.05
677.37	19459.21
677.51	19812.63
677.65	19487.30
677.79	19152.60
677.93	19529.43
678.07	19185.37
678.21	19229.84
678.34	19307.08
678.48	19084.73
678.62	19220.48
678.76	19206.44
678.90	18693.86
679.04	19154.94
679.18	19119.84
679.31	18640.03
679.45	18895.14
679.59	18787.48
679.73	18808.54
679.87	18560.45
680.00	18494.91
680.14	18593.22
680.28	18637.69
680.42	18216.39
680.56	18181.28
680.70	18558.11
680.83	18539.38
680.97	18202.35
681.11	18405.97
681.25	18410.65
681.39	18022.12
681.52	18085.32
681.66	17940.21
681.80	17657.00
681.94	18061.91
682.07	17895.74
682.21	17809.14
682.35	17642.96
682.49	17554.02
682.62	17575.08
682.76	17406.56
682.90	17694.45
683.04	17752.96
683.17	17572.74
683.31	17458.06
683.45	17411.25
683.59	17202.94
683.72	17387.84
683.86	17039.10
684.00	17158.47
684.13	17231.02
684.27	17151.45
684.41	16938.46
684.55	16624.83
684.68	16779.30
684.82	16758.24
684.96	16730.15
685.09	16563.97
685.23	16716.11
685.37	16549.93
685.50	16517.16
685.64	16641.21
685.78	16624.83
685.91	16269.06
686.05	16734.83
686.19	16161.40
686.32	16699.72
686.46	16173.10
686.60	15955.43
686.73	15887.56
686.87	15786.91
687.01	15875.85
687.14	16086.50
687.28	15892.24
687.42	15604.35
687.55	15669.89
687.69	15611.37
687.82	15868.83
687.96	15681.59
688.10	15487.32
688.23	15714.36
688.37	15594.99
688.50	15295.40
688.64	15468.60
688.78	15363.28
688.91	15405.41
689.05	15075.39
689.18	15323.49
689.32	14956.02
689.46	14839.00
689.59	14766.44
689.73	15066.03
689.86	14642.39
690.00	14731.33
690.13	14782.82
690.27	14633.03
690.41	14834.32
690.54	14691.54
690.68	14733.67
690.81	14658.78
690.95	14581.54
691.08	14523.02
691.22	14328.76
691.35	14375.57
691.49	14239.82
691.62	14431.74
691.76	14167.26
691.89	14134.50
692.03	13860.65
692.16	13736.60
692.30	13893.42
692.43	13650.00
692.57	13645.32
692.70	13544.68
692.84	13472.12
692.97	13760.01
693.11	13872.36
693.24	13741.29
693.38	13490.85
693.51	13642.98
693.65	13465.10
693.78	13514.25
693.92	13444.04
694.05	13235.73
694.19	13298.92
694.32	12931.46
694.45	13174.88
694.59	12968.91
694.72	13139.77
694.86	13046.15
694.99	12954.87
695.13	12908.05
695.26	12683.36
695.39	12521.87
695.53	12798.05
695.66	12851.88
695.80	12638.89
695.93	12793.37
696.07	12863.58
696.20	12814.43
696.33	12552.29
696.47	12568.68
696.60	12500.80
696.73	12140.36
696.87	12238.66
697.00	12336.96
697.14	12156.74
697.27	11950.78
697.40	11840.77
697.54	12037.38
697.67	11943.75
697.80	11784.60
697.94	11641.82
698.07	11620.76
698.21	11583.31
698.34	11793.96
698.47	11969.50
698.61	11620.76
698.74	11627.78
698.87	11672.25
699.01	11496.71
699.14	11595.01
699.27	11255.64
699.40	11391.39
699.54	11150.31
699.67	11199.46
699.80	10995.84
699.94	11030.94
700.07	11283.72
700.20	10920.94
700.34	10925.62
700.47	11012.22
700.60	11187.76
700.73	11162.01
700.87	10949.03
701.00	10642.42
701.13	10782.85
701.26	10761.78
701.40	10913.92
701.53	10684.55
701.66	10824.98
701.79	10499.64
701.93	10644.76
702.06	10551.14
702.19	10333.47
702.32	10342.83
702.46	10218.78
702.59	10333.47
702.72	10235.16
702.85	10200.05
702.99	10218.78
703.12	10183.67
703.25	9820.89
703.38	9987.07
703.51	9928.55
703.65	9926.21
703.78	9809.19
703.91	9750.67
704.04	10036.22
704.17	9823.23
704.31	9788.12
704.44	9865.36
704.57	9647.69
704.70	9652.37
704.83	9401.93
704.96	9268.52
705.10	9479.17
705.23	9439.38
>>>>>End Processed Spectral Data<<<<<
