SpectraSuite Data File
++++++++++++++++++++++++++++++++++++
Date: Fri Oct 18 13:58:08 GMT-05:00 2013
User: bianchi
Dark Spectrum Present: No
Reference Spectrum Present: No
Number of Sampled Component Spectra: 1
Spectrometers: USB2+H05261
Integration Time (usec): 50000 (USB2+H05261)
Spectra Averaged: 1 (USB2+H05261)
Boxcar Smoothing: 0 (USB2+H05261)
Correct for Electrical Dark: No (USB2+H05261)
Strobe/Lamp Enabled: No (USB2+H05261)
Correct for Detector Non-linearity: No (USB2+H05261)
Correct for Stray Light: No (USB2+H05261)
Number of Pixels in Processed Spectrum: 2048
>>>>>Begin Processed Spectral Data<<<<<
365.73	0.00
365.92	0.00
366.12	0.00
366.32	0.00
366.52	0.00
366.72	0.00
366.91	0.00
367.11	0.00
367.31	0.00
367.51	0.00
367.70	0.00
367.90	0.00
368.10	0.00
368.30	0.00
368.49	0.00
368.69	0.00
368.89	0.00
369.09	0.00
369.28	0.00
369.48	0.00
369.68	0.00
369.87	0.00
370.07	0.00
370.27	0.00
370.47	0.00
370.66	84.26
370.86	98.30
371.06	133.41
371.25	133.41
371.45	98.30
371.65	170.86
371.84	65.54
372.04	133.41
372.24	128.73
372.44	184.90
372.63	184.90
372.83	173.20
373.03	196.60
373.22	208.31
373.42	208.31
373.62	238.73
373.81	184.90
374.01	276.18
374.21	215.33
374.40	241.08
374.60	262.14
374.79	229.37
374.99	276.18
375.19	245.76
375.38	252.78
375.58	212.99
375.78	259.80
375.97	262.14
376.17	280.86
376.37	264.48
376.56	308.95
376.76	259.80
376.95	175.54
377.15	290.23
377.35	266.82
377.54	250.44
377.74	257.46
377.93	290.23
378.13	292.57
378.33	297.25
378.52	313.63
378.72	245.76
378.91	269.16
379.11	273.84
379.31	308.95
379.50	266.82
379.70	311.29
379.89	372.15
380.09	236.39
380.28	241.08
380.48	358.10
380.68	220.01
380.87	304.27
381.07	278.52
381.26	330.02
381.46	287.89
381.65	311.29
381.85	374.49
382.04	290.23
382.24	320.65
382.43	297.25
382.63	402.57
382.83	334.70
383.02	318.31
383.22	386.19
383.41	409.59
383.61	327.68
383.80	407.25
384.00	332.36
384.19	330.02
384.39	351.08
384.58	381.51
384.78	353.42
384.97	365.12
385.17	367.46
385.36	362.78
385.56	344.06
385.75	416.62
385.95	447.04
386.14	348.74
386.34	334.70
386.53	440.02
386.72	493.85
386.92	423.64
387.11	442.36
387.31	416.62
387.50	360.44
387.70	442.36
387.89	468.11
388.09	425.98
388.28	407.25
388.48	493.85
388.67	421.30
388.86	425.98
389.06	519.60
389.25	489.17
389.45	552.37
389.64	470.45
389.84	503.22
390.03	500.87
390.22	447.04
390.42	550.03
390.61	451.72
390.81	451.72
391.00	479.81
391.19	531.30
391.39	566.41
391.58	456.40
391.78	533.64
391.97	547.69
392.16	475.13
392.36	524.28
392.55	566.41
392.75	519.60
392.94	496.19
393.13	608.54
393.33	622.58
393.52	535.98
393.71	571.09
393.91	585.13
394.10	547.69
394.29	538.32
394.49	568.75
394.68	554.71
394.88	554.71
395.07	552.37
395.26	585.13
395.46	636.63
395.65	641.31
395.84	636.63
396.04	732.59
396.23	676.41
396.42	643.65
396.62	704.50
396.81	603.86
397.00	713.86
397.19	695.14
397.39	645.99
397.58	664.71
397.77	734.93
397.97	720.88
398.16	564.07
398.35	711.52
398.55	772.38
398.74	627.26
398.93	704.50
399.12	725.57
399.32	758.33
399.51	702.16
399.70	702.16
399.90	734.93
400.09	805.14
400.28	737.27
400.47	739.61
400.67	793.44
400.86	784.08
401.05	905.79
401.24	851.96
401.44	823.87
401.63	828.55
401.82	798.12
402.01	805.14
402.21	812.17
402.40	851.96
402.59	779.40
402.78	835.57
402.97	751.31
403.17	856.64
403.36	898.77
403.55	926.85
403.74	922.17
403.93	950.26
404.13	973.66
404.32	910.47
404.51	875.36
404.70	978.34
404.89	875.36
405.09	985.37
405.28	926.85
405.47	947.92
405.66	1041.54
405.85	898.77
406.05	980.68
406.24	1015.79
406.43	1081.33
406.62	1128.14
406.81	1104.73
407.00	997.07
407.20	1015.79
407.39	978.34
407.58	1025.15
407.77	1013.45
407.96	1022.81
408.15	1095.37
408.34	1132.82
408.54	1125.80
408.73	1167.93
408.92	1179.63
409.11	1102.39
409.30	1214.74
409.49	1158.57
409.68	1076.65
409.87	1116.44
410.07	1170.27
410.26	1170.27
410.45	1247.51
410.64	1287.29
410.83	1280.27
411.02	1287.29
411.21	1242.82
411.40	1306.02
411.59	1221.76
411.78	1359.85
411.98	1200.69
412.17	1371.55
412.36	1315.38
412.55	1399.64
412.74	1469.86
412.93	1397.30
413.12	1418.36
413.31	1453.47
413.50	1418.36
413.69	1399.64
413.88	1460.49
414.07	1558.80
414.26	1444.11
414.45	1544.75
414.64	1535.39
414.83	1533.05
415.02	1493.26
415.22	1610.29
415.41	1584.54
415.60	1519.01
415.79	1537.73
415.98	1600.93
416.17	1633.69
416.36	1643.06
416.55	1652.42
416.74	1701.57
416.93	1715.61
417.12	1750.72
417.31	1764.76
417.50	1638.38
417.69	1720.29
417.88	1727.32
418.07	1708.59
418.26	1715.61
418.45	1706.25
418.64	1771.79
418.83	1767.10
419.02	1785.83
419.21	1689.87
419.39	1858.39
419.58	1774.13
419.77	1809.23
419.96	1856.04
420.15	1909.88
420.34	1914.56
420.53	1966.05
420.72	1923.92
420.91	1970.73
421.10	1874.77
421.29	1900.52
421.48	1980.09
421.67	1914.56
421.86	1961.37
422.05	1954.35
422.24	1928.60
422.43	2064.35
422.61	1982.43
422.80	2099.46
422.99	2003.50
423.18	2024.56
423.37	2003.50
423.56	2010.52
423.75	2043.29
423.94	2026.90
424.13	1898.17
424.32	1928.60
424.50	2069.03
424.69	2176.70
424.88	2012.86
425.07	2085.42
425.26	2003.50
425.45	2090.10
425.64	2069.03
425.83	1944.99
426.01	2054.99
426.20	2139.25
426.39	2043.29
426.58	2122.87
426.77	2080.74
426.96	2172.02
427.15	2125.21
427.33	2143.93
427.52	2211.81
427.71	2186.06
427.90	2165.00
428.09	2052.65
428.28	2221.17
428.46	2221.17
428.65	2387.35
428.84	2244.57
429.03	2335.85
429.22	2186.06
429.40	2307.77
429.59	2249.25
429.78	2190.74
429.97	2155.63
430.16	2195.42
430.34	2146.27
430.53	2312.45
430.72	2356.92
430.91	2214.15
431.10	2286.70
431.28	2373.30
431.47	2516.08
431.66	2502.03
431.85	2324.15
432.03	2443.52
432.22	2495.01
432.41	2455.22
432.60	2581.61
432.79	2394.37
432.97	2499.69
433.16	2520.76
433.35	2562.89
433.54	2523.10
433.72	2530.12
433.91	2476.29
434.10	2565.23
434.28	2595.65
434.47	2567.57
434.66	2605.02
434.85	2693.96
435.03	2642.46
435.22	2693.96
435.41	2630.76
435.59	2747.79
435.78	2665.87
435.97	2665.87
436.16	2693.96
436.34	2649.49
436.53	2710.34
436.72	2801.62
436.90	2679.91
437.09	2726.72
437.28	2586.29
437.46	2810.98
437.65	2801.62
437.84	2836.73
438.02	2860.13
438.21	2920.99
438.40	2822.69
438.58	2871.84
438.77	2834.39
438.96	2841.41
439.14	2928.01
439.33	3047.38
439.52	3073.12
439.70	2972.48
439.89	3047.38
440.08	3028.65
440.26	3096.53
440.45	3145.68
440.63	3131.64
440.82	3220.58
441.01	3070.78
441.19	3178.45
441.38	3281.43
441.57	3267.39
441.75	3267.39
441.94	3353.99
442.12	3335.26
442.31	3447.61
442.50	3323.56
442.68	3349.31
442.87	3318.88
443.05	3382.07
443.24	3447.61
443.43	3545.91
443.61	3487.40
443.80	3679.32
443.98	3393.78
444.17	3365.69
444.35	3382.07
444.54	3452.29
444.73	3466.33
444.91	3438.25
445.10	3459.31
445.28	3513.14
445.47	3508.46
445.65	3506.12
445.84	3564.64
446.02	3517.83
446.21	3611.45
446.39	3604.42
446.58	3691.02
446.77	3557.61
446.95	3585.70
447.14	3494.42
447.32	3651.24
447.51	3576.34
447.69	3531.87
447.88	3627.83
448.06	3559.95
448.25	3555.27
448.43	3630.17
448.62	3552.93
448.80	3597.40
448.99	3627.83
449.17	3646.55
449.36	3606.77
449.54	3775.28
449.73	3693.37
449.91	3805.71
450.10	3658.26
450.28	3805.71
450.46	3758.90
450.65	3723.79
450.83	3754.22
451.02	3831.46
451.20	3705.07
451.39	3801.03
451.57	3798.69
451.76	3885.29
451.94	3838.48
452.13	3852.52
452.31	3794.01
452.49	3674.64
452.68	3929.76
452.86	3936.78
453.05	3974.23
453.23	3978.91
453.42	3906.35
453.60	3960.19
453.78	3873.59
453.97	3763.58
454.15	3967.21
454.34	3913.38
454.52	4037.42
454.70	3964.87
454.89	4191.90
455.07	4142.75
455.26	3985.93
455.44	4135.73
455.62	4079.55
455.81	4147.43
455.99	4145.09
456.17	4241.05
456.36	4248.07
456.54	4390.84
456.73	4388.50
456.91	4337.01
457.09	4299.56
457.28	4318.29
457.46	4290.20
457.64	4416.59
457.83	4416.59
458.01	4437.66
458.19	4510.21
458.38	4372.12
458.56	4435.32
458.74	4393.19
458.93	4451.70
459.11	4498.51
459.29	4550.00
459.48	4535.96
459.66	4739.58
459.84	4538.30
460.03	4624.90
460.21	4695.11
460.39	4643.62
460.57	4664.69
460.76	4589.79
460.94	4800.44
461.12	4599.15
461.31	4718.52
461.49	4643.62
461.67	4720.86
461.85	4718.52
462.04	4816.82
462.22	5050.88
462.40	4849.59
462.59	4800.44
462.77	4826.18
462.95	4931.51
463.13	4805.12
463.32	4905.76
463.50	4903.42
463.68	4936.19
463.86	4863.63
464.05	4772.35
464.23	4877.68
464.41	5013.43
464.59	4947.89
464.78	5067.26
464.96	4917.47
465.14	4837.89
465.32	5074.28
465.50	5036.83
465.69	5074.28
465.87	5179.61
466.05	5160.88
466.23	4968.96
466.41	5224.08
466.60	5137.48
466.78	4978.32
466.96	5200.67
467.14	5221.74
467.32	5158.54
467.51	5219.39
467.69	5130.45
467.87	5313.02
468.05	5235.78
468.23	5282.59
468.41	5177.26
468.60	5460.47
468.78	5242.80
468.96	5294.29
469.14	5336.42
469.32	5551.75
469.50	5144.50
469.69	5462.81
469.87	5469.83
470.05	5453.45
470.23	5526.00
470.41	5336.42
470.59	5556.43
470.77	5444.09
470.95	5593.88
471.14	5554.09
471.32	5561.11
471.50	5643.03
471.68	5626.65
471.86	5949.64
472.04	5741.33
472.22	5830.27
472.40	5778.78
472.58	5776.44
472.77	5753.04
472.95	5778.78
473.13	6024.54
473.31	5944.96
473.49	5886.45
473.67	5891.13
473.85	5989.43
474.03	6162.63
474.21	5940.28
474.39	6345.19
474.57	6382.64
474.75	6209.44
474.93	6239.87
475.12	6200.08
475.30	6312.42
475.48	6310.08
475.66	6359.24
475.84	6408.39
476.02	6352.21
476.20	6363.92
476.38	6588.61
476.56	6768.83
476.74	6616.69
476.92	6633.08
477.10	6637.76
477.28	6707.98
477.46	6665.85
477.64	6883.52
477.82	6740.74
478.00	7054.37
478.18	7047.35
478.36	6902.24
478.54	7155.02
478.72	7150.34
478.90	7236.94
479.08	7260.34
479.26	7227.57
479.44	7337.58
479.62	7529.50
479.80	7531.84
479.98	7571.63
480.16	7775.26
480.34	7569.29
480.52	7777.60
480.70	7852.50
480.88	7721.43
481.06	7756.54
481.24	7784.62
481.41	7981.23
481.59	8147.40
481.77	8095.91
481.95	8063.15
482.13	8252.73
482.31	8336.99
482.49	8287.84
482.67	8463.38
482.85	8402.52
483.03	8676.37
483.21	8578.06
483.39	8671.68
483.57	8847.22
483.74	8723.18
483.92	8793.39
484.10	8791.05
484.28	8830.84
484.46	9085.96
484.64	9254.48
484.82	9263.84
485.00	9294.27
485.18	9181.92
485.35	9584.49
485.53	9338.74
485.71	9582.15
485.89	10064.30
486.07	9619.60
486.25	9790.46
486.43	9813.87
486.61	9657.05
486.78	10099.41
486.96	10068.98
487.14	10230.48
487.32	10232.82
487.50	10382.62
487.68	10342.83
487.85	10504.32
488.03	10724.33
488.21	10857.75
488.39	10520.71
488.57	10637.73
488.75	10815.62
488.92	10899.87
489.10	10949.03
489.28	11021.58
489.46	11157.33
489.64	11215.85
489.81	11337.56
489.99	11417.13
490.17	11506.07
490.35	11772.89
490.53	11566.93
490.70	11758.85
490.88	11693.32
491.06	11887.58
491.24	12079.50
491.41	12156.74
491.59	12409.52
491.77	12131.00
491.95	12224.62
492.13	12512.50
492.30	12662.30
492.48	12477.40
492.66	12652.94
492.84	12341.64
493.01	12685.70
493.19	12877.63
493.37	12868.27
493.54	13104.66
493.72	13181.90
493.90	13055.51
494.08	13186.58
494.25	13392.55
494.43	13191.26
494.61	13476.80
494.79	13523.62
494.96	13568.09
495.14	13790.44
495.32	13752.99
495.49	13930.87
495.67	13769.37
495.85	14078.32
496.02	14129.81
496.20	14305.35
496.38	14232.80
496.55	14207.05
496.73	14420.04
496.91	14265.57
497.09	14604.94
497.26	14696.22
497.44	14677.50
497.62	14413.02
497.79	14988.79
497.97	14600.26
498.14	14895.17
498.32	15140.93
498.50	15002.83
498.67	15157.31
498.85	15124.54
499.03	15393.70
499.20	15356.25
499.38	15199.44
499.56	15286.04
499.73	15557.54
499.91	15726.06
500.08	15431.15
500.26	15557.54
500.44	15686.27
500.61	15740.10
500.79	15686.27
500.97	16287.79
501.14	16245.66
501.32	16044.37
501.49	16095.86
501.67	16119.27
501.84	16095.86
502.02	16156.72
502.20	16390.77
502.37	16381.41
502.55	16063.10
502.72	16346.30
502.90	16411.84
503.07	16650.57
503.25	16636.53
503.43	16847.18
503.60	16418.86
503.78	17170.17
503.95	17055.48
504.13	16842.50
504.30	16753.55
504.48	16868.24
504.65	16805.05
504.83	17027.40
505.01	17301.24
505.18	17097.61
505.36	17294.22
505.53	17015.69
505.71	17324.65
505.88	17303.58
506.06	17348.05
506.23	17802.11
506.41	17497.84
506.58	17551.68
506.76	17907.44
506.93	17804.46
507.11	17415.93
507.28	17848.93
507.46	18040.85
507.63	17902.76
507.81	18031.49
507.98	18111.07
508.16	18148.51
508.33	18307.67
508.50	18127.45
508.68	18310.01
508.85	18511.30
509.03	18515.98
509.20	18317.03
509.38	18560.45
509.55	18427.04
509.73	18787.48
509.90	19009.83
510.08	18548.75
510.25	18885.78
510.42	18604.92
510.60	19152.60
510.77	18963.02
510.95	19152.60
511.12	18768.76
511.30	18857.70
511.47	19180.69
511.64	19194.73
511.82	19496.66
511.99	19260.27
512.17	19288.35
512.34	19599.65
512.51	19288.35
512.69	19674.54
512.86	19592.62
513.04	19665.18
513.21	19899.23
513.38	19765.82
513.56	20142.65
513.73	19761.14
513.90	19709.65
514.08	19800.93
514.25	19990.52
514.43	19957.75
514.60	20100.52
514.77	19999.88
514.95	20240.95
515.12	19812.63
515.29	20252.66
515.47	20383.73
515.64	20652.89
515.81	20404.79
515.99	20442.24
516.16	20669.27
516.33	20411.81
516.51	20409.47
516.68	20416.49
516.85	20556.93
517.03	20994.61
517.20	21039.08
517.37	20954.82
517.54	21085.89
517.72	20833.11
517.89	20931.41
518.06	20933.75
518.24	20819.07
518.41	21048.44
518.58	21078.86
518.75	21125.68
518.93	21085.89
519.10	21411.22
519.27	21317.60
519.45	21406.54
519.62	21446.33
519.79	21280.15
519.96	21436.97
520.14	21745.92
520.31	21621.87
520.48	21844.22
520.65	21750.60
520.83	21820.81
521.00	21905.07
521.17	22192.96
521.34	21757.62
521.52	21884.01
521.69	21832.52
521.86	22244.45
522.03	22309.99
522.20	22192.96
522.38	22146.15
522.55	21984.65
522.72	22019.76
522.89	22403.61
523.07	22497.23
523.24	22642.34
523.41	22424.67
523.58	22366.16
523.75	22890.44
523.92	22356.80
524.10	22342.75
524.27	22537.02
524.44	23030.87
524.61	22565.10
524.78	22902.14
524.96	22780.43
525.13	22930.23
525.30	23117.47
525.47	22742.99
525.64	22939.59
525.81	23222.80
525.98	23145.56
526.16	23293.01
526.33	23400.68
526.50	23393.65
526.67	23351.52
526.84	23229.82
527.01	23255.56
527.18	23571.54
527.36	23510.68
527.53	23641.75
527.70	23770.48
527.87	23765.80
528.04	23620.69
528.21	23480.25
528.38	23543.45
528.55	23625.37
528.72	23367.91
528.89	23927.30
529.07	23850.06
529.24	23789.20
529.41	23520.04
529.58	23613.66
529.75	24011.56
529.92	23976.45
530.09	23948.36
530.26	23854.74
530.43	24294.76
530.60	23873.46
530.77	23962.40
530.94	24430.51
531.11	24257.31
531.28	24311.14
531.46	24294.76
531.63	23988.15
531.80	24400.08
531.97	24285.40
532.14	24718.40
532.31	24575.62
532.48	24533.50
532.65	24624.78
532.82	24257.31
532.99	24372.00
533.16	24559.24
533.33	25050.75
533.50	25256.72
533.67	24746.48
533.84	24507.75
534.01	24577.97
534.18	24725.42
534.35	24690.31
534.52	24762.87
534.69	25202.89
534.86	25214.59
535.03	24945.43
535.20	25167.78
535.37	25135.01
535.54	25223.95
535.71	25022.67
535.88	25350.34
536.05	25170.12
536.22	25198.21
536.38	25640.57
536.55	25432.26
536.72	25640.57
536.89	25586.74
537.06	25099.90
537.23	25546.95
537.40	25631.21
537.57	25556.31
537.74	25724.83
537.91	25942.50
538.08	26015.05
538.25	25560.99
538.42	25563.33
538.59	25668.66
538.75	25607.80
538.92	25855.90
539.09	25773.98
539.26	25940.16
539.43	25818.45
539.60	25766.96
539.77	26106.34
539.94	26221.02
540.11	25951.86
540.28	25928.45
540.44	25783.34
540.61	25745.89
540.78	26089.95
540.95	26115.70
541.12	25956.54
541.29	26359.11
541.46	26511.25
541.62	26036.12
541.79	26373.16
541.96	26096.97
542.13	26518.27
542.30	26223.36
542.47	26698.49
542.63	26593.17
542.80	26642.32
542.97	26890.41
543.14	26986.38
543.31	26768.71
543.48	26630.62
543.64	26803.82
543.81	27194.68
543.98	27119.79
544.15	27122.13
544.32	27023.83
544.48	27133.83
544.65	26946.59
544.82	27154.90
544.99	26883.39
545.16	27044.89
545.32	26778.07
545.49	27164.26
545.66	27330.44
545.83	27330.44
546.00	27412.35
546.16	27243.84
546.33	27260.22
546.50	26923.18
546.67	27494.27
546.83	27246.18
547.00	27290.65
547.17	27314.05
547.34	27264.90
547.50	27515.34
547.67	27559.81
547.84	27634.71
548.00	27623.00
548.17	27660.45
548.34	27693.22
548.51	27931.95
548.67	27690.88
548.84	27953.02
549.01	27882.80
549.18	27828.97
549.34	27658.11
549.51	27974.08
549.68	27803.22
549.84	27873.44
550.01	27658.11
550.18	27587.89
550.34	28290.06
550.51	28238.56
550.68	27927.27
550.84	27840.67
551.01	28322.82
551.18	27922.59
551.34	27702.58
551.51	27985.79
551.68	28004.51
551.84	28219.84
552.01	28158.99
552.18	28463.25
552.34	28219.84
552.51	28411.76
552.68	28591.98
552.84	28126.22
553.01	28435.17
553.18	28044.30
553.34	28505.38
553.51	28575.60
553.67	28662.20
553.84	28704.33
554.01	28713.69
554.17	28322.82
554.34	28533.47
554.51	28671.56
554.67	28601.35
554.84	28662.20
555.00	28423.47
555.17	28456.23
555.33	28701.99
555.50	28526.45
555.67	28671.56
555.83	28510.07
556.00	28591.98
556.16	29015.62
556.33	28582.62
556.50	28914.98
556.66	28971.15
556.83	28510.07
556.99	29317.55
557.16	29207.55
557.32	28945.41
557.49	28940.72
557.65	28842.42
557.82	29083.50
557.98	29237.97
558.15	28877.53
558.32	29507.13
558.48	29172.44
558.65	29560.97
558.81	29680.33
558.98	28793.27
559.14	28959.45
559.31	29252.02
559.47	29123.29
559.64	29706.08
559.80	29305.85
559.97	29516.50
560.13	29064.77
560.30	29139.67
560.46	29769.27
560.63	29383.09
560.79	29153.71
560.96	29205.20
561.12	29198.18
561.29	29137.33
561.45	29291.80
561.61	29792.68
561.78	29780.98
561.94	29418.19
562.11	29617.14
562.27	29366.70
562.44	29589.05
562.60	29668.63
562.77	29462.66
562.93	29268.40
563.10	29551.60
563.26	29303.51
563.42	29898.00
563.59	29762.25
563.75	29467.34
563.92	29530.54
564.08	29315.21
564.24	29780.98
564.41	29692.04
564.57	29057.75
564.74	29425.22
564.90	29935.45
565.07	29970.56
565.23	29647.57
565.39	29607.78
565.56	29703.74
565.72	29617.14
565.88	30328.66
566.05	29694.38
566.21	29596.07
566.38	29544.58
566.54	29851.19
566.70	29919.07
566.87	29872.26
567.03	30319.30
567.19	29759.91
567.36	30190.57
567.52	30033.75
567.68	29750.55
567.85	30356.75
568.01	29890.98
568.17	30003.33
568.34	29963.54
568.50	30221.00
568.66	30127.38
568.83	30164.82
568.99	29827.79
569.15	29764.59
569.32	29972.90
569.48	29816.08
569.64	29935.45
569.81	30356.75
569.97	29795.02
570.13	29944.81
570.30	29961.20
570.46	30038.44
570.62	30082.91
570.78	30052.48
570.95	30199.93
571.11	30080.56
571.27	29949.50
571.43	30057.16
571.60	30050.14
571.76	30213.98
571.92	30061.84
572.09	30436.33
572.25	30150.78
572.41	30267.81
572.57	30005.67
572.74	30082.91
572.90	29972.90
573.06	30057.16
573.22	30316.96
573.38	29893.32
573.55	29731.83
573.71	30527.61
573.87	30462.07
574.03	30347.39
574.20	30274.83
574.36	30099.29
574.52	30239.72
574.68	30764.00
574.84	29940.13
575.01	30593.14
575.17	30085.25
575.33	30345.05
575.49	30448.03
575.65	30309.94
575.82	30483.14
575.98	30132.06
576.14	30478.46
576.30	30256.11
576.46	29923.75
576.62	30206.95
576.79	30089.93
576.95	30476.12
577.11	30466.75
577.27	30221.00
577.43	30501.86
577.59	30256.11
577.75	30115.67
577.92	30448.03
578.08	30714.85
578.24	30288.87
578.40	30263.13
578.56	30684.42
578.72	30717.19
578.88	30789.75
579.04	30672.72
579.21	30614.21
579.37	30548.67
579.53	30654.00
579.69	30272.49
579.85	30075.88
580.01	30080.56
580.17	30036.09
580.33	30670.38
580.49	30675.06
580.65	30562.72
580.82	30539.31
580.98	30609.53
581.14	30398.88
581.30	30370.79
581.46	30216.32
581.62	30036.09
581.78	30368.45
581.94	30438.67
582.10	30202.27
582.26	30267.81
582.42	30359.09
582.58	30480.80
582.74	30438.67
582.90	30293.55
583.06	30920.82
583.22	30321.64
583.38	30562.72
583.54	30260.79
583.70	30644.63
583.86	30520.59
584.02	30326.32
584.18	30642.29
584.34	30614.21
584.50	30543.99
584.66	30576.76
584.82	30499.52
584.98	30417.60
585.14	30815.49
585.30	30359.09
585.46	30684.42
585.62	30469.09
585.78	30384.83
585.94	30403.56
586.10	30567.40
586.26	30801.45
586.42	30941.88
586.58	30892.73
586.74	30897.41
586.90	30609.53
587.06	30019.71
587.22	30361.43
587.38	30487.82
587.54	30829.54
587.70	30731.23
587.86	30925.50
588.02	30824.86
588.18	31065.93
588.34	30920.82
588.49	30925.50
588.65	30838.90
588.81	30426.96
588.97	30728.89
589.13	30637.61
589.29	30967.63
589.45	30766.34
589.61	30799.11
589.77	31122.10
589.93	30995.71
590.08	31356.16
590.24	31133.81
590.40	31199.34
590.56	30937.20
590.72	30871.67
590.88	30438.67
591.04	30583.78
591.20	31000.40
591.35	31185.30
591.51	31571.49
591.67	30981.67
591.83	31372.54
591.99	31161.89
592.15	31154.87
592.31	30719.53
592.46	30787.41
592.62	30761.66
592.78	31047.21
592.94	31171.25
593.10	31262.54
593.26	31037.84
593.41	31009.76
593.57	31442.76
593.73	30911.46
593.89	31042.53
594.05	31140.83
594.20	31101.04
594.36	30972.31
594.52	31161.89
594.68	30920.82
594.84	30785.07
594.99	30927.84
595.15	31426.37
595.31	31105.72
595.47	30899.75
595.62	31372.54
595.78	31108.06
595.94	30852.94
596.10	30948.90
596.25	31189.98
596.41	31056.57
596.57	30630.59
596.73	30675.06
596.88	30911.46
597.04	31054.23
597.20	31197.00
597.36	31384.24
597.51	31370.20
597.67	31311.69
597.83	31206.36
597.99	31278.92
598.14	30981.67
598.30	31267.22
598.46	30981.67
598.61	31154.87
598.77	31094.02
598.93	31175.94
599.09	31264.88
599.24	31129.12
599.40	31096.36
599.56	31278.92
599.71	31213.38
599.87	31204.02
600.03	31241.47
600.18	30848.26
600.34	31351.48
600.50	31185.30
600.65	31271.90
600.81	31257.85
600.97	31381.90
601.12	31168.91
601.28	31026.14
601.44	31297.64
601.59	31150.19
601.75	31264.88
601.91	31646.38
602.06	31009.76
602.22	31496.59
602.37	31583.19
602.53	31295.30
602.69	31381.90
602.84	31295.30
603.00	31409.99
603.16	31222.75
603.31	31276.58
603.47	31283.60
603.62	31168.91
603.78	31370.20
603.94	30778.04
604.09	31447.44
604.25	31084.65
604.40	31253.17
604.56	30937.20
604.71	31094.02
604.87	31349.14
605.03	30958.27
605.18	31461.48
605.34	31218.07
605.49	31089.34
605.65	30953.58
605.80	30738.26
605.96	30864.64
606.12	31002.74
606.27	31295.30
606.43	30965.29
606.58	31627.66
606.74	31426.37
606.89	31065.93
607.05	31213.38
607.20	31159.55
607.36	31197.00
607.51	31138.49
607.67	31618.30
607.82	30881.03
607.98	31147.85
608.13	31206.36
608.29	31147.85
608.44	30785.07
608.60	31192.32
608.75	31374.88
608.91	30988.69
609.06	30672.72
609.22	31147.85
609.37	30635.27
609.53	30881.03
609.68	30824.86
609.84	30972.31
609.99	30958.27
610.15	30974.65
610.30	30499.52
610.46	31019.12
610.61	30670.38
610.76	30911.46
610.92	31079.97
611.07	30874.01
611.23	30672.72
611.38	30677.40
611.54	30787.41
611.69	30838.90
611.84	30213.98
612.00	30866.98
612.15	30841.24
612.31	30583.78
612.46	30586.12
612.62	30735.92
612.77	30485.48
612.92	30806.13
613.08	30628.25
613.23	30834.22
613.39	30946.56
613.54	30654.00
613.69	30441.01
613.85	30614.21
614.00	30733.57
614.15	30607.19
614.31	30764.00
614.46	30916.14
614.62	31072.95
614.77	30410.58
614.92	30740.60
615.08	30658.68
615.23	30794.43
615.38	30710.17
615.54	30340.36
615.69	30448.03
615.84	30199.93
616.00	30661.02
616.15	30785.07
616.30	30480.80
616.46	30604.84
616.61	30274.83
616.76	30642.29
616.92	30656.34
617.07	30129.72
617.22	30270.15
617.37	29972.90
617.53	30178.87
617.68	30429.30
617.83	29989.28
617.99	30338.02
618.14	30302.92
618.29	30148.44
618.45	30326.32
618.60	29923.75
618.75	30066.52
618.90	30209.29
619.06	29937.79
619.21	29921.41
619.36	30216.32
619.51	30122.69
619.67	29530.54
619.82	30022.05
619.97	30071.20
620.12	29804.38
620.28	29919.07
620.43	30455.05
620.58	30022.05
620.73	29956.52
620.89	30167.16
621.04	30305.26
621.19	29689.70
621.34	29755.23
621.49	29825.45
621.65	29900.34
621.80	30171.85
621.95	29495.43
622.10	29802.04
622.25	29387.77
622.41	29521.18
622.56	29675.65
622.71	29905.02
622.86	30096.95
623.01	29764.59
623.16	29811.40
623.32	29275.42
623.47	29411.17
623.62	29713.10
623.77	29647.57
623.92	29921.41
624.07	29228.61
624.23	29537.56
624.38	29558.63
624.53	29792.68
624.68	29766.93
624.83	29898.00
624.98	29514.16
625.13	29418.19
625.29	29717.78
625.44	29591.39
625.59	29743.53
625.74	29242.65
625.89	29413.51
626.04	29261.38
626.19	29202.86
626.34	29247.33
626.49	29188.82
626.65	29242.65
626.80	29532.88
626.95	29563.31
627.10	29589.05
627.25	29689.70
627.40	29411.17
627.55	29319.89
627.70	29263.72
627.85	28713.69
628.00	29015.62
628.15	28898.59
628.30	28765.18
628.45	29322.23
628.60	29104.56
628.76	29607.78
628.91	29050.73
629.06	28961.79
629.21	29053.07
629.36	29046.05
629.51	28854.12
629.66	29174.78
629.81	28636.45
629.96	28943.06
630.11	28971.15
630.26	28594.32
630.41	28685.61
630.56	28451.55
630.71	28884.55
630.86	28914.98
631.01	28847.10
631.16	29305.85
631.31	28638.80
631.46	28835.40
631.61	28966.47
631.76	28872.85
631.91	28690.29
632.06	28861.15
632.21	28542.83
632.36	28437.51
632.51	28238.56
632.66	28526.45
632.81	28081.75
632.96	28669.22
633.10	28582.62
633.25	28713.69
633.40	28496.02
633.55	28428.15
633.70	28109.83
633.85	28348.57
634.00	28659.86
634.15	28182.39
634.30	28315.80
634.45	28339.21
634.60	28477.30
634.75	28353.25
634.90	28297.08
635.05	28620.07
635.19	28212.82
635.34	28734.76
635.49	28470.28
635.64	28369.63
635.79	28458.57
635.94	28243.24
636.09	28100.47
636.24	28505.38
636.39	27894.50
636.53	28093.45
636.68	28149.62
636.83	28027.92
636.98	28203.46
637.13	28276.01
637.28	27990.47
637.43	28114.52
637.57	27946.00
637.72	28018.55
637.87	27875.78
638.02	28053.66
638.17	28133.24
638.32	28273.67
638.46	27690.88
638.61	27765.78
638.76	27482.57
638.91	27674.49
639.06	27866.42
639.20	27826.63
639.35	27903.87
639.50	27903.87
639.65	27779.82
639.80	28208.14
639.94	27845.35
640.09	27789.18
640.24	27807.90
640.39	27835.99
640.54	27421.72
640.68	27995.15
640.83	27660.45
640.98	27639.39
641.13	27613.64
641.27	27501.29
641.42	27590.24
641.57	27580.87
641.72	27742.37
641.86	27358.52
642.01	27351.50
642.16	27508.32
642.31	27644.07
642.45	27463.85
642.60	27321.07
642.75	26974.67
642.90	27171.28
643.04	27463.85
643.19	27452.14
643.34	27325.75
643.48	27185.32
643.63	27566.83
643.78	27367.88
643.93	27330.44
644.07	27435.76
644.22	27496.61
644.37	27330.44
644.51	27021.48
644.66	27459.16
644.81	27133.83
644.95	27276.60
645.10	26920.84
645.25	26979.36
645.39	26972.33
645.54	26895.10
645.69	27007.44
645.83	27119.79
645.98	27056.59
646.13	27110.43
646.27	27330.44
646.42	27072.98
646.57	27335.12
646.71	27215.75
646.86	26710.19
647.00	26583.80
647.15	26726.58
647.30	26871.69
647.44	26862.33
647.59	27101.06
647.74	26864.67
647.88	26712.53
648.03	26885.73
648.17	26834.24
648.32	27040.21
648.47	26998.08
648.61	26806.16
648.76	26906.80
648.90	27056.59
649.05	26635.30
649.20	26785.09
649.34	26696.15
649.49	26263.15
649.63	26429.33
649.78	26347.41
649.92	26754.66
650.07	26841.26
650.21	26623.59
650.36	26616.57
650.51	26609.55
650.65	26270.17
650.80	26331.03
650.94	26436.35
651.09	26569.76
651.23	26267.83
651.38	26202.30
651.52	26211.66
651.67	26331.03
651.81	26707.85
651.96	26651.68
652.10	26403.58
652.25	26340.39
652.39	26412.95
652.54	26771.05
652.68	26595.51
652.83	26380.18
652.97	26836.58
653.12	26462.10
653.26	26171.87
653.41	26497.20
653.55	26094.63
653.70	25965.90
653.84	26363.79
653.99	26349.75
654.13	25965.90
654.27	26157.83
654.42	26127.40
654.56	26029.10
654.71	26394.22
654.85	26307.62
655.00	26211.66
655.14	26436.35
655.29	25853.56
655.43	26302.94
655.57	26298.26
655.72	25769.30
655.86	26300.60
656.01	26059.52
656.15	25858.24
656.30	25965.90
656.44	26017.40
656.58	25759.94
656.73	25418.22
656.87	25820.79
657.01	25703.76
657.16	25893.35
657.30	26022.08
657.45	25853.56
657.59	26087.61
657.73	25804.41
657.88	25853.56
658.02	25745.89
658.16	25675.68
658.31	25663.97
658.45	25778.66
658.60	25357.36
658.74	25329.28
658.88	25249.70
659.03	25427.58
659.17	25495.46
659.31	25404.17
659.46	25504.82
659.60	25469.71
659.74	25663.97
659.89	25273.10
660.03	25359.70
660.17	25502.48
660.32	25256.72
660.46	25104.59
660.60	25340.98
660.74	25109.27
660.89	25247.36
661.03	24973.52
661.17	25127.99
661.32	25200.55
661.46	24936.07
661.60	25057.78
661.74	24875.21
661.89	25130.33
662.03	25149.06
662.17	25111.61
662.31	24697.33
662.46	25120.97
662.60	24973.52
662.74	24863.51
662.88	24910.32
663.03	24404.77
663.17	24641.16
663.31	24493.71
663.45	24470.30
663.60	24608.39
663.74	24540.52
663.88	24671.59
664.02	24610.73
664.17	24826.06
664.31	24428.17
664.45	24386.04
664.59	24535.84
664.73	24180.07
664.88	24308.80
665.02	24161.35
665.16	24109.86
665.30	24243.27
665.44	24102.84
665.59	23861.76
665.73	23981.13
665.87	23857.08
666.01	24037.30
666.15	24315.83
666.29	23988.15
666.44	24189.44
666.58	23660.48
666.72	23903.89
666.86	23924.96
667.00	24318.17
667.14	23620.69
667.28	23527.06
667.43	23796.23
667.57	23747.08
667.71	23302.37
667.85	23510.68
667.99	23201.73
668.13	23463.87
668.27	23864.10
668.41	23847.72
668.56	23199.39
668.70	23735.37
668.84	23658.14
668.98	23316.42
669.12	23300.03
669.26	23316.42
669.40	23424.08
669.54	23391.31
669.68	23201.73
669.82	22984.06
669.96	23180.67
670.10	22735.96
670.25	22993.42
670.39	22742.99
670.53	22663.41
670.67	22457.44
670.81	22918.53
670.95	22951.29
671.09	22824.90
671.23	22871.72
671.37	22953.63
671.51	22838.95
671.65	22541.70
671.79	22785.12
671.93	22317.01
672.07	22927.89
672.21	22548.72
672.35	22354.46
672.49	22089.98
672.63	22314.67
672.77	22314.67
672.91	22532.34
673.05	22017.42
673.19	22291.26
673.33	22190.62
673.47	22033.80
673.61	22036.14
673.75	22565.10
673.89	22057.21
674.03	21671.02
674.17	22183.60
674.31	21893.37
674.45	21774.00
674.59	21706.13
674.73	22073.59
674.87	21694.43
675.01	21626.55
675.15	21483.78
675.29	21591.44
675.43	21755.28
675.56	21453.35
675.70	21565.70
675.84	21362.07
675.98	21025.03
676.12	21476.76
676.26	21612.51
676.40	20987.58
676.54	21336.32
676.68	21326.96
676.82	20975.88
676.96	20978.22
677.10	20886.94
677.23	20900.98
677.37	20751.19
677.51	20709.06
677.65	20540.54
677.79	20273.72
677.93	20430.54
678.07	20594.37
678.21	20320.53
678.34	20404.79
678.48	20142.65
678.62	20334.57
678.76	20056.05
678.90	20137.97
679.04	20027.96
679.18	20205.84
679.31	19793.91
679.45	19866.47
679.59	19597.31
679.73	19723.69
679.87	19449.85
680.00	19630.07
680.14	19316.44
680.28	19548.15
680.42	19419.42
680.56	19365.59
680.70	19410.06
680.83	19379.64
680.97	19138.56
681.11	19686.25
681.25	19484.96
681.39	19241.54
681.52	18923.23
681.66	19211.12
681.80	18853.02
681.94	18841.31
682.07	18913.87
682.21	18838.97
682.35	18597.90
682.49	18602.58
682.62	18349.80
682.76	18703.22
682.90	18405.97
683.04	18492.57
683.17	18415.34
683.31	18434.06
683.45	18623.64
683.59	18373.21
683.72	18368.52
683.86	18260.86
684.00	17947.23
684.13	17958.93
684.27	18015.10
684.41	17893.40
684.55	17696.79
684.68	17708.49
684.82	17451.03
684.96	17453.37
685.09	17645.30
685.23	17334.01
685.37	17481.46
685.50	17479.12
685.64	17420.61
685.78	17235.70
685.91	17483.80
686.05	17338.69
686.19	17383.16
686.32	17441.67
686.46	16809.73
686.60	16943.14
686.73	17151.45
686.87	16833.13
687.01	16870.58
687.14	16655.25
687.28	16561.63
687.42	16690.36
687.55	16659.93
687.69	16819.09
687.82	16638.87
687.96	16540.57
688.10	16512.48
688.23	16643.55
688.37	16575.67
688.50	16402.47
688.64	16147.36
688.78	16594.40
688.91	16283.11
689.05	16100.55
689.18	15950.75
689.32	15721.38
689.46	15939.05
689.59	15800.96
689.73	15950.75
689.86	15709.68
690.00	15779.89
690.13	15637.12
690.27	15440.51
690.41	15676.91
690.54	15562.22
690.68	15520.09
690.81	15564.56
690.95	15176.03
691.08	15529.45
691.22	15190.08
691.35	15089.43
691.49	15063.69
691.62	15377.32
691.76	15087.09
691.89	15035.60
692.03	14876.44
692.16	14731.33
692.30	14654.09
692.43	14696.22
692.57	14492.60
692.70	14530.05
692.84	14813.25
692.97	14448.13
693.11	14593.24
693.24	14394.29
693.38	14331.10
693.51	14356.85
693.65	14539.41
693.78	14225.78
693.92	14113.43
694.05	14150.88
694.19	14047.90
694.32	13935.55
694.45	13975.34
694.59	13802.14
694.72	14038.53
694.86	13633.62
694.99	13640.64
695.13	13617.24
695.26	13341.05
695.39	13334.03
695.53	13804.48
695.66	13317.65
695.80	13291.90
695.93	13455.74
696.07	13298.92
696.20	13507.23
696.33	13291.90
696.47	13310.63
696.60	13107.00
696.73	13046.15
696.87	13020.40
697.00	13188.92
697.14	13081.25
697.27	12776.98
697.40	12608.47
697.54	12662.30
697.67	12716.13
697.80	12414.20
697.94	12538.25
698.07	12531.23
698.21	12262.07
698.34	12615.49
698.47	12341.64
698.61	12365.05
698.74	12442.29
698.87	12257.39
699.01	11964.82
699.14	11852.47
699.27	12170.79
699.40	12105.25
699.54	11847.79
699.67	11875.88
699.80	11880.56
699.94	11974.18
700.07	11831.41
700.20	11758.85
700.34	11440.54
700.47	11367.98
700.60	11508.41
700.73	11515.44
700.87	11538.84
701.00	11487.35
701.13	11597.35
701.26	11377.34
701.40	11550.54
701.53	11197.12
701.66	11112.86
701.79	11171.38
701.93	11126.91
702.06	10738.38
702.19	10810.93
702.32	10937.32
702.46	10839.02
702.59	10682.20
702.72	10640.08
702.85	10778.17
702.99	10796.89
703.12	10602.63
703.25	10359.21
703.38	10698.59
703.51	10579.22
703.65	10590.92
703.78	10537.09
703.91	10551.14
704.04	10436.45
704.17	10403.68
704.31	10824.98
704.44	10274.95
704.57	10345.17
704.70	10085.37
704.83	9891.10
704.96	10010.47
705.10	9935.57
705.23	10026.86
>>>>>End Processed Spectral Data<<<<<
