SpectraSuite Data File
++++++++++++++++++++++++++++++++++++
Date: Fri Oct 18 13:58:06 GMT-05:00 2013
User: bianchi
Dark Spectrum Present: No
Reference Spectrum Present: No
Number of Sampled Component Spectra: 1
Spectrometers: USB2+H05261
Integration Time (usec): 50000 (USB2+H05261)
Spectra Averaged: 1 (USB2+H05261)
Boxcar Smoothing: 0 (USB2+H05261)
Correct for Electrical Dark: No (USB2+H05261)
Strobe/Lamp Enabled: No (USB2+H05261)
Correct for Detector Non-linearity: No (USB2+H05261)
Correct for Stray Light: No (USB2+H05261)
Number of Pixels in Processed Spectrum: 2048
>>>>>Begin Processed Spectral Data<<<<<
365.73	0.00
365.92	0.00
366.12	0.00
366.32	0.00
366.52	0.00
366.72	0.00
366.91	0.00
367.11	0.00
367.31	0.00
367.51	0.00
367.70	0.00
367.90	0.00
368.10	0.00
368.30	0.00
368.49	0.00
368.69	0.00
368.89	0.00
369.09	0.00
369.28	0.00
369.48	0.00
369.68	0.00
369.87	0.00
370.07	0.00
370.27	0.00
370.47	0.00
370.66	49.15
370.86	102.98
371.06	149.79
371.25	133.41
371.45	72.56
371.65	220.01
371.84	152.13
372.04	210.65
372.24	161.50
372.44	110.01
372.63	184.90
372.83	245.76
373.03	210.65
373.22	149.79
373.42	203.63
373.62	224.69
373.81	243.42
374.01	184.90
374.21	241.08
374.40	212.99
374.60	227.03
374.79	283.20
374.99	287.89
375.19	283.20
375.38	290.23
375.58	262.14
375.78	280.86
375.97	362.78
376.17	297.25
376.37	266.82
376.56	311.29
376.76	224.69
376.95	196.60
377.15	322.99
377.35	266.82
377.54	294.91
377.74	266.82
377.93	304.27
378.13	292.57
378.33	245.76
378.52	276.18
378.72	339.38
378.91	308.95
379.11	297.25
379.31	299.59
379.50	299.59
379.70	339.38
379.89	325.33
380.09	337.04
380.28	231.71
380.48	416.62
380.68	318.31
380.87	280.86
381.07	369.80
381.26	318.31
381.46	299.59
381.65	367.46
381.85	353.42
382.04	306.61
382.24	339.38
382.43	344.06
382.63	379.17
382.83	341.72
383.02	341.72
383.22	339.38
383.41	447.04
383.61	285.55
383.80	376.83
384.00	327.68
384.19	423.64
384.39	393.21
384.58	423.64
384.78	379.17
384.97	360.44
385.17	365.12
385.36	365.12
385.56	421.30
385.75	404.91
385.95	397.89
386.14	379.17
386.34	440.02
386.53	414.27
386.72	365.12
386.92	456.40
387.11	414.27
387.31	461.09
387.50	456.40
387.70	484.49
387.89	418.96
388.09	379.17
388.28	447.04
388.48	468.11
388.67	461.09
388.86	425.98
389.06	430.66
389.25	458.74
389.45	461.09
389.64	528.96
389.84	458.74
390.03	519.60
390.22	540.66
390.42	458.74
390.61	503.22
390.81	498.53
391.00	479.81
391.19	524.28
391.39	528.96
391.58	615.56
391.78	543.00
391.97	573.43
392.16	500.87
392.36	550.03
392.55	561.73
392.75	528.96
392.94	596.84
393.13	505.56
393.33	564.07
393.52	550.03
393.71	589.82
393.91	674.07
394.10	561.73
394.29	547.69
394.49	561.73
394.68	575.77
394.88	531.30
395.07	655.35
395.26	634.29
395.46	559.39
395.65	669.39
395.84	627.26
396.04	706.84
396.23	603.86
396.42	657.69
396.62	690.46
396.81	615.56
397.00	727.91
397.19	681.10
397.39	643.65
397.58	620.24
397.77	692.80
397.97	840.25
398.16	702.16
398.35	711.52
398.55	725.57
398.74	643.65
398.93	760.67
399.12	777.06
399.32	720.88
399.51	723.23
399.70	739.61
399.90	753.65
400.09	741.95
400.28	751.31
400.47	716.20
400.67	763.01
400.86	772.38
401.05	788.76
401.24	755.99
401.44	786.42
401.63	748.97
401.82	854.30
402.01	791.10
402.21	828.55
402.40	844.93
402.59	851.96
402.78	809.83
402.97	870.68
403.17	877.70
403.36	891.74
403.55	929.19
403.74	861.32
403.93	901.11
404.13	854.30
404.32	924.51
404.51	924.51
404.70	931.53
404.89	898.77
405.09	933.87
405.28	910.47
405.47	961.96
405.66	926.85
405.85	1057.92
406.05	966.64
406.24	990.05
406.43	992.39
406.62	985.37
406.81	990.05
407.00	973.66
407.20	1064.94
407.39	1151.54
407.58	1041.54
407.77	1184.31
407.96	1156.22
408.15	1034.52
408.34	1078.99
408.54	1001.75
408.73	1062.60
408.92	1004.09
409.11	1121.12
409.30	1151.54
409.49	1132.82
409.68	1156.22
409.87	1097.71
410.07	1193.67
410.26	1207.72
410.45	1231.12
410.64	1163.25
410.83	1306.02
411.02	1217.08
411.21	1238.14
411.40	1308.36
411.59	1245.16
411.78	1343.47
411.98	1299.00
412.17	1308.36
412.36	1242.82
412.55	1427.73
412.74	1308.36
412.93	1357.51
413.12	1280.27
413.31	1390.28
413.50	1373.89
413.69	1411.34
413.88	1444.11
414.07	1394.96
414.26	1500.28
414.45	1504.96
414.64	1458.15
414.83	1486.24
415.02	1458.15
415.22	1544.75
415.41	1565.82
415.60	1610.29
415.79	1624.33
415.98	1631.35
416.17	1540.07
416.36	1621.99
416.55	1724.97
416.74	1614.97
416.93	1631.35
417.12	1753.06
417.31	1675.82
417.50	1827.96
417.69	1661.78
417.88	1657.10
418.07	1760.08
418.26	1755.40
418.45	1666.46
418.64	1905.20
418.83	1799.87
419.02	1741.36
419.21	1839.66
419.39	1846.68
419.58	1788.17
419.77	1926.26
419.96	1877.11
420.15	1928.60
420.34	1849.02
420.53	1839.66
420.72	1968.39
420.91	1856.04
421.10	1954.35
421.29	1884.13
421.48	1977.75
421.67	1891.15
421.86	1797.53
422.05	1984.77
422.24	1898.17
422.43	1959.03
422.61	2057.33
422.80	1954.35
422.99	2115.84
423.18	2083.08
423.37	2073.71
423.56	1980.09
423.75	1968.39
423.94	1998.82
424.13	1909.88
424.32	1996.48
424.50	2132.23
424.69	2211.81
424.88	2040.95
425.07	2003.50
425.26	2054.99
425.45	2052.65
425.64	2085.42
425.83	1963.71
426.01	2033.93
426.20	2083.08
426.39	2090.10
426.58	2111.16
426.77	2054.99
426.96	2050.31
427.15	2059.67
427.33	2260.96
427.52	2069.03
427.71	2132.23
427.90	2111.16
428.09	2340.54
428.28	2204.78
428.46	2193.08
428.65	2179.04
428.84	2284.36
429.03	2282.02
429.22	2214.15
429.40	2347.56
429.59	2242.23
429.78	2125.21
429.97	2228.19
430.16	2298.41
430.34	2305.43
430.53	2406.07
430.72	2335.85
430.91	2394.37
431.10	2310.11
431.28	2340.54
431.47	2312.45
431.66	2420.11
431.85	2422.45
432.03	2532.46
432.22	2562.89
432.41	2502.03
432.60	2408.41
432.79	2363.94
432.97	2480.97
433.16	2480.97
433.35	2408.41
433.54	2553.52
433.72	2473.95
433.91	2583.95
434.10	2506.71
434.28	2497.35
434.47	2504.37
434.66	2583.95
434.85	2576.93
435.03	2555.86
435.22	2656.51
435.41	2785.24
435.59	2677.57
435.78	2663.53
435.97	2668.21
436.16	2750.13
436.34	2764.17
436.53	2569.91
436.72	2738.43
436.90	2715.02
437.09	2689.28
437.28	2693.96
437.46	2719.70
437.65	2719.70
437.84	2897.58
438.02	2726.72
438.21	2750.13
438.40	2796.94
438.58	2998.23
438.77	2883.54
438.96	2904.60
439.14	3014.61
439.33	2902.26
439.52	3040.36
439.70	2911.63
439.89	2970.14
440.08	3148.02
440.26	3066.10
440.45	3070.78
440.63	3073.12
440.82	3150.36
441.01	3117.59
441.19	3171.43
441.38	3290.79
441.57	3171.43
441.75	3206.53
441.94	3405.48
442.12	3377.39
442.31	3389.10
442.50	3407.82
442.68	3372.71
442.87	3213.56
443.05	3372.71
443.24	3438.25
443.43	3431.23
443.61	3386.76
443.80	3522.51
443.98	3473.36
444.17	3218.24
444.35	3447.61
444.54	3438.25
444.73	3435.91
444.91	3501.44
445.10	3421.86
445.28	3492.08
445.47	3482.72
445.65	3393.78
445.84	3414.84
446.02	3475.70
446.21	3496.76
446.39	3403.14
446.58	3459.31
446.77	3503.78
446.95	3515.48
447.14	3445.27
447.32	3503.78
447.51	3531.87
447.69	3433.57
447.88	3527.19
448.06	3485.06
448.25	3545.91
448.43	3606.77
448.62	3574.00
448.80	3447.61
448.99	3583.36
449.17	3609.11
449.36	3552.93
449.54	3801.03
449.73	3506.12
449.91	3852.52
450.10	3789.33
450.28	3840.82
450.46	3805.71
450.65	3737.84
450.83	3784.65
451.02	3922.74
451.20	3815.07
451.39	3859.54
451.57	3854.86
451.76	3840.82
451.94	3906.35
452.13	3988.27
452.31	3796.35
452.49	3908.69
452.68	3955.51
452.86	3918.06
453.05	3962.53
453.23	3885.29
453.42	3992.95
453.60	3934.44
453.78	3990.61
453.97	3873.59
454.15	3995.29
454.34	4170.83
454.52	4093.60
454.70	3969.55
454.89	3955.51
455.07	3967.21
455.26	4077.21
455.44	4147.43
455.62	4257.43
455.81	4196.58
455.99	4107.64
456.17	4238.71
456.36	4191.90
456.54	4161.47
456.73	4241.05
456.91	4346.37
457.09	4306.59
457.28	4297.22
457.46	4334.67
457.64	4400.21
457.83	4367.44
458.01	4428.29
458.19	4435.32
458.38	4542.98
458.56	4636.60
458.74	4400.21
458.93	4547.66
459.11	4414.25
459.29	4416.59
459.48	4540.64
459.66	4479.79
459.84	4596.81
460.03	4662.35
460.21	4608.51
460.39	4615.54
460.57	4629.58
460.76	4798.10
460.94	4723.20
461.12	4634.26
461.31	4582.77
461.49	4688.09
461.67	4650.64
461.85	4716.18
462.04	4835.55
462.22	4994.70
462.40	4917.47
462.59	4671.71
462.77	4926.83
462.95	4887.04
463.13	4849.59
463.32	4919.81
463.50	4943.21
463.68	4898.74
463.86	4929.17
464.05	4809.80
464.23	4847.25
464.41	4891.72
464.59	4854.27
464.78	5132.79
464.96	4940.87
465.14	4901.08
465.32	5008.75
465.50	5048.54
465.69	5125.77
465.87	5163.22
466.05	5034.49
466.23	4945.55
466.41	5130.45
466.60	5404.30
466.78	5018.11
466.96	5102.37
467.14	4975.98
467.32	5259.18
467.51	5212.37
467.69	5013.43
467.87	5263.86
468.05	5186.63
468.23	5259.18
468.41	5191.31
468.60	5277.91
468.78	5362.17
468.96	5294.29
469.14	5373.87
469.32	5294.29
469.50	5357.49
469.69	5444.09
469.87	5275.57
470.05	5418.34
470.23	5572.82
470.41	5558.77
470.59	5659.42
470.77	5416.00
470.95	5664.10
471.14	5717.93
471.32	5458.13
471.50	5533.03
471.68	5746.02
471.86	5792.83
472.04	5589.20
472.22	5816.23
472.40	5710.91
472.58	5841.98
472.77	5937.94
472.95	5963.68
473.13	6223.48
473.31	5846.66
473.49	5921.56
473.67	5769.42
473.85	5916.87
474.03	6033.90
474.21	5996.45
474.39	6066.67
474.57	6263.27
474.75	6235.19
474.93	6239.87
475.12	6298.38
475.30	6083.05
475.48	6286.68
475.66	6314.77
475.84	6389.66
476.02	6565.20
476.20	6520.73
476.38	6572.22
476.56	6551.16
476.74	6602.65
476.92	6602.65
477.10	6597.97
477.28	6675.21
477.46	6668.19
477.64	6888.20
477.82	6998.20
478.00	7157.36
478.18	6970.12
478.36	6942.03
478.54	7227.57
478.72	7054.37
478.90	7185.44
479.08	7382.05
479.26	7363.33
479.44	7442.90
479.62	7431.20
479.80	7492.05
479.98	7520.14
480.16	7625.47
480.34	7534.18
480.52	7812.71
480.70	7873.56
480.88	7588.02
481.06	7854.84
481.24	7906.33
481.41	7915.69
481.59	8093.57
481.77	7988.25
481.95	8081.87
482.13	8234.00
482.31	8250.39
482.49	8449.33
482.67	8407.20
482.85	8542.96
483.03	8669.34
483.21	8341.67
483.39	8816.80
483.57	8634.24
483.74	8999.36
483.92	8753.60
484.10	8744.24
484.28	8894.04
484.46	9156.18
484.64	9245.12
484.82	9060.21
485.00	9415.98
485.18	9413.63
485.35	9745.99
485.53	9507.26
485.71	9582.15
485.89	9643.01
486.07	9776.42
486.25	9713.22
486.43	9891.10
486.61	10010.47
486.78	9914.51
486.96	10076.01
487.14	10115.80
487.32	10134.52
487.50	10403.68
487.68	10214.10
487.85	10574.54
488.03	10494.96
488.21	10965.41
488.39	10663.48
488.57	10562.84
488.75	10829.66
488.92	10752.42
489.10	10974.77
489.28	11080.10
489.46	11180.74
489.64	11192.44
489.81	11604.38
489.99	11538.84
490.17	11726.08
490.35	11740.13
490.53	11604.38
490.70	11908.65
490.88	11723.74
491.06	12006.95
491.24	11969.50
491.41	12166.10
491.59	12114.61
491.77	12233.98
491.95	12161.42
492.13	12367.39
492.30	12561.66
492.48	12402.50
492.66	12556.97
492.84	12620.17
493.01	12746.56
493.19	12650.60
493.37	13018.06
493.54	13092.96
493.72	13018.06
493.90	13160.83
494.08	13153.81
494.25	13383.18
494.43	13322.33
494.61	13364.46
494.79	13317.65
494.96	13429.99
495.14	13584.47
495.32	13738.94
495.49	13834.91
495.67	13722.56
495.85	13926.19
496.02	14349.82
496.20	14314.72
496.38	14019.81
496.55	13914.48
496.73	14340.46
496.91	14551.11
497.09	14473.87
497.26	14551.11
497.44	14384.93
497.62	14544.09
497.79	14803.89
497.97	14988.79
498.14	14864.74
498.32	15232.21
498.50	15138.58
498.67	15190.08
498.85	14998.15
499.03	14920.92
499.20	15246.25
499.38	15393.70
499.56	15360.94
499.73	15454.56
499.91	15756.49
500.08	15463.92
500.26	15470.94
500.44	15527.11
500.61	15756.49
500.79	15571.58
500.97	15737.76
501.14	16259.70
501.32	15981.18
501.49	16088.84
501.67	15763.51
501.84	16484.39
502.02	16210.55
502.20	16290.13
502.37	16084.16
502.55	16240.98
502.72	16634.19
502.90	16706.74
503.07	16547.59
503.25	16727.81
503.43	16629.51
503.60	16727.81
503.78	16919.73
503.95	16566.31
504.13	16741.85
504.30	17034.42
504.48	16901.01
504.65	16924.41
504.83	17270.81
505.01	17458.06
505.18	17385.50
505.36	17387.84
505.53	17270.81
505.71	17369.12
505.88	17359.75
506.06	17418.27
506.23	17682.75
506.41	17631.26
506.58	17523.59
506.76	17675.73
506.93	17458.06
507.11	17731.90
507.28	18040.85
507.46	17895.74
507.63	17710.83
507.81	18052.55
507.98	18094.68
508.16	18214.05
508.33	18302.99
508.50	18111.07
508.68	18218.73
508.85	18136.81
509.03	18314.69
509.20	18530.02
509.38	18808.54
509.55	18225.75
509.73	18600.24
509.90	18656.41
510.08	18525.34
510.25	18640.03
510.42	18583.85
510.60	18642.37
510.77	19082.39
510.95	18939.62
511.12	19119.84
511.30	19168.99
511.47	19178.35
511.64	19201.76
511.82	19260.27
511.99	19445.17
512.17	19758.80
512.34	19194.73
512.51	19569.22
512.69	19550.49
512.86	19601.99
513.04	19789.23
513.21	19637.09
513.38	19637.09
513.56	19941.36
513.73	19737.74
513.90	20191.80
514.08	19838.38
514.25	20006.90
514.43	20215.21
514.60	20025.62
514.77	20159.03
514.95	20109.88
515.12	19924.98
515.29	19936.68
515.47	20617.78
515.64	20418.83
515.81	20540.54
515.99	20716.08
516.16	20645.87
516.33	20542.88
516.51	20533.52
516.68	20662.25
516.85	20709.06
517.03	20931.41
517.20	21041.42
517.37	20800.34
517.54	21404.20
517.72	21088.23
517.89	21092.91
518.06	20936.09
518.24	20919.71
518.41	21013.33
518.58	21399.52
518.75	21472.07
518.93	21420.58
519.10	21322.28
519.27	21446.33
519.45	21408.88
519.62	21490.80
519.79	21502.50
519.96	21394.84
520.14	21472.07
520.31	21413.56
520.48	21930.82
520.65	21647.61
520.83	22012.74
521.00	21752.94
521.17	21755.28
521.34	21750.60
521.52	21724.85
521.69	21844.22
521.86	22087.64
522.03	22120.40
522.20	22265.52
522.38	22139.13
522.55	22249.13
522.72	22396.59
522.89	22094.66
523.07	22391.91
523.24	22129.77
523.41	22874.06
523.58	22354.46
523.75	22747.67
523.92	22281.90
524.10	22703.20
524.27	22895.12
524.44	22651.70
524.61	23021.51
524.78	22874.06
524.96	22579.15
525.13	22696.17
525.30	22848.31
525.47	22738.30
525.64	22801.50
525.81	23194.71
525.98	23337.48
526.16	22932.57
526.33	23243.86
526.50	23246.20
526.67	23157.26
526.84	23065.98
527.01	23307.05
527.18	23168.96
527.36	23817.29
527.53	23482.59
527.70	23840.70
527.87	23988.15
528.04	23667.50
528.21	23543.45
528.38	23419.40
528.55	23796.23
528.72	23576.22
528.89	23941.34
529.07	24063.05
529.24	23995.17
529.41	23990.49
529.58	23915.59
529.75	24079.43
529.92	23887.51
530.09	24114.54
530.26	23976.45
530.43	24098.16
530.60	24283.06
530.77	24219.86
530.94	24432.85
531.11	24151.99
531.28	24395.40
531.46	24142.63
531.63	24360.30
531.80	24390.72
531.97	24395.40
532.14	24624.78
532.31	24606.05
532.48	24622.44
532.65	24428.17
532.82	24411.79
532.99	24643.50
533.16	24709.04
533.33	24690.31
533.50	25282.47
533.67	25179.48
533.84	24479.66
534.01	24636.48
534.18	25043.73
534.35	25025.01
534.52	24992.24
534.69	24964.15
534.86	25048.41
535.03	25036.71
535.20	25069.48
535.37	25167.78
535.54	25261.40
535.71	24994.58
535.88	25109.27
536.05	25303.53
536.22	25380.77
536.38	25425.24
536.55	25504.82
536.72	25340.98
536.89	25446.30
537.06	25170.12
537.23	25694.40
537.40	25621.84
537.57	25799.73
537.74	25944.84
537.91	25867.60
538.08	25792.70
538.25	25675.68
538.42	25769.30
538.59	25523.54
538.75	25528.22
538.92	25579.71
539.09	25628.87
539.26	25750.57
539.43	25968.24
539.60	26101.65
539.77	26075.91
539.94	26143.78
540.11	25745.89
540.28	26024.42
540.44	25914.41
540.61	26087.61
540.78	26211.66
540.95	26209.32
541.12	26153.15
541.29	26342.73
541.46	26260.81
541.62	26214.00
541.79	26153.15
541.96	26401.24
542.13	26153.15
542.30	26560.40
542.47	26520.61
542.63	27037.87
542.80	26735.94
542.97	26693.81
543.14	26735.94
543.31	26953.61
543.48	26742.96
543.64	27150.21
543.81	26998.08
543.98	27075.32
544.15	27157.24
544.32	27023.83
544.48	27428.74
544.65	26845.94
544.82	27124.47
544.99	26775.73
545.16	26967.65
545.32	26859.99
545.49	27522.36
545.66	27344.48
545.83	27484.91
546.00	27709.60
546.16	27407.67
546.33	27063.61
546.50	26845.94
546.67	27798.54
546.83	26862.33
547.00	27335.12
547.17	27426.40
547.34	27351.50
547.50	27894.50
547.67	27772.80
547.84	27440.44
548.00	27786.84
548.17	27690.88
548.34	27566.83
548.51	27924.93
548.67	27824.29
548.84	27938.97
549.01	27611.30
549.18	27742.37
549.34	27725.99
549.51	27686.20
549.68	28039.62
549.84	27796.20
550.01	27978.76
550.18	27702.58
550.34	28329.84
550.51	27840.67
550.68	28084.09
550.84	28056.00
551.01	28102.81
551.18	27536.40
551.34	28170.69
551.51	28140.26
551.68	27920.25
551.84	28032.60
552.01	28280.69
552.18	28222.18
552.34	28327.50
552.51	28203.46
552.68	28432.83
552.84	28442.19
553.01	28084.09
553.18	28357.93
553.34	28414.10
553.51	28400.06
553.67	28388.36
553.84	28886.89
554.01	28732.42
554.17	28601.35
554.34	28863.49
554.51	28540.49
554.67	28065.36
554.84	28720.71
555.00	28496.02
555.17	28896.25
555.33	28706.67
555.50	28648.16
555.67	28872.85
555.83	28542.83
556.00	28594.32
556.16	29067.11
556.33	29123.29
556.50	28858.81
556.66	28821.36
556.83	28891.57
556.99	29078.82
557.16	29139.67
557.32	29261.38
557.49	29291.80
557.65	28594.32
557.82	29102.22
557.98	28893.91
558.15	28851.78
558.32	29495.43
558.48	29118.60
558.65	29331.59
558.81	29230.95
558.98	29408.83
559.14	29329.25
559.31	29046.05
559.47	29041.37
559.64	29060.09
559.80	29467.34
559.97	29076.48
560.13	29443.94
560.30	28840.08
560.46	29202.86
560.63	29453.30
560.79	29467.34
560.96	29481.39
561.12	29156.05
561.29	29013.28
561.45	29034.35
561.61	29532.88
561.78	29738.85
561.94	29422.87
562.11	29893.32
562.27	29666.29
562.44	29783.32
562.60	29174.78
562.77	29186.48
562.93	29422.87
563.10	29635.86
563.26	29303.51
563.42	29764.59
563.59	29551.60
563.75	30029.07
563.92	29855.87
564.08	29481.39
564.24	29532.88
564.41	29670.97
564.57	29446.28
564.74	29345.64
564.90	30150.78
565.07	29652.25
565.23	29991.62
565.39	29827.79
565.56	30061.84
565.72	30113.33
565.88	29902.68
566.05	29266.06
566.21	29783.32
566.38	29687.36
566.54	30272.49
566.70	29907.37
566.87	30410.58
567.03	29556.28
567.19	30089.93
567.36	29935.45
567.52	29881.62
567.68	30127.38
567.85	29970.56
568.01	30008.01
568.17	29500.11
568.34	29944.81
568.50	30064.18
568.66	29916.73
568.83	30288.87
568.99	30022.05
569.15	29926.09
569.32	30005.67
569.48	29764.59
569.64	30087.59
569.81	30015.03
569.97	30291.21
570.13	30075.88
570.30	30185.89
570.46	29958.86
570.62	30347.39
570.78	29947.15
570.95	29806.72
571.11	30089.93
571.27	29874.60
571.43	29846.51
571.60	30005.67
571.76	30258.45
571.92	30113.33
572.09	30221.00
572.25	30431.65
572.41	30181.21
572.57	30087.59
572.74	30312.28
572.90	30000.99
573.06	30024.39
573.22	30129.72
573.38	29949.50
573.55	30115.67
573.71	30380.15
573.87	30555.69
574.03	30515.90
574.20	30632.93
574.36	30127.38
574.52	30300.58
574.68	30146.10
574.84	30167.16
575.01	30202.27
575.17	30555.69
575.33	29979.92
575.49	30209.29
575.65	30316.96
575.82	30529.95
575.98	30539.31
576.14	30183.55
576.30	29902.68
576.46	30125.04
576.62	30274.83
576.79	30677.40
576.95	30759.32
577.11	30359.09
577.27	30937.20
577.43	31091.68
577.59	30314.62
577.75	30057.16
577.92	30466.75
578.08	30366.11
578.24	29989.28
578.40	30293.55
578.56	30862.30
578.72	30265.47
578.88	30323.98
579.04	30541.65
579.21	30476.12
579.37	30635.27
579.53	30504.20
579.69	30501.86
579.85	30693.79
580.01	30375.47
580.17	30024.39
580.33	30595.48
580.49	30501.86
580.65	30796.77
580.82	30452.71
580.98	30773.36
581.14	30419.94
581.30	30675.06
581.46	30569.74
581.62	30455.05
581.78	30333.34
581.94	30314.62
582.10	30267.81
582.26	30862.30
582.42	30962.95
582.58	30448.03
582.74	30150.78
582.90	30906.77
583.06	30628.25
583.22	30511.22
583.38	30284.19
583.54	30576.76
583.70	30466.75
583.86	30445.69
584.02	30426.96
584.18	30679.74
584.34	30471.43
584.50	30616.55
584.66	30576.76
584.82	30382.49
584.98	30668.04
585.14	30321.64
585.30	30396.54
585.46	30300.58
585.62	30295.89
585.78	30515.90
585.94	30382.49
586.10	30321.64
586.26	30817.83
586.42	31042.53
586.58	31103.38
586.74	30316.96
586.90	30609.53
587.06	30609.53
587.22	30663.36
587.38	30731.23
587.54	31037.84
587.70	30738.26
587.86	31021.46
588.02	30951.24
588.18	30855.28
588.34	30686.76
588.49	30368.45
588.65	30782.73
588.81	30249.08
588.97	30756.98
589.13	30923.16
589.29	30654.00
589.45	30569.74
589.61	30979.33
589.77	31229.77
589.93	30862.30
590.08	30902.09
590.24	31178.28
590.40	31021.46
590.56	31267.22
590.72	30478.46
590.88	30820.17
591.04	30852.94
591.20	31019.12
591.35	30972.31
591.51	31531.70
591.67	31438.08
591.83	31419.35
591.99	31033.16
592.15	30918.48
592.31	31168.91
592.46	31119.76
592.62	30941.88
592.78	30714.85
592.94	30916.14
593.10	30888.05
593.26	31234.45
593.41	30958.27
593.57	30916.14
593.73	31101.04
593.89	31222.75
594.05	30785.07
594.20	31051.89
594.36	31180.62
594.52	30801.45
594.68	31281.26
594.84	30506.54
594.99	30939.54
595.15	31094.02
595.31	31119.76
595.47	31164.23
595.62	31311.69
595.78	31033.16
595.94	31201.68
596.10	31110.40
596.25	31321.05
596.41	30932.52
596.57	30927.84
596.73	31133.81
596.88	31110.40
597.04	31220.41
597.20	31578.51
597.36	31496.59
597.51	31494.25
597.67	31077.63
597.83	31557.44
597.99	30972.31
598.14	31171.25
598.30	30801.45
598.46	31164.23
598.61	30855.28
598.77	30700.81
598.93	31379.56
599.09	30988.69
599.24	31440.42
599.40	31470.84
599.56	31412.33
599.71	31236.79
599.87	31426.37
600.03	30691.44
600.18	31337.43
600.34	31339.77
600.50	31009.76
600.65	31253.17
600.81	31152.53
600.97	31583.19
601.12	31402.97
601.28	31449.78
601.44	31283.60
601.59	31318.71
601.75	31379.56
601.91	31257.85
602.06	31260.20
602.22	31384.24
602.37	31173.60
602.53	31044.87
602.69	31239.13
602.84	31342.11
603.00	31433.39
603.16	31304.67
603.31	31096.36
603.47	31110.40
603.62	30927.84
603.78	31290.62
603.94	31044.87
604.09	31372.54
604.25	31206.36
604.40	30991.03
604.56	31157.21
604.71	31498.93
604.87	31269.56
605.03	31328.07
605.18	31639.36
605.34	31576.17
605.49	31098.70
605.65	31182.96
605.80	31122.10
605.96	31143.17
606.12	30824.86
606.27	31424.03
606.43	30813.15
606.58	31395.95
606.74	31065.93
606.89	31072.95
607.05	31428.71
607.20	31321.05
607.36	31377.22
607.51	30979.33
607.67	30752.30
607.82	30698.47
607.98	31065.93
608.13	31594.89
608.29	31218.07
608.44	31377.22
608.60	31115.08
608.75	31454.46
608.91	31229.77
609.06	31138.49
609.22	31328.07
609.37	31026.14
609.53	31096.36
609.68	30909.11
609.84	30829.54
609.99	31042.53
610.15	31307.01
610.30	30862.30
610.46	31276.58
610.61	31040.18
610.76	30953.58
610.92	30642.29
611.07	31033.16
611.23	31058.91
611.38	30979.33
611.54	30293.55
611.69	30525.27
611.84	30618.89
612.00	30483.14
612.15	30764.00
612.31	30920.82
612.46	31105.72
612.62	30761.66
612.77	31019.12
612.92	31079.97
613.08	30899.75
613.23	30796.77
613.39	30483.14
613.54	30113.33
613.69	30394.20
613.85	30387.18
614.00	30581.44
614.15	30494.84
614.31	30448.03
614.46	30810.81
614.62	30555.69
614.77	30815.49
614.92	30850.60
615.08	30539.31
615.23	30658.68
615.38	30866.98
615.54	30581.44
615.69	30518.25
615.84	30274.83
616.00	30480.80
616.15	30714.85
616.30	30635.27
616.46	30398.88
616.61	30721.87
616.76	30504.20
616.92	30614.21
617.07	30618.89
617.22	30340.36
617.37	30354.41
617.53	30331.00
617.68	30600.16
617.83	30431.65
617.99	30101.63
618.14	30352.07
618.29	30536.97
618.45	30169.51
618.60	30146.10
618.75	30459.73
618.90	30382.49
619.06	30263.13
619.21	30333.34
619.36	30333.34
619.51	30274.83
619.67	29673.31
619.82	30188.23
619.97	29900.34
620.12	29624.16
620.28	30057.16
620.43	30415.26
620.58	30258.45
620.73	30150.78
620.89	30316.96
621.04	30340.36
621.19	30455.05
621.34	30162.48
621.49	29886.30
621.65	29736.51
621.80	29874.60
621.95	29493.09
622.10	29830.13
622.25	29806.72
622.41	30143.76
622.56	30010.35
622.71	29867.58
622.86	29710.76
623.01	29986.94
623.16	29820.77
623.32	29848.85
623.47	29886.30
623.62	29619.48
623.77	29673.31
623.92	29701.40
624.07	29802.04
624.23	29881.62
624.38	29769.27
624.53	29488.41
624.68	29748.21
624.83	29975.24
624.98	29713.10
625.13	29694.38
625.29	29825.45
625.44	29638.20
625.59	29680.33
625.74	29095.20
625.89	29476.71
626.04	29340.96
626.19	29275.42
626.34	29518.84
626.49	29219.25
626.65	29280.10
626.80	29191.16
626.95	29734.17
627.10	29617.14
627.25	29675.65
627.40	29453.30
627.55	28947.75
627.70	29198.18
627.85	29209.89
628.00	29034.35
628.15	29301.17
628.30	28872.85
628.45	29273.08
628.60	28811.99
628.76	28966.47
628.91	29207.55
629.06	29057.75
629.21	29247.33
629.36	29111.58
629.51	28844.76
629.66	29333.93
629.81	28910.30
629.96	28624.75
630.11	29408.83
630.26	28486.66
630.41	28540.49
630.56	28741.78
630.71	28952.43
630.86	28828.38
631.01	28929.02
631.16	28837.74
631.31	28910.30
631.46	28772.21
631.61	28903.28
631.76	28819.02
631.91	28821.36
632.06	28208.14
632.21	28629.43
632.36	28833.06
632.51	28725.39
632.66	28442.19
632.81	28187.07
632.96	28554.54
633.10	28591.98
633.25	28596.67
633.40	28751.14
633.55	28329.84
633.70	28231.54
633.85	28140.26
634.00	28273.67
634.15	28304.10
634.30	28243.24
634.45	28074.73
634.60	28222.18
634.75	28589.64
634.90	28409.42
635.05	28601.35
635.19	28477.30
635.34	28994.56
635.49	28645.82
635.64	28549.85
635.79	28224.52
635.94	28079.41
636.09	28486.66
636.24	27786.84
636.39	28037.28
636.53	28381.34
636.68	27967.06
636.83	28053.66
636.98	28573.26
637.13	27861.74
637.28	28460.91
637.43	27695.56
637.57	28208.14
637.72	28135.58
637.87	27908.55
638.02	28215.16
638.17	27861.74
638.32	27929.61
638.46	27728.33
638.61	27733.01
638.76	27716.62
638.91	27899.19
639.06	27796.20
639.20	27697.90
639.35	28109.83
639.50	27901.53
639.65	28079.41
639.80	28137.92
639.94	27754.07
640.09	27522.36
640.24	28222.18
640.39	27653.43
640.54	27967.06
640.68	27840.67
640.83	27866.42
640.98	27517.68
641.13	27569.17
641.27	27960.04
641.42	27454.48
641.57	27875.78
641.72	27639.39
641.86	27826.63
642.01	27218.09
642.16	27505.98
642.31	27510.66
642.45	27412.35
642.60	27445.12
642.75	27229.79
642.90	27101.06
643.04	27578.53
643.19	27585.55
643.34	27393.63
643.48	27295.33
643.63	27321.07
643.78	27417.04
643.93	27445.12
644.07	27440.44
644.22	27346.82
644.37	27477.89
644.51	27489.59
644.66	27395.97
644.81	27070.64
644.95	26965.31
645.10	26892.76
645.25	27171.28
645.39	27367.88
645.54	27255.54
645.69	27377.25
645.83	27190.00
645.98	27316.39
646.13	27498.95
646.27	27136.17
646.42	26845.94
646.57	27077.66
646.71	26981.70
646.86	27007.44
647.00	26958.29
647.15	26787.43
647.30	26834.24
647.44	26768.71
647.59	26977.01
647.74	26731.26
647.88	26899.78
648.03	27147.87
648.17	26834.24
648.32	27028.51
648.47	27119.79
648.61	26745.30
648.76	27267.24
648.90	27477.89
649.05	26780.41
649.20	26946.59
649.34	26857.65
649.49	26553.38
649.63	26431.67
649.78	26724.24
649.92	26354.43
650.07	26981.70
650.21	26632.96
650.36	26628.27
650.51	26328.69
650.65	26623.59
650.80	27047.23
650.94	26511.25
651.09	26614.23
651.23	26628.27
651.38	26639.98
651.52	26452.73
651.67	26387.20
651.81	26452.73
651.96	26146.12
652.10	26314.64
652.25	26513.59
652.39	26396.56
652.54	26654.02
652.68	26345.07
652.83	26780.41
652.97	26611.89
653.12	26464.44
653.26	26522.95
653.41	26384.86
653.55	26391.88
653.70	25984.63
653.84	26483.16
653.99	26401.24
654.13	26326.35
654.27	26293.58
654.42	25930.80
654.56	25876.96
654.71	26445.71
654.85	26185.91
655.00	26263.15
655.14	26319.32
655.29	25923.77
655.43	26148.46
655.57	26043.14
655.72	26010.37
655.86	26450.39
656.01	26064.21
656.15	25991.65
656.30	25874.62
656.44	25851.22
656.58	26043.14
656.73	25790.36
656.87	25762.28
657.01	25876.96
657.16	25876.96
657.30	25991.65
657.45	26036.12
657.59	25830.15
657.73	25755.26
657.88	25958.88
658.02	25556.31
658.16	25661.63
658.31	25371.41
658.45	25504.82
658.60	25350.34
658.74	25317.57
658.88	25446.30
659.03	25436.94
659.17	25551.63
659.31	25816.11
659.46	25317.57
659.60	25490.77
659.74	25331.62
659.89	25401.83
660.03	25301.19
660.17	25137.35
660.32	25266.08
660.46	25336.30
660.60	25025.01
660.74	25076.50
660.89	25233.32
661.03	25076.50
661.17	24599.03
661.32	24971.18
661.46	25120.97
661.60	24882.24
661.74	25298.85
661.89	25139.69
662.03	25109.27
662.17	24964.15
662.31	25062.46
662.46	25165.44
662.60	24819.04
662.74	25099.90
662.88	24847.13
663.03	24533.50
663.17	24444.56
663.31	24563.92
663.45	24629.46
663.60	24334.55
663.74	24329.87
663.88	24652.86
664.02	24414.13
664.17	24893.94
664.31	24463.28
664.45	24449.24
664.59	24482.00
664.73	24252.63
664.88	24070.07
665.02	23836.02
665.16	24245.61
665.30	24236.25
665.44	24081.77
665.59	23861.76
665.73	23927.30
665.87	23903.89
666.01	23981.13
666.15	24081.77
666.29	24091.13
666.44	23920.28
666.58	23997.51
666.72	23943.68
666.86	23964.75
667.00	23716.65
667.14	23707.29
667.28	23845.38
667.43	23737.71
667.57	23936.66
667.71	23187.69
667.85	23150.24
667.99	23400.68
668.13	23805.59
668.27	23590.26
668.41	23332.80
668.56	23791.55
668.70	23438.12
668.84	23491.96
668.98	23204.07
669.12	23468.55
669.26	23611.32
669.40	23487.28
669.54	23248.54
669.68	23211.09
669.82	22618.94
669.96	23047.26
670.10	23012.15
670.25	22829.59
670.39	23005.13
670.53	23248.54
670.67	22677.45
670.81	22864.69
670.95	22836.61
671.09	22878.74
671.23	22778.09
671.37	22661.07
671.51	22565.10
671.65	22712.56
671.79	22897.46
671.93	22738.30
672.07	22335.73
672.21	22047.85
672.35	21970.61
672.49	22389.56
672.63	22590.85
672.77	22169.55
672.91	22054.87
673.05	22267.86
673.19	22235.09
673.33	22104.02
673.47	22001.04
673.61	22527.66
673.75	21806.77
673.89	22146.15
674.03	22029.12
674.17	21785.71
674.31	22024.44
674.45	21694.43
674.59	21774.00
674.73	21820.81
674.87	21451.01
675.01	21525.91
675.15	21549.31
675.29	21659.32
675.43	21434.63
675.56	21397.18
675.70	21415.90
675.84	21378.45
675.98	21102.27
676.12	21329.30
676.26	21235.68
676.40	21465.05
676.54	21322.28
676.68	21041.42
676.82	20933.75
676.96	21102.27
677.10	21003.97
677.23	21032.05
677.37	20856.51
677.51	20774.60
677.65	20599.05
677.79	20477.35
677.93	20318.19
678.07	20320.53
678.21	20407.13
678.34	20650.55
678.48	20294.79
678.62	20175.42
678.76	20053.71
678.90	20004.56
679.04	20121.59
679.18	20023.28
679.31	19793.91
679.45	20006.90
679.59	19634.75
679.73	19660.50
679.87	19632.41
680.00	19798.59
680.14	19597.31
680.28	19412.40
680.42	19491.98
680.56	19403.04
680.70	19758.80
680.83	19454.53
680.97	19737.74
681.11	19515.39
681.25	19520.07
681.39	19136.22
681.52	19335.17
681.66	19087.07
681.80	19096.43
681.94	18864.72
682.07	18956.00
682.21	18700.88
682.35	18743.01
682.49	18656.41
682.62	18630.66
682.76	18541.72
682.90	18794.50
683.04	18483.21
683.17	18312.35
683.31	18497.25
683.45	18352.14
683.59	18106.38
683.72	18214.05
683.86	18354.48
684.00	18094.68
684.13	18118.09
684.27	18071.28
684.41	17736.58
684.55	17558.70
684.68	17785.73
684.82	17680.41
684.96	17862.97
685.09	17575.08
685.23	17380.82
685.37	17605.51
685.50	17387.84
685.64	17238.05
685.78	17715.51
685.91	17706.15
686.05	17268.47
686.19	17289.54
686.32	17436.99
686.46	17216.98
686.60	17130.38
686.73	16992.29
686.87	17085.91
687.01	16868.24
687.14	16788.66
687.28	16648.23
687.42	16439.92
687.55	16329.92
687.69	16479.71
687.82	16585.04
687.96	16615.46
688.10	16554.61
688.23	16428.22
688.37	16475.03
688.50	16278.43
688.64	16369.71
688.78	16339.28
688.91	16107.57
689.05	16037.35
689.18	15955.43
689.32	15758.83
689.46	15784.57
689.59	15742.44
689.73	15927.35
689.86	15840.75
690.00	15644.14
690.13	15611.37
690.27	15484.98
690.41	15866.49
690.54	15527.11
690.68	15562.22
690.81	15903.94
690.95	15463.92
691.08	15592.65
691.22	15421.79
691.35	15201.78
691.49	15267.31
691.62	15316.47
691.76	15241.57
691.89	14843.68
692.03	14981.77
692.16	14483.24
692.30	14445.79
692.43	14635.37
692.57	14551.11
692.70	14539.41
692.84	14640.05
692.97	14256.20
693.11	14677.50
693.24	14520.68
693.38	14609.62
693.51	14293.65
693.65	14260.88
693.78	14398.98
693.92	14005.77
694.05	14118.11
694.19	13958.96
694.32	14111.09
694.45	13914.48
694.59	13752.99
694.72	13710.86
694.86	13544.68
694.99	13343.39
695.13	13776.39
695.26	13525.96
695.39	13547.02
695.53	13357.44
695.66	13495.53
695.80	13336.37
695.93	13163.17
696.07	13413.61
696.20	13678.09
696.33	13362.12
696.47	13181.90
696.60	13200.62
696.73	13085.94
696.87	13303.60
697.00	13085.94
697.14	12849.54
697.27	12842.52
697.40	12856.56
697.54	12571.02
697.67	12753.58
697.80	12678.68
697.94	12503.14
698.07	12437.61
698.21	12336.96
698.34	12500.80
698.47	12437.61
698.61	12662.30
698.74	12442.29
698.87	12177.81
699.01	12128.66
699.14	12107.59
699.27	12271.43
699.40	12018.65
699.54	12173.13
699.67	12044.40
699.80	11798.64
699.94	11850.13
700.07	11915.67
700.20	11676.93
700.34	11529.48
700.47	11433.52
700.60	11627.78
700.73	11730.76
700.87	11351.60
701.00	11438.20
701.13	11461.60
701.26	11480.33
701.40	11391.39
701.53	11349.26
701.66	11147.97
701.79	11180.74
701.93	11159.67
702.06	10984.13
702.19	11059.03
702.32	10860.09
702.46	10782.85
702.59	10832.00
702.72	10506.66
702.85	10836.68
702.99	10663.48
703.12	10621.35
703.25	10375.59
703.38	10560.50
703.51	10382.62
703.65	10445.81
703.78	10384.96
703.91	10581.56
704.04	10719.65
704.17	10518.37
704.31	10305.38
704.44	10277.29
704.57	10331.12
704.70	10176.65
704.83	10050.26
704.96	10012.81
705.10	9907.49
705.23	9963.66
>>>>>End Processed Spectral Data<<<<<
