SpectraSuite Data File
++++++++++++++++++++++++++++++++++++
Date: Fri Oct 18 13:58:21 GMT-05:00 2013
User: bianchi
Dark Spectrum Present: No
Reference Spectrum Present: No
Number of Sampled Component Spectra: 1
Spectrometers: USB2+H05261
Integration Time (usec): 50000 (USB2+H05261)
Spectra Averaged: 1 (USB2+H05261)
Boxcar Smoothing: 0 (USB2+H05261)
Correct for Electrical Dark: No (USB2+H05261)
Strobe/Lamp Enabled: No (USB2+H05261)
Correct for Detector Non-linearity: No (USB2+H05261)
Correct for Stray Light: No (USB2+H05261)
Number of Pixels in Processed Spectrum: 2048
>>>>>Begin Processed Spectral Data<<<<<
365.73	0.00
365.92	0.00
366.12	0.00
366.32	0.00
366.52	0.00
366.72	0.00
366.91	0.00
367.11	0.00
367.31	0.00
367.51	0.00
367.70	0.00
367.90	0.00
368.10	0.00
368.30	0.00
368.49	0.00
368.69	0.00
368.89	0.00
369.09	0.00
369.28	0.00
369.48	0.00
369.68	0.00
369.87	0.00
370.07	0.00
370.27	0.00
370.47	0.00
370.66	117.03
370.86	98.30
371.06	205.97
371.25	173.20
371.45	119.37
371.65	100.64
371.84	77.24
372.04	154.48
372.24	131.07
372.44	177.88
372.63	149.79
372.83	238.73
373.03	102.98
373.22	248.10
373.42	203.63
373.62	187.24
373.81	245.76
374.01	201.29
374.21	257.46
374.40	210.65
374.60	255.12
374.79	292.57
374.99	215.33
375.19	227.03
375.38	212.99
375.58	215.33
375.78	231.71
375.97	273.84
376.17	264.48
376.37	278.52
376.56	259.80
376.76	362.78
376.95	299.59
377.15	304.27
377.35	276.18
377.54	210.65
377.74	234.05
377.93	294.91
378.13	322.99
378.33	241.08
378.52	252.78
378.72	301.93
378.91	304.27
379.11	236.39
379.31	217.67
379.50	238.73
379.70	234.05
379.89	250.44
380.09	278.52
380.28	327.68
380.48	294.91
380.68	320.65
380.87	243.42
381.07	322.99
381.26	301.93
381.46	327.68
381.65	297.25
381.85	245.76
382.04	287.89
382.24	348.74
382.43	351.08
382.63	297.25
382.83	311.29
383.02	397.89
383.22	393.21
383.41	320.65
383.61	404.91
383.80	330.02
384.00	372.15
384.19	353.42
384.39	341.72
384.58	418.96
384.78	411.93
384.97	395.55
385.17	360.44
385.36	379.17
385.56	348.74
385.75	332.36
385.95	388.53
386.14	367.46
386.34	360.44
386.53	327.68
386.72	346.40
386.92	482.15
387.11	379.17
387.31	425.98
387.50	346.40
387.70	444.70
387.89	428.32
388.09	425.98
388.28	531.30
388.48	421.30
388.67	472.79
388.86	444.70
389.06	521.94
389.25	407.25
389.45	458.74
389.64	416.62
389.84	589.82
390.03	444.70
390.22	461.09
390.42	381.51
390.61	470.45
390.81	411.93
391.00	514.92
391.19	514.92
391.39	505.56
391.58	468.11
391.78	543.00
391.97	594.50
392.16	472.79
392.36	526.62
392.55	505.56
392.75	526.62
392.94	475.13
393.13	512.58
393.33	564.07
393.52	587.47
393.71	575.77
393.91	582.79
394.10	582.79
394.29	568.75
394.49	528.96
394.68	543.00
394.88	599.18
395.07	606.20
395.26	550.03
395.46	550.03
395.65	718.54
395.84	613.22
396.04	538.32
396.23	599.18
396.42	596.84
396.62	713.86
396.81	585.13
397.00	627.26
397.19	617.90
397.39	653.01
397.58	634.29
397.77	669.39
397.97	655.35
398.16	720.88
398.35	751.31
398.55	650.67
398.74	699.82
398.93	676.41
399.12	671.73
399.32	697.48
399.51	716.20
399.70	683.44
399.90	746.63
400.09	760.67
400.28	821.53
400.47	739.61
400.67	767.70
400.86	858.98
401.05	779.40
401.24	777.06
401.44	847.27
401.63	772.38
401.82	812.17
402.01	791.10
402.21	795.78
402.40	889.40
402.59	788.76
402.78	851.96
402.97	889.40
403.17	784.08
403.36	840.25
403.55	926.85
403.74	873.02
403.93	777.06
404.13	896.43
404.32	891.74
404.51	875.36
404.70	901.11
404.89	919.83
405.09	945.58
405.28	919.83
405.47	894.08
405.66	901.11
405.85	961.96
406.05	880.04
406.24	908.13
406.43	957.28
406.62	912.81
406.81	999.41
407.00	964.30
407.20	971.32
407.39	1041.54
407.58	1020.47
407.77	1011.11
407.96	1064.94
408.15	1029.84
408.34	1029.84
408.54	1071.97
408.73	1174.95
408.92	1029.84
409.11	1125.80
409.30	1153.88
409.49	1041.54
409.68	1078.99
409.87	1179.63
410.07	1247.51
410.26	1151.54
410.45	1137.50
410.64	1172.61
410.83	1158.57
411.02	1256.87
411.21	1210.06
411.40	1231.12
411.59	1280.27
411.78	1188.99
411.98	1238.14
412.17	1315.38
412.36	1275.59
412.55	1275.59
412.74	1427.73
412.93	1390.28
413.12	1273.25
413.31	1308.36
413.50	1317.72
413.69	1355.17
413.88	1369.21
414.07	1497.94
414.26	1479.22
414.45	1441.77
414.64	1383.26
414.83	1490.92
415.02	1465.18
415.22	1394.96
415.41	1521.35
415.60	1572.84
415.79	1565.82
415.98	1596.25
416.17	1640.72
416.36	1584.54
416.55	1481.56
416.74	1720.29
416.93	1636.03
417.12	1621.99
417.31	1661.78
417.50	1715.61
417.69	1640.72
417.88	1687.53
418.07	1680.50
418.26	1692.21
418.45	1732.00
418.64	1813.92
418.83	1776.47
419.02	1785.83
419.21	1790.51
419.39	1806.89
419.58	1851.36
419.77	1727.32
419.96	1853.70
420.15	1867.75
420.34	1909.88
420.53	1879.45
420.72	1944.99
420.91	1909.88
421.10	2010.52
421.29	1905.20
421.48	1926.26
421.67	1989.46
421.86	1891.15
422.05	1909.88
422.24	1916.90
422.43	1886.47
422.61	1982.43
422.80	1959.03
422.99	1940.30
423.18	1933.28
423.37	2003.50
423.56	2043.29
423.75	1961.37
423.94	1989.46
424.13	1778.81
424.32	1919.24
424.50	1902.86
424.69	2031.58
424.88	2062.01
425.07	1881.79
425.26	1935.62
425.45	1982.43
425.64	2019.88
425.83	2001.16
426.01	2083.08
426.20	2085.42
426.39	1984.77
426.58	2054.99
426.77	2062.01
426.96	2036.27
427.15	2050.31
427.33	2153.29
427.52	2111.16
427.71	2073.71
427.90	2071.37
428.09	2216.49
428.28	2134.57
428.46	2157.97
428.65	2139.25
428.84	2129.89
429.03	2265.64
429.22	2216.49
429.40	2225.85
429.59	2296.07
429.78	2143.93
429.97	2054.99
430.16	2157.97
430.34	2324.15
430.53	2317.13
430.72	2406.07
430.91	2197.76
431.10	2289.04
431.28	2221.17
431.47	2249.25
431.66	2410.75
431.85	2394.37
432.03	2347.56
432.22	2361.60
432.41	2392.03
432.60	2293.72
432.79	2305.43
432.97	2490.33
433.16	2548.84
433.35	2434.16
433.54	2394.37
433.72	2511.39
433.91	2509.05
434.10	2502.03
434.28	2487.99
434.47	2523.10
434.66	2600.34
434.85	2607.36
435.03	2548.84
435.22	2520.76
435.41	2649.49
435.59	2583.95
435.78	2644.81
435.97	2593.31
436.16	2586.29
436.34	2595.65
436.53	2698.64
436.72	2780.56
436.90	2588.63
437.09	2661.19
437.28	2729.06
437.46	2717.36
437.65	2677.57
437.84	2834.39
438.02	2712.68
438.21	2857.79
438.40	2860.13
438.58	2731.41
438.77	2775.88
438.96	2951.42
439.14	2918.65
439.33	2963.12
439.52	2827.37
439.70	2885.88
439.89	3005.25
440.08	2986.52
440.26	3009.93
440.45	3042.70
440.63	2930.35
440.82	3084.83
441.01	3077.80
441.19	3009.93
441.38	3129.30
441.57	3173.77
441.75	3180.79
441.94	3232.28
442.12	3201.85
442.31	3265.05
442.50	3410.16
442.68	3208.87
442.87	3229.94
443.05	3290.79
443.24	3363.35
443.43	3410.16
443.61	3353.99
443.80	3375.05
443.98	3194.83
444.17	3255.69
444.35	3400.80
444.54	3260.37
444.73	3302.50
444.91	3288.45
445.10	3368.03
445.28	3426.54
445.47	3398.46
445.65	3358.67
445.84	3454.63
446.02	3496.76
446.21	3403.14
446.39	3431.23
446.58	3433.57
446.77	3496.76
446.95	3433.57
447.14	3499.10
447.32	3440.59
447.51	3421.86
447.69	3440.59
447.88	3424.20
448.06	3555.27
448.25	3471.01
448.43	3562.30
448.62	3508.46
448.80	3552.93
448.99	3623.15
449.17	3543.57
449.36	3555.27
449.54	3714.43
449.73	3655.92
449.91	3646.55
450.10	3651.24
450.28	3819.75
450.46	3595.06
450.65	3700.39
450.83	3726.13
451.02	3742.52
451.20	3655.92
451.39	3719.11
451.57	3676.98
451.76	3651.24
451.94	3726.13
452.13	3929.76
452.31	3873.59
452.49	3655.92
452.68	3742.52
452.86	3868.91
453.05	3819.75
453.23	3831.46
453.42	3721.45
453.60	3852.52
453.78	3812.73
453.97	3798.69
454.15	3845.50
454.34	3927.42
454.52	4007.00
454.70	3981.25
454.89	3854.86
455.07	4067.85
455.26	4037.42
455.44	4189.56
455.62	4044.45
455.81	3896.99
455.99	4161.47
456.17	3974.23
456.36	3885.29
456.54	4117.00
456.73	4198.92
456.91	4161.47
457.09	4250.41
457.28	4250.41
457.46	4138.07
457.64	4315.95
457.83	4346.37
458.01	4131.05
458.19	4489.15
458.38	4175.52
458.56	4339.35
458.74	4318.29
458.93	4311.27
459.11	4454.04
459.29	4362.76
459.48	4533.62
459.66	4390.84
459.84	4648.30
460.03	4606.17
460.21	4400.21
460.39	4505.53
460.57	4470.42
460.76	4524.26
460.94	4531.28
461.12	4568.73
461.31	4353.40
461.49	4465.74
461.67	4463.40
461.85	4690.43
462.04	4552.34
462.22	4793.42
462.40	4702.14
462.59	4713.84
462.77	4643.62
462.95	4533.62
463.13	4655.33
463.32	4863.63
463.50	4610.86
463.68	4702.14
463.86	4809.80
464.05	4863.63
464.23	4865.97
464.41	4809.80
464.59	4697.46
464.78	5022.79
464.96	4788.74
465.14	4812.14
465.32	4987.68
465.50	5008.75
465.69	5018.11
465.87	4954.91
466.05	4997.04
466.23	4943.21
466.41	5095.35
466.60	5088.32
466.78	4926.83
466.96	4971.30
467.14	4987.68
467.32	5025.13
467.51	5160.88
467.69	4983.00
467.87	5057.90
468.05	5083.64
468.23	4814.48
468.41	5184.29
468.60	5069.60
468.78	5116.41
468.96	5039.17
469.14	5088.32
469.32	5240.46
469.50	5036.83
469.69	5132.79
469.87	5170.24
470.05	5338.76
470.23	5301.31
470.41	5249.82
470.59	5334.08
470.77	5451.11
470.95	5467.49
471.14	5390.25
471.32	5488.56
471.50	5675.80
471.68	5518.98
471.86	5439.40
472.04	5441.75
472.22	5537.71
472.40	5598.56
472.58	5741.33
472.77	5820.91
472.95	5568.13
473.13	5743.67
473.31	5785.80
473.49	5851.34
473.67	5891.13
473.85	5907.51
474.03	5907.51
474.21	5949.64
474.39	6076.03
474.57	6029.22
474.75	6125.18
474.93	6017.52
475.12	5980.07
475.30	6069.01
475.48	6038.58
475.66	6085.39
475.84	6045.60
476.02	6232.85
476.20	6258.59
476.38	6389.66
476.56	6588.61
476.74	6473.92
476.92	6541.80
477.10	6473.92
477.28	6612.01
477.46	6396.68
477.64	6581.59
477.82	6626.06
478.00	6759.47
478.18	6832.02
478.36	6853.09
478.54	6965.43
478.72	7021.61
478.90	6984.16
479.08	7204.17
479.26	7183.10
479.44	7293.11
479.62	7089.48
479.80	7375.03
479.98	7150.34
480.16	7414.82
480.34	7337.58
480.52	7485.03
480.70	7384.39
480.88	7606.74
481.06	7557.59
481.24	7606.74
481.41	7857.18
481.59	7789.30
481.77	7798.66
481.95	7887.61
482.13	7925.05
482.31	7976.55
482.49	8257.41
482.67	8210.60
482.85	8341.67
483.03	8234.00
483.21	8500.83
483.39	8322.94
483.57	8374.44
483.74	8594.45
483.92	8573.38
484.10	8477.42
484.28	8837.86
484.46	9011.06
484.64	8877.65
484.82	8842.54
485.00	9048.51
485.18	9343.42
485.35	9184.26
485.53	9004.04
485.71	9345.76
485.89	9413.63
486.07	9455.76
486.25	9355.12
486.43	9462.79
486.61	9654.71
486.78	9678.12
486.96	9720.24
487.14	9806.84
487.32	9870.04
487.50	10155.58
487.68	9968.34
487.85	10202.40
488.03	10235.16
488.21	10541.77
488.39	10518.37
488.57	10399.00
488.75	10604.97
488.92	10670.50
489.10	10600.29
489.28	10857.75
489.46	10839.02
489.64	10920.94
489.81	11370.32
489.99	11112.86
490.17	11014.56
490.35	11082.44
490.53	11286.06
490.70	11407.77
490.88	11435.86
491.06	11407.77
491.24	11683.95
491.41	11688.64
491.59	11695.66
491.77	11798.64
491.95	11997.59
492.13	11920.35
492.30	12311.22
492.48	11950.78
492.66	12091.21
492.84	11953.12
493.01	12416.54
493.19	12173.13
493.37	12418.88
493.54	12608.47
493.72	12603.78
493.90	12645.91
494.08	12556.97
494.25	12685.70
494.43	12882.31
494.61	13060.19
494.79	12989.97
494.96	13076.57
495.14	13289.56
495.32	13319.99
495.49	13486.17
495.67	13434.68
495.85	13441.70
496.02	13792.78
496.20	13830.23
496.38	13687.45
496.55	13949.59
496.73	13994.06
496.91	14003.43
497.09	13907.46
497.26	14015.13
497.44	14001.08
497.62	14171.94
497.79	14260.88
497.97	14288.97
498.14	14672.82
498.32	14689.20
498.50	14389.61
498.67	14771.12
498.85	14705.59
499.03	14960.70
499.20	14614.30
499.38	14827.29
499.56	14792.19
499.73	14857.72
499.91	15091.77
500.08	15283.70
500.26	15061.35
500.44	15131.56
500.61	15510.73
500.79	15180.71
500.97	15417.11
501.14	15566.90
501.32	15831.38
501.49	15639.46
501.67	15641.80
501.84	15683.93
502.02	15885.22
502.20	15880.53
502.37	15922.66
502.55	16013.95
502.72	15831.38
502.90	15789.25
503.07	15901.60
503.25	16020.97
503.43	16292.47
503.60	16540.57
503.78	16343.96
503.95	16255.02
504.13	16353.32
504.30	16184.80
504.48	16402.47
504.65	16762.92
504.83	16821.43
505.01	16690.36
505.18	16692.70
505.36	16985.27
505.53	16980.59
505.71	16573.33
505.88	16879.94
506.06	17022.72
506.23	17081.23
506.41	16940.80
506.58	17165.49
506.76	17123.36
506.93	17408.90
507.11	17085.91
507.28	17352.73
507.46	17348.05
507.63	17502.53
507.81	17334.01
507.98	17607.85
508.16	17640.62
508.33	17554.02
508.50	17729.56
508.68	17645.30
508.85	17956.59
509.03	17991.70
509.20	17820.84
509.38	17982.34
509.55	18288.95
509.73	17963.61
509.90	18319.37
510.08	18120.43
510.25	17769.35
510.42	18321.71
510.60	18347.46
510.77	18572.15
510.95	18616.62
511.12	18480.87
511.30	18380.23
511.47	18398.95
511.64	18724.29
511.82	18541.72
511.99	18553.43
512.17	18775.78
512.34	18717.26
512.51	18904.51
512.69	18813.23
512.86	18728.97
513.04	19152.60
513.21	19058.98
513.38	19391.34
513.56	19374.95
513.73	18965.36
513.90	19098.77
514.08	19215.80
514.25	19304.74
514.43	19695.61
514.60	19374.95
514.77	19576.24
514.95	19604.33
515.12	19688.59
515.29	19770.51
515.47	19541.13
515.64	19932.00
515.81	19711.99
515.99	19873.49
516.16	19613.69
516.33	19974.13
516.51	19997.54
516.68	20018.60
516.85	19953.07
517.03	20285.42
517.20	20517.14
517.37	20374.36
517.54	20432.88
517.72	20472.67
517.89	19953.07
518.06	20423.51
518.24	20329.89
518.41	20655.23
518.58	20465.64
518.75	20301.81
518.93	20727.78
519.10	20596.71
519.27	20702.04
519.45	20713.74
519.62	20959.50
519.79	20453.94
519.96	20992.26
520.14	20950.14
520.31	20762.89
520.48	21069.50
520.65	20975.88
520.83	21106.95
521.00	21186.53
521.17	21123.33
521.34	20751.19
521.52	21273.13
521.69	21303.56
521.86	21476.76
522.03	21706.13
522.20	21570.38
522.38	21123.33
522.55	21385.47
522.72	21348.03
522.89	21448.67
523.07	21729.53
523.24	21699.11
523.41	21785.71
523.58	21584.42
523.75	22230.41
523.92	21708.47
524.10	21713.15
524.27	22113.38
524.44	22106.36
524.61	22321.69
524.78	22068.91
524.96	22195.30
525.13	22036.14
525.30	22225.73
525.47	22141.47
525.64	22548.72
525.81	22522.98
525.98	22792.14
526.16	22473.82
526.33	22483.19
526.50	22689.15
526.67	22419.99
526.84	22377.86
527.01	22497.23
527.18	22604.89
527.36	22537.02
527.53	22104.02
527.70	22831.93
527.87	22955.97
528.04	22537.02
528.21	23005.13
528.38	22827.24
528.55	23101.09
528.72	23098.75
528.89	23213.43
529.07	23049.60
529.24	23166.62
529.41	23040.23
529.58	23204.07
529.75	23552.81
529.92	23229.82
530.09	23297.69
530.26	23709.63
530.43	23358.55
530.60	23260.24
530.77	23405.36
530.94	23536.43
531.11	23442.81
531.28	23515.36
531.46	23508.34
531.63	23768.14
531.80	23709.63
531.97	23836.02
532.14	23955.38
532.31	23697.92
532.48	23747.08
532.65	24084.11
532.82	23468.55
532.99	23843.04
533.16	23674.52
533.33	23885.17
533.50	24137.94
533.67	24219.86
533.84	24123.90
534.01	24224.54
534.18	23742.39
534.35	24290.08
534.52	24348.59
534.69	24451.58
534.86	24215.18
535.03	24624.78
535.20	24549.88
535.37	24620.10
535.54	24566.26
535.71	24276.04
535.88	24535.84
536.05	24393.06
536.22	24568.60
536.38	24702.01
536.55	24390.72
536.72	24643.50
536.89	24226.89
537.06	24723.08
537.23	24875.21
537.40	24577.97
537.57	24966.49
537.74	24844.79
537.91	25226.29
538.08	24755.85
538.25	25116.29
538.42	24833.08
538.59	24615.41
538.75	24877.55
538.92	24587.33
539.09	24741.80
539.26	25132.67
539.43	25123.31
539.60	25160.76
539.77	25467.37
539.94	24917.34
540.11	25057.78
540.28	25312.89
540.44	25434.60
540.61	24938.41
540.78	24999.26
540.95	25453.33
541.12	25326.94
541.29	25186.50
541.46	25301.19
541.62	25329.28
541.79	25397.15
541.96	25090.54
542.13	25238.00
542.30	25357.36
542.47	25516.52
542.63	25598.44
542.80	25820.79
542.97	26033.78
543.14	25844.20
543.31	25893.35
543.48	26003.35
543.64	26216.34
543.81	25942.50
543.98	26040.80
544.15	26391.88
544.32	26284.22
544.48	26324.01
544.65	26176.55
544.82	26391.88
544.99	26003.35
545.16	26134.42
545.32	26139.10
545.49	26216.34
545.66	26469.12
545.83	26586.15
546.00	26686.79
546.16	26434.01
546.33	26157.83
546.50	25912.07
546.67	26209.32
546.83	26181.23
547.00	26586.15
547.17	26586.15
547.34	26696.15
547.50	26785.09
547.67	26787.43
547.84	26520.61
548.00	26799.13
548.17	27070.64
548.34	26867.01
548.51	26862.33
548.67	27054.25
548.84	27147.87
549.01	26998.08
549.18	26724.24
549.34	26981.70
549.51	26876.37
549.68	27138.51
549.84	26876.37
550.01	26813.18
550.18	26541.68
550.34	27101.06
550.51	27089.36
550.68	27236.81
550.84	26815.52
551.01	27213.41
551.18	26827.22
551.34	27009.78
551.51	27227.45
551.68	27339.80
551.84	27164.26
552.01	27257.88
552.18	27218.09
552.34	27105.74
552.51	27491.93
552.68	27468.53
552.84	27220.43
553.01	27545.76
553.18	27264.90
553.34	27873.44
553.51	27431.08
553.67	27707.26
553.84	27737.69
554.01	27639.39
554.17	27637.05
554.34	27346.82
554.51	27459.16
554.67	27962.38
554.84	27810.25
555.00	27489.59
555.17	27651.09
555.33	27513.00
555.50	27557.47
555.67	27562.15
555.83	27445.12
556.00	27697.90
556.16	28016.21
556.33	27531.72
556.50	27613.64
556.66	28074.73
556.83	27868.76
556.99	28290.06
557.16	28257.29
557.32	28098.13
557.49	28240.90
557.65	27655.77
557.82	28011.53
557.98	27826.63
558.15	28395.38
558.32	27976.42
558.48	27924.93
558.65	28231.54
558.81	28123.88
558.98	27995.15
559.14	28271.33
559.31	28215.16
559.47	27922.59
559.64	28521.77
559.80	28325.16
559.97	28299.42
560.13	28116.86
560.30	28306.44
560.46	28573.26
560.63	28341.55
560.79	28175.37
560.96	28362.61
561.12	28231.54
561.29	28222.18
561.45	28386.02
561.61	28664.54
561.78	28613.05
561.94	28584.96
562.11	28622.41
562.27	28858.81
562.44	28631.77
562.60	28676.24
562.77	28240.90
562.93	28507.72
563.10	28652.84
563.26	28512.41
563.42	28776.89
563.59	28659.86
563.75	28790.93
563.92	28631.77
564.08	28587.30
564.24	28409.42
564.41	28575.60
564.57	28631.77
564.74	28170.69
564.90	28671.56
565.07	28762.84
565.23	28842.42
565.39	29022.64
565.56	28821.36
565.72	28563.90
565.88	28835.40
566.05	28716.03
566.21	28524.11
566.38	28797.95
566.54	28847.10
566.70	29048.39
566.87	29139.67
567.03	28739.44
567.19	29322.23
567.36	28929.02
567.52	28554.54
567.68	28849.44
567.85	28685.61
568.01	29102.22
568.17	28706.67
568.34	28905.62
568.50	28814.34
568.66	29015.62
568.83	28891.57
568.99	29249.67
569.15	29226.27
569.32	28718.37
569.48	28872.85
569.64	28868.17
569.81	29230.95
569.97	29095.20
570.13	29060.09
570.30	28690.29
570.46	29163.08
570.62	28945.41
570.78	29015.62
570.95	28657.52
571.11	29273.08
571.27	28664.54
571.43	29116.26
571.60	29043.71
571.76	29039.03
571.92	29132.65
572.09	29523.52
572.25	29102.22
572.41	29032.00
572.57	29373.72
572.74	28875.19
572.90	29373.72
573.06	29036.69
573.22	28914.98
573.38	29006.26
573.55	29303.51
573.71	29287.12
573.87	29069.45
574.03	28980.51
574.20	29120.95
574.36	29151.37
574.52	29324.57
574.68	29252.02
574.84	29167.76
575.01	29439.26
575.17	29193.50
575.33	29177.12
575.49	29233.29
575.65	29446.28
575.82	28996.90
575.98	29390.11
576.14	29212.23
576.30	29130.31
576.46	29343.30
576.62	29432.24
576.79	29055.41
576.95	29200.52
577.11	29443.94
577.27	29563.31
577.43	29291.80
577.59	29223.93
577.75	29221.59
577.92	28919.66
578.08	28924.34
578.24	29235.63
578.40	29195.84
578.56	29631.18
578.72	29270.74
578.88	29116.26
579.04	29376.06
579.21	29558.63
579.37	29439.26
579.53	29357.34
579.69	29200.52
579.85	29319.89
580.01	29223.93
580.17	29404.15
580.33	29207.55
580.49	29228.61
580.65	29429.90
580.82	29266.06
580.98	29516.50
581.14	29254.36
581.30	29483.73
581.46	29179.46
581.62	29378.40
581.78	29055.41
581.94	29369.04
582.10	29479.05
582.26	29523.52
582.42	29322.23
582.58	29607.78
582.74	29207.55
582.90	29420.53
583.06	29806.72
583.22	29596.07
583.38	29427.56
583.54	29198.18
583.70	29677.99
583.86	29282.44
584.02	29226.27
584.18	29638.20
584.34	29937.79
584.50	29820.77
584.66	29479.05
584.82	29298.83
584.98	29259.04
585.14	29560.97
585.30	29411.17
585.46	29113.92
585.62	29263.72
585.78	29369.04
585.94	29490.75
586.10	29738.85
586.26	29706.08
586.42	29567.99
586.58	29518.84
586.74	29275.42
586.90	29142.01
587.06	29387.77
587.22	29539.90
587.38	29476.71
587.54	29584.37
587.70	30005.67
587.86	29685.01
588.02	29479.05
588.18	29914.39
588.34	29535.22
588.49	29549.26
588.65	29338.62
588.81	29462.66
588.97	29820.77
589.13	29626.50
589.29	29537.56
589.45	29549.26
589.61	29846.51
589.77	29502.45
589.93	29989.28
590.08	29851.19
590.24	29853.53
590.40	29834.81
590.56	29825.45
590.72	29862.90
590.88	29153.71
591.04	29359.68
591.20	29820.77
591.35	29790.34
591.51	30033.75
591.67	29888.64
591.83	29898.00
591.99	29942.47
592.15	29722.46
592.31	30043.12
592.46	29692.04
592.62	29991.62
592.78	29799.70
592.94	29752.89
593.10	29472.03
593.26	29895.66
593.41	29841.83
593.57	29776.30
593.73	30118.01
593.89	29933.11
594.05	29958.86
594.20	30092.27
594.36	29858.21
594.52	30003.33
594.68	29310.53
594.84	29638.20
594.99	29865.24
595.15	30015.03
595.31	29949.50
595.47	30026.73
595.62	29883.96
595.78	29975.24
595.94	30061.84
596.10	30169.51
596.25	29729.48
596.41	29778.64
596.57	29462.66
596.73	29963.54
596.88	30015.03
597.04	30057.16
597.20	29790.34
597.36	30202.27
597.51	30654.00
597.67	30258.45
597.83	29799.70
597.99	29886.30
598.14	29963.54
598.30	29928.43
598.46	29837.15
598.61	30092.27
598.77	29729.48
598.93	30003.33
599.09	30415.26
599.24	30323.98
599.40	30092.27
599.56	30349.73
599.71	29841.83
599.87	30071.20
600.03	29919.07
600.18	29888.64
600.34	29682.67
600.50	29825.45
600.65	30359.09
600.81	30052.48
600.97	29937.79
601.12	30258.45
601.28	30085.25
601.44	30059.50
601.59	30335.68
601.75	29876.94
601.91	30288.87
602.06	29909.71
602.22	29687.36
602.37	30089.93
602.53	29947.15
602.69	30118.01
602.84	29951.84
603.00	30094.61
603.16	30246.74
603.31	29743.53
603.47	30260.79
603.62	29722.46
603.78	29795.02
603.94	30206.95
604.09	29839.49
604.25	29886.30
604.40	29937.79
604.56	29766.93
604.71	30148.44
604.87	30024.39
605.03	30232.70
605.18	30246.74
605.34	30052.48
605.49	29773.95
605.65	29907.37
605.80	29572.67
605.96	30033.75
606.12	30235.04
606.27	29830.13
606.43	30045.46
606.58	30139.08
606.74	29926.09
606.89	30043.12
607.05	30099.29
607.20	30153.12
607.36	29773.95
607.51	29886.30
607.67	29935.45
607.82	29797.36
607.98	29909.71
608.13	29827.79
608.29	29556.28
608.44	29975.24
608.60	30441.01
608.75	30218.66
608.91	30003.33
609.06	29401.81
609.22	29958.86
609.37	29469.69
609.53	29970.56
609.68	29858.21
609.84	29376.06
609.99	29792.68
610.15	29792.68
610.30	29720.12
610.46	29886.30
610.61	29898.00
610.76	29336.27
610.92	29619.48
611.07	29879.28
611.23	29654.59
611.38	29670.97
611.54	29764.59
611.69	29387.77
611.84	29490.75
612.00	29851.19
612.15	29481.39
612.31	29546.92
612.46	30099.29
612.62	29811.40
612.77	29745.87
612.92	29656.93
613.08	29727.14
613.23	29261.38
613.39	29308.19
613.54	29277.76
613.69	29355.00
613.85	29132.65
614.00	29326.91
614.15	29769.27
614.31	29516.50
614.46	29481.39
614.62	29273.08
614.77	29486.07
614.92	29465.00
615.08	29666.29
615.23	29280.10
615.38	29308.19
615.54	29537.56
615.69	28851.78
615.84	29266.06
616.00	29254.36
616.15	29104.56
616.30	29542.24
616.46	29591.39
616.61	29385.43
616.76	29500.11
616.92	29364.36
617.07	29591.39
617.22	28751.14
617.37	29443.94
617.53	28982.85
617.68	28989.88
617.83	29259.04
617.99	28783.91
618.14	29525.86
618.29	29315.21
618.45	29333.93
618.60	29553.94
618.75	28947.75
618.90	29429.90
619.06	29076.48
619.21	28802.63
619.36	28655.18
619.51	28716.03
619.67	28840.08
619.82	29261.38
619.97	29184.14
620.12	28687.95
620.28	28807.31
620.43	28975.83
620.58	28765.18
620.73	28683.27
620.89	28929.02
621.04	28910.30
621.19	28723.05
621.34	28999.24
621.49	28711.35
621.65	28636.45
621.80	28896.25
621.95	28673.90
622.10	28449.21
622.25	28594.32
622.41	28814.34
622.56	28959.45
622.71	28769.86
622.86	28470.28
623.01	28222.18
623.16	28575.60
623.32	28460.91
623.47	28758.16
623.62	28556.88
623.77	28762.84
623.92	28493.68
624.07	28407.08
624.23	28327.50
624.38	28788.59
624.53	28582.62
624.68	28767.52
624.83	29090.52
624.98	28826.04
625.13	28278.35
625.29	28636.45
625.44	28278.35
625.59	28446.87
625.74	27896.85
625.89	27892.16
626.04	28290.06
626.19	28105.15
626.34	28290.06
626.49	28318.14
626.65	28119.20
626.80	28294.74
626.95	28119.20
627.10	28109.83
627.25	28371.97
627.40	27711.94
627.55	27742.37
627.70	28245.58
627.85	27845.35
628.00	28025.57
628.15	28112.17
628.30	27709.60
628.45	28194.09
628.60	27924.93
628.76	28053.66
628.91	28095.79
629.06	27653.43
629.21	28301.76
629.36	27910.89
629.51	27924.93
629.66	27810.25
629.81	27714.28
629.96	27637.05
630.11	27901.53
630.26	27515.34
630.41	27929.61
630.56	27615.98
630.71	28051.32
630.86	27693.22
631.01	27428.74
631.16	27896.85
631.31	27491.93
631.46	27606.62
631.61	27817.27
631.76	27740.03
631.91	27395.97
632.06	27505.98
632.21	27197.02
632.36	27667.47
632.51	27353.84
632.66	27339.80
632.81	27513.00
632.96	27477.89
633.10	27662.79
633.25	27461.51
633.40	27604.28
633.55	27608.96
633.70	27321.07
633.85	27119.79
634.00	27044.89
634.15	27044.89
634.30	27026.17
634.45	27147.87
634.60	27573.85
634.75	27061.27
634.90	26801.47
635.05	27157.24
635.19	27241.50
635.34	27344.48
635.49	27452.14
635.64	27164.26
635.79	27372.57
635.94	27019.14
636.09	27339.80
636.24	27096.38
636.39	27108.08
636.53	27136.17
636.68	27124.47
636.83	27101.06
636.98	27318.73
637.13	26836.58
637.28	27077.66
637.43	27442.78
637.57	27009.78
637.72	26785.09
637.87	26852.97
638.02	26995.74
638.17	27042.55
638.32	26824.88
638.46	26639.98
638.61	26434.01
638.76	26757.00
638.91	26492.52
639.06	26490.18
639.20	26595.51
639.35	26951.27
639.50	26647.00
639.65	26920.84
639.80	26988.72
639.94	26771.05
640.09	26712.53
640.24	26726.58
640.39	26506.57
640.54	26333.37
640.68	26256.13
640.83	26242.09
640.98	26082.93
641.13	26403.58
641.27	26551.04
641.42	26284.22
641.57	26574.44
641.72	26628.27
641.86	26134.42
642.01	26780.41
642.16	26405.92
642.31	26239.75
642.45	26438.69
642.60	26368.48
642.75	26251.45
642.90	26160.17
643.04	25940.16
643.19	25912.07
643.34	26293.58
643.48	26319.32
643.63	26216.34
643.78	26331.03
643.93	26607.21
644.07	26242.09
644.22	26394.22
644.37	26441.03
644.51	26185.91
644.66	25968.24
644.81	25928.45
644.95	26316.98
645.10	26122.72
645.25	25928.45
645.39	26232.72
645.54	26118.04
645.69	25745.89
645.83	25979.95
645.98	26232.72
646.13	26216.34
646.27	26359.11
646.42	26022.08
646.57	25869.94
646.71	25872.28
646.86	26216.34
647.00	25891.01
647.15	25591.42
647.30	25603.12
647.44	25497.80
647.59	25603.12
647.74	25963.56
647.88	25565.67
648.03	25762.28
648.17	26057.18
648.32	26033.78
648.47	25998.67
648.61	25542.27
648.76	25839.51
648.90	25738.87
649.05	25825.47
649.20	25703.76
649.34	25563.33
649.49	25420.56
649.63	25476.73
649.78	25612.48
649.92	25383.11
650.07	25631.21
650.21	25357.36
650.36	25481.41
650.51	25326.94
650.65	25502.48
650.80	25589.08
650.94	25797.38
651.09	25315.23
651.23	25598.44
651.38	25238.00
651.52	25132.67
651.67	25338.64
651.81	25319.92
651.96	25560.99
652.10	25245.02
652.25	25434.60
652.39	25369.07
652.54	25317.57
652.68	25266.08
652.83	25310.55
652.97	25287.15
653.12	25584.40
653.26	25308.21
653.41	25329.28
653.55	25060.12
653.70	24999.26
653.84	25153.74
653.99	24985.22
654.13	24917.34
654.27	25046.07
654.42	25022.67
654.56	25053.09
654.71	25078.84
654.85	25020.33
655.00	25275.45
655.14	25097.56
655.29	24711.38
655.43	24980.54
655.57	25240.34
655.72	25032.03
655.86	25163.10
656.01	25034.37
656.15	24629.46
656.30	24884.58
656.44	24484.34
656.58	24879.89
656.73	24814.36
656.87	24584.99
657.01	24737.12
657.16	24975.86
657.30	24837.76
657.45	24329.87
657.59	24669.25
657.73	24521.79
657.88	24865.85
658.02	24547.54
658.16	24449.24
658.31	24161.35
658.45	24439.87
658.60	24404.77
658.74	24573.28
658.88	24694.99
659.03	24486.68
659.17	24393.06
659.31	24592.01
659.46	24269.01
659.60	24608.39
659.74	24470.30
659.89	24219.86
660.03	23964.75
660.17	23936.66
660.32	23803.25
660.46	24217.52
660.60	24109.86
660.74	23950.70
660.89	24100.50
661.03	23639.41
661.17	24116.88
661.32	24065.39
661.46	24168.37
661.60	24004.53
661.74	24273.70
661.89	23946.02
662.03	24098.16
662.17	23985.81
662.31	23733.03
662.46	23908.57
662.60	23601.96
662.74	23702.61
662.88	23936.66
663.03	23206.41
663.17	23468.55
663.31	23473.23
663.45	23405.36
663.60	23667.50
663.74	23445.15
663.88	23534.09
664.02	23496.64
664.17	23726.01
664.31	23520.04
664.45	23381.95
664.59	23506.00
664.73	23407.70
664.88	23381.95
665.02	23105.77
665.16	23051.94
665.30	23180.67
665.44	23033.21
665.59	22796.82
665.73	22972.36
665.87	22867.03
666.01	22939.59
666.15	23192.37
666.29	22918.53
666.44	22787.46
666.58	22735.96
666.72	22476.16
666.86	22782.77
667.00	23253.22
667.14	22852.99
667.28	22632.98
667.43	22487.87
667.57	22735.96
667.71	22572.13
667.85	22574.47
667.99	22625.96
668.13	22501.91
668.27	22565.10
668.41	22537.02
668.56	22207.00
668.70	22625.96
668.84	22698.52
668.98	22279.56
669.12	22607.23
669.26	22218.71
669.40	22169.55
669.54	22183.60
669.68	22214.02
669.82	22036.14
669.96	21858.26
670.10	22078.27
670.25	21963.59
670.39	21928.48
670.53	21757.62
670.67	21591.44
670.81	21965.93
670.95	21848.90
671.09	21659.32
671.23	21994.01
671.37	21893.37
671.51	21895.71
671.65	21935.50
671.79	21600.80
671.93	21488.46
672.07	21177.17
672.21	21792.73
672.35	21734.21
672.49	21474.42
672.63	21261.43
672.77	21039.08
672.91	21291.85
673.05	21275.47
673.19	21359.73
673.33	21226.32
673.47	21174.83
673.61	20903.32
673.75	21179.51
673.89	21151.42
674.03	21216.96
674.17	20919.71
674.31	20994.61
674.45	20919.71
674.59	20933.75
674.73	20816.72
674.87	20840.13
675.01	20819.07
675.15	20655.23
675.29	20388.41
675.43	20252.66
675.56	20411.81
675.70	20709.06
675.84	20414.15
675.98	19946.05
676.12	20608.42
676.26	20751.19
676.40	20664.59
676.54	20446.92
676.68	20477.35
676.82	19932.00
676.96	19749.44
677.10	20053.71
677.23	19887.53
677.37	19761.14
677.51	19826.68
677.65	19768.16
677.79	19407.72
677.93	19714.33
678.07	19419.42
678.21	19407.72
678.34	19548.15
678.48	19346.87
678.62	19463.90
678.76	19119.84
678.90	19227.50
679.04	19335.17
679.18	19061.32
679.31	19002.81
679.45	18675.13
679.59	19019.19
679.73	18979.40
679.87	18707.90
680.00	18883.44
680.14	18705.56
680.28	18773.44
680.42	18874.08
680.56	18693.86
680.70	18843.65
680.83	18827.27
680.97	18328.74
681.11	18539.38
681.25	18513.64
681.39	18560.45
681.52	18520.66
681.66	18272.56
681.80	18099.36
681.94	17851.27
682.07	18031.49
682.21	18001.06
682.35	17551.68
682.49	17755.30
682.62	17617.21
682.76	17680.41
682.90	17949.57
683.04	17827.86
683.17	17589.13
683.31	17860.63
683.45	17797.43
683.59	17469.76
683.72	17324.65
683.86	17425.29
684.00	17525.93
684.13	17287.20
684.27	17301.24
684.41	16999.31
684.55	16891.65
684.68	17029.74
684.82	16966.54
684.96	16582.70
685.09	16561.63
685.23	16772.28
685.37	16725.47
685.50	16851.86
685.64	16837.81
685.78	16606.10
685.91	16610.78
686.05	16559.29
686.19	16444.60
686.32	16629.51
686.46	16102.89
686.60	16233.96
686.73	16025.65
686.87	16208.21
687.01	16404.81
687.14	15995.22
687.28	15892.24
687.42	16053.73
687.55	15651.16
687.69	15807.98
687.82	15625.42
687.96	15831.38
688.10	15683.93
688.23	15826.70
688.37	15789.25
688.50	15681.59
688.64	15709.68
688.78	15580.95
688.91	15637.12
689.05	15328.17
689.18	15346.89
689.32	14897.51
689.46	14941.98
689.59	15222.84
689.73	15197.10
689.86	15084.75
690.00	14869.42
690.13	14881.13
690.27	15037.94
690.41	15026.24
690.54	14827.29
690.68	14972.41
690.81	14420.04
690.95	14740.69
691.08	14583.88
691.22	14558.13
691.35	14197.69
691.49	14537.07
691.62	14614.30
691.76	14193.01
691.89	14492.60
692.03	14075.98
692.16	13987.04
692.30	13984.70
692.43	14001.08
692.57	14012.79
692.70	13839.59
692.84	13781.07
692.97	13879.38
693.11	13877.04
693.24	13968.32
693.38	13853.63
693.51	13584.47
693.65	13837.25
693.78	13532.98
693.92	13397.23
694.05	13493.19
694.19	13692.13
694.32	13385.52
694.45	13327.01
694.59	13322.33
694.72	13308.29
694.86	13224.03
694.99	12950.18
695.13	12849.54
695.26	12994.65
695.39	12526.55
695.53	12725.49
695.66	12681.02
695.80	12840.18
695.93	12769.96
696.07	12863.58
696.20	12833.16
696.33	12571.02
696.47	12535.91
696.60	12652.94
696.73	12411.86
696.87	12482.08
697.00	12262.07
697.14	12109.93
697.27	12173.13
697.40	12013.97
697.54	12210.57
697.67	11805.66
697.80	11894.60
697.94	12161.42
698.07	12081.85
698.21	11693.32
698.34	11845.45
698.47	11712.04
698.61	11833.75
698.74	12013.97
698.87	11798.64
699.01	11665.23
699.14	11585.65
699.27	11693.32
699.40	11360.96
699.54	11466.28
699.67	11510.75
699.80	11384.37
699.94	11346.92
700.07	11201.80
700.20	11215.85
700.34	11112.86
700.47	10780.51
700.60	11117.54
700.73	10909.24
700.87	10956.05
701.00	11002.86
701.13	11040.31
701.26	11033.29
701.40	10726.68
701.53	10616.67
701.66	10721.99
701.79	10670.50
701.93	10597.95
702.06	10633.05
702.19	10611.99
702.32	10452.83
702.46	10087.71
702.59	10249.21
702.72	10366.23
702.85	10314.74
702.99	10223.46
703.12	10232.82
703.25	10094.73
703.38	10052.60
703.51	10274.95
703.65	10186.01
703.78	10057.28
703.91	9935.57
704.04	10087.71
704.17	9973.02
704.31	10015.15
704.44	9919.19
704.57	9853.66
704.70	9612.58
704.83	9708.54
704.96	9549.39
705.10	9373.85
705.23	9380.87
>>>>>End Processed Spectral Data<<<<<
