SpectraSuite Data File
++++++++++++++++++++++++++++++++++++
Date: Fri Oct 18 13:58:20 GMT-05:00 2013
User: bianchi
Dark Spectrum Present: No
Reference Spectrum Present: No
Number of Sampled Component Spectra: 1
Spectrometers: USB2+H05261
Integration Time (usec): 50000 (USB2+H05261)
Spectra Averaged: 1 (USB2+H05261)
Boxcar Smoothing: 0 (USB2+H05261)
Correct for Electrical Dark: No (USB2+H05261)
Strobe/Lamp Enabled: No (USB2+H05261)
Correct for Detector Non-linearity: No (USB2+H05261)
Correct for Stray Light: No (USB2+H05261)
Number of Pixels in Processed Spectrum: 2048
>>>>>Begin Processed Spectral Data<<<<<
365.73	0.00
365.92	0.00
366.12	0.00
366.32	0.00
366.52	0.00
366.72	0.00
366.91	0.00
367.11	0.00
367.31	0.00
367.51	0.00
367.70	0.00
367.90	0.00
368.10	0.00
368.30	0.00
368.49	0.00
368.69	0.00
368.89	0.00
369.09	0.00
369.28	0.00
369.48	0.00
369.68	0.00
369.87	0.00
370.07	0.00
370.27	0.00
370.47	0.00
370.66	133.41
370.86	107.66
371.06	98.30
371.25	131.07
371.45	156.82
371.65	152.13
371.84	126.39
372.04	100.64
372.24	91.28
372.44	161.50
372.63	177.88
372.83	238.73
373.03	138.09
373.22	145.11
373.42	245.76
373.62	201.29
373.81	187.24
374.01	159.16
374.21	245.76
374.40	224.69
374.60	175.54
374.79	243.42
374.99	245.76
375.19	285.55
375.38	290.23
375.58	159.16
375.78	231.71
375.97	243.42
376.17	196.60
376.37	257.46
376.56	266.82
376.76	269.16
376.95	306.61
377.15	257.46
377.35	224.69
377.54	231.71
377.74	271.50
377.93	283.20
378.13	353.42
378.33	271.50
378.52	229.37
378.72	266.82
378.91	313.63
379.11	308.95
379.31	273.84
379.50	327.68
379.70	320.65
379.89	290.23
380.09	205.97
380.28	304.27
380.48	287.89
380.68	292.57
380.87	252.78
381.07	262.14
381.26	334.70
381.46	292.57
381.65	290.23
381.85	315.97
382.04	320.65
382.24	353.42
382.43	292.57
382.63	285.55
382.83	339.38
383.02	383.85
383.22	414.27
383.41	355.76
383.61	337.04
383.80	337.04
384.00	386.19
384.19	404.91
384.39	353.42
384.58	435.34
384.78	407.25
384.97	369.80
385.17	360.44
385.36	407.25
385.56	306.61
385.75	327.68
385.95	369.80
386.14	397.89
386.34	407.25
386.53	423.64
386.72	376.83
386.92	402.57
387.11	428.32
387.31	468.11
387.50	390.87
387.70	421.30
387.89	421.30
388.09	416.62
388.28	465.77
388.48	428.32
388.67	421.30
388.86	458.74
389.06	468.11
389.25	486.83
389.45	449.38
389.64	437.68
389.84	507.90
390.03	517.26
390.22	493.85
390.42	507.90
390.61	482.15
390.81	482.15
391.00	475.13
391.19	362.78
391.39	449.38
391.58	475.13
391.78	472.79
391.97	512.58
392.16	535.98
392.36	454.06
392.55	535.98
392.75	648.33
392.94	531.30
393.13	521.94
393.33	479.81
393.52	554.71
393.71	496.19
393.91	547.69
394.10	575.77
394.29	559.39
394.49	587.47
394.68	664.71
394.88	716.20
395.07	622.58
395.26	592.16
395.46	578.11
395.65	559.39
395.84	676.41
396.04	664.71
396.23	608.54
396.42	751.31
396.62	655.35
396.81	603.86
397.00	664.71
397.19	692.80
397.39	641.31
397.58	711.52
397.77	629.60
397.97	690.46
398.16	688.12
398.35	692.80
398.55	671.73
398.74	655.35
398.93	650.67
399.12	713.86
399.32	734.93
399.51	692.80
399.70	802.80
399.90	641.31
400.09	770.04
400.28	802.80
400.47	727.91
400.67	777.06
400.86	791.10
401.05	753.65
401.24	802.80
401.44	784.08
401.63	711.52
401.82	809.83
402.01	795.78
402.21	861.32
402.40	819.19
402.59	800.46
402.78	873.02
402.97	781.74
403.17	816.85
403.36	774.72
403.55	741.95
403.74	870.68
403.93	973.66
404.13	880.04
404.32	830.89
404.51	849.61
404.70	1006.43
404.89	957.28
405.09	933.87
405.28	884.72
405.47	943.24
405.66	987.71
405.85	987.71
406.05	1032.18
406.24	947.92
406.43	1055.58
406.62	1076.65
406.81	1111.75
407.00	1041.54
407.20	926.85
407.39	1015.79
407.58	997.07
407.77	933.87
407.96	1039.20
408.15	1078.99
408.34	1046.22
408.54	1060.26
408.73	1053.24
408.92	1055.58
409.11	1121.12
409.30	1132.82
409.49	1156.22
409.68	1088.35
409.87	1151.54
410.07	1107.07
410.26	1203.04
410.45	1081.33
410.64	1135.16
410.83	1121.12
411.02	1170.27
411.21	1188.99
411.40	1210.06
411.59	1287.29
411.78	1275.59
411.98	1254.53
412.17	1277.93
412.36	1270.91
412.55	1313.04
412.74	1287.29
412.93	1270.91
413.12	1200.69
413.31	1338.79
413.50	1306.02
413.69	1444.11
413.88	1373.89
414.07	1469.86
414.26	1437.09
414.45	1387.94
414.64	1511.99
414.83	1579.86
415.02	1626.67
415.22	1549.43
415.41	1551.78
415.60	1561.14
415.79	1497.94
415.98	1589.22
416.17	1605.61
416.36	1542.41
416.55	1603.27
416.74	1607.95
416.93	1640.72
417.12	1636.03
417.31	1774.13
417.50	1619.65
417.69	1652.42
417.88	1687.53
418.07	1659.44
418.26	1605.61
418.45	1839.66
418.64	1720.29
418.83	1802.21
419.02	1830.30
419.21	1820.94
419.39	1846.68
419.58	1832.64
419.77	1799.87
419.96	1813.92
420.15	1813.92
420.34	1853.70
420.53	1907.54
420.72	1980.09
420.91	1811.57
421.10	1989.46
421.29	1935.62
421.48	1928.60
421.67	1844.34
421.86	1900.52
422.05	1914.56
422.24	1886.47
422.43	2017.54
422.61	2043.29
422.80	2033.93
422.99	1966.05
423.18	1919.24
423.37	1975.41
423.56	1849.02
423.75	1865.41
423.94	1919.24
424.13	1811.57
424.32	1837.32
424.50	2033.93
424.69	2045.63
424.88	2090.10
425.07	2090.10
425.26	1994.14
425.45	1874.77
425.64	2026.90
425.83	2062.01
426.01	2024.56
426.20	2019.88
426.39	2066.69
426.58	2043.29
426.77	2080.74
426.96	2064.35
427.15	2134.57
427.33	2190.74
427.52	2071.37
427.71	2193.08
427.90	2167.34
428.09	2209.47
428.28	2038.61
428.46	2207.13
428.65	2033.93
428.84	2076.06
429.03	2218.83
429.22	2218.83
429.40	2232.87
429.59	2272.66
429.78	2099.46
429.97	2160.31
430.16	2289.04
430.34	2326.49
430.53	2218.83
430.72	2410.75
430.91	2326.49
431.10	2258.62
431.28	2324.15
431.47	2420.11
431.66	2392.03
431.85	2396.71
432.03	2462.24
432.22	2450.54
432.41	2406.07
432.60	2436.50
432.79	2417.77
432.97	2382.67
433.16	2562.89
433.35	2579.27
433.54	2445.86
433.72	2576.93
433.91	2427.14
434.10	2579.27
434.28	2502.03
434.47	2562.89
434.66	2483.31
434.85	2588.63
435.03	2600.34
435.22	2562.89
435.41	2649.49
435.59	2595.65
435.78	2628.42
435.97	2670.55
436.16	2715.02
436.34	2605.02
436.53	2595.65
436.72	2719.70
436.90	2649.49
437.09	2796.94
437.28	2572.25
437.46	2703.32
437.65	2761.83
437.84	2789.92
438.02	2747.79
438.21	2750.13
438.40	2771.19
438.58	2949.08
438.77	2827.37
438.96	2895.24
439.14	2977.16
439.33	2960.78
439.52	2981.84
439.70	2949.08
439.89	2972.48
440.08	2949.08
440.26	3080.14
440.45	3108.23
440.63	3030.99
440.82	3042.70
441.01	2965.46
441.19	3220.58
441.38	3332.92
441.57	3204.19
441.75	3227.60
441.94	3276.75
442.12	3346.97
442.31	3251.00
442.50	3363.35
442.68	3283.77
442.87	3405.48
443.05	3410.16
443.24	3517.83
443.43	3353.99
443.61	3391.44
443.80	3447.61
443.98	3356.33
444.17	3304.84
444.35	3520.17
444.54	3428.88
444.73	3372.71
444.91	3302.50
445.10	3318.88
445.28	3412.50
445.47	3368.03
445.65	3363.35
445.84	3494.42
446.02	3548.25
446.21	3391.44
446.39	3325.90
446.58	3337.60
446.77	3503.78
446.95	3543.57
447.14	3576.34
447.32	3562.30
447.51	3475.70
447.69	3595.06
447.88	3536.55
448.06	3438.25
448.25	3466.33
448.43	3524.85
448.62	3475.70
448.80	3431.23
448.99	3552.93
449.17	3552.93
449.36	3529.53
449.54	3585.70
449.73	3730.81
449.91	3660.60
450.10	3686.34
450.28	3700.39
450.46	3777.62
450.65	3791.67
450.83	3765.92
451.02	3794.01
451.20	3852.52
451.39	3861.88
451.57	3726.13
451.76	3672.30
451.94	3709.75
452.13	3971.89
452.31	3794.01
452.49	3707.41
452.68	3786.99
452.86	3866.56
453.05	3845.50
453.23	3932.10
453.42	3934.44
453.60	3875.93
453.78	3786.99
453.97	3929.76
454.15	4002.32
454.34	3779.97
454.52	4060.83
454.70	4060.83
454.89	4032.74
455.07	3894.65
455.26	4119.34
455.44	4140.41
455.62	4135.73
455.81	4086.58
455.99	4098.28
456.17	4032.74
456.36	4283.18
456.54	4147.43
456.73	4194.24
456.91	4322.97
457.09	4325.31
457.28	4308.93
457.46	4341.69
457.64	4299.56
457.83	4294.88
458.01	4231.69
458.19	4292.54
458.38	4327.65
458.56	4397.87
458.74	4432.97
458.93	4442.34
459.11	4400.21
459.29	4327.65
459.48	4348.72
459.66	4514.89
459.84	4533.62
460.03	4514.89
460.21	4540.64
460.39	4521.92
460.57	4547.66
460.76	4571.07
460.94	4535.96
461.12	4634.26
461.31	4552.34
461.49	4648.30
461.67	4645.96
461.85	4704.48
462.04	4676.39
462.22	4847.25
462.40	4753.63
462.59	4697.46
462.77	4777.03
462.95	4784.06
463.13	4809.80
463.32	4753.63
463.50	4833.21
463.68	4844.91
463.86	4772.35
464.05	4737.24
464.23	4688.09
464.41	5041.51
464.59	4779.37
464.78	5088.32
464.96	5032.15
465.14	4905.76
465.32	4943.21
465.50	5008.75
465.69	4943.21
465.87	4973.64
466.05	4957.25
466.23	4980.66
466.41	4992.36
466.60	5151.52
466.78	4992.36
466.96	4957.25
467.14	5013.43
467.32	4992.36
467.51	5205.35
467.69	4924.49
467.87	5081.30
468.05	4987.68
468.23	5149.18
468.41	5008.75
468.60	5259.18
468.78	5301.31
468.96	5245.14
469.14	5203.01
469.32	5231.10
469.50	5329.40
469.69	5399.62
469.87	5359.83
470.05	5479.19
470.23	5305.99
470.41	5280.25
470.59	5465.15
470.77	5420.68
470.95	5486.22
471.14	5612.60
471.32	5294.29
471.50	5476.85
471.68	5533.03
471.86	5577.50
472.04	5685.16
472.22	5820.91
472.40	5535.37
472.58	5685.16
472.77	5640.69
472.95	5664.10
473.13	5877.09
473.31	5820.91
473.49	5647.71
473.67	5706.23
473.85	5804.53
474.03	5959.00
474.21	5933.26
474.39	6125.18
474.57	6113.48
474.75	6214.12
474.93	6239.87
475.12	6160.29
475.30	6317.11
475.48	6237.53
475.66	6307.74
475.84	6108.80
476.02	6352.21
476.20	6338.17
476.38	6567.54
476.56	6623.72
476.74	6544.14
476.92	6691.59
477.10	6637.76
477.28	6616.69
477.46	6576.91
477.64	6579.25
477.82	6623.72
478.00	6715.00
478.18	6787.55
478.36	7103.53
478.54	7028.63
478.72	7028.63
478.90	7028.63
479.08	7042.67
479.26	7063.74
479.44	7276.73
479.62	7372.69
479.80	7396.09
479.98	7466.31
480.16	7510.78
480.34	7335.24
480.52	7573.97
480.70	7679.30
480.88	7644.19
481.06	7627.81
481.24	7822.07
481.41	7803.35
481.59	7859.52
481.77	7838.45
481.95	8065.49
482.13	8046.76
482.31	7864.20
482.49	8287.84
482.67	7999.95
482.85	8400.18
483.03	8362.73
483.21	8489.12
483.39	8547.64
483.57	8517.21
483.74	8608.49
483.92	8667.00
484.10	8634.24
484.28	8795.73
484.46	9015.74
484.64	8898.72
484.82	8898.72
485.00	9046.17
485.18	9296.61
485.35	9359.80
485.53	9310.65
485.71	9284.91
485.89	9579.81
486.07	9322.35
486.25	9486.19
486.43	9745.99
486.61	9727.27
486.78	9898.13
486.96	9963.66
487.14	10239.84
487.32	10078.35
487.50	10054.94
487.68	10244.52
487.85	10326.44
488.03	10478.58
488.21	10401.34
488.39	10576.88
488.57	10516.03
488.75	10501.98
488.92	10890.51
489.10	10876.47
489.28	10862.43
489.46	10986.47
489.64	10977.11
489.81	11164.36
489.99	11012.22
490.17	11349.26
490.35	11658.21
490.53	11426.50
490.70	11634.80
490.88	11293.08
491.06	11777.58
491.24	11744.81
491.41	11817.36
491.59	11971.84
491.77	11913.33
491.95	12149.72
492.13	11824.39
492.30	12189.51
492.48	12079.50
492.66	12198.87
492.84	12222.28
493.01	12484.42
493.19	12526.55
493.37	12772.30
493.54	12676.34
493.72	12819.11
493.90	12475.06
494.08	13011.04
494.25	12879.97
494.43	13233.39
494.61	13233.39
494.79	13273.18
494.96	13247.43
495.14	13252.11
495.32	13425.31
495.49	13458.08
495.67	13462.76
495.85	13682.77
496.02	13715.54
496.20	13790.44
496.38	13757.67
496.55	13898.10
496.73	14068.96
496.91	13872.36
497.09	14246.84
497.26	14335.78
497.44	14408.34
497.62	14148.54
497.79	14443.45
497.97	14354.51
498.14	14846.02
498.32	14721.97
498.50	14934.96
498.67	15066.03
498.85	14731.33
499.03	14661.12
499.20	15014.54
499.38	15154.97
499.56	14918.57
499.73	14920.92
499.91	15396.04
500.08	15372.64
500.26	15199.44
500.44	15136.24
500.61	15555.20
500.79	15358.60
500.97	15435.83
501.14	15948.41
501.32	15857.13
501.49	15616.05
501.67	15791.59
501.84	15927.35
502.02	15573.92
502.20	15868.83
502.37	15985.86
502.55	15871.17
502.72	16400.13
502.90	16030.33
503.07	16002.24
503.25	16306.51
503.43	16236.30
503.60	16585.04
503.78	16570.99
503.95	16411.84
504.13	16573.33
504.30	16376.73
504.48	16697.38
504.65	17135.06
504.83	16662.27
505.01	16959.52
505.18	16915.05
505.36	16999.31
505.53	17172.51
505.71	16912.71
505.88	16903.35
506.06	17078.89
506.23	17153.79
506.41	17221.66
506.58	16943.14
506.76	17291.88
506.93	17319.96
507.11	17453.37
507.28	17659.34
507.46	17928.50
507.63	17462.74
507.81	17743.60
507.98	17589.13
508.16	17635.94
508.33	17710.83
508.50	17806.80
508.68	17984.68
508.85	17811.48
509.03	17942.55
509.20	18160.22
509.38	18164.90
509.55	18251.50
509.73	18565.13
509.90	18015.10
510.08	18176.60
510.25	18160.22
510.42	18415.34
510.60	18745.35
510.77	18448.10
510.95	18504.28
511.12	18621.30
511.30	18485.55
511.47	18595.56
511.64	18607.26
511.82	18773.44
511.99	18871.74
512.17	18785.14
512.34	18672.79
512.51	18902.17
512.69	19016.85
512.86	18911.53
513.04	19229.84
513.21	19253.25
513.38	19349.21
513.56	19496.66
513.73	19318.78
513.90	19421.77
514.08	19597.31
514.25	19580.92
514.43	19576.24
514.60	19648.80
514.77	19681.56
514.95	19789.23
515.12	19414.74
515.29	19580.92
515.47	19646.46
515.64	20088.82
515.81	19964.77
515.99	20023.28
516.16	20215.21
516.33	20233.93
516.51	20067.75
516.68	20159.03
516.85	20140.31
517.03	20451.60
517.20	20126.27
517.37	20365.00
517.54	20526.50
517.72	20477.35
517.89	20383.73
518.06	20526.50
518.24	20514.80
518.41	20524.16
518.58	20376.70
518.75	20680.97
518.93	20821.41
519.10	20755.87
519.27	21120.99
519.45	20779.28
519.62	20664.59
519.79	20678.63
519.96	20947.79
520.14	21287.17
520.31	21076.52
520.48	21235.68
520.65	21015.67
520.83	21275.47
521.00	21294.19
521.17	20982.90
521.34	21195.89
521.52	21376.11
521.69	21160.78
521.86	21607.83
522.03	21465.05
522.20	21696.77
522.38	21774.00
522.55	21823.16
522.72	21341.00
522.89	22073.59
523.07	22148.49
523.24	21685.06
523.41	21991.67
523.58	21811.45
523.75	22012.74
523.92	21881.67
524.10	21984.65
524.27	22019.76
524.44	22405.95
524.61	22246.79
524.78	21979.97
524.96	22249.13
525.13	22506.59
525.30	22408.29
525.47	22396.59
525.64	22424.67
525.81	22419.99
525.98	22647.02
526.16	22600.21
526.33	22742.99
526.50	23129.17
526.67	22642.34
526.84	22593.19
527.01	22714.90
527.18	22684.47
527.36	22883.42
527.53	23023.85
527.70	22780.43
527.87	23044.91
528.04	22955.97
528.21	23063.64
528.38	22897.46
528.55	23096.41
528.72	23023.85
528.89	23054.28
529.07	23187.69
529.24	23606.64
529.41	23580.90
529.58	23332.80
529.75	23297.69
529.92	23548.13
530.09	23559.83
530.26	23524.72
530.43	23396.00
530.60	23639.41
530.77	23281.31
530.94	23660.48
531.11	23646.43
531.28	23482.59
531.46	24156.67
531.63	23922.62
531.80	23737.71
531.97	23967.09
532.14	23906.23
532.31	23634.73
532.48	24009.22
532.65	24374.34
532.82	23608.98
532.99	24130.92
533.16	24196.46
533.33	24173.05
533.50	24311.14
533.67	24283.06
533.84	24381.36
534.01	24374.34
534.18	24137.94
534.35	24159.01
534.52	24606.05
534.69	24519.45
534.86	24690.31
535.03	24638.82
535.20	24685.63
535.37	24524.13
535.54	24542.86
535.71	24526.47
535.88	24418.81
536.05	24760.53
536.22	24720.74
536.38	24521.79
536.55	24727.76
536.72	24765.21
536.89	24624.78
537.06	24805.00
537.23	24748.82
537.40	24954.79
537.57	25111.61
537.74	24924.36
537.91	25268.42
538.08	25291.83
538.25	24910.32
538.42	25282.47
538.59	25053.09
538.75	25106.93
538.92	25120.97
539.09	25411.20
539.26	25458.01
539.43	25013.31
539.60	25071.82
539.77	25348.00
539.94	25324.60
540.11	24978.20
540.28	25600.78
540.44	25692.06
540.61	25362.04
540.78	25617.16
540.95	25694.40
541.12	25762.28
541.29	25507.16
541.46	25537.59
541.62	25493.12
541.79	25614.82
541.96	25245.02
542.13	25584.40
542.30	25811.43
542.47	25961.22
542.63	26096.97
542.80	25846.54
542.97	26424.65
543.14	26216.34
543.31	26099.31
543.48	26274.85
543.64	26363.79
543.81	26225.70
543.98	25965.90
544.15	26316.98
544.32	26352.09
544.48	26324.01
544.65	26185.91
544.82	26431.67
544.99	26073.57
545.16	26134.42
545.32	26356.77
545.49	26794.45
545.66	26852.97
545.83	26506.57
546.00	26415.29
546.16	26998.08
546.33	26408.26
546.50	26260.81
546.67	26923.18
546.83	26096.97
547.00	26429.33
547.17	26625.93
547.34	26644.66
547.50	26920.84
547.67	27117.45
547.84	27138.51
548.00	26799.13
548.17	27115.11
548.34	26969.99
548.51	27246.18
548.67	27028.51
548.84	27145.53
549.01	26761.69
549.18	26754.66
549.34	27044.89
549.51	27136.17
549.68	27358.52
549.84	27119.79
550.01	27386.61
550.18	27096.38
550.34	27117.45
550.51	27126.81
550.68	27410.01
550.84	27239.15
551.01	27349.16
551.18	27075.32
551.34	27386.61
551.51	27232.13
551.68	27178.30
551.84	27536.40
552.01	27484.91
552.18	27716.62
552.34	27566.83
552.51	27833.65
552.68	27292.99
552.84	27632.36
553.01	27527.04
553.18	27590.24
553.34	27908.55
553.51	27786.84
553.67	28065.36
553.84	27962.38
554.01	28259.63
554.17	27557.47
554.34	27777.48
554.51	27335.12
554.67	27931.95
554.84	27847.69
555.00	28109.83
555.17	27754.07
555.33	28208.14
555.50	27583.21
555.67	27915.57
555.83	27999.83
556.00	28023.23
556.16	28116.86
556.33	28006.85
556.50	28297.08
556.66	28451.55
556.83	28173.03
556.99	28212.82
557.16	28278.35
557.32	28285.37
557.49	27943.66
557.65	27983.44
557.82	28156.64
557.98	28212.82
558.15	28334.53
558.32	28182.39
558.48	28301.76
558.65	28608.37
558.81	28393.04
558.98	28311.12
559.14	28404.74
559.31	28116.86
559.47	28250.27
559.64	28425.81
559.80	28390.70
559.97	28732.42
560.13	28704.33
560.30	28776.89
560.46	28278.35
560.63	28512.41
560.79	28589.64
560.96	28491.34
561.12	28299.42
561.29	28386.02
561.45	28348.57
561.61	28620.07
561.78	28446.87
561.94	28666.88
562.11	28926.68
562.27	28510.07
562.44	28505.38
562.60	28779.23
562.77	28889.23
562.93	28350.91
563.10	28989.88
563.26	28584.96
563.42	28931.36
563.59	28723.05
563.75	28737.10
563.92	28917.32
564.08	28575.60
564.24	28828.38
564.41	28460.91
564.57	28680.92
564.74	28959.45
564.90	29017.96
565.07	29287.12
565.23	29137.33
565.39	28877.53
565.56	29067.11
565.72	28751.14
565.88	29090.52
566.05	28938.38
566.21	28882.21
566.38	29184.14
566.54	29324.57
566.70	28992.22
566.87	29448.62
567.03	29275.42
567.19	29436.92
567.36	29142.01
567.52	28725.39
567.68	29308.19
567.85	29006.26
568.01	29319.89
568.17	28966.47
568.34	29163.08
568.50	29343.30
568.66	29090.52
568.83	29235.63
568.99	29172.44
569.15	29266.06
569.32	28961.79
569.48	28701.99
569.64	29081.16
569.81	29057.75
569.97	28994.56
570.13	29385.43
570.30	29081.16
570.46	29619.48
570.62	29324.57
570.78	29233.29
570.95	29472.03
571.11	29539.90
571.27	28903.28
571.43	28833.06
571.60	29692.04
571.76	29366.70
571.92	29408.83
572.09	29563.31
572.25	29509.47
572.41	29296.49
572.57	29432.24
572.74	29577.35
572.90	29046.05
573.06	29371.38
573.22	29425.22
573.38	29228.61
573.55	29472.03
573.71	29778.64
573.87	29668.63
574.03	29472.03
574.20	29151.37
574.36	29406.49
574.52	29362.02
574.68	29057.75
574.84	29745.87
575.01	29392.45
575.17	29750.55
575.33	29336.27
575.49	29277.76
575.65	29380.74
575.82	29645.23
575.98	29013.28
576.14	29820.77
576.30	29490.75
576.46	29233.29
576.62	29109.24
576.79	29766.93
576.95	28992.22
577.11	29659.27
577.27	29638.20
577.43	29722.46
577.59	29525.86
577.75	29888.64
577.92	29364.36
578.08	29621.82
578.24	28779.23
578.40	29280.10
578.56	29708.42
578.72	29614.80
578.88	29549.26
579.04	29474.37
579.21	29720.12
579.37	29649.91
579.53	29390.11
579.69	29380.74
579.85	29102.22
580.01	29406.49
580.17	29439.26
580.33	29628.84
580.49	29481.39
580.65	29879.28
580.82	29605.44
580.98	29673.31
581.14	29874.60
581.30	29465.00
581.46	29589.05
581.62	29654.59
581.78	29490.75
581.94	29619.48
582.10	29474.37
582.26	29315.21
582.42	30089.93
582.58	29745.87
582.74	29694.38
582.90	29692.04
583.06	29617.14
583.22	29846.51
583.38	29834.81
583.54	29895.66
583.70	29556.28
583.86	30157.80
584.02	29530.54
584.18	29853.53
584.34	29792.68
584.50	29893.32
584.66	29525.86
584.82	29558.63
584.98	29263.72
585.14	29869.92
585.30	29640.54
585.46	29809.06
585.62	29380.74
585.78	29560.97
585.94	29450.96
586.10	29928.43
586.26	29689.70
586.42	29572.67
586.58	29811.40
586.74	29427.56
586.90	29874.60
587.06	29345.64
587.22	29696.72
587.38	29720.12
587.54	29979.92
587.70	29734.17
587.86	30015.03
588.02	30242.06
588.18	30249.08
588.34	29963.54
588.49	30211.64
588.65	29783.32
588.81	29687.36
588.97	30022.05
589.13	29453.30
589.29	29926.09
589.45	30054.82
589.61	29902.68
589.77	30195.25
589.93	30122.69
590.08	30157.80
590.24	30298.23
590.40	30129.72
590.56	30291.21
590.72	29797.36
590.88	29670.97
591.04	30202.27
591.20	30045.46
591.35	29977.58
591.51	30586.12
591.67	29874.60
591.83	30574.42
591.99	30174.19
592.15	29993.97
592.31	29841.83
592.46	29944.81
592.62	30064.18
592.78	29930.77
592.94	30136.74
593.10	30127.38
593.26	30389.52
593.41	30270.15
593.57	30029.07
593.73	30689.10
593.89	30129.72
594.05	29982.26
594.20	30389.52
594.36	30352.07
594.52	29886.30
594.68	29923.75
594.84	29912.05
594.99	30101.63
595.15	30103.97
595.31	29930.77
595.47	30335.68
595.62	30108.65
595.78	30375.47
595.94	30230.36
596.10	30429.30
596.25	30195.25
596.41	30148.44
596.57	29778.64
596.73	30181.21
596.88	30277.17
597.04	30335.68
597.20	30263.13
597.36	30162.48
597.51	30494.84
597.67	29752.89
597.83	30213.98
597.99	30595.48
598.14	30029.07
598.30	29982.26
598.46	30274.83
598.61	30389.52
598.77	30323.98
598.93	30654.00
599.09	30253.76
599.24	30733.57
599.40	30438.67
599.56	30459.73
599.71	30314.62
599.87	30483.14
600.03	30092.27
600.18	30024.39
600.34	30452.71
600.50	30338.02
600.65	30541.65
600.81	30508.88
600.97	30443.35
601.12	30260.79
601.28	30529.95
601.44	30600.16
601.59	30288.87
601.75	30419.94
601.91	30267.81
602.06	30471.43
602.22	30433.99
602.37	30263.13
602.53	30642.29
602.69	30267.81
602.84	30412.92
603.00	30349.73
603.16	30567.40
603.31	30499.52
603.47	30508.88
603.62	30309.94
603.78	30600.16
603.94	30302.92
604.09	30239.72
604.25	30356.75
604.40	30029.07
604.56	30127.38
604.71	30455.05
604.87	30213.98
605.03	30326.32
605.18	30052.48
605.34	30567.40
605.49	30047.80
605.65	30176.53
605.80	29816.08
605.96	30239.72
606.12	30424.62
606.27	30382.49
606.43	29972.90
606.58	30508.88
606.74	30443.35
606.89	30410.58
607.05	30588.46
607.20	30309.94
607.36	30426.96
607.51	30195.25
607.67	29989.28
607.82	30394.20
607.98	29717.78
608.13	30232.70
608.29	30160.14
608.44	30075.88
608.60	30019.71
608.75	30529.95
608.91	30501.86
609.06	30279.51
609.22	30436.33
609.37	29612.46
609.53	29874.60
609.68	30195.25
609.84	30026.73
609.99	30242.06
610.15	30066.52
610.30	30024.39
610.46	29790.34
610.61	30092.27
610.76	30054.82
610.92	29811.40
611.07	29825.45
611.23	30216.32
611.38	30162.48
611.54	29303.51
611.69	30136.74
611.84	29549.26
612.00	29954.18
612.15	29701.40
612.31	29905.02
612.46	29605.44
612.62	30239.72
612.77	29986.94
612.92	29993.97
613.08	29802.04
613.23	29923.75
613.39	29890.98
613.54	29795.02
613.69	29659.27
613.85	29586.71
614.00	29570.33
614.15	29785.66
614.31	29710.76
614.46	30122.69
614.62	29949.50
614.77	30302.92
614.92	29874.60
615.08	29640.54
615.23	29830.13
615.38	29544.58
615.54	29209.89
615.69	29488.41
615.84	29446.28
616.00	29380.74
616.15	29818.42
616.30	29947.15
616.46	29598.41
616.61	29717.78
616.76	29584.37
616.92	29455.64
617.07	29425.22
617.22	29582.03
617.37	29551.60
617.53	29256.70
617.68	29298.83
617.83	29149.03
617.99	29450.96
618.14	28968.81
618.29	29322.23
618.45	29521.18
618.60	29448.62
618.75	29230.95
618.90	29273.08
619.06	29268.40
619.21	29331.59
619.36	29619.48
619.51	29088.18
619.67	28882.21
619.82	29013.28
619.97	29062.43
620.12	29291.80
620.28	28589.64
620.43	29212.23
620.58	29401.81
620.73	29516.50
620.89	28816.68
621.04	29411.17
621.19	29043.71
621.34	29053.07
621.49	28980.51
621.65	28643.48
621.80	28929.02
621.95	29036.69
622.10	28912.64
622.25	28786.25
622.41	28554.54
622.56	29205.20
622.71	28776.89
622.86	29338.62
623.01	28797.95
623.16	28711.35
623.32	29134.99
623.47	28643.48
623.62	29214.57
623.77	28489.00
623.92	29032.00
624.07	28655.18
624.23	28549.85
624.38	28435.17
624.53	28872.85
624.68	28872.85
624.83	29006.26
624.98	28381.34
625.13	28641.14
625.29	28863.49
625.44	28823.70
625.59	28732.42
625.74	28549.85
625.89	28563.90
626.04	28489.00
626.19	28247.93
626.34	28254.95
626.49	28217.50
626.65	28584.96
626.80	28620.07
626.95	28236.22
627.10	28465.60
627.25	28325.16
627.40	28531.13
627.55	28386.02
627.70	27976.42
627.85	28105.15
628.00	28053.66
628.15	28170.69
628.30	28093.45
628.45	28142.60
628.60	28610.71
628.76	28009.19
628.91	28180.05
629.06	28128.56
629.21	28109.83
629.36	28470.28
629.51	28020.89
629.66	27962.38
629.81	27875.78
629.96	27917.91
630.11	27964.72
630.26	27999.83
630.41	28091.11
630.56	27763.43
630.71	27854.72
630.86	28135.58
631.01	27974.08
631.16	28156.64
631.31	27906.21
631.46	27721.30
631.61	27859.40
631.76	27990.47
631.91	27840.67
632.06	27711.94
632.21	27915.57
632.36	27477.89
632.51	27365.54
632.66	27988.13
632.81	27585.55
632.96	27915.57
633.10	27730.67
633.25	27592.58
633.40	27941.32
633.55	27838.33
633.70	27545.76
633.85	27690.88
634.00	27520.02
634.15	27784.50
634.30	27513.00
634.45	27543.42
634.60	27356.18
634.75	27454.48
634.90	27377.25
635.05	27555.13
635.19	27505.98
635.34	27714.28
635.49	27660.45
635.64	27976.42
635.79	27688.54
635.94	27552.79
636.09	27630.02
636.24	27119.79
636.39	27215.75
636.53	27030.85
636.68	27140.85
636.83	27559.81
636.98	27473.21
637.13	27569.17
637.28	27330.44
637.43	27487.25
637.57	27241.50
637.72	27234.47
637.87	27337.46
638.02	27030.85
638.17	27005.10
638.32	27215.75
638.46	26883.39
638.61	27222.77
638.76	26693.81
638.91	27255.54
639.06	26789.77
639.20	26962.97
639.35	27182.98
639.50	27044.89
639.65	27122.13
639.80	27150.21
639.94	27215.75
640.09	26958.29
640.24	26771.05
640.39	26883.39
640.54	26813.18
640.68	26780.41
640.83	26841.26
640.98	26806.16
641.13	26529.97
641.27	26672.74
641.42	26319.32
641.57	26749.98
641.72	26609.55
641.86	26618.91
642.01	26408.26
642.16	26476.14
642.31	26586.15
642.45	26632.96
642.60	26316.98
642.75	26508.91
642.90	26279.54
643.04	26380.18
643.19	26129.74
643.34	26710.19
643.48	26747.64
643.63	26497.20
643.78	26384.86
643.93	26541.68
644.07	26642.32
644.22	26764.03
644.37	26515.93
644.51	26120.38
644.66	26342.73
644.81	26450.39
644.95	26075.91
645.10	26183.57
645.25	26298.26
645.39	26031.44
645.54	26129.74
645.69	26281.88
645.83	26188.25
645.98	26251.45
646.13	26518.27
646.27	26136.76
646.42	26136.76
646.57	26405.92
646.71	26246.77
646.86	25947.18
647.00	25989.31
647.15	26075.91
647.30	25954.20
647.44	25982.29
647.59	25827.81
647.74	25671.00
647.88	25984.63
648.03	26441.03
648.17	26279.54
648.32	25949.52
648.47	26569.76
648.61	25895.69
648.76	26096.97
648.90	25680.36
649.05	26050.16
649.20	25926.11
649.34	26127.40
649.49	25633.55
649.63	25589.08
649.78	25834.83
649.92	25638.23
650.07	25771.64
650.21	25923.77
650.36	25701.42
650.51	25357.36
650.65	25558.65
650.80	25469.71
650.94	25624.18
651.09	25781.00
651.23	25745.89
651.38	25614.82
651.52	25029.69
651.67	25759.94
651.81	25947.18
651.96	25558.65
652.10	25680.36
652.25	25710.78
652.39	25937.82
652.54	25968.24
652.68	25469.71
652.83	25453.33
652.97	25605.46
653.12	25738.87
653.26	25507.16
653.41	25701.42
653.55	25340.98
653.70	25399.49
653.84	25177.14
653.99	25270.76
654.13	25060.12
654.27	25249.70
654.42	25577.37
654.56	25205.23
654.71	25359.70
654.85	25511.84
655.00	25603.12
655.14	25465.03
655.29	25198.21
655.43	25233.32
655.57	25263.74
655.72	25345.66
655.86	25383.11
656.01	25172.46
656.15	24596.69
656.30	25184.16
656.44	25106.93
656.58	24929.05
656.73	24889.26
656.87	24875.21
657.01	24985.22
657.16	25027.35
657.30	25074.16
657.45	25135.01
657.59	25125.65
657.73	24980.54
657.88	25263.74
658.02	24896.28
658.16	24727.76
658.31	24968.84
658.45	24617.75
658.60	24456.26
658.74	24786.27
658.88	24627.12
659.03	24439.87
659.17	24641.16
659.31	24669.25
659.46	24606.05
659.60	24613.07
659.74	24631.80
659.89	24528.81
660.03	24451.58
660.17	24430.51
660.32	24711.38
660.46	24718.40
660.60	24184.76
660.74	24453.92
660.89	24397.74
661.03	23941.34
661.17	24170.71
661.32	24313.48
661.46	24261.99
661.60	24341.57
661.74	24283.06
661.89	24046.66
662.03	24435.19
662.17	24053.69
662.31	23522.38
662.46	24341.57
662.60	23950.70
662.74	24102.84
662.88	23960.06
663.03	23597.28
663.17	23655.79
663.31	23428.76
663.45	23662.82
663.60	23470.89
663.74	23508.34
663.88	23377.27
664.02	23491.96
664.17	23807.93
664.31	23473.23
664.45	23634.73
664.59	23800.91
664.73	23695.58
664.88	23618.35
665.02	23356.21
665.16	23384.29
665.30	23384.29
665.44	23234.50
665.59	23009.81
665.73	23056.62
665.87	22909.16
666.01	23248.54
666.15	23290.67
666.29	23442.81
666.44	23108.11
666.58	23150.24
666.72	22944.27
666.86	22993.42
667.00	23063.64
667.14	22773.41
667.28	22824.90
667.43	22838.95
667.57	22885.76
667.71	22710.22
667.85	22621.28
667.99	22939.59
668.13	22686.81
668.27	22436.38
668.41	22691.49
668.56	22361.48
668.70	22855.33
668.84	22757.03
668.98	22618.94
669.12	22803.84
669.26	22735.96
669.40	22623.62
669.54	22464.46
669.68	22108.70
669.82	22356.80
669.96	22288.92
670.10	21860.60
670.25	22398.93
670.39	22317.01
670.53	22143.81
670.67	21788.05
670.81	21949.54
670.95	22277.22
671.09	22211.68
671.23	21659.32
671.37	21694.43
671.51	21848.90
671.65	21982.31
671.79	21879.33
671.93	22008.06
672.07	21858.26
672.21	21415.90
672.35	21434.63
672.49	21214.62
672.63	21373.77
672.77	21589.10
672.91	21359.73
673.05	21441.65
673.19	21364.41
673.33	21259.09
673.47	21415.90
673.61	21582.08
673.75	21628.89
673.89	21312.92
674.03	21305.90
674.17	21626.55
674.31	21006.31
674.45	21158.44
674.59	21118.65
674.73	21034.39
674.87	20908.01
675.01	20805.02
675.15	21146.74
675.29	20847.15
675.43	20545.22
675.56	20842.47
675.70	20634.16
675.84	21003.97
675.98	20060.73
676.12	20727.78
676.26	20788.64
676.40	20634.16
676.54	20533.52
676.68	20430.54
676.82	20107.54
676.96	20269.04
677.10	20311.17
677.23	20042.01
677.37	19960.09
677.51	19878.17
677.65	19995.20
677.79	19637.09
677.93	19559.86
678.07	19758.80
678.21	19597.31
678.34	19838.38
678.48	19594.96
678.62	19470.92
678.76	19335.17
678.90	19218.14
679.04	19662.84
679.18	19573.90
679.31	19356.23
679.45	19225.16
679.59	19138.56
679.73	19126.86
679.87	18813.23
680.00	18813.23
680.14	18977.06
680.28	18979.40
680.42	19049.62
680.56	18998.13
680.70	18768.76
680.83	18637.69
680.97	18656.41
681.11	18560.45
681.25	18768.76
681.39	18740.67
681.52	18527.68
681.66	18831.95
681.80	18190.64
681.94	18349.80
682.07	18396.61
682.21	18029.15
682.35	18012.76
682.49	17692.11
682.62	17942.55
682.76	17972.97
682.90	17834.88
683.04	17813.82
683.17	17933.18
683.31	17729.56
683.45	17933.18
683.59	17823.18
683.72	17628.92
683.86	17441.67
684.00	17652.32
684.13	17495.50
684.27	17401.88
684.41	17518.91
684.55	16884.62
684.68	16837.81
684.82	17158.47
684.96	17076.55
685.09	17041.44
685.23	16645.89
685.37	16723.13
685.50	16791.00
685.64	16924.41
685.78	16954.84
685.91	17064.85
686.05	16725.47
686.19	16943.14
686.32	16549.93
686.46	16526.52
686.60	16430.56
686.73	16280.77
686.87	16332.26
687.01	16290.13
687.14	16358.00
687.28	15704.99
687.42	15999.90
687.55	16114.59
687.69	16184.80
687.82	15815.00
687.96	15754.15
688.10	15962.45
688.23	15887.56
688.37	15807.98
688.50	15761.17
688.64	15655.84
688.78	15716.70
688.91	15789.25
689.05	15398.38
689.18	15445.20
689.32	15101.14
689.46	15389.02
689.59	15112.84
689.73	15190.08
689.86	14867.08
690.00	14963.04
690.13	15157.31
690.27	15049.64
690.41	15066.03
690.54	14871.76
690.68	14892.83
690.81	14977.09
690.95	15206.46
691.08	14614.30
691.22	14523.02
691.35	14459.83
691.49	14941.98
691.62	14824.95
691.76	14504.30
691.89	14551.11
692.03	14251.52
692.16	14099.39
692.30	14256.20
692.43	14204.71
692.57	14216.41
692.70	14099.39
692.84	14033.85
692.97	14211.73
693.11	14267.91
693.24	13738.94
693.38	13987.04
693.51	13968.32
693.65	13930.87
693.78	13612.56
693.92	13612.56
694.05	13804.48
694.19	13238.07
694.32	13563.40
694.45	13570.43
694.59	13327.01
694.72	13420.63
694.86	13373.82
694.99	12978.27
695.13	13130.41
695.26	13074.23
695.39	13088.28
695.53	12931.46
695.66	13224.03
695.80	13109.34
695.93	12936.14
696.07	13102.32
696.20	13149.13
696.33	12685.70
696.47	12826.14
696.60	12734.85
696.73	12535.91
696.87	12755.92
697.00	12512.50
697.14	12477.40
697.27	12205.89
697.40	12238.66
697.54	12184.83
697.67	12079.50
697.80	12077.16
697.94	12091.21
698.07	12086.53
698.21	12119.29
698.34	12056.10
698.47	12042.06
698.61	11887.58
698.74	11868.86
698.87	11838.43
699.01	11747.15
699.14	11658.21
699.27	11758.85
699.40	11698.00
699.54	11595.01
699.67	11398.41
699.80	11492.03
699.94	11435.86
700.07	11330.53
700.20	11042.65
700.34	11007.54
700.47	11176.06
700.60	11169.04
700.73	11311.81
700.87	10878.81
701.00	11073.07
701.13	10817.96
701.26	10853.06
701.40	10911.58
701.53	11012.22
701.66	10787.53
701.79	10871.79
701.93	10892.85
702.06	10801.57
702.19	10759.44
702.32	10567.52
702.46	10410.70
702.59	10455.17
702.72	10251.55
702.85	10520.71
702.99	10300.70
703.12	10118.14
703.25	10251.55
703.38	10218.78
703.51	10452.83
703.65	10338.15
703.78	10068.98
703.91	10153.24
704.04	10164.95
704.17	10214.10
704.31	10003.45
704.44	10188.35
704.57	9930.89
704.70	9724.93
704.83	9495.55
704.96	9687.48
705.10	9575.13
705.23	9528.32
>>>>>End Processed Spectral Data<<<<<
