SpectraSuite Data File
++++++++++++++++++++++++++++++++++++
Date: Fri Oct 18 13:58:08 GMT-05:00 2013
User: bianchi
Dark Spectrum Present: No
Reference Spectrum Present: No
Number of Sampled Component Spectra: 1
Spectrometers: USB2+H05261
Integration Time (usec): 50000 (USB2+H05261)
Spectra Averaged: 1 (USB2+H05261)
Boxcar Smoothing: 0 (USB2+H05261)
Correct for Electrical Dark: No (USB2+H05261)
Strobe/Lamp Enabled: No (USB2+H05261)
Correct for Detector Non-linearity: No (USB2+H05261)
Correct for Stray Light: No (USB2+H05261)
Number of Pixels in Processed Spectrum: 2048
>>>>>Begin Processed Spectral Data<<<<<
365.73	0.00
365.92	0.00
366.12	0.00
366.32	0.00
366.52	0.00
366.72	0.00
366.91	0.00
367.11	0.00
367.31	0.00
367.51	0.00
367.70	0.00
367.90	0.00
368.10	0.00
368.30	0.00
368.49	0.00
368.69	0.00
368.89	0.00
369.09	0.00
369.28	0.00
369.48	0.00
369.68	0.00
369.87	0.00
370.07	0.00
370.27	0.00
370.47	0.00
370.66	77.24
370.86	84.26
371.06	102.98
371.25	147.45
371.45	98.30
371.65	152.13
371.84	184.90
372.04	166.18
372.24	133.41
372.44	224.69
372.63	201.29
372.83	227.03
373.03	201.29
373.22	257.46
373.42	238.73
373.62	238.73
373.81	210.65
374.01	187.24
374.21	205.97
374.40	238.73
374.60	222.35
374.79	189.58
374.99	280.86
375.19	196.60
375.38	196.60
375.58	339.38
375.78	337.04
375.97	308.95
376.17	297.25
376.37	290.23
376.56	304.27
376.76	283.20
376.95	212.99
377.15	257.46
377.35	280.86
377.54	241.08
377.74	341.72
377.93	290.23
378.13	348.74
378.33	262.14
378.52	285.55
378.72	266.82
378.91	290.23
379.11	248.10
379.31	287.89
379.50	353.42
379.70	294.91
379.89	290.23
380.09	313.63
380.28	290.23
380.48	255.12
380.68	245.76
380.87	306.61
381.07	351.08
381.26	241.08
381.46	276.18
381.65	418.96
381.85	278.52
382.04	404.91
382.24	360.44
382.43	311.29
382.63	320.65
382.83	402.57
383.02	334.70
383.22	348.74
383.41	369.80
383.61	346.40
383.80	344.06
384.00	365.12
384.19	416.62
384.39	416.62
384.58	372.15
384.78	304.27
384.97	472.79
385.17	407.25
385.36	407.25
385.56	451.72
385.75	337.04
385.95	386.19
386.14	383.85
386.34	407.25
386.53	397.89
386.72	348.74
386.92	381.51
387.11	447.04
387.31	451.72
387.50	423.64
387.70	383.85
387.89	447.04
388.09	440.02
388.28	512.58
388.48	414.27
388.67	379.17
388.86	454.06
389.06	435.34
389.25	479.81
389.45	416.62
389.64	493.85
389.84	461.09
390.03	496.19
390.22	575.77
390.42	521.94
390.61	428.32
390.81	521.94
391.00	510.24
391.19	547.69
391.39	505.56
391.58	512.58
391.78	564.07
391.97	538.32
392.16	547.69
392.36	566.41
392.55	533.64
392.75	552.37
392.94	512.58
393.13	535.98
393.33	510.24
393.52	550.03
393.71	613.22
393.91	606.20
394.10	585.13
394.29	535.98
394.49	550.03
394.68	641.31
394.88	624.92
395.07	617.90
395.26	550.03
395.46	594.50
395.65	669.39
395.84	695.14
396.04	699.82
396.23	615.56
396.42	627.26
396.62	641.31
396.81	634.29
397.00	669.39
397.19	671.73
397.39	643.65
397.58	620.24
397.77	594.50
397.97	732.59
398.16	678.76
398.35	671.73
398.55	685.78
398.74	737.27
398.93	741.95
399.12	709.18
399.32	669.39
399.51	727.91
399.70	697.48
399.90	725.57
400.09	713.86
400.28	837.91
400.47	732.59
400.67	744.29
400.86	786.42
401.05	765.36
401.24	741.95
401.44	725.57
401.63	915.15
401.82	828.55
402.01	868.34
402.21	777.06
402.40	842.59
402.59	798.12
402.78	840.25
402.97	842.59
403.17	861.32
403.36	880.04
403.55	922.17
403.74	919.83
403.93	882.38
404.13	861.32
404.32	964.30
404.51	854.30
404.70	924.51
404.89	868.34
405.09	882.38
405.28	966.64
405.47	943.24
405.66	961.96
405.85	924.51
406.05	957.28
406.24	994.73
406.43	966.64
406.62	1067.28
406.81	1118.78
407.00	1011.11
407.20	1081.33
407.39	1032.18
407.58	1210.06
407.77	1078.99
407.96	1015.79
408.15	1043.88
408.34	1081.33
408.54	1093.03
408.73	1057.92
408.92	1074.31
409.11	1069.62
409.30	1156.22
409.49	1186.65
409.68	1212.40
409.87	1151.54
410.07	1315.38
410.26	1156.22
410.45	1273.25
410.64	1198.35
410.83	1245.16
411.02	1310.70
411.21	1299.00
411.40	1282.61
411.59	1256.87
411.78	1259.21
411.98	1303.68
412.17	1359.85
412.36	1277.93
412.55	1322.40
412.74	1385.60
412.93	1369.21
413.12	1341.13
413.31	1474.54
413.50	1301.34
413.69	1413.68
413.88	1502.62
414.07	1551.78
414.26	1434.75
414.45	1425.39
414.64	1481.56
414.83	1528.37
415.02	1591.56
415.22	1551.78
415.41	1523.69
415.60	1596.25
415.79	1612.63
415.98	1636.03
416.17	1696.89
416.36	1603.27
416.55	1558.80
416.74	1734.34
416.93	1584.54
417.12	1746.04
417.31	1666.46
417.50	1701.57
417.69	1753.06
417.88	1820.94
418.07	1888.81
418.26	1701.57
418.45	1736.68
418.64	1881.79
418.83	1834.98
419.02	1809.23
419.21	1863.07
419.39	1856.04
419.58	1753.06
419.77	1916.90
419.96	1898.17
420.15	1942.64
420.34	1891.15
420.53	1849.02
420.72	1898.17
420.91	1944.99
421.10	1884.13
421.29	2008.18
421.48	1912.22
421.67	1944.99
421.86	2033.93
422.05	2073.71
422.24	2054.99
422.43	1933.28
422.61	1942.64
422.80	1998.82
422.99	2012.86
423.18	2019.88
423.37	1991.80
423.56	1977.75
423.75	2078.40
423.94	2010.52
424.13	1874.77
424.32	1921.58
424.50	2031.58
424.69	2078.40
424.88	2101.80
425.07	2059.67
425.26	1959.03
425.45	1961.37
425.64	2090.10
425.83	2069.03
426.01	2136.91
426.20	2040.95
426.39	1982.43
426.58	2139.25
426.77	2099.46
426.96	2094.78
427.15	2150.95
427.33	2139.25
427.52	2197.76
427.71	2050.31
427.90	2176.70
428.09	2239.89
428.28	2132.23
428.46	2300.75
428.65	2193.08
428.84	2394.37
429.03	2169.68
429.22	2275.00
429.40	2197.76
429.59	2237.55
429.78	2092.44
429.97	2188.40
430.16	2190.74
430.34	2370.96
430.53	2282.02
430.72	2342.88
430.91	2319.47
431.10	2272.66
431.28	2352.24
431.47	2321.81
431.66	2361.60
431.85	2370.96
432.03	2497.35
432.22	2539.48
432.41	2375.64
432.60	2476.29
432.79	2452.88
432.97	2513.74
433.16	2485.65
433.35	2466.92
433.54	2492.67
433.72	2443.52
433.91	2602.68
434.10	2518.42
434.28	2518.42
434.47	2600.34
434.66	2567.57
434.85	2614.38
435.03	2523.10
435.22	2523.10
435.41	2628.42
435.59	2715.02
435.78	2726.72
435.97	2647.15
436.16	2640.12
436.34	2574.59
436.53	2803.96
436.72	2759.49
436.90	2679.91
437.09	2792.26
437.28	2736.09
437.46	2750.13
437.65	2731.41
437.84	2750.13
438.02	2815.66
438.21	2825.03
438.40	2825.03
438.58	2883.54
438.77	2949.08
438.96	2864.82
439.14	2974.82
439.33	3103.55
439.52	2960.78
439.70	2998.23
439.89	3068.44
440.08	3077.80
440.26	3016.95
440.45	3059.08
440.63	3112.91
440.82	3265.05
441.01	3087.17
441.19	3166.74
441.38	3393.78
441.57	3157.38
441.75	3300.16
441.94	3281.43
442.12	3276.75
442.31	3405.48
442.50	3400.80
442.68	3286.11
442.87	3391.44
443.05	3351.65
443.24	3398.46
443.43	3297.81
443.61	3424.20
443.80	3515.48
443.98	3562.30
444.17	3206.53
444.35	3365.69
444.54	3672.30
444.73	3440.59
444.91	3520.17
445.10	3492.08
445.28	3417.18
445.47	3398.46
445.65	3318.88
445.84	3592.72
446.02	3431.23
446.21	3527.19
446.39	3578.68
446.58	3531.87
446.77	3485.06
446.95	3433.57
447.14	3524.85
447.32	3445.27
447.51	3574.00
447.69	3583.36
447.88	3581.02
448.06	3496.76
448.25	3492.08
448.43	3452.29
448.62	3492.08
448.80	3522.51
448.99	3644.21
449.17	3616.13
449.36	3623.15
449.54	3641.87
449.73	3716.77
449.91	3747.20
450.10	3784.65
450.28	3782.31
450.46	3772.94
450.65	3796.35
450.83	3798.69
451.02	3796.35
451.20	3801.03
451.39	3786.99
451.57	3859.54
451.76	3728.47
451.94	3833.80
452.13	4131.05
452.31	3758.90
452.49	3822.09
452.68	3857.20
452.86	3852.52
453.05	3948.48
453.23	3918.06
453.42	4044.45
453.60	3859.54
453.78	3950.82
453.97	3943.80
454.15	3875.93
454.34	3815.07
454.52	3995.29
454.70	4065.51
454.89	4114.66
455.07	4086.58
455.26	4086.58
455.44	4149.77
455.62	4121.68
455.81	4147.43
455.99	4219.99
456.17	4119.34
456.36	4266.80
456.54	4131.05
456.73	4266.80
456.91	4503.19
457.09	4280.84
457.28	4393.19
457.46	4388.50
457.64	4524.26
457.83	4390.84
458.01	4154.45
458.19	4346.37
458.38	4468.08
458.56	4411.91
458.74	4456.38
458.93	4327.65
459.11	4514.89
459.29	4564.04
459.48	4514.89
459.66	4428.29
459.84	4573.41
460.03	4575.75
460.21	4613.20
460.39	4667.03
460.57	4542.98
460.76	4557.02
460.94	4652.98
461.12	4596.81
461.31	4760.65
461.49	4697.46
461.67	4622.56
461.85	4887.04
462.04	4620.22
462.22	4938.53
462.40	4851.93
462.59	4854.27
462.77	4755.97
462.95	4767.67
463.13	5006.41
463.32	4809.80
463.50	4975.98
463.68	4983.00
463.86	4971.30
464.05	4826.18
464.23	4849.59
464.41	4992.36
464.59	4830.87
464.78	4990.02
464.96	5062.58
465.14	4772.35
465.32	5013.43
465.50	5135.14
465.69	5249.82
465.87	5022.79
466.05	5078.96
466.23	5102.37
466.41	5041.51
466.60	5235.78
466.78	5107.05
466.96	5062.58
467.14	5043.85
467.32	5212.37
467.51	5277.91
467.69	5071.94
467.87	5207.69
468.05	5118.75
468.23	5097.69
468.41	5057.90
468.60	5228.76
468.78	5334.08
468.96	5343.44
469.14	5296.63
469.32	5191.31
469.50	5170.24
469.69	5284.93
469.87	5516.64
470.05	5565.79
470.23	5455.79
470.41	5540.05
470.59	5441.75
470.77	5720.27
470.95	5488.56
471.14	5795.17
471.32	5518.98
471.50	5535.37
471.68	5617.29
471.86	5720.27
472.04	5657.07
472.22	5909.85
472.40	5717.93
472.58	5769.42
472.77	5944.96
472.95	5774.10
473.13	6052.63
473.31	5813.89
473.49	5841.98
473.67	5987.09
473.85	5949.64
474.03	6167.31
474.21	5907.51
474.39	6005.81
474.57	6071.35
474.75	6202.42
474.93	6015.18
475.12	6169.65
475.30	6284.34
475.48	6200.08
475.66	6338.17
475.84	6380.30
476.02	6377.96
476.20	6340.51
476.38	6523.07
476.56	6574.56
476.74	6661.16
476.92	6534.78
477.10	6558.18
477.28	6857.77
477.46	6663.51
477.64	6876.49
477.82	6843.73
478.00	6883.52
478.18	7087.14
478.36	7201.83
478.54	7129.27
478.72	7016.93
478.90	7421.84
479.08	7234.60
479.26	7288.43
479.44	7351.62
479.62	7391.41
479.80	7555.25
479.98	7674.62
480.16	7796.32
480.34	7595.04
480.52	7665.25
480.70	7826.75
480.88	7466.31
481.06	7915.69
481.24	7761.22
481.41	7871.22
481.59	7969.52
481.77	8161.45
481.95	8009.31
482.13	8245.71
482.31	8219.96
482.49	8292.52
482.67	8229.32
482.85	8568.70
483.03	8727.86
483.21	8786.37
483.39	8631.90
483.57	8730.20
483.74	8636.58
483.92	8940.85
484.10	8833.18
484.28	8966.59
484.46	9100.00
484.64	9165.54
484.82	9149.15
485.00	9139.79
485.18	9401.93
485.35	9584.49
485.53	9502.58
485.71	9430.02
485.89	9619.60
486.07	9741.31
486.25	9650.03
486.43	9607.90
486.61	9727.27
486.78	9816.21
486.96	10036.22
487.14	10087.71
487.32	10225.80
487.50	10260.91
487.68	10345.17
487.85	10434.11
488.03	10635.39
488.21	10595.61
488.39	10855.40
488.57	10527.73
488.75	10850.72
488.92	10883.49
489.10	10864.77
489.28	11239.25
489.46	11274.36
489.64	11014.56
489.81	11260.32
489.99	11426.50
490.17	11379.68
490.35	11721.40
490.53	11716.72
490.70	12058.44
490.88	11747.15
491.06	11779.92
491.24	11700.34
491.41	11822.05
491.59	12011.63
491.77	12079.50
491.95	12252.70
492.13	12191.85
492.30	12273.77
492.48	12304.20
492.66	12561.66
492.84	12512.50
493.01	12954.87
493.19	12879.97
493.37	12774.64
493.54	12940.82
493.72	13102.32
493.90	12975.93
494.08	12915.08
494.25	13305.95
494.43	13193.60
494.61	13472.12
494.79	13577.45
494.96	13427.65
495.14	13621.92
495.32	13650.00
495.49	13575.11
495.67	13589.15
495.85	14012.79
496.02	13928.53
496.20	13921.51
496.38	14090.02
496.55	14090.02
496.73	14555.79
496.91	14310.04
497.09	14216.41
497.26	14768.78
497.44	14516.00
497.62	14689.20
497.79	14780.48
497.97	14860.06
498.14	14874.10
498.32	15049.64
498.50	14899.85
498.67	15150.29
498.85	15150.29
499.03	15290.72
499.20	15152.63
499.38	15293.06
499.56	15414.77
499.73	15187.74
499.91	15454.56
500.08	15915.64
500.26	15641.80
500.44	15873.51
500.61	15690.95
500.79	15777.55
500.97	15843.09
501.14	15857.13
501.32	15999.90
501.49	15999.90
501.67	16018.63
501.84	16182.46
502.02	16035.01
502.20	16278.43
502.37	16456.31
502.55	16205.87
502.72	16713.77
502.90	16624.83
503.07	16336.94
503.25	16145.02
503.43	16482.05
503.60	16362.69
503.78	16893.99
503.95	16840.15
504.13	16486.73
504.30	16889.31
504.48	16760.58
504.65	17003.99
504.83	17099.95
505.01	17329.33
505.18	16973.56
505.36	17214.64
505.53	17341.03
505.71	17123.36
505.88	17394.86
506.06	17380.82
506.23	17525.93
506.41	17554.02
506.58	17741.26
506.76	17525.93
506.93	17891.06
507.11	17516.57
507.28	17727.22
507.46	17743.60
507.63	17905.10
507.81	18157.88
507.98	17996.38
508.16	18001.06
508.33	18059.57
508.50	18150.85
508.68	18082.98
508.85	18368.52
509.03	18410.65
509.20	18420.02
509.38	18745.35
509.55	18499.59
509.73	18422.36
509.90	18675.13
510.08	18651.73
510.25	18485.55
510.42	18771.10
510.60	18977.06
510.77	19126.86
510.95	19220.48
511.12	18731.31
511.30	19082.39
511.47	19168.99
511.64	19126.86
511.82	19211.12
511.99	19161.97
512.17	19311.76
512.34	19328.14
512.51	19758.80
512.69	19594.96
512.86	19634.75
513.04	19833.70
513.21	20004.56
513.38	19630.07
513.56	20039.67
513.73	19812.63
513.90	19894.55
514.08	19690.93
514.25	20074.77
514.43	20269.04
514.60	20163.72
514.77	20109.88
514.95	20119.24
515.12	19892.21
515.29	20065.41
515.47	20098.18
515.64	20470.33
515.81	20554.58
515.99	20463.30
516.16	20350.96
516.33	20622.46
516.51	20503.09
516.68	20386.07
516.85	20788.64
517.03	20599.05
517.20	20823.75
517.37	20858.85
517.54	20592.03
517.72	20868.22
517.89	20912.69
518.06	21071.84
518.24	20882.26
518.41	20592.03
518.58	21076.52
518.75	21083.55
518.93	21135.04
519.10	21451.01
519.27	21451.01
519.45	21156.10
519.62	21200.57
519.79	21139.72
519.96	21296.53
520.14	21291.85
520.31	21495.48
520.48	21963.59
520.65	21762.30
520.83	21605.49
521.00	21872.31
521.17	21724.85
521.34	22113.38
521.52	22073.59
521.69	21956.57
521.86	22263.18
522.03	22375.52
522.20	22221.05
522.38	21977.63
522.55	22324.03
522.72	22260.84
522.89	22675.11
523.07	22691.49
523.24	22677.45
523.41	22506.59
523.58	22286.58
523.75	22679.79
523.92	22237.43
524.10	22389.56
524.27	22443.40
524.44	22874.06
524.61	22916.19
524.78	22630.64
524.96	22998.10
525.13	22427.01
525.30	22827.24
525.47	22874.06
525.64	23239.18
525.81	22927.89
525.98	23000.44
526.16	22890.44
526.33	23042.57
526.50	23192.37
526.67	23033.21
526.84	23208.75
527.01	23271.95
527.18	23541.11
527.36	23321.10
527.53	23503.66
527.70	23398.34
527.87	23714.31
528.04	23271.95
528.21	23536.43
528.38	23400.68
528.55	23779.84
528.72	23583.24
528.89	24056.03
529.07	24023.26
529.24	24142.63
529.41	23967.09
529.58	23906.23
529.75	23946.02
529.92	23672.18
530.09	24006.87
530.26	24009.22
530.43	23990.49
530.60	24016.24
530.77	23901.55
530.94	24304.12
531.11	23976.45
531.28	24332.21
531.46	24180.07
531.63	24245.61
531.80	24409.45
531.97	24779.25
532.14	24594.35
532.31	24276.04
532.48	24425.83
532.65	24484.34
532.82	24285.40
532.99	25109.27
533.16	24130.92
533.33	24975.86
533.50	24982.88
533.67	24781.59
533.84	24411.79
534.01	24840.11
534.18	24748.82
534.35	24912.66
534.52	25387.79
534.69	24891.60
534.86	24835.42
535.03	25081.18
535.20	24837.76
535.37	25069.48
535.54	25228.63
535.71	24982.88
535.88	24919.68
536.05	25198.21
536.22	25249.70
536.38	25549.29
536.55	25378.43
536.72	25509.50
536.89	25020.33
537.06	25228.63
537.23	25479.07
537.40	25076.50
537.57	25357.36
537.74	25425.24
537.91	25935.48
538.08	25806.75
538.25	25481.41
538.42	25781.00
538.59	26113.36
538.75	25521.20
538.92	25855.90
539.09	25729.51
539.26	25883.98
539.43	25958.88
539.60	25886.32
539.77	25701.42
539.94	25942.50
540.11	25797.38
540.28	25628.87
540.44	26141.44
540.61	26384.86
540.78	26171.87
540.95	26295.92
541.12	25912.07
541.29	26260.81
541.46	26270.17
541.62	25933.14
541.79	26494.86
541.96	26267.83
542.13	26522.95
542.30	26532.31
542.47	26160.17
542.63	26188.25
542.80	26614.23
542.97	26930.20
543.14	26761.69
543.31	26473.80
543.48	26693.81
543.64	27101.06
543.81	26986.38
543.98	27000.42
544.15	26616.57
544.32	26794.45
544.48	27335.12
544.65	26855.31
544.82	27023.83
544.99	26902.12
545.16	26534.65
545.32	26796.79
545.49	26986.38
545.66	27384.27
545.83	27524.70
546.00	27681.52
546.16	27166.60
546.33	27185.32
546.50	26752.32
546.67	27168.94
546.83	26820.20
547.00	26827.22
547.17	27555.13
547.34	27395.97
547.50	27885.14
547.67	27835.99
547.84	27543.42
548.00	27487.25
548.17	27538.74
548.34	27360.86
548.51	27674.49
548.67	27733.01
548.84	27606.62
549.01	27754.07
549.18	27594.92
549.34	27435.76
549.51	27442.78
549.68	27866.42
549.84	27711.94
550.01	27782.16
550.18	27693.22
550.34	27777.48
550.51	28187.07
550.68	28170.69
550.84	27999.83
551.01	27999.83
551.18	27931.95
551.34	27817.27
551.51	28173.03
551.68	27908.55
551.84	28229.20
552.01	28224.52
552.18	28266.65
552.34	28376.66
552.51	28163.67
552.68	28236.22
552.84	28308.78
553.01	28130.90
553.18	28456.23
553.34	28016.21
553.51	28596.67
553.67	28367.29
553.84	28992.22
554.01	28694.97
554.17	28299.42
554.34	28599.01
554.51	28465.60
554.67	28556.88
554.84	28748.80
555.00	28613.05
555.17	28231.54
555.33	28868.17
555.50	28606.03
555.67	28849.44
555.83	28811.99
556.00	28606.03
556.16	28945.41
556.33	28882.21
556.50	28664.54
556.66	28809.65
556.83	28676.24
556.99	28987.53
557.16	29256.70
557.32	29062.43
557.49	28936.04
557.65	28676.24
557.82	28666.88
557.98	29048.39
558.15	28999.24
558.32	29212.23
558.48	29202.86
558.65	29198.18
558.81	29102.22
558.98	29057.75
559.14	28996.90
559.31	29310.53
559.47	28863.49
559.64	29319.89
559.80	29406.49
559.97	29607.78
560.13	29036.69
560.30	29137.33
560.46	29252.02
560.63	29099.88
560.79	29528.20
560.96	29165.42
561.12	29338.62
561.29	28982.85
561.45	29837.15
561.61	29226.27
561.78	29209.89
561.94	29624.16
562.11	29486.07
562.27	29603.10
562.44	29502.45
562.60	29244.99
562.77	29053.07
562.93	29212.23
563.10	29525.86
563.26	29362.02
563.42	29619.48
563.59	29427.56
563.75	29563.31
563.92	29366.70
564.08	29619.48
564.24	29647.57
564.41	29242.65
564.57	29233.29
564.74	29392.45
564.90	29872.26
565.07	29560.97
565.23	29745.87
565.39	29032.00
565.56	29649.91
565.72	29376.06
565.88	29404.15
566.05	29663.95
566.21	29579.69
566.38	30010.35
566.54	29991.62
566.70	30228.02
566.87	29827.79
567.03	29750.55
567.19	30197.59
567.36	30015.03
567.52	29579.69
567.68	29645.23
567.85	29989.28
568.01	29916.73
568.17	29965.88
568.34	29935.45
568.50	29860.55
568.66	29989.28
568.83	29935.45
568.99	30033.75
569.15	29706.08
569.32	29949.50
569.48	29947.15
569.64	30153.12
569.81	29993.97
569.97	29811.40
570.13	30127.38
570.30	29965.88
570.46	30265.47
570.62	30181.21
570.78	29617.14
570.95	29872.26
571.11	30068.86
571.27	29476.71
571.43	29862.90
571.60	30295.89
571.76	30160.14
571.92	30260.79
572.09	30354.41
572.25	29963.54
572.41	30415.26
572.57	30277.17
572.74	30558.03
572.90	29837.15
573.06	30127.38
573.22	30331.00
573.38	29858.21
573.55	30054.82
573.71	30450.37
573.87	30359.09
574.03	30335.68
574.20	30562.72
574.36	29888.64
574.52	30321.64
574.68	30176.53
574.84	30239.72
575.01	30375.47
575.17	30160.14
575.33	30171.85
575.49	30146.10
575.65	30333.34
575.82	30167.16
575.98	29961.20
576.14	30490.16
576.30	30356.75
576.46	30387.18
576.62	29996.31
576.79	30106.31
576.95	30125.04
577.11	30307.60
577.27	30146.10
577.43	30078.22
577.59	30558.03
577.75	30129.72
577.92	29912.05
578.08	29949.50
578.24	30068.86
578.40	30022.05
578.56	30396.54
578.72	30279.51
578.88	30808.47
579.04	30387.18
579.21	30323.98
579.37	30391.86
579.53	30120.35
579.69	30281.85
579.85	30522.93
580.01	30469.09
580.17	30204.61
580.33	30506.54
580.49	30450.37
580.65	30590.80
580.82	30654.00
580.98	30377.81
581.14	30724.21
581.30	30565.06
581.46	30092.27
581.62	30391.86
581.78	30272.49
581.94	30326.32
582.10	30375.47
582.26	30204.61
582.42	30618.89
582.58	30302.92
582.74	30520.59
582.90	30850.60
583.06	30267.81
583.22	30471.43
583.38	30253.76
583.54	30698.47
583.70	29965.88
583.86	30644.63
584.02	30382.49
584.18	30679.74
584.34	30892.73
584.50	30637.61
584.66	30656.34
584.82	30548.67
584.98	30497.18
585.14	30326.32
585.30	30443.35
585.46	30576.76
585.62	30698.47
585.78	30192.91
585.94	30045.46
586.10	30476.12
586.26	30782.73
586.42	30700.81
586.58	30749.96
586.74	30466.75
586.90	30679.74
587.06	30019.71
587.22	30780.39
587.38	30333.34
587.54	30387.18
587.70	30286.53
587.86	30803.79
588.02	30906.77
588.18	31386.58
588.34	30764.00
588.49	30773.36
588.65	30228.02
588.81	30209.29
588.97	30466.75
589.13	30782.73
589.29	30363.77
589.45	30845.92
589.61	30756.98
589.77	30543.99
589.93	31105.72
590.08	31091.68
590.24	30824.86
590.40	30930.18
590.56	30850.60
590.72	30799.11
590.88	30464.41
591.04	30976.99
591.20	31178.28
591.35	31168.91
591.51	30909.11
591.67	30958.27
591.83	31459.14
591.99	31159.55
592.15	31241.47
592.31	31063.59
592.46	30616.55
592.62	30899.75
592.78	30670.38
592.94	30845.92
593.10	30941.88
593.26	30855.28
593.41	31175.94
593.57	30998.06
593.73	30567.40
593.89	31129.12
594.05	31049.55
594.20	30740.60
594.36	31414.67
594.52	30892.73
594.68	30958.27
594.84	30909.11
594.99	31501.27
595.15	30930.18
595.31	31468.50
595.47	31019.12
595.62	31115.08
595.78	31070.61
595.94	30754.64
596.10	30768.68
596.25	30885.71
596.41	31042.53
596.57	30799.11
596.73	30632.93
596.88	31150.19
597.04	31248.49
597.20	31110.40
597.36	31278.92
597.51	31477.86
597.67	30902.09
597.83	30972.31
597.99	31166.57
598.14	30820.17
598.30	31122.10
598.46	31133.81
598.61	31168.91
598.77	30836.56
598.93	30745.28
599.09	30993.37
599.24	31133.81
599.40	31398.29
599.56	31758.73
599.71	31180.62
599.87	31262.54
600.03	31112.74
600.18	30885.71
600.34	30829.54
600.50	30881.03
600.65	30974.65
600.81	31417.01
600.97	31330.41
601.12	31419.35
601.28	31138.49
601.44	31496.59
601.59	31241.47
601.75	31154.87
601.91	31117.42
602.06	31136.15
602.22	31044.87
602.37	31197.00
602.53	31440.42
602.69	31250.83
602.84	31211.04
603.00	31267.22
603.16	31204.02
603.31	31068.27
603.47	30941.88
603.62	30876.35
603.78	30890.39
603.94	31096.36
604.09	31051.89
604.25	30962.95
604.40	30981.67
604.56	31091.68
604.71	31534.04
604.87	31094.02
605.03	31157.21
605.18	30855.28
605.34	31239.13
605.49	30473.78
605.65	31023.80
605.80	30925.50
605.96	31164.23
606.12	31014.44
606.27	31276.58
606.43	31103.38
606.58	31536.38
606.74	31407.65
606.89	31197.00
607.05	31339.77
607.20	31318.71
607.36	31007.42
607.51	31152.53
607.67	30906.77
607.82	30864.64
607.98	31201.68
608.13	30909.11
608.29	30696.13
608.44	31082.31
608.60	31173.60
608.75	31342.11
608.91	31140.83
609.06	30974.65
609.22	31257.85
609.37	30632.93
609.53	30953.58
609.68	30792.09
609.84	30864.64
609.99	30834.22
610.15	31072.95
610.30	30974.65
610.46	30916.14
610.61	30808.47
610.76	30733.57
610.92	30761.66
611.07	30871.67
611.23	30522.93
611.38	30747.62
611.54	30457.39
611.69	30515.90
611.84	30316.96
612.00	30377.81
612.15	30796.77
612.31	30862.30
612.46	30581.44
612.62	31040.18
612.77	30845.92
612.92	30703.15
613.08	30588.46
613.23	30944.22
613.39	30611.87
613.54	30539.31
613.69	30607.19
613.85	30307.60
614.00	30536.97
614.15	30361.43
614.31	30553.35
614.46	30429.30
614.62	30333.34
614.77	30780.39
614.92	30635.27
615.08	30370.79
615.23	30810.81
615.38	30527.61
615.54	30331.00
615.69	30464.41
615.84	30188.23
616.00	30417.60
616.15	30511.22
616.30	30249.08
616.46	30707.83
616.61	30696.13
616.76	30054.82
616.92	30448.03
617.07	30677.40
617.22	30499.52
617.37	30511.22
617.53	30583.78
617.68	29977.58
617.83	30225.68
617.99	30284.19
618.14	30279.51
618.29	30274.83
618.45	30401.22
618.60	30478.46
618.75	30309.94
618.90	30398.88
619.06	30319.30
619.21	30068.86
619.36	30118.01
619.51	30064.18
619.67	29881.62
619.82	30015.03
619.97	29804.38
620.12	29738.85
620.28	29968.22
620.43	29979.92
620.58	30452.71
620.73	30029.07
620.89	30005.67
621.04	30199.93
621.19	29940.13
621.34	29773.95
621.49	29951.84
621.65	29935.45
621.80	29748.21
621.95	29455.64
622.10	29689.70
622.25	29694.38
622.41	29766.93
622.56	29785.66
622.71	29773.95
622.86	30057.16
623.01	29771.61
623.16	29591.39
623.32	29631.18
623.47	29956.52
623.62	29951.84
623.77	29631.18
623.92	29736.51
624.07	29434.58
624.23	29820.77
624.38	29598.41
624.53	29818.42
624.68	29771.61
624.83	29998.65
624.98	29844.17
625.13	29301.17
625.29	29207.55
625.44	29188.82
625.59	29436.92
625.74	29310.53
625.89	29539.90
626.04	29509.47
626.19	29352.66
626.34	29198.18
626.49	29111.58
626.65	29170.10
626.80	29364.36
626.95	29083.50
627.10	29226.27
627.25	29022.64
627.40	29172.44
627.55	29226.27
627.70	29350.32
627.85	29041.37
628.00	28851.78
628.15	29326.91
628.30	28870.51
628.45	28994.56
628.60	28814.34
628.76	29174.78
628.91	29172.44
629.06	28891.57
629.21	29015.62
629.36	29043.71
629.51	28713.69
629.66	28800.29
629.81	28793.27
629.96	28865.83
630.11	28318.14
630.26	28755.82
630.41	28580.28
630.56	28987.53
630.71	28519.43
630.86	28882.21
631.01	28793.27
631.16	29291.80
631.31	28943.06
631.46	28648.16
631.61	28594.32
631.76	28606.03
631.91	28769.86
632.06	28093.45
632.21	28402.40
632.36	28615.39
632.51	28479.64
632.66	28629.43
632.81	28418.78
632.96	28425.81
633.10	28694.97
633.25	28634.11
633.40	28730.08
633.55	28313.46
633.70	28168.35
633.85	28109.83
634.00	28130.90
634.15	28573.26
634.30	28414.10
634.45	28051.32
634.60	28533.47
634.75	28397.72
634.90	28418.78
635.05	28566.24
635.19	28397.72
635.34	28364.95
635.49	28084.09
635.64	28364.95
635.79	28474.96
635.94	28074.73
636.09	28545.17
636.24	27920.25
636.39	28093.45
636.53	28526.45
636.68	27943.66
636.83	28149.62
636.98	28264.31
637.13	28074.73
637.28	28294.74
637.43	28346.23
637.57	28280.69
637.72	27733.01
637.87	28245.58
638.02	28037.28
638.17	27831.31
638.32	28009.19
638.46	27585.55
638.61	27660.45
638.76	27503.64
638.91	27395.97
639.06	27749.39
639.20	27943.66
639.35	27679.18
639.50	27681.52
639.65	27960.04
639.80	27981.10
639.94	27828.97
640.09	27821.95
640.24	27892.16
640.39	27428.74
640.54	27358.52
640.68	27679.18
640.83	27576.19
640.98	27482.57
641.13	27674.49
641.27	27578.53
641.42	27756.41
641.57	27529.38
641.72	27828.97
641.86	27386.61
642.01	27527.04
642.16	27775.14
642.31	27208.73
642.45	27253.20
642.60	27283.62
642.75	27220.43
642.90	26836.58
643.04	27573.85
643.19	26941.91
643.34	27398.31
643.48	27321.07
643.63	27316.39
643.78	27655.77
643.93	27405.33
644.07	27395.97
644.22	27339.80
644.37	27412.35
644.51	27012.12
644.66	27241.50
644.81	27058.93
644.95	26789.77
645.10	27199.37
645.25	27143.19
645.39	27021.48
645.54	27037.87
645.69	27000.42
645.83	27246.18
645.98	27150.21
646.13	27377.25
646.27	27033.19
646.42	27077.66
646.57	27213.41
646.71	27089.36
646.86	26995.74
647.00	27000.42
647.15	26871.69
647.30	26834.24
647.44	26752.32
647.59	26827.22
647.74	26738.28
647.88	26686.79
648.03	26661.04
648.17	27103.40
648.32	26806.16
648.47	27339.80
648.61	27087.02
648.76	26616.57
648.90	27005.10
649.05	26712.53
649.20	26859.99
649.34	26469.12
649.49	26185.91
649.63	26487.84
649.78	26707.85
649.92	26780.41
650.07	26810.84
650.21	26698.49
650.36	26733.60
650.51	26682.11
650.65	26508.91
650.80	26740.62
650.94	26298.26
651.09	26281.88
651.23	26265.49
651.38	26324.01
651.52	26239.75
651.67	26155.49
651.81	26307.62
651.96	26370.82
652.10	26417.63
652.25	26178.89
652.39	26487.84
652.54	26546.36
652.68	26885.73
652.83	26354.43
652.97	26595.51
653.12	26518.27
653.26	26328.69
653.41	26281.88
653.55	26134.42
653.70	26258.47
653.84	26038.46
653.99	26160.17
654.13	26363.79
654.27	26078.25
654.42	26075.91
654.56	26026.76
654.71	26190.59
654.85	26073.57
655.00	26263.15
655.14	26071.23
655.29	26057.18
655.43	26223.36
655.57	25902.71
655.72	25869.94
655.86	25593.76
656.01	25949.52
656.15	25661.63
656.30	25598.44
656.44	25905.05
656.58	25642.91
656.73	25671.00
656.87	26029.10
657.01	25764.62
657.16	25799.73
657.30	25619.50
657.45	25605.46
657.59	25839.51
657.73	25565.67
657.88	25951.86
658.02	25593.76
658.16	25713.13
658.31	25706.10
658.45	25413.54
658.60	25362.04
658.74	25287.15
658.88	25111.61
659.03	25476.73
659.17	25532.90
659.31	25329.28
659.46	25575.03
659.60	25575.03
659.74	25518.86
659.89	25399.49
660.03	25015.65
660.17	25106.93
660.32	25439.28
660.46	24978.20
660.60	24746.48
660.74	24961.81
660.89	24982.88
661.03	24779.25
661.17	25149.06
661.32	24755.85
661.46	24868.19
661.60	25057.78
661.74	25303.53
661.89	25064.80
662.03	24893.94
662.17	25207.57
662.31	25146.72
662.46	25106.93
662.60	24903.30
662.74	24491.37
662.88	24376.68
663.03	24379.02
663.17	24577.97
663.31	24528.81
663.45	24341.57
663.60	24425.83
663.74	24711.38
663.88	24685.63
664.02	24056.03
664.17	24610.73
664.31	24325.19
664.45	24290.08
664.59	24409.45
664.73	24603.71
664.88	24215.18
665.02	23910.91
665.16	24166.03
665.30	24313.48
665.44	23976.45
665.59	23821.97
665.73	23962.40
665.87	24077.09
666.01	23962.40
666.15	23931.98
666.29	24025.60
666.44	23805.59
666.58	23946.02
666.72	23630.05
666.86	24126.24
667.00	23927.30
667.14	23742.39
667.28	23503.66
667.43	23543.45
667.57	23550.47
667.71	23302.37
667.85	23681.54
667.99	23372.59
668.13	23342.16
668.27	23410.04
668.41	23381.95
668.56	23049.60
668.70	23737.71
668.84	23463.87
668.98	23384.29
669.12	23470.89
669.26	23051.94
669.40	23426.42
669.54	23445.15
669.68	23360.89
669.82	22787.46
669.96	22888.10
670.10	22506.59
670.25	22897.46
670.39	22537.02
670.53	22906.82
670.67	22761.71
670.81	22862.35
670.95	22698.52
671.09	22696.17
671.23	22602.55
671.37	22860.01
671.51	22787.46
671.65	22925.55
671.79	22422.33
671.93	22616.60
672.07	22792.14
672.21	22263.18
672.35	22473.82
672.49	22204.66
672.63	22338.07
672.77	22139.13
672.91	22118.06
673.05	22263.18
673.19	22047.85
673.33	22120.40
673.47	22324.03
673.61	22111.04
673.75	22066.57
673.89	22066.57
674.03	21923.80
674.17	21956.57
674.31	21624.21
674.45	22008.06
674.59	21825.50
674.73	21797.41
674.87	21532.93
675.01	21518.89
675.15	21467.39
675.29	21434.63
675.43	21579.74
675.56	21214.62
675.70	21490.80
675.84	21301.22
675.98	20594.37
676.12	21231.00
676.26	21406.54
676.40	21221.64
676.54	21029.71
676.68	21177.17
676.82	20945.45
676.96	20802.68
677.10	20912.69
677.23	20334.57
677.37	20753.53
677.51	20744.17
677.65	20606.08
677.79	20313.51
677.93	20308.83
678.07	20329.89
678.21	19971.79
678.34	20156.69
678.48	20109.88
678.62	20065.41
678.76	20109.88
678.90	19742.42
679.04	19782.21
679.18	20386.07
679.31	19922.64
679.45	19688.59
679.59	19580.92
679.73	19674.54
679.87	19440.49
680.00	19461.55
680.14	19445.17
680.28	19613.69
680.42	19683.91
680.56	19559.86
680.70	19517.73
680.83	19176.01
680.97	19379.64
681.11	19342.19
681.25	19286.01
681.39	19271.97
681.52	18815.57
681.66	19047.28
681.80	18941.96
681.94	19126.86
682.07	18911.53
682.21	18803.86
682.35	18651.73
682.49	18607.26
682.62	18335.76
682.76	18532.36
682.90	18558.11
683.04	18597.90
683.17	18422.36
683.31	18499.59
683.45	18583.85
683.59	17994.04
683.72	18115.75
683.86	18043.19
684.00	18356.82
684.13	17827.86
684.27	17790.41
684.41	17659.34
684.55	17827.86
684.68	17671.04
684.82	17717.86
684.96	17645.30
685.09	17692.11
685.23	17647.64
685.37	16982.93
685.50	17748.28
685.64	17228.68
685.78	17249.75
685.91	17628.92
686.05	17216.98
686.19	17268.47
686.32	17544.66
686.46	16872.92
686.60	16901.01
686.73	17055.48
686.87	16638.87
687.01	16788.66
687.14	16627.17
687.28	16563.97
687.42	16751.21
687.55	16411.84
687.69	16666.95
687.82	16500.78
687.96	16320.56
688.10	16402.47
688.23	16549.93
688.37	16369.71
688.50	15960.11
688.64	16325.24
688.78	16027.99
688.91	16018.63
689.05	15894.58
689.18	16126.29
689.32	15667.55
689.46	15630.10
689.59	15751.81
689.73	15852.45
689.86	15517.75
690.00	15552.86
690.13	15559.88
690.27	15735.42
690.41	15353.91
690.54	15360.94
690.68	15372.64
690.81	15318.81
690.95	15564.56
691.08	15468.60
691.22	15122.20
691.35	15290.72
691.49	15110.50
691.62	15185.40
691.76	14895.17
691.89	14780.48
692.03	14991.13
692.16	14541.75
692.30	14581.54
692.43	14572.18
692.57	14686.86
692.70	14733.67
692.84	14232.80
692.97	14345.14
693.11	14497.28
693.24	14668.14
693.38	14167.26
693.51	14331.10
693.65	14253.86
693.78	14083.00
693.92	14366.21
694.05	14078.32
694.19	13989.38
694.32	14005.77
694.45	13970.66
694.59	13687.45
694.72	13682.77
694.86	13844.27
694.99	13383.18
695.13	13816.18
695.26	13532.98
695.39	13312.97
695.53	13652.34
695.66	13364.46
695.80	13350.42
695.93	13202.96
696.07	13446.38
696.20	13448.72
696.33	13350.42
696.47	13420.63
696.60	13081.25
696.73	13022.74
696.87	13165.51
697.00	13034.44
697.14	12784.01
697.27	12517.18
697.40	12716.13
697.54	12709.11
697.67	12643.57
697.80	12671.66
697.94	12479.74
698.07	12397.82
698.21	12425.90
698.34	12290.15
698.47	12353.35
698.61	12315.90
698.74	12252.70
698.87	12437.61
699.01	12077.16
699.14	12098.23
699.27	12159.08
699.40	12105.25
699.54	11967.16
699.67	11882.90
699.80	11885.24
699.94	11808.00
700.07	12049.08
700.20	11583.31
700.34	11438.20
700.47	11604.38
700.60	11688.64
700.73	11768.21
700.87	11447.56
701.00	11309.47
701.13	11410.11
701.26	11265.00
701.40	11674.59
701.53	11398.41
701.66	11290.74
701.79	11052.01
701.93	11108.18
702.06	11012.22
702.19	10942.00
702.32	10726.68
702.46	10913.92
702.59	10614.33
702.72	10583.90
702.85	10656.46
702.99	10789.87
703.12	10677.52
703.25	10602.63
703.38	10647.10
703.51	10504.32
703.65	10431.77
703.78	10450.49
703.91	10459.85
704.04	10583.90
704.17	10602.63
704.31	10422.41
704.44	10319.42
704.57	10092.39
704.70	10291.34
704.83	9870.04
704.96	9991.75
705.10	9942.60
705.23	10094.73
>>>>>End Processed Spectral Data<<<<<
