SpectraSuite Data File
++++++++++++++++++++++++++++++++++++
Date: Fri Oct 18 13:58:10 GMT-05:00 2013
User: bianchi
Dark Spectrum Present: No
Reference Spectrum Present: No
Number of Sampled Component Spectra: 1
Spectrometers: USB2+H05261
Integration Time (usec): 50000 (USB2+H05261)
Spectra Averaged: 1 (USB2+H05261)
Boxcar Smoothing: 0 (USB2+H05261)
Correct for Electrical Dark: No (USB2+H05261)
Strobe/Lamp Enabled: No (USB2+H05261)
Correct for Detector Non-linearity: No (USB2+H05261)
Correct for Stray Light: No (USB2+H05261)
Number of Pixels in Processed Spectrum: 2048
>>>>>Begin Processed Spectral Data<<<<<
365.73	0.00
365.92	0.00
366.12	0.00
366.32	0.00
366.52	0.00
366.72	0.00
366.91	0.00
367.11	0.00
367.31	0.00
367.51	0.00
367.70	0.00
367.90	0.00
368.10	0.00
368.30	0.00
368.49	0.00
368.69	0.00
368.89	0.00
369.09	0.00
369.28	0.00
369.48	0.00
369.68	0.00
369.87	0.00
370.07	0.00
370.27	0.00
370.47	0.00
370.66	95.96
370.86	159.16
371.06	105.32
371.25	133.41
371.45	124.05
371.65	117.03
371.84	166.18
372.04	105.32
372.24	154.48
372.44	182.56
372.63	205.97
372.83	173.20
373.03	173.20
373.22	128.73
373.42	161.50
373.62	250.44
373.81	271.50
374.01	234.05
374.21	224.69
374.40	229.37
374.60	196.60
374.79	198.95
374.99	294.91
375.19	238.73
375.38	315.97
375.58	280.86
375.78	278.52
375.97	308.95
376.17	278.52
376.37	266.82
376.56	271.50
376.76	248.10
376.95	224.69
377.15	297.25
377.35	224.69
377.54	269.16
377.74	208.31
377.93	299.59
378.13	327.68
378.33	322.99
378.52	271.50
378.72	292.57
378.91	269.16
379.11	344.06
379.31	280.86
379.50	273.84
379.70	322.99
379.89	294.91
380.09	358.10
380.28	280.86
380.48	372.15
380.68	421.30
380.87	304.27
381.07	339.38
381.26	390.87
381.46	337.04
381.65	374.49
381.85	346.40
382.04	407.25
382.24	353.42
382.43	407.25
382.63	339.38
382.83	297.25
383.02	407.25
383.22	428.32
383.41	379.17
383.61	346.40
383.80	372.15
384.00	442.36
384.19	334.70
384.39	386.19
384.58	374.49
384.78	404.91
384.97	379.17
385.17	332.36
385.36	374.49
385.56	358.10
385.75	362.78
385.95	484.49
386.14	409.59
386.34	409.59
386.53	393.21
386.72	386.19
386.92	411.93
387.11	470.45
387.31	447.04
387.50	444.70
387.70	409.59
387.89	407.25
388.09	482.15
388.28	510.24
388.48	447.04
388.67	454.06
388.86	421.30
389.06	407.25
389.25	535.98
389.45	486.83
389.64	512.58
389.84	468.11
390.03	566.41
390.22	554.71
390.42	489.17
390.61	444.70
390.81	519.60
391.00	580.45
391.19	524.28
391.39	496.19
391.58	531.30
391.78	472.79
391.97	547.69
392.16	482.15
392.36	620.24
392.55	528.96
392.75	449.38
392.94	582.79
393.13	624.92
393.33	615.56
393.52	538.32
393.71	629.60
393.91	631.94
394.10	599.18
394.29	510.24
394.49	491.51
394.68	603.86
394.88	533.64
395.07	601.52
395.26	709.18
395.46	695.14
395.65	631.94
395.84	662.37
396.04	734.93
396.23	669.39
396.42	601.52
396.62	690.46
396.81	692.80
397.00	681.10
397.19	645.99
397.39	706.84
397.58	634.29
397.77	699.82
397.97	709.18
398.16	681.10
398.35	622.58
398.55	690.46
398.74	819.19
398.93	713.86
399.12	734.93
399.32	699.82
399.51	767.70
399.70	873.02
399.90	828.55
400.09	807.48
400.28	866.00
400.47	751.31
400.67	819.19
400.86	800.46
401.05	837.91
401.24	828.55
401.44	795.78
401.63	851.96
401.82	784.08
402.01	866.00
402.21	837.91
402.40	826.21
402.59	833.23
402.78	770.04
402.97	816.85
403.17	781.74
403.36	903.45
403.55	833.23
403.74	887.06
403.93	849.61
404.13	894.08
404.32	800.46
404.51	940.90
404.70	894.08
404.89	919.83
405.09	947.92
405.28	971.32
405.47	931.53
405.66	1046.22
405.85	1015.79
406.05	1013.45
406.24	987.71
406.43	992.39
406.62	1046.22
406.81	1043.88
407.00	1118.78
407.20	957.28
407.39	954.94
407.58	1132.82
407.77	1039.20
407.96	1032.18
408.15	1153.88
408.34	964.30
408.54	1149.20
408.73	1210.06
408.92	1100.05
409.11	1193.67
409.30	1172.61
409.49	1203.04
409.68	1163.25
409.87	1135.16
410.07	1163.25
410.26	1125.80
410.45	1231.12
410.64	1163.25
410.83	1242.82
411.02	1177.29
411.21	1263.89
411.40	1273.25
411.59	1301.34
411.78	1268.57
411.98	1233.46
412.17	1343.47
412.36	1306.02
412.55	1355.17
412.74	1275.59
412.93	1336.45
413.12	1310.70
413.31	1434.75
413.50	1378.58
413.69	1420.71
413.88	1406.66
414.07	1380.92
414.26	1481.56
414.45	1462.83
414.64	1502.62
414.83	1502.62
415.02	1565.82
415.22	1591.56
415.41	1558.80
415.60	1509.65
415.79	1640.72
415.98	1519.01
416.17	1570.50
416.36	1502.62
416.55	1715.61
416.74	1659.44
416.93	1605.61
417.12	1750.72
417.31	1675.82
417.50	1727.32
417.69	1694.55
417.88	1696.89
418.07	1678.16
418.26	1671.14
418.45	1825.62
418.64	1907.54
418.83	1802.21
419.02	1781.15
419.21	1806.89
419.39	1781.15
419.58	1771.79
419.77	1813.92
419.96	1895.83
420.15	1881.79
420.34	1837.32
420.53	1907.54
420.72	2001.16
420.91	2118.18
421.10	1956.69
421.29	1891.15
421.48	1937.96
421.67	1980.09
421.86	1980.09
422.05	2090.10
422.24	1970.73
422.43	2026.90
422.61	2113.50
422.80	2005.84
422.99	2012.86
423.18	2047.97
423.37	2057.33
423.56	2040.95
423.75	2076.06
423.94	1996.48
424.13	2008.18
424.32	2062.01
424.50	1977.75
424.69	2113.50
424.88	2172.02
425.07	2066.69
425.26	2104.14
425.45	2125.21
425.64	1977.75
425.83	2076.06
426.01	2040.95
426.20	2094.78
426.39	2094.78
426.58	2050.31
426.77	2073.71
426.96	2193.08
427.15	2073.71
427.33	2221.17
427.52	2263.30
427.71	2125.21
427.90	2146.27
428.09	2204.78
428.28	2251.60
428.46	2216.49
428.65	2197.76
428.84	2218.83
429.03	2279.68
429.22	2282.02
429.40	2218.83
429.59	2406.07
429.78	2150.95
429.97	2209.47
430.16	2303.09
430.34	2457.56
430.53	2387.35
430.72	2436.50
430.91	2296.07
431.10	2249.25
431.28	2394.37
431.47	2459.90
431.66	2457.56
431.85	2450.54
432.03	2518.42
432.22	2509.05
432.41	2450.54
432.60	2478.63
432.79	2452.88
432.97	2441.18
433.16	2469.27
433.35	2417.77
433.54	2448.20
433.72	2595.65
433.91	2448.20
434.10	2588.63
434.28	2499.69
434.47	2698.64
434.66	2630.76
434.85	2619.06
435.03	2560.55
435.22	2635.44
435.41	2712.68
435.59	2705.66
435.78	2759.49
435.97	2654.17
436.16	2677.57
436.34	2738.43
436.53	2651.83
436.72	2792.26
436.90	2787.58
437.09	2813.32
437.28	2715.02
437.46	2750.13
437.65	2782.90
437.84	2806.30
438.02	2839.07
438.21	2820.35
438.40	2759.49
438.58	2878.86
438.77	2904.60
438.96	2913.97
439.14	2960.78
439.33	3038.02
439.52	2906.95
439.70	3005.25
439.89	3213.56
440.08	3183.13
440.26	3049.72
440.45	3192.49
440.63	3082.49
440.82	3126.96
441.01	3026.31
441.19	3185.47
441.38	3166.74
441.57	3201.85
441.75	3148.02
441.94	3180.79
442.12	3155.04
442.31	3300.16
442.50	3358.67
442.68	3393.78
442.87	3304.84
443.05	3384.41
443.24	3400.80
443.43	3323.56
443.61	3529.53
443.80	3456.97
443.98	3370.37
444.17	3337.60
444.35	3482.72
444.54	3482.72
444.73	3421.86
444.91	3499.10
445.10	3487.40
445.28	3393.78
445.47	3314.20
445.65	3459.31
445.84	3492.08
446.02	3651.24
446.21	3508.46
446.39	3478.04
446.58	3630.17
446.77	3440.59
446.95	3520.17
447.14	3456.97
447.32	3581.02
447.51	3478.04
447.69	3665.28
447.88	3574.00
448.06	3606.77
448.25	3627.83
448.43	3602.08
448.62	3529.53
448.80	3358.67
448.99	3648.90
449.17	3623.15
449.36	3641.87
449.54	3693.37
449.73	3674.64
449.91	3744.86
450.10	3742.52
450.28	3833.80
450.46	3695.71
450.65	3726.13
450.83	3779.97
451.02	3735.50
451.20	3756.56
451.39	3829.12
451.57	3749.54
451.76	3880.61
451.94	3824.44
452.13	3850.18
452.31	4028.06
452.49	3768.26
452.68	4011.68
452.86	3922.74
453.05	4060.83
453.23	4002.32
453.42	3864.22
453.60	3880.61
453.78	3992.95
453.97	3854.86
454.15	3911.04
454.34	3999.98
454.52	4072.53
454.70	4025.72
454.89	4028.06
455.07	4070.19
455.26	4077.21
455.44	4205.94
455.62	4184.88
455.81	4177.86
455.99	4318.29
456.17	4049.13
456.36	4205.94
456.54	4322.97
456.73	4346.37
456.91	4407.23
457.09	4308.93
457.28	4547.66
457.46	4229.35
457.64	4423.61
457.83	4409.57
458.01	4369.78
458.19	4447.02
458.38	4355.74
458.56	4507.87
458.74	4468.08
458.93	4479.79
459.11	4461.06
459.29	4580.43
459.48	4730.22
459.66	4493.83
459.84	4526.60
460.03	4606.17
460.21	4470.42
460.39	4566.39
460.57	4699.80
460.76	4683.41
460.94	4751.29
461.12	4615.54
461.31	4755.97
461.49	4781.71
461.67	4713.84
461.85	4887.04
462.04	4734.90
462.22	4847.25
462.40	4873.00
462.59	4828.53
462.77	4800.44
462.95	4805.12
463.13	4802.78
463.32	4837.89
463.50	4999.38
463.68	4798.10
463.86	4997.04
464.05	4870.65
464.23	4896.40
464.41	5050.88
464.59	4980.66
464.78	5032.15
464.96	4933.85
465.14	5132.79
465.32	5146.84
465.50	5069.60
465.69	5083.64
465.87	5149.18
466.05	5191.31
466.23	4978.32
466.41	5069.60
466.60	5338.76
466.78	5062.58
466.96	5144.50
467.14	5172.58
467.32	5214.71
467.51	5121.09
467.69	4961.94
467.87	5280.25
468.05	5294.29
468.23	5282.59
468.41	5280.25
468.60	5219.39
468.78	5416.00
468.96	5268.55
469.14	5322.38
469.32	5469.83
469.50	5303.65
469.69	5460.47
469.87	5474.51
470.05	5500.26
470.23	5654.73
470.41	5458.13
470.59	5652.39
470.77	5607.92
470.95	5680.48
471.14	5689.84
471.32	5467.49
471.50	5657.07
471.68	5830.27
471.86	5673.46
472.04	5668.78
472.22	5975.39
472.40	5841.98
472.58	5867.72
472.77	5858.36
472.95	5874.74
473.13	6069.01
473.31	5753.04
473.49	5991.77
473.67	6038.58
473.85	5921.56
474.03	5963.68
474.21	6104.12
474.39	6129.86
474.57	6150.93
474.75	6104.12
474.93	6265.61
475.12	6186.04
475.30	6403.71
475.48	6129.86
475.66	6190.72
475.84	6366.26
476.02	6406.05
476.20	6438.81
476.38	6663.51
476.56	6693.93
476.74	6661.16
476.92	6712.66
477.10	6696.27
477.28	6778.19
477.46	6593.29
477.64	6710.32
477.82	6874.15
478.00	7110.55
478.18	7052.03
478.36	7162.04
478.54	7229.91
478.72	7187.79
478.90	7307.15
479.08	7358.64
479.26	7176.08
479.44	7463.97
479.62	7485.03
479.80	7564.61
479.98	7606.74
480.16	7810.37
480.34	7616.10
480.52	7552.91
480.70	7744.83
480.88	7740.15
481.06	7744.83
481.24	7791.64
481.41	7824.41
481.59	8088.89
481.77	8222.30
481.95	8203.58
482.13	8351.03
482.31	8077.19
482.49	8592.11
482.67	8449.33
482.85	8624.87
483.03	8690.41
483.21	8636.58
483.39	8622.53
483.57	8685.73
483.74	8739.56
483.92	8922.12
484.10	8938.51
484.28	9048.51
484.46	9212.35
484.64	9448.74
484.82	9270.86
485.00	9320.01
485.18	9509.60
485.35	9635.99
485.53	9444.06
485.71	9589.17
485.89	9738.97
486.07	9650.03
486.25	9865.36
486.43	9727.27
486.61	9900.47
486.78	10073.67
486.96	9984.73
487.14	10216.44
487.32	9895.78
487.50	10326.44
487.68	10457.51
487.85	10640.08
488.03	10558.16
488.21	10764.12
488.39	10576.88
488.57	10815.62
488.75	10904.56
488.92	11049.67
489.10	11211.17
489.28	11162.01
489.46	11283.72
489.64	11192.44
489.81	11234.57
489.99	11445.22
490.17	11676.93
490.35	11688.64
490.53	11744.81
490.70	11850.13
490.88	11808.00
491.06	11943.75
491.24	11754.17
491.41	12112.27
491.59	12292.49
491.77	12231.64
491.95	12510.16
492.13	12484.42
492.30	12498.46
492.48	12528.89
492.66	12418.88
492.84	12620.17
493.01	12674.00
493.19	12746.56
493.37	12954.87
493.54	13041.46
493.72	13053.17
493.90	13305.95
494.08	13184.24
494.25	13284.88
494.43	13598.51
494.61	13444.04
494.79	13738.94
494.96	13523.62
495.14	13741.29
495.32	13614.90
495.49	13788.10
495.67	13884.06
495.85	14015.13
496.02	14010.45
496.20	14157.90
496.38	13919.17
496.55	14071.30
496.73	14534.73
496.91	14420.04
497.09	14604.94
497.26	14630.69
497.44	14672.82
497.62	14745.38
497.79	14904.53
497.97	14640.05
498.14	15161.99
498.32	15070.71
498.50	15239.23
498.67	15143.27
498.85	15122.20
499.03	15557.54
499.20	15332.85
499.38	15173.69
499.56	15267.31
499.73	15782.23
499.91	15613.71
500.08	15688.61
500.26	15658.18
500.44	15702.65
500.61	15974.16
500.79	15882.88
500.97	15981.18
501.14	16020.97
501.32	16290.13
501.49	15967.13
501.67	15960.11
501.84	16152.04
502.02	16409.50
502.20	16201.19
502.37	16793.34
502.55	16435.24
502.72	16269.06
502.90	16477.37
503.07	16484.39
503.25	16622.48
503.43	16645.89
503.60	16765.26
503.78	17062.51
503.95	16739.51
504.13	16840.15
504.30	16769.94
504.48	16844.84
504.65	17282.52
504.83	17303.58
505.01	17383.16
505.18	17336.35
505.36	17666.36
505.53	17160.81
505.71	17338.69
505.88	17135.06
506.06	17153.79
506.23	17708.49
506.41	17263.79
506.58	17511.89
506.76	17884.03
506.93	17837.22
507.11	17591.47
507.28	18038.51
507.46	17731.90
507.63	18036.17
507.81	17848.93
507.98	17954.25
508.16	17987.02
508.33	18064.25
508.50	18291.29
508.68	18141.49
508.85	18555.77
509.03	18548.75
509.20	18719.60
509.38	18581.51
509.55	18607.26
509.73	18726.63
509.90	18785.14
510.08	18712.58
510.25	18916.21
510.42	19042.60
510.60	18899.83
510.77	19091.75
510.95	19147.92
511.12	18782.80
511.30	18998.13
511.47	19365.59
511.64	19283.67
511.82	19449.85
511.99	19452.19
512.17	19704.97
512.34	19363.25
512.51	19508.37
512.69	19728.38
512.86	19639.44
513.04	20100.52
513.21	19723.69
513.38	19585.60
513.56	19892.21
513.73	19824.34
513.90	19939.02
514.08	19742.42
514.25	20056.05
514.43	20238.61
514.60	20353.30
514.77	20130.95
514.95	20524.16
515.12	20128.61
515.29	20023.28
515.47	20245.63
515.64	20521.82
515.81	20809.70
515.99	20418.83
516.16	20659.91
516.33	20865.88
516.51	20898.64
516.68	20772.25
516.85	20992.26
517.03	20915.03
517.20	21195.89
517.37	20776.94
517.54	20943.11
517.72	20833.11
517.89	21027.37
518.06	20973.54
518.24	21102.27
518.41	21120.99
518.58	21280.15
518.75	21364.41
518.93	21341.00
519.10	21362.07
519.27	21397.18
519.45	21383.13
519.62	21247.38
519.79	21591.44
519.96	21649.96
520.14	21659.32
520.31	21514.20
520.48	21458.03
520.65	22071.25
520.83	21919.12
521.00	21568.04
521.17	21865.28
521.34	21771.66
521.52	22326.37
521.69	22183.60
521.86	22190.62
522.03	22169.55
522.20	21844.22
522.38	22150.83
522.55	22321.69
522.72	22314.67
522.89	22249.13
523.07	22527.66
523.24	22331.05
523.41	22637.66
523.58	22651.70
523.75	22541.70
523.92	22803.84
524.10	22623.62
524.27	22874.06
524.44	22632.98
524.61	22871.72
524.78	22970.02
524.96	22721.92
525.13	22773.41
525.30	23147.90
525.47	22974.70
525.64	23133.86
525.81	23173.64
525.98	23124.49
526.16	23356.21
526.33	23438.12
526.50	23604.30
526.67	23190.03
526.84	23410.04
527.01	23325.78
527.18	23185.35
527.36	23814.95
527.53	23630.05
527.70	23896.87
527.87	23733.03
528.04	23882.83
528.21	23360.89
528.38	23751.76
528.55	23838.36
528.72	24034.96
528.89	23999.85
529.07	23887.51
529.24	24123.90
529.41	24056.03
529.58	24088.79
529.75	23718.99
529.92	24369.66
530.09	24006.87
530.26	24278.38
530.43	24479.66
530.60	24243.27
530.77	24306.46
530.94	24212.84
531.11	24500.73
531.28	23962.40
531.46	24257.31
531.63	24229.23
531.80	24479.66
531.97	24734.78
532.14	24603.71
532.31	24465.62
532.48	24512.43
532.65	24725.42
532.82	24341.57
532.99	24683.29
533.16	24580.31
533.33	24716.06
533.50	25233.32
533.67	24713.72
533.84	24762.87
534.01	24844.79
534.18	25076.50
534.35	25025.01
534.52	25338.64
534.69	25558.65
534.86	25214.59
535.03	24842.45
535.20	25551.63
535.37	25127.99
535.54	25329.28
535.71	25060.12
535.88	25317.57
536.05	25163.10
536.22	25680.36
536.38	25586.74
536.55	25495.46
536.72	25745.89
536.89	25406.52
537.06	25680.36
537.23	25729.51
537.40	25275.45
537.57	25406.52
537.74	25741.21
537.91	25881.64
538.08	25642.91
538.25	25853.56
538.42	25722.49
538.59	25982.29
538.75	25638.23
538.92	25593.76
539.09	25893.35
539.26	25528.22
539.43	25961.22
539.60	26008.03
539.77	26263.15
539.94	25893.35
540.11	25989.31
540.28	26225.70
540.44	26155.49
540.61	26024.42
540.78	26405.92
540.95	26331.03
541.12	26216.34
541.29	26340.39
541.46	26237.41
541.62	25968.24
541.79	26251.45
541.96	25865.26
542.13	26504.23
542.30	26513.59
542.47	26717.22
542.63	27009.78
542.80	26759.34
542.97	26813.18
543.14	26988.72
543.31	26862.33
543.48	26719.56
543.64	27166.60
543.81	27082.34
543.98	27323.41
544.15	26918.50
544.32	27243.84
544.48	27342.14
544.65	27023.83
544.82	26869.35
544.99	27187.66
545.16	27321.07
545.32	27477.89
545.49	27150.21
545.66	27632.36
545.83	27363.20
546.00	27477.89
546.16	27363.20
546.33	26995.74
546.50	27030.85
546.67	27529.38
546.83	27000.42
547.00	27424.06
547.17	27283.62
547.34	27442.78
547.50	27590.24
547.67	27887.48
547.84	27503.64
548.00	27370.22
548.17	27913.23
548.34	27531.72
548.51	27580.87
548.67	27873.44
548.84	27971.74
549.01	27695.56
549.18	27751.73
549.34	28074.73
549.51	27924.93
549.68	27740.03
549.84	27775.14
550.01	27990.47
550.18	27901.53
550.34	27969.40
550.51	28379.00
550.68	28437.51
550.84	27953.02
551.01	28037.28
551.18	28250.27
551.34	27742.37
551.51	27948.34
551.68	28280.69
551.84	28444.53
552.01	28285.37
552.18	28364.95
552.34	28444.53
552.51	28465.60
552.68	28184.73
552.84	28341.55
553.01	28620.07
553.18	28446.87
553.34	28477.30
553.51	28313.46
553.67	28503.04
553.84	28765.18
554.01	28849.44
554.17	28362.61
554.34	28797.95
554.51	28496.02
554.67	28755.82
554.84	28259.63
555.00	28741.78
555.17	28556.88
555.33	28531.13
555.50	28514.75
555.67	28666.88
555.83	28701.99
556.00	28816.68
556.16	28987.53
556.33	29134.99
556.50	29132.65
556.66	29113.92
556.83	29085.84
556.99	29034.35
557.16	28922.00
557.32	29102.22
557.49	28940.72
557.65	28893.91
557.82	28996.90
557.98	29212.23
558.15	29113.92
558.32	29315.21
558.48	29036.69
558.65	29345.64
558.81	29399.47
558.98	29343.30
559.14	29219.25
559.31	28945.41
559.47	29331.59
559.64	29427.56
559.80	29160.73
559.97	29352.66
560.13	29350.32
560.30	29809.06
560.46	29266.06
560.63	29420.53
560.79	29780.98
560.96	29425.22
561.12	29081.16
561.29	29188.82
561.45	29591.39
561.61	29598.41
561.78	29603.10
561.94	29439.26
562.11	29996.31
562.27	29645.23
562.44	29418.19
562.60	29790.34
562.77	29776.30
562.93	29443.94
563.10	29961.20
563.26	29802.04
563.42	30174.19
563.59	29797.36
563.75	29806.72
563.92	29703.74
564.08	29607.78
564.24	29607.78
564.41	29336.27
564.57	29813.74
564.74	29780.98
564.90	29710.76
565.07	29748.21
565.23	30148.44
565.39	30031.41
565.56	30089.93
565.72	29766.93
565.88	29715.44
566.05	29811.40
566.21	29663.95
566.38	30050.14
566.54	29998.65
566.70	30218.66
566.87	30113.33
567.03	30085.25
567.19	30426.96
567.36	30293.55
567.52	29989.28
567.68	30349.73
567.85	29788.00
568.01	30022.05
568.17	30174.19
568.34	30279.51
568.50	30101.63
568.66	30185.89
568.83	30328.66
568.99	30003.33
569.15	30143.76
569.32	30244.40
569.48	29776.30
569.64	29827.79
569.81	30244.40
569.97	30263.13
570.13	30632.93
570.30	29769.27
570.46	30450.37
570.62	30225.68
570.78	29890.98
570.95	29942.47
571.11	30036.09
571.27	29907.37
571.43	30024.39
571.60	30160.14
571.76	30284.19
571.92	30560.37
572.09	30305.26
572.25	30190.57
572.41	29951.84
572.57	30066.52
572.74	30455.05
572.90	29895.66
573.06	30361.43
573.22	30412.92
573.38	30213.98
573.55	30249.08
573.71	30852.94
573.87	30761.66
574.03	30623.57
574.20	30202.27
574.36	29893.32
574.52	30068.86
574.68	30487.82
574.84	30426.96
575.01	30419.94
575.17	30426.96
575.33	30391.86
575.49	30464.41
575.65	30630.59
575.82	30677.40
575.98	30455.05
576.14	30469.09
576.30	30696.13
576.46	30195.25
576.62	30546.33
576.79	30328.66
576.95	30253.76
577.11	30338.02
577.27	30199.93
577.43	30567.40
577.59	30370.79
577.75	30834.22
577.92	30096.95
578.08	30181.21
578.24	30593.14
578.40	30527.61
578.56	30558.03
578.72	30773.36
578.88	30955.93
579.04	30738.26
579.21	30525.27
579.37	30265.47
579.53	30850.60
579.69	30029.07
579.85	30581.44
580.01	30459.73
580.17	30424.62
580.33	30167.16
580.49	30375.47
580.65	30621.23
580.82	30857.62
580.98	30920.82
581.14	30476.12
581.30	30452.71
581.46	30628.25
581.62	30412.92
581.78	30038.44
581.94	30813.15
582.10	30478.46
582.26	30553.35
582.42	30396.54
582.58	30464.41
582.74	30452.71
582.90	30551.01
583.06	30698.47
583.22	30323.98
583.38	30761.66
583.54	30808.47
583.70	30492.50
583.86	30916.14
584.02	30658.68
584.18	30792.09
584.34	30625.91
584.50	30969.97
584.66	30759.32
584.82	30527.61
584.98	30724.21
585.14	30668.04
585.30	30541.65
585.46	30464.41
585.62	30452.71
585.78	30490.16
585.94	30485.48
586.10	30649.32
586.26	30506.54
586.42	30913.80
586.58	30981.67
586.74	30778.04
586.90	30696.13
587.06	30419.94
587.22	30747.62
587.38	30572.08
587.54	30951.24
587.70	30871.67
587.86	31082.31
588.02	30590.80
588.18	31344.45
588.34	30628.25
588.49	30597.82
588.65	30581.44
588.81	31075.29
588.97	30646.97
589.13	30438.67
589.29	30881.03
589.45	31028.48
589.61	30766.34
589.77	31419.35
589.93	30958.27
590.08	31290.62
590.24	31349.14
590.40	31257.85
590.56	31365.52
590.72	30955.93
590.88	31065.93
591.04	30768.68
591.20	30995.71
591.35	31456.80
591.51	31288.28
591.67	30948.90
591.83	31601.91
591.99	30824.86
592.15	30974.65
592.31	31248.49
592.46	30874.01
592.62	30995.71
592.78	31133.81
592.94	31232.11
593.10	31075.29
593.26	31468.50
593.41	31332.75
593.57	31087.00
593.73	31136.15
593.89	31021.46
594.05	31316.37
594.20	31262.54
594.36	30927.84
594.52	31185.30
594.68	31197.00
594.84	30773.36
594.99	31180.62
595.15	31316.37
595.31	31512.97
595.47	31255.51
595.62	31248.49
595.78	31473.18
595.94	31271.90
596.10	31255.51
596.25	31138.49
596.41	31283.60
596.57	30960.61
596.73	31189.98
596.88	31367.86
597.04	31679.15
597.20	31173.60
597.36	31213.38
597.51	31297.64
597.67	31264.88
597.83	31257.85
597.99	31079.97
598.14	30836.56
598.30	31122.10
598.46	31117.42
598.61	31040.18
598.77	31051.89
598.93	31417.01
599.09	31613.62
599.24	31658.09
599.40	31307.01
599.56	31470.84
599.71	31391.26
599.87	31337.43
600.03	31147.85
600.18	31056.57
600.34	31112.74
600.50	31285.94
600.65	31379.56
600.81	31573.83
600.97	31538.72
601.12	31599.57
601.28	31812.56
601.44	31737.66
601.59	31807.88
601.75	31180.62
601.91	31222.75
602.06	31658.09
602.22	31419.35
602.37	31140.83
602.53	31211.04
602.69	31281.26
602.84	31311.69
603.00	31428.71
603.16	31484.89
603.31	31634.68
603.47	31449.78
603.62	31035.50
603.78	31519.99
603.94	31112.74
604.09	31360.84
604.25	31318.71
604.40	31030.82
604.56	31470.84
604.71	31356.16
604.87	31466.16
605.03	31040.18
605.18	31344.45
605.34	31487.23
605.49	30946.56
605.65	31491.91
605.80	31047.21
605.96	31225.09
606.12	30876.35
606.27	31365.52
606.43	30925.50
606.58	31494.25
606.74	31311.69
606.89	31087.00
607.05	31337.43
607.20	31379.56
607.36	31740.00
607.51	31646.38
607.67	31154.87
607.82	31185.30
607.98	31159.55
608.13	30848.26
608.29	31143.17
608.44	31269.56
608.60	31222.75
608.75	31248.49
608.91	31117.42
609.06	31213.38
609.22	31108.06
609.37	30962.95
609.53	31035.50
609.68	30923.16
609.84	30824.86
609.99	31110.40
610.15	30829.54
610.30	30735.92
610.46	30888.05
610.61	31101.04
610.76	31241.47
610.92	31140.83
611.07	31145.51
611.23	30885.71
611.38	30855.28
611.54	31161.89
611.69	30911.46
611.84	30656.34
612.00	30621.23
612.15	31040.18
612.31	30810.81
612.46	30904.43
612.62	31449.78
612.77	30871.67
612.92	31103.38
613.08	31768.09
613.23	30487.82
613.39	30649.32
613.54	30675.06
613.69	30986.35
613.85	30274.83
614.00	31112.74
614.15	30749.96
614.31	30726.55
614.46	31117.42
614.62	30820.17
614.77	30775.70
614.92	30984.01
615.08	31014.44
615.23	30841.24
615.38	31129.12
615.54	30595.48
615.69	30712.51
615.84	30487.82
616.00	30600.16
616.15	30508.88
616.30	30845.92
616.46	30562.72
616.61	30684.42
616.76	30579.10
616.92	30436.33
617.07	30398.88
617.22	30443.35
617.37	30686.76
617.53	30857.62
617.68	30426.96
617.83	30132.06
617.99	30206.95
618.14	30150.78
618.29	30391.86
618.45	30515.90
618.60	30625.91
618.75	30562.72
618.90	30651.66
619.06	30574.42
619.21	30167.16
619.36	30314.62
619.51	30155.46
619.67	30237.38
619.82	30000.99
619.97	30370.79
620.12	29912.05
620.28	29811.40
620.43	30143.76
620.58	30319.30
620.73	30361.43
620.89	30349.73
621.04	30375.47
621.19	30347.39
621.34	29991.62
621.49	30031.41
621.65	29926.09
621.80	30071.20
621.95	29912.05
622.10	30309.94
622.25	29621.82
622.41	30096.95
622.56	29984.60
622.71	30141.42
622.86	29928.43
623.01	30536.97
623.16	29465.00
623.32	29947.15
623.47	29879.28
623.62	29820.77
623.77	29493.09
623.92	29947.15
624.07	29846.51
624.23	29963.54
624.38	29823.11
624.53	29965.88
624.68	30092.27
624.83	30059.50
624.98	29825.45
625.13	29450.96
625.29	29666.29
625.44	29874.60
625.59	29017.96
625.74	29502.45
625.89	29626.50
626.04	29373.72
626.19	29376.06
626.34	29713.10
626.49	29390.11
626.65	29682.67
626.80	29596.07
626.95	29647.57
627.10	29642.88
627.25	29593.73
627.40	29277.76
627.55	29315.21
627.70	29219.25
627.85	28985.19
628.00	29312.87
628.15	29308.19
628.30	29268.40
628.45	29294.14
628.60	29142.01
628.76	29369.04
628.91	29455.64
629.06	29287.12
629.21	29216.91
629.36	29390.11
629.51	29329.25
629.66	28952.43
629.81	29020.30
629.96	28816.68
630.11	28882.21
630.26	28987.53
630.41	28781.57
630.56	29139.67
630.71	28912.64
630.86	28973.49
631.01	28905.62
631.16	28994.56
631.31	29046.05
631.46	28526.45
631.61	29273.08
631.76	29156.05
631.91	28741.78
632.06	28271.33
632.21	28591.98
632.36	28416.44
632.51	28634.11
632.66	28730.08
632.81	28819.02
632.96	28687.95
633.10	28931.36
633.25	28900.94
633.40	28720.71
633.55	28692.63
633.70	28643.48
633.85	28416.44
634.00	28467.94
634.15	28437.51
634.30	28503.04
634.45	28709.01
634.60	28779.23
634.75	28332.18
634.90	28386.02
635.05	28545.17
635.19	28790.93
635.34	28898.59
635.49	28369.63
635.64	28395.38
635.79	28402.40
635.94	28685.61
636.09	28673.90
636.24	28383.68
636.39	28091.11
636.53	28187.07
636.68	27915.57
636.83	28594.32
636.98	28173.03
637.13	28173.03
637.28	28051.32
637.43	28606.03
637.57	28259.63
637.72	28432.83
637.87	27910.89
638.02	28070.04
638.17	28552.20
638.32	28121.54
638.46	28046.64
638.61	27747.05
638.76	27608.96
638.91	27723.65
639.06	27838.33
639.20	28158.99
639.35	28233.88
639.50	27931.95
639.65	28151.96
639.80	28238.56
639.94	28154.30
640.09	28051.32
640.24	27672.15
640.39	27660.45
640.54	27637.05
640.68	27604.28
640.83	27995.15
640.98	27913.23
641.13	27545.76
641.27	27604.28
641.42	27489.59
641.57	27850.03
641.72	27555.13
641.86	27461.51
642.01	27407.67
642.16	27665.13
642.31	27325.75
642.45	27346.82
642.60	27447.46
642.75	27154.90
642.90	27311.71
643.04	27351.50
643.19	27508.32
643.34	27513.00
643.48	27505.98
643.63	27529.38
643.78	27569.17
643.93	27344.48
644.07	27491.93
644.22	27662.79
644.37	27428.74
644.51	27435.76
644.66	27182.98
644.81	27295.33
644.95	27190.00
645.10	27466.19
645.25	27182.98
645.39	26979.36
645.54	27335.12
645.69	27452.14
645.83	27229.79
645.98	27136.17
646.13	27402.99
646.27	27407.67
646.42	27131.49
646.57	27290.65
646.71	27241.50
646.86	26953.61
647.00	27002.76
647.15	26972.33
647.30	27030.85
647.44	27035.53
647.59	26721.90
647.74	26895.10
647.88	27040.21
648.03	27005.10
648.17	27009.78
648.32	27035.53
648.47	27199.37
648.61	27138.51
648.76	26927.86
648.90	27082.34
649.05	26834.24
649.20	26728.92
649.34	26815.52
649.49	26553.38
649.63	26890.41
649.78	26726.58
649.92	26717.22
650.07	26869.35
650.21	26675.09
650.36	26888.07
650.51	26773.39
650.65	26602.53
650.80	26728.92
650.94	26841.26
651.09	26377.84
651.23	26307.62
651.38	26810.84
651.52	26558.06
651.67	26885.73
651.81	26785.09
651.96	26356.77
652.10	26471.46
652.25	26529.97
652.39	26410.60
652.54	26361.45
652.68	26361.45
652.83	26637.64
652.97	26586.15
653.12	26726.58
653.26	26340.39
653.41	26628.27
653.55	26895.10
653.70	26536.99
653.84	26003.35
653.99	26246.77
654.13	26312.30
654.27	26192.94
654.42	26345.07
654.56	26450.39
654.71	26394.22
654.85	26272.51
655.00	26506.57
655.14	26253.79
655.29	26267.83
655.43	26185.91
655.57	26249.11
655.72	26019.74
655.86	26122.72
656.01	26050.16
656.15	25961.22
656.30	25982.29
656.44	25802.07
656.58	26003.35
656.73	25979.95
656.87	26061.87
657.01	25568.01
657.16	25853.56
657.30	26221.02
657.45	26120.38
657.59	26286.56
657.73	25762.28
657.88	25921.43
658.02	25357.36
658.16	25748.23
658.31	25722.49
658.45	25687.38
658.60	25296.51
658.74	25610.14
658.88	25490.77
659.03	25476.73
659.17	25418.22
659.31	25603.12
659.46	25825.47
659.60	25893.35
659.74	25558.65
659.89	25259.06
660.03	25654.61
660.17	25701.42
660.32	25350.34
660.46	25289.49
660.60	25027.35
660.74	25329.28
660.89	25193.53
661.03	25214.59
661.17	24922.02
661.32	25259.06
661.46	25088.20
661.60	25270.76
661.74	24943.09
661.89	25209.91
662.03	24954.79
662.17	25006.28
662.31	24816.70
662.46	25387.79
662.60	24996.92
662.74	25083.52
662.88	24823.72
663.03	24704.35
663.17	25067.14
663.31	24505.41
663.45	24786.27
663.60	24594.35
663.74	24512.43
663.88	24709.04
664.02	24514.77
664.17	24875.21
664.31	24802.66
664.45	24421.15
664.59	24332.21
664.73	24669.25
664.88	24278.38
665.02	24175.39
665.16	24259.65
665.30	24463.28
665.44	24095.82
665.59	24451.58
665.73	24273.70
665.87	24011.56
666.01	24121.56
666.15	24027.94
666.29	24140.29
666.44	24446.90
666.58	24257.31
666.72	24215.18
666.86	24086.45
667.00	24498.39
667.14	23948.36
667.28	23669.84
667.43	23847.72
667.57	23805.59
667.71	23573.88
667.85	23424.08
667.99	23475.57
668.13	23225.14
668.27	23470.89
668.41	23616.01
668.56	23576.22
668.70	23651.11
668.84	23840.70
668.98	23185.35
669.12	23655.79
669.26	23573.88
669.40	23246.20
669.54	23367.91
669.68	23555.15
669.82	22876.40
669.96	23246.20
670.10	22890.44
670.25	23220.45
670.39	23220.45
670.53	22899.80
670.67	22750.01
670.81	23175.98
670.95	23028.53
671.09	23161.94
671.23	23124.49
671.37	23192.37
671.51	23030.87
671.65	22906.82
671.79	22691.49
671.93	22338.07
672.07	22920.87
672.21	22555.74
672.35	22504.25
672.49	22410.63
672.63	22251.47
672.77	22223.39
672.91	22263.18
673.05	22230.41
673.19	22375.52
673.33	22319.35
673.47	22457.44
673.61	22579.15
673.75	22199.98
673.89	22059.55
674.03	22104.02
674.17	21898.05
674.31	21958.91
674.45	22015.08
674.59	22148.49
674.73	21916.78
674.87	21879.33
675.01	21741.24
675.15	21722.51
675.29	21535.27
675.43	21460.37
675.56	21734.21
675.70	21514.20
675.84	21664.00
675.98	21053.12
676.12	21687.40
676.26	21296.53
676.40	21242.70
676.54	21394.84
676.68	21289.51
676.82	21207.59
676.96	21135.04
677.10	21013.33
677.23	21069.50
677.37	20713.74
677.51	20592.03
677.65	20886.94
677.79	20451.60
677.93	20634.16
678.07	20690.34
678.21	20130.95
678.34	20404.79
678.48	20329.89
678.62	20226.91
678.76	20051.37
678.90	20255.00
679.04	20072.43
679.18	19934.34
679.31	20128.61
679.45	19887.53
679.59	19784.55
679.73	19875.83
679.87	19700.29
680.00	19793.91
680.14	19384.32
680.28	19461.55
680.42	19829.02
680.56	19604.33
680.70	19473.26
680.83	19646.46
680.97	19323.46
681.11	19594.96
681.25	19520.07
681.39	19019.19
681.52	19358.57
681.66	19246.23
681.80	19129.20
681.94	18913.87
682.07	19187.71
682.21	18904.51
682.35	18841.31
682.49	18817.91
682.62	18532.36
682.76	18300.65
682.90	18799.18
683.04	18600.24
683.17	18504.28
683.31	18485.55
683.45	18576.83
683.59	18375.55
683.72	18429.38
683.86	18305.33
684.00	18338.10
684.13	18281.92
684.27	18188.30
684.41	18052.55
684.55	17818.50
684.68	17832.54
684.82	17738.92
684.96	17713.17
685.09	17902.76
685.23	17886.37
685.37	17432.31
685.50	17914.46
685.64	17987.02
685.78	17495.50
685.91	17673.39
686.05	17631.26
686.19	17544.66
686.32	17336.35
686.46	17135.06
686.60	16961.86
686.73	17235.70
686.87	17123.36
687.01	16954.84
687.14	16844.84
687.28	16734.83
687.42	16739.51
687.55	16507.80
687.69	16737.17
687.82	16758.24
687.96	16767.60
688.10	16271.40
688.23	16416.52
688.37	16737.17
688.50	16266.72
688.64	16393.11
688.78	16154.38
688.91	16163.74
689.05	16126.29
689.18	15878.19
689.32	15796.28
689.46	16058.42
689.59	15925.00
689.73	16081.82
689.86	15878.19
690.00	15751.81
690.13	16027.99
690.27	15826.70
690.41	15674.57
690.54	15948.41
690.68	15452.22
690.81	15487.32
690.95	15550.52
691.08	15548.18
691.22	15227.53
691.35	15304.76
691.49	15257.95
691.62	15145.61
691.76	14974.75
691.89	15190.08
692.03	14986.45
692.16	14839.00
692.30	14621.33
692.43	14700.90
692.57	14771.12
692.70	14885.81
692.84	14417.70
692.97	14630.69
693.11	14590.90
693.24	14272.59
693.38	14492.60
693.51	14572.18
693.65	14340.46
693.78	14115.77
693.92	14326.42
694.05	14239.82
694.19	14216.41
694.32	13816.18
694.45	13916.83
694.59	13762.35
694.72	14015.13
694.86	13837.25
694.99	13490.85
695.13	13666.39
695.26	13521.27
695.39	13516.59
695.53	13708.52
695.66	13708.52
695.80	13544.68
695.93	13310.63
696.07	13657.03
696.20	13504.89
696.33	13483.83
696.47	13460.42
696.60	13097.64
696.73	13114.02
696.87	13121.04
697.00	13130.41
697.14	12917.42
697.27	12631.87
697.40	12915.08
697.54	12706.77
697.67	12664.64
697.80	12521.87
697.94	12528.89
698.07	12468.03
698.21	12404.84
698.34	12479.74
698.47	12723.15
698.61	12283.13
698.74	12404.84
698.87	12472.71
699.01	12222.28
699.14	12231.64
699.27	12269.09
699.40	12329.94
699.54	12121.63
699.67	12152.06
699.80	12070.14
699.94	12006.95
700.07	11871.20
700.20	11473.31
700.34	11573.95
700.47	11611.40
700.60	11566.93
700.73	11520.12
700.87	11639.48
701.00	11597.35
701.13	11241.59
701.26	11503.73
701.40	11592.67
701.53	11356.28
701.66	11592.67
701.79	11047.33
701.93	11281.38
702.06	11227.55
702.19	11115.20
702.32	10927.96
702.46	10925.62
702.59	10927.96
702.72	10637.73
702.85	10878.81
702.99	10731.36
703.12	10729.02
703.25	10525.39
703.38	10513.69
703.51	10705.61
703.65	10794.55
703.78	10415.38
703.91	10604.97
704.04	10654.12
704.17	10462.19
704.31	10298.36
704.44	10207.08
704.57	10417.72
704.70	10232.82
704.83	10071.33
704.96	10101.75
705.10	10090.05
705.23	9865.36
>>>>>End Processed Spectral Data<<<<<
