SpectraSuite Data File
++++++++++++++++++++++++++++++++++++
Date: Fri Oct 18 13:58:30 GMT-05:00 2013
User: bianchi
Dark Spectrum Present: No
Reference Spectrum Present: No
Number of Sampled Component Spectra: 1
Spectrometers: USB2+H05261
Integration Time (usec): 50000 (USB2+H05261)
Spectra Averaged: 1 (USB2+H05261)
Boxcar Smoothing: 0 (USB2+H05261)
Correct for Electrical Dark: No (USB2+H05261)
Strobe/Lamp Enabled: No (USB2+H05261)
Correct for Detector Non-linearity: No (USB2+H05261)
Correct for Stray Light: No (USB2+H05261)
Number of Pixels in Processed Spectrum: 2048
>>>>>Begin Processed Spectral Data<<<<<
365.73	0.00
365.92	0.00
366.12	0.00
366.32	0.00
366.52	0.00
366.72	0.00
366.91	0.00
367.11	0.00
367.31	0.00
367.51	0.00
367.70	0.00
367.90	0.00
368.10	0.00
368.30	0.00
368.49	0.00
368.69	0.00
368.89	0.00
369.09	0.00
369.28	0.00
369.48	0.00
369.68	0.00
369.87	0.00
370.07	0.00
370.27	16.38
370.47	0.00
370.66	60.85
370.86	107.66
371.06	126.39
371.25	156.82
371.45	70.22
371.65	175.54
371.84	187.24
372.04	135.75
372.24	163.84
372.44	159.16
372.63	203.63
372.83	184.90
373.03	154.48
373.22	220.01
373.42	198.95
373.62	201.29
373.81	189.58
374.01	189.58
374.21	191.92
374.40	201.29
374.60	278.52
374.79	161.50
374.99	222.35
375.19	208.31
375.38	306.61
375.58	114.69
375.78	208.31
375.97	264.48
376.17	313.63
376.37	212.99
376.56	266.82
376.76	301.93
376.95	297.25
377.15	304.27
377.35	283.20
377.54	229.37
377.74	224.69
377.93	198.95
378.13	252.78
378.33	344.06
378.52	257.46
378.72	262.14
378.91	243.42
379.11	271.50
379.31	355.76
379.50	262.14
379.70	337.04
379.89	388.53
380.09	280.86
380.28	320.65
380.48	278.52
380.68	327.68
380.87	341.72
381.07	332.36
381.26	271.50
381.46	306.61
381.65	346.40
381.85	283.20
382.04	273.84
382.24	341.72
382.43	273.84
382.63	271.50
382.83	313.63
383.02	325.33
383.22	346.40
383.41	334.70
383.61	407.25
383.80	362.78
384.00	369.80
384.19	348.74
384.39	341.72
384.58	374.49
384.78	400.23
384.97	372.15
385.17	381.51
385.36	318.31
385.56	330.02
385.75	339.38
385.95	411.93
386.14	402.57
386.34	376.83
386.53	339.38
386.72	379.17
386.92	510.24
387.11	425.98
387.31	430.66
387.50	454.06
387.70	397.89
387.89	425.98
388.09	416.62
388.28	416.62
388.48	397.89
388.67	421.30
388.86	435.34
389.06	498.53
389.25	482.15
389.45	449.38
389.64	397.89
389.84	379.17
390.03	468.11
390.22	451.72
390.42	486.83
390.61	428.32
390.81	498.53
391.00	524.28
391.19	496.19
391.39	486.83
391.58	491.51
391.78	489.17
391.97	437.68
392.16	484.49
392.36	554.71
392.55	540.66
392.75	573.43
392.94	517.26
393.13	580.45
393.33	526.62
393.52	465.77
393.71	543.00
393.91	582.79
394.10	638.97
394.29	540.66
394.49	571.09
394.68	564.07
394.88	561.73
395.07	498.53
395.26	662.37
395.46	524.28
395.65	594.50
395.84	643.65
396.04	624.92
396.23	713.86
396.42	730.25
396.62	653.01
396.81	582.79
397.00	634.29
397.19	664.71
397.39	610.88
397.58	636.63
397.77	683.44
397.97	667.05
398.16	681.10
398.35	727.91
398.55	641.31
398.74	683.44
398.93	706.84
399.12	690.46
399.32	662.37
399.51	613.22
399.70	748.97
399.90	732.59
400.09	826.21
400.28	706.84
400.47	812.17
400.67	739.61
400.86	695.14
401.05	741.95
401.24	709.18
401.44	770.04
401.63	767.70
401.82	713.86
402.01	760.67
402.21	844.93
402.40	765.36
402.59	770.04
402.78	802.80
402.97	809.83
403.17	758.33
403.36	746.63
403.55	896.43
403.74	777.06
403.93	884.72
404.13	908.13
404.32	905.79
404.51	940.90
404.70	877.70
404.89	889.40
405.09	882.38
405.28	868.34
405.47	894.08
405.66	917.49
405.85	1027.50
406.05	936.21
406.24	912.81
406.43	1015.79
406.62	938.55
406.81	1060.26
407.00	1011.11
407.20	922.17
407.39	973.66
407.58	1046.22
407.77	1036.86
407.96	945.58
408.15	1022.81
408.34	1011.11
408.54	1071.97
408.73	1018.13
408.92	1102.39
409.11	1128.14
409.30	1104.73
409.49	1165.59
409.68	1093.03
409.87	1177.29
410.07	1109.41
410.26	1142.18
410.45	1158.57
410.64	1128.14
410.83	1193.67
411.02	1235.80
411.21	1217.08
411.40	1240.48
411.59	1221.76
411.78	1235.80
411.98	1263.89
412.17	1306.02
412.36	1203.04
412.55	1306.02
412.74	1383.26
412.93	1324.74
413.12	1259.21
413.31	1406.66
413.50	1345.81
413.69	1357.51
413.88	1371.55
414.07	1364.53
414.26	1322.40
414.45	1371.55
414.64	1364.53
414.83	1465.18
415.02	1469.86
415.22	1497.94
415.41	1575.18
415.60	1469.86
415.79	1458.15
415.98	1544.75
416.17	1561.14
416.36	1661.78
416.55	1488.58
416.74	1561.14
416.93	1577.52
417.12	1650.08
417.31	1650.08
417.50	1657.10
417.69	1757.74
417.88	1692.21
418.07	1769.44
418.26	1795.19
418.45	1724.97
418.64	1746.04
418.83	1696.89
419.02	1701.57
419.21	1757.74
419.39	1820.94
419.58	1797.53
419.77	1750.72
419.96	1902.86
420.15	1849.02
420.34	1849.02
420.53	1867.75
420.72	1881.79
420.91	1806.89
421.10	1895.83
421.29	1980.09
421.48	1900.52
421.67	1956.69
421.86	1895.83
422.05	1989.46
422.24	1891.15
422.43	1949.67
422.61	1914.56
422.80	2019.88
422.99	1921.58
423.18	1944.99
423.37	1944.99
423.56	2017.54
423.75	1898.17
423.94	1893.49
424.13	1785.83
424.32	1970.73
424.50	1916.90
424.69	2005.84
424.88	2113.50
425.07	2005.84
425.26	1944.99
425.45	1998.82
425.64	1947.33
425.83	2036.27
426.01	2094.78
426.20	2076.06
426.39	2078.40
426.58	2026.90
426.77	2026.90
426.96	2080.74
427.15	1949.67
427.33	2057.33
427.52	2092.44
427.71	1989.46
427.90	2087.76
428.09	2064.35
428.28	2176.70
428.46	2204.78
428.65	2132.23
428.84	2258.62
429.03	2195.42
429.22	2157.97
429.40	2188.40
429.59	2214.15
429.78	2214.15
429.97	2094.78
430.16	2059.67
430.34	2319.47
430.53	2345.22
430.72	2279.68
430.91	2260.96
431.10	2286.70
431.28	2303.09
431.47	2354.58
431.66	2469.27
431.85	2326.49
432.03	2434.16
432.22	2420.11
432.41	2392.03
432.60	2345.22
432.79	2469.27
432.97	2431.82
433.16	2513.74
433.35	2347.56
433.54	2387.35
433.72	2532.46
433.91	2483.31
434.10	2490.33
434.28	2455.22
434.47	2427.14
434.66	2562.89
434.85	2532.46
435.03	2534.80
435.22	2495.01
435.41	2658.85
435.59	2651.83
435.78	2565.23
435.97	2616.72
436.16	2609.70
436.34	2630.76
436.53	2616.72
436.72	2691.62
436.90	2614.38
437.09	2825.03
437.28	2600.34
437.46	2672.89
437.65	2576.93
437.84	2752.47
438.02	2799.28
438.21	2754.81
438.40	2588.63
438.58	2801.62
438.77	2846.09
438.96	2857.79
439.14	2895.24
439.33	2857.79
439.52	2916.31
439.70	2974.82
439.89	2935.03
440.08	3028.65
440.26	2949.08
440.45	3047.38
440.63	3068.44
440.82	3201.85
441.01	3045.04
441.19	3094.19
441.38	3155.04
441.57	3096.53
441.75	3232.28
441.94	3136.32
442.12	3274.41
442.31	3342.28
442.50	3204.19
442.68	3208.87
442.87	3321.22
443.05	3279.09
443.24	3279.09
443.43	3309.52
443.61	3293.13
443.80	3417.18
443.98	3318.88
444.17	3349.31
444.35	3410.16
444.54	3339.94
444.73	3351.65
444.91	3314.20
445.10	3440.59
445.28	3293.13
445.47	3382.07
445.65	3393.78
445.84	3391.44
446.02	3552.93
446.21	3229.94
446.39	3379.73
446.58	3356.33
446.77	3503.78
446.95	3370.37
447.14	3424.20
447.32	3407.82
447.51	3449.95
447.69	3405.48
447.88	3431.23
448.06	3529.53
448.25	3550.59
448.43	3473.36
448.62	3555.27
448.80	3585.70
448.99	3386.76
449.17	3597.40
449.36	3485.06
449.54	3517.83
449.73	3611.45
449.91	3681.66
450.10	3698.05
450.28	3709.75
450.46	3616.13
450.65	3637.19
450.83	3796.35
451.02	3641.87
451.20	3695.71
451.39	3728.47
451.57	3742.52
451.76	3674.64
451.94	3749.54
452.13	3744.86
452.31	3829.12
452.49	3779.97
452.68	3775.28
452.86	3744.86
453.05	3826.78
453.23	3831.46
453.42	3751.88
453.60	3754.22
453.78	3815.07
453.97	3782.31
454.15	3927.42
454.34	3817.41
454.52	3843.16
454.70	3864.22
454.89	3887.63
455.07	3988.27
455.26	3946.14
455.44	4046.79
455.62	4007.00
455.81	4014.02
455.99	4007.00
456.17	4086.58
456.36	4156.79
456.54	4133.39
456.73	4147.43
456.91	4395.53
457.09	4191.90
457.28	4334.67
457.46	4159.13
457.64	4313.61
457.83	4313.61
458.01	4208.28
458.19	4418.93
458.38	4285.52
458.56	4292.54
458.74	4442.34
458.93	4407.23
459.11	4540.64
459.29	4388.50
459.48	4311.27
459.66	4393.19
459.84	4514.89
460.03	4500.85
460.21	4519.57
460.39	4503.19
460.57	4358.08
460.76	4482.13
460.94	4568.73
461.12	4477.44
461.31	4564.04
461.49	4615.54
461.67	4402.55
461.85	4592.13
462.04	4662.35
462.22	4692.77
462.40	4629.58
462.59	4622.56
462.77	4697.46
462.95	4634.26
463.13	4716.18
463.32	4826.18
463.50	4629.58
463.68	4847.25
463.86	4863.63
464.05	4627.24
464.23	4746.61
464.41	4973.64
464.59	4844.91
464.78	4994.70
464.96	4821.50
465.14	4753.63
465.32	4966.62
465.50	4910.44
465.69	4833.21
465.87	4877.68
466.05	4940.87
466.23	4807.46
466.41	5022.79
466.60	5057.90
466.78	4926.83
466.96	4910.44
467.14	4997.04
467.32	4940.87
467.51	5149.18
467.69	4802.78
467.87	5039.17
468.05	4858.95
468.23	5121.09
468.41	5043.85
468.60	5137.48
468.78	5184.29
468.96	4966.62
469.14	5245.14
469.32	5203.01
469.50	5004.07
469.69	5238.12
469.87	5467.49
470.05	5203.01
470.23	5343.44
470.41	5408.98
470.59	5540.05
470.77	5458.13
470.95	5331.74
471.14	5612.60
471.32	5399.62
471.50	5488.56
471.68	5572.82
471.86	5614.95
472.04	5500.26
472.22	5540.05
472.40	5451.11
472.58	5605.58
472.77	5607.92
472.95	5603.24
473.13	5724.95
473.31	5540.05
473.49	5757.72
473.67	5708.57
473.85	5746.02
474.03	5746.02
474.21	5914.53
474.39	5998.79
474.57	5998.79
474.75	5975.39
474.93	6083.05
475.12	5937.94
475.30	6069.01
475.48	5954.32
475.66	6012.84
475.84	6106.46
476.02	6122.84
476.20	6162.63
476.38	6134.54
476.56	6511.37
476.74	6314.77
476.92	6462.22
477.10	6420.09
477.28	6537.12
477.46	6401.37
477.64	6579.25
477.82	6705.63
478.00	6810.96
478.18	6715.00
478.36	6956.07
478.54	7096.50
478.72	6899.90
478.90	6937.35
479.08	7054.37
479.26	7049.69
479.44	7091.82
479.62	7250.98
479.80	7199.49
479.98	7131.61
480.16	7297.79
480.34	7417.16
480.52	7513.12
480.70	7435.88
480.88	7604.40
481.06	7517.80
481.24	7573.97
481.41	7735.47
481.59	7918.03
481.77	7974.21
481.95	7758.88
482.13	7784.62
482.31	7983.57
482.49	7957.82
482.67	8067.83
482.85	8231.66
483.03	8196.56
483.21	8470.40
483.39	8428.27
483.57	8383.80
483.74	8367.42
483.92	8564.02
484.10	8634.24
484.28	8807.44
484.46	8816.80
484.64	9006.38
484.82	8830.84
485.00	8917.44
485.18	9135.11
485.35	9195.96
485.53	9343.42
485.71	9149.15
485.89	9525.98
486.07	9479.17
486.25	9495.55
486.43	9378.53
486.61	9565.77
486.78	9795.14
486.96	9645.35
487.14	9753.01
487.32	9856.00
487.50	10040.90
487.68	10178.99
487.85	10101.75
488.03	10300.70
488.21	10553.48
488.39	10333.47
488.57	10487.94
488.75	10448.15
488.92	10822.64
489.10	10668.16
489.28	10654.12
489.46	10890.51
489.64	10869.45
489.81	11005.20
489.99	10988.82
490.17	11101.16
490.35	11166.70
490.53	11171.38
490.70	11417.13
490.88	11314.15
491.06	11531.82
491.24	11513.10
491.41	11728.42
491.59	11756.51
491.77	11758.85
491.95	11707.36
492.13	12046.74
492.30	12060.78
492.48	11889.92
492.66	12067.80
492.84	11974.18
493.01	12280.79
493.19	12304.20
493.37	12585.06
493.54	12437.61
493.72	12650.60
493.90	12664.64
494.08	12704.43
494.25	12709.11
494.43	12975.93
494.61	13088.28
494.79	13146.79
494.96	13041.46
495.14	13139.77
495.32	13153.81
495.49	13312.97
495.67	13352.76
495.85	13558.72
496.02	13727.24
496.20	13696.82
496.38	13481.49
496.55	13547.02
496.73	13774.05
496.91	14019.81
497.09	14132.15
497.26	13811.50
497.44	14146.20
497.62	14075.98
497.79	14242.16
497.97	14132.15
498.14	14256.20
498.32	14630.69
498.50	14654.09
498.67	14792.19
498.85	14696.22
499.03	14693.88
499.20	14810.91
499.38	14668.14
499.56	15068.37
499.73	14752.40
499.91	14974.75
500.08	15311.78
500.26	14941.98
500.44	15068.37
500.61	15199.44
500.79	14998.15
500.97	15115.18
501.14	15716.70
501.32	15384.34
501.49	15407.75
501.67	15393.70
501.84	15777.55
502.02	15646.48
502.20	15747.12
502.37	15630.10
502.55	15850.11
502.72	15941.39
502.90	15803.30
503.07	16231.62
503.25	15910.96
503.43	16142.67
503.60	15953.09
503.78	16248.00
503.95	16137.99
504.13	16248.00
504.30	16432.90
504.48	16442.26
504.65	16388.43
504.83	16432.90
505.01	16795.68
505.18	16713.77
505.36	16898.67
505.53	16631.85
505.71	16842.50
505.88	17277.83
506.06	16779.30
506.23	16940.80
506.41	17252.09
506.58	16865.90
506.76	17078.89
506.93	17003.99
507.11	17071.87
507.28	17165.49
507.46	17172.51
507.63	17537.63
507.81	17317.62
507.98	17338.69
508.16	17563.38
508.33	17748.28
508.50	17451.03
508.68	17469.76
508.85	17568.06
509.03	17804.46
509.20	17783.39
509.38	17902.76
509.55	18064.25
509.73	18059.57
509.90	18143.83
510.08	17877.01
510.25	18204.69
510.42	18157.88
510.60	18410.65
510.77	18317.03
510.95	18427.04
511.12	18310.01
511.30	18415.34
511.47	18288.95
511.64	18588.53
511.82	18572.15
511.99	18569.81
512.17	18848.33
512.34	18743.01
512.51	18640.03
512.69	18831.95
512.86	18717.26
513.04	18665.77
513.21	19150.26
513.38	19117.50
513.56	19110.47
513.73	18970.04
513.90	19243.88
514.08	18991.11
514.25	19370.27
514.43	19278.99
514.60	19494.32
514.77	19559.86
514.95	19665.18
515.12	19466.24
515.29	19363.25
515.47	19503.68
515.64	19793.91
515.81	19983.49
515.99	19665.18
516.16	19817.32
516.33	19836.04
516.51	20297.13
516.68	19866.47
516.85	19751.78
517.03	20173.08
517.20	20198.82
517.37	20081.80
517.54	20245.63
517.72	20381.38
517.89	20126.27
518.06	20161.37
518.24	20470.33
518.41	20266.70
518.58	20542.88
518.75	20329.89
518.93	20580.33
519.10	20491.39
519.27	20755.87
519.45	20313.51
519.62	20987.58
519.79	20725.44
519.96	20765.23
520.14	20512.46
520.31	21020.35
520.48	21010.99
520.65	20659.91
520.83	20915.03
521.00	21174.83
521.17	21006.31
521.34	20900.98
521.52	21125.68
521.69	21387.82
521.86	21223.98
522.03	21319.94
522.20	21579.74
522.38	21324.62
522.55	21156.10
522.72	21364.41
522.89	21446.33
523.07	21968.27
523.24	21462.71
523.41	21603.14
523.58	21610.17
523.75	21659.32
523.92	21298.88
524.10	21774.00
524.27	22167.21
524.44	21781.03
524.61	21832.52
524.78	22043.17
524.96	21928.48
525.13	22148.49
525.30	22361.48
525.47	22132.11
525.64	22019.76
525.81	22115.72
525.98	22539.36
526.16	22356.80
526.33	22441.06
526.50	22459.78
526.67	22022.10
526.84	22565.10
527.01	22492.55
527.18	22431.69
527.36	22799.16
527.53	22455.10
527.70	23023.85
527.87	23016.83
528.04	22527.66
528.21	22682.13
528.38	22614.26
528.55	22618.94
528.72	22799.16
528.89	23042.57
529.07	22757.03
529.24	23070.66
529.41	23065.98
529.58	22864.69
529.75	23042.57
529.92	23021.51
530.09	23157.26
530.26	23330.46
530.43	23082.36
530.60	23410.04
530.77	22916.19
530.94	23381.95
531.11	22923.21
531.28	23426.42
531.46	23183.01
531.63	23456.85
531.80	23349.18
531.97	23356.21
532.14	23735.37
532.31	23559.83
532.48	23461.53
532.65	23585.58
532.82	23693.24
532.99	23559.83
533.16	23468.55
533.33	23817.29
533.50	24027.94
533.67	24135.60
533.84	23599.62
534.01	23538.77
534.18	23630.05
534.35	23733.03
534.52	23768.14
534.69	24168.37
534.86	24102.84
535.03	24116.88
535.20	23847.72
535.37	24329.87
535.54	24226.89
535.71	24421.15
535.88	24187.10
536.05	24238.59
536.22	24051.34
536.38	24334.55
536.55	24444.56
536.72	24121.56
536.89	23981.13
537.06	24458.60
537.23	24381.36
537.40	24304.12
537.57	24486.68
537.74	24386.04
537.91	24971.18
538.08	24807.34
538.25	24503.07
538.42	24980.54
538.59	24940.75
538.75	25017.99
538.92	24783.93
539.09	24938.41
539.26	25137.35
539.43	24797.98
539.60	25146.72
539.77	24929.05
539.94	25310.55
540.11	24872.87
540.28	25125.65
540.44	25048.41
540.61	25111.61
540.78	25191.19
540.95	25111.61
541.12	25125.65
541.29	25113.95
541.46	25275.45
541.62	25490.77
541.79	25401.83
541.96	24975.86
542.13	25242.68
542.30	25259.06
542.47	25425.24
542.63	25497.80
542.80	25804.41
542.97	25809.09
543.14	25558.65
543.31	25544.61
543.48	25834.83
543.64	26043.14
543.81	25876.96
543.98	26221.02
544.15	25855.90
544.32	26419.97
544.48	25942.50
544.65	25818.45
544.82	25907.39
544.99	25713.13
545.16	25614.82
545.32	26127.40
545.49	26326.35
545.66	26171.87
545.83	26476.14
546.00	26312.30
546.16	26326.35
546.33	26120.38
546.50	25942.50
546.67	26125.06
546.83	25912.07
547.00	26534.65
547.17	26478.48
547.34	26426.99
547.50	26757.00
547.67	26759.34
547.84	26632.96
548.00	26618.91
548.17	26504.23
548.34	26520.61
548.51	26941.91
548.67	26714.87
548.84	26745.30
549.01	26438.69
549.18	26639.98
549.34	26384.86
549.51	26817.86
549.68	26698.49
549.84	26576.78
550.01	26527.63
550.18	26525.29
550.34	26946.59
550.51	27311.71
550.68	27087.02
550.84	26939.57
551.01	26953.61
551.18	26661.04
551.34	26799.13
551.51	27147.87
551.68	27096.38
551.84	27154.90
552.01	26981.70
552.18	27241.50
552.34	26977.01
552.51	27131.49
552.68	27686.20
552.84	27304.69
553.01	27281.28
553.18	27211.07
553.34	27246.18
553.51	27494.27
553.67	27234.47
553.84	27615.98
554.01	27496.61
554.17	27669.81
554.34	27337.46
554.51	27285.97
554.67	27463.85
554.84	27529.38
555.00	27543.42
555.17	27199.37
555.33	27424.06
555.50	27573.85
555.67	27496.61
555.83	27353.84
556.00	27592.58
556.16	27524.70
556.33	27417.04
556.50	27527.04
556.66	27772.80
556.83	27791.52
556.99	28046.64
557.16	28135.58
557.32	28100.47
557.49	27917.91
557.65	27587.89
557.82	28058.34
557.98	27765.78
558.15	27625.34
558.32	28039.62
558.48	27440.44
558.65	28147.28
558.81	27838.33
558.98	28203.46
559.14	28161.33
559.31	27871.10
559.47	28013.87
559.64	28119.20
559.80	28325.16
559.97	28231.54
560.13	28060.68
560.30	28343.89
560.46	28210.48
560.63	28254.95
560.79	28074.73
560.96	28210.48
561.12	28072.39
561.29	28383.68
561.45	28081.75
561.61	28390.70
561.78	28126.22
561.94	28332.18
562.11	28437.51
562.27	28219.84
562.44	28067.70
562.60	28039.62
562.77	28257.29
562.93	28329.84
563.10	28203.46
563.26	28479.64
563.42	28701.99
563.59	28491.34
563.75	28599.01
563.92	28479.64
564.08	28294.74
564.24	28479.64
564.41	28250.27
564.57	28189.41
564.74	28503.04
564.90	28961.79
565.07	28446.87
565.23	28723.05
565.39	28563.90
565.56	28797.95
565.72	28687.95
565.88	28648.16
566.05	28662.20
566.21	28341.55
566.38	28407.08
566.54	28355.59
566.70	28781.57
566.87	28673.90
567.03	28510.07
567.19	28999.24
567.36	28657.52
567.52	28758.16
567.68	29024.98
567.85	28456.23
568.01	28601.35
568.17	28425.81
568.34	29050.73
568.50	28699.65
568.66	28900.94
568.83	28922.00
568.99	28917.32
569.15	28584.96
569.32	28645.82
569.48	28400.06
569.64	28854.12
569.81	28861.15
569.97	28844.76
570.13	29008.60
570.30	28680.92
570.46	29003.92
570.62	28748.80
570.78	28734.76
570.95	28304.10
571.11	28959.45
571.27	28577.94
571.43	29064.77
571.60	28624.75
571.76	28996.90
571.92	29020.30
572.09	29076.48
572.25	29064.77
572.41	29071.79
572.57	29055.41
572.74	28989.88
572.90	28912.64
573.06	28713.69
573.22	28683.27
573.38	28971.15
573.55	29032.00
573.71	29120.95
573.87	29090.52
574.03	29069.45
574.20	29216.91
574.36	28924.34
574.52	28772.21
574.68	28919.66
574.84	28776.89
575.01	28989.88
575.17	28786.25
575.33	28821.36
575.49	29130.31
575.65	29069.45
575.82	29326.91
575.98	29036.69
576.14	29394.79
576.30	29146.69
576.46	29043.71
576.62	28945.41
576.79	29020.30
576.95	29067.11
577.11	29071.79
577.27	29097.54
577.43	29434.58
577.59	29174.78
577.75	29137.33
577.92	28734.76
578.08	29053.07
578.24	28987.53
578.40	29233.29
578.56	29263.72
578.72	29685.01
578.88	29362.02
579.04	29383.09
579.21	29032.00
579.37	29235.63
579.53	29284.78
579.69	29221.59
579.85	28914.98
580.01	28882.21
580.17	28886.89
580.33	29549.26
580.49	29242.65
580.65	29242.65
580.82	29071.79
580.98	29493.09
581.14	29111.58
581.30	29525.86
581.46	29216.91
581.62	29057.75
581.78	29013.28
581.94	29160.73
582.10	29127.97
582.26	28957.11
582.42	29493.09
582.58	29415.85
582.74	29362.02
582.90	29207.55
583.06	29207.55
583.22	29235.63
583.38	29001.58
583.54	28959.45
583.70	29139.67
583.86	29223.93
584.02	29041.37
584.18	29565.65
584.34	29340.96
584.50	29170.10
584.66	29205.20
584.82	29127.97
584.98	29364.36
585.14	29074.13
585.30	28811.99
585.46	29418.19
585.62	29373.72
585.78	29624.16
585.94	29113.92
586.10	28884.55
586.26	29284.78
586.42	29591.39
586.58	29244.99
586.74	29488.41
586.90	29064.77
587.06	28760.50
587.22	28994.56
587.38	29179.46
587.54	29551.60
587.70	29394.79
587.86	29008.60
588.02	29612.46
588.18	29338.62
588.34	29369.04
588.49	29277.76
588.65	29240.31
588.81	29312.87
588.97	29935.45
589.13	29317.55
589.29	29509.47
589.45	29640.54
589.61	29647.57
589.77	29523.52
589.93	29516.50
590.08	29720.12
590.24	29369.04
590.40	29977.58
590.56	29860.55
590.72	29399.47
590.88	29497.77
591.04	29429.90
591.20	29610.12
591.35	29867.58
591.51	29979.92
591.67	30026.73
591.83	29603.10
591.99	29699.06
592.15	30218.66
592.31	29881.62
592.46	29479.05
592.62	29436.92
592.78	29418.19
592.94	29848.85
593.10	29785.66
593.26	29481.39
593.41	29680.33
593.57	29593.73
593.73	29638.20
593.89	30005.67
594.05	29537.56
594.20	29539.90
594.36	29888.64
594.52	29399.47
594.68	29563.31
594.84	29179.46
594.99	29872.26
595.15	29902.68
595.31	30122.69
595.47	30022.05
595.62	29577.35
595.78	29783.32
595.94	29383.09
596.10	29675.65
596.25	29745.87
596.41	29443.94
596.57	29378.40
596.73	29745.87
596.88	29853.53
597.04	29457.98
597.20	29879.28
597.36	30047.80
597.51	29886.30
597.67	29717.78
597.83	29809.06
597.99	29893.32
598.14	29603.10
598.30	29797.36
598.46	30008.01
598.61	29439.26
598.77	30068.86
598.93	29558.63
599.09	30026.73
599.24	30326.32
599.40	29823.11
599.56	30094.61
599.71	29876.94
599.87	29909.71
600.03	29869.92
600.18	29673.31
600.34	29699.06
600.50	29816.08
600.65	29628.84
600.81	30033.75
600.97	29986.94
601.12	30174.19
601.28	29900.34
601.44	29869.92
601.59	30108.65
601.75	29589.05
601.91	29785.66
602.06	29645.23
602.22	29640.54
602.37	29865.24
602.53	29640.54
602.69	30436.33
602.84	29832.47
603.00	30071.20
603.16	29752.89
603.31	30054.82
603.47	30045.46
603.62	30038.44
603.78	29696.72
603.94	29717.78
604.09	29804.38
604.25	29584.37
604.40	29963.54
604.56	29701.40
604.71	30272.49
604.87	29883.96
605.03	29722.46
605.18	29511.81
605.34	29612.46
605.49	29584.37
605.65	29834.81
605.80	29350.32
605.96	29635.86
606.12	29738.85
606.27	29998.65
606.43	29481.39
606.58	29837.15
606.74	29497.77
606.89	30047.80
607.05	29935.45
607.20	29706.08
607.36	29764.59
607.51	29647.57
607.67	29392.45
607.82	29720.12
607.98	29696.72
608.13	29577.35
608.29	29514.16
608.44	29649.91
608.60	30015.03
608.75	29694.38
608.91	29816.08
609.06	29734.17
609.22	29872.26
609.37	29556.28
609.53	29598.41
609.68	29584.37
609.84	29600.76
609.99	29600.76
610.15	29387.77
610.30	29670.97
610.46	29308.19
610.61	29694.38
610.76	29373.72
610.92	29649.91
611.07	29198.18
611.23	29495.43
611.38	29652.25
611.54	29355.00
611.69	29090.52
611.84	29172.44
612.00	29226.27
612.15	29352.66
612.31	29605.44
612.46	29364.36
612.62	29333.93
612.77	29247.33
612.92	29663.95
613.08	29165.42
613.23	29118.60
613.39	29390.11
613.54	29139.67
613.69	29034.35
613.85	29022.64
614.00	29233.29
614.15	29165.42
614.31	29280.10
614.46	29345.64
614.62	29032.00
614.77	29563.31
614.92	29001.58
615.08	28954.77
615.23	29156.05
615.38	29170.10
615.54	29303.51
615.69	29223.93
615.84	29097.54
616.00	29411.17
616.15	28811.99
616.30	29099.88
616.46	28720.71
616.61	28950.09
616.76	29394.79
616.92	28994.56
617.07	29362.02
617.22	28701.99
617.37	29027.32
617.53	28844.76
617.68	29006.26
617.83	29006.26
617.99	28734.76
618.14	28739.44
618.29	28877.53
618.45	29062.43
618.60	28699.65
618.75	29010.94
618.90	28758.16
619.06	28900.94
619.21	28877.53
619.36	28713.69
619.51	28725.39
619.67	28245.58
619.82	28676.24
619.97	28882.21
620.12	28512.41
620.28	28510.07
620.43	28842.42
620.58	29055.41
620.73	28371.97
620.89	28694.97
621.04	28662.20
621.19	28872.85
621.34	28503.04
621.49	28493.68
621.65	28479.64
621.80	28687.95
621.95	28194.09
622.10	28540.49
622.25	28292.40
622.41	28496.02
622.56	28386.02
622.71	28755.82
622.86	28428.15
623.01	28481.98
623.16	28481.98
623.32	28130.90
623.47	28568.58
623.62	27915.57
623.77	28364.95
623.92	28329.84
624.07	28140.26
624.23	28208.14
624.38	28133.24
624.53	28086.43
624.68	28587.30
624.83	28210.48
624.98	28748.80
625.13	27924.93
625.29	28088.77
625.44	28423.47
625.59	28130.90
625.74	28151.96
625.89	27768.12
626.04	27901.53
626.19	28130.90
626.34	27859.40
626.49	27831.31
626.65	27845.35
626.80	27990.47
626.95	27913.23
627.10	27938.97
627.25	28088.77
627.40	27978.76
627.55	27714.28
627.70	27639.39
627.85	27709.60
628.00	27604.28
628.15	27751.73
628.30	27489.59
628.45	27695.56
628.60	27454.48
628.76	27786.84
628.91	27679.18
629.06	27669.81
629.21	27608.96
629.36	27948.34
629.51	27517.68
629.66	27737.69
629.81	27440.44
629.96	27613.64
630.11	27520.02
630.26	27737.69
630.41	27634.71
630.56	27592.58
630.71	27543.42
630.86	27714.28
631.01	27323.41
631.16	27555.13
631.31	27534.06
631.46	27475.55
631.61	27091.70
631.76	27405.33
631.91	27295.33
632.06	27173.62
632.21	27405.33
632.36	27044.89
632.51	26813.18
632.66	27187.66
632.81	27477.89
632.96	27269.58
633.10	27447.46
633.25	27384.27
633.40	27417.04
633.55	27349.16
633.70	27091.70
633.85	27190.00
634.00	26937.23
634.15	27227.45
634.30	26906.80
634.45	27112.77
634.60	26958.29
634.75	27178.30
634.90	27173.62
635.05	27510.66
635.19	26892.76
635.34	27410.01
635.49	27019.14
635.64	27180.64
635.79	26878.71
635.94	26749.98
636.09	26838.92
636.24	26644.66
636.39	26696.15
636.53	26679.77
636.68	26635.30
636.83	26946.59
636.98	27094.04
637.13	27044.89
637.28	26663.38
637.43	26867.01
637.57	26644.66
637.72	26759.34
637.87	26506.57
638.02	26618.91
638.17	26696.15
638.32	26366.13
638.46	26867.01
638.61	26225.70
638.76	26164.85
638.91	26504.23
639.06	26429.33
639.20	26485.50
639.35	26850.63
639.50	26532.31
639.65	26654.02
639.80	26647.00
639.94	26274.85
640.09	26527.63
640.24	26551.04
640.39	26412.95
640.54	25947.18
640.68	26132.08
640.83	26410.60
640.98	26148.46
641.13	26356.77
641.27	26508.91
641.42	26127.40
641.57	26199.96
641.72	26026.76
641.86	25762.28
642.01	25881.64
642.16	26244.43
642.31	26150.81
642.45	25647.59
642.60	25752.91
642.75	25883.98
642.90	26089.95
643.04	26024.42
643.19	26347.41
643.34	26242.09
643.48	25921.43
643.63	26031.44
643.78	26164.85
643.93	26174.21
644.07	26195.28
644.22	26214.00
644.37	25907.39
644.51	25727.17
644.66	26047.82
644.81	25881.64
644.95	25549.29
645.10	25568.01
645.25	25991.65
645.39	25956.54
645.54	25935.48
645.69	25722.49
645.83	26015.05
645.98	25614.82
646.13	25757.60
646.27	25876.96
646.42	26010.37
646.57	25502.48
646.71	25832.49
646.86	25862.92
647.00	25308.21
647.15	25331.62
647.30	25628.87
647.44	25291.83
647.59	25586.74
647.74	25497.80
647.88	25509.50
648.03	25500.14
648.17	25663.97
648.32	25844.20
648.47	25795.04
648.61	25366.73
648.76	25340.98
648.90	25483.75
649.05	25359.70
649.20	25348.00
649.34	25352.68
649.49	25104.59
649.63	25259.06
649.78	25256.72
649.92	25270.76
650.07	25207.57
650.21	25549.29
650.36	25095.22
650.51	25228.63
650.65	25432.26
650.80	25050.75
650.94	25226.29
651.09	24884.58
651.23	24985.22
651.38	24943.09
651.52	25015.65
651.67	25090.54
651.81	25153.74
651.96	25296.51
652.10	25046.07
652.25	24891.60
652.39	25102.25
652.54	25324.60
652.68	25207.57
652.83	25294.17
652.97	25181.82
653.12	25275.45
653.26	25076.50
653.41	24973.52
653.55	25010.96
653.70	24861.17
653.84	25036.71
653.99	24954.79
654.13	24800.32
654.27	24809.68
654.42	24971.18
654.56	24748.82
654.71	25111.61
654.85	24760.53
655.00	24847.13
655.14	24554.56
655.29	24957.13
655.43	24800.32
655.57	24702.01
655.72	24926.71
655.86	24685.63
656.01	24779.25
656.15	24589.67
656.30	24720.74
656.44	24587.33
656.58	24659.88
656.73	24528.81
656.87	24996.92
657.01	24404.77
657.16	24587.33
657.30	24596.69
657.45	24350.93
657.59	24299.44
657.73	24123.90
657.88	24559.24
658.02	24290.08
658.16	24425.83
658.31	24025.60
658.45	24299.44
658.60	23889.85
658.74	24187.10
658.88	24273.70
659.03	24149.65
659.17	24261.99
659.31	23995.17
659.46	24198.80
659.60	24521.79
659.74	24219.86
659.89	24088.79
660.03	24161.35
660.17	24196.46
660.32	23981.13
660.46	24065.39
660.60	23379.61
660.74	23735.37
660.89	23784.52
661.03	23461.53
661.17	23768.14
661.32	24030.28
661.46	23995.17
661.60	23559.83
661.74	23889.85
661.89	23997.51
662.03	23819.63
662.17	23688.56
662.31	23290.67
662.46	23391.31
662.60	23545.79
662.74	23550.47
662.88	23510.68
663.03	23028.53
663.17	23388.97
663.31	22946.61
663.45	23236.84
663.60	23283.65
663.74	23243.86
663.88	23145.56
664.02	23028.53
664.17	23484.94
664.31	23016.83
664.45	23208.75
664.59	23283.65
664.73	23058.96
664.88	22836.61
665.02	22941.93
665.16	22724.26
665.30	22782.77
665.44	22864.69
665.59	22890.44
665.73	22705.54
665.87	23122.15
666.01	22796.82
666.15	23194.71
666.29	22939.59
666.44	22895.12
666.58	22850.65
666.72	22679.79
666.86	22700.86
667.00	22855.33
667.14	22525.32
667.28	22279.56
667.43	22644.68
667.57	22766.39
667.71	22232.75
667.85	22302.96
667.99	22101.68
668.13	22143.81
668.27	22450.42
668.41	22443.40
668.56	22204.66
668.70	22380.20
668.84	22169.55
668.98	22068.91
669.12	22504.25
669.26	22522.98
669.40	22080.61
669.54	22174.24
669.68	21958.91
669.82	22321.69
669.96	21535.27
670.10	21589.10
670.25	21743.58
670.39	22033.80
670.53	21614.85
670.67	21490.80
670.81	21621.87
670.95	21804.43
671.09	21432.29
671.23	21668.68
671.37	21933.16
671.51	21703.79
671.65	21647.61
671.79	21553.99
671.93	21647.61
672.07	21572.72
672.21	21301.22
672.35	21249.72
672.49	21439.31
672.63	21181.85
672.77	20945.45
672.91	21015.67
673.05	20889.28
673.19	21191.21
673.33	21060.14
673.47	21333.98
673.61	21053.12
673.75	20985.24
673.89	21074.18
674.03	20926.73
674.17	20549.90
674.31	20898.64
674.45	20535.86
674.59	20659.91
674.73	20690.34
674.87	20540.54
675.01	20467.98
675.15	20423.51
675.29	20458.62
675.43	20411.81
675.56	20320.53
675.70	20470.33
675.84	20313.51
675.98	19917.96
676.12	20156.69
676.26	20336.91
676.40	20081.80
676.54	20034.99
676.68	19894.55
676.82	19719.01
676.96	19632.41
677.10	19822.00
677.23	19789.23
677.37	19749.44
677.51	19686.25
677.65	19590.28
677.79	19337.51
677.93	19346.87
678.07	19321.12
678.21	19438.15
678.34	19283.67
678.48	19068.34
678.62	19110.47
678.76	19150.26
678.90	19054.30
679.04	19019.19
679.18	19096.43
679.31	18759.39
679.45	18628.32
679.59	18553.43
679.73	18740.67
679.87	18593.22
680.00	18534.70
680.14	18499.59
680.28	18487.89
680.42	18539.38
680.56	18600.24
680.70	18317.03
680.83	18401.29
680.97	18251.50
681.11	18480.87
681.25	18457.46
681.39	18099.36
681.52	18405.97
681.66	18256.18
681.80	17940.21
681.94	17909.78
682.07	18270.22
682.21	17820.84
682.35	17598.49
682.49	17539.97
682.62	17600.83
682.76	17476.78
682.90	17724.88
683.04	17436.99
683.17	17713.17
683.31	17563.38
683.45	17572.74
683.59	17355.07
683.72	17434.65
683.86	17284.86
684.00	17151.45
684.13	17128.04
684.27	17095.27
684.41	17261.45
684.55	16961.86
684.68	16751.21
684.82	16830.79
684.96	16601.42
685.09	16755.90
685.23	16573.33
685.37	16746.53
685.50	16755.90
685.64	16664.61
685.78	16526.52
685.91	16489.07
686.05	16376.73
686.19	16444.60
686.32	16606.10
686.46	16002.24
686.60	16191.83
686.73	16252.68
686.87	16121.61
687.01	16023.31
687.14	15779.89
687.28	15824.36
687.42	15775.21
687.55	15627.76
687.69	15770.53
687.82	15789.25
687.96	15672.23
688.10	15665.21
688.23	15709.68
688.37	15578.61
688.50	15672.23
688.64	15618.39
688.78	15674.57
688.91	15161.99
689.05	15187.74
689.18	14939.64
689.32	14850.70
689.46	14984.11
689.59	14829.63
689.73	15126.88
689.86	14871.76
690.00	14988.79
690.13	14806.23
690.27	14993.47
690.41	14860.06
690.54	14642.39
690.68	14611.96
690.81	14626.01
690.95	14897.51
691.08	14513.66
691.22	14438.76
691.35	14492.60
691.49	14321.74
691.62	14209.39
691.76	14232.80
691.89	14286.63
692.03	14005.77
692.16	14181.31
692.30	13767.03
692.43	13811.50
692.57	13708.52
692.70	13708.52
692.84	13755.33
692.97	13752.99
693.11	13874.70
693.24	13654.69
693.38	13724.90
693.51	13495.53
693.65	13422.97
693.78	13518.93
693.92	13413.61
694.05	13334.03
694.19	13427.65
694.32	13273.18
694.45	13350.42
694.59	13207.64
694.72	12950.18
694.86	12879.97
694.99	12894.01
695.13	13130.41
695.26	12959.55
695.39	12744.22
695.53	13060.19
695.66	12645.91
695.80	12816.77
695.93	12596.76
696.07	12659.96
696.20	12795.71
696.33	12587.40
696.47	12517.18
696.60	12269.09
696.73	12521.87
696.87	12395.48
697.00	12334.62
697.14	12035.03
697.27	12191.85
697.40	11932.05
697.54	12245.68
697.67	11995.25
697.80	12081.85
697.94	11646.51
698.07	11702.68
698.21	11543.52
698.34	11772.89
698.47	11850.13
698.61	11772.89
698.74	11749.49
698.87	11592.67
699.01	11562.25
699.14	11698.00
699.27	11566.93
699.40	11543.52
699.54	11337.56
699.67	11185.42
699.80	11199.46
699.94	11323.51
700.07	11197.12
700.20	11302.45
700.34	10888.17
700.47	10785.19
700.60	11063.71
700.73	10766.46
700.87	11037.97
701.00	10834.34
701.13	10850.72
701.26	10663.48
701.40	10792.21
701.53	10867.11
701.66	10597.95
701.79	10586.24
701.93	10668.16
702.06	10583.90
702.19	10310.06
702.32	10532.41
702.46	10305.38
702.59	10333.47
702.72	10272.61
702.85	10284.31
702.99	10040.90
703.12	10038.56
703.25	10076.01
703.38	10090.05
703.51	10022.17
703.65	9900.47
703.78	9853.66
703.91	9982.38
704.04	9949.62
704.17	9968.34
704.31	9860.68
704.44	9778.76
704.57	9448.74
704.70	9516.62
704.83	9376.19
704.96	9476.83
705.10	9589.17
705.23	9165.54
>>>>>End Processed Spectral Data<<<<<
