SpectraSuite Data File
++++++++++++++++++++++++++++++++++++
Date: Fri Oct 18 13:58:02 GMT-05:00 2013
User: bianchi
Dark Spectrum Present: No
Reference Spectrum Present: No
Number of Sampled Component Spectra: 1
Spectrometers: USB2+H05261
Integration Time (usec): 50000 (USB2+H05261)
Spectra Averaged: 1 (USB2+H05261)
Boxcar Smoothing: 0 (USB2+H05261)
Correct for Electrical Dark: No (USB2+H05261)
Strobe/Lamp Enabled: No (USB2+H05261)
Correct for Detector Non-linearity: No (USB2+H05261)
Correct for Stray Light: No (USB2+H05261)
Number of Pixels in Processed Spectrum: 2048
>>>>>Begin Processed Spectral Data<<<<<
365.73	7.02
365.92	7.02
366.12	7.02
366.32	0.00
366.52	0.00
366.72	0.00
366.91	0.00
367.11	0.00
367.31	0.00
367.51	0.00
367.70	0.00
367.90	0.00
368.10	0.00
368.30	0.00
368.49	0.00
368.69	0.00
368.89	0.00
369.09	0.00
369.28	0.00
369.48	0.00
369.68	0.00
369.87	0.00
370.07	0.00
370.27	0.00
370.47	0.00
370.66	79.58
370.86	177.88
371.06	93.62
371.25	105.32
371.45	124.05
371.65	102.98
371.84	154.48
372.04	191.92
372.24	81.92
372.44	142.77
372.63	177.88
372.83	245.76
373.03	110.01
373.22	257.46
373.42	243.42
373.62	194.26
373.81	222.35
374.01	266.82
374.21	273.84
374.40	182.56
374.60	290.23
374.79	236.39
374.99	187.24
375.19	177.88
375.38	381.51
375.58	318.31
375.78	311.29
375.97	217.67
376.17	332.36
376.37	285.55
376.56	285.55
376.76	248.10
376.95	238.73
377.15	322.99
377.35	299.59
377.54	339.38
377.74	301.93
377.93	222.35
378.13	262.14
378.33	241.08
378.52	299.59
378.72	297.25
378.91	276.18
379.11	301.93
379.31	245.76
379.50	285.55
379.70	222.35
379.89	250.44
380.09	273.84
380.28	320.65
380.48	292.57
380.68	283.20
380.87	299.59
381.07	346.40
381.26	325.33
381.46	238.73
381.65	278.52
381.85	358.10
382.04	313.63
382.24	287.89
382.43	301.93
382.63	353.42
382.83	287.89
383.02	360.44
383.22	308.95
383.41	306.61
383.61	416.62
383.80	451.72
384.00	334.70
384.19	332.36
384.39	341.72
384.58	383.85
384.78	404.91
384.97	332.36
385.17	353.42
385.36	381.51
385.56	393.21
385.75	447.04
385.95	425.98
386.14	411.93
386.34	388.53
386.53	369.80
386.72	505.56
386.92	449.38
387.11	503.22
387.31	362.78
387.50	407.25
387.70	500.87
387.89	444.70
388.09	498.53
388.28	381.51
388.48	421.30
388.67	505.56
388.86	395.55
389.06	475.13
389.25	475.13
389.45	390.87
389.64	416.62
389.84	477.47
390.03	557.05
390.22	456.40
390.42	414.27
390.61	440.02
390.81	526.62
391.00	535.98
391.19	397.89
391.39	461.09
391.58	498.53
391.78	512.58
391.97	545.34
392.16	615.56
392.36	596.84
392.55	503.22
392.75	585.13
392.94	568.75
393.13	585.13
393.33	500.87
393.52	578.11
393.71	575.77
393.91	559.39
394.10	540.66
394.29	573.43
394.49	559.39
394.68	557.05
394.88	596.84
395.07	512.58
395.26	664.71
395.46	566.41
395.65	622.58
395.84	603.86
396.04	678.76
396.23	592.16
396.42	617.90
396.62	695.14
396.81	636.63
397.00	692.80
397.19	671.73
397.39	599.18
397.58	678.76
397.77	610.88
397.97	704.50
398.16	690.46
398.35	727.91
398.55	645.99
398.74	669.39
398.93	711.52
399.12	704.50
399.32	690.46
399.51	683.44
399.70	748.97
399.90	753.65
400.09	779.40
400.28	720.88
400.47	830.89
400.67	704.50
400.86	718.54
401.05	779.40
401.24	835.57
401.44	798.12
401.63	774.72
401.82	807.48
402.01	788.76
402.21	645.99
402.40	821.53
402.59	873.02
402.78	835.57
402.97	870.68
403.17	901.11
403.36	894.08
403.55	922.17
403.74	896.43
403.93	961.96
404.13	985.37
404.32	940.90
404.51	908.13
404.70	903.45
404.89	891.74
405.09	903.45
405.28	922.17
405.47	880.04
405.66	931.53
405.85	1022.81
406.05	1015.79
406.24	999.41
406.43	1093.03
406.62	1093.03
406.81	1104.73
407.00	1036.86
407.20	999.41
407.39	1015.79
407.58	1050.90
407.77	1109.41
407.96	1088.35
408.15	1029.84
408.34	1067.28
408.54	1109.41
408.73	1088.35
408.92	1020.47
409.11	1137.50
409.30	1118.78
409.49	1086.01
409.68	1116.44
409.87	1139.84
410.07	1221.76
410.26	1200.69
410.45	1242.82
410.64	1219.42
410.83	1210.06
411.02	1188.99
411.21	1217.08
411.40	1238.14
411.59	1266.23
411.78	1245.16
411.98	1186.65
412.17	1320.06
412.36	1275.59
412.55	1362.19
412.74	1371.55
412.93	1390.28
413.12	1338.79
413.31	1427.73
413.50	1462.83
413.69	1362.19
413.88	1476.88
414.07	1455.81
414.26	1409.00
414.45	1460.49
414.64	1409.00
414.83	1490.92
415.02	1465.18
415.22	1540.07
415.41	1551.78
415.60	1523.69
415.79	1633.69
415.98	1633.69
416.17	1572.84
416.36	1631.35
416.55	1540.07
416.74	1710.93
416.93	1657.10
417.12	1748.38
417.31	1746.04
417.50	1689.87
417.69	1701.57
417.88	1790.51
418.07	1781.15
418.26	1687.53
418.45	1860.73
418.64	1816.26
418.83	1748.38
419.02	1764.76
419.21	1748.38
419.39	1940.30
419.58	1713.27
419.77	1865.41
419.96	1865.41
420.15	1825.62
420.34	1818.60
420.53	2008.18
420.72	1923.92
420.91	1893.49
421.10	1970.73
421.29	1902.86
421.48	1837.32
421.67	1879.45
421.86	1959.03
422.05	1963.71
422.24	2022.22
422.43	2076.06
422.61	1994.14
422.80	2029.24
422.99	2045.63
423.18	1968.39
423.37	2015.20
423.56	2064.35
423.75	2043.29
423.94	1991.80
424.13	1830.30
424.32	1980.09
424.50	2022.22
424.69	2108.82
424.88	2066.69
425.07	1998.82
425.26	1984.77
425.45	2115.84
425.64	2031.58
425.83	2104.14
426.01	2097.12
426.20	2054.99
426.39	2129.89
426.58	2047.97
426.77	2012.86
426.96	2104.14
427.15	2083.08
427.33	2122.87
427.52	2022.22
427.71	2071.37
427.90	2136.91
428.09	2209.47
428.28	2228.19
428.46	2190.74
428.65	2249.25
428.84	2324.15
429.03	2471.61
429.22	2176.70
429.40	2228.19
429.59	2270.32
429.78	2148.61
429.97	2146.27
430.16	2242.23
430.34	2286.70
430.53	2373.30
430.72	2366.28
430.91	2235.21
431.10	2244.57
431.28	2209.47
431.47	2410.75
431.66	2504.37
431.85	2321.81
432.03	2403.73
432.22	2502.03
432.41	2399.05
432.60	2562.89
432.79	2504.37
432.97	2476.29
433.16	2480.97
433.35	2401.39
433.54	2539.48
433.72	2478.63
433.91	2438.84
434.10	2583.95
434.28	2530.12
434.47	2520.76
434.66	2600.34
434.85	2581.61
435.03	2583.95
435.22	2548.84
435.41	2752.47
435.59	2619.06
435.78	2600.34
435.97	2693.96
436.16	2686.94
436.34	2605.02
436.53	2581.61
436.72	2867.16
436.90	2712.68
437.09	2569.91
437.28	2710.34
437.46	2696.30
437.65	2700.98
437.84	2679.91
438.02	2782.90
438.21	2733.75
438.40	2757.15
438.58	2801.62
438.77	2895.24
438.96	2862.48
439.14	2911.63
439.33	2949.08
439.52	2916.31
439.70	2850.77
439.89	2972.48
440.08	2991.20
440.26	2998.23
440.45	2988.86
440.63	2979.50
440.82	3241.64
441.01	3073.12
441.19	3267.39
441.38	3260.37
441.57	3276.75
441.75	3302.50
441.94	3295.47
442.12	3426.54
442.31	3353.99
442.50	3370.37
442.68	3206.53
442.87	3321.22
443.05	3391.44
443.24	3466.33
443.43	3335.26
443.61	3428.88
443.80	3513.14
443.98	3304.84
444.17	3265.05
444.35	3529.53
444.54	3412.50
444.73	3449.95
444.91	3300.16
445.10	3389.10
445.28	3363.35
445.47	3351.65
445.65	3424.20
445.84	3508.46
446.02	3412.50
446.21	3496.76
446.39	3361.01
446.58	3452.29
446.77	3428.88
446.95	3351.65
447.14	3606.77
447.32	3492.08
447.51	3517.83
447.69	3499.10
447.88	3538.89
448.06	3466.33
448.25	3463.99
448.43	3559.95
448.62	3513.14
448.80	3545.91
448.99	3471.01
449.17	3590.38
449.36	3501.44
449.54	3602.08
449.73	3721.45
449.91	3786.99
450.10	3728.47
450.28	3716.77
450.46	3686.34
450.65	3735.50
450.83	3894.65
451.02	3758.90
451.20	3772.94
451.39	3789.33
451.57	3716.77
451.76	3641.87
451.94	3796.35
452.13	3932.10
452.31	3817.41
452.49	3709.75
452.68	3948.48
452.86	3901.67
453.05	3826.78
453.23	3929.76
453.42	3962.53
453.60	3871.25
453.78	3971.89
453.97	3971.89
454.15	3955.51
454.34	3875.93
454.52	4079.55
454.70	4025.72
454.89	4032.74
455.07	4039.76
455.26	4016.36
455.44	4051.47
455.62	3955.51
455.81	4138.07
455.99	4109.98
456.17	4086.58
456.36	4070.19
456.54	4208.28
456.73	4320.63
456.91	4351.06
457.09	4257.43
457.28	4306.59
457.46	4234.03
457.64	4311.27
457.83	4367.44
458.01	4353.40
458.19	4447.02
458.38	4428.29
458.56	4451.70
458.74	4407.23
458.93	4390.84
459.11	4472.76
459.29	4451.70
459.48	4496.17
459.66	4432.97
459.84	4402.55
460.03	4566.39
460.21	4582.77
460.39	4557.02
460.57	4470.42
460.76	4732.56
460.94	4568.73
461.12	4615.54
461.31	4498.51
461.49	4641.28
461.67	4613.20
461.85	4767.67
462.04	4746.61
462.22	4915.12
462.40	4772.35
462.59	4734.90
462.77	4805.12
462.95	4772.35
463.13	4849.59
463.32	4884.70
463.50	4842.57
463.68	4858.95
463.86	4861.29
464.05	4793.42
464.23	4753.63
464.41	4713.84
464.59	4919.81
464.78	4983.00
464.96	4901.08
465.14	4908.10
465.32	4924.49
465.50	5006.41
465.69	4997.04
465.87	4954.91
466.05	5032.15
466.23	5149.18
466.41	5104.71
466.60	5135.14
466.78	5210.03
466.96	4973.64
467.14	4975.98
467.32	5121.09
467.51	5100.03
467.69	5039.17
467.87	5118.75
468.05	4959.60
468.23	5104.71
468.41	5165.56
468.60	5167.90
468.78	5170.24
468.96	5104.71
469.14	5259.18
469.32	5284.93
469.50	5221.74
469.69	5252.16
469.87	5334.08
470.05	5518.98
470.23	5518.98
470.41	5385.57
470.59	5371.53
470.77	5437.06
470.95	5439.40
471.14	5556.43
471.32	5366.85
471.50	5659.42
471.68	5544.73
471.86	5455.79
472.04	5645.37
472.22	5809.21
472.40	5738.99
472.58	5863.04
472.77	5760.06
472.95	5935.60
473.13	6052.63
473.31	5764.74
473.49	5834.96
473.67	5816.23
473.85	5844.32
474.03	5942.62
474.21	6043.26
474.39	5949.64
474.57	5893.47
474.75	6136.88
474.93	6136.88
475.12	6118.16
475.30	6146.25
475.48	6209.44
475.66	6183.70
475.84	6253.91
476.02	6291.36
476.20	6427.11
476.38	6476.26
476.56	6441.15
476.74	6499.67
476.92	6384.98
477.10	6614.35
477.28	6635.42
477.46	6607.33
477.64	6745.42
477.82	6789.89
478.00	6995.86
478.18	7063.74
478.36	6944.37
478.54	7126.93
478.72	7059.06
478.90	7159.70
479.08	7206.51
479.26	7262.68
479.44	7293.11
479.62	7180.76
479.80	7440.56
479.98	7541.21
480.16	7798.66
480.34	7541.21
480.52	7510.78
480.70	7730.79
480.88	7691.00
481.06	7805.69
481.24	7803.35
481.41	7946.12
481.59	7845.48
481.77	8152.09
481.95	8028.04
482.13	8028.04
482.31	8142.72
482.49	8201.24
482.67	8238.69
482.85	8358.05
483.03	8659.98
483.21	8557.00
483.39	8512.53
483.57	8659.98
483.74	8777.01
483.92	8667.00
484.10	8564.02
484.28	8961.91
484.46	8978.30
484.64	9144.47
484.82	8950.21
485.00	9130.43
485.18	9032.13
485.35	9296.61
485.53	9483.85
485.71	9490.87
485.89	9343.42
486.07	9437.04
486.25	9547.05
486.43	9767.06
486.61	9856.00
486.78	9881.74
486.96	10160.27
487.14	9970.68
487.32	10207.08
487.50	10155.58
487.68	10232.82
487.85	10298.36
488.03	10466.88
488.21	10530.07
488.39	10530.07
488.57	10574.54
488.75	10541.77
488.92	11000.52
489.10	11009.88
489.28	10902.22
489.46	10918.60
489.64	11382.03
489.81	11213.51
489.99	11367.98
490.17	11407.77
490.35	11548.20
490.53	11482.67
490.70	11648.85
490.88	11428.84
491.06	11515.44
491.24	11726.08
491.41	11550.54
491.59	12030.35
491.77	12051.42
491.95	12278.45
492.13	12025.67
492.30	12250.36
492.48	12416.54
492.66	12255.04
492.84	12498.46
493.01	12461.01
493.19	12617.83
493.37	12538.25
493.54	12863.58
493.72	12982.95
493.90	12940.82
494.08	13006.36
494.25	13004.02
494.43	13011.04
494.61	13254.45
494.79	13474.46
494.96	13317.65
495.14	13392.55
495.32	13797.46
495.49	13488.51
495.67	13825.54
495.85	13710.86
496.02	13905.12
496.20	14134.50
496.38	14113.43
496.55	13935.55
496.73	14104.07
496.91	14267.91
497.09	14181.31
497.26	14221.10
497.44	14431.74
497.62	14523.02
497.79	14628.35
497.97	14572.18
498.14	14710.27
498.32	15005.17
498.50	14794.53
498.67	15044.96
498.85	14960.70
499.03	14902.19
499.20	14967.73
499.38	15206.46
499.56	15316.47
499.73	15185.40
499.91	15358.60
500.08	15206.46
500.26	15314.13
500.44	15421.79
500.61	15536.48
500.79	15400.72
500.97	15740.10
501.14	15943.73
501.32	15946.07
501.49	15742.44
501.67	15683.93
501.84	15735.42
502.02	16177.78
502.20	16217.57
502.37	16299.49
502.55	16156.72
502.72	16135.65
502.90	16416.52
503.07	16294.81
503.25	16091.18
503.43	16451.63
503.60	16739.51
503.78	16477.37
503.95	16458.65
504.13	16589.72
504.30	16622.48
504.48	16491.41
504.65	16809.73
504.83	16851.86
505.01	17090.59
505.18	16954.84
505.36	17046.12
505.53	17013.35
505.71	17181.87
505.88	17387.84
506.06	16870.58
506.23	17352.73
506.41	17511.89
506.58	17689.77
506.76	17373.80
506.93	17584.44
507.11	17385.50
507.28	17759.98
507.46	17907.44
507.63	17825.52
507.81	18181.28
507.98	17731.90
508.16	17614.87
508.33	17727.22
508.50	17848.93
508.68	18045.53
508.85	18057.23
509.03	18230.43
509.20	18258.52
509.38	18368.52
509.55	18417.68
509.73	18307.67
509.90	18651.73
510.08	18377.89
510.25	18473.85
510.42	18501.93
510.60	18810.89
510.77	18724.29
510.95	18845.99
511.12	18647.05
511.30	18621.30
511.47	18993.45
511.64	18836.63
511.82	19058.98
511.99	18867.06
512.17	19297.72
512.34	19222.82
512.51	19084.73
512.69	19264.95
512.86	19002.81
513.04	19688.59
513.21	19723.69
513.38	19597.31
513.56	19583.26
513.73	19428.79
513.90	19290.70
514.08	19634.75
514.25	19953.07
514.43	19763.48
514.60	19728.38
514.77	19908.60
514.95	19702.63
515.12	19908.60
515.29	19737.74
515.47	19889.87
515.64	20212.87
515.81	20332.23
515.99	20255.00
516.16	20524.16
516.33	20624.80
516.51	20552.24
516.68	20280.74
516.85	20290.10
517.03	20381.38
517.20	20631.82
517.37	20755.87
517.54	20563.95
517.72	20500.75
517.89	20669.27
518.06	20676.29
518.24	20800.34
518.41	20699.70
518.58	20863.54
518.75	20861.19
518.93	21221.64
519.10	20931.41
519.27	21139.72
519.45	21104.61
519.62	21170.15
519.79	21315.26
519.96	20730.12
520.14	21223.98
520.31	20943.11
520.48	21462.71
520.65	21390.16
520.83	21326.96
521.00	21614.85
521.17	21069.50
521.34	21649.96
521.52	21689.74
521.69	21654.64
521.86	21846.56
522.03	21860.60
522.20	22127.42
522.38	21720.17
522.55	21685.06
522.72	21617.19
522.89	21947.20
523.07	21923.80
523.24	21956.57
523.41	22457.44
523.58	22391.91
523.75	22267.86
523.92	21834.86
524.10	22270.20
524.27	22366.16
524.44	22593.19
524.61	22485.53
524.78	22813.20
524.96	22347.44
525.13	22382.54
525.30	22455.10
525.47	22937.25
525.64	22455.10
525.81	22742.99
525.98	23157.26
526.16	23096.41
526.33	22796.82
526.50	22909.16
526.67	22881.08
526.84	23112.79
527.01	22906.82
527.18	23269.61
527.36	23173.64
527.53	23363.23
527.70	23122.15
527.87	23349.18
528.04	23274.29
528.21	23587.92
528.38	23234.50
528.55	23356.21
528.72	23318.76
528.89	23768.14
529.07	23414.72
529.24	23414.72
529.41	23587.92
529.58	23726.01
529.75	23414.72
529.92	23934.32
530.09	23522.38
530.26	23826.65
530.43	23786.86
530.60	23520.04
530.77	23885.17
530.94	23967.09
531.11	23737.71
531.28	24041.98
531.46	24016.24
531.63	23779.84
531.80	24549.88
531.97	24346.25
532.14	24098.16
532.31	24023.26
532.48	24144.97
532.65	24271.36
532.82	24049.00
532.99	24301.78
533.16	24217.52
533.33	24594.35
533.50	24634.14
533.67	24390.72
533.84	24482.00
534.01	24301.78
534.18	24095.82
534.35	24615.41
534.52	24538.18
534.69	24629.46
534.86	24786.27
535.03	24397.74
535.20	25060.12
535.37	24947.77
535.54	25113.95
535.71	24807.34
535.88	24584.99
536.05	24601.37
536.22	25216.93
536.38	24975.86
536.55	25022.67
536.72	25273.10
536.89	25200.55
537.06	25090.54
537.23	25280.13
537.40	25156.08
537.57	25219.27
537.74	25570.35
537.91	25387.79
538.08	25298.85
538.25	25387.79
538.42	25453.33
538.59	25476.73
538.75	25490.77
538.92	25317.57
539.09	25591.42
539.26	25446.30
539.43	25528.22
539.60	25762.28
539.77	25654.61
539.94	25820.79
540.11	25514.18
540.28	25940.16
540.44	25593.76
540.61	25802.07
540.78	25685.04
540.95	25888.67
541.12	25755.26
541.29	25799.73
541.46	25745.89
541.62	25776.32
541.79	26024.42
541.96	25773.98
542.13	26267.83
542.30	26101.65
542.47	26176.55
542.63	26251.45
542.80	26300.60
542.97	26445.71
543.14	26494.86
543.31	26349.75
543.48	26246.77
543.64	26436.35
543.81	26686.79
543.98	26841.26
544.15	26501.89
544.32	26670.40
544.48	26586.15
544.65	26698.49
544.82	26881.05
544.99	26326.35
545.16	26614.23
545.32	26747.64
545.49	26962.97
545.66	27042.55
545.83	27161.92
546.00	27161.92
546.16	27023.83
546.33	26993.40
546.50	26569.76
546.67	27197.02
546.83	26572.10
547.00	27058.93
547.17	27056.59
547.34	27070.64
547.50	27051.91
547.67	27381.93
547.84	26843.60
548.00	27723.65
548.17	27522.36
548.34	27325.75
548.51	27513.00
548.67	27688.54
548.84	27761.09
549.01	27297.67
549.18	27718.96
549.34	27161.92
549.51	27391.29
549.68	27323.41
549.84	27405.33
550.01	27370.22
550.18	27316.39
550.34	27744.71
550.51	27651.09
550.68	27667.47
550.84	27321.07
551.01	27864.08
551.18	27442.78
551.34	27515.34
551.51	27332.78
551.68	28088.77
551.84	27583.21
552.01	27545.76
552.18	27957.70
552.34	27864.08
552.51	27892.16
552.68	27894.50
552.84	27751.73
553.01	28044.30
553.18	27672.15
553.34	28126.22
553.51	27903.87
553.67	28215.16
553.84	28435.17
554.01	28098.13
554.17	28238.56
554.34	28472.62
554.51	28184.73
554.67	28467.94
554.84	28173.03
555.00	28299.42
555.17	28367.29
555.33	28158.99
555.50	28238.56
555.67	28409.42
555.83	28261.97
556.00	28294.74
556.16	28575.60
556.33	28397.72
556.50	28561.56
556.66	28638.80
556.83	28407.08
556.99	28893.91
557.16	28629.43
557.32	28486.66
557.49	28697.31
557.65	28393.04
557.82	28236.22
557.98	28397.72
558.15	28584.96
558.32	28264.31
558.48	28765.18
558.65	28577.94
558.81	28350.91
558.98	28535.81
559.14	29090.52
559.31	28631.77
559.47	28704.33
559.64	28800.29
559.80	29163.08
559.97	29057.75
560.13	29259.04
560.30	29139.67
560.46	29067.11
560.63	29406.49
560.79	28968.81
560.96	29088.18
561.12	29032.00
561.29	28973.49
561.45	28638.80
561.61	28961.79
561.78	29048.39
561.94	29483.73
562.11	28851.78
562.27	29127.97
562.44	28959.45
562.60	28816.68
562.77	29062.43
562.93	28985.19
563.10	29355.00
563.26	29277.76
563.42	29462.66
563.59	29198.18
563.75	29273.08
563.92	29453.30
564.08	29092.86
564.24	29296.49
564.41	29074.13
564.57	28849.44
564.74	29469.69
564.90	29212.23
565.07	29387.77
565.23	29418.19
565.39	29383.09
565.56	29338.62
565.72	28940.72
565.88	29385.43
566.05	29415.85
566.21	29432.24
566.38	29268.40
566.54	29628.84
566.70	29577.35
566.87	29364.36
567.03	29221.59
567.19	29724.80
567.36	29495.43
567.52	29310.53
567.68	29504.79
567.85	29116.26
568.01	29336.27
568.17	29500.11
568.34	29425.22
568.50	29783.32
568.66	29336.27
568.83	29741.19
568.99	29621.82
569.15	29497.77
569.32	29832.47
569.48	29244.99
569.64	29759.91
569.81	29811.40
569.97	29710.76
570.13	29699.06
570.30	29680.33
570.46	30005.67
570.62	29586.71
570.78	29467.34
570.95	29355.00
571.11	29312.87
571.27	29355.00
571.43	29593.73
571.60	29619.48
571.76	29511.81
571.92	29385.43
572.09	29823.11
572.25	30054.82
572.41	29867.58
572.57	29706.08
572.74	30286.53
572.90	29872.26
573.06	29708.42
573.22	29549.26
573.38	29827.79
573.55	29757.57
573.71	29930.77
573.87	29844.17
574.03	29708.42
574.20	29333.93
574.36	29575.01
574.52	30160.14
574.68	29670.97
574.84	29898.00
575.01	30136.74
575.17	29912.05
575.33	29626.50
575.49	29748.21
575.65	29729.48
575.82	29865.24
575.98	29687.36
576.14	29886.30
576.30	29715.44
576.46	29582.03
576.62	29617.14
576.79	30197.59
576.95	29582.03
577.11	30106.31
577.27	29893.32
577.43	29961.20
577.59	29890.98
577.75	29759.91
577.92	29390.11
578.08	29591.39
578.24	29596.07
578.40	29846.51
578.56	29685.01
578.72	29872.26
578.88	30242.06
579.04	30092.27
579.21	29965.88
579.37	29727.14
579.53	30082.91
579.69	29851.19
579.85	30286.53
580.01	29930.77
580.17	29764.59
580.33	29951.84
580.49	30087.59
580.65	30029.07
580.82	30190.57
580.98	30183.55
581.14	30216.32
581.30	30136.74
581.46	30129.72
581.62	29802.04
581.78	29881.62
581.94	30298.23
582.10	29933.11
582.26	30265.47
582.42	29905.02
582.58	30307.60
582.74	30174.19
582.90	30167.16
583.06	30267.81
583.22	30045.46
583.38	29970.56
583.54	29785.66
583.70	30108.65
583.86	29921.41
584.02	29776.30
584.18	30059.50
584.34	30551.01
584.50	30445.69
584.66	30125.04
584.82	30483.14
584.98	30036.09
585.14	30286.53
585.30	29701.40
585.46	30274.83
585.62	29937.79
585.78	29886.30
585.94	30075.88
586.10	30279.51
586.26	29867.58
586.42	30319.30
586.58	30452.71
586.74	30225.68
586.90	30080.56
587.06	30029.07
587.22	29813.74
587.38	30078.22
587.54	30167.16
587.70	30448.03
587.86	30536.97
588.02	30490.16
588.18	30672.72
588.34	30129.72
588.49	30384.83
588.65	29809.06
588.81	29916.73
588.97	30068.86
589.13	30394.20
589.29	29979.92
589.45	30188.23
589.61	30457.39
589.77	30272.49
589.93	30345.05
590.08	30555.69
590.24	30581.44
590.40	30335.68
590.56	30565.06
590.72	30270.15
590.88	30412.92
591.04	30499.52
591.20	30506.54
591.35	30513.56
591.51	30756.98
591.67	30824.86
591.83	31056.57
591.99	30792.09
592.15	30766.34
592.31	30663.36
592.46	30469.09
592.62	30476.12
592.78	30345.05
592.94	30668.04
593.10	30508.88
593.26	30712.51
593.41	30588.46
593.57	30581.44
593.73	30604.84
593.89	30848.26
594.05	30551.01
594.20	30466.75
594.36	30415.26
594.52	30335.68
594.68	30696.13
594.84	30342.70
594.99	30661.02
595.15	30845.92
595.31	30864.64
595.47	30834.22
595.62	30962.95
595.78	30623.57
595.94	30426.96
596.10	30258.45
596.25	30441.01
596.41	30661.02
596.57	30314.62
596.73	30569.74
596.88	30583.78
597.04	30836.56
597.20	31168.91
597.36	31159.55
597.51	30991.03
597.67	30494.84
597.83	30663.36
597.99	30295.89
598.14	30632.93
598.30	30396.54
598.46	30464.41
598.61	30843.58
598.77	30492.50
598.93	30616.55
599.09	30684.42
599.24	30981.67
599.40	30953.58
599.56	30969.97
599.71	30576.76
599.87	31143.17
600.03	30909.11
600.18	30267.81
600.34	30829.54
600.50	30576.76
600.65	30735.92
600.81	31103.38
600.97	30923.16
601.12	31150.19
601.28	31082.31
601.44	31072.95
601.59	31082.31
601.75	30789.75
601.91	30834.22
602.06	31072.95
602.22	30455.05
602.37	30452.71
602.53	30574.42
602.69	30752.30
602.84	30817.83
603.00	30649.32
603.16	30824.86
603.31	31084.65
603.47	30801.45
603.62	30829.54
603.78	30944.22
603.94	31005.08
604.09	30731.23
604.25	30604.84
604.40	31061.25
604.56	31054.23
604.71	30953.58
604.87	30726.55
605.03	30845.92
605.18	30565.06
605.34	30576.76
605.49	30515.90
605.65	30438.67
605.80	30501.86
605.96	30543.99
606.12	30703.15
606.27	30850.60
606.43	30658.68
606.58	31262.54
606.74	30965.29
606.89	30649.32
607.05	30984.01
607.20	30429.30
607.36	30677.40
607.51	30513.56
607.67	30625.91
607.82	30646.97
607.98	30543.99
608.13	30796.77
608.29	30740.60
608.44	30497.18
608.60	30759.32
608.75	30693.79
608.91	31084.65
609.06	30501.86
609.22	30773.36
609.37	30387.18
609.53	30195.25
609.68	30213.98
609.84	30288.87
609.99	30567.40
610.15	30225.68
610.30	30389.52
610.46	30073.54
610.61	30473.78
610.76	30155.46
610.92	30431.65
611.07	30139.08
611.23	30366.11
611.38	30387.18
611.54	30183.55
611.69	30115.67
611.84	30134.40
612.00	30323.98
612.15	30171.85
612.31	30279.51
612.46	30422.28
612.62	30579.10
612.77	30209.29
612.92	30569.74
613.08	30642.29
613.23	30265.47
613.39	30541.65
613.54	30057.16
613.69	30614.21
613.85	30101.63
614.00	30417.60
614.15	30267.81
614.31	30096.95
614.46	30457.39
614.62	30242.06
614.77	30068.86
614.92	30169.51
615.08	30471.43
615.23	30225.68
615.38	30143.76
615.54	29663.95
615.69	29965.88
615.84	29748.21
616.00	30129.72
616.15	30099.29
616.30	30335.68
616.46	29628.84
616.61	30113.33
616.76	30288.87
616.92	29823.11
617.07	30073.54
617.22	30197.59
617.37	29820.77
617.53	30190.57
617.68	29750.55
617.83	29802.04
617.99	29591.39
618.14	29888.64
618.29	29799.70
618.45	29883.96
618.60	29329.25
618.75	30148.44
618.90	29942.47
619.06	29970.56
619.21	29497.77
619.36	29745.87
619.51	29448.62
619.67	29434.58
619.82	29612.46
619.97	29860.55
620.12	29806.72
620.28	29418.19
620.43	29570.33
620.58	30066.52
620.73	29930.77
620.89	29553.94
621.04	29741.19
621.19	30192.91
621.34	29263.72
621.49	29528.20
621.65	29589.05
621.80	29411.17
621.95	29378.40
622.10	29626.50
622.25	29383.09
622.41	29472.03
622.56	29759.91
622.71	29549.26
622.86	29172.44
623.01	29457.98
623.16	29689.70
623.32	29259.04
623.47	29074.13
623.62	29022.64
623.77	29497.77
623.92	29202.86
624.07	29076.48
624.23	29233.29
624.38	29230.95
624.53	29242.65
624.68	29174.78
624.83	29422.87
624.98	29422.87
625.13	29106.90
625.29	29256.70
625.44	29277.76
625.59	28837.74
625.74	28652.84
625.89	28936.04
626.04	28694.97
626.19	29347.98
626.34	28858.81
626.49	29069.45
626.65	28959.45
626.80	28973.49
626.95	29118.60
627.10	28837.74
627.25	28432.83
627.40	28652.84
627.55	28790.93
627.70	28891.57
627.85	28538.15
628.00	28549.85
628.15	28900.94
628.30	28790.93
628.45	28521.77
628.60	28510.07
628.76	28945.41
628.91	28907.96
629.06	28542.83
629.21	28917.32
629.36	28811.99
629.51	28762.84
629.66	28776.89
629.81	28355.59
629.96	28484.32
630.11	28407.08
630.26	28109.83
630.41	28081.75
630.56	28493.68
630.71	28463.25
630.86	28645.82
631.01	28332.18
631.16	28694.97
631.31	28460.91
631.46	28233.88
631.61	28566.24
631.76	27971.74
631.91	28254.95
632.06	28259.63
632.21	28144.94
632.36	28238.56
632.51	28229.20
632.66	28610.71
632.81	27845.35
632.96	28388.36
633.10	28404.74
633.25	28276.01
633.40	28233.88
633.55	28416.44
633.70	28137.92
633.85	27927.27
634.00	28304.10
634.15	27843.01
634.30	27796.20
634.45	27917.91
634.60	27569.17
634.75	27866.42
634.90	27957.70
635.05	28056.00
635.19	27885.14
635.34	27821.95
635.49	27955.36
635.64	27728.33
635.79	27786.84
635.94	28020.89
636.09	28056.00
636.24	27798.54
636.39	27653.43
636.53	27683.86
636.68	28002.17
636.83	27604.28
636.98	27597.26
637.13	28013.87
637.28	27807.90
637.43	27894.50
637.57	27782.16
637.72	27538.74
637.87	27417.04
638.02	27311.71
638.17	27740.03
638.32	27672.15
638.46	27082.34
638.61	27023.83
638.76	27566.83
638.91	27054.25
639.06	27171.28
639.20	27082.34
639.35	27363.20
639.50	27597.26
639.65	27718.96
639.80	27550.45
639.94	27211.07
640.09	27658.11
640.24	27330.44
640.39	27271.92
640.54	27281.28
640.68	27171.28
640.83	26988.72
640.98	27035.53
641.13	26836.58
641.27	27307.03
641.42	27190.00
641.57	27402.99
641.72	27733.01
641.86	26820.20
642.01	27239.15
642.16	26581.46
642.31	27220.43
642.45	26960.63
642.60	26752.32
642.75	26742.96
642.90	26817.86
643.04	26944.25
643.19	26773.39
643.34	26789.77
643.48	26642.32
643.63	26953.61
643.78	26979.36
643.93	26927.86
644.07	27040.21
644.22	26939.57
644.37	26995.74
644.51	27009.78
644.66	26838.92
644.81	26597.85
644.95	26602.53
645.10	26462.10
645.25	26672.74
645.39	26473.80
645.54	27009.78
645.69	27042.55
645.83	26551.04
645.98	26548.70
646.13	26974.67
646.27	26801.47
646.42	26583.80
646.57	26775.73
646.71	26838.92
646.86	26600.19
647.00	26705.51
647.15	26499.55
647.30	26466.78
647.44	26429.33
647.59	26639.98
647.74	26312.30
647.88	26328.69
648.03	26909.14
648.17	26473.80
648.32	26576.78
648.47	26684.45
648.61	26263.15
648.76	26852.97
648.90	26501.89
649.05	26710.19
649.20	26621.25
649.34	26078.25
649.49	26111.02
649.63	25762.28
649.78	26106.34
649.92	26022.08
650.07	26331.03
650.21	25797.38
650.36	25825.47
650.51	26059.52
650.65	26260.81
650.80	26111.02
650.94	26066.55
651.09	26012.71
651.23	25832.49
651.38	26026.76
651.52	26206.98
651.67	26096.97
651.81	26103.99
651.96	25818.45
652.10	26153.15
652.25	25734.19
652.39	25949.52
652.54	26202.30
652.68	26239.75
652.83	26288.90
652.97	26239.75
653.12	25881.64
653.26	25720.15
653.41	25773.98
653.55	25474.39
653.70	25680.36
653.84	25715.47
653.99	25731.85
654.13	25898.03
654.27	25776.32
654.42	25860.58
654.56	26005.69
654.71	25942.50
654.85	25839.51
655.00	25811.43
655.14	25933.14
655.29	25717.81
655.43	25818.45
655.57	25436.94
655.72	25298.85
655.86	25324.60
656.01	25593.76
656.15	25640.57
656.30	25600.78
656.44	25558.65
656.58	25390.13
656.73	25422.90
656.87	25647.59
657.01	25556.31
657.16	25404.17
657.30	25909.73
657.45	25481.41
657.59	25523.54
657.73	25275.45
657.88	25266.08
658.02	24896.28
658.16	25017.99
658.31	25238.00
658.45	25427.58
658.60	25149.06
658.74	25137.35
658.88	25057.78
659.03	24985.22
659.17	25160.76
659.31	25046.07
659.46	25212.25
659.60	25202.89
659.74	25230.98
659.89	24896.28
660.03	24821.38
660.17	25010.96
660.32	24580.31
660.46	24891.60
660.60	24709.04
660.74	24533.50
660.89	24634.14
661.03	24435.19
661.17	24643.50
661.32	24645.84
661.46	24727.76
661.60	24549.88
661.74	24680.95
661.89	24638.82
662.03	24723.08
662.17	24348.59
662.31	24376.68
662.46	24257.31
662.60	24254.97
662.74	24067.73
662.88	24041.98
663.03	24166.03
663.17	24257.31
663.31	24049.00
663.45	24135.60
663.60	24030.28
663.74	23955.38
663.88	24203.48
664.02	24505.41
664.17	24004.53
664.31	23857.08
664.45	24163.69
664.59	23974.11
664.73	24109.86
664.88	24290.08
665.02	23531.75
665.16	24058.37
665.30	23356.21
665.44	23798.57
665.59	23726.01
665.73	23634.73
665.87	23304.71
666.01	23885.17
666.15	23606.64
666.29	23513.02
666.44	23700.26
666.58	23178.33
666.72	23480.25
666.86	23754.10
667.00	23838.36
667.14	23428.76
667.28	23222.80
667.43	23438.12
667.57	23344.50
667.71	23103.43
667.85	22974.70
667.99	23220.45
668.13	22988.74
668.27	23145.56
668.41	23150.24
668.56	23274.29
668.70	23199.39
668.84	23190.03
668.98	23386.63
669.12	23208.75
669.26	23026.19
669.40	22867.03
669.54	23080.02
669.68	22838.95
669.82	22876.40
669.96	22443.40
670.10	22890.44
670.25	22609.58
670.39	22356.80
670.53	22302.96
670.67	22345.09
670.81	22618.94
670.95	22640.00
671.09	22417.65
671.23	22279.56
671.37	22689.15
671.51	22415.31
671.65	22232.75
671.79	22335.73
671.93	22382.54
672.07	22300.62
672.21	22097.00
672.35	22036.14
672.49	22267.86
672.63	22085.30
672.77	21771.66
672.91	21820.81
673.05	22033.80
673.19	21715.49
673.33	21694.43
673.47	21956.57
673.61	21902.73
673.75	21837.20
673.89	21472.07
674.03	21778.68
674.17	21645.27
674.31	21436.97
674.45	21518.89
674.59	21664.00
674.73	21589.10
674.87	21329.30
675.01	21502.50
675.15	21095.25
675.29	21022.69
675.43	20922.05
675.56	21303.56
675.70	20985.24
675.84	20788.64
675.98	20622.46
676.12	20931.41
676.26	21216.96
676.40	21048.44
676.54	20819.07
676.68	21006.31
676.82	20685.65
676.96	20582.67
677.10	20814.38
677.23	20652.89
677.37	20517.14
677.51	20636.50
677.65	20332.23
677.79	20259.68
677.93	20046.69
678.07	20250.32
678.21	20095.84
678.34	20133.29
678.48	19763.48
678.62	19754.12
678.76	19807.95
678.90	19744.76
679.04	19751.78
679.18	19946.05
679.31	19763.48
679.45	19501.34
679.59	19454.53
679.73	19477.94
679.87	19534.11
680.00	19300.06
680.14	19042.60
680.28	19091.75
680.42	19129.20
680.56	19129.20
680.70	19370.27
680.83	19384.32
680.97	19211.12
681.11	19023.87
681.25	18836.63
681.39	18780.46
681.52	19058.98
681.66	19154.94
681.80	18705.56
681.94	18733.65
682.07	18593.22
682.21	18703.22
682.35	18363.84
682.49	18253.84
682.62	18092.34
682.76	18010.42
682.90	18331.08
683.04	18221.07
683.17	18359.16
683.31	18202.35
683.45	18253.84
683.59	18104.04
683.72	17767.01
683.86	18106.38
684.00	17823.18
684.13	17701.47
684.27	17867.65
684.41	17692.11
684.55	17525.93
684.68	17535.29
684.82	17579.76
684.96	17123.36
685.09	17397.20
685.23	17322.30
685.37	17205.28
685.50	17420.61
685.64	17195.92
685.78	17298.90
685.91	16992.29
686.05	17207.62
686.19	16924.41
686.32	17008.67
686.46	16919.73
686.60	16760.58
686.73	16910.37
686.87	16702.06
687.01	16575.67
687.14	16531.20
687.28	16400.13
687.42	16255.02
687.55	16222.25
687.69	16297.15
687.82	16278.43
687.96	16308.85
688.10	16159.06
688.23	16475.03
688.37	16093.52
688.50	15840.75
688.64	15761.17
688.78	15784.57
688.91	16027.99
689.05	15857.13
689.18	15758.83
689.32	15594.99
689.46	15372.64
689.59	15543.50
689.73	15606.69
689.86	15524.77
690.00	15454.56
690.13	15749.46
690.27	15293.06
690.41	15602.01
690.54	15164.33
690.68	15440.51
690.81	15351.57
690.95	15330.51
691.08	15019.22
691.22	15084.75
691.35	14890.49
691.49	15187.74
691.62	14757.08
691.76	14846.02
691.89	14771.12
692.03	14300.67
692.16	14539.41
692.30	14518.34
692.43	14319.40
692.57	14134.50
692.70	14368.55
692.84	14394.29
692.97	14298.33
693.11	14221.10
693.24	14291.31
693.38	14071.30
693.51	13942.57
693.65	13949.59
693.78	13827.88
693.92	13916.83
694.05	13830.23
694.19	13748.31
694.32	13776.39
694.45	13635.96
694.59	13511.91
694.72	13682.77
694.86	13516.59
694.99	13214.66
695.13	13380.84
695.26	13404.25
695.39	13125.72
695.53	13469.78
695.66	13355.10
695.80	13324.67
695.93	13273.18
696.07	13231.05
696.20	13415.95
696.33	13022.74
696.47	12823.80
696.60	12650.60
696.73	12926.78
696.87	12669.32
697.00	12830.82
697.14	12622.51
697.27	12528.89
697.40	12809.75
697.54	12229.30
697.67	12503.14
697.80	12135.68
697.94	12271.43
698.07	12222.28
698.21	12222.28
698.34	12451.65
698.47	12140.36
698.61	12294.83
698.74	12126.32
698.87	12250.36
699.01	12187.17
699.14	12060.78
699.27	11796.30
699.40	11903.96
699.54	11859.49
699.67	12016.31
699.80	11779.92
699.94	11393.73
700.07	11548.20
700.20	11384.37
700.34	11377.34
700.47	11396.07
700.60	11265.00
700.73	11281.38
700.87	11325.85
701.00	11405.43
701.13	11227.55
701.26	11440.54
701.40	11311.81
701.53	11351.60
701.66	11173.72
701.79	11110.52
701.93	10995.84
702.06	10869.45
702.19	10733.70
702.32	10778.17
702.46	10766.46
702.59	10684.55
702.72	10466.88
702.85	10665.82
702.99	10420.06
703.12	10298.36
703.25	10289.00
703.38	10438.79
703.51	10532.41
703.65	10356.87
703.78	10324.10
703.91	10326.44
704.04	10305.38
704.17	10300.70
704.31	10153.24
704.44	10094.73
704.57	10129.84
704.70	10134.52
704.83	9935.57
704.96	9788.12
705.10	9699.18
705.23	9715.56
>>>>>End Processed Spectral Data<<<<<
