SpectraSuite Data File
++++++++++++++++++++++++++++++++++++
Date: Fri Oct 18 13:58:41 GMT-05:00 2013
User: bianchi
Dark Spectrum Present: No
Reference Spectrum Present: No
Number of Sampled Component Spectra: 1
Spectrometers: USB2+H05261
Integration Time (usec): 50000 (USB2+H05261)
Spectra Averaged: 1 (USB2+H05261)
Boxcar Smoothing: 0 (USB2+H05261)
Correct for Electrical Dark: No (USB2+H05261)
Strobe/Lamp Enabled: No (USB2+H05261)
Correct for Detector Non-linearity: No (USB2+H05261)
Correct for Stray Light: No (USB2+H05261)
Number of Pixels in Processed Spectrum: 2048
>>>>>Begin Processed Spectral Data<<<<<
365.73	0.00
365.92	0.00
366.12	0.00
366.32	0.00
366.52	0.00
366.72	0.00
366.91	0.00
367.11	0.00
367.31	0.00
367.51	0.00
367.70	0.00
367.90	0.00
368.10	0.00
368.30	0.00
368.49	0.00
368.69	0.00
368.89	0.00
369.09	0.00
369.28	0.00
369.48	0.00
369.68	0.00
369.87	0.00
370.07	0.00
370.27	0.00
370.47	0.00
370.66	81.92
370.86	98.30
371.06	72.56
371.25	110.01
371.45	110.01
371.65	140.43
371.84	135.75
372.04	238.73
372.24	147.45
372.44	117.03
372.63	255.12
372.83	241.08
373.03	231.71
373.22	168.52
373.42	220.01
373.62	229.37
373.81	142.77
374.01	191.92
374.21	210.65
374.40	205.97
374.60	266.82
374.79	194.26
374.99	217.67
375.19	330.02
375.38	217.67
375.58	131.07
375.78	243.42
375.97	285.55
376.17	315.97
376.37	292.57
376.56	210.65
376.76	262.14
376.95	229.37
377.15	308.95
377.35	283.20
377.54	285.55
377.74	159.16
377.93	215.33
378.13	306.61
378.33	313.63
378.52	311.29
378.72	271.50
378.91	259.80
379.11	330.02
379.31	318.31
379.50	299.59
379.70	252.78
379.89	372.15
380.09	250.44
380.28	227.03
380.48	337.04
380.68	334.70
380.87	334.70
381.07	262.14
381.26	322.99
381.46	346.40
381.65	395.55
381.85	304.27
382.04	287.89
382.24	334.70
382.43	292.57
382.63	428.32
382.83	304.27
383.02	390.87
383.22	320.65
383.41	379.17
383.61	320.65
383.80	390.87
384.00	353.42
384.19	327.68
384.39	346.40
384.58	332.36
384.78	332.36
384.97	393.21
385.17	395.55
385.36	304.27
385.56	390.87
385.75	388.53
385.95	395.55
386.14	479.81
386.34	428.32
386.53	379.17
386.72	365.12
386.92	374.49
387.11	411.93
387.31	449.38
387.50	421.30
387.70	365.12
387.89	463.43
388.09	379.17
388.28	376.83
388.48	383.85
388.67	496.19
388.86	454.06
389.06	395.55
389.25	514.92
389.45	475.13
389.64	409.59
389.84	404.91
390.03	440.02
390.22	505.56
390.42	468.11
390.61	482.15
390.81	550.03
391.00	451.72
391.19	571.09
391.39	524.28
391.58	617.90
391.78	482.15
391.97	514.92
392.16	507.90
392.36	645.99
392.55	538.32
392.75	545.34
392.94	472.79
393.13	489.17
393.33	575.77
393.52	500.87
393.71	547.69
393.91	552.37
394.10	594.50
394.29	564.07
394.49	608.54
394.68	578.11
394.88	573.43
395.07	669.39
395.26	601.52
395.46	601.52
395.65	571.09
395.84	620.24
396.04	634.29
396.23	624.92
396.42	669.39
396.62	685.78
396.81	709.18
397.00	657.69
397.19	631.94
397.39	716.20
397.58	758.33
397.77	669.39
397.97	706.84
398.16	683.44
398.35	746.63
398.55	688.12
398.74	730.25
398.93	727.91
399.12	699.82
399.32	690.46
399.51	720.88
399.70	746.63
399.90	699.82
400.09	781.74
400.28	777.06
400.47	767.70
400.67	802.80
400.86	800.46
401.05	739.61
401.24	723.23
401.44	868.34
401.63	826.21
401.82	748.97
402.01	842.59
402.21	788.76
402.40	856.64
402.59	849.61
402.78	851.96
402.97	800.46
403.17	842.59
403.36	891.74
403.55	866.00
403.74	877.70
403.93	964.30
404.13	936.21
404.32	987.71
404.51	868.34
404.70	875.36
404.89	851.96
405.09	990.05
405.28	976.00
405.47	842.59
405.66	880.04
405.85	931.53
406.05	983.02
406.24	1008.77
406.43	1039.20
406.62	1048.56
406.81	1130.48
407.00	898.77
407.20	997.07
407.39	1095.37
407.58	1076.65
407.77	1135.16
407.96	1011.11
408.15	1032.18
408.34	1144.52
408.54	983.02
408.73	1081.33
408.92	1170.27
409.11	1130.48
409.30	1102.39
409.49	1219.42
409.68	1174.95
409.87	1090.69
410.07	1217.08
410.26	1252.19
410.45	1135.16
410.64	1249.85
410.83	1198.35
411.02	1214.74
411.21	1247.51
411.40	1240.48
411.59	1186.65
411.78	1268.57
411.98	1240.48
412.17	1294.32
412.36	1308.36
412.55	1455.81
412.74	1282.61
412.93	1373.89
413.12	1418.36
413.31	1432.41
413.50	1390.28
413.69	1324.74
413.88	1399.64
414.07	1474.54
414.26	1523.69
414.45	1488.58
414.64	1418.36
414.83	1451.13
415.02	1413.68
415.22	1561.14
415.41	1600.93
415.60	1423.05
415.79	1458.15
415.98	1666.46
416.17	1619.65
416.36	1657.10
416.55	1710.93
416.74	1610.29
416.93	1605.61
417.12	1603.27
417.31	1621.99
417.50	1717.95
417.69	1668.80
417.88	1764.76
418.07	1703.91
418.26	1732.00
418.45	1729.66
418.64	1804.55
418.83	1849.02
419.02	1722.63
419.21	1893.49
419.39	1839.66
419.58	1692.21
419.77	1767.10
419.96	1912.22
420.15	1891.15
420.34	1853.70
420.53	1818.60
420.72	1856.04
420.91	1900.52
421.10	1963.71
421.29	2001.16
421.48	1849.02
421.67	2005.84
421.86	1916.90
422.05	1919.24
422.24	1944.99
422.43	2031.58
422.61	2019.88
422.80	2008.18
422.99	2001.16
423.18	1952.01
423.37	1963.71
423.56	1977.75
423.75	2003.50
423.94	2019.88
424.13	1961.37
424.32	1944.99
424.50	2069.03
424.69	2108.82
424.88	2024.56
425.07	2008.18
425.26	2090.10
425.45	1952.01
425.64	2005.84
425.83	2045.63
426.01	2073.71
426.20	2080.74
426.39	2129.89
426.58	2033.93
426.77	2059.67
426.96	2090.10
427.15	2129.89
427.33	2099.46
427.52	2076.06
427.71	2221.17
427.90	2043.29
428.09	2195.42
428.28	2253.94
428.46	2167.34
428.65	2218.83
428.84	2242.23
429.03	2265.64
429.22	2165.00
429.40	2289.04
429.59	2207.13
429.78	2139.25
429.97	2111.16
430.16	2204.78
430.34	2375.64
430.53	2242.23
430.72	2431.82
430.91	2307.77
431.10	2314.79
431.28	2410.75
431.47	2380.32
431.66	2394.37
431.85	2300.75
432.03	2408.41
432.22	2499.69
432.41	2420.11
432.60	2401.39
432.79	2370.96
432.97	2502.03
433.16	2361.60
433.35	2448.20
433.54	2492.67
433.72	2616.72
433.91	2394.37
434.10	2612.04
434.28	2466.92
434.47	2548.84
434.66	2527.78
434.85	2637.78
435.03	2562.89
435.22	2399.05
435.41	2546.50
435.59	2658.85
435.78	2586.29
435.97	2609.70
436.16	2722.04
436.34	2616.72
436.53	2616.72
436.72	2815.66
436.90	2588.63
437.09	2595.65
437.28	2726.72
437.46	2672.89
437.65	2726.72
437.84	2925.67
438.02	2808.64
438.21	2698.64
438.40	2750.13
438.58	2904.60
438.77	2920.99
438.96	2773.53
439.14	2986.52
439.33	3021.63
439.52	3019.29
439.70	2913.97
439.89	2958.44
440.08	2974.82
440.26	2965.46
440.45	3115.25
440.63	3068.44
440.82	3143.34
441.01	3070.78
441.19	3124.62
441.38	3262.71
441.57	3215.90
441.75	3229.94
441.94	3281.43
442.12	3098.87
442.31	3246.32
442.50	3262.71
442.68	3274.41
442.87	3260.37
443.05	3248.66
443.24	3157.38
443.43	3398.46
443.61	3283.77
443.80	3304.84
443.98	3325.90
444.17	3363.35
444.35	3236.96
444.54	3428.88
444.73	3611.45
444.91	3478.04
445.10	3407.82
445.28	3442.93
445.47	3356.33
445.65	3386.76
445.84	3592.72
446.02	3471.01
446.21	3485.06
446.39	3407.82
446.58	3492.08
446.77	3496.76
446.95	3428.88
447.14	3358.67
447.32	3529.53
447.51	3438.25
447.69	3508.46
447.88	3468.67
448.06	3358.67
448.25	3461.65
448.43	3431.23
448.62	3513.14
448.80	3405.48
448.99	3665.28
449.17	3676.98
449.36	3632.51
449.54	3644.21
449.73	3714.43
449.91	3658.26
450.10	3578.68
450.28	3662.94
450.46	3693.37
450.65	3770.60
450.83	3733.15
451.02	3779.97
451.20	3810.39
451.39	3866.56
451.57	3779.97
451.76	3733.15
451.94	3700.39
452.13	3824.44
452.31	3796.35
452.49	3681.66
452.68	3957.85
452.86	3896.99
453.05	3845.50
453.23	3927.42
453.42	4016.36
453.60	3871.25
453.78	3911.04
453.97	3922.74
454.15	3932.10
454.34	3904.01
454.52	4014.02
454.70	3894.65
454.89	3922.74
455.07	3960.19
455.26	4131.05
455.44	3985.93
455.62	4074.87
455.81	4131.05
455.99	4128.70
456.17	4198.92
456.36	4145.09
456.54	4124.02
456.73	4175.52
456.91	4264.46
457.09	4311.27
457.28	4257.43
457.46	4299.56
457.64	4409.57
457.83	4285.52
458.01	4362.76
458.19	4374.46
458.38	4383.82
458.56	4468.08
458.74	4334.67
458.93	4463.40
459.11	4367.44
459.29	4636.60
459.48	4402.55
459.66	4407.23
459.84	4547.66
460.03	4561.70
460.21	4418.93
460.39	4463.40
460.57	4484.47
460.76	4596.81
460.94	4655.33
461.12	4657.67
461.31	4641.28
461.49	4575.75
461.67	4613.20
461.85	4861.29
462.04	4608.51
462.22	4695.11
462.40	4842.57
462.59	4809.80
462.77	4706.82
462.95	4713.84
463.13	4847.25
463.32	4854.27
463.50	4755.97
463.68	4753.63
463.86	4798.10
464.05	4856.61
464.23	4737.24
464.41	4959.60
464.59	4830.87
464.78	5020.45
464.96	4887.04
465.14	4873.00
465.32	4968.96
465.50	5132.79
465.69	4924.49
465.87	4898.74
466.05	4940.87
466.23	5069.60
466.41	5085.98
466.60	5097.69
466.78	4917.47
466.96	4755.97
467.14	5284.93
467.32	5144.50
467.51	5172.58
467.69	5011.09
467.87	5170.24
468.05	5114.07
468.23	5158.54
468.41	5011.09
468.60	5158.54
468.78	5207.69
468.96	5130.45
469.14	5383.23
469.32	5231.10
469.50	5111.73
469.69	5401.96
469.87	5434.72
470.05	5591.54
470.23	5481.53
470.41	5390.25
470.59	5345.78
470.77	5568.13
470.95	5397.28
471.14	5626.65
471.32	5341.10
471.50	5455.79
471.68	5631.33
471.86	5610.26
472.04	5605.58
472.22	5603.24
472.40	5729.63
472.58	5689.84
472.77	5760.06
472.95	5746.02
473.13	5844.32
473.31	5750.70
473.49	5710.91
473.67	5769.42
473.85	5816.23
474.03	6022.20
474.21	5996.45
474.39	6061.99
474.57	5799.85
474.75	6078.37
474.93	6258.59
475.12	6174.33
475.30	6356.90
475.48	6111.14
475.66	6139.23
475.84	6291.36
476.02	6235.19
476.20	6211.78
476.38	6352.21
476.56	6516.05
476.74	6600.31
476.92	6565.20
477.10	6293.70
477.28	6736.06
477.46	6506.69
477.64	6736.06
477.82	6754.79
478.00	6878.83
478.18	6913.94
478.36	6993.52
478.54	7052.03
478.72	7037.99
478.90	6991.18
479.08	7059.06
479.26	7136.29
479.44	7290.77
479.62	7412.48
479.80	7410.14
479.98	7562.27
480.16	7665.25
480.34	7550.57
480.52	7588.02
480.70	7588.02
480.88	7548.23
481.06	7552.91
481.24	7658.23
481.41	7667.60
481.59	8030.38
481.77	7915.69
481.95	7899.31
482.13	7918.03
482.31	8177.83
482.49	8142.72
482.67	8145.06
482.85	8306.56
483.03	8599.13
483.21	8568.70
483.39	8800.41
483.57	8578.06
483.74	8580.40
483.92	8650.62
484.10	8875.31
484.28	8931.48
484.46	8854.25
484.64	9245.12
484.82	8940.85
485.00	9029.79
485.18	9245.12
485.35	9434.70
485.53	9331.72
485.71	9284.91
485.89	9486.19
486.07	9427.68
486.25	9589.17
486.43	9659.39
486.61	9750.67
486.78	9839.61
486.96	9919.19
487.14	9961.32
487.32	10061.96
487.50	10178.99
487.68	10122.82
487.85	10455.17
488.03	10420.06
488.21	10410.70
488.39	10436.45
488.57	10537.09
488.75	10848.38
488.92	10925.62
489.10	10827.32
489.28	11021.58
489.46	11075.42
489.64	11096.48
489.81	11154.99
489.99	11080.10
490.17	11318.83
490.35	11351.60
490.53	11522.46
490.70	11527.14
490.88	11637.14
491.06	11623.10
491.24	11686.29
491.41	12025.67
491.59	12002.27
491.77	11793.96
491.95	12156.74
492.13	12208.23
492.30	12123.98
492.48	12320.58
492.66	12252.70
492.84	12435.27
493.01	12318.24
493.19	12711.45
493.37	12606.13
493.54	12950.18
493.72	12959.55
493.90	12755.92
494.08	12795.71
494.25	12910.40
494.43	13160.83
494.61	13334.03
494.79	13500.21
494.96	13132.75
495.14	13397.23
495.32	13362.12
495.49	13652.34
495.67	13591.49
495.85	13874.70
496.02	13795.12
496.20	13748.31
496.38	13600.85
496.55	13949.59
496.73	14197.69
496.91	14354.51
497.09	14272.59
497.26	14281.95
497.44	14146.20
497.62	14171.94
497.79	14604.94
497.97	14417.70
498.14	14857.72
498.32	14588.56
498.50	15035.60
498.67	14920.92
498.85	14920.92
499.03	15009.86
499.20	14965.39
499.38	14963.04
499.56	15166.67
499.73	15358.60
499.91	15037.94
500.08	15468.60
500.26	15239.23
500.44	15599.67
500.61	15435.83
500.79	15382.00
500.97	15470.94
501.14	15740.10
501.32	15974.16
501.49	15590.31
501.67	15737.76
501.84	15812.66
502.02	15775.21
502.20	15964.79
502.37	16402.47
502.55	15946.07
502.72	16177.78
502.90	16100.55
503.07	16222.25
503.25	16388.43
503.43	16348.64
503.60	16629.51
503.78	16664.61
503.95	16060.76
504.13	16379.07
504.30	16489.07
504.48	16641.21
504.65	16578.01
504.83	16706.74
505.01	16858.88
505.18	17099.95
505.36	16966.54
505.53	17008.67
505.71	17048.46
505.88	17130.38
506.06	17041.44
506.23	17319.96
506.41	17415.93
506.58	17273.15
506.76	17502.53
506.93	17401.88
507.11	17500.19
507.28	17380.82
507.46	17657.00
507.63	17607.85
507.81	17879.35
507.98	17781.05
508.16	17586.79
508.33	17628.92
508.50	17710.83
508.68	17844.24
508.85	18019.78
509.03	18036.17
509.20	18277.24
509.38	18242.14
509.55	18452.78
509.73	18356.82
509.90	18335.76
510.08	18368.52
510.25	18576.83
510.42	18342.78
510.60	18567.47
510.77	18558.11
510.95	18335.76
511.12	18637.69
511.30	18771.10
511.47	18754.71
511.64	18661.09
511.82	18860.04
511.99	18745.35
512.17	19014.51
512.34	19220.48
512.51	19241.54
512.69	18780.46
512.86	19398.36
513.04	19344.53
513.21	19323.46
513.38	19461.55
513.56	19328.14
513.73	19225.16
513.90	19627.73
514.08	19381.98
514.25	19531.77
514.43	19489.64
514.60	19721.35
514.77	19917.96
514.95	19927.32
515.12	19583.26
515.29	19695.61
515.47	19838.38
515.64	20053.71
515.81	19934.34
515.99	19866.47
516.16	20418.83
516.33	20161.37
516.51	20280.74
516.68	20053.71
516.85	20435.22
517.03	20460.96
517.20	20444.58
517.37	20240.95
517.54	20442.24
517.72	20893.96
517.89	20357.98
518.06	20704.38
518.24	21018.01
518.41	20414.15
518.58	20877.58
518.75	20945.45
518.93	20889.28
519.10	20903.32
519.27	20805.02
519.45	20842.47
519.62	21013.33
519.79	21167.80
519.96	20936.09
520.14	21238.02
520.31	20985.24
520.48	21209.93
520.65	21083.55
520.83	21252.06
521.00	21275.47
521.17	21490.80
521.34	21731.87
521.52	21738.90
521.69	21942.52
521.86	21401.86
522.03	21937.84
522.20	21909.75
522.38	21610.17
522.55	21961.25
522.72	22073.59
522.89	21752.94
523.07	21912.10
523.24	22073.59
523.41	21825.50
523.58	22012.74
523.75	22071.25
523.92	21961.25
524.10	21762.30
524.27	22340.41
524.44	22317.01
524.61	22246.79
524.78	22394.25
524.96	22649.36
525.13	22118.06
525.30	22286.58
525.47	22434.03
525.64	22279.56
525.81	22672.77
525.98	22682.13
526.16	22679.79
526.33	22754.69
526.50	23000.44
526.67	22686.81
526.84	22843.63
527.01	22817.88
527.18	22972.36
527.36	23073.00
527.53	22941.93
527.70	23480.25
527.87	23283.65
528.04	23110.45
528.21	22867.03
528.38	23007.47
528.55	23349.18
528.72	23372.59
528.89	23784.52
529.07	23044.91
529.24	23302.37
529.41	23711.97
529.58	23283.65
529.75	23243.86
529.92	23655.79
530.09	23236.84
530.26	23709.63
530.43	23545.79
530.60	23733.03
530.77	23580.90
530.94	23477.91
531.11	23601.96
531.28	23709.63
531.46	23702.61
531.63	23990.49
531.80	23955.38
531.97	23957.72
532.14	23676.86
532.31	23793.89
532.48	24070.07
532.65	23812.61
532.82	23917.93
532.99	24177.73
533.16	24126.24
533.33	24446.90
533.50	24367.32
533.67	24208.16
533.84	24002.19
534.01	24290.08
534.18	24149.65
534.35	24423.49
534.52	24236.25
534.69	24224.54
534.86	24865.85
535.03	24533.50
535.20	24269.01
535.37	24577.97
535.54	24849.47
535.71	24467.96
535.88	24348.59
536.05	24606.05
536.22	24926.71
536.38	24739.46
536.55	25032.03
536.72	25238.00
536.89	24683.29
537.06	24945.43
537.23	25053.09
537.40	24837.76
537.57	24781.59
537.74	25060.12
537.91	25254.38
538.08	25092.88
538.25	25081.18
538.42	25238.00
538.59	25266.08
538.75	25027.35
538.92	25284.81
539.09	25270.76
539.26	25418.22
539.43	25462.69
539.60	25530.56
539.77	25450.99
539.94	25893.35
540.11	25687.38
540.28	25226.29
540.44	25486.09
540.61	25333.96
540.78	25483.75
540.95	25476.73
541.12	25781.00
541.29	25570.35
541.46	25584.40
541.62	26026.76
541.79	25935.48
541.96	25675.68
542.13	26054.84
542.30	25823.13
542.47	26141.44
542.63	25851.22
542.80	26148.46
542.97	25961.22
543.14	26490.18
543.31	26291.24
543.48	26157.83
543.64	26331.03
543.81	26387.20
543.98	26188.25
544.15	26335.71
544.32	26417.63
544.48	26368.48
544.65	26663.38
544.82	26441.03
544.99	26326.35
545.16	26401.24
545.32	26438.69
545.49	26654.02
545.66	26883.39
545.83	26881.05
546.00	26883.39
546.16	26431.67
546.33	26691.47
546.50	26338.05
546.67	26937.23
546.83	26560.40
547.00	26658.70
547.17	26778.07
547.34	26665.72
547.50	26955.95
547.67	26974.67
547.84	27016.80
548.00	26998.08
548.17	27168.94
548.34	26951.27
548.51	27239.15
548.67	26740.62
548.84	26892.76
549.01	27187.66
549.18	27040.21
549.34	27377.25
549.51	27447.46
549.68	27080.00
549.84	27253.20
550.01	27218.09
550.18	27021.48
550.34	27150.21
550.51	27503.64
550.68	27402.99
550.84	27143.19
551.01	27604.28
551.18	27094.04
551.34	26855.31
551.51	27278.94
551.68	27501.29
551.84	27686.20
552.01	27651.09
552.18	27534.06
552.34	27454.48
552.51	28095.79
552.68	27250.86
552.84	27765.78
553.01	27735.35
553.18	27936.63
553.34	27737.69
553.51	27974.08
553.67	27917.91
553.84	27821.95
554.01	28191.75
554.17	27744.71
554.34	27864.08
554.51	27899.19
554.67	28116.86
554.84	28109.83
555.00	28453.89
555.17	27936.63
555.33	28126.22
555.50	28002.17
555.67	28264.31
555.83	28233.88
556.00	27950.68
556.16	28313.46
556.33	28304.10
556.50	28208.14
556.66	28388.36
556.83	28304.10
556.99	28362.61
557.16	28582.62
557.32	28290.06
557.49	28388.36
557.65	28198.77
557.82	28329.84
557.98	28201.11
558.15	28458.57
558.32	28362.61
558.48	28636.45
558.65	28376.66
558.81	28489.00
558.98	28182.39
559.14	28821.36
559.31	28283.03
559.47	28039.62
559.64	28540.49
559.80	28936.04
559.97	28781.57
560.13	28819.02
560.30	28601.35
560.46	28758.16
560.63	28371.97
560.79	28826.04
560.96	29043.71
561.12	28278.35
561.29	28325.16
561.45	28837.74
561.61	28914.98
561.78	28701.99
561.94	28477.30
562.11	28676.24
562.27	28737.10
562.44	28664.54
562.60	28774.55
562.77	28694.97
562.93	29125.63
563.10	29076.48
563.26	28835.40
563.42	28924.34
563.59	28858.81
563.75	28978.17
563.92	29046.05
564.08	28591.98
564.24	28947.75
564.41	28870.51
564.57	29034.35
564.74	28615.39
564.90	29385.43
565.07	28900.94
565.23	29191.16
565.39	29071.79
565.56	28821.36
565.72	28936.04
565.88	28837.74
566.05	28584.96
566.21	29315.21
566.38	29081.16
566.54	29071.79
566.70	29521.18
566.87	29525.86
567.03	29347.98
567.19	29329.25
567.36	29310.53
567.52	29106.90
567.68	29392.45
567.85	29240.31
568.01	29207.55
568.17	29142.01
568.34	29177.12
568.50	29287.12
568.66	29247.33
568.83	29645.23
568.99	29338.62
569.15	29605.44
569.32	29254.36
569.48	29324.57
569.64	29598.41
569.81	29764.59
569.97	29406.49
570.13	29673.31
570.30	28982.85
570.46	29530.54
570.62	29687.36
570.78	29369.04
570.95	29343.30
571.11	29490.75
571.27	29214.57
571.43	28842.42
571.60	29450.96
571.76	29415.85
571.92	29659.27
572.09	29486.07
572.25	29621.82
572.41	29713.10
572.57	29542.24
572.74	29383.09
572.90	29331.59
573.06	29434.58
573.22	29514.16
573.38	29647.57
573.55	29172.44
573.71	29813.74
573.87	29804.38
574.03	29640.54
574.20	29511.81
574.36	29663.95
574.52	29184.14
574.68	29418.19
574.84	29364.36
575.01	29479.05
575.17	29680.33
575.33	29577.35
575.49	29532.88
575.65	29710.76
575.82	29642.88
575.98	29654.59
576.14	29387.77
576.30	29820.77
576.46	29401.81
576.62	29500.11
576.79	29968.22
576.95	29795.02
577.11	29804.38
577.27	29565.65
577.43	29724.80
577.59	29661.61
577.75	29687.36
577.92	29715.44
578.08	29434.58
578.24	29633.52
578.40	29575.01
578.56	29685.01
578.72	29682.67
578.88	29872.26
579.04	29982.26
579.21	29591.39
579.37	30012.69
579.53	29788.00
579.69	29628.84
579.85	29565.65
580.01	29668.63
580.17	29523.52
580.33	29607.78
580.49	29633.52
580.65	29947.15
580.82	30115.67
580.98	29734.17
581.14	30038.44
581.30	30260.79
581.46	29558.63
581.62	29635.86
581.78	29315.21
581.94	29682.67
582.10	29752.89
582.26	29998.65
582.42	29532.88
582.58	29818.42
582.74	29429.90
582.90	30019.71
583.06	29862.90
583.22	29439.26
583.38	29392.45
583.54	29666.29
583.70	29862.90
583.86	29954.18
584.02	29820.77
584.18	30256.11
584.34	30073.54
584.50	29867.58
584.66	29979.92
584.82	29252.02
584.98	29982.26
585.14	29776.30
585.30	29626.50
585.46	29535.22
585.62	29748.21
585.78	30232.70
585.94	29226.27
586.10	29883.96
586.26	29998.65
586.42	29579.69
586.58	29844.17
586.74	29832.47
586.90	29867.58
587.06	29867.58
587.22	29876.94
587.38	29790.34
587.54	30125.04
587.70	30125.04
587.86	30256.11
588.02	30110.99
588.18	30169.51
588.34	30146.10
588.49	29764.59
588.65	30003.33
588.81	29862.90
588.97	29944.81
589.13	29825.45
589.29	29628.84
589.45	30101.63
589.61	29865.24
589.77	30499.52
589.93	30099.29
590.08	30094.61
590.24	30312.28
590.40	30422.28
590.56	30401.22
590.72	30305.26
590.88	29972.90
591.04	30036.09
591.20	30424.62
591.35	30235.04
591.51	30513.56
591.67	30749.96
591.83	30209.29
591.99	30089.93
592.15	30314.62
592.31	30363.77
592.46	29708.42
592.62	30267.81
592.78	30218.66
592.94	30132.06
593.10	30244.40
593.26	30349.73
593.41	29975.24
593.57	30223.34
593.73	30403.56
593.89	30305.26
594.05	30125.04
594.20	30288.87
594.36	30096.95
594.52	30457.39
594.68	30253.76
594.84	30132.06
594.99	30019.71
595.15	30525.27
595.31	30405.90
595.47	30216.32
595.62	30408.24
595.78	30375.47
595.94	30609.53
596.10	30389.52
596.25	30080.56
596.41	30265.47
596.57	29949.50
596.73	30103.97
596.88	30314.62
597.04	30501.86
597.20	30155.46
597.36	30597.82
597.51	30588.46
597.67	30457.39
597.83	30178.87
597.99	30415.26
598.14	30075.88
598.30	30256.11
598.46	30099.29
598.61	30632.93
598.77	30054.82
598.93	30511.22
599.09	30639.95
599.24	30951.24
599.40	30462.07
599.56	30644.63
599.71	30808.47
599.87	30419.94
600.03	30611.87
600.18	30010.35
600.34	30302.92
600.50	30370.79
600.65	30506.54
600.81	30548.67
600.97	30712.51
601.12	30883.37
601.28	30508.88
601.44	30703.15
601.59	30448.03
601.75	30497.18
601.91	30328.66
602.06	30307.60
602.22	30639.95
602.37	30253.76
602.53	30342.70
602.69	30892.73
602.84	30338.02
603.00	30466.75
603.16	30590.80
603.31	30536.97
603.47	30726.55
603.62	30391.86
603.78	30443.35
603.94	30022.05
604.09	30452.71
604.25	30555.69
604.40	30410.58
604.56	30459.73
604.71	30473.78
604.87	30506.54
605.03	30565.06
605.18	30522.93
605.34	30536.97
605.49	30494.84
605.65	30735.92
605.80	30029.07
605.96	30230.36
606.12	30380.15
606.27	30607.19
606.43	29940.13
606.58	30635.27
606.74	30389.52
606.89	30621.23
607.05	30443.35
607.20	30373.13
607.36	30345.05
607.51	30513.56
607.67	30197.59
607.82	30019.71
607.98	30064.18
608.13	29940.13
608.29	30181.21
608.44	30300.58
608.60	30424.62
608.75	30525.27
608.91	30478.46
609.06	30335.68
609.22	30258.45
609.37	30232.70
609.53	30476.12
609.68	29930.77
609.84	30019.71
609.99	29855.87
610.15	29935.45
610.30	29867.58
610.46	30218.66
610.61	29933.11
610.76	30141.42
610.92	30370.79
611.07	29998.65
611.23	29916.73
611.38	29771.61
611.54	30054.82
611.69	29766.93
611.84	30433.99
612.00	30110.99
612.15	29570.33
612.31	30298.23
612.46	30150.78
612.62	29986.94
612.77	30192.91
612.92	30513.56
613.08	30113.33
613.23	30040.78
613.39	29523.52
613.54	29472.03
613.69	29919.07
613.85	29916.73
614.00	30204.61
614.15	30017.37
614.31	29832.47
614.46	30448.03
614.62	29963.54
614.77	29593.73
614.92	29823.11
615.08	29509.47
615.23	29919.07
615.38	29666.29
615.54	29542.24
615.69	29752.89
615.84	29310.53
616.00	29523.52
616.15	29462.66
616.30	29776.30
616.46	29668.63
616.61	29729.48
616.76	30022.05
616.92	29830.13
617.07	29879.28
617.22	29476.71
617.37	29130.31
617.53	29479.05
617.68	29420.53
617.83	29359.68
617.99	29509.47
618.14	29549.26
618.29	29806.72
618.45	29460.32
618.60	29638.20
618.75	29450.96
618.90	29640.54
619.06	29249.67
619.21	29516.50
619.36	29333.93
619.51	29242.65
619.67	28966.47
619.82	29069.45
619.97	29448.62
620.12	29228.61
620.28	29184.14
620.43	29436.92
620.58	29614.80
620.73	29490.75
620.89	29336.27
621.04	29127.97
621.19	29502.45
621.34	29600.76
621.49	29092.86
621.65	28999.24
621.80	29172.44
621.95	29041.37
622.10	29198.18
622.25	28872.85
622.41	28725.39
622.56	28727.74
622.71	29244.99
622.86	28961.79
623.01	29017.96
623.16	28648.16
623.32	28833.06
623.47	28854.12
623.62	29130.31
623.77	29191.16
623.92	28804.97
624.07	28734.76
624.23	28774.55
624.38	28889.23
624.53	28980.51
624.68	28999.24
624.83	28863.49
624.98	28891.57
625.13	28807.31
625.29	28994.56
625.44	28774.55
625.59	28519.43
625.74	28652.84
625.89	28704.33
626.04	28575.60
626.19	28638.80
626.34	28407.08
626.49	28577.94
626.65	28746.46
626.80	28290.06
626.95	28250.27
627.10	28334.53
627.25	28350.91
627.40	28371.97
627.55	28603.69
627.70	28161.33
627.85	28329.84
628.00	28386.02
628.15	28439.85
628.30	28379.00
628.45	28493.68
628.60	28086.43
628.76	28367.29
628.91	28491.34
629.06	28182.39
629.21	28093.45
629.36	28023.23
629.51	28334.53
629.66	28041.96
629.81	27983.44
629.96	28004.51
630.11	27999.83
630.26	28257.29
630.41	28292.40
630.56	27990.47
630.71	28315.80
630.86	28077.07
631.01	28142.60
631.16	27880.46
631.31	28226.86
631.46	27716.62
631.61	28250.27
631.76	28196.43
631.91	27761.09
632.06	27807.90
632.21	27852.38
632.36	28144.94
632.51	27632.36
632.66	27445.12
632.81	27302.35
632.96	27927.27
633.10	27967.06
633.25	28084.09
633.40	27906.21
633.55	27840.67
633.70	27489.59
633.85	27662.79
634.00	27594.92
634.15	27346.82
634.30	27372.57
634.45	27201.71
634.60	27515.34
634.75	27707.26
634.90	27491.93
635.05	27623.00
635.19	27725.99
635.34	27557.47
635.49	27597.26
635.64	27608.96
635.79	27557.47
635.94	27402.99
636.09	27543.42
636.24	27515.34
636.39	27222.77
636.53	27302.35
636.68	27264.90
636.83	27367.88
636.98	27124.47
637.13	27452.14
637.28	27271.92
637.43	27761.09
637.57	27360.86
637.72	27077.66
637.87	27421.72
638.02	27424.06
638.17	27058.93
638.32	27330.44
638.46	27133.83
638.61	27550.45
638.76	26890.41
638.91	26946.59
639.06	26841.26
639.20	26946.59
639.35	27370.22
639.50	26918.50
639.65	26995.74
639.80	27166.60
639.94	27274.26
640.09	27215.75
640.24	27140.85
640.39	26614.23
640.54	26761.69
640.68	26824.88
640.83	26740.62
640.98	26841.26
641.13	26565.08
641.27	27016.80
641.42	26508.91
641.57	27023.83
641.72	27040.21
641.86	26841.26
642.01	26431.67
642.16	26672.74
642.31	26597.85
642.45	26843.60
642.60	26450.39
642.75	26295.92
642.90	26328.69
643.04	26316.98
643.19	26419.97
643.34	26705.51
643.48	26534.65
643.63	26766.37
643.78	26822.54
643.93	26546.36
644.07	26487.84
644.22	26916.16
644.37	26663.38
644.51	26665.72
644.66	26515.93
644.81	26749.98
644.95	26389.54
645.10	26485.50
645.25	26288.90
645.39	26401.24
645.54	26831.90
645.69	26340.39
645.83	26464.44
645.98	26216.34
646.13	26546.36
646.27	26546.36
646.42	26555.72
646.57	26511.25
646.71	26448.05
646.86	26244.43
647.00	26314.64
647.15	26473.80
647.30	26232.72
647.44	25965.90
647.59	26246.77
647.74	25926.11
647.88	26216.34
648.03	25912.07
648.17	26204.64
648.32	26417.63
648.47	26225.70
648.61	26260.81
648.76	26260.81
648.90	26106.34
649.05	25975.27
649.20	26167.19
649.34	26302.94
649.49	25558.65
649.63	25462.69
649.78	25694.40
649.92	26078.25
650.07	26185.91
650.21	25858.24
650.36	26267.83
650.51	25781.00
650.65	25874.62
650.80	26113.36
650.94	25996.33
651.09	25965.90
651.23	25305.87
651.38	25495.46
651.52	25720.15
651.67	25579.71
651.81	26043.14
651.96	25743.55
652.10	25802.07
652.25	25610.14
652.39	25673.34
652.54	26029.10
652.68	25741.21
652.83	25820.79
652.97	25876.96
653.12	25696.74
653.26	25572.69
653.41	25647.59
653.55	25560.99
653.70	25455.67
653.84	25450.99
653.99	25298.85
654.13	25551.63
654.27	25362.04
654.42	25359.70
654.56	25640.57
654.71	25621.84
654.85	25167.78
655.00	25455.67
655.14	25252.04
655.29	25184.16
655.43	25006.28
655.57	25287.15
655.72	25041.39
655.86	25149.06
656.01	25144.38
656.15	24877.55
656.30	25130.33
656.44	25200.55
656.58	24863.51
656.73	25055.43
656.87	25017.99
657.01	25170.12
657.16	25216.93
657.30	24861.17
657.45	25357.36
657.59	25212.25
657.73	24865.85
657.88	24861.17
658.02	24734.78
658.16	24769.89
658.31	24568.60
658.45	24732.44
658.60	24699.67
658.74	24769.89
658.88	25191.19
659.03	24779.25
659.17	24943.09
659.31	24599.03
659.46	24893.94
659.60	24861.17
659.74	25071.82
659.89	24781.59
660.03	24706.70
660.17	24444.56
660.32	24437.53
660.46	24273.70
660.60	23854.74
660.74	24615.41
660.89	24549.88
661.03	24570.94
661.17	24680.95
661.32	24467.96
661.46	24140.29
661.60	24240.93
661.74	24460.94
661.89	23929.64
662.03	24229.23
662.17	23941.34
662.31	23934.32
662.46	24266.67
662.60	23974.11
662.74	24236.25
662.88	23929.64
663.03	23999.85
663.17	23831.33
663.31	23344.50
663.45	23737.71
663.60	23742.39
663.74	23885.17
663.88	24128.58
664.02	23868.78
664.17	24114.54
664.31	23513.02
664.45	23608.98
664.59	23601.96
664.73	23709.63
664.88	23651.11
665.02	23477.91
665.16	23580.90
665.30	23543.45
665.44	23283.65
665.59	23033.21
665.73	23248.54
665.87	23405.36
666.01	23697.92
666.15	23206.41
666.29	23536.43
666.44	23211.09
666.58	22752.35
666.72	23117.47
666.86	23356.21
667.00	23126.83
667.14	23133.86
667.28	23080.02
667.43	23065.98
667.57	22642.34
667.71	23005.13
667.85	22508.93
667.99	23012.15
668.13	22796.82
668.27	22899.80
668.41	22841.29
668.56	22574.47
668.70	22682.13
668.84	22534.68
668.98	22658.73
669.12	22848.31
669.26	22719.58
669.40	22644.68
669.54	22806.18
669.68	22490.21
669.82	21944.86
669.96	22230.41
670.10	22356.80
670.25	22288.92
670.39	22148.49
670.53	22066.57
670.67	22251.47
670.81	22340.41
670.95	22022.10
671.09	21923.80
671.23	22141.47
671.37	22658.73
671.51	22518.29
671.65	22127.42
671.79	21781.03
671.93	21745.92
672.07	21762.30
672.21	21511.86
672.35	21734.21
672.49	21502.50
672.63	21867.63
672.77	21628.89
672.91	21289.51
673.05	21369.09
673.19	21654.64
673.33	21692.08
673.47	21441.65
673.61	21228.66
673.75	21518.89
673.89	21357.39
674.03	21296.53
674.17	21425.26
674.31	21408.88
674.45	21062.48
674.59	21184.19
674.73	20793.32
674.87	20823.75
675.01	21104.61
675.15	21083.55
675.29	20680.97
675.43	20786.30
675.56	20947.79
675.70	20748.85
675.84	20865.88
675.98	20292.44
676.12	20872.90
676.26	21090.57
676.40	20877.58
676.54	20622.46
676.68	20491.39
676.82	20236.27
676.96	20491.39
677.10	20353.30
677.23	19971.79
677.37	20212.87
677.51	20222.23
677.65	20238.61
677.79	20032.65
677.93	20219.89
678.07	19885.19
678.21	19580.92
678.34	19723.69
678.48	19566.88
678.62	19676.88
678.76	19580.92
678.90	19545.81
679.04	19199.41
679.18	19665.18
679.31	19171.33
679.45	19339.85
679.59	18899.83
679.73	19021.53
679.87	18970.04
680.00	18801.52
680.14	19044.94
680.28	18803.86
680.42	18747.69
680.56	19058.98
680.70	19096.43
680.83	19082.39
680.97	18576.83
681.11	18649.39
681.25	18628.32
681.39	18649.39
681.52	18588.53
681.66	18860.04
681.80	18537.04
681.94	18293.63
682.07	18277.24
682.21	18171.92
682.35	18192.98
682.49	18209.37
682.62	18111.07
682.76	18120.43
682.90	18132.13
683.04	18008.08
683.17	18061.91
683.31	17865.31
683.45	18188.30
683.59	17788.07
683.72	17617.21
683.86	17603.17
684.00	17652.32
684.13	17621.89
684.27	17528.27
684.41	17338.69
684.55	17296.56
684.68	17207.62
684.82	16793.34
684.96	16828.45
685.09	17188.89
685.23	16959.52
685.37	17184.21
685.50	17233.36
685.64	16844.84
685.78	16751.21
685.91	16940.80
686.05	17214.64
686.19	16793.34
686.32	16666.95
686.46	16414.18
686.60	16416.52
686.73	16519.50
686.87	16402.47
687.01	16723.13
687.14	16395.45
687.28	15831.38
687.42	16250.34
687.55	15932.03
687.69	16294.81
687.82	16343.96
687.96	15934.37
688.10	15929.69
688.23	16276.09
688.37	15992.88
688.50	15779.89
688.64	15885.22
688.78	15646.48
688.91	15613.71
689.05	15747.12
689.18	15365.62
689.32	15321.15
689.46	15419.45
689.59	14911.55
689.73	15325.83
689.86	15367.96
690.00	15274.34
690.13	15211.14
690.27	15030.92
690.41	14925.60
690.54	15075.39
690.68	15047.30
690.81	14949.00
690.95	15208.80
691.08	15073.05
691.22	14956.02
691.35	14850.70
691.49	14717.29
691.62	14693.88
691.76	14726.65
691.89	14494.94
692.03	14504.30
692.16	14129.81
692.30	14253.86
692.43	14253.86
692.57	14307.69
692.70	14277.27
692.84	14256.20
692.97	13888.74
693.11	14113.43
693.24	14045.55
693.38	13799.80
693.51	13877.04
693.65	13874.70
693.78	13481.49
693.92	13914.48
694.05	13888.74
694.19	13797.46
694.32	13432.33
694.45	13544.68
694.59	13263.82
694.72	13341.05
694.86	13202.96
694.99	13128.06
695.13	13256.79
695.26	13214.66
695.39	13088.28
695.53	13439.36
695.66	13118.70
695.80	12985.29
695.93	13104.66
696.07	12975.93
696.20	13102.32
696.33	12912.74
696.47	12762.94
696.60	12535.91
696.73	12809.75
696.87	12746.56
697.00	12791.03
697.14	12484.42
697.27	12231.64
697.40	12147.38
697.54	12365.05
697.67	12308.88
697.80	11978.86
697.94	12177.81
698.07	12098.23
698.21	11964.82
698.34	12131.00
698.47	12009.29
698.61	12098.23
698.74	11847.79
698.87	12020.99
699.01	11674.59
699.14	11847.79
699.27	11564.59
699.40	12063.12
699.54	11620.76
699.67	11496.71
699.80	11435.86
699.94	11571.61
700.07	11295.43
700.20	11110.52
700.34	11213.51
700.47	11119.89
700.60	11297.77
700.73	11300.11
700.87	11192.44
701.00	11021.58
701.13	11183.08
701.26	10979.45
701.40	11159.67
701.53	11075.42
701.66	10995.84
701.79	10824.98
701.93	10864.77
702.06	10684.55
702.19	10572.20
702.32	10658.80
702.46	10466.88
702.59	10335.81
702.72	10602.63
702.85	10267.93
702.99	10279.63
703.12	10242.18
703.25	10363.89
703.38	10363.89
703.51	10258.57
703.65	10274.95
703.78	10129.84
703.91	10291.34
704.04	10129.84
704.17	10207.08
704.31	10085.37
704.44	9980.04
704.57	9916.85
704.70	9809.19
704.83	9872.38
704.96	9696.84
705.10	9846.63
705.23	9497.89
>>>>>End Processed Spectral Data<<<<<
