SpectraSuite Data File
++++++++++++++++++++++++++++++++++++
Date: Fri Oct 18 13:58:14 GMT-05:00 2013
User: bianchi
Dark Spectrum Present: No
Reference Spectrum Present: No
Number of Sampled Component Spectra: 1
Spectrometers: USB2+H05261
Integration Time (usec): 50000 (USB2+H05261)
Spectra Averaged: 1 (USB2+H05261)
Boxcar Smoothing: 0 (USB2+H05261)
Correct for Electrical Dark: No (USB2+H05261)
Strobe/Lamp Enabled: No (USB2+H05261)
Correct for Detector Non-linearity: No (USB2+H05261)
Correct for Stray Light: No (USB2+H05261)
Number of Pixels in Processed Spectrum: 2048
>>>>>Begin Processed Spectral Data<<<<<
365.73	25.75
365.92	25.75
366.12	25.75
366.32	0.00
366.52	0.00
366.72	0.00
366.91	0.00
367.11	0.00
367.31	0.00
367.51	0.00
367.70	0.00
367.90	0.00
368.10	0.00
368.30	0.00
368.49	0.00
368.69	0.00
368.89	0.00
369.09	0.00
369.28	0.00
369.48	0.00
369.68	0.00
369.87	0.00
370.07	0.00
370.27	0.00
370.47	18.72
370.66	60.85
370.86	42.13
371.06	119.37
371.25	100.64
371.45	128.73
371.65	102.98
371.84	168.52
372.04	145.11
372.24	222.35
372.44	166.18
372.63	168.52
372.83	220.01
373.03	133.41
373.22	245.76
373.42	264.48
373.62	257.46
373.81	238.73
374.01	222.35
374.21	170.86
374.40	269.16
374.60	243.42
374.79	180.22
374.99	238.73
375.19	245.76
375.38	203.63
375.58	301.93
375.78	271.50
375.97	238.73
376.17	315.97
376.37	259.80
376.56	266.82
376.76	313.63
376.95	255.12
377.15	290.23
377.35	297.25
377.54	339.38
377.74	217.67
377.93	330.02
378.13	262.14
378.33	236.39
378.52	234.05
378.72	280.86
378.91	259.80
379.11	276.18
379.31	346.40
379.50	257.46
379.70	344.06
379.89	290.23
380.09	299.59
380.28	292.57
380.48	294.91
380.68	325.33
380.87	292.57
381.07	407.25
381.26	294.91
381.46	259.80
381.65	290.23
381.85	341.72
382.04	330.02
382.24	334.70
382.43	271.50
382.63	365.12
382.83	360.44
383.02	325.33
383.22	372.15
383.41	299.59
383.61	320.65
383.80	383.85
384.00	428.32
384.19	318.31
384.39	337.04
384.58	306.61
384.78	390.87
384.97	327.68
385.17	360.44
385.36	416.62
385.56	414.27
385.75	339.38
385.95	437.68
386.14	341.72
386.34	423.64
386.53	374.49
386.72	360.44
386.92	437.68
387.11	477.47
387.31	386.19
387.50	461.09
387.70	433.00
387.89	418.96
388.09	479.81
388.28	425.98
388.48	425.98
388.67	496.19
388.86	496.19
389.06	463.43
389.25	407.25
389.45	533.64
389.64	451.72
389.84	458.74
390.03	465.77
390.22	531.30
390.42	535.98
390.61	418.96
390.81	477.47
391.00	491.51
391.19	444.70
391.39	531.30
391.58	470.45
391.78	456.40
391.97	545.34
392.16	559.39
392.36	566.41
392.55	580.45
392.75	496.19
392.94	580.45
393.13	608.54
393.33	545.34
393.52	503.22
393.71	613.22
393.91	643.65
394.10	596.84
394.29	592.16
394.49	554.71
394.68	638.97
394.88	547.69
395.07	655.35
395.26	564.07
395.46	599.18
395.65	589.82
395.84	594.50
396.04	608.54
396.23	571.09
396.42	608.54
396.62	631.94
396.81	624.92
397.00	606.20
397.19	667.05
397.39	599.18
397.58	748.97
397.77	592.16
397.97	662.37
398.16	702.16
398.35	732.59
398.55	706.84
398.74	669.39
398.93	732.59
399.12	655.35
399.32	697.48
399.51	706.84
399.70	657.69
399.90	711.52
400.09	823.87
400.28	835.57
400.47	765.36
400.67	844.93
400.86	784.08
401.05	837.91
401.24	849.61
401.44	842.59
401.63	849.61
401.82	812.17
402.01	784.08
402.21	884.72
402.40	809.83
402.59	770.04
402.78	889.40
402.97	919.83
403.17	854.30
403.36	931.53
403.55	798.12
403.74	830.89
403.93	847.27
404.13	947.92
404.32	945.58
404.51	887.06
404.70	912.81
404.89	905.79
405.09	929.19
405.28	954.94
405.47	987.71
405.66	994.73
405.85	924.51
406.05	926.85
406.24	1006.43
406.43	1015.79
406.62	1060.26
406.81	1118.78
407.00	990.05
407.20	1067.28
407.39	1043.88
407.58	1064.94
407.77	1114.10
407.96	1137.50
408.15	1121.12
408.34	1081.33
408.54	1135.16
408.73	1104.73
408.92	1102.39
409.11	1137.50
409.30	1135.16
409.49	1111.75
409.68	1156.22
409.87	1095.37
410.07	1156.22
410.26	1203.04
410.45	1184.31
410.64	1198.35
410.83	1071.97
411.02	1263.89
411.21	1245.16
411.40	1247.51
411.59	1252.19
411.78	1118.78
411.98	1266.23
412.17	1291.98
412.36	1299.00
412.55	1418.36
412.74	1453.47
412.93	1357.51
413.12	1303.68
413.31	1362.19
413.50	1291.98
413.69	1369.21
413.88	1465.18
414.07	1401.98
414.26	1411.34
414.45	1519.01
414.64	1483.90
414.83	1526.03
415.02	1544.75
415.22	1563.48
415.41	1493.26
415.60	1497.94
415.79	1521.35
415.98	1540.07
416.17	1612.63
416.36	1619.65
416.55	1624.33
416.74	1551.78
416.93	1535.39
417.12	1600.93
417.31	1753.06
417.50	1701.57
417.69	1739.02
417.88	1783.49
418.07	1682.85
418.26	1729.66
418.45	1668.80
418.64	1760.08
418.83	1804.55
419.02	1788.17
419.21	1839.66
419.39	1877.11
419.58	1790.51
419.77	1757.74
419.96	1881.79
420.15	1858.39
420.34	1795.19
420.53	1811.57
420.72	1947.33
420.91	1888.81
421.10	1984.77
421.29	1923.92
421.48	1968.39
421.67	1893.49
421.86	2010.52
422.05	1973.07
422.24	1935.62
422.43	1977.75
422.61	1963.71
422.80	2029.24
422.99	1984.77
423.18	2019.88
423.37	2012.86
423.56	1952.01
423.75	2125.21
423.94	1942.64
424.13	1872.43
424.32	1893.49
424.50	2057.33
424.69	2242.23
424.88	2099.46
425.07	1968.39
425.26	2019.88
425.45	2038.61
425.64	2015.20
425.83	1966.05
426.01	2125.21
426.20	1994.14
426.39	2097.12
426.58	2052.65
426.77	2066.69
426.96	2069.03
427.15	2019.88
427.33	2066.69
427.52	2209.47
427.71	2132.23
427.90	2183.72
428.09	2118.18
428.28	2207.13
428.46	2239.89
428.65	2143.93
428.84	2312.45
429.03	2307.77
429.22	2099.46
429.40	2129.89
429.59	2345.22
429.78	2429.48
429.97	2188.40
430.16	2253.94
430.34	2209.47
430.53	2333.51
430.72	2300.75
430.91	2282.02
431.10	2335.85
431.28	2314.79
431.47	2326.49
431.66	2553.52
431.85	2345.22
432.03	2513.74
432.22	2509.05
432.41	2457.56
432.60	2506.71
432.79	2410.75
432.97	2387.35
433.16	2375.64
433.35	2436.50
433.54	2457.56
433.72	2565.23
433.91	2504.37
434.10	2686.94
434.28	2548.84
434.47	2555.86
434.66	2562.89
434.85	2630.76
435.03	2511.39
435.22	2548.84
435.41	2679.91
435.59	2682.25
435.78	2572.25
435.97	2689.28
436.16	2658.85
436.34	2670.55
436.53	2633.10
436.72	2715.02
436.90	2693.96
437.09	2708.00
437.28	2668.21
437.46	2729.06
437.65	2719.70
437.84	2906.95
438.02	2825.03
438.21	2832.05
438.40	2792.26
438.58	2970.14
438.77	2977.16
438.96	2963.12
439.14	2993.55
439.33	2876.52
439.52	2979.50
439.70	3089.51
439.89	3096.53
440.08	3108.23
440.26	3040.36
440.45	3007.59
440.63	3082.49
440.82	3047.38
441.01	3145.68
441.19	3138.66
441.38	3274.41
441.57	3157.38
441.75	3148.02
441.94	3265.05
442.12	3253.34
442.31	3449.95
442.50	3288.45
442.68	3325.90
442.87	3272.07
443.05	3372.71
443.24	3325.90
443.43	3384.41
443.61	3384.41
443.80	3405.48
443.98	3391.44
444.17	3262.71
444.35	3321.22
444.54	3342.28
444.73	3463.99
444.91	3370.37
445.10	3463.99
445.28	3478.04
445.47	3487.40
445.65	3435.91
445.84	3478.04
446.02	3503.78
446.21	3531.87
446.39	3534.21
446.58	3576.34
446.77	3412.50
446.95	3447.61
447.14	3482.72
447.32	3527.19
447.51	3520.17
447.69	3433.57
447.88	3510.80
448.06	3602.08
448.25	3452.29
448.43	3574.00
448.62	3506.12
448.80	3665.28
448.99	3557.61
449.17	3578.68
449.36	3719.11
449.54	3648.90
449.73	3730.81
449.91	3644.21
450.10	3735.50
450.28	3845.50
450.46	3782.31
450.65	3779.97
450.83	3889.97
451.02	3833.80
451.20	3824.44
451.39	3946.14
451.57	3723.79
451.76	3878.27
451.94	3908.69
452.13	3906.35
452.31	3941.46
452.49	3885.29
452.68	3833.80
452.86	3964.87
453.05	3927.42
453.23	3955.51
453.42	3943.80
453.60	3831.46
453.78	3857.20
453.97	3880.61
454.15	3932.10
454.34	4142.75
454.52	4056.15
454.70	3939.12
454.89	3934.44
455.07	4088.92
455.26	4175.52
455.44	4135.73
455.62	4051.47
455.81	3957.85
455.99	4156.79
456.17	4072.53
456.36	4067.85
456.54	4182.54
456.73	4250.41
456.91	4393.19
457.09	4262.12
457.28	4248.07
457.46	4201.26
457.64	4390.84
457.83	4205.94
458.01	4379.14
458.19	4313.61
458.38	4507.87
458.56	4444.68
458.74	4400.21
458.93	4547.66
459.11	4362.76
459.29	4435.32
459.48	4470.42
459.66	4594.47
459.84	4753.63
460.03	4627.24
460.21	4622.56
460.39	4397.87
460.57	4423.61
460.76	4514.89
460.94	4685.75
461.12	4617.88
461.31	4655.33
461.49	4683.41
461.67	4500.85
461.85	4706.82
462.04	4718.52
462.22	5100.03
462.40	4807.46
462.59	4725.54
462.77	4751.29
462.95	4739.58
463.13	4774.69
463.32	4844.91
463.50	4800.44
463.68	4894.06
463.86	4905.76
464.05	4793.42
464.23	5008.75
464.41	4999.38
464.59	4798.10
464.78	4933.85
464.96	4877.68
465.14	4779.37
465.32	5043.85
465.50	4980.66
465.69	5102.37
465.87	5025.13
466.05	4980.66
466.23	5074.28
466.41	4992.36
466.60	5128.11
466.78	5184.29
466.96	5137.48
467.14	5046.20
467.32	5214.71
467.51	5238.12
467.69	5177.26
467.87	5193.65
468.05	5280.25
468.23	5212.37
468.41	5060.24
468.60	5282.59
468.78	5291.95
468.96	5214.71
469.14	5261.52
469.32	5507.28
469.50	5135.14
469.69	5348.12
469.87	5488.56
470.05	5369.19
470.23	5329.40
470.41	5413.66
470.59	5626.65
470.77	5416.00
470.95	5518.98
471.14	5544.73
471.32	5507.28
471.50	5638.35
471.68	5664.10
471.86	5467.49
472.04	5640.69
472.22	5809.21
472.40	5818.57
472.58	5790.49
472.77	5738.99
472.95	5774.10
473.13	5970.71
473.31	5802.19
473.49	5893.47
473.67	5706.23
473.85	5977.73
474.03	6150.93
474.21	6019.86
474.39	6101.78
474.57	6139.23
474.75	6209.44
474.93	6071.35
475.12	6211.78
475.30	6291.36
475.48	6251.57
475.66	6293.70
475.84	6415.41
476.02	6267.95
476.20	6366.26
476.38	6483.28
476.56	6438.81
476.74	6675.21
476.92	6464.56
477.10	6490.31
477.28	6778.19
477.46	6743.08
477.64	6771.17
477.82	6899.90
478.00	7131.61
478.18	7028.63
478.36	7042.67
478.54	7084.80
478.72	7089.48
478.90	7239.28
479.08	7368.01
479.26	7321.20
479.44	7208.85
479.62	7438.22
479.80	7506.10
479.98	7218.21
480.16	7531.84
480.34	7588.02
480.52	7616.10
480.70	7812.71
480.88	7686.32
481.06	7679.30
481.24	7740.15
481.41	7859.52
481.59	8060.80
481.77	7999.95
481.95	7969.52
482.13	8245.71
482.31	8280.82
482.49	8294.86
482.67	8128.68
482.85	8383.80
483.03	8599.13
483.21	8631.90
483.39	8564.02
483.57	8608.49
483.74	8809.78
483.92	8849.57
484.10	8936.17
484.28	8971.27
484.46	9151.49
484.64	9118.73
484.82	8865.95
485.00	9193.62
485.18	9397.25
485.35	9507.26
485.53	9369.16
485.71	9268.52
485.89	9841.95
486.07	9558.75
486.25	9591.52
486.43	9675.77
486.61	9762.37
486.78	9942.60
486.96	9914.51
487.14	10141.54
487.32	10068.98
487.50	10129.84
487.68	10214.10
487.85	10298.36
488.03	10567.52
488.21	10490.28
488.39	10485.60
488.57	10904.56
488.75	10899.87
488.92	11033.29
489.10	11117.54
489.28	10846.04
489.46	11211.17
489.64	11140.95
489.81	11400.75
489.99	11609.06
490.17	11337.56
490.35	11618.42
490.53	11543.52
490.70	11639.48
490.88	11522.46
491.06	11929.71
491.24	11927.37
491.41	11602.04
491.59	11880.56
491.77	12030.35
491.95	12233.98
492.13	12241.00
492.30	12463.35
492.48	12463.35
492.66	12456.33
492.84	12449.31
493.01	12566.34
493.19	12592.08
493.37	12816.77
493.54	12940.82
493.72	13034.44
493.90	12894.01
494.08	13020.40
494.25	13036.78
494.43	13261.48
494.61	13317.65
494.79	13394.89
494.96	13624.26
495.14	13390.20
495.32	13783.41
495.49	13650.00
495.67	13853.63
495.85	13516.59
496.02	13958.96
496.20	13694.47
496.38	14279.61
496.55	14204.71
496.73	14473.87
496.91	14230.46
497.09	14195.35
497.26	14497.28
497.44	14469.19
497.62	14497.28
497.79	14960.70
497.97	14600.26
498.14	14750.06
498.32	15049.64
498.50	15108.16
498.67	14972.41
498.85	15260.29
499.03	15040.28
499.20	15119.86
499.38	15094.11
499.56	15389.02
499.73	15363.28
499.91	15800.96
500.08	15714.36
500.26	15662.86
500.44	15578.61
500.61	15634.78
500.79	15543.50
500.97	15707.34
501.14	15917.98
501.32	15971.82
501.49	15693.29
501.67	15922.66
501.84	16184.80
502.02	15971.82
502.20	15964.79
502.37	16292.47
502.55	16383.75
502.72	16294.81
502.90	16435.24
503.07	16402.47
503.25	16713.77
503.43	16470.35
503.60	16615.46
503.78	16826.11
503.95	16723.13
504.13	16826.11
504.30	16762.92
504.48	16788.66
504.65	16737.17
504.83	17067.19
505.01	17469.76
505.18	17214.64
505.36	17114.00
505.53	16982.93
505.71	17179.53
505.88	17167.83
506.06	16863.56
506.23	17287.20
506.41	17528.27
506.58	17549.34
506.76	17383.16
506.93	17626.57
507.11	17516.57
507.28	17661.68
507.46	17823.18
507.63	17774.03
507.81	17954.25
507.98	17661.68
508.16	18370.86
508.33	18211.71
508.50	18017.44
508.68	18118.09
508.85	18068.94
509.03	18202.35
509.20	18394.27
509.38	18459.81
509.55	18363.84
509.73	18286.61
509.90	18420.02
510.08	18499.59
510.25	18672.79
510.42	18431.72
510.60	18768.76
510.77	18909.19
510.95	19094.09
511.12	18628.32
511.30	18438.74
511.47	18862.38
511.64	18918.55
511.82	19061.32
511.99	19108.13
512.17	19190.05
512.34	19133.88
512.51	19091.75
512.69	19569.22
512.86	19590.28
513.04	19311.76
513.21	19473.26
513.38	19456.87
513.56	19669.86
513.73	19735.40
513.90	19269.63
514.08	19442.83
514.25	19847.74
514.43	19716.67
514.60	20006.90
514.77	20147.33
514.95	20255.00
515.12	19988.18
515.29	19988.18
515.47	20180.10
515.64	20098.18
515.81	20063.07
515.99	20458.62
516.16	20610.76
516.33	19960.09
516.51	20566.29
516.68	20350.96
516.85	20627.14
517.03	20650.55
517.20	20760.55
517.37	20989.92
517.54	20863.54
517.72	20690.34
517.89	20568.63
518.06	20854.17
518.24	20830.77
518.41	20908.01
518.58	20638.84
518.75	20947.79
518.93	21074.18
519.10	21095.25
519.27	21364.41
519.45	21158.44
519.62	21153.76
519.79	20915.03
519.96	21163.12
520.14	21518.89
520.31	21504.84
520.48	21664.00
520.65	21455.69
520.83	21734.21
521.00	21350.37
521.17	21324.62
521.34	21703.79
521.52	21671.02
521.69	22089.98
521.86	21998.70
522.03	21954.22
522.20	21834.86
522.38	21855.92
522.55	21940.18
522.72	22026.78
522.89	22141.47
523.07	22265.52
523.24	22270.20
523.41	22295.94
523.58	22300.62
523.75	22455.10
523.92	22160.19
524.10	22412.97
524.27	22497.23
524.44	22527.66
524.61	22991.08
524.78	22696.17
524.96	22478.50
525.13	22682.13
525.30	22658.73
525.47	22689.15
525.64	22932.57
525.81	23068.32
525.98	22836.61
526.16	22986.40
526.33	23047.26
526.50	23168.96
526.67	22768.73
526.84	23161.94
527.01	23021.51
527.18	23009.81
527.36	23728.35
527.53	23030.87
527.70	23693.24
527.87	23042.57
528.04	23236.84
528.21	23580.90
528.38	23405.36
528.55	23241.52
528.72	23653.45
528.89	23513.02
529.07	23325.78
529.24	23709.63
529.41	23850.06
529.58	23597.28
529.75	23501.32
529.92	23714.31
530.09	23903.89
530.26	23906.23
530.43	24039.64
530.60	23655.79
530.77	23821.97
530.94	23791.55
531.11	23833.68
531.28	23702.61
531.46	23894.53
531.63	24025.60
531.80	23964.75
531.97	24276.04
532.14	24350.93
532.31	24236.25
532.48	24650.52
532.65	24297.10
532.82	23859.42
532.99	24334.55
533.16	24360.30
533.33	24339.23
533.50	24980.54
533.67	24964.15
533.84	24407.11
534.01	24283.06
534.18	24372.00
534.35	24938.41
534.52	24505.41
534.69	24570.94
534.86	24655.20
535.03	24592.01
535.20	24851.81
535.37	24631.80
535.54	24776.91
535.71	24943.09
535.88	25020.33
536.05	24900.96
536.22	25209.91
536.38	25139.69
536.55	25113.95
536.72	25226.29
536.89	25120.97
537.06	25443.96
537.23	25230.98
537.40	25205.23
537.57	25387.79
537.74	25390.13
537.91	25762.28
538.08	24926.71
538.25	25296.51
538.42	25434.60
538.59	25411.20
538.75	25378.43
538.92	25605.46
539.09	25537.59
539.26	25560.99
539.43	25413.54
539.60	25818.45
539.77	25912.07
539.94	26036.12
540.11	25785.68
540.28	25652.27
540.44	25912.07
540.61	25530.56
540.78	25504.82
540.95	26108.68
541.12	25663.97
541.29	25816.11
541.46	26031.44
541.62	25965.90
541.79	25806.75
541.96	25582.06
542.13	26033.78
542.30	26209.32
542.47	26106.34
542.63	26309.96
542.80	26295.92
542.97	26384.86
543.14	26572.10
543.31	26291.24
543.48	26515.93
543.64	26485.50
543.81	26841.26
543.98	26579.12
544.15	26920.84
544.32	26426.99
544.48	26941.91
544.65	26707.85
544.82	26443.37
544.99	26597.85
545.16	26806.16
545.32	26707.85
545.49	26948.93
545.66	27138.51
545.83	26934.88
546.00	26771.05
546.16	27033.19
546.33	26979.36
546.50	26583.80
546.67	26930.20
546.83	26874.03
547.00	26888.07
547.17	27164.26
547.34	27292.99
547.50	27292.99
547.67	27742.37
547.84	27440.44
548.00	27253.20
548.17	27489.59
548.34	27154.90
548.51	27391.29
548.67	27531.72
548.84	27440.44
549.01	27583.21
549.18	27241.50
549.34	27264.90
549.51	27384.27
549.68	27438.10
549.84	27505.98
550.01	27417.04
550.18	27674.49
550.34	27517.68
550.51	27887.48
550.68	27880.46
550.84	27393.63
551.01	27412.35
551.18	27676.83
551.34	27421.72
551.51	27484.91
551.68	27330.44
551.84	27756.41
552.01	27440.44
552.18	27744.71
552.34	27704.92
552.51	28091.11
552.68	27723.65
552.84	27686.20
553.01	27761.09
553.18	27810.25
553.34	28058.34
553.51	28044.30
553.67	28493.68
553.84	28481.98
554.01	28341.55
554.17	28299.42
554.34	27861.74
554.51	28027.92
554.67	28247.93
554.84	28486.66
555.00	28425.81
555.17	28568.58
555.33	28554.54
555.50	28460.91
555.67	28048.98
555.83	28474.96
556.00	28355.59
556.16	28575.60
556.33	28219.84
556.50	28341.55
556.66	28510.07
556.83	28484.32
556.99	28622.41
557.16	29062.43
557.32	29149.03
557.49	28713.69
557.65	28620.07
557.82	28528.79
557.98	28732.42
558.15	28959.45
558.32	28608.37
558.48	28819.02
558.65	29120.95
558.81	29039.03
558.98	28889.23
559.14	28924.34
559.31	28463.25
559.47	28568.58
559.64	28699.65
559.80	28687.95
559.97	29186.48
560.13	28959.45
560.30	29020.30
560.46	29223.93
560.63	28720.71
560.79	29511.81
560.96	29060.09
561.12	29067.11
561.29	28926.68
561.45	28940.72
561.61	29216.91
561.78	29123.29
561.94	28889.23
562.11	29369.04
562.27	29420.53
562.44	28912.64
562.60	29008.60
562.77	28767.52
562.93	29102.22
563.10	29645.23
563.26	29352.66
563.42	29465.00
563.59	29228.61
563.75	29048.39
563.92	29525.86
564.08	29151.37
564.24	28952.43
564.41	29390.11
564.57	28856.46
564.74	29200.52
564.90	29259.04
565.07	29310.53
565.23	29113.92
565.39	29270.74
565.56	29642.88
565.72	29640.54
565.88	29497.77
566.05	29530.54
566.21	29359.68
566.38	29020.30
566.54	29200.52
566.70	29692.04
566.87	29736.51
567.03	29544.58
567.19	29579.69
567.36	29790.34
567.52	29357.34
567.68	29570.33
567.85	29326.91
568.01	29729.48
568.17	29502.45
568.34	29788.00
568.50	29706.08
568.66	29769.27
568.83	30361.43
568.99	29528.20
569.15	29675.65
569.32	29752.89
569.48	29432.24
569.64	29546.92
569.81	29837.15
569.97	29841.83
570.13	29830.13
570.30	29628.84
570.46	29972.90
570.62	29855.87
570.78	29467.34
570.95	29549.26
571.11	29579.69
571.27	29383.09
571.43	29598.41
571.60	29792.68
571.76	29586.71
571.92	29617.14
572.09	29783.32
572.25	29799.70
572.41	29633.52
572.57	29738.85
572.74	30129.72
572.90	29685.01
573.06	29514.16
573.22	30103.97
573.38	29713.10
573.55	30073.54
573.71	29944.81
573.87	30125.04
574.03	30277.17
574.20	29696.72
574.36	29575.01
574.52	29820.77
574.68	30045.46
574.84	29790.34
575.01	29556.28
575.17	29441.60
575.33	29961.20
575.49	29883.96
575.65	29977.58
575.82	30092.27
575.98	30298.23
576.14	30181.21
576.30	29895.66
576.46	29762.25
576.62	30176.53
576.79	30314.62
576.95	30094.61
577.11	30408.24
577.27	30050.14
577.43	29713.10
577.59	30251.42
577.75	30323.98
577.92	29563.31
578.08	30204.61
578.24	29933.11
578.40	29713.10
578.56	30162.48
578.72	29972.90
578.88	29809.06
579.04	29954.18
579.21	29944.81
579.37	30092.27
579.53	30635.27
579.69	29890.98
579.85	30038.44
580.01	29947.15
580.17	29968.22
580.33	30026.73
580.49	29998.65
580.65	30045.46
580.82	29921.41
580.98	29855.87
581.14	30225.68
581.30	30223.34
581.46	30209.29
581.62	29720.12
581.78	29914.39
581.94	30199.93
582.10	30012.69
582.26	30033.75
582.42	30382.49
582.58	30569.74
582.74	30110.99
582.90	29998.65
583.06	30181.21
583.22	30167.16
583.38	30113.33
583.54	30073.54
583.70	29799.70
583.86	30300.58
584.02	29949.50
584.18	30569.74
584.34	30295.89
584.50	30518.25
584.66	30106.31
584.82	30342.70
584.98	30183.55
585.14	29956.52
585.30	30057.16
585.46	30433.99
585.62	30010.35
585.78	30473.78
585.94	30326.32
586.10	30029.07
586.26	30359.09
586.42	30218.66
586.58	30213.98
586.74	30129.72
586.90	30008.01
587.06	30246.74
587.22	30288.87
587.38	29783.32
587.54	30817.83
587.70	30398.88
587.86	30333.34
588.02	30347.39
588.18	30604.84
588.34	30658.68
588.49	30167.16
588.65	30286.53
588.81	29919.07
588.97	30480.80
589.13	30433.99
589.29	30164.82
589.45	30588.46
589.61	30141.42
589.77	30799.11
589.93	30490.16
590.08	30485.48
590.24	30724.21
590.40	30766.34
590.56	31007.42
590.72	30417.60
590.88	30429.30
591.04	30438.67
591.20	30651.66
591.35	30492.50
591.51	31049.55
591.67	30611.87
591.83	30822.51
591.99	30866.98
592.15	30485.48
592.31	30462.07
592.46	30370.79
592.62	30089.93
592.78	30759.32
592.94	30316.96
593.10	30471.43
593.26	30658.68
593.41	30679.74
593.57	30658.68
593.73	30810.81
593.89	30558.03
594.05	30288.87
594.20	30696.13
594.36	30536.97
594.52	30284.19
594.68	30323.98
594.84	30307.60
594.99	30714.85
595.15	30466.75
595.31	30738.26
595.47	30946.56
595.62	30824.86
595.78	30876.35
595.94	30478.46
596.10	30616.55
596.25	30661.02
596.41	30735.92
596.57	30141.42
596.73	30735.92
596.88	30604.84
597.04	30890.39
597.20	30906.77
597.36	30834.22
597.51	30834.22
597.67	30747.62
597.83	30822.51
597.99	30984.01
598.14	30593.14
598.30	30696.13
598.46	30525.27
598.61	30897.41
598.77	30597.82
598.93	30775.70
599.09	30764.00
599.24	31007.42
599.40	30742.94
599.56	30581.44
599.71	31019.12
599.87	30988.69
600.03	30761.66
600.18	30644.63
600.34	30616.55
600.50	30476.12
600.65	30661.02
600.81	30871.67
600.97	31283.60
601.12	30911.46
601.28	31115.08
601.44	30745.28
601.59	30686.76
601.75	30824.86
601.91	31037.84
602.06	30654.00
602.22	30848.26
602.37	30623.57
602.53	30803.79
602.69	30888.05
602.84	30607.19
603.00	30871.67
603.16	30726.55
603.31	30726.55
603.47	30700.81
603.62	30307.60
603.78	31307.01
603.94	30726.55
604.09	30859.96
604.25	30618.89
604.40	30354.41
604.56	30803.79
604.71	30951.24
604.87	30703.15
605.03	30609.53
605.18	30644.63
605.34	30848.26
605.49	30363.77
605.65	30923.16
605.80	30618.89
605.96	30733.57
606.12	30476.12
606.27	31084.65
606.43	30721.87
606.58	30787.41
606.74	30918.48
606.89	30775.70
607.05	30504.20
607.20	30672.72
607.36	30342.70
607.51	30972.31
607.67	30604.84
607.82	30515.90
607.98	30178.87
608.13	30761.66
608.29	30607.19
608.44	30850.60
608.60	30728.89
608.75	30780.39
608.91	30855.28
609.06	30817.83
609.22	30586.12
609.37	30623.57
609.53	30155.46
609.68	30206.95
609.84	30274.83
609.99	30321.64
610.15	30508.88
610.30	30429.30
610.46	29951.84
610.61	30663.36
610.76	30593.14
610.92	30478.46
611.07	30735.92
611.23	30438.67
611.38	30293.55
611.54	30148.44
611.69	30031.41
611.84	29893.32
612.00	30057.16
612.15	30323.98
612.31	30314.62
612.46	30508.88
612.62	30546.33
612.77	30316.96
612.92	30352.07
613.08	30387.18
613.23	30073.54
613.39	30286.53
613.54	30188.23
613.69	30445.69
613.85	30015.03
614.00	30211.64
614.15	30331.00
614.31	29792.68
614.46	30366.11
614.62	30073.54
614.77	30242.06
614.92	29998.65
615.08	30260.79
615.23	30281.85
615.38	30064.18
615.54	30150.78
615.69	29989.28
615.84	30003.33
616.00	29879.28
616.15	29736.51
616.30	30052.48
616.46	30094.61
616.61	30061.84
616.76	30075.88
616.92	30260.79
617.07	30087.59
617.22	29771.61
617.37	29649.91
617.53	30176.53
617.68	29956.52
617.83	29586.71
617.99	29621.82
618.14	29839.49
618.29	30010.35
618.45	30005.67
618.60	30031.41
618.75	29759.91
618.90	29914.39
619.06	30249.08
619.21	29921.41
619.36	29841.83
619.51	29343.30
619.67	29434.58
619.82	29635.86
619.97	29462.66
620.12	29532.88
620.28	29972.90
620.43	29645.23
620.58	29888.64
620.73	30003.33
620.89	29504.79
621.04	30099.29
621.19	29504.79
621.34	29879.28
621.49	29268.40
621.65	29280.10
621.80	29420.53
621.95	29558.63
622.10	29113.92
622.25	29146.69
622.41	29528.20
622.56	29483.73
622.71	29312.87
622.86	29532.88
623.01	29158.39
623.16	29331.59
623.32	29287.12
623.47	29130.31
623.62	29345.64
623.77	29270.74
623.92	29116.26
624.07	29078.82
624.23	29268.40
624.38	29273.08
624.53	29081.16
624.68	29720.12
624.83	29216.91
624.98	29287.12
625.13	29127.97
625.29	29366.70
625.44	29270.74
625.59	28919.66
625.74	28943.06
625.89	28802.63
626.04	29172.44
626.19	29312.87
626.34	28755.82
626.49	28858.81
626.65	28648.16
626.80	28884.55
626.95	28893.91
627.10	28964.13
627.25	29340.96
627.40	28720.71
627.55	29181.80
627.70	28648.16
627.85	28769.86
628.00	28858.81
628.15	28800.29
628.30	28306.44
628.45	28533.47
628.60	28758.16
628.76	28844.76
628.91	28617.73
629.06	28718.37
629.21	28683.27
629.36	28793.27
629.51	28231.54
629.66	28732.42
629.81	28959.45
629.96	28304.10
630.11	28608.37
630.26	28437.51
630.41	28180.05
630.56	28505.38
630.71	28645.82
630.86	28329.84
631.01	28187.07
631.16	28706.67
631.31	28341.55
631.46	28198.77
631.61	28589.64
631.76	28252.61
631.91	28540.49
632.06	28278.35
632.21	28149.62
632.36	28252.61
632.51	27974.08
632.66	28311.12
632.81	28011.53
632.96	28294.74
633.10	28538.15
633.25	28671.56
633.40	28243.24
633.55	28196.43
633.70	28114.52
633.85	27924.93
634.00	27992.81
634.15	28039.62
634.30	27733.01
634.45	27880.46
634.60	27899.19
634.75	27648.75
634.90	27620.66
635.05	28077.07
635.19	27882.80
635.34	27997.49
635.49	28116.86
635.64	27714.28
635.79	27866.42
635.94	27428.74
636.09	27761.09
636.24	27580.87
636.39	27725.99
636.53	27585.55
636.68	27335.12
636.83	27852.38
636.98	28011.53
637.13	27950.68
637.28	27798.54
637.43	27503.64
637.57	28318.14
637.72	27615.98
637.87	27576.19
638.02	27587.89
638.17	27557.47
638.32	27587.89
638.46	27550.45
638.61	27094.04
638.76	27374.91
638.91	27580.87
639.06	27421.72
639.20	27466.19
639.35	27906.21
639.50	27585.55
639.65	27779.82
639.80	27494.27
639.94	27625.34
640.09	27566.83
640.24	27379.59
640.39	27288.31
640.54	26988.72
640.68	27304.69
640.83	27136.17
640.98	27030.85
641.13	26820.20
641.27	27199.37
641.42	27461.51
641.57	27248.52
641.72	27145.53
641.86	27117.45
642.01	26789.77
642.16	27236.81
642.31	26424.65
642.45	26881.05
642.60	26857.65
642.75	27105.74
642.90	27047.23
643.04	26614.23
643.19	26731.26
643.34	27157.24
643.48	27084.68
643.63	26871.69
643.78	26771.05
643.93	26787.43
644.07	27129.15
644.22	27379.59
644.37	27300.01
644.51	26995.74
644.66	26448.05
644.81	26635.30
644.95	26815.52
645.10	26583.80
645.25	26916.16
645.39	27007.44
645.54	26183.57
645.69	26658.70
645.83	26387.20
645.98	26757.00
646.13	26852.97
646.27	26452.73
646.42	26546.36
646.57	26487.84
646.71	26876.37
646.86	26541.68
647.00	26466.78
647.15	26712.53
647.30	26455.08
647.44	26562.74
647.59	26712.53
647.74	26185.91
647.88	26429.33
648.03	26630.62
648.17	26576.78
648.32	26843.60
648.47	26373.16
648.61	26525.29
648.76	26628.27
648.90	26754.66
649.05	26398.90
649.20	26359.11
649.34	25809.09
649.49	25984.63
649.63	26279.54
649.78	26539.33
649.92	26082.93
650.07	26380.18
650.21	26352.09
650.36	26574.44
650.51	25855.90
650.65	26338.05
650.80	26307.62
650.94	26209.32
651.09	25869.94
651.23	26120.38
651.38	26232.72
651.52	25968.24
651.67	26008.03
651.81	26118.04
651.96	26162.51
652.10	25986.97
652.25	25743.55
652.39	26047.82
652.54	26380.18
652.68	25982.29
652.83	26279.54
652.97	26291.24
653.12	25975.27
653.26	26003.35
653.41	25940.16
653.55	26071.23
653.70	25652.27
653.84	25851.22
653.99	25675.68
654.13	25701.42
654.27	26089.95
654.42	25450.99
654.56	25687.38
654.71	25853.56
654.85	25654.61
655.00	25778.66
655.14	25647.59
655.29	25790.36
655.43	25497.80
655.57	25355.02
655.72	25853.56
655.86	25504.82
656.01	25848.88
656.15	25525.88
656.30	25453.33
656.44	25479.07
656.58	25383.11
656.73	25539.93
656.87	25553.97
657.01	25441.62
657.16	25483.75
657.30	25462.69
657.45	25579.71
657.59	25298.85
657.73	25127.99
657.88	25228.63
658.02	25036.71
658.16	25315.23
658.31	25006.28
658.45	25223.95
658.60	25186.50
658.74	25418.22
658.88	24805.00
659.03	24879.89
659.17	25282.47
659.31	25153.74
659.46	25186.50
659.60	25163.10
659.74	25163.10
659.89	24812.02
660.03	24987.56
660.17	24896.28
660.32	24610.73
660.46	24624.78
660.60	24945.43
660.74	24603.71
660.89	24709.04
661.03	24416.47
661.17	24716.06
661.32	24524.13
661.46	24554.56
661.60	24587.33
661.74	24776.91
661.89	24687.97
662.03	24830.74
662.17	24416.47
662.31	24477.32
662.46	24514.77
662.60	24247.95
662.74	24678.61
662.88	24107.52
663.03	23929.64
663.17	24058.37
663.31	24079.43
663.45	24280.72
663.60	24088.79
663.74	23889.85
663.88	23936.66
664.02	23878.15
664.17	24311.14
664.31	23887.51
664.45	24161.35
664.59	24025.60
664.73	24081.77
664.88	23641.75
665.02	23484.94
665.16	23194.71
665.30	23625.37
665.44	23875.80
665.59	23587.92
665.73	23693.24
665.87	23594.94
666.01	24107.52
666.15	23468.55
666.29	23623.03
666.44	23611.32
666.58	23438.12
666.72	23674.52
666.86	23718.99
667.00	23662.82
667.14	23257.90
667.28	23726.01
667.43	23068.32
667.57	23473.23
667.71	22953.63
667.85	23180.67
667.99	22993.42
668.13	23150.24
668.27	22986.40
668.41	23119.81
668.56	22876.40
668.70	23140.88
668.84	23353.87
668.98	22801.50
669.12	23000.44
669.26	23009.81
669.40	22834.27
669.54	22843.63
669.68	22810.86
669.82	22410.63
669.96	22635.32
670.10	22604.89
670.25	22319.35
670.39	22419.99
670.53	22600.21
670.67	22410.63
670.81	22445.74
670.95	22387.22
671.09	22541.70
671.23	22471.48
671.37	22469.14
671.51	22136.79
671.65	22693.83
671.79	22328.71
671.93	22242.11
672.07	22232.75
672.21	21834.86
672.35	22038.48
672.49	21699.11
672.63	21820.81
672.77	21837.20
672.91	21881.67
673.05	21825.50
673.19	21970.61
673.33	21912.10
673.47	21961.25
673.61	21909.75
673.75	21816.13
673.89	21558.67
674.03	21680.38
674.17	21680.38
674.31	21516.54
674.45	21607.83
674.59	21324.62
674.73	21329.30
674.87	21607.83
675.01	21376.11
675.15	21280.15
675.29	21032.05
675.43	20999.29
675.56	20882.26
675.70	21252.06
675.84	21097.59
675.98	20655.23
676.12	21144.40
676.26	21247.38
676.40	20915.03
676.54	20847.15
676.68	20802.68
676.82	20411.81
676.96	20589.69
677.10	20769.91
677.23	20320.53
677.37	20065.41
677.51	20397.77
677.65	20217.55
677.79	20205.84
677.93	19892.21
678.07	20243.29
678.21	20074.77
678.34	20002.22
678.48	20121.59
678.62	19950.73
678.76	19955.41
678.90	19765.82
679.04	19784.55
679.18	19501.34
679.31	19431.13
679.45	19218.14
679.59	19262.61
679.73	19323.46
679.87	19222.82
680.00	19697.95
680.14	19138.56
680.28	19124.52
680.42	19396.02
680.56	19215.80
680.70	19061.32
680.83	19112.81
680.97	18958.34
681.11	18785.14
681.25	18586.19
681.39	18611.94
681.52	18967.70
681.66	18663.43
681.80	18597.90
681.94	18611.94
682.07	18525.34
682.21	18420.02
682.35	18310.01
682.49	18314.69
682.62	18401.29
682.76	18370.86
682.90	18443.42
683.04	18314.69
683.17	18134.47
683.31	17755.30
683.45	18153.20
683.59	18136.81
683.72	18122.77
683.86	18001.06
684.00	18176.60
684.13	17539.97
684.27	17558.70
684.41	17717.86
684.55	17275.49
684.68	17408.90
684.82	17694.45
684.96	17610.19
685.09	17277.83
685.23	17207.62
685.37	17212.30
685.50	17099.95
685.64	17207.62
685.78	17348.05
685.91	17413.59
686.05	17195.92
686.19	17060.16
686.32	17081.23
686.46	16814.41
686.60	16547.59
686.73	17032.08
686.87	16489.07
687.01	16437.58
687.14	16325.24
687.28	16294.81
687.42	16231.62
687.55	16402.47
687.69	16482.05
687.82	16269.06
687.96	16290.13
688.10	16269.06
688.23	16255.02
688.37	15915.64
688.50	15974.16
688.64	15889.90
688.78	15892.24
688.91	15967.13
689.05	15857.13
689.18	15789.25
689.32	15346.89
689.46	15499.03
689.59	15428.81
689.73	15374.98
689.86	15672.23
690.00	15346.89
690.13	15096.46
690.27	15255.61
690.41	15435.83
690.54	15419.45
690.68	15016.88
690.81	15096.46
690.95	15438.17
691.08	15360.94
691.22	15115.18
691.35	14888.15
691.49	14934.96
691.62	14909.21
691.76	14630.69
691.89	14939.64
692.03	14394.29
692.16	14501.96
692.30	14611.96
692.43	14422.38
692.57	14602.60
692.70	14408.34
692.84	14281.95
692.97	14232.80
693.11	14228.12
693.24	14139.18
693.38	14015.13
693.51	14008.11
693.65	14246.84
693.78	13832.57
693.92	14054.92
694.05	13951.93
694.19	14064.28
694.32	13853.63
694.45	13586.81
694.59	13420.63
694.72	13458.08
694.86	13322.33
694.99	13444.04
695.13	13273.18
695.26	13345.73
695.39	13174.88
695.53	13397.23
695.66	13357.44
695.80	13191.26
695.93	13282.54
696.07	13118.70
696.20	13205.30
696.33	13252.11
696.47	13163.17
696.60	12809.75
696.73	12830.82
696.87	12870.61
697.00	12830.82
697.14	12507.82
697.27	12287.81
697.40	12615.49
697.54	12367.39
697.67	12266.75
697.80	12517.18
697.94	12451.65
698.07	12386.12
698.21	11995.25
698.34	12255.04
698.47	12203.55
698.61	12145.04
698.74	12042.06
698.87	12301.86
699.01	12028.01
699.14	12032.69
699.27	11735.45
699.40	12011.63
699.54	11852.47
699.67	11751.83
699.80	11805.66
699.94	11459.26
700.07	11660.55
700.20	11466.28
700.34	11187.76
700.47	11311.81
700.60	11276.70
700.73	11543.52
700.87	11239.25
701.00	11332.87
701.13	11183.08
701.26	11073.07
701.40	11166.70
701.53	11187.76
701.66	11159.67
701.79	10855.40
701.93	11279.04
702.06	10860.09
702.19	10808.59
702.32	10623.69
702.46	10513.69
702.59	10490.28
702.72	10677.52
702.85	10569.86
702.99	10551.14
703.12	10403.68
703.25	10345.17
703.38	10202.40
703.51	10321.76
703.65	10307.72
703.78	10272.61
703.91	10359.21
704.04	10373.25
704.17	10366.23
704.31	10228.14
704.44	10260.91
704.57	10139.20
704.70	10076.01
704.83	9858.34
704.96	9776.42
705.10	9900.47
705.23	9771.74
>>>>>End Processed Spectral Data<<<<<
