SpectraSuite Data File
++++++++++++++++++++++++++++++++++++
Date: Fri Oct 18 13:58:37 GMT-05:00 2013
User: bianchi
Dark Spectrum Present: No
Reference Spectrum Present: No
Number of Sampled Component Spectra: 1
Spectrometers: USB2+H05261
Integration Time (usec): 50000 (USB2+H05261)
Spectra Averaged: 1 (USB2+H05261)
Boxcar Smoothing: 0 (USB2+H05261)
Correct for Electrical Dark: No (USB2+H05261)
Strobe/Lamp Enabled: No (USB2+H05261)
Correct for Detector Non-linearity: No (USB2+H05261)
Correct for Stray Light: No (USB2+H05261)
Number of Pixels in Processed Spectrum: 2048
>>>>>Begin Processed Spectral Data<<<<<
365.73	0.00
365.92	0.00
366.12	0.00
366.32	0.00
366.52	0.00
366.72	0.00
366.91	0.00
367.11	0.00
367.31	0.00
367.51	0.00
367.70	0.00
367.90	0.00
368.10	0.00
368.30	0.00
368.49	0.00
368.69	0.00
368.89	0.00
369.09	0.00
369.28	0.00
369.48	0.00
369.68	0.00
369.87	0.00
370.07	0.00
370.27	0.00
370.47	35.11
370.66	86.60
370.86	140.43
371.06	86.60
371.25	191.92
371.45	65.54
371.65	149.79
371.84	88.94
372.04	212.99
372.24	84.26
372.44	166.18
372.63	203.63
372.83	212.99
373.03	126.39
373.22	154.48
373.42	222.35
373.62	194.26
373.81	222.35
374.01	238.73
374.21	248.10
374.40	220.01
374.60	278.52
374.79	241.08
374.99	313.63
375.19	217.67
375.38	203.63
375.58	273.84
375.78	297.25
375.97	297.25
376.17	318.31
376.37	161.50
376.56	283.20
376.76	276.18
376.95	243.42
377.15	222.35
377.35	231.71
377.54	255.12
377.74	269.16
377.93	248.10
378.13	320.65
378.33	248.10
378.52	224.69
378.72	236.39
378.91	276.18
379.11	248.10
379.31	344.06
379.50	308.95
379.70	290.23
379.89	292.57
380.09	337.04
380.28	271.50
380.48	344.06
380.68	362.78
380.87	308.95
381.07	306.61
381.26	365.12
381.46	388.53
381.65	271.50
381.85	348.74
382.04	381.51
382.24	334.70
382.43	337.04
382.63	311.29
382.83	313.63
383.02	423.64
383.22	325.33
383.41	376.83
383.61	341.72
383.80	395.55
384.00	301.93
384.19	341.72
384.39	358.10
384.58	367.46
384.78	430.66
384.97	318.31
385.17	358.10
385.36	374.49
385.56	383.85
385.75	414.27
385.95	402.57
386.14	337.04
386.34	369.80
386.53	400.23
386.72	332.36
386.92	425.98
387.11	397.89
387.31	475.13
387.50	451.72
387.70	444.70
387.89	400.23
388.09	397.89
388.28	400.23
388.48	425.98
388.67	491.51
388.86	454.06
389.06	489.17
389.25	526.62
389.45	390.87
389.64	461.09
389.84	477.47
390.03	491.51
390.22	531.30
390.42	517.26
390.61	433.00
390.81	442.36
391.00	491.51
391.19	552.37
391.39	512.58
391.58	491.51
391.78	528.96
391.97	571.09
392.16	603.86
392.36	559.39
392.55	521.94
392.75	582.79
392.94	540.66
393.13	594.50
393.33	564.07
393.52	547.69
393.71	617.90
393.91	535.98
394.10	582.79
394.29	566.41
394.49	587.47
394.68	550.03
394.88	538.32
395.07	587.47
395.26	543.00
395.46	554.71
395.65	580.45
395.84	730.25
396.04	685.78
396.23	631.94
396.42	634.29
396.62	631.94
396.81	734.93
397.00	697.48
397.19	751.31
397.39	695.14
397.58	648.33
397.77	725.57
397.97	671.73
398.16	622.58
398.35	734.93
398.55	748.97
398.74	704.50
398.93	709.18
399.12	697.48
399.32	718.54
399.51	732.59
399.70	704.50
399.90	826.21
400.09	765.36
400.28	744.29
400.47	753.65
400.67	709.18
400.86	758.33
401.05	770.04
401.24	772.38
401.44	873.02
401.63	692.80
401.82	763.01
402.01	779.40
402.21	912.81
402.40	833.23
402.59	734.93
402.78	858.98
402.97	880.04
403.17	933.87
403.36	898.77
403.55	816.85
403.74	840.25
403.93	877.70
404.13	987.71
404.32	882.38
404.51	896.43
404.70	1083.67
404.89	1008.77
405.09	992.39
405.28	940.90
405.47	1006.43
405.66	926.85
405.85	952.60
406.05	931.53
406.24	957.28
406.43	950.26
406.62	1034.52
406.81	1013.45
407.00	1034.52
407.20	1001.75
407.39	1109.41
407.58	1062.60
407.77	1086.01
407.96	1006.43
408.15	1062.60
408.34	1032.18
408.54	1055.58
408.73	1081.33
408.92	1078.99
409.11	1226.44
409.30	1048.56
409.49	1083.67
409.68	1181.97
409.87	1186.65
410.07	1156.22
410.26	1116.44
410.45	1235.80
410.64	1313.04
410.83	1224.10
411.02	1266.23
411.21	1277.93
411.40	1261.55
411.59	1256.87
411.78	1287.29
411.98	1247.51
412.17	1303.68
412.36	1352.83
412.55	1385.60
412.74	1310.70
412.93	1366.87
413.12	1324.74
413.31	1341.13
413.50	1303.68
413.69	1387.94
413.88	1423.05
414.07	1399.64
414.26	1380.92
414.45	1490.92
414.64	1507.30
414.83	1460.49
415.02	1519.01
415.22	1483.90
415.41	1549.43
415.60	1593.90
415.79	1516.67
415.98	1598.59
416.17	1598.59
416.36	1664.12
416.55	1589.22
416.74	1556.46
416.93	1680.50
417.12	1664.12
417.31	1638.38
417.50	1722.63
417.69	1659.44
417.88	1729.66
418.07	1689.87
418.26	1717.95
418.45	1799.87
418.64	1802.21
418.83	1802.21
419.02	1767.10
419.21	1792.85
419.39	1834.98
419.58	1757.74
419.77	1827.96
419.96	1863.07
420.15	1954.35
420.34	1909.88
420.53	1858.39
420.72	1863.07
420.91	1947.33
421.10	1886.47
421.29	1956.69
421.48	1895.83
421.67	2038.61
421.86	1912.22
422.05	1994.14
422.24	2038.61
422.43	1921.58
422.61	2022.22
422.80	2031.58
422.99	2012.86
423.18	2038.61
423.37	1998.82
423.56	2108.82
423.75	1998.82
423.94	1973.07
424.13	1926.26
424.32	1919.24
424.50	2066.69
424.69	2073.71
424.88	2040.95
425.07	1984.77
425.26	2022.22
425.45	2024.56
425.64	2087.76
425.83	1968.39
426.01	2136.91
426.20	2136.91
426.39	2080.74
426.58	2076.06
426.77	2012.86
426.96	2076.06
427.15	1996.48
427.33	2085.42
427.52	2134.57
427.71	2162.66
427.90	2225.85
428.09	2214.15
428.28	2134.57
428.46	2188.40
428.65	2113.50
428.84	2293.72
429.03	2237.55
429.22	2106.48
429.40	2230.53
429.59	2235.21
429.78	2143.93
429.97	2157.97
430.16	2200.10
430.34	2345.22
430.53	2450.54
430.72	2422.45
430.91	2258.62
431.10	2324.15
431.28	2506.71
431.47	2466.92
431.66	2289.04
431.85	2235.21
432.03	2368.62
432.22	2499.69
432.41	2382.67
432.60	2532.46
432.79	2534.80
432.97	2375.64
433.16	2427.14
433.35	2588.63
433.54	2495.01
433.72	2527.78
433.91	2387.35
434.10	2579.27
434.28	2480.97
434.47	2459.90
434.66	2553.52
434.85	2532.46
435.03	2576.93
435.22	2593.31
435.41	2642.46
435.59	2602.68
435.78	2700.98
435.97	2609.70
436.16	2548.84
436.34	2672.89
436.53	2682.25
436.72	2726.72
436.90	2630.76
437.09	2715.02
437.28	2651.83
437.46	2670.55
437.65	2715.02
437.84	2832.05
438.02	2803.96
438.21	2829.71
438.40	2766.51
438.58	2796.94
438.77	3009.93
438.96	2810.98
439.14	2937.37
439.33	2946.73
439.52	2977.16
439.70	2951.42
439.89	2993.55
440.08	2923.33
440.26	2956.10
440.45	3059.08
440.63	2979.50
440.82	3178.45
441.01	3068.44
441.19	3119.93
441.38	3213.56
441.57	3180.79
441.75	3173.77
441.94	3290.79
442.12	3346.97
442.31	3262.71
442.50	3185.47
442.68	3279.09
442.87	3438.25
443.05	3335.26
443.24	3403.14
443.43	3265.05
443.61	3396.12
443.80	3452.29
443.98	3314.20
444.17	3241.64
444.35	3258.03
444.54	3562.30
444.73	3435.91
444.91	3407.82
445.10	3391.44
445.28	3534.21
445.47	3412.50
445.65	3377.39
445.84	3482.72
446.02	3452.29
446.21	3375.05
446.39	3529.53
446.58	3499.10
446.77	3463.99
446.95	3510.80
447.14	3506.12
447.32	3466.33
447.51	3403.14
447.69	3517.83
447.88	3630.17
448.06	3452.29
448.25	3447.61
448.43	3595.06
448.62	3604.42
448.80	3562.30
448.99	3674.64
449.17	3494.42
449.36	3674.64
449.54	3655.92
449.73	3662.94
449.91	3852.52
450.10	3674.64
450.28	3702.73
450.46	3789.33
450.65	3815.07
450.83	3772.94
451.02	3756.56
451.20	3772.94
451.39	3744.86
451.57	3920.40
451.76	3817.41
451.94	3801.03
452.13	3843.16
452.31	3875.93
452.49	3784.65
452.68	3843.16
452.86	3803.37
453.05	3810.39
453.23	3995.29
453.42	3812.73
453.60	3941.46
453.78	3969.55
453.97	3791.67
454.15	3794.01
454.34	3875.93
454.52	4032.74
454.70	4009.34
454.89	4023.38
455.07	4053.81
455.26	3866.56
455.44	3981.25
455.62	4084.23
455.81	4161.47
455.99	4187.22
456.17	4070.19
456.36	4170.83
456.54	4135.73
456.73	4311.27
456.91	4266.80
457.09	4217.65
457.28	4215.30
457.46	4329.99
457.64	4337.01
457.83	4341.69
458.01	4238.71
458.19	4428.29
458.38	4437.66
458.56	4355.74
458.74	4442.34
458.93	4470.42
459.11	4418.93
459.29	4498.51
459.48	4519.57
459.66	4498.51
459.84	4493.83
460.03	4524.26
460.21	4566.39
460.39	4655.33
460.57	4505.53
460.76	4526.60
460.94	4620.22
461.12	4638.94
461.31	4678.73
461.49	4716.18
461.67	4613.20
461.85	4622.56
462.04	4664.69
462.22	4744.27
462.40	4744.27
462.59	4788.74
462.77	4718.52
462.95	4809.80
463.13	4875.34
463.32	4746.61
463.50	4812.14
463.68	4786.40
463.86	4940.87
464.05	4772.35
464.23	4814.48
464.41	4856.61
464.59	4725.54
464.78	4975.98
464.96	4943.21
465.14	4777.03
465.32	5102.37
465.50	5048.54
465.69	5008.75
465.87	5053.22
466.05	4983.00
466.23	5001.72
466.41	4933.85
466.60	5247.48
466.78	5001.72
466.96	4999.38
467.14	5050.88
467.32	5170.24
467.51	5268.55
467.69	5064.92
467.87	5247.48
468.05	4992.36
468.23	5085.98
468.41	5078.96
468.60	5200.67
468.78	5249.82
468.96	5025.13
469.14	5219.39
469.32	5451.11
469.50	5277.91
469.69	5132.79
469.87	5453.45
470.05	5432.38
470.23	5383.23
470.41	5259.18
470.59	5467.49
470.77	5380.89
470.95	5362.17
471.14	5481.53
471.32	5270.89
471.50	5591.54
471.68	5689.84
471.86	5731.97
472.04	5544.73
472.22	5628.99
472.40	5715.59
472.58	5858.36
472.77	5694.52
472.95	5790.49
473.13	6078.37
473.31	5935.60
473.49	5736.65
473.67	5888.79
473.85	5996.45
474.03	5947.30
474.21	6113.48
474.39	5935.60
474.57	6050.28
474.75	6052.63
474.93	6324.13
475.12	6097.10
475.30	6207.10
475.48	6090.07
475.66	6249.23
475.84	6422.43
476.02	6363.92
476.20	6417.75
476.38	6464.56
476.56	6656.48
476.74	6457.54
476.92	6593.29
477.10	6576.91
477.28	6544.14
477.46	6492.65
477.64	6874.15
477.82	6595.63
478.00	7049.69
478.18	6986.50
478.36	6897.56
478.54	7122.25
478.72	7101.19
478.90	6979.48
479.08	7190.13
479.26	7318.86
479.44	7140.97
479.62	7456.95
479.80	7403.11
479.98	7255.66
480.16	7421.84
480.34	7431.20
480.52	7538.87
480.70	7786.96
480.88	7786.96
481.06	7695.68
481.24	7691.00
481.41	7808.03
481.59	7896.97
481.77	7988.25
481.95	8035.06
482.13	8046.76
482.31	8042.08
482.49	8439.97
482.67	8435.29
482.85	8381.46
483.03	8568.70
483.21	8725.52
483.39	8531.25
483.57	8446.99
483.74	8634.24
483.92	8779.35
484.10	8681.05
484.28	8879.99
484.46	9067.24
484.64	9142.13
484.82	8954.89
485.00	9350.44
485.18	9341.08
485.35	9397.25
485.53	9385.55
485.71	9558.75
485.89	9610.24
486.07	9610.24
486.25	9654.71
486.43	9607.90
486.61	9785.78
486.78	9820.89
486.96	10047.92
487.14	9984.73
487.32	10104.09
487.50	10054.94
487.68	10157.92
487.85	10291.34
488.03	10408.36
488.21	10647.10
488.39	10710.29
488.57	10583.90
488.75	10754.76
488.92	10670.50
489.10	10956.05
489.28	11012.22
489.46	11171.38
489.64	10853.06
489.81	11110.52
489.99	11398.41
490.17	11293.08
490.35	11487.35
490.53	11641.82
490.70	11637.14
490.88	11651.19
491.06	11871.20
491.24	11667.57
491.41	11864.18
491.59	12065.46
491.77	11908.65
491.95	12236.32
492.13	12086.53
492.30	12299.52
492.48	12175.47
492.66	12360.37
492.84	12329.94
493.01	12545.27
493.19	12594.42
493.37	12659.96
493.54	12711.45
493.72	12915.08
493.90	12718.47
494.08	12802.73
494.25	13092.96
494.43	13195.94
494.61	13413.61
494.79	13287.22
494.96	13462.76
495.14	13455.74
495.32	13671.07
495.49	13706.18
495.67	13589.15
495.85	13839.59
496.02	13987.04
496.20	14003.43
496.38	14038.53
496.55	14143.86
496.73	14312.38
496.91	14181.31
497.09	14375.57
497.26	14459.83
497.44	14008.11
497.62	14640.05
497.79	14546.43
497.97	14703.25
498.14	14764.10
498.32	14911.55
498.50	15073.05
498.67	15019.22
498.85	14815.59
499.03	14836.66
499.20	15049.64
499.38	15105.82
499.56	15239.23
499.73	15250.93
499.91	15587.97
500.08	15314.13
500.26	15176.03
500.44	15213.48
500.61	15487.32
500.79	15391.36
500.97	15782.23
501.14	15967.13
501.32	15861.81
501.49	15871.17
501.67	15974.16
501.84	15875.85
502.02	15941.39
502.20	15932.03
502.37	16313.53
502.55	16032.67
502.72	16395.45
502.90	16421.20
503.07	16175.44
503.25	16126.29
503.43	15992.88
503.60	16486.73
503.78	16477.37
503.95	16489.07
504.13	16737.17
504.30	16730.15
504.48	16542.91
504.65	17003.99
504.83	16835.47
505.01	17015.69
505.18	16950.16
505.36	17441.67
505.53	17088.25
505.71	17146.76
505.88	17231.02
506.06	17551.68
506.23	17439.33
506.41	17539.97
506.58	17610.19
506.76	17455.72
506.93	17968.29
507.11	17504.87
507.28	17509.55
507.46	17579.76
507.63	17549.34
507.81	17708.49
507.98	17657.00
508.16	17891.06
508.33	17614.87
508.50	17853.61
508.68	17771.69
508.85	18024.47
509.03	18143.83
509.20	18225.75
509.38	18258.52
509.55	18389.59
509.73	18455.12
509.90	18633.00
510.08	18204.69
510.25	18331.08
510.42	18600.24
510.60	18801.52
510.77	18682.16
510.95	18974.72
511.12	18457.46
511.30	18534.70
511.47	18750.03
511.64	18583.85
511.82	19215.80
511.99	18972.38
512.17	18946.64
512.34	18944.30
512.51	19070.68
512.69	19309.42
512.86	19194.73
513.04	19267.29
513.21	19482.62
513.38	19735.40
513.56	19463.90
513.73	19398.36
513.90	19356.23
514.08	19606.67
514.25	19597.31
514.43	20013.92
514.60	19910.94
514.77	20037.33
514.95	19992.86
515.12	19716.67
515.29	19873.49
515.47	20112.22
515.64	20292.44
515.81	19854.76
515.99	19985.83
516.16	19964.77
516.33	20622.46
516.51	20418.83
516.68	20137.97
516.85	19978.81
517.03	20409.47
517.20	20793.32
517.37	20599.05
517.54	20748.85
517.72	20739.49
517.89	20446.92
518.06	20554.58
518.24	20816.72
518.41	20896.30
518.58	20676.29
518.75	20917.37
518.93	20992.26
519.10	21064.82
519.27	21097.59
519.45	21046.10
519.62	21120.99
519.79	21441.65
519.96	21020.35
520.14	21071.84
520.31	21270.79
520.48	21373.77
520.65	20886.94
520.83	21277.81
521.00	21439.31
521.17	21186.53
521.34	21474.42
521.52	21600.80
521.69	21687.40
521.86	21614.85
522.03	21806.77
522.20	21935.50
522.38	21937.84
522.55	21783.37
522.72	21811.45
522.89	22033.80
523.07	22377.86
523.24	21844.22
523.41	22342.75
523.58	21909.75
523.75	22382.54
523.92	22286.58
524.10	22118.06
524.27	22384.88
524.44	22295.94
524.61	22647.02
524.78	22459.78
524.96	22731.28
525.13	22675.11
525.30	22569.79
525.47	22768.73
525.64	22801.50
525.81	22766.39
525.98	22860.01
526.16	22759.37
526.33	22885.76
526.50	23000.44
526.67	22616.60
526.84	22588.51
527.01	22721.92
527.18	23040.23
527.36	23122.15
527.53	23197.05
527.70	23232.16
527.87	23091.73
528.04	23201.73
528.21	23391.31
528.38	23515.36
528.55	23442.81
528.72	23049.60
528.89	23365.57
529.07	23330.46
529.24	23386.63
529.41	23704.95
529.58	23630.05
529.75	23454.51
529.92	23328.12
530.09	23573.88
530.26	23644.09
530.43	23695.58
530.60	23927.30
530.77	23550.47
530.94	23796.23
531.11	24177.73
531.28	23662.82
531.46	24116.88
531.63	23726.01
531.80	23735.37
531.97	24121.56
532.14	24355.61
532.31	24088.79
532.48	24332.21
532.65	24364.98
532.82	24166.03
532.99	24074.75
533.16	24116.88
533.33	24383.70
533.50	24687.97
533.67	24835.42
533.84	24425.83
534.01	24175.39
534.18	24346.25
534.35	24533.50
534.52	24755.85
534.69	24650.52
534.86	24683.29
535.03	24659.88
535.20	24968.84
535.37	24877.55
535.54	24854.15
535.71	24816.70
535.88	24482.00
536.05	24882.24
536.22	24854.15
536.38	24947.77
536.55	24907.98
536.72	24987.56
536.89	25099.90
537.06	25062.46
537.23	25521.20
537.40	25181.82
537.57	25104.59
537.74	24961.81
537.91	25802.07
538.08	25528.22
538.25	25069.48
538.42	25160.76
538.59	25755.26
538.75	25240.34
538.92	25287.15
539.09	25748.23
539.26	25095.22
539.43	25790.36
539.60	25619.50
539.77	25401.83
539.94	25565.67
540.11	25830.15
540.28	25633.55
540.44	25600.78
540.61	25436.94
540.78	25333.96
540.95	25432.26
541.12	25783.34
541.29	25984.63
541.46	25624.18
541.62	25876.96
541.79	25685.04
541.96	25619.50
542.13	26075.91
542.30	26017.40
542.47	25954.20
542.63	25923.77
542.80	26209.32
542.97	26532.31
543.14	26361.45
543.31	26197.62
543.48	26164.85
543.64	26518.27
543.81	26867.01
543.98	26661.04
544.15	26536.99
544.32	26724.24
544.48	26794.45
544.65	26593.17
544.82	26436.35
544.99	26485.50
545.16	26815.52
545.32	26649.34
545.49	26841.26
545.66	26984.04
545.83	26939.57
546.00	26939.57
546.16	26883.39
546.33	26871.69
546.50	26478.48
546.67	27005.10
546.83	26593.17
547.00	26792.11
547.17	26895.10
547.34	27016.80
547.50	27314.05
547.67	26981.70
547.84	27325.75
548.00	27262.56
548.17	27435.76
548.34	27117.45
548.51	27590.24
548.67	27372.57
548.84	27508.32
549.01	27182.98
549.18	27276.60
549.34	27222.77
549.51	27517.68
549.68	27353.84
549.84	27309.37
550.01	27510.66
550.18	27466.19
550.34	27737.69
550.51	27428.74
550.68	27297.67
550.84	27468.53
551.01	27669.81
551.18	27477.89
551.34	26953.61
551.51	27548.11
551.68	27501.29
551.84	27548.11
552.01	28025.57
552.18	27381.93
552.34	27440.44
552.51	28140.26
552.68	27843.01
552.84	28121.54
553.01	27845.35
553.18	27786.84
553.34	27894.50
553.51	27889.82
553.67	28353.25
553.84	28009.19
554.01	28140.26
554.17	27997.49
554.34	28222.18
554.51	28100.47
554.67	28135.58
554.84	28063.02
555.00	28027.92
555.17	28290.06
555.33	28051.32
555.50	28418.78
555.67	28257.29
555.83	28414.10
556.00	28292.40
556.16	27941.32
556.33	28093.45
556.50	28430.49
556.66	28498.36
556.83	28589.64
556.99	28910.30
557.16	28341.55
557.32	28620.07
557.49	28552.20
557.65	28332.18
557.82	28395.38
557.98	28257.29
558.15	28713.69
558.32	28769.86
558.48	28652.84
558.65	28510.07
558.81	28718.37
558.98	28591.98
559.14	28624.75
559.31	28765.18
559.47	28339.21
559.64	28535.81
559.80	28591.98
559.97	28851.78
560.13	28556.88
560.30	28989.88
560.46	28615.39
560.63	28711.35
560.79	28774.55
560.96	28783.91
561.12	28898.59
561.29	28662.20
561.45	28664.54
561.61	28938.38
561.78	28957.11
561.94	28795.61
562.11	29106.90
562.27	29081.16
562.44	29078.82
562.60	28842.42
562.77	28877.53
562.93	28629.43
563.10	28999.24
563.26	29350.32
563.42	29436.92
563.59	29153.71
563.75	29369.04
563.92	29446.28
564.08	29252.02
564.24	28973.49
564.41	28704.33
564.57	28922.00
564.74	29113.92
564.90	29099.88
565.07	29214.57
565.23	29153.71
565.39	29486.07
565.56	29668.63
565.72	29642.88
565.88	29373.72
566.05	29291.80
566.21	28882.21
566.38	29235.63
566.54	29469.69
566.70	29687.36
566.87	29523.52
567.03	29549.26
567.19	29706.08
567.36	29509.47
567.52	29092.86
567.68	29439.26
567.85	29317.55
568.01	29722.46
568.17	29216.91
568.34	29827.79
568.50	29380.74
568.66	29170.10
568.83	29832.47
568.99	29106.90
569.15	29570.33
569.32	29713.10
569.48	29369.04
569.64	29202.86
569.81	29935.45
569.97	29317.55
570.13	29284.78
570.30	29600.76
570.46	29270.74
570.62	29579.69
570.78	29685.01
570.95	29443.94
571.11	29259.04
571.27	29336.27
571.43	29371.38
571.60	29668.63
571.76	29364.36
571.92	29488.41
572.09	29420.53
572.25	29589.05
572.41	29514.16
572.57	30326.32
572.74	29163.08
572.90	29851.19
573.06	29429.90
573.22	29631.18
573.38	29715.44
573.55	29743.53
573.71	29944.81
573.87	29677.99
574.03	29397.13
574.20	29703.74
574.36	29376.06
574.52	29898.00
574.68	29769.27
574.84	29586.71
575.01	29912.05
575.17	29521.18
575.33	29827.79
575.49	29724.80
575.65	30085.25
575.82	29563.31
575.98	29773.95
576.14	29837.15
576.30	30010.35
576.46	29598.41
576.62	29546.92
576.79	29734.17
576.95	29853.53
577.11	30096.95
577.27	29804.38
577.43	29605.44
577.59	29692.04
577.75	29673.31
577.92	29715.44
578.08	29919.07
578.24	29968.22
578.40	29886.30
578.56	29937.79
578.72	30052.48
578.88	30089.93
579.04	30246.74
579.21	30033.75
579.37	30141.42
579.53	30017.37
579.69	29839.49
579.85	29905.02
580.01	29881.62
580.17	30017.37
580.33	29851.19
580.49	29989.28
580.65	29797.36
580.82	30029.07
580.98	29975.24
581.14	29912.05
581.30	29776.30
581.46	29778.64
581.62	29680.33
581.78	29771.61
581.94	29390.11
582.10	29656.93
582.26	30146.10
582.42	30218.66
582.58	30265.47
582.74	29935.45
582.90	29881.62
583.06	30363.77
583.22	29862.90
583.38	29942.47
583.54	29902.68
583.70	29921.41
583.86	30061.84
584.02	30221.00
584.18	29694.38
584.34	30340.36
584.50	30026.73
584.66	29598.41
584.82	30075.88
584.98	30113.33
585.14	29722.46
585.30	29614.80
585.46	29780.98
585.62	29752.89
585.78	30492.50
585.94	29734.17
586.10	30066.52
586.26	30705.49
586.42	30160.14
586.58	30717.19
586.74	29860.55
586.90	30120.35
587.06	29502.45
587.22	29832.47
587.38	29935.45
587.54	30150.78
587.70	30415.26
587.86	30176.53
588.02	30267.81
588.18	30342.70
588.34	30110.99
588.49	30300.58
588.65	29965.88
588.81	30501.86
588.97	30150.78
589.13	30508.88
589.29	30005.67
589.45	30050.14
589.61	30698.47
589.77	30199.93
589.93	30305.26
590.08	30354.41
590.24	30583.78
590.40	30331.00
590.56	30536.97
590.72	30459.73
590.88	30127.38
591.04	30305.26
591.20	30085.25
591.35	30349.73
591.51	30934.86
591.67	30780.39
591.83	30841.24
591.99	30520.59
592.15	30490.16
592.31	30253.76
592.46	30209.29
592.62	30178.87
592.78	30419.94
592.94	30366.11
593.10	30494.84
593.26	30333.34
593.41	30759.32
593.57	30628.25
593.73	30401.22
593.89	30637.61
594.05	30038.44
594.20	30195.25
594.36	30438.67
594.52	30302.92
594.68	30391.86
594.84	30106.31
594.99	30857.62
595.15	30452.71
595.31	30377.81
595.47	30321.64
595.62	30780.39
595.78	30281.85
595.94	30433.99
596.10	30546.33
596.25	30160.14
596.41	30410.58
596.57	30274.83
596.73	30541.65
596.88	30618.89
597.04	30459.73
597.20	30520.59
597.36	30850.60
597.51	30810.81
597.67	30433.99
597.83	30536.97
597.99	30707.83
598.14	30597.82
598.30	30785.07
598.46	30810.81
598.61	30668.04
598.77	30529.95
598.93	30506.54
599.09	30696.13
599.24	30934.86
599.40	30639.95
599.56	30738.26
599.71	30499.52
599.87	30677.40
600.03	30696.13
600.18	30588.46
600.34	30670.38
600.50	30457.39
600.65	30424.62
600.81	31094.02
600.97	30616.55
601.12	30906.77
601.28	30644.63
601.44	30841.24
601.59	30551.01
601.75	30199.93
601.91	30394.20
602.06	30462.07
602.22	30593.14
602.37	30417.60
602.53	30759.32
602.69	30574.42
602.84	30668.04
603.00	30403.56
603.16	30639.95
603.31	30759.32
603.47	30195.25
603.62	30441.01
603.78	30396.54
603.94	30621.23
604.09	30707.83
604.25	30473.78
604.40	30480.80
604.56	30455.05
604.71	30714.85
604.87	30630.59
605.03	30696.13
605.18	30953.58
605.34	30242.06
605.49	30368.45
605.65	30403.56
605.80	30169.51
605.96	30621.23
606.12	30511.22
606.27	30838.90
606.43	30499.52
606.58	30597.82
606.74	30773.36
606.89	30815.49
607.05	30646.97
607.20	30555.69
607.36	30450.37
607.51	30955.93
607.67	30576.76
607.82	30188.23
607.98	30541.65
608.13	30565.06
608.29	30199.93
608.44	30815.49
608.60	30387.18
608.75	30476.12
608.91	30829.54
609.06	30288.87
609.22	30483.14
609.37	30328.66
609.53	30080.56
609.68	30499.52
609.84	30433.99
609.99	30417.60
610.15	30349.73
610.30	30408.24
610.46	30239.72
610.61	30148.44
610.76	30143.76
610.92	30419.94
611.07	30164.82
611.23	30017.37
611.38	30061.84
611.54	30724.21
611.69	30092.27
611.84	30015.03
612.00	30122.69
612.15	29860.55
612.31	30139.08
612.46	30412.92
612.62	30024.39
612.77	30033.75
612.92	30515.90
613.08	30239.72
613.23	30146.10
613.39	29862.90
613.54	29745.87
613.69	29762.25
613.85	30242.06
614.00	30443.35
614.15	30253.76
614.31	29809.06
614.46	30054.82
614.62	29841.83
614.77	30054.82
614.92	29951.84
615.08	29942.47
615.23	29745.87
615.38	29874.60
615.54	29713.10
615.69	29717.78
615.84	29773.95
616.00	29963.54
616.15	29858.21
616.30	29846.51
616.46	29797.36
616.61	30228.02
616.76	29565.65
616.92	29989.28
617.07	30031.41
617.22	30015.03
617.37	29577.35
617.53	29881.62
617.68	29773.95
617.83	29453.30
617.99	29586.71
618.14	29677.99
618.29	29549.26
618.45	29823.11
618.60	29502.45
618.75	29654.59
618.90	29764.59
619.06	29551.60
619.21	29972.90
619.36	29741.19
619.51	29256.70
619.67	29502.45
619.82	29507.13
619.97	29345.64
620.12	29834.81
620.28	29254.36
620.43	29277.76
620.58	29624.16
620.73	29385.43
620.89	29420.53
621.04	29795.02
621.19	29525.86
621.34	29383.09
621.49	29488.41
621.65	28950.09
621.80	29558.63
621.95	28718.37
622.10	29249.67
622.25	29041.37
622.41	28933.70
622.56	28978.17
622.71	29303.51
622.86	29371.38
623.01	29439.26
623.16	29200.52
623.32	29254.36
623.47	29343.30
623.62	28844.76
623.77	29102.22
623.92	29219.25
624.07	29181.80
624.23	29184.14
624.38	29268.40
624.53	28994.56
624.68	29212.23
624.83	28975.83
624.98	29092.86
625.13	28800.29
625.29	28809.65
625.44	28699.65
625.59	28968.81
625.74	28744.12
625.89	28879.87
626.04	28882.21
626.19	28786.25
626.34	28879.87
626.49	28961.79
626.65	28786.25
626.80	28444.53
626.95	28807.31
627.10	28844.76
627.25	28582.62
627.40	28868.17
627.55	28428.15
627.70	28439.85
627.85	28795.61
628.00	28657.52
628.15	28449.21
628.30	28484.32
628.45	28727.74
628.60	28404.74
628.76	28521.77
628.91	28409.42
629.06	28790.93
629.21	28725.39
629.36	28381.34
629.51	28453.89
629.66	28369.63
629.81	28484.32
629.96	28320.48
630.11	28259.63
630.26	28535.81
630.41	28439.85
630.56	28271.33
630.71	28044.30
630.86	28135.58
631.01	28041.96
631.16	28421.13
631.31	28259.63
631.46	28144.94
631.61	28334.53
631.76	28194.09
631.91	28037.28
632.06	27950.68
632.21	27992.81
632.36	28205.80
632.51	27740.03
632.66	27779.82
632.81	28056.00
632.96	27864.08
633.10	28355.59
633.25	28037.28
633.40	27887.48
633.55	28121.54
633.70	27197.02
633.85	27810.25
634.00	27742.37
634.15	27716.62
634.30	27566.83
634.45	27864.08
634.60	27658.11
634.75	27850.03
634.90	27564.49
635.05	27871.10
635.19	28088.77
635.34	27786.84
635.49	27861.74
635.64	27419.38
635.79	27400.65
635.94	27695.56
636.09	27791.52
636.24	27599.60
636.39	27461.51
636.53	27527.04
636.68	27433.42
636.83	27424.06
636.98	28212.82
637.13	27117.45
637.28	27831.31
637.43	27740.03
637.57	27484.91
637.72	27365.54
637.87	27339.80
638.02	27505.98
638.17	27634.71
638.32	27386.61
638.46	27367.88
638.61	27115.11
638.76	27225.11
638.91	27021.48
639.06	27117.45
639.20	27232.13
639.35	27676.83
639.50	27405.33
639.65	27400.65
639.80	27395.97
639.94	27145.53
640.09	27370.22
640.24	27234.47
640.39	27054.25
640.54	27281.28
640.68	27035.53
640.83	27271.92
640.98	26691.47
641.13	26923.18
641.27	27098.72
641.42	27047.23
641.57	27316.39
641.72	26918.50
641.86	26742.96
642.01	27023.83
642.16	27110.43
642.31	26239.75
642.45	27302.35
642.60	27005.10
642.75	26728.92
642.90	26625.93
643.04	26724.24
643.19	26536.99
643.34	26675.09
643.48	26881.05
643.63	26499.55
643.78	27016.80
643.93	26775.73
644.07	26925.52
644.22	26890.41
644.37	26632.96
644.51	26644.66
644.66	26827.22
644.81	26321.66
644.95	26752.32
645.10	26813.18
645.25	26363.79
645.39	26422.31
645.54	26717.22
645.69	26401.24
645.83	26452.73
645.98	26740.62
646.13	26448.05
646.27	26384.86
646.42	26789.77
646.57	26457.42
646.71	26768.71
646.86	26541.68
647.00	26656.36
647.15	26160.17
647.30	26373.16
647.44	26277.19
647.59	26637.64
647.74	26265.49
647.88	26106.34
648.03	26424.65
648.17	26338.05
648.32	26717.22
648.47	26377.84
648.61	26541.68
648.76	26190.59
648.90	26654.02
649.05	26621.25
649.20	26380.18
649.34	25991.65
649.49	26190.59
649.63	26265.49
649.78	26033.78
649.92	26005.69
650.07	26632.96
650.21	25813.77
650.36	26101.65
650.51	25879.30
650.65	26127.40
650.80	26185.91
650.94	25961.22
651.09	26223.36
651.23	25727.17
651.38	25869.94
651.52	26127.40
651.67	25745.89
651.81	26059.52
651.96	25582.06
652.10	25823.13
652.25	25645.25
652.39	25830.15
652.54	25979.95
652.68	25743.55
652.83	25778.66
652.97	26181.23
653.12	25701.42
653.26	25886.32
653.41	25586.74
653.55	25607.80
653.70	25336.30
653.84	25781.00
653.99	25376.09
654.13	25556.31
654.27	25565.67
654.42	25284.81
654.56	25820.79
654.71	25584.40
654.85	25647.59
655.00	25481.41
655.14	25518.86
655.29	25303.53
655.43	25528.22
655.57	25488.43
655.72	25544.61
655.86	25745.89
656.01	25378.43
656.15	25043.73
656.30	25270.76
656.44	25205.23
656.58	25308.21
656.73	25268.42
656.87	25076.50
657.01	25160.76
657.16	25404.17
657.30	25472.05
657.45	25223.95
657.59	25259.06
657.73	25507.16
657.88	25399.49
658.02	24915.00
658.16	24978.20
658.31	24994.58
658.45	25032.03
658.60	25036.71
658.74	24900.96
658.88	24933.73
659.03	24854.15
659.17	25120.97
659.31	24917.34
659.46	24996.92
659.60	24868.19
659.74	24933.73
659.89	24716.06
660.03	24559.24
660.17	24783.93
660.32	24559.24
660.46	24496.05
660.60	24643.50
660.74	24547.54
660.89	24472.64
661.03	24369.66
661.17	24683.29
661.32	24360.30
661.46	24608.39
661.60	24229.23
661.74	24301.78
661.89	24753.51
662.03	24414.13
662.17	24620.10
662.31	24039.64
662.46	24477.32
662.60	24364.98
662.74	24247.95
662.88	24053.69
663.03	23718.99
663.17	23880.49
663.31	23868.78
663.45	23983.47
663.60	23707.29
663.74	23854.74
663.88	23711.97
664.02	23974.11
664.17	24004.53
664.31	23838.36
664.45	23599.62
664.59	24233.91
664.73	23510.68
664.88	23885.17
665.02	23386.63
665.16	23971.77
665.30	23576.22
665.44	23632.39
665.59	23367.91
665.73	23557.49
665.87	23187.69
666.01	23681.54
666.15	23335.14
666.29	23599.62
666.44	23110.45
666.58	23309.40
666.72	22946.61
666.86	23623.03
667.00	23618.35
667.14	23101.09
667.28	22974.70
667.43	22838.95
667.57	23098.75
667.71	22888.10
667.85	22738.30
667.99	22820.22
668.13	22801.50
668.27	23049.60
668.41	23278.97
668.56	22852.99
668.70	23117.47
668.84	22955.97
668.98	22895.12
669.12	23154.92
669.26	22775.75
669.40	22576.81
669.54	22462.12
669.68	22855.33
669.82	22396.59
669.96	22609.58
670.10	22462.12
670.25	22139.13
670.39	22324.03
670.53	22272.54
670.67	22307.65
670.81	22480.85
670.95	22520.63
671.09	22403.61
671.23	22246.79
671.37	22473.82
671.51	22478.50
671.65	22281.90
671.79	22164.87
671.93	22003.38
672.07	21898.05
672.21	22171.89
672.35	21844.22
672.49	21713.15
672.63	21713.15
672.77	21678.04
672.91	21926.14
673.05	21951.88
673.19	21963.59
673.33	21823.16
673.47	21752.94
673.61	22010.40
673.75	21305.90
673.89	21638.25
674.03	21289.51
674.17	21579.74
674.31	21441.65
674.45	21568.04
674.59	21350.37
674.73	21174.83
674.87	21071.84
675.01	21071.84
675.15	21305.90
675.29	21144.40
675.43	21034.39
675.56	21249.72
675.70	21078.86
675.84	21027.37
675.98	20500.75
676.12	20896.30
676.26	21287.17
676.40	20425.86
676.54	20840.13
676.68	20964.18
676.82	20479.69
676.96	20435.22
677.10	20610.76
677.23	20610.76
677.37	20042.01
677.51	20095.84
677.65	19899.23
677.79	20072.43
677.93	19880.51
678.07	20102.86
678.21	20142.65
678.34	19819.66
678.48	19819.66
678.62	19798.59
678.76	19463.90
678.90	19726.04
679.04	19454.53
679.18	19185.37
679.31	19417.08
679.45	19323.46
679.59	19204.10
679.73	19288.35
679.87	19049.62
680.00	19234.52
680.14	19321.12
680.28	18972.38
680.42	19264.95
680.56	19061.32
680.70	18794.50
680.83	19173.67
680.97	19073.03
681.11	18972.38
681.25	18895.14
681.39	18977.06
681.52	18768.76
681.66	18307.67
681.80	18469.17
681.94	18370.86
682.07	18759.39
682.21	18469.17
682.35	18115.75
682.49	18050.21
682.62	18317.03
682.76	18146.17
682.90	18228.09
683.04	18061.91
683.17	18195.32
683.31	17977.65
683.45	18099.36
683.59	18019.78
683.72	17759.98
683.86	17617.21
684.00	17994.04
684.13	17685.09
684.27	17362.09
684.41	17509.55
684.55	17252.09
684.68	17219.32
684.82	17245.07
684.96	17116.34
685.09	16959.52
685.23	16971.22
685.37	16959.52
685.50	17312.94
685.64	17090.59
685.78	17003.99
685.91	17376.14
686.05	17184.21
686.19	16746.53
686.32	16563.97
686.46	16673.98
686.60	16606.10
686.73	16608.44
686.87	16400.13
687.01	16561.63
687.14	16159.06
687.28	16559.29
687.42	16266.72
687.55	16355.66
687.69	16210.55
687.82	15967.13
687.96	16379.07
688.10	16187.14
688.23	16222.25
688.37	16154.38
688.50	16018.63
688.64	16042.03
688.78	15810.32
688.91	15838.41
689.05	15697.97
689.18	15426.47
689.32	15660.52
689.46	15426.47
689.59	15695.63
689.73	15690.95
689.86	15370.30
690.00	15447.54
690.13	15246.25
690.27	15208.80
690.41	15059.01
690.54	15171.35
690.68	14988.79
690.81	15257.95
690.95	15255.61
691.08	14979.43
691.22	15063.69
691.35	14963.04
691.49	14949.00
691.62	14736.01
691.76	14724.31
691.89	14583.88
692.03	14324.08
692.16	14441.11
692.30	14270.25
692.43	14253.86
692.57	14469.19
692.70	14286.63
692.84	14658.78
692.97	13872.36
693.11	14120.45
693.24	14045.55
693.38	14090.02
693.51	13947.25
693.65	14153.22
693.78	13881.72
693.92	13961.30
694.05	13956.61
694.19	13692.13
694.32	13493.19
694.45	13537.66
694.59	13483.83
694.72	13392.55
694.86	13198.28
694.99	13404.25
695.13	13343.39
695.26	13109.34
695.39	13048.49
695.53	13411.27
695.66	13177.22
695.80	13448.72
695.93	13284.88
696.07	13132.75
696.20	12994.65
696.33	12912.74
696.47	12704.43
696.60	12980.61
696.73	12812.09
696.87	12676.34
697.00	12643.57
697.14	12451.65
697.27	12505.48
697.40	12121.63
697.54	12423.56
697.67	12458.67
697.80	12418.88
697.94	12238.66
698.07	12189.51
698.21	12053.76
698.34	12493.78
698.47	12140.36
698.61	12168.45
698.74	12362.71
698.87	12037.38
699.01	11913.33
699.14	11929.71
699.27	11861.84
699.40	11903.96
699.54	11669.91
699.67	11796.30
699.80	11637.14
699.94	11613.74
700.07	11279.04
700.20	11379.68
700.34	11222.87
700.47	11304.79
700.60	11339.90
700.73	11389.05
700.87	11150.31
701.00	11286.06
701.13	10942.00
701.26	11283.72
701.40	11412.45
701.53	11323.51
701.66	11066.05
701.79	11192.44
701.93	11063.71
702.06	10857.75
702.19	10726.68
702.32	10607.31
702.46	10740.72
702.59	10583.90
702.72	10523.05
702.85	10307.72
702.99	10441.13
703.12	10560.50
703.25	10445.81
703.38	10408.36
703.51	10331.12
703.65	10359.21
703.78	10312.40
703.91	10342.83
704.04	10408.36
704.17	10410.70
704.31	10160.27
704.44	9987.07
704.57	10043.24
704.70	10008.13
704.83	9781.10
704.96	9919.19
705.10	9661.73
705.23	9788.12
>>>>>End Processed Spectral Data<<<<<
