SpectraSuite Data File
++++++++++++++++++++++++++++++++++++
Date: Fri Oct 18 13:58:05 GMT-05:00 2013
User: bianchi
Dark Spectrum Present: No
Reference Spectrum Present: No
Number of Sampled Component Spectra: 1
Spectrometers: USB2+H05261
Integration Time (usec): 50000 (USB2+H05261)
Spectra Averaged: 1 (USB2+H05261)
Boxcar Smoothing: 0 (USB2+H05261)
Correct for Electrical Dark: No (USB2+H05261)
Strobe/Lamp Enabled: No (USB2+H05261)
Correct for Detector Non-linearity: No (USB2+H05261)
Correct for Stray Light: No (USB2+H05261)
Number of Pixels in Processed Spectrum: 2048
>>>>>Begin Processed Spectral Data<<<<<
365.73	0.00
365.92	0.00
366.12	0.00
366.32	0.00
366.52	0.00
366.72	0.00
366.91	0.00
367.11	0.00
367.31	0.00
367.51	0.00
367.70	0.00
367.90	0.00
368.10	0.00
368.30	0.00
368.49	0.00
368.69	0.00
368.89	0.00
369.09	0.00
369.28	0.00
369.48	0.00
369.68	0.00
369.87	0.00
370.07	0.00
370.27	0.00
370.47	0.00
370.66	93.62
370.86	77.24
371.06	166.18
371.25	168.52
371.45	149.79
371.65	159.16
371.84	112.35
372.04	177.88
372.24	149.79
372.44	217.67
372.63	224.69
372.83	98.30
373.03	212.99
373.22	194.26
373.42	175.54
373.62	283.20
373.81	264.48
374.01	255.12
374.21	271.50
374.40	269.16
374.60	217.67
374.79	278.52
374.99	283.20
375.19	271.50
375.38	280.86
375.58	262.14
375.78	278.52
375.97	215.33
376.17	330.02
376.37	236.39
376.56	346.40
376.76	201.29
376.95	290.23
377.15	280.86
377.35	257.46
377.54	362.78
377.74	252.78
377.93	264.48
378.13	273.84
378.33	257.46
378.52	283.20
378.72	304.27
378.91	273.84
379.11	248.10
379.31	360.44
379.50	269.16
379.70	322.99
379.89	264.48
380.09	304.27
380.28	245.76
380.48	276.18
380.68	208.31
380.87	255.12
381.07	306.61
381.26	355.76
381.46	325.33
381.65	337.04
381.85	301.93
382.04	346.40
382.24	330.02
382.43	360.44
382.63	346.40
382.83	400.23
383.02	301.93
383.22	402.57
383.41	435.34
383.61	395.55
383.80	442.36
384.00	386.19
384.19	456.40
384.39	421.30
384.58	318.31
384.78	397.89
384.97	390.87
385.17	400.23
385.36	404.91
385.56	395.55
385.75	353.42
385.95	409.59
386.14	437.68
386.34	367.46
386.53	383.85
386.72	440.02
386.92	449.38
387.11	454.06
387.31	451.72
387.50	435.34
387.70	461.09
387.89	435.34
388.09	444.70
388.28	437.68
388.48	468.11
388.67	463.43
388.86	409.59
389.06	465.77
389.25	465.77
389.45	461.09
389.64	521.94
389.84	486.83
390.03	521.94
390.22	482.15
390.42	575.77
390.61	447.04
390.81	482.15
391.00	550.03
391.19	475.13
391.39	580.45
391.58	484.49
391.78	524.28
391.97	575.77
392.16	550.03
392.36	617.90
392.55	528.96
392.75	601.52
392.94	561.73
393.13	543.00
393.33	664.71
393.52	566.41
393.71	592.16
393.91	620.24
394.10	578.11
394.29	585.13
394.49	582.79
394.68	606.20
394.88	627.26
395.07	636.63
395.26	617.90
395.46	627.26
395.65	737.27
395.84	566.41
396.04	627.26
396.23	685.78
396.42	676.41
396.62	676.41
396.81	620.24
397.00	655.35
397.19	683.44
397.39	657.69
397.58	688.12
397.77	739.61
397.97	739.61
398.16	678.76
398.35	737.27
398.55	753.65
398.74	690.46
398.93	774.72
399.12	739.61
399.32	758.33
399.51	830.89
399.70	809.83
399.90	685.78
400.09	774.72
400.28	770.04
400.47	704.50
400.67	774.72
400.86	889.40
401.05	863.66
401.24	800.46
401.44	763.01
401.63	884.72
401.82	777.06
402.01	884.72
402.21	770.04
402.40	910.47
402.59	924.51
402.78	875.36
402.97	884.72
403.17	875.36
403.36	994.73
403.55	910.47
403.74	880.04
403.93	875.36
404.13	1027.50
404.32	868.34
404.51	812.17
404.70	954.94
404.89	997.07
405.09	938.55
405.28	924.51
405.47	968.98
405.66	1081.33
405.85	1057.92
406.05	966.64
406.24	1036.86
406.43	1064.94
406.62	1078.99
406.81	1029.84
407.00	1027.50
407.20	1046.22
407.39	1011.11
407.58	1048.56
407.77	1076.65
407.96	1196.01
408.15	1086.01
408.34	1076.65
408.54	1083.67
408.73	1095.37
408.92	1200.69
409.11	1224.10
409.30	1196.01
409.49	1156.22
409.68	1188.99
409.87	1205.38
410.07	1142.18
410.26	1200.69
410.45	1268.57
410.64	1196.01
410.83	1310.70
411.02	1240.48
411.21	1188.99
411.40	1299.00
411.59	1345.81
411.78	1359.85
411.98	1261.55
412.17	1240.48
412.36	1364.53
412.55	1310.70
412.74	1331.76
412.93	1380.92
413.12	1210.06
413.31	1397.30
413.50	1303.68
413.69	1458.15
413.88	1540.07
414.07	1521.35
414.26	1441.77
414.45	1338.79
414.64	1533.05
414.83	1509.65
415.02	1584.54
415.22	1568.16
415.41	1605.61
415.60	1614.97
415.79	1614.97
415.98	1682.85
416.17	1741.36
416.36	1664.12
416.55	1570.50
416.74	1596.25
416.93	1631.35
417.12	1589.22
417.31	1710.93
417.50	1682.85
417.69	1776.47
417.88	1771.79
418.07	1701.57
418.26	1769.44
418.45	1732.00
418.64	1816.26
418.83	1937.96
419.02	1820.94
419.21	1935.62
419.39	1870.09
419.58	1863.07
419.77	1867.75
419.96	1914.56
420.15	1785.83
420.34	1853.70
420.53	1886.47
420.72	1893.49
420.91	1959.03
421.10	1909.88
421.29	1989.46
421.48	1900.52
421.67	2057.33
421.86	1996.48
422.05	2015.20
422.24	2017.54
422.43	1975.41
422.61	2062.01
422.80	1989.46
422.99	2026.90
423.18	2008.18
423.37	2017.54
423.56	2080.74
423.75	2080.74
423.94	2090.10
424.13	1912.22
424.32	1916.90
424.50	2087.76
424.69	2190.74
424.88	2083.08
425.07	2071.37
425.26	2120.53
425.45	2193.08
425.64	2122.87
425.83	2099.46
426.01	2157.97
426.20	2099.46
426.39	2134.57
426.58	2043.29
426.77	2165.00
426.96	2094.78
427.15	2113.50
427.33	2120.53
427.52	2253.94
427.71	2249.25
427.90	2162.66
428.09	2232.87
428.28	2232.87
428.46	2333.51
428.65	2228.19
428.84	2272.66
429.03	2312.45
429.22	2214.15
429.40	2298.41
429.59	2431.82
429.78	2172.02
429.97	2204.78
430.16	2328.83
430.34	2434.16
430.53	2300.75
430.72	2335.85
430.91	2354.58
431.10	2370.96
431.28	2396.71
431.47	2417.77
431.66	2462.24
431.85	2469.27
432.03	2485.65
432.22	2565.23
432.41	2492.67
432.60	2614.38
432.79	2497.35
432.97	2464.58
433.16	2619.06
433.35	2551.18
433.54	2567.57
433.72	2562.89
433.91	2569.91
434.10	2602.68
434.28	2626.08
434.47	2572.25
434.66	2588.63
434.85	2670.55
435.03	2612.04
435.22	2602.68
435.41	2782.90
435.59	2700.98
435.78	2579.27
435.97	2672.89
436.16	2782.90
436.34	2689.28
436.53	2743.11
436.72	2740.77
436.90	2684.59
437.09	2825.03
437.28	2619.06
437.46	2689.28
437.65	2733.75
437.84	2829.71
438.02	2871.84
438.21	2808.64
438.40	2717.36
438.58	3009.93
438.77	2949.08
438.96	2935.03
439.14	3023.97
439.33	2998.23
439.52	3045.04
439.70	3103.55
439.89	2993.55
440.08	3185.47
440.26	3080.14
440.45	3171.43
440.63	3206.53
440.82	3185.47
441.01	3124.62
441.19	3255.69
441.38	3265.05
441.57	3213.56
441.75	3375.05
441.94	3274.41
442.12	3232.28
442.31	3293.13
442.50	3253.34
442.68	3281.43
442.87	3454.63
443.05	3267.39
443.24	3398.46
443.43	3431.23
443.61	3332.92
443.80	3492.08
443.98	3368.03
444.17	3262.71
444.35	3463.99
444.54	3379.73
444.73	3520.17
444.91	3548.25
445.10	3541.23
445.28	3449.95
445.47	3574.00
445.65	3517.83
445.84	3468.67
446.02	3602.08
446.21	3515.48
446.39	3471.01
446.58	3592.72
446.77	3604.42
446.95	3452.29
447.14	3681.66
447.32	3581.02
447.51	3506.12
447.69	3620.81
447.88	3712.09
448.06	3604.42
448.25	3620.81
448.43	3653.58
448.62	3609.11
448.80	3545.91
448.99	3653.58
449.17	3714.43
449.36	3630.17
449.54	3786.99
449.73	3838.48
449.91	3904.01
450.10	3810.39
450.28	3714.43
450.46	3805.71
450.65	3878.27
450.83	3829.12
451.02	3885.29
451.20	3936.78
451.39	3978.91
451.57	3939.12
451.76	3803.37
451.94	3794.01
452.13	3962.53
452.31	4032.74
452.49	3847.84
452.68	3892.31
452.86	3941.46
453.05	3974.23
453.23	4044.45
453.42	3967.21
453.60	4093.60
453.78	3866.56
453.97	3920.40
454.15	3978.91
454.34	4011.68
454.52	4072.53
454.70	4023.38
454.89	4044.45
455.07	4105.30
455.26	4081.89
455.44	4072.53
455.62	4180.20
455.81	4109.98
455.99	4147.43
456.17	4273.82
456.36	4318.29
456.54	4269.14
456.73	4294.88
456.91	4393.19
457.09	4444.68
457.28	4449.36
457.46	4418.93
457.64	4458.72
457.83	4348.72
458.01	4540.64
458.19	4582.77
458.38	4465.74
458.56	4479.79
458.74	4409.57
458.93	4690.43
459.11	4440.00
459.29	4454.04
459.48	4512.55
459.66	4566.39
459.84	4683.41
460.03	4627.24
460.21	4760.65
460.39	4645.96
460.57	4681.07
460.76	4624.90
460.94	4660.01
461.12	4795.76
461.31	4877.68
461.49	4566.39
461.67	4718.52
461.85	4809.80
462.04	4851.93
462.22	5074.28
462.40	4849.59
462.59	4793.42
462.77	4800.44
462.95	4828.53
463.13	4868.31
463.32	5050.88
463.50	4992.36
463.68	4945.55
463.86	4903.42
464.05	5011.09
464.23	4957.25
464.41	5039.17
464.59	4971.30
464.78	5242.80
464.96	4868.31
465.14	4950.23
465.32	4959.60
465.50	5153.86
465.69	5406.64
465.87	4966.62
466.05	5121.09
466.23	4957.25
466.41	4985.34
466.60	5226.42
466.78	5135.14
466.96	5085.98
467.14	5149.18
467.32	5324.72
467.51	5425.36
467.69	5149.18
467.87	5130.45
468.05	5277.91
468.23	5324.72
468.41	5191.31
468.60	5390.25
468.78	5434.72
468.96	5298.97
469.14	5369.19
469.32	5530.69
469.50	5364.51
469.69	5500.26
469.87	5502.60
470.05	5600.90
470.23	5661.76
470.41	5451.11
470.59	5526.00
470.77	5455.79
470.95	5565.79
471.14	5565.79
471.32	5652.39
471.50	5678.14
471.68	5731.97
471.86	5659.42
472.04	5919.21
472.22	5933.26
472.40	5830.27
472.58	5949.64
472.77	5797.51
472.95	5900.49
473.13	6106.46
473.31	5937.94
473.49	6059.65
473.67	5977.73
473.85	6031.56
474.03	6174.33
474.21	6211.78
474.39	6305.40
474.57	6125.18
474.75	6354.55
474.93	6307.74
475.12	6235.19
475.30	6485.62
475.48	6345.19
475.66	6333.49
475.84	6228.17
476.02	6408.39
476.20	6427.11
476.38	6604.99
476.56	6630.74
476.74	6637.76
476.92	6483.28
477.10	6597.97
477.28	6843.73
477.46	6712.66
477.64	6920.96
477.82	7040.33
478.00	7206.51
478.18	7073.10
478.36	7173.74
478.54	7363.33
478.72	7236.94
478.90	7400.77
479.08	7314.17
479.26	7456.95
479.44	7583.34
479.62	7529.50
479.80	7527.16
479.98	7709.72
480.16	7786.96
480.34	7456.95
480.52	7777.60
480.70	7845.48
480.88	7705.04
481.06	7971.86
481.24	7913.35
481.41	7922.71
481.59	8142.72
481.77	8126.34
481.95	8273.79
482.13	8271.45
482.31	8257.41
482.49	8383.80
482.67	8341.67
482.85	8507.85
483.03	8439.97
483.21	8816.80
483.39	8720.84
483.57	8816.80
483.74	8800.41
483.92	8924.46
484.10	8828.50
484.28	8828.50
484.46	9191.28
484.64	9291.93
484.82	9062.55
485.00	9413.63
485.18	9469.81
485.35	9603.22
485.53	9408.95
485.71	9591.52
485.89	9982.38
486.07	9881.74
486.25	9874.72
486.43	9846.63
486.61	10054.94
486.78	9994.09
486.96	10153.24
487.14	10281.97
487.32	10438.79
487.50	10324.10
487.68	10513.69
487.85	10576.88
488.03	10750.08
488.21	10813.28
488.39	10899.87
488.57	11112.86
488.75	10923.28
488.92	11164.36
489.10	10902.22
489.28	11197.12
489.46	11309.47
489.64	11288.40
489.81	11854.81
489.99	11499.05
490.17	11576.29
490.35	11580.97
490.53	11824.39
490.70	11836.09
490.88	11798.64
491.06	12063.12
491.24	12138.02
491.41	12079.50
491.59	12194.19
491.77	12395.48
491.95	12493.78
492.13	12332.28
492.30	12540.59
492.48	12395.48
492.66	12498.46
492.84	12741.88
493.01	12945.50
493.19	12617.83
493.37	12940.82
493.54	13004.02
493.72	13275.52
493.90	13107.00
494.08	13394.89
494.25	13486.17
494.43	13657.03
494.61	13603.19
494.79	13717.88
494.96	13565.74
495.14	13790.44
495.32	13745.97
495.49	13884.06
495.67	13914.48
495.85	13942.57
496.02	14073.64
496.20	14221.10
496.38	14188.33
496.55	14567.49
496.73	14422.38
496.91	14560.47
497.09	14686.86
497.26	14899.85
497.44	14518.34
497.62	14970.07
497.79	14689.20
497.97	14806.23
498.14	15267.31
498.32	15178.37
498.50	15248.59
498.67	15440.51
498.85	15297.74
499.03	15337.53
499.20	15248.59
499.38	15538.82
499.56	15737.76
499.73	15700.31
499.91	15817.34
500.08	15967.13
500.26	15454.56
500.44	15854.79
500.61	15953.09
500.79	16135.65
500.97	15807.98
501.14	16201.19
501.32	16177.78
501.49	15871.17
501.67	16208.21
501.84	16374.39
502.02	16559.29
502.20	16645.89
502.37	16622.48
502.55	16599.08
502.72	16435.24
502.90	16369.71
503.07	16624.83
503.25	16755.90
503.43	16542.91
503.60	16933.78
503.78	17224.00
503.95	17099.95
504.13	16950.16
504.30	17158.47
504.48	16893.99
504.65	17205.28
504.83	17151.45
505.01	17296.56
505.18	17439.33
505.36	17514.23
505.53	17495.50
505.71	17547.00
505.88	17490.82
506.06	17432.31
506.23	17961.27
506.41	17771.69
506.58	17790.41
506.76	17841.90
506.93	18054.89
507.11	17755.30
507.28	17912.12
507.46	17968.29
507.63	17984.68
507.81	18167.24
507.98	18298.31
508.16	18415.34
508.33	18499.59
508.50	18445.76
508.68	18555.77
508.85	18579.17
509.03	18424.70
509.20	18773.44
509.38	18747.69
509.55	18883.44
509.73	18597.90
509.90	18771.10
510.08	19023.87
510.25	18974.72
510.42	18822.59
510.60	19098.77
510.77	18817.91
510.95	19264.95
511.12	19290.70
511.30	19058.98
511.47	19133.88
511.64	19323.46
511.82	19536.45
511.99	19293.04
512.17	19527.09
512.34	19407.72
512.51	19754.12
512.69	19714.33
512.86	19559.86
513.04	20126.27
513.21	19749.44
513.38	19992.86
513.56	19688.59
513.73	19798.59
513.90	20070.09
514.08	19908.60
514.25	20184.78
514.43	20053.71
514.60	20348.62
514.77	20367.34
514.95	20638.84
515.12	20566.29
515.29	20395.43
515.47	20437.56
515.64	20568.63
515.81	20732.47
515.99	20854.17
516.16	20884.60
516.33	21025.03
516.51	21359.73
516.68	20835.45
516.85	20566.29
517.03	21163.12
517.20	21081.21
517.37	20695.02
517.54	21254.40
517.72	21137.38
517.89	21163.12
518.06	21064.82
518.24	20996.95
518.41	21193.55
518.58	21418.24
518.75	21673.36
518.93	21755.28
519.10	21465.05
519.27	21493.14
519.45	21404.20
519.62	21685.06
519.79	21610.17
519.96	21797.41
520.14	21497.82
520.31	21680.38
520.48	21633.57
520.65	21933.16
520.83	21902.73
521.00	22071.25
521.17	21940.18
521.34	22015.08
521.52	22122.74
521.69	22066.57
521.86	22389.56
522.03	22532.34
522.20	22246.79
522.38	22148.49
522.55	22583.83
522.72	22199.98
522.89	22637.66
523.07	22668.09
523.24	22527.66
523.41	22794.48
523.58	22757.03
523.75	22703.20
523.92	22874.06
524.10	22899.80
524.27	22775.75
524.44	23157.26
524.61	23269.61
524.78	22831.93
524.96	23250.88
525.13	23014.49
525.30	23178.33
525.47	23393.65
525.64	23101.09
525.81	23007.47
525.98	23468.55
526.16	23070.66
526.33	23381.95
526.50	23688.56
526.67	23419.40
526.84	23419.40
527.01	23775.16
527.18	23346.84
527.36	23807.93
527.53	23775.16
527.70	24116.88
527.87	23894.53
528.04	24037.30
528.21	23630.05
528.38	23693.24
528.55	23716.65
528.72	23857.08
528.89	24430.51
529.07	23969.43
529.24	24383.70
529.41	24278.38
529.58	24170.71
529.75	24027.94
529.92	24304.12
530.09	24446.90
530.26	24266.67
530.43	24519.45
530.60	24161.35
530.77	23871.12
530.94	24634.14
531.11	24278.38
531.28	24437.53
531.46	24751.17
531.63	24826.06
531.80	24865.85
531.97	24648.18
532.14	24734.78
532.31	24692.65
532.48	24940.75
532.65	25057.78
532.82	24826.06
532.99	25055.43
533.16	24957.13
533.33	24999.26
533.50	25310.55
533.67	25017.99
533.84	24858.83
534.01	25181.82
534.18	24952.45
534.35	25392.47
534.52	24966.49
534.69	25455.67
534.86	25266.08
535.03	25357.36
535.20	25687.38
535.37	25303.53
535.54	25284.81
535.71	25525.88
535.88	25530.56
536.05	25465.03
536.22	25926.11
536.38	25238.00
536.55	25942.50
536.72	25708.44
536.89	25530.56
537.06	25656.95
537.23	25701.42
537.40	25715.47
537.57	25605.46
537.74	25970.58
537.91	26267.83
538.08	26178.89
538.25	25605.46
538.42	26073.57
538.59	26080.59
538.75	25773.98
538.92	26127.40
539.09	26251.45
539.26	26235.06
539.43	26267.83
539.60	26162.51
539.77	25947.18
539.94	26115.70
540.11	26738.28
540.28	25851.22
540.44	26015.05
540.61	26230.38
540.78	26415.29
540.95	26714.87
541.12	26623.59
541.29	26494.86
541.46	26604.87
541.62	26635.30
541.79	26527.63
541.96	26279.54
542.13	26120.38
542.30	26632.96
542.47	26661.04
542.63	26981.70
542.80	27105.74
542.97	27044.89
543.14	26920.84
543.31	26654.02
543.48	26958.29
543.64	27199.37
543.81	27475.55
543.98	27653.43
544.15	27232.13
544.32	27716.62
544.48	27627.68
544.65	27358.52
544.82	27344.48
544.99	26852.97
545.16	27171.28
545.32	27131.49
545.49	27716.62
545.66	27681.52
545.83	27438.10
546.00	27410.01
546.16	27204.05
546.33	27206.39
546.50	27260.22
546.67	27955.36
546.83	27190.00
547.00	27520.02
547.17	27515.34
547.34	27637.05
547.50	27908.55
547.67	28013.87
547.84	27824.29
548.00	28018.55
548.17	28484.32
548.34	27885.14
548.51	28219.84
548.67	27857.06
548.84	28098.13
549.01	27864.08
549.18	28027.92
549.34	28034.94
549.51	28009.19
549.68	28102.81
549.84	28388.36
550.01	28051.32
550.18	28023.23
550.34	28428.15
550.51	28252.61
550.68	28568.58
550.84	27953.02
551.01	28458.57
551.18	28261.97
551.34	28196.43
551.51	28367.29
551.68	28304.10
551.84	28432.83
552.01	28561.56
552.18	28638.80
552.34	28568.58
552.51	28421.13
552.68	28381.34
552.84	28563.90
553.01	28540.49
553.18	28559.22
553.34	28716.03
553.51	28596.67
553.67	28952.43
553.84	29050.73
554.01	28809.65
554.17	28971.15
554.34	28903.28
554.51	28992.22
554.67	28730.08
554.84	28725.39
555.00	28814.34
555.17	28989.88
555.33	29055.41
555.50	29036.69
555.67	29195.84
555.83	29027.32
556.00	28945.41
556.16	29186.48
556.33	29156.05
556.50	28964.13
556.66	29450.96
556.83	29235.63
556.99	29071.79
557.16	29495.43
557.32	29088.18
557.49	29315.21
557.65	29252.02
557.82	28926.68
557.98	28886.89
558.15	29326.91
558.32	29549.26
558.48	29645.23
558.65	29645.23
558.81	29570.33
558.98	29584.37
559.14	29530.54
559.31	29404.15
559.47	29736.51
559.64	29635.86
559.80	29399.47
559.97	29610.12
560.13	29951.84
560.30	29273.08
560.46	29701.40
560.63	29888.64
560.79	29736.51
560.96	29916.73
561.12	29350.32
561.29	29708.42
561.45	29792.68
561.61	29799.70
561.78	29876.94
561.94	29776.30
562.11	29958.86
562.27	29846.51
562.44	29788.00
562.60	29799.70
562.77	29284.78
562.93	29659.27
563.10	30082.91
563.26	29797.36
563.42	30029.07
563.59	29888.64
563.75	29785.66
563.92	30239.72
564.08	29687.36
564.24	29965.88
564.41	30167.16
564.57	29729.48
564.74	30015.03
564.90	29998.65
565.07	29996.31
565.23	30064.18
565.39	30089.93
565.56	30338.02
565.72	30370.79
565.88	29855.87
566.05	29923.75
566.21	29947.15
566.38	30293.55
566.54	30096.95
566.70	30352.07
566.87	30555.69
567.03	30522.93
567.19	30593.14
567.36	30469.09
567.52	30125.04
567.68	30588.46
567.85	30424.62
568.01	29771.61
568.17	30183.55
568.34	30644.63
568.50	30382.49
568.66	30937.20
568.83	30672.72
568.99	30263.13
569.15	30293.55
569.32	30272.49
569.48	30181.21
569.64	30199.93
569.81	30499.52
569.97	30302.92
570.13	30338.02
570.30	30096.95
570.46	30593.14
570.62	30160.14
570.78	30260.79
570.95	30167.16
571.11	30237.38
571.27	30118.01
571.43	30239.72
571.60	30368.45
571.76	30464.41
571.92	30539.31
572.09	30244.40
572.25	30787.41
572.41	30522.93
572.57	30581.44
572.74	30522.93
572.90	30361.43
573.06	30263.13
573.22	30672.72
573.38	30740.60
573.55	30548.67
573.71	30923.16
573.87	30801.45
574.03	30490.16
574.20	30747.62
574.36	30536.97
574.52	30654.00
574.68	30443.35
574.84	30639.95
575.01	30658.68
575.17	30752.30
575.33	30717.19
575.49	30675.06
575.65	30902.09
575.82	30855.28
575.98	30391.86
576.14	30328.66
576.30	30792.09
576.46	30162.48
576.62	30256.11
576.79	30869.33
576.95	30614.21
577.11	31026.14
577.27	30822.51
577.43	31213.38
577.59	30541.65
577.75	30696.13
577.92	30293.55
578.08	30314.62
578.24	30424.62
578.40	30761.66
578.56	30764.00
578.72	30974.65
578.88	30808.47
579.04	30838.90
579.21	30555.69
579.37	31124.44
579.53	30946.56
579.69	30871.67
579.85	30862.30
580.01	30778.04
580.17	30628.25
580.33	30569.74
580.49	30415.26
580.65	30686.76
580.82	31040.18
580.98	31129.12
581.14	30778.04
581.30	31101.04
581.46	30546.33
581.62	30881.03
581.78	30789.75
581.94	30768.68
582.10	30682.08
582.26	30635.27
582.42	30939.54
582.58	30820.17
582.74	30895.07
582.90	30693.79
583.06	30951.24
583.22	30993.37
583.38	30937.20
583.54	30703.15
583.70	30843.58
583.86	30735.92
584.02	30740.60
584.18	30888.05
584.34	30925.50
584.50	30756.98
584.66	31072.95
584.82	30459.73
584.98	30808.47
585.14	30635.27
585.30	30827.20
585.46	30803.79
585.62	30558.03
585.78	30918.48
585.94	30771.02
586.10	30969.97
586.26	31049.55
586.42	31204.02
586.58	31283.60
586.74	30625.91
586.90	30441.01
587.06	30932.52
587.22	30876.35
587.38	30719.53
587.54	30984.01
587.70	31185.30
587.86	31084.65
588.02	31377.22
588.18	31248.49
588.34	31248.49
588.49	30911.46
588.65	30864.64
588.81	30876.35
588.97	31019.12
589.13	31056.57
589.29	30602.50
589.45	31108.06
589.61	31204.02
589.77	31253.17
589.93	31299.98
590.08	31641.70
590.24	31276.58
590.40	31342.11
590.56	31370.20
590.72	31012.10
590.88	30899.75
591.04	31480.21
591.20	31622.98
591.35	31283.60
591.51	31690.85
591.67	31501.27
591.83	31955.33
591.99	31391.26
592.15	31222.75
592.31	31187.64
592.46	31047.21
592.62	31094.02
592.78	31213.38
592.94	31311.69
593.10	30967.63
593.26	31868.73
593.41	31257.85
593.57	31407.65
593.73	31594.89
593.89	31850.01
594.05	31276.58
594.20	31454.46
594.36	31204.02
594.52	31566.81
594.68	31531.70
594.84	31215.72
594.99	31601.91
595.15	32105.13
595.31	31468.50
595.47	31679.15
595.62	31573.83
595.78	31517.65
595.94	31204.02
596.10	31641.70
596.25	31632.34
596.41	31239.13
596.57	31072.95
596.73	31377.22
596.88	31213.38
597.04	31524.68
597.20	31573.83
597.36	31611.28
597.51	31681.49
597.67	31393.61
597.83	31473.18
597.99	31686.17
598.14	31477.86
598.30	31391.26
598.46	31442.76
598.61	31538.72
598.77	31288.28
598.93	31592.55
599.09	32018.53
599.24	31798.52
599.40	31948.31
599.56	31358.50
599.71	31763.41
599.87	31566.81
600.03	31573.83
600.18	31765.75
600.34	31613.62
600.50	31498.93
600.65	31433.39
600.81	31634.68
600.97	31452.12
601.12	31627.66
601.28	31679.15
601.44	31683.83
601.59	31845.33
601.75	31838.31
601.91	31723.62
602.06	31573.83
602.22	31594.89
602.37	31552.76
602.53	31475.52
602.69	31248.49
602.84	31590.21
603.00	31761.07
603.16	31566.81
603.31	31496.59
603.47	31449.78
603.62	31716.60
603.78	31573.83
603.94	31569.15
604.09	31721.28
604.25	31072.95
604.40	31290.62
604.56	31613.62
604.71	31838.31
604.87	31407.65
605.03	31297.64
605.18	31374.88
605.34	31789.16
605.49	31393.61
605.65	31505.95
605.80	31754.05
605.96	31431.05
606.12	31330.41
606.27	31648.72
606.43	31564.46
606.58	31761.07
606.74	31714.26
606.89	31655.75
607.05	31468.50
607.20	31456.80
607.36	31505.95
607.51	31321.05
607.67	31187.64
607.82	31541.06
607.98	31232.11
608.13	31608.93
608.29	31449.78
608.44	31424.03
608.60	31541.06
608.75	31409.99
608.91	31278.92
609.06	31475.52
609.22	31311.69
609.37	30813.15
609.53	31393.61
609.68	31213.38
609.84	31094.02
609.99	31098.70
610.15	30918.48
610.30	30834.22
610.46	31515.31
610.61	31201.68
610.76	31040.18
610.92	31424.03
611.07	31484.89
611.23	31314.03
611.38	30962.95
611.54	31122.10
611.69	31213.38
611.84	31131.47
612.00	31026.14
612.15	30866.98
612.31	31398.29
612.46	31023.80
612.62	31388.92
612.77	31044.87
612.92	31285.94
613.08	30927.84
613.23	31178.28
613.39	30916.14
613.54	30998.06
613.69	30752.30
613.85	30923.16
614.00	31054.23
614.15	31007.42
614.31	30993.37
614.46	30831.88
614.62	30801.45
614.77	30705.49
614.92	30944.22
615.08	30972.31
615.23	30649.32
615.38	30906.77
615.54	30731.23
615.69	30717.19
615.84	30855.28
616.00	30986.35
616.15	30740.60
616.30	31108.06
616.46	30888.05
616.61	30719.53
616.76	30883.37
616.92	31201.68
617.07	30944.22
617.22	30759.32
617.37	30726.55
617.53	30532.29
617.68	30808.47
617.83	30565.06
617.99	30387.18
618.14	30494.84
618.29	30731.23
618.45	30543.99
618.60	30810.81
618.75	30958.27
618.90	30682.08
619.06	30792.09
619.21	30298.23
619.36	30457.39
619.51	30288.87
619.67	30403.56
619.82	30335.68
619.97	30574.42
620.12	29977.58
620.28	30555.69
620.43	30445.69
620.58	30754.64
620.73	30611.87
620.89	30560.37
621.04	30724.21
621.19	30419.94
621.34	30654.00
621.49	29923.75
621.65	30469.09
621.80	30600.16
621.95	29965.88
622.10	30363.77
622.25	29809.06
622.41	30019.71
622.56	30293.55
622.71	30087.59
622.86	29965.88
623.01	30394.20
623.16	30359.09
623.32	29727.14
623.47	29914.39
623.62	30096.95
623.77	29776.30
623.92	30150.78
624.07	30370.79
624.23	29860.55
624.38	30036.09
624.53	30099.29
624.68	29970.56
624.83	30476.12
624.98	29647.57
625.13	30024.39
625.29	30195.25
625.44	30113.33
625.59	29874.60
625.74	29818.42
625.89	29605.44
626.04	29394.79
626.19	29670.97
626.34	30080.56
626.49	29577.35
626.65	29392.45
626.80	29600.76
626.95	29631.18
627.10	29607.78
627.25	29670.97
627.40	29472.03
627.55	29752.89
627.70	29488.41
627.85	29443.94
628.00	29469.69
628.15	29745.87
628.30	29558.63
628.45	29357.34
628.60	29336.27
628.76	29397.13
628.91	29748.21
629.06	29600.76
629.21	29305.85
629.36	29500.11
629.51	29364.36
629.66	29125.63
629.81	29214.57
629.96	29345.64
630.11	29254.36
630.26	28985.19
630.41	28978.17
630.56	28912.64
630.71	29134.99
630.86	29137.33
631.01	29076.48
631.16	29518.84
631.31	29312.87
631.46	28987.53
631.61	28837.74
631.76	29195.84
631.91	29280.10
632.06	29041.37
632.21	28856.46
632.36	29109.24
632.51	28737.10
632.66	28732.42
632.81	28601.35
632.96	28650.50
633.10	29289.46
633.25	28830.72
633.40	28844.76
633.55	28774.55
633.70	28393.04
633.85	28699.65
634.00	28723.05
634.15	28788.59
634.30	28758.16
634.45	28603.69
634.60	28954.77
634.75	28718.37
634.90	28540.49
635.05	28919.66
635.19	28477.30
635.34	29003.92
635.49	28666.88
635.64	28643.48
635.79	28664.54
635.94	28320.48
636.09	28727.74
636.24	28683.27
636.39	28027.92
636.53	28388.36
636.68	28290.06
636.83	28369.63
636.98	28596.67
637.13	28797.95
637.28	28521.77
637.43	28687.95
637.57	28577.94
637.72	28563.90
637.87	28390.70
638.02	28105.15
638.17	28423.47
638.32	28126.22
638.46	28261.97
638.61	28175.37
638.76	28137.92
638.91	27992.81
639.06	28168.35
639.20	28121.54
639.35	28491.34
639.50	28063.02
639.65	28484.32
639.80	28528.79
639.94	28299.42
640.09	28486.66
640.24	27962.38
640.39	28180.05
640.54	27936.63
640.68	27770.46
640.83	27936.63
640.98	28002.17
641.13	27637.05
641.27	27615.98
641.42	27927.27
641.57	27606.62
641.72	28105.15
641.86	27852.38
642.01	27875.78
642.16	27480.23
642.31	27630.02
642.45	27494.27
642.60	27763.43
642.75	27498.95
642.90	28149.62
643.04	27704.92
643.19	27491.93
643.34	27835.99
643.48	27700.24
643.63	27548.11
643.78	27779.82
643.93	27697.90
644.07	28116.86
644.22	27721.30
644.37	27566.83
644.51	27637.05
644.66	27300.01
644.81	27541.08
644.95	27370.22
645.10	27269.58
645.25	27606.62
645.39	27367.88
645.54	27192.34
645.69	27468.53
645.83	27531.72
645.98	27847.69
646.13	27508.32
646.27	27501.29
646.42	27234.47
646.57	27426.40
646.71	27426.40
646.86	27269.58
647.00	27229.79
647.15	27166.60
647.30	27274.26
647.44	27122.13
647.59	27115.11
647.74	26895.10
647.88	27419.38
648.03	27115.11
648.17	27473.21
648.32	27250.86
648.47	27854.72
648.61	27140.85
648.76	27323.41
648.90	27222.77
649.05	27351.50
649.20	26991.06
649.34	27047.23
649.49	26522.95
649.63	26916.16
649.78	27194.68
649.92	27000.42
650.07	27002.76
650.21	26977.01
650.36	27056.59
650.51	27197.02
650.65	27054.25
650.80	26974.67
650.94	26977.01
651.09	26675.09
651.23	26455.08
651.38	26536.99
651.52	26586.15
651.67	27056.59
651.81	26389.54
651.96	27199.37
652.10	26700.83
652.25	26771.05
652.39	26991.06
652.54	26876.37
652.68	26829.56
652.83	26658.70
652.97	26806.16
653.12	26663.38
653.26	26052.50
653.41	26534.65
653.55	26455.08
653.70	26293.58
653.84	26408.26
653.99	26529.97
654.13	26684.45
654.27	26394.22
654.42	26445.71
654.56	26588.49
654.71	26316.98
654.85	26616.57
655.00	26817.86
655.14	26295.92
655.29	26499.55
655.43	26609.55
655.57	26338.05
655.72	25954.20
655.86	26141.44
656.01	26309.96
656.15	25621.84
656.30	26209.32
656.44	26265.49
656.58	26103.99
656.73	26171.87
656.87	26249.11
657.01	26068.89
657.16	26221.02
657.30	26075.91
657.45	26244.43
657.59	25949.52
657.73	26045.48
657.88	26094.63
658.02	26089.95
658.16	25986.97
658.31	25809.09
658.45	25806.75
658.60	25909.73
658.74	25596.10
658.88	25692.06
659.03	25827.81
659.17	25685.04
659.31	25792.70
659.46	26108.68
659.60	25876.96
659.74	25738.87
659.89	25551.63
660.03	25785.68
660.17	25598.44
660.32	25298.85
660.46	25497.80
660.60	25502.48
660.74	25621.84
660.89	25465.03
661.03	24954.79
661.17	25500.14
661.32	25348.00
661.46	25603.12
661.60	24643.50
661.74	25245.02
661.89	25649.93
662.03	25181.82
662.17	25118.63
662.31	24891.60
662.46	25338.64
662.60	25490.77
662.74	25221.61
662.88	24680.95
663.03	24924.36
663.17	25069.48
663.31	24851.81
663.45	24816.70
663.60	25097.56
663.74	24823.72
663.88	24533.50
664.02	24767.55
664.17	24915.00
664.31	24872.87
664.45	24673.93
664.59	24552.22
664.73	24861.17
664.88	24716.06
665.02	24224.54
665.16	24217.52
665.30	24491.37
665.44	24116.88
665.59	24081.77
665.73	24051.34
665.87	23917.93
666.01	24133.26
666.15	24355.61
666.29	24364.98
666.44	24414.13
666.58	24098.16
666.72	24257.31
666.86	24407.11
667.00	24269.01
667.14	24030.28
667.28	24098.16
667.43	24180.07
667.57	24353.27
667.71	23843.04
667.85	23695.58
667.99	23744.73
668.13	23782.18
668.27	23789.20
668.41	23821.97
668.56	23709.63
668.70	23807.93
668.84	23611.32
668.98	23669.84
669.12	23805.59
669.26	23625.37
669.40	23335.14
669.54	23456.85
669.68	23618.35
669.82	23211.09
669.96	23098.75
670.10	23087.04
670.25	23166.62
670.39	23112.79
670.53	23419.40
670.67	22937.25
670.81	23405.36
670.95	23129.17
671.09	23295.35
671.23	23103.43
671.37	23175.98
671.51	23171.30
671.65	23147.90
671.79	23159.60
671.93	23154.92
672.07	22815.54
672.21	22724.26
672.35	22792.14
672.49	22434.03
672.63	22614.26
672.77	22511.27
672.91	22647.02
673.05	22469.14
673.19	22586.17
673.33	22331.05
673.47	22333.39
673.61	22171.89
673.75	22569.79
673.89	22396.59
674.03	21970.61
674.17	21764.64
674.31	22263.18
674.45	21891.03
674.59	22054.87
674.73	22132.11
674.87	22075.93
675.01	21783.37
675.15	21731.87
675.29	21729.53
675.43	21542.29
675.56	21488.46
675.70	21649.96
675.84	21816.13
675.98	21151.42
676.12	21823.16
676.26	21600.80
676.40	21614.85
676.54	21359.73
676.68	21418.24
676.82	21099.93
676.96	21263.77
677.10	21273.13
677.23	21106.95
677.37	20877.58
677.51	21010.99
677.65	20858.85
677.79	20566.29
677.93	20973.54
678.07	20603.74
678.21	20491.39
678.34	20563.95
678.48	20545.22
678.62	20786.30
678.76	20758.21
678.90	19908.60
679.04	20458.62
679.18	20475.01
679.31	20088.82
679.45	20229.25
679.59	19936.68
679.73	19960.09
679.87	19814.98
680.00	19756.46
680.14	19953.07
680.28	19946.05
680.42	19770.51
680.56	19756.46
680.70	19662.84
680.83	19524.75
680.97	19508.37
681.11	19597.31
681.25	19403.04
681.39	19452.19
681.52	19140.90
681.66	19173.67
681.80	19168.99
681.94	19271.97
682.07	19440.49
682.21	18979.40
682.35	18827.27
682.49	19023.87
682.62	19126.86
682.76	18761.73
682.90	18658.75
683.04	18876.42
683.17	18621.30
683.31	18743.01
683.45	18501.93
683.59	18476.19
683.72	18548.75
683.86	18242.14
684.00	18253.84
684.13	18403.63
684.27	18139.15
684.41	18178.94
684.55	18066.60
684.68	18181.28
684.82	17933.18
684.96	17685.09
685.09	17626.57
685.23	17792.75
685.37	17940.21
685.50	17869.99
685.64	17757.64
685.78	17563.38
685.91	17776.37
686.05	17500.19
686.19	17458.06
686.32	17486.14
686.46	17231.02
686.60	17345.71
686.73	17336.35
686.87	17055.48
687.01	17200.60
687.14	17041.44
687.28	16755.90
687.42	16989.95
687.55	16629.51
687.69	16973.56
687.82	17018.04
687.96	16830.79
688.10	16748.87
688.23	16805.05
688.37	16638.87
688.50	16692.70
688.64	16643.55
688.78	16343.96
688.91	16423.54
689.05	16233.96
689.18	16336.94
689.32	15740.10
689.46	16035.01
689.59	16098.20
689.73	15946.07
689.86	15836.06
690.00	15880.53
690.13	15915.64
690.27	15400.72
690.41	16035.01
690.54	15543.50
690.68	15810.32
690.81	15742.44
690.95	15733.08
691.08	15737.76
691.22	15250.93
691.35	15484.98
691.49	15403.07
691.62	15604.35
691.76	15115.18
691.89	15192.42
692.03	14909.21
692.16	15012.20
692.30	14895.17
692.43	14904.53
692.57	14602.60
692.70	14757.08
692.84	14864.74
692.97	14703.25
693.11	14565.15
693.24	14593.24
693.38	14693.88
693.51	14441.11
693.65	14438.76
693.78	14225.78
693.92	14490.26
694.05	14501.96
694.19	14083.00
694.32	14099.39
694.45	14075.98
694.59	14148.54
694.72	13919.17
694.86	13944.91
694.99	13778.73
695.13	13731.92
695.26	13841.93
695.39	13743.63
695.53	13841.93
695.66	13635.96
695.80	13750.65
695.93	13563.40
696.07	13422.97
696.20	13790.44
696.33	13413.61
696.47	13551.70
696.60	13149.13
696.73	13193.60
696.87	13071.89
697.00	13153.81
697.14	13071.89
697.27	12842.52
697.40	12922.10
697.54	12571.02
697.67	12704.43
697.80	12655.28
697.94	12664.64
698.07	12650.60
698.21	12360.37
698.34	12671.66
698.47	12564.00
698.61	12631.87
698.74	12496.12
698.87	12596.76
699.01	12322.92
699.14	12416.54
699.27	12215.26
699.40	12374.41
699.54	12074.82
699.67	11913.33
699.80	12088.87
699.94	12091.21
700.07	11730.76
700.20	11892.26
700.34	11595.01
700.47	11573.95
700.60	11721.40
700.73	11885.24
700.87	11627.78
701.00	11564.59
701.13	11756.51
701.26	11742.47
701.40	11489.69
701.53	11435.86
701.66	11290.74
701.79	11208.83
701.93	11117.54
702.06	11187.76
702.19	10965.41
702.32	11040.31
702.46	10827.32
702.59	10712.63
702.72	10834.34
702.85	10874.13
702.99	10700.93
703.12	10771.15
703.25	10553.48
703.38	10747.74
703.51	10691.57
703.65	10565.18
703.78	10731.36
703.91	10714.97
704.04	10803.91
704.17	10501.98
704.31	10588.58
704.44	10516.03
704.57	10228.14
704.70	10333.47
704.83	10073.67
704.96	10228.14
705.10	10111.11
705.23	10040.90
>>>>>End Processed Spectral Data<<<<<
