SpectraSuite Data File
++++++++++++++++++++++++++++++++++++
Date: Fri Oct 18 13:58:12 GMT-05:00 2013
User: bianchi
Dark Spectrum Present: No
Reference Spectrum Present: No
Number of Sampled Component Spectra: 1
Spectrometers: USB2+H05261
Integration Time (usec): 50000 (USB2+H05261)
Spectra Averaged: 1 (USB2+H05261)
Boxcar Smoothing: 0 (USB2+H05261)
Correct for Electrical Dark: No (USB2+H05261)
Strobe/Lamp Enabled: No (USB2+H05261)
Correct for Detector Non-linearity: No (USB2+H05261)
Correct for Stray Light: No (USB2+H05261)
Number of Pixels in Processed Spectrum: 2048
>>>>>Begin Processed Spectral Data<<<<<
365.73	0.00
365.92	0.00
366.12	0.00
366.32	0.00
366.52	0.00
366.72	0.00
366.91	0.00
367.11	0.00
367.31	0.00
367.51	0.00
367.70	0.00
367.90	0.00
368.10	0.00
368.30	0.00
368.49	0.00
368.69	0.00
368.89	0.00
369.09	0.00
369.28	0.00
369.48	0.00
369.68	0.00
369.87	0.00
370.07	0.00
370.27	0.00
370.47	0.00
370.66	86.60
370.86	117.03
371.06	147.45
371.25	234.05
371.45	107.66
371.65	173.20
371.84	88.94
372.04	121.71
372.24	107.66
372.44	163.84
372.63	191.92
372.83	140.43
373.03	154.48
373.22	184.90
373.42	208.31
373.62	285.55
373.81	250.44
374.01	285.55
374.21	217.67
374.40	220.01
374.60	224.69
374.79	250.44
374.99	205.97
375.19	257.46
375.38	184.90
375.58	245.76
375.78	320.65
375.97	245.76
376.17	257.46
376.37	250.44
376.56	259.80
376.76	287.89
376.95	292.57
377.15	271.50
377.35	245.76
377.54	229.37
377.74	299.59
377.93	337.04
378.13	250.44
378.33	318.31
378.52	259.80
378.72	337.04
378.91	313.63
379.11	313.63
379.31	346.40
379.50	252.78
379.70	308.95
379.89	278.52
380.09	241.08
380.28	250.44
380.48	360.44
380.68	292.57
380.87	245.76
381.07	276.18
381.26	348.74
381.46	334.70
381.65	332.36
381.85	358.10
382.04	245.76
382.24	400.23
382.43	304.27
382.63	369.80
382.83	311.29
383.02	311.29
383.22	360.44
383.41	313.63
383.61	386.19
383.80	390.87
384.00	365.12
384.19	430.66
384.39	341.72
384.58	390.87
384.78	383.85
384.97	451.72
385.17	390.87
385.36	355.76
385.56	341.72
385.75	334.70
385.95	367.46
386.14	397.89
386.34	376.83
386.53	311.29
386.72	374.49
386.92	458.74
387.11	421.30
387.31	468.11
387.50	479.81
387.70	416.62
387.89	491.51
388.09	374.49
388.28	393.21
388.48	411.93
388.67	489.17
388.86	444.70
389.06	512.58
389.25	486.83
389.45	416.62
389.64	435.34
389.84	535.98
390.03	493.85
390.22	505.56
390.42	409.59
390.61	454.06
390.81	449.38
391.00	505.56
391.19	594.50
391.39	545.34
391.58	510.24
391.78	617.90
391.97	550.03
392.16	514.92
392.36	510.24
392.55	575.77
392.75	587.47
392.94	524.28
393.13	599.18
393.33	449.38
393.52	493.85
393.71	645.99
393.91	582.79
394.10	578.11
394.29	568.75
394.49	613.22
394.68	648.33
394.88	582.79
395.07	575.77
395.26	669.39
395.46	624.92
395.65	697.48
395.84	655.35
396.04	697.48
396.23	657.69
396.42	657.69
396.62	690.46
396.81	690.46
397.00	641.31
397.19	627.26
397.39	706.84
397.58	713.86
397.77	674.07
397.97	678.76
398.16	692.80
398.35	784.08
398.55	716.20
398.74	697.48
398.93	692.80
399.12	765.36
399.32	730.25
399.51	702.16
399.70	758.33
399.90	753.65
400.09	809.83
400.28	781.74
400.47	748.97
400.67	732.59
400.86	842.59
401.05	866.00
401.24	847.27
401.44	894.08
401.63	816.85
401.82	709.18
402.01	781.74
402.21	863.66
402.40	837.91
402.59	828.55
402.78	739.61
402.97	851.96
403.17	830.89
403.36	863.66
403.55	910.47
403.74	917.49
403.93	898.77
404.13	926.85
404.32	901.11
404.51	968.98
404.70	1022.81
404.89	992.39
405.09	990.05
405.28	940.90
405.47	961.96
405.66	964.30
405.85	997.07
406.05	992.39
406.24	983.02
406.43	1034.52
406.62	1142.18
406.81	1125.80
407.00	1004.09
407.20	997.07
407.39	1022.81
407.58	1057.92
407.77	1107.07
407.96	1128.14
408.15	1118.78
408.34	1116.44
408.54	1212.40
408.73	1006.43
408.92	999.41
409.11	1125.80
409.30	1137.50
409.49	1160.91
409.68	1130.48
409.87	1277.93
410.07	1256.87
410.26	1217.08
410.45	1245.16
410.64	1296.66
410.83	1231.12
411.02	1179.63
411.21	1217.08
411.40	1296.66
411.59	1317.72
411.78	1289.64
411.98	1280.27
412.17	1242.82
412.36	1249.85
412.55	1299.00
412.74	1322.40
412.93	1364.53
413.12	1287.29
413.31	1385.60
413.50	1394.96
413.69	1425.39
413.88	1376.24
414.07	1462.83
414.26	1488.58
414.45	1453.47
414.64	1509.65
414.83	1472.20
415.02	1516.67
415.22	1579.86
415.41	1516.67
415.60	1493.26
415.79	1474.54
415.98	1652.42
416.17	1556.46
416.36	1605.61
416.55	1650.08
416.74	1624.33
416.93	1739.02
417.12	1767.10
417.31	1678.16
417.50	1675.82
417.69	1717.95
417.88	1703.91
418.07	1778.81
418.26	1706.25
418.45	1708.59
418.64	1921.58
418.83	1844.34
419.02	1729.66
419.21	1970.73
419.39	1902.86
419.58	1898.17
419.77	1834.98
419.96	1940.30
420.15	1949.67
420.34	1874.77
420.53	1858.39
420.72	1891.15
420.91	1886.47
421.10	1975.41
421.29	1996.48
421.48	2031.58
421.67	2017.54
421.86	1989.46
422.05	2012.86
422.24	1954.35
422.43	1963.71
422.61	1949.67
422.80	1959.03
422.99	2104.14
423.18	2132.23
423.37	2008.18
423.56	1942.64
423.75	1961.37
423.94	2069.03
424.13	1867.75
424.32	2015.20
424.50	2071.37
424.69	2146.27
424.88	2064.35
425.07	1907.54
425.26	1994.14
425.45	2118.18
425.64	2087.76
425.83	2076.06
426.01	2134.57
426.20	2099.46
426.39	1949.67
426.58	2090.10
426.77	2083.08
426.96	2204.78
427.15	2057.33
427.33	2118.18
427.52	2092.44
427.71	2155.63
427.90	2064.35
428.09	2293.72
428.28	2361.60
428.46	2277.34
428.65	2216.49
428.84	2221.17
429.03	2200.10
429.22	2214.15
429.40	2237.55
429.59	2307.77
429.78	2244.57
429.97	2195.42
430.16	2225.85
430.34	2370.96
430.53	2319.47
430.72	2303.09
430.91	2314.79
431.10	2401.39
431.28	2347.56
431.47	2471.61
431.66	2354.58
431.85	2319.47
432.03	2487.99
432.22	2502.03
432.41	2363.94
432.60	2544.16
432.79	2499.69
432.97	2560.55
433.16	2476.29
433.35	2408.41
433.54	2502.03
433.72	2551.18
433.91	2490.33
434.10	2511.39
434.28	2452.88
434.47	2537.14
434.66	2672.89
434.85	2612.04
435.03	2605.02
435.22	2544.16
435.41	2731.41
435.59	2619.06
435.78	2677.57
435.97	2651.83
436.16	2747.79
436.34	2656.51
436.53	2729.06
436.72	2796.94
436.90	2679.91
437.09	2761.83
437.28	2626.08
437.46	2600.34
437.65	2764.17
437.84	2841.41
438.02	2722.04
438.21	2764.17
438.40	2782.90
438.58	2883.54
438.77	2960.78
438.96	3009.93
439.14	2839.07
439.33	2979.50
439.52	3033.33
439.70	2923.33
439.89	2953.76
440.08	3145.68
440.26	3157.38
440.45	3103.55
440.63	3000.57
440.82	3124.62
441.01	3117.59
441.19	3213.56
441.38	3229.94
441.57	3220.58
441.75	3272.07
441.94	3351.65
442.12	3323.56
442.31	3372.71
442.50	3456.97
442.68	3452.29
442.87	3314.20
443.05	3274.41
443.24	3358.67
443.43	3325.90
443.61	3510.80
443.80	3562.30
443.98	3412.50
444.17	3197.17
444.35	3473.36
444.54	3557.61
444.73	3590.38
444.91	3552.93
445.10	3555.27
445.28	3393.78
445.47	3644.21
445.65	3454.63
445.84	3543.57
446.02	3545.91
446.21	3449.95
446.39	3559.95
446.58	3548.25
446.77	3524.85
446.95	3438.25
447.14	3513.14
447.32	3489.74
447.51	3564.64
447.69	3459.31
447.88	3686.34
448.06	3382.07
448.25	3494.42
448.43	3691.02
448.62	3529.53
448.80	3585.70
448.99	3641.87
449.17	3676.98
449.36	3761.24
449.54	3728.47
449.73	3747.20
449.91	3786.99
450.10	3681.66
450.28	3740.18
450.46	3754.22
450.65	3756.56
450.83	3950.82
451.02	3749.54
451.20	3868.91
451.39	3976.57
451.57	3833.80
451.76	3871.25
451.94	3929.76
452.13	3927.42
452.31	3918.06
452.49	3782.31
452.68	3875.93
452.86	3941.46
453.05	3815.07
453.23	4065.51
453.42	4002.32
453.60	3878.27
453.78	3936.78
453.97	4105.30
454.15	3967.21
454.34	4039.76
454.52	4107.64
454.70	3967.21
454.89	4004.66
455.07	4152.11
455.26	4189.56
455.44	4138.07
455.62	4035.08
455.81	4227.01
455.99	4187.22
456.17	4131.05
456.36	4067.85
456.54	4266.80
456.73	4170.83
456.91	4219.99
457.09	4400.21
457.28	4400.21
457.46	4400.21
457.64	4440.00
457.83	4411.91
458.01	4383.82
458.19	4571.07
458.38	4580.43
458.56	4568.73
458.74	4631.92
458.93	4428.29
459.11	4454.04
459.29	4524.26
459.48	4472.76
459.66	4669.37
459.84	4622.56
460.03	4739.58
460.21	4587.45
460.39	4411.91
460.57	4550.00
460.76	4575.75
460.94	4599.15
461.12	4748.95
461.31	4795.76
461.49	4603.83
461.67	4542.98
461.85	4702.14
462.04	4851.93
462.22	5083.64
462.40	4933.85
462.59	4809.80
462.77	4720.86
462.95	4894.06
463.13	4760.65
463.32	4959.60
463.50	4765.33
463.68	4851.93
463.86	5027.47
464.05	4952.57
464.23	5015.77
464.41	5093.01
464.59	4809.80
464.78	4961.94
464.96	4896.40
465.14	4837.89
465.32	5060.24
465.50	5013.43
465.69	5146.84
465.87	5022.79
466.05	5048.54
466.23	5090.67
466.41	5074.28
466.60	5144.50
466.78	4997.04
466.96	5132.79
467.14	5249.82
467.32	5174.92
467.51	5296.63
467.69	4973.64
467.87	5224.08
468.05	5331.74
468.23	5188.97
468.41	5160.88
468.60	5263.86
468.78	5238.12
468.96	5359.83
469.14	5392.59
469.32	5324.72
469.50	5376.21
469.69	5441.75
469.87	5533.03
470.05	5472.17
470.23	5455.79
470.41	5549.41
470.59	5586.86
470.77	5610.26
470.95	5680.48
471.14	5687.50
471.32	5481.53
471.50	5628.99
471.68	5575.16
471.86	5600.90
472.04	5708.57
472.22	5781.12
472.40	5687.50
472.58	5706.23
472.77	5841.98
472.95	5743.67
473.13	6200.08
473.31	5959.00
473.49	5856.02
473.67	5928.58
473.85	6024.54
474.03	5982.41
474.21	6253.91
474.39	6286.68
474.57	6122.84
474.75	6286.68
474.93	6160.29
475.12	6104.12
475.30	6338.17
475.48	6296.04
475.66	6331.15
475.84	6382.64
476.02	6338.17
476.20	6415.41
476.38	6546.48
476.56	6691.59
476.74	6633.08
476.92	6736.06
477.10	6562.86
477.28	6841.39
477.46	6874.15
477.64	6932.67
477.82	6913.94
478.00	6862.45
478.18	6930.33
478.36	7152.68
478.54	7190.13
478.72	7339.92
478.90	7199.49
479.08	7311.83
479.26	7283.75
479.44	7330.56
479.62	7653.55
479.80	7569.29
479.98	7475.67
480.16	7793.98
480.34	7700.36
480.52	7758.88
480.70	7719.09
480.88	7503.76
481.06	7765.90
481.24	7808.03
481.41	8002.29
481.59	8044.42
481.77	8159.11
481.95	8152.09
482.13	8278.47
482.31	8161.45
482.49	8442.31
482.67	8346.35
482.85	8383.80
483.03	8692.75
483.21	8538.27
483.39	8826.16
483.57	8699.77
483.74	8915.10
483.92	8779.35
484.10	8805.10
484.28	9200.65
484.46	8982.98
484.64	9343.42
484.82	9123.41
485.00	9320.01
485.18	9359.80
485.35	9483.85
485.53	9558.75
485.71	9415.98
485.89	9914.51
486.07	9654.71
486.25	9657.05
486.43	9701.52
486.61	9863.02
486.78	9940.26
486.96	10106.43
487.14	10328.78
487.32	10061.96
487.50	10307.72
487.68	10258.57
487.85	10509.01
488.03	10703.27
488.21	10829.66
488.39	10588.58
488.57	10773.49
488.75	10897.53
488.92	11019.24
489.10	11105.84
489.28	11059.03
489.46	11351.60
489.64	11176.06
489.81	11487.35
489.99	11475.65
490.17	11510.75
490.35	11808.00
490.53	11723.74
490.70	11669.91
490.88	11761.19
491.06	12166.10
491.24	11529.48
491.41	12058.44
491.59	11974.18
491.77	12081.85
491.95	12336.96
492.13	12273.77
492.30	12329.94
492.48	12383.77
492.66	12683.36
492.84	12418.88
493.01	12753.58
493.19	12758.26
493.37	12931.46
493.54	12854.22
493.72	13118.70
493.90	12842.52
494.08	13312.97
494.25	13261.48
494.43	13362.12
494.61	13631.28
494.79	13624.26
494.96	13710.86
495.14	13727.24
495.32	13724.90
495.49	13806.82
495.67	13891.08
495.85	14026.83
496.02	14078.32
496.20	14143.86
496.38	14188.33
496.55	14031.51
496.73	14560.47
496.91	14310.04
497.09	14347.48
497.26	14635.37
497.44	14387.27
497.62	14317.06
497.79	14787.50
497.97	14738.35
498.14	15098.80
498.32	15030.92
498.50	15463.92
498.67	15445.20
498.85	15108.16
499.03	15541.16
499.20	15213.48
499.38	15183.06
499.56	15405.41
499.73	15520.09
499.91	15735.42
500.08	15632.44
500.26	15630.10
500.44	15936.71
500.61	15660.52
500.79	15744.78
500.97	16042.03
501.14	16128.63
501.32	16182.46
501.49	16379.07
501.67	15967.13
501.84	16145.02
502.02	16210.55
502.20	16163.74
502.37	16493.76
502.55	16336.94
502.72	16606.10
502.90	16362.69
503.07	16166.08
503.25	16491.41
503.43	16727.81
503.60	16898.67
503.78	16938.46
503.95	16606.10
504.13	16877.60
504.30	16872.92
504.48	16620.14
504.65	16910.37
504.83	17277.83
505.01	17326.99
505.18	17305.92
505.36	17479.12
505.53	17364.43
505.71	17579.76
505.88	17451.03
506.06	17392.52
506.23	17720.20
506.41	17568.06
506.58	17729.56
506.76	17444.01
506.93	17642.96
507.11	17537.63
507.28	17837.22
507.46	17902.76
507.63	17937.87
507.81	18349.80
507.98	17921.48
508.16	18064.25
508.33	18256.18
508.50	18530.02
508.68	18043.19
508.85	18420.02
509.03	18319.37
509.20	18625.98
509.38	18534.70
509.55	18448.10
509.73	18838.97
509.90	18534.70
510.08	18574.49
510.25	18602.58
510.42	18675.13
510.60	19157.28
510.77	18925.57
510.95	18923.23
511.12	18916.21
511.30	19016.85
511.47	19173.67
511.64	19220.48
511.82	19229.84
511.99	19159.63
512.17	19157.28
512.34	19157.28
512.51	19421.77
512.69	19264.95
512.86	19527.09
513.04	19506.02
513.21	19634.75
513.38	19887.53
513.56	19814.98
513.73	19562.20
513.90	19829.02
514.08	19803.27
514.25	19763.48
514.43	20311.17
514.60	19999.88
514.77	20194.14
514.95	20121.59
515.12	20168.40
515.29	20297.13
515.47	20297.13
515.64	20325.21
515.81	20269.04
515.99	20421.17
516.16	20847.15
516.33	20840.13
516.51	20659.91
516.68	20479.69
516.85	20704.38
517.03	20821.41
517.20	20769.91
517.37	20882.26
517.54	20849.49
517.72	20957.16
517.89	20959.50
518.06	21406.54
518.24	20617.78
518.41	20961.84
518.58	21284.83
518.75	21156.10
518.93	21357.39
519.10	21010.99
519.27	21329.30
519.45	21032.05
519.62	21301.22
519.79	21228.66
519.96	21472.07
520.14	21593.78
520.31	21523.57
520.48	21731.87
520.65	21532.93
520.83	21706.13
521.00	21745.92
521.17	21776.34
521.34	21879.33
521.52	22171.89
521.69	22087.64
521.86	22305.31
522.03	22183.60
522.20	22132.11
522.38	22040.82
522.55	22047.85
522.72	21958.91
522.89	22026.78
523.07	22696.17
523.24	22522.98
523.41	22541.70
523.58	22403.61
523.75	22918.53
523.92	22522.98
524.10	22640.00
524.27	22733.62
524.44	22911.50
524.61	22946.61
524.78	22796.82
524.96	22934.91
525.13	22899.80
525.30	22993.42
525.47	23150.24
525.64	22991.08
525.81	23419.40
525.98	23351.52
526.16	23077.68
526.33	23161.94
526.50	23269.61
526.67	23339.82
526.84	23136.20
527.01	23204.07
527.18	23491.96
527.36	23325.78
527.53	23447.49
527.70	23800.91
527.87	23307.05
528.04	23501.32
528.21	23723.67
528.38	23620.69
528.55	24039.64
528.72	23803.25
528.89	23775.16
529.07	23714.31
529.24	23758.78
529.41	23812.61
529.58	23957.72
529.75	23995.17
529.92	23943.68
530.09	23704.95
530.26	23864.10
530.43	24313.48
530.60	23620.69
530.77	24130.92
530.94	24364.98
531.11	24121.56
531.28	24215.18
531.46	24252.63
531.63	24247.95
531.80	24446.90
531.97	24531.15
532.14	24566.26
532.31	24592.01
532.48	24341.57
532.65	24606.05
532.82	24414.13
532.99	24727.76
533.16	24702.01
533.33	24678.61
533.50	24769.89
533.67	24664.57
533.84	24561.58
534.01	24800.32
534.18	24917.34
534.35	25034.37
534.52	24992.24
534.69	25013.31
534.86	24900.96
535.03	25069.48
535.20	25254.38
535.37	24924.36
535.54	25216.93
535.71	24959.47
535.88	25223.95
536.05	25490.77
536.22	25392.47
536.38	25280.13
536.55	25584.40
536.72	25256.72
536.89	25275.45
537.06	25612.48
537.23	25553.97
537.40	25207.57
537.57	25406.52
537.74	25551.63
537.91	25748.23
538.08	26010.37
538.25	25825.47
538.42	25443.96
538.59	25825.47
538.75	25797.38
538.92	25696.74
539.09	25937.82
539.26	25956.54
539.43	26029.10
539.60	26092.29
539.77	26405.92
539.94	26295.92
540.11	25947.18
540.28	26111.02
540.44	26141.44
540.61	26279.54
540.78	26008.03
540.95	26466.78
541.12	26235.06
541.29	26415.29
541.46	26536.99
541.62	26338.05
541.79	26183.57
541.96	25979.95
542.13	26143.78
542.30	26644.66
542.47	26829.56
542.63	26682.11
542.80	26497.20
542.97	27103.40
543.14	26909.14
543.31	26663.38
543.48	26951.27
543.64	26944.25
543.81	26927.86
543.98	26955.95
544.15	27314.05
544.32	26897.44
544.48	26984.04
544.65	27063.61
544.82	26892.76
544.99	26581.46
545.16	27087.02
545.32	26962.97
545.49	27487.25
545.66	27292.99
545.83	27552.79
546.00	27498.95
546.16	27058.93
546.33	27185.32
546.50	27047.23
546.67	27388.95
546.83	27150.21
547.00	27199.37
547.17	27545.76
547.34	27452.14
547.50	27538.74
547.67	27627.68
547.84	27791.52
548.00	27700.24
548.17	27798.54
548.34	27484.91
548.51	27782.16
548.67	27821.95
548.84	27871.10
549.01	27597.26
549.18	27721.30
549.34	27887.48
549.51	27599.60
549.68	27889.82
549.84	27737.69
550.01	27793.86
550.18	27513.00
550.34	27964.72
550.51	28163.67
550.68	28521.77
550.84	27908.55
551.01	28121.54
551.18	28102.81
551.34	27814.93
551.51	27740.03
551.68	28158.99
551.84	28142.60
552.01	28048.98
552.18	28320.48
552.34	28226.86
552.51	28336.87
552.68	28072.39
552.84	27913.23
553.01	28500.70
553.18	28084.09
553.34	28474.96
553.51	28252.61
553.67	28851.78
553.84	28772.21
554.01	28893.91
554.17	28364.95
554.34	28254.95
554.51	28531.13
554.67	28409.42
554.84	28643.48
555.00	28601.35
555.17	29046.05
555.33	28870.51
555.50	28573.26
555.67	28877.53
555.83	28996.90
556.00	28711.35
556.16	28907.96
556.33	29064.77
556.50	28849.44
556.66	29020.30
556.83	28811.99
556.99	29034.35
557.16	28694.97
557.32	29144.35
557.49	29186.48
557.65	28924.34
557.82	28952.43
557.98	28751.14
558.15	29151.37
558.32	29488.41
558.48	28840.08
558.65	29343.30
558.81	29106.90
558.98	29788.00
559.14	28959.45
559.31	28893.91
559.47	29535.22
559.64	29116.26
559.80	29298.83
559.97	29326.91
560.13	29181.80
560.30	29310.53
560.46	29205.20
560.63	29507.13
560.79	29401.81
560.96	29275.42
561.12	29336.27
561.29	29020.30
561.45	29413.51
561.61	29530.54
561.78	29790.34
561.94	29350.32
562.11	29479.05
562.27	29352.66
562.44	29223.93
562.60	29663.95
562.77	29734.17
562.93	29785.66
563.10	29390.11
563.26	29256.70
563.42	30064.18
563.59	29422.87
563.75	29766.93
563.92	30108.65
564.08	29610.12
564.24	29507.13
564.41	29408.83
564.57	29434.58
564.74	29729.48
564.90	29525.86
565.07	29823.11
565.23	29759.91
565.39	29837.15
565.56	29972.90
565.72	29509.47
565.88	29804.38
566.05	29596.07
566.21	29750.55
566.38	29926.09
566.54	29773.95
566.70	30141.42
566.87	29907.37
567.03	30520.59
567.19	30213.98
567.36	30073.54
567.52	29944.81
567.68	29872.26
567.85	30118.01
568.01	30071.20
568.17	30066.52
568.34	30265.47
568.50	30204.61
568.66	30284.19
568.83	29898.00
568.99	30036.09
569.15	29972.90
569.32	29883.96
569.48	29661.61
569.64	29979.92
569.81	29984.60
569.97	29900.34
570.13	30511.22
570.30	29764.59
570.46	30225.68
570.62	29874.60
570.78	29865.24
570.95	30141.42
571.11	29905.02
571.27	29720.12
571.43	30000.99
571.60	30052.48
571.76	30143.76
571.92	30050.14
572.09	30375.47
572.25	30335.68
572.41	30197.59
572.57	30345.05
572.74	30384.83
572.90	29713.10
573.06	30122.69
573.22	30199.93
573.38	30101.63
573.55	30335.68
573.71	30213.98
573.87	30401.22
574.03	30333.34
574.20	30202.27
574.36	29921.41
574.52	30469.09
574.68	29900.34
574.84	30319.30
575.01	30134.40
575.17	30361.43
575.33	30031.41
575.49	30366.11
575.65	30246.74
575.82	30199.93
575.98	30260.79
576.14	30581.44
576.30	30221.00
576.46	30471.43
576.62	30258.45
576.79	30483.14
576.95	30387.18
577.11	30476.12
577.27	30515.90
577.43	31021.46
577.59	30419.94
577.75	30398.88
577.92	30387.18
578.08	30476.12
578.24	30279.51
578.40	30340.36
578.56	30103.97
578.72	30438.67
578.88	30668.04
579.04	30827.20
579.21	30373.13
579.37	30384.83
579.53	30403.56
579.69	30295.89
579.85	30075.88
580.01	30717.19
580.17	29832.47
580.33	30260.79
580.49	30361.43
580.65	30302.92
580.82	30745.28
580.98	30675.06
581.14	30113.33
581.30	30766.34
581.46	30431.65
581.62	30665.70
581.78	30436.33
581.94	29984.60
582.10	30476.12
582.26	31084.65
582.42	30473.78
582.58	30478.46
582.74	30682.08
582.90	30335.68
583.06	30595.48
583.22	30422.28
583.38	30326.32
583.54	30361.43
583.70	30504.20
583.86	30515.90
584.02	30387.18
584.18	30752.30
584.34	30639.95
584.50	31023.80
584.66	30532.29
584.82	30363.77
584.98	30986.35
585.14	30438.67
585.30	30213.98
585.46	30665.70
585.62	30682.08
585.78	31000.40
585.94	30480.80
586.10	30661.02
586.26	30974.65
586.42	30756.98
586.58	30548.67
586.74	30899.75
586.90	30150.78
587.06	30689.10
587.22	30859.96
587.38	30817.83
587.54	30710.17
587.70	30569.74
587.86	30761.66
588.02	30796.77
588.18	30859.96
588.34	30670.38
588.49	30904.43
588.65	30838.90
588.81	30904.43
588.97	30874.01
589.13	30235.04
589.29	30405.90
589.45	31246.15
589.61	31185.30
589.77	31101.04
589.93	31049.55
590.08	30782.73
590.24	30756.98
590.40	30953.58
590.56	30897.41
590.72	31143.17
590.88	30717.19
591.04	30742.94
591.20	30951.24
591.35	30974.65
591.51	30834.22
591.67	31442.76
591.83	31412.33
591.99	31239.13
592.15	31068.27
592.31	31271.90
592.46	30881.03
592.62	30944.22
592.78	30450.37
592.94	30962.95
593.10	30721.87
593.26	31147.85
593.41	30913.80
593.57	31110.40
593.73	31016.78
593.89	31117.42
594.05	30874.01
594.20	30906.77
594.36	31101.04
594.52	31157.21
594.68	30951.24
594.84	31087.00
594.99	31026.14
595.15	30824.86
595.31	31164.23
595.47	30953.58
595.62	31253.17
595.78	31211.04
595.94	31136.15
596.10	31112.74
596.25	30749.96
596.41	31119.76
596.57	30724.21
596.73	30686.76
596.88	31005.08
597.04	31311.69
597.20	31534.04
597.36	31166.57
597.51	31372.54
597.67	30934.86
597.83	30960.61
597.99	31276.58
598.14	30864.64
598.30	30993.37
598.46	31302.32
598.61	30890.39
598.77	31058.91
598.93	31466.16
599.09	31583.19
599.24	31648.72
599.40	31332.75
599.56	31211.04
599.71	31501.27
599.87	31571.49
600.03	31131.47
600.18	30941.88
600.34	30988.69
600.50	31288.28
600.65	30927.84
600.81	31503.61
600.97	31033.16
601.12	31800.86
601.28	31796.18
601.44	31428.71
601.59	31498.93
601.75	31197.00
601.91	30993.37
602.06	31269.56
602.22	31173.60
602.37	31201.68
602.53	30857.62
602.69	31122.10
602.84	31405.31
603.00	31278.92
603.16	31510.63
603.31	31026.14
603.47	31239.13
603.62	30888.05
603.78	30986.35
603.94	31164.23
604.09	31363.18
604.25	31180.62
604.40	31234.45
604.56	31351.48
604.71	31168.91
604.87	31323.39
605.03	31356.16
605.18	31424.03
605.34	31082.31
605.49	31269.56
605.65	31208.70
605.80	30925.50
605.96	31012.10
606.12	31096.36
606.27	31393.61
606.43	31040.18
606.58	31393.61
606.74	31419.35
606.89	31157.21
607.05	31337.43
607.20	31182.96
607.36	31035.50
607.51	31386.58
607.67	31126.78
607.82	30871.67
607.98	31016.78
608.13	31042.53
608.29	31206.36
608.44	31012.10
608.60	30984.01
608.75	31585.53
608.91	31351.48
609.06	30932.52
609.22	31405.31
609.37	30689.10
609.53	30775.70
609.68	30981.67
609.84	31037.84
609.99	31005.08
610.15	31019.12
610.30	30864.64
610.46	30874.01
610.61	30934.86
610.76	30888.05
610.92	30998.06
611.07	30972.31
611.23	30749.96
611.38	30724.21
611.54	30689.10
611.69	30878.69
611.84	30637.61
612.00	30895.07
612.15	30415.26
612.31	31054.23
612.46	31105.72
612.62	31161.89
612.77	30852.94
612.92	31285.94
613.08	31019.12
613.23	31117.42
613.39	30733.57
613.54	30230.36
613.69	30340.36
613.85	30560.37
614.00	30480.80
614.15	30771.02
614.31	30529.95
614.46	30885.71
614.62	30256.11
614.77	30621.23
614.92	30918.48
615.08	30302.92
615.23	30724.21
615.38	30410.58
615.54	30185.89
615.69	30560.37
615.84	30022.05
616.00	30759.32
616.15	30698.47
616.30	30855.28
616.46	30593.14
616.61	30632.93
616.76	30181.21
616.92	30480.80
617.07	30328.66
617.22	30558.03
617.37	29984.60
617.53	30611.87
617.68	30335.68
617.83	30625.91
617.99	30438.67
618.14	30410.58
618.29	30012.69
618.45	30476.12
618.60	30024.39
618.75	30375.47
618.90	30230.36
619.06	30251.42
619.21	30185.89
619.36	30223.34
619.51	29916.73
619.67	29965.88
619.82	29551.60
619.97	30167.16
620.12	29965.88
620.28	29923.75
620.43	30323.98
620.58	30068.86
620.73	30232.70
620.89	30239.72
621.04	30232.70
621.19	30265.47
621.34	29912.05
621.49	30000.99
621.65	29647.57
621.80	29869.92
621.95	29429.90
622.10	29776.30
622.25	29879.28
622.41	30082.91
622.56	29848.85
622.71	30197.59
622.86	29958.86
623.01	30054.82
623.16	29851.19
623.32	29963.54
623.47	29619.48
623.62	29811.40
623.77	29790.34
623.92	29612.46
624.07	29598.41
624.23	29575.01
624.38	29525.86
624.53	29273.08
624.68	29944.81
624.83	29687.36
624.98	29853.53
625.13	29778.64
625.29	30031.41
625.44	29645.23
625.59	29699.06
625.74	29280.10
625.89	29680.33
626.04	29263.72
626.19	29624.16
626.34	29516.50
626.49	29436.92
626.65	29504.79
626.80	29378.40
626.95	29511.81
627.10	29296.49
627.25	28947.75
627.40	29291.80
627.55	29216.91
627.70	29287.12
627.85	28980.51
628.00	29165.42
628.15	29041.37
628.30	28926.68
628.45	29525.86
628.60	29380.74
628.76	29149.03
628.91	29043.71
629.06	29095.20
629.21	29294.14
629.36	29123.29
629.51	29046.05
629.66	29310.53
629.81	28716.03
629.96	28893.91
630.11	28765.18
630.26	29165.42
630.41	29160.73
630.56	29034.35
630.71	29104.56
630.86	29102.22
631.01	28807.31
631.16	29268.40
631.31	28821.36
631.46	28568.58
631.61	28889.23
631.76	28978.17
631.91	28627.09
632.06	28533.47
632.21	28620.07
632.36	28507.72
632.51	28411.76
632.66	28804.97
632.81	28510.07
632.96	28968.81
633.10	28467.94
633.25	28811.99
633.40	28671.56
633.55	28563.90
633.70	28292.40
633.85	28362.61
634.00	28329.84
634.15	28601.35
634.30	28643.48
634.45	28130.90
634.60	28355.59
634.75	28657.52
634.90	28453.89
635.05	28486.66
635.19	28603.69
635.34	28582.62
635.49	28292.40
635.64	28687.95
635.79	28109.83
635.94	28074.73
636.09	28496.02
636.24	27953.02
636.39	28212.82
636.53	28383.68
636.68	28299.42
636.83	28072.39
636.98	28041.96
637.13	28404.74
637.28	28222.18
637.43	28664.54
637.57	28512.41
637.72	28004.51
637.87	28154.30
638.02	27931.95
638.17	27812.59
638.32	27601.94
638.46	27953.02
638.61	27782.16
638.76	27667.47
638.91	27484.91
639.06	27592.58
639.20	27676.83
639.35	28135.58
639.50	28451.55
639.65	28025.57
639.80	28112.17
639.94	28133.24
640.09	27700.24
640.24	27618.32
640.39	27777.48
640.54	27711.94
640.68	27637.05
640.83	27615.98
640.98	27676.83
641.13	27276.60
641.27	27964.72
641.42	27374.91
641.57	27754.07
641.72	27765.78
641.86	27552.79
642.01	27536.40
642.16	27297.67
642.31	27318.73
642.45	27880.46
642.60	27173.62
642.75	27564.49
642.90	26923.18
643.04	27304.69
643.19	27618.32
643.34	27199.37
643.48	27199.37
643.63	27316.39
643.78	27435.76
643.93	27332.78
644.07	27562.15
644.22	27669.81
644.37	27164.26
644.51	27447.46
644.66	27108.08
644.81	27152.55
644.95	26665.72
645.10	27082.34
645.25	27103.40
645.39	27255.54
645.54	27477.89
645.69	26955.95
645.83	27028.51
645.98	27098.72
646.13	27040.21
646.27	27281.28
646.42	27082.34
646.57	27199.37
646.71	27218.09
646.86	27026.17
647.00	26944.25
647.15	26918.50
647.30	27110.43
647.44	26529.97
647.59	26785.09
647.74	26841.26
647.88	26817.86
648.03	27005.10
648.17	26717.22
648.32	26965.31
648.47	27063.61
648.61	27068.30
648.76	27063.61
648.90	27154.90
649.05	27108.08
649.20	27077.66
649.34	26810.84
649.49	26693.81
649.63	26782.75
649.78	26494.86
649.92	26555.72
650.07	26738.28
650.21	26625.93
650.36	26670.40
650.51	26717.22
650.65	26501.89
650.80	26492.52
650.94	26363.79
651.09	26752.32
651.23	26387.20
651.38	26438.69
651.52	26443.37
651.67	26703.17
651.81	26415.29
651.96	26630.62
652.10	27000.42
652.25	26459.76
652.39	26834.24
652.54	26321.66
652.68	26691.47
652.83	26988.72
652.97	26235.06
653.12	26445.71
653.26	26132.08
653.41	26342.73
653.55	26267.83
653.70	26134.42
653.84	26473.80
653.99	25879.30
654.13	26075.91
654.27	26068.89
654.42	26199.96
654.56	25968.24
654.71	26377.84
654.85	26242.09
655.00	26225.70
655.14	26394.22
655.29	25874.62
655.43	26354.43
655.57	25752.91
655.72	25832.49
655.86	25846.54
656.01	25977.61
656.15	25956.54
656.30	25750.57
656.44	25865.26
656.58	25778.66
656.73	25785.68
656.87	25750.57
657.01	25591.42
657.16	26073.57
657.30	26008.03
657.45	26052.50
657.59	25853.56
657.73	25605.46
657.88	25406.52
658.02	25888.67
658.16	25654.61
658.31	25919.09
658.45	25509.50
658.60	25322.26
658.74	25443.96
658.88	25357.36
659.03	25500.14
659.17	25614.82
659.31	25717.81
659.46	25322.26
659.60	25614.82
659.74	25432.26
659.89	25738.87
660.03	25165.44
660.17	25362.04
660.32	24994.58
660.46	25242.68
660.60	25111.61
660.74	24936.07
660.89	25109.27
661.03	24741.80
661.17	25081.18
661.32	25083.52
661.46	25195.87
661.60	25095.22
661.74	24929.05
661.89	25181.82
662.03	25008.62
662.17	24985.22
662.31	24678.61
662.46	25102.25
662.60	24601.37
662.74	24673.93
662.88	24816.70
663.03	24549.88
663.17	24891.60
663.31	24264.33
663.45	24470.30
663.60	24535.84
663.74	24482.00
663.88	24144.97
664.02	24219.86
664.17	24496.05
664.31	24233.91
664.45	24367.32
664.59	24386.04
664.73	24306.46
664.88	24119.22
665.02	23791.55
665.16	24271.36
665.30	23943.68
665.44	24093.47
665.59	23882.83
665.73	23740.05
665.87	23990.49
666.01	24226.89
666.15	23992.83
666.29	24304.12
666.44	23625.37
666.58	24100.50
666.72	23828.99
666.86	23747.08
667.00	23693.24
667.14	23665.16
667.28	23833.68
667.43	23398.34
667.57	23803.25
667.71	23880.49
667.85	23599.62
667.99	23398.34
668.13	23351.52
668.27	23653.45
668.41	23644.09
668.56	23417.06
668.70	23356.21
668.84	23321.10
668.98	23517.70
669.12	23131.51
669.26	23447.49
669.40	23143.22
669.54	23513.02
669.68	23138.54
669.82	22963.00
669.96	22906.82
670.10	22965.34
670.25	22822.56
670.39	23073.00
670.53	22862.35
670.67	22895.12
670.81	23009.81
670.95	22979.38
671.09	22719.58
671.23	22965.34
671.37	22864.69
671.51	22625.96
671.65	22740.64
671.79	22663.41
671.93	22745.33
672.07	22281.90
672.21	22609.58
672.35	22415.31
672.49	22321.69
672.63	22352.12
672.77	22354.46
672.91	22167.21
673.05	22108.70
673.19	21937.84
673.33	22040.82
673.47	22199.98
673.61	22242.11
673.75	22244.45
673.89	22197.64
674.03	22097.00
674.17	22012.74
674.31	21818.47
674.45	22188.28
674.59	21785.71
674.73	21884.01
674.87	21671.02
675.01	21661.66
675.15	21369.09
675.29	21589.10
675.43	21584.42
675.56	21692.08
675.70	21542.29
675.84	21427.60
675.98	21006.31
676.12	21603.14
676.26	21502.50
676.40	21472.07
676.54	21263.77
676.68	21516.54
676.82	20865.88
676.96	20795.66
677.10	20657.57
677.23	20833.11
677.37	20566.29
677.51	20638.84
677.65	20702.04
677.79	20563.95
677.93	20376.70
678.07	20861.19
678.21	20477.35
678.34	20432.88
678.48	20463.30
678.62	20507.77
678.76	19934.34
678.90	20011.58
679.04	20156.69
679.18	20091.16
679.31	19536.45
679.45	19742.42
679.59	19482.62
679.73	19686.25
679.87	19630.07
680.00	19225.16
680.14	19454.53
680.28	19728.38
680.42	19529.43
680.56	19646.46
680.70	19583.26
680.83	19562.20
680.97	19578.58
681.11	19548.15
681.25	19047.28
681.39	19012.17
681.52	19264.95
681.66	19143.24
681.80	18745.35
681.94	19000.47
682.07	18995.79
682.21	18803.86
682.35	18595.56
682.49	18530.02
682.62	18574.49
682.76	18696.20
682.90	18649.39
683.04	18384.91
683.17	18408.31
683.31	18436.40
683.45	18665.77
683.59	18494.91
683.72	18363.84
683.86	18310.01
684.00	18214.05
684.13	17949.57
684.27	18113.41
684.41	17825.52
684.55	17659.34
684.68	17539.97
684.82	17668.70
684.96	17525.93
685.09	17743.60
685.23	17523.59
685.37	17727.22
685.50	17741.26
685.64	17912.12
685.78	17532.95
685.91	17380.82
686.05	17481.46
686.19	17319.96
686.32	17256.77
686.46	16929.09
686.60	17046.12
686.73	17249.75
686.87	16697.38
687.01	16884.62
687.14	16938.46
687.28	16769.94
687.42	16814.41
687.55	16568.65
687.69	16540.57
687.82	16460.99
687.96	16182.46
688.10	16528.86
688.23	16327.58
688.37	16362.69
688.50	16477.37
688.64	16416.52
688.78	16432.90
688.91	16350.98
689.05	16114.59
689.18	16156.72
689.32	15800.96
689.46	15641.80
689.59	15618.39
689.73	15754.15
689.86	15604.35
690.00	15847.77
690.13	15873.51
690.27	15763.51
690.41	15939.05
690.54	15712.02
690.68	15463.92
690.81	15253.27
690.95	15573.92
691.08	15726.06
691.22	15346.89
691.35	15475.62
691.49	15328.17
691.62	15105.82
691.76	15040.28
691.89	14930.28
692.03	14827.29
692.16	14703.25
692.30	14733.67
692.43	14630.69
692.57	14693.88
692.70	14764.10
692.84	14581.54
692.97	14469.19
693.11	14839.00
693.24	14679.84
693.38	14340.46
693.51	14338.12
693.65	14298.33
693.78	14251.52
693.92	14448.13
694.05	14155.56
694.19	13767.03
694.32	13877.04
694.45	14078.32
694.59	13678.09
694.72	13818.52
694.86	13586.81
694.99	13586.81
695.13	13802.14
695.26	13579.79
695.39	13406.59
695.53	13486.17
695.66	13612.56
695.80	13415.95
695.93	13554.04
696.07	13497.87
696.20	13474.46
696.33	13481.49
696.47	13139.77
696.60	13062.53
696.73	12989.97
696.87	12889.33
697.00	12961.89
697.14	12812.09
697.27	12875.29
697.40	12580.38
697.54	12652.94
697.67	12655.28
697.80	12823.80
697.94	12250.36
698.07	12465.69
698.21	12182.49
698.34	12587.40
698.47	12233.98
698.61	12362.71
698.74	12439.95
698.87	12393.14
699.01	12219.94
699.14	12016.31
699.27	12056.10
699.40	12149.72
699.54	12416.54
699.67	11857.15
699.80	12201.21
699.94	11646.51
700.07	11913.33
700.20	11658.21
700.34	11655.87
700.47	11536.50
700.60	11438.20
700.73	11896.94
700.87	11620.76
701.00	11272.02
701.13	11552.88
701.26	11520.12
701.40	11365.64
701.53	11419.47
701.66	11573.95
701.79	11197.12
701.93	11098.82
702.06	11117.54
702.19	10780.51
702.32	10890.51
702.46	10871.79
702.59	10827.32
702.72	10808.59
702.85	10808.59
702.99	10576.88
703.12	10581.56
703.25	10611.99
703.38	10574.54
703.51	10576.88
703.65	10607.31
703.78	10553.48
703.91	10518.37
704.04	10630.71
704.17	10506.66
704.31	10143.88
704.44	10511.35
704.57	10321.76
704.70	10244.52
704.83	9905.15
704.96	10024.51
705.10	9802.16
705.23	9987.07
>>>>>End Processed Spectral Data<<<<<
