SpectraSuite Data File
++++++++++++++++++++++++++++++++++++
Date: Fri Oct 18 13:58:43 GMT-05:00 2013
User: bianchi
Dark Spectrum Present: No
Reference Spectrum Present: No
Number of Sampled Component Spectra: 1
Spectrometers: USB2+H05261
Integration Time (usec): 50000 (USB2+H05261)
Spectra Averaged: 1 (USB2+H05261)
Boxcar Smoothing: 0 (USB2+H05261)
Correct for Electrical Dark: No (USB2+H05261)
Strobe/Lamp Enabled: No (USB2+H05261)
Correct for Detector Non-linearity: No (USB2+H05261)
Correct for Stray Light: No (USB2+H05261)
Number of Pixels in Processed Spectrum: 2048
>>>>>Begin Processed Spectral Data<<<<<
365.73	0.00
365.92	0.00
366.12	0.00
366.32	0.00
366.52	0.00
366.72	0.00
366.91	0.00
367.11	0.00
367.31	0.00
367.51	0.00
367.70	0.00
367.90	0.00
368.10	0.00
368.30	0.00
368.49	0.00
368.69	0.00
368.89	0.00
369.09	0.00
369.28	0.00
369.48	0.00
369.68	0.00
369.87	0.00
370.07	0.00
370.27	0.00
370.47	0.00
370.66	77.24
370.86	119.37
371.06	154.48
371.25	124.05
371.45	156.82
371.65	208.31
371.84	161.50
372.04	60.85
372.24	173.20
372.44	119.37
372.63	238.73
372.83	175.54
373.03	189.58
373.22	255.12
373.42	170.86
373.62	238.73
373.81	276.18
374.01	243.42
374.21	304.27
374.40	234.05
374.60	262.14
374.79	292.57
374.99	191.92
375.19	182.56
375.38	271.50
375.58	227.03
375.78	217.67
375.97	191.92
376.17	173.20
376.37	313.63
376.56	301.93
376.76	175.54
376.95	198.95
377.15	266.82
377.35	175.54
377.54	294.91
377.74	285.55
377.93	259.80
378.13	292.57
378.33	301.93
378.52	318.31
378.72	262.14
378.91	283.20
379.11	266.82
379.31	337.04
379.50	311.29
379.70	301.93
379.89	325.33
380.09	203.63
380.28	330.02
380.48	306.61
380.68	365.12
380.87	292.57
381.07	292.57
381.26	320.65
381.46	285.55
381.65	315.97
381.85	358.10
382.04	332.36
382.24	320.65
382.43	238.73
382.63	320.65
382.83	308.95
383.02	327.68
383.22	393.21
383.41	388.53
383.61	327.68
383.80	351.08
384.00	393.21
384.19	365.12
384.39	327.68
384.58	402.57
384.78	334.70
384.97	287.89
385.17	404.91
385.36	348.74
385.56	341.72
385.75	407.25
385.95	339.38
386.14	421.30
386.34	393.21
386.53	477.47
386.72	351.08
386.92	390.87
387.11	421.30
387.31	468.11
387.50	397.89
387.70	411.93
387.89	444.70
388.09	484.49
388.28	390.87
388.48	365.12
388.67	451.72
388.86	437.68
389.06	418.96
389.25	458.74
389.45	566.41
389.64	449.38
389.84	470.45
390.03	468.11
390.22	477.47
390.42	440.02
390.61	475.13
390.81	500.87
391.00	362.78
391.19	477.47
391.39	479.81
391.58	493.85
391.78	505.56
391.97	543.00
392.16	538.32
392.36	479.81
392.55	552.37
392.75	517.26
392.94	561.73
393.13	477.47
393.33	421.30
393.52	507.90
393.71	547.69
393.91	622.58
394.10	543.00
394.29	599.18
394.49	610.88
394.68	575.77
394.88	507.90
395.07	552.37
395.26	657.69
395.46	582.79
395.65	667.05
395.84	575.77
396.04	580.45
396.23	617.90
396.42	674.07
396.62	634.29
396.81	669.39
397.00	660.03
397.19	734.93
397.39	638.97
397.58	624.92
397.77	678.76
397.97	631.94
398.16	589.82
398.35	732.59
398.55	648.33
398.74	753.65
398.93	784.08
399.12	697.48
399.32	702.16
399.51	723.23
399.70	821.53
399.90	770.04
400.09	765.36
400.28	795.78
400.47	674.07
400.67	812.17
400.86	772.38
401.05	840.25
401.24	643.65
401.44	844.93
401.63	830.89
401.82	849.61
402.01	774.72
402.21	844.93
402.40	784.08
402.59	755.99
402.78	798.12
402.97	732.59
403.17	795.78
403.36	851.96
403.55	842.59
403.74	889.40
403.93	943.24
404.13	821.53
404.32	924.51
404.51	924.51
404.70	894.08
404.89	961.96
405.09	994.73
405.28	990.05
405.47	922.17
405.66	997.07
405.85	945.58
406.05	987.71
406.24	978.34
406.43	915.15
406.62	894.08
406.81	1001.75
407.00	1020.47
407.20	973.66
407.39	1027.50
407.58	1011.11
407.77	968.98
407.96	1057.92
408.15	1100.05
408.34	1043.88
408.54	1057.92
408.73	1076.65
408.92	1144.52
409.11	1109.41
409.30	1116.44
409.49	1170.27
409.68	1121.12
409.87	1233.46
410.07	1212.40
410.26	1219.42
410.45	1249.85
410.64	1200.69
410.83	1118.78
411.02	1214.74
411.21	1294.32
411.40	1217.08
411.59	1238.14
411.78	1277.93
411.98	1413.68
412.17	1334.11
412.36	1313.04
412.55	1296.66
412.74	1259.21
412.93	1263.89
413.12	1320.06
413.31	1432.41
413.50	1301.34
413.69	1357.51
413.88	1324.74
414.07	1366.87
414.26	1502.62
414.45	1432.41
414.64	1406.66
414.83	1387.94
415.02	1462.83
415.22	1535.39
415.41	1483.90
415.60	1530.71
415.79	1558.80
415.98	1624.33
416.17	1528.37
416.36	1542.41
416.55	1551.78
416.74	1694.55
416.93	1631.35
417.12	1713.27
417.31	1549.43
417.50	1661.78
417.69	1750.72
417.88	1732.00
418.07	1694.55
418.26	1717.95
418.45	1799.87
418.64	1886.47
418.83	1666.46
419.02	1720.29
419.21	1687.53
419.39	1795.19
419.58	1727.32
419.77	1790.51
419.96	1760.08
420.15	1874.77
420.34	1877.11
420.53	1785.83
420.72	1870.09
420.91	1919.24
421.10	1886.47
421.29	1989.46
421.48	1928.60
421.67	1886.47
421.86	1867.75
422.05	1930.94
422.24	1970.73
422.43	1902.86
422.61	1877.11
422.80	1982.43
422.99	2031.58
423.18	1973.07
423.37	1956.69
423.56	1926.26
423.75	1902.86
423.94	2010.52
424.13	1776.47
424.32	1921.58
424.50	1966.05
424.69	1944.99
424.88	2052.65
425.07	1947.33
425.26	2054.99
425.45	2059.67
425.64	1940.30
425.83	1998.82
426.01	2038.61
426.20	2015.20
426.39	1984.77
426.58	2076.06
426.77	1921.58
426.96	2083.08
427.15	1989.46
427.33	2094.78
427.52	1989.46
427.71	2132.23
427.90	2101.80
428.09	2129.89
428.28	2134.57
428.46	2066.69
428.65	2300.75
428.84	2202.44
429.03	2256.28
429.22	2230.53
429.40	2172.02
429.59	2307.77
429.78	2225.85
429.97	2146.27
430.16	2033.93
430.34	2228.19
430.53	2275.00
430.72	2197.76
430.91	2179.04
431.10	2291.38
431.28	2300.75
431.47	2328.83
431.66	2502.03
431.85	2403.73
432.03	2499.69
432.22	2431.82
432.41	2392.03
432.60	2511.39
432.79	2333.51
432.97	2410.75
433.16	2469.27
433.35	2466.92
433.54	2602.68
433.72	2506.71
433.91	2431.82
434.10	2513.74
434.28	2544.16
434.47	2520.76
434.66	2553.52
434.85	2565.23
435.03	2574.59
435.22	2574.59
435.41	2752.47
435.59	2567.57
435.78	2705.66
435.97	2607.36
436.16	2750.13
436.34	2672.89
436.53	2614.38
436.72	2651.83
436.90	2576.93
437.09	2567.57
437.28	2612.04
437.46	2574.59
437.65	2689.28
437.84	2693.96
438.02	2693.96
438.21	2724.38
438.40	2743.11
438.58	2778.22
438.77	2724.38
438.96	2785.24
439.14	2841.41
439.33	2895.24
439.52	3012.27
439.70	2981.84
439.89	3002.91
440.08	3019.29
440.26	3014.61
440.45	3042.70
440.63	2984.18
440.82	3138.66
441.01	3049.72
441.19	2988.86
441.38	3180.79
441.57	3211.22
441.75	3201.85
441.94	3272.07
442.12	3192.49
442.31	3274.41
442.50	3283.77
442.68	3283.77
442.87	3290.79
443.05	3335.26
443.24	3407.82
443.43	3449.95
443.61	3295.47
443.80	3543.57
443.98	3328.24
444.17	3206.53
444.35	3335.26
444.54	3433.57
444.73	3487.40
444.91	3428.88
445.10	3426.54
445.28	3372.71
445.47	3389.10
445.65	3440.59
445.84	3461.65
446.02	3405.48
446.21	3314.20
446.39	3487.40
446.58	3330.58
446.77	3438.25
446.95	3440.59
447.14	3337.60
447.32	3562.30
447.51	3433.57
447.69	3372.71
447.88	3445.27
448.06	3541.23
448.25	3494.42
448.43	3433.57
448.62	3400.80
448.80	3377.39
448.99	3524.85
449.17	3522.51
449.36	3459.31
449.54	3552.93
449.73	3669.96
449.91	3784.65
450.10	3723.79
450.28	3557.61
450.46	3691.02
450.65	3590.38
450.83	3740.18
451.02	3655.92
451.20	3740.18
451.39	3707.41
451.57	3772.94
451.76	3726.13
451.94	3765.92
452.13	3794.01
452.31	3819.75
452.49	3691.02
452.68	3662.94
452.86	3852.52
453.05	3808.05
453.23	3852.52
453.42	3786.99
453.60	3922.74
453.78	3768.26
453.97	3927.42
454.15	3861.88
454.34	3796.35
454.52	3953.16
454.70	4032.74
454.89	3915.72
455.07	3992.95
455.26	4011.68
455.44	4145.09
455.62	4030.40
455.81	4070.19
455.99	4173.18
456.17	4112.32
456.36	4142.75
456.54	4196.58
456.73	4194.24
456.91	4360.42
457.09	4173.18
457.28	4182.54
457.46	4042.11
457.64	4227.01
457.83	4234.03
458.01	4161.47
458.19	4248.07
458.38	4245.73
458.56	4287.86
458.74	4297.22
458.93	4437.66
459.11	4468.08
459.29	4395.53
459.48	4407.23
459.66	4346.37
459.84	4294.88
460.03	4325.31
460.21	4458.72
460.39	4475.10
460.57	4566.39
460.76	4575.75
460.94	4507.87
461.12	4655.33
461.31	4655.33
461.49	4568.73
461.67	4634.26
461.85	4603.83
462.04	4645.96
462.22	4669.37
462.40	4704.48
462.59	4718.52
462.77	4683.41
462.95	4819.16
463.13	4636.60
463.32	4753.63
463.50	4723.20
463.68	4868.31
463.86	4788.74
464.05	4798.10
464.23	4788.74
464.41	4791.08
464.59	4842.57
464.78	4903.42
464.96	4954.91
465.14	4737.24
465.32	4861.29
465.50	4924.49
465.69	4959.60
465.87	4940.87
466.05	4983.00
466.23	4929.17
466.41	5064.92
466.60	5165.56
466.78	4947.89
466.96	4929.17
467.14	4992.36
467.32	5184.29
467.51	4987.68
467.69	5048.54
467.87	5254.50
468.05	4954.91
468.23	4978.32
468.41	5074.28
468.60	5046.20
468.78	5205.35
468.96	5074.28
469.14	5273.23
469.32	5277.91
469.50	5121.09
469.69	5252.16
469.87	5301.31
470.05	5350.46
470.23	5430.04
470.41	5329.40
470.59	5331.74
470.77	5357.49
470.95	5413.66
471.14	5394.93
471.32	5219.39
471.50	5523.66
471.68	5586.86
471.86	5575.16
472.04	5586.86
472.22	5696.86
472.40	5607.92
472.58	5600.90
472.77	5624.31
472.95	5668.78
473.13	5944.96
473.31	5748.36
473.49	5746.02
473.67	5746.02
473.85	5877.09
474.03	5982.41
474.21	5858.36
474.39	5820.91
474.57	6066.67
474.75	6094.76
474.93	6113.48
475.12	6010.50
475.30	6153.27
475.48	6129.86
475.66	6179.01
475.84	6104.12
476.02	6211.78
476.20	6312.42
476.38	6345.19
476.56	6464.56
476.74	6595.63
476.92	6464.56
477.10	6380.30
477.28	6771.17
477.46	6612.01
477.64	6530.09
477.82	6750.10
478.00	6787.55
478.18	6736.06
478.36	6892.88
478.54	7014.59
478.72	6998.20
478.90	7143.32
479.08	7206.51
479.26	7162.04
479.44	7145.66
479.62	7232.26
479.80	7265.02
479.98	7197.15
480.16	7445.24
480.34	7454.61
480.52	7691.00
480.70	7566.95
480.88	7609.08
481.06	7709.72
481.24	7681.64
481.41	7698.02
481.59	7705.04
481.77	7808.03
481.95	7777.60
482.13	7899.31
482.31	7887.61
482.49	8105.28
482.67	8168.47
482.85	8269.11
483.03	8332.31
483.21	8627.21
483.39	8287.84
483.57	8456.36
483.74	8643.60
483.92	8704.45
484.10	8456.36
484.28	8816.80
484.46	8837.86
484.64	8992.34
484.82	8891.70
485.00	8922.12
485.18	9268.52
485.35	9259.16
485.53	9394.91
485.71	9284.91
485.89	9380.87
486.07	9355.12
486.25	9661.73
486.43	9591.52
486.61	9685.14
486.78	9856.00
486.96	9916.85
487.14	9809.19
487.32	9886.42
487.50	10008.13
487.68	10141.54
487.85	10209.42
488.03	10293.68
488.21	10565.18
488.39	10581.56
488.57	10324.10
488.75	10567.52
488.92	10523.05
489.10	10705.61
489.28	10759.44
489.46	11042.65
489.64	11052.01
489.81	11098.82
489.99	11147.97
490.17	11213.51
490.35	11400.75
490.53	11321.17
490.70	11442.88
490.88	11587.99
491.06	11618.42
491.24	11573.95
491.41	11639.48
491.59	11815.02
491.77	11885.24
491.95	11925.03
492.13	11906.31
492.30	12084.19
492.48	12093.55
492.66	12486.76
492.84	12241.00
493.01	12465.69
493.19	12468.03
493.37	12453.99
493.54	12592.08
493.72	12552.29
493.90	12627.19
494.08	12713.79
494.25	12826.14
494.43	13118.70
494.61	13015.72
494.79	12896.35
494.96	13224.03
495.14	13259.13
495.32	13406.59
495.49	13303.60
495.67	13373.82
495.85	13556.38
496.02	13500.21
496.20	13708.52
496.38	13799.80
496.55	13661.71
496.73	14029.17
496.91	14150.88
497.09	13940.23
497.26	14295.99
497.44	14054.92
497.62	14335.78
497.79	14420.04
497.97	14321.74
498.14	14888.15
498.32	14710.27
498.50	14532.39
498.67	14661.12
498.85	14752.40
499.03	14965.39
499.20	14752.40
499.38	14909.21
499.56	14867.08
499.73	14979.43
499.91	15269.66
500.08	15169.01
500.26	15033.26
500.44	15417.11
500.61	15119.86
500.79	15185.40
500.97	15428.81
501.14	15695.63
501.32	15747.12
501.49	15747.12
501.67	15653.50
501.84	15789.25
502.02	15962.45
502.20	15730.74
502.37	16016.29
502.55	15917.98
502.72	16006.92
502.90	15894.58
503.07	15936.71
503.25	15990.54
503.43	16084.16
503.60	16262.04
503.78	16285.45
503.95	16198.85
504.13	16273.74
504.30	16634.19
504.48	16306.51
504.65	16563.97
504.83	16739.51
505.01	16842.50
505.18	16823.77
505.36	16901.01
505.53	16858.88
505.71	17032.08
505.88	17116.34
506.06	17029.74
506.23	17041.44
506.41	17116.34
506.58	17003.99
506.76	17195.92
506.93	17427.63
507.11	17034.42
507.28	17221.66
507.46	17334.01
507.63	17249.75
507.81	17488.48
507.98	17479.12
508.16	17439.33
508.33	17474.44
508.50	17914.46
508.68	17771.69
508.85	17687.43
509.03	17909.78
509.20	17912.12
509.38	18340.44
509.55	18368.52
509.73	18223.41
509.90	18040.85
510.08	18422.36
510.25	18244.48
510.42	18092.34
510.60	18438.74
510.77	18593.22
510.95	18506.62
511.12	18387.25
511.30	18548.75
511.47	18740.67
511.64	18497.25
511.82	18817.91
511.99	18991.11
512.17	18953.66
512.34	18801.52
512.51	18993.45
512.69	18998.13
512.86	18953.66
513.04	19417.08
513.21	19108.13
513.38	19035.58
513.56	18991.11
513.73	19040.26
513.90	19122.18
514.08	19201.76
514.25	19349.21
514.43	19445.17
514.60	19332.82
514.77	19061.32
514.95	19744.76
515.12	19742.42
515.29	19857.10
515.47	19899.23
515.64	19927.32
515.81	19850.08
515.99	19903.92
516.16	19995.20
516.33	19878.17
516.51	20229.25
516.68	20156.69
516.85	20133.29
517.03	19988.18
517.20	20404.79
517.37	20203.50
517.54	20215.21
517.72	20271.38
517.89	20379.04
518.06	20451.60
518.24	20428.20
518.41	20439.90
518.58	20470.33
518.75	20849.49
518.93	20812.04
519.10	20451.60
519.27	20706.72
519.45	20985.24
519.62	20737.15
519.79	20893.96
519.96	20627.14
520.14	20908.01
520.31	20812.04
520.48	20758.21
520.65	21015.67
520.83	21013.33
521.00	20879.92
521.17	21209.93
521.34	21032.05
521.52	21294.19
521.69	21216.96
521.86	21465.05
522.03	21373.77
522.20	21455.69
522.38	21539.95
522.55	21568.04
522.72	21832.52
522.89	21994.01
523.07	22015.08
523.24	21682.72
523.41	21799.75
523.58	21553.99
523.75	21752.94
523.92	21832.52
524.10	21834.86
524.27	22132.11
524.44	22146.15
524.61	22562.76
524.78	22171.89
524.96	22167.21
525.13	22207.00
525.30	22211.68
525.47	22188.28
525.64	22089.98
525.81	22597.87
525.98	22640.00
526.16	22820.22
526.33	22417.65
526.50	22960.66
526.67	22466.80
526.84	22855.33
527.01	22867.03
527.18	22504.25
527.36	22724.26
527.53	22506.59
527.70	22740.64
527.87	23253.22
528.04	22972.36
528.21	23051.94
528.38	23126.83
528.55	22951.29
528.72	22899.80
528.89	23363.23
529.07	23222.80
529.24	23194.71
529.41	23087.04
529.58	22963.00
529.75	23344.50
529.92	23269.61
530.09	23276.63
530.26	23433.44
530.43	23403.02
530.60	23386.63
530.77	23241.52
530.94	23449.83
531.11	23386.63
531.28	23222.80
531.46	23527.06
531.63	23690.90
531.80	23667.50
531.97	23679.20
532.14	23833.68
532.31	23690.90
532.48	23850.06
532.65	24116.88
532.82	23693.24
532.99	24259.65
533.16	23861.76
533.33	24187.10
533.50	24357.96
533.67	24203.48
533.84	23756.44
534.01	23992.83
534.18	24053.69
534.35	24369.66
534.52	24013.90
534.69	24196.46
534.86	24423.49
535.03	24285.40
535.20	24484.34
535.37	24533.50
535.54	24362.64
535.71	24088.79
535.88	24407.11
536.05	24355.61
536.22	24915.00
536.38	24657.54
536.55	24720.74
536.72	24666.91
536.89	24842.45
537.06	24512.43
537.23	24779.25
537.40	24650.52
537.57	24945.43
537.74	24542.86
537.91	25099.90
538.08	24601.37
538.25	25163.10
538.42	24788.61
538.59	25242.68
538.75	24865.85
538.92	25055.43
539.09	25118.63
539.26	25032.03
539.43	25069.48
539.60	25568.01
539.77	25291.83
539.94	25228.63
540.11	25472.05
540.28	25352.68
540.44	25383.11
540.61	25528.22
540.78	25291.83
540.95	25062.46
541.12	25362.04
541.29	25542.27
541.46	25855.90
541.62	25392.47
541.79	25975.27
541.96	25144.38
542.13	25261.40
542.30	25846.54
542.47	25802.07
542.63	25750.57
542.80	25970.58
542.97	25675.68
543.14	26239.75
543.31	26246.77
543.48	25940.16
543.64	26141.44
543.81	26410.60
543.98	26174.21
544.15	26235.06
544.32	26052.50
544.48	26504.23
544.65	26225.70
544.82	26246.77
544.99	25944.84
545.16	26061.87
545.32	26398.90
545.49	26527.63
545.66	26586.15
545.83	26431.67
546.00	26691.47
546.16	26682.11
546.33	26260.81
546.50	26291.24
546.67	26288.90
546.83	26457.42
547.00	26668.06
547.17	26792.11
547.34	26766.37
547.50	26806.16
547.67	26831.90
547.84	26459.76
548.00	26693.81
548.17	27143.19
548.34	26672.74
548.51	26852.97
548.67	26857.65
548.84	27019.14
549.01	27091.70
549.18	27283.62
549.34	26810.84
549.51	26911.48
549.68	26883.39
549.84	26808.50
550.01	27281.28
550.18	26941.91
550.34	27225.11
550.51	27257.88
550.68	27016.80
550.84	26904.46
551.01	27522.36
551.18	27204.05
551.34	26836.58
551.51	27143.19
551.68	27323.41
551.84	27522.36
552.01	27087.02
552.18	27449.80
552.34	27597.26
552.51	27363.20
552.68	27550.45
552.84	27431.08
553.01	27527.04
553.18	27264.90
553.34	27449.80
553.51	27491.93
553.67	27541.08
553.84	27463.85
554.01	27564.49
554.17	27838.33
554.34	27756.41
554.51	27431.08
554.67	27920.25
554.84	27681.52
555.00	27908.55
555.17	27903.87
555.33	27819.61
555.50	27550.45
555.67	27796.20
555.83	27866.42
556.00	27749.39
556.16	28030.26
556.33	28135.58
556.50	27908.55
556.66	27948.34
556.83	27938.97
556.99	28254.95
557.16	28180.05
557.32	28142.60
557.49	28051.32
557.65	28128.56
557.82	27878.12
557.98	27915.57
558.15	27943.66
558.32	28283.03
558.48	28198.77
558.65	28400.06
558.81	28177.71
558.98	28400.06
559.14	28411.76
559.31	28018.55
559.47	28308.78
559.64	28273.67
559.80	28243.24
559.97	28608.37
560.13	28390.70
560.30	28446.87
560.46	28613.05
560.63	28486.66
560.79	28386.02
560.96	28283.03
561.12	28264.31
561.29	28095.79
561.45	28397.72
561.61	28318.14
561.78	28341.55
561.94	28678.58
562.11	28498.36
562.27	28470.28
562.44	28168.35
562.60	28383.68
562.77	28896.25
562.93	28577.94
563.10	28856.46
563.26	28865.83
563.42	28671.56
563.59	28521.77
563.75	28856.46
563.92	29113.92
564.08	28631.77
564.24	28779.23
564.41	28671.56
564.57	28418.78
564.74	28746.46
564.90	28973.49
565.07	28540.49
565.23	29149.03
565.39	29060.09
565.56	29181.80
565.72	28943.06
565.88	28868.17
566.05	28507.72
566.21	29022.64
566.38	28622.41
566.54	29172.44
566.70	29022.64
566.87	29528.20
567.03	28865.83
567.19	28903.28
567.36	28950.09
567.52	28996.90
567.68	29106.90
567.85	28683.27
568.01	29078.82
568.17	28952.43
568.34	28933.70
568.50	29032.00
568.66	29184.14
568.83	29095.20
568.99	28950.09
569.15	29195.84
569.32	28837.74
569.48	28971.15
569.64	29378.40
569.81	29172.44
569.97	29244.99
570.13	28926.68
570.30	28964.13
570.46	29029.66
570.62	29146.69
570.78	29032.00
570.95	28606.03
571.11	29120.95
571.27	28652.84
571.43	29041.37
571.60	29418.19
571.76	28975.83
571.92	28882.21
572.09	29249.67
572.25	29369.04
572.41	29315.21
572.57	29209.89
572.74	29647.57
572.90	29104.56
573.06	28858.81
573.22	29282.44
573.38	29312.87
573.55	29324.57
573.71	29677.99
573.87	29312.87
574.03	29242.65
574.20	29235.63
574.36	29259.04
574.52	29261.38
574.68	29146.69
574.84	29146.69
575.01	29188.82
575.17	29006.26
575.33	29481.39
575.49	29181.80
575.65	29118.60
575.82	29408.83
575.98	29186.48
576.14	29493.09
576.30	29282.44
576.46	28978.17
576.62	29380.74
576.79	29741.19
576.95	29273.08
577.11	29219.25
577.27	29422.87
577.43	29549.26
577.59	29289.46
577.75	29219.25
577.92	29282.44
578.08	29479.05
578.24	29184.14
578.40	29338.62
578.56	29565.65
578.72	29404.15
578.88	29621.82
579.04	29401.81
579.21	29118.60
579.37	29619.48
579.53	29500.11
579.69	29036.69
579.85	29230.95
580.01	28912.64
580.17	29184.14
580.33	29177.12
580.49	29336.27
580.65	29790.34
580.82	29745.87
580.98	29369.04
581.14	29350.32
581.30	29455.64
581.46	29670.97
581.62	29326.91
581.78	29214.57
581.94	29558.63
582.10	29537.56
582.26	29413.51
582.42	29469.69
582.58	29544.58
582.74	29647.57
582.90	29876.94
583.06	29804.38
583.22	29528.20
583.38	29235.63
583.54	29713.10
583.70	29556.28
583.86	29582.03
584.02	29663.95
584.18	29535.22
584.34	29350.32
584.50	29813.74
584.66	29500.11
584.82	29795.02
584.98	29326.91
585.14	29493.09
585.30	29209.89
585.46	29357.34
585.62	29380.74
585.78	29516.50
585.94	29326.91
586.10	29783.32
586.26	29762.25
586.42	29788.00
586.58	29673.31
586.74	29434.58
586.90	29467.34
587.06	29640.54
587.22	29497.77
587.38	29614.80
587.54	29673.31
587.70	29909.71
587.86	29816.08
588.02	30017.37
588.18	29869.92
588.34	29701.40
588.49	29907.37
588.65	29282.44
588.81	29942.47
588.97	29598.41
589.13	29603.10
589.29	29434.58
589.45	29724.80
589.61	29855.87
589.77	29860.55
589.93	30176.53
590.08	29886.30
590.24	29813.74
590.40	30012.69
590.56	30127.38
590.72	29790.34
590.88	29984.60
591.04	29825.45
591.20	29893.32
591.35	30005.67
591.51	29757.57
591.67	30052.48
591.83	30019.71
591.99	29855.87
592.15	30010.35
592.31	29617.14
592.46	29670.97
592.62	29619.48
592.78	29905.02
592.94	29816.08
593.10	29996.31
593.26	29699.06
593.41	29996.31
593.57	30115.67
593.73	30103.97
593.89	29771.61
594.05	30038.44
594.20	29729.48
594.36	30040.78
594.52	29921.41
594.68	29708.42
594.84	29708.42
594.99	29832.47
595.15	29919.07
595.31	30120.35
595.47	29818.42
595.62	29905.02
595.78	30071.20
595.94	29722.46
596.10	30146.10
596.25	29729.48
596.41	29914.39
596.57	29685.01
596.73	30008.01
596.88	30089.93
597.04	30228.02
597.20	29902.68
597.36	30288.87
597.51	30284.19
597.67	29958.86
597.83	30073.54
597.99	30235.04
598.14	30239.72
598.30	30078.22
598.46	29846.51
598.61	30031.41
598.77	29876.94
598.93	30209.29
599.09	30302.92
599.24	30546.33
599.40	30333.34
599.56	30401.22
599.71	30380.15
599.87	30326.32
600.03	30017.37
600.18	30216.32
600.34	30150.78
600.50	29839.49
600.65	29663.95
600.81	30497.18
600.97	30415.26
601.12	30281.85
601.28	30162.48
601.44	30094.61
601.59	30389.52
601.75	30221.00
601.91	30185.89
602.06	30122.69
602.22	29963.54
602.37	29809.06
602.53	30242.06
602.69	30221.00
602.84	30319.30
603.00	30216.32
603.16	30581.44
603.31	30415.26
603.47	30265.47
603.62	30232.70
603.78	30478.46
603.94	30059.50
604.09	30015.03
604.25	30101.63
604.40	30103.97
604.56	30349.73
604.71	30326.32
604.87	30192.91
605.03	30473.78
605.18	30094.61
605.34	30050.14
605.49	29993.97
605.65	30202.27
605.80	29619.48
605.96	29916.73
606.12	30134.40
606.27	30197.59
606.43	29640.54
606.58	30373.13
606.74	30092.27
606.89	30085.25
607.05	30352.07
607.20	30228.02
607.36	29795.02
607.51	30169.51
607.67	30036.09
607.82	29778.64
607.98	29654.59
608.13	30108.65
608.29	29802.04
608.44	29825.45
608.60	30005.67
608.75	30174.19
608.91	30129.72
609.06	30183.55
609.22	30141.42
609.37	29371.38
609.53	29614.80
609.68	29593.73
609.84	29886.30
609.99	29881.62
610.15	29963.54
610.30	29596.07
610.46	30057.16
610.61	29755.23
610.76	29659.27
610.92	30096.95
611.07	29923.75
611.23	29289.46
611.38	29816.08
611.54	29460.32
611.69	29528.20
611.84	29701.40
612.00	29521.18
612.15	29699.06
612.31	29872.26
612.46	29731.83
612.62	30026.73
612.77	29830.13
612.92	29937.79
613.08	29734.17
613.23	30045.46
613.39	29968.22
613.54	29584.37
613.69	29596.07
613.85	29432.24
614.00	29252.02
614.15	29694.38
614.31	29591.39
614.46	29205.20
614.62	29975.24
614.77	29443.94
614.92	29701.40
615.08	29556.28
615.23	29640.54
615.38	29202.86
615.54	29509.47
615.69	29209.89
615.84	29333.93
616.00	29266.06
616.15	29132.65
616.30	29357.34
616.46	29830.13
616.61	29460.32
616.76	29790.34
616.92	29364.36
617.07	29305.85
617.22	29202.86
617.37	28826.04
617.53	29116.26
617.68	29188.82
617.83	29301.17
617.99	29406.49
618.14	29523.52
618.29	29053.07
618.45	29357.34
618.60	28793.27
618.75	29362.02
618.90	29109.24
619.06	28821.36
619.21	28889.23
619.36	29020.30
619.51	28898.59
619.67	28994.56
619.82	28481.98
619.97	28790.93
620.12	28807.31
620.28	28914.98
620.43	29097.54
620.58	29113.92
620.73	29055.41
620.89	29109.24
621.04	29511.81
621.19	28662.20
621.34	28889.23
621.49	28823.70
621.65	28348.57
621.80	29193.50
621.95	28884.55
622.10	28830.72
622.25	28811.99
622.41	28685.61
622.56	28603.69
622.71	29240.31
622.86	28542.83
623.01	29235.63
623.16	28596.67
623.32	28788.59
623.47	28716.03
623.62	28889.23
623.77	28364.95
623.92	28739.44
624.07	28364.95
624.23	28194.09
624.38	28587.30
624.53	28629.43
624.68	28671.56
624.83	28680.92
624.98	28844.76
625.13	28343.89
625.29	28615.39
625.44	28748.80
625.59	28109.83
625.74	28554.54
625.89	28685.61
626.04	28556.88
626.19	28212.82
626.34	28268.99
626.49	28477.30
626.65	28252.61
626.80	28268.99
626.95	27934.29
627.10	28453.89
627.25	28198.77
627.40	28030.26
627.55	27887.48
627.70	27985.79
627.85	27707.26
628.00	27819.61
628.15	28133.24
628.30	28135.58
628.45	27880.46
628.60	27718.96
628.76	28517.09
628.91	28287.71
629.06	28023.23
629.21	27997.49
629.36	28095.79
629.51	28168.35
629.66	27770.46
629.81	27674.49
629.96	27725.99
630.11	27819.61
630.26	28037.28
630.41	27599.60
630.56	27894.50
630.71	27901.53
630.86	27735.35
631.01	27807.90
631.16	27721.30
631.31	28041.96
631.46	27936.63
631.61	27555.13
631.76	27517.68
631.91	27665.13
632.06	27613.64
632.21	27391.29
632.36	27704.92
632.51	27339.80
632.66	27398.31
632.81	27431.08
632.96	27459.16
633.10	27491.93
633.25	27807.90
633.40	27826.63
633.55	27459.16
633.70	27300.01
633.85	27250.86
634.00	27395.97
634.15	27534.06
634.30	27676.83
634.45	27154.90
634.60	27276.60
634.75	27438.10
634.90	27328.10
635.05	27346.82
635.19	27700.24
635.34	27255.54
635.49	27564.49
635.64	27414.69
635.79	27026.17
635.94	27260.22
636.09	27243.84
636.24	27431.08
636.39	27072.98
636.53	27129.15
636.68	26874.03
636.83	27033.19
636.98	26902.12
637.13	27133.83
637.28	27367.88
637.43	27098.72
637.57	27019.14
637.72	27227.45
637.87	26834.24
638.02	26859.99
638.17	27002.76
638.32	27000.42
638.46	26670.40
638.61	26635.30
638.76	26890.41
638.91	26434.01
639.06	26955.95
639.20	27049.57
639.35	26771.05
639.50	26735.94
639.65	26679.77
639.80	27145.53
639.94	26810.84
640.09	27122.13
640.24	26899.78
640.39	26679.77
640.54	26590.83
640.68	26572.10
640.83	26214.00
640.98	26410.60
641.13	26302.94
641.27	26658.70
641.42	26632.96
641.57	26705.51
641.72	26462.10
641.86	26511.25
642.01	26651.68
642.16	26178.89
642.31	26506.57
642.45	26214.00
642.60	26218.68
642.75	26464.44
642.90	26012.71
643.04	26345.07
643.19	26197.62
643.34	25958.88
643.48	26340.39
643.63	26448.05
643.78	26326.35
643.93	26778.07
644.07	26267.83
644.22	26403.58
644.37	26377.84
644.51	26183.57
644.66	26204.64
644.81	26293.58
644.95	25830.15
645.10	25874.62
645.25	25757.60
645.39	26092.29
645.54	25949.52
645.69	26305.28
645.83	26040.80
645.98	26192.94
646.13	26235.06
646.27	26300.60
646.42	25951.86
646.57	26087.61
646.71	26038.46
646.86	25984.63
647.00	25977.61
647.15	25741.21
647.30	25914.41
647.44	25518.86
647.59	25947.18
647.74	25874.62
647.88	26197.62
648.03	25947.18
648.17	26246.77
648.32	26059.52
648.47	26026.76
648.61	25605.46
648.76	25883.98
648.90	25989.31
649.05	25888.67
649.20	25799.73
649.34	25673.34
649.49	25385.45
649.63	25418.22
649.78	25411.20
649.92	25460.35
650.07	25703.76
650.21	25446.30
650.36	25706.10
650.51	25666.31
650.65	25715.47
650.80	25759.94
650.94	25715.47
651.09	24964.15
651.23	25256.72
651.38	25668.66
651.52	25514.18
651.67	25661.63
651.81	25340.98
651.96	25525.88
652.10	25535.24
652.25	25446.30
652.39	25450.99
652.54	25376.09
652.68	25848.88
652.83	25369.07
652.97	25418.22
653.12	25249.70
653.26	25458.01
653.41	25340.98
653.55	25462.69
653.70	25041.39
653.84	25387.79
653.99	25252.04
654.13	25322.26
654.27	24910.32
654.42	25345.66
654.56	25263.74
654.71	25092.88
654.85	24985.22
655.00	25186.50
655.14	25144.38
655.29	25039.05
655.43	25013.31
655.57	25106.93
655.72	24980.54
655.86	24680.95
656.01	24854.15
656.15	25039.05
656.30	25006.28
656.44	25301.19
656.58	24634.14
656.73	24943.09
656.87	24744.14
657.01	24669.25
657.16	24594.35
657.30	24840.11
657.45	24816.70
657.59	24924.36
657.73	24676.27
657.88	25017.99
658.02	24353.27
658.16	24559.24
658.31	24503.07
658.45	24638.82
658.60	24191.78
658.74	24624.78
658.88	24346.25
659.03	24830.74
659.17	24561.58
659.31	24430.51
659.46	24533.50
659.60	24538.18
659.74	24393.06
659.89	24212.84
660.03	24512.43
660.17	24512.43
660.32	24060.71
660.46	24107.52
660.60	24348.59
660.74	24166.03
660.89	24231.57
661.03	23662.82
661.17	23779.84
661.32	24041.98
661.46	24346.25
661.60	23976.45
661.74	24252.63
661.89	24084.11
662.03	23913.25
662.17	23929.64
662.31	23779.84
662.46	24091.13
662.60	23988.15
662.74	23847.72
662.88	23676.86
663.03	23496.64
663.17	23676.86
663.31	23447.49
663.45	23592.60
663.60	23763.46
663.74	23452.17
663.88	23491.96
664.02	23197.05
664.17	23442.81
664.31	23676.86
664.45	23445.15
664.59	23704.95
664.73	23206.41
664.88	23307.05
665.02	23175.98
665.16	23360.89
665.30	23253.22
665.44	23232.16
665.59	22977.04
665.73	22803.84
665.87	22871.72
666.01	23133.86
666.15	23028.53
666.29	22967.68
666.44	23049.60
666.58	23157.26
666.72	22740.64
666.86	22745.33
667.00	23133.86
667.14	23318.76
667.28	22934.91
667.43	22930.23
667.57	22724.26
667.71	22735.96
667.85	22581.49
667.99	22335.73
668.13	22328.71
668.27	22450.42
668.41	22838.95
668.56	22153.17
668.70	22230.41
668.84	22464.46
668.98	22450.42
669.12	22384.88
669.26	22361.48
669.40	22132.11
669.54	22441.06
669.68	22476.16
669.82	22111.04
669.96	21968.27
670.10	22253.81
670.25	22356.80
670.39	22111.04
670.53	22024.44
670.67	22045.51
670.81	22094.66
670.95	21970.61
671.09	21778.68
671.23	22185.94
671.37	21935.50
671.51	21923.80
671.65	21626.55
671.79	21568.04
671.93	21666.34
672.07	21715.49
672.21	21521.23
672.35	21113.97
672.49	21341.00
672.63	21371.43
672.77	21333.98
672.91	21565.70
673.05	21256.75
673.19	21348.03
673.33	20900.98
673.47	21406.54
673.61	21350.37
673.75	21095.25
673.89	21378.45
674.03	20926.73
674.17	20931.41
674.31	21137.38
674.45	20910.35
674.59	20975.88
674.73	21263.77
674.87	20659.91
675.01	20589.69
675.15	20699.70
675.29	20648.21
675.43	20924.39
675.56	20666.93
675.70	20437.56
675.84	20428.20
675.98	20219.89
676.12	20388.41
676.26	20308.83
676.40	20339.26
676.54	20645.87
676.68	20435.22
676.82	19765.82
676.96	19941.36
677.10	20154.35
677.23	19765.82
677.37	19822.00
677.51	19702.63
677.65	19910.94
677.79	19681.56
677.93	19747.10
678.07	19524.75
678.21	19360.91
678.34	19648.80
678.48	19749.44
678.62	19669.86
678.76	19346.87
678.90	19232.18
679.04	19122.18
679.18	19381.98
679.31	18995.79
679.45	19386.66
679.59	18984.09
679.73	19061.32
679.87	18988.77
680.00	18963.02
680.14	18733.65
680.28	18574.49
680.42	18567.47
680.56	19005.15
680.70	18457.46
680.83	18878.76
680.97	18593.22
681.11	18565.13
681.25	18665.77
681.39	18342.78
681.52	18424.70
681.66	18380.23
681.80	18305.33
681.94	18082.98
682.07	18246.82
682.21	17916.80
682.35	17921.48
682.49	18101.70
682.62	17898.08
682.76	17591.47
682.90	17652.32
683.04	17790.41
683.17	17909.78
683.31	17767.01
683.45	17834.88
683.59	17806.80
683.72	17465.08
683.86	17359.75
684.00	17167.83
684.13	17158.47
684.27	17376.14
684.41	17177.19
684.55	17048.46
684.68	16959.52
684.82	16760.58
684.96	17050.80
685.09	16816.75
685.23	16709.08
685.37	16751.21
685.50	16947.82
685.64	16739.51
685.78	16671.64
685.91	16271.40
686.05	16973.56
686.19	16552.27
686.32	16893.99
686.46	16524.18
686.60	16142.67
686.73	16086.50
686.87	16240.98
687.01	16341.62
687.14	16035.01
687.28	16081.82
687.42	16147.36
687.55	15861.81
687.69	16013.95
687.82	15702.65
687.96	16049.05
688.10	15896.92
688.23	15875.85
688.37	15576.27
688.50	15770.53
688.64	15747.12
688.78	15349.23
688.91	15332.85
689.05	15552.86
689.18	15321.15
689.32	15077.73
689.46	15150.29
689.59	14965.39
689.73	15108.16
689.86	15082.41
690.00	15176.03
690.13	15110.50
690.27	15063.69
690.41	14913.89
690.54	15016.88
690.68	14822.61
690.81	14750.06
690.95	15087.09
691.08	14787.50
691.22	14766.44
691.35	14532.39
691.49	14698.56
691.62	14623.67
691.76	14473.87
691.89	14527.71
692.03	14452.81
692.16	14403.66
692.30	14162.58
692.43	14033.85
692.57	14106.41
692.70	13891.08
692.84	13855.97
692.97	14010.45
693.11	13940.23
693.24	13827.88
693.38	13886.40
693.51	13624.26
693.65	13951.93
693.78	13855.97
693.92	13493.19
694.05	13593.83
694.19	13465.10
694.32	13261.48
694.45	13217.01
694.59	13235.73
694.72	13245.09
694.86	12915.08
694.99	12987.63
695.13	13128.06
695.26	13004.02
695.39	13013.38
695.53	12784.01
695.66	13177.22
695.80	12851.88
695.93	12994.65
696.07	12854.22
696.20	13041.46
696.33	12669.32
696.47	12463.35
696.60	12671.66
696.73	12505.48
696.87	12531.23
697.00	12683.36
697.14	12355.69
697.27	12138.02
697.40	12299.52
697.54	12219.94
697.67	12184.83
697.80	12231.64
697.94	11960.14
698.07	11761.19
698.21	11805.66
698.34	11950.78
698.47	11955.46
698.61	11969.50
698.74	12028.01
698.87	11733.11
699.01	11674.59
699.14	11693.32
699.27	11555.22
699.40	11522.46
699.54	11623.10
699.67	11487.35
699.80	11550.54
699.94	11318.83
700.07	11211.17
700.20	11117.54
700.34	10883.49
700.47	10993.50
700.60	11335.21
700.73	11225.21
700.87	11075.42
701.00	11199.46
701.13	10789.87
701.26	11180.74
701.40	10876.47
701.53	10970.09
701.66	10827.32
701.79	10757.10
701.93	10703.27
702.06	10443.47
702.19	10413.04
702.32	10441.13
702.46	10464.54
702.59	10204.74
702.72	10445.81
702.85	10312.40
702.99	10139.20
703.12	10274.95
703.25	10183.67
703.38	10218.78
703.51	9998.77
703.65	9961.32
703.78	9963.66
703.91	9863.02
704.04	10059.62
704.17	10307.72
704.31	9825.57
704.44	9832.59
704.57	9804.50
704.70	9804.50
704.83	9509.60
704.96	9500.23
705.10	9434.70
705.23	9579.81
>>>>>End Processed Spectral Data<<<<<
