SpectraSuite Data File
++++++++++++++++++++++++++++++++++++
Date: Fri Oct 18 13:58:35 GMT-05:00 2013
User: bianchi
Dark Spectrum Present: No
Reference Spectrum Present: No
Number of Sampled Component Spectra: 1
Spectrometers: USB2+H05261
Integration Time (usec): 50000 (USB2+H05261)
Spectra Averaged: 1 (USB2+H05261)
Boxcar Smoothing: 0 (USB2+H05261)
Correct for Electrical Dark: No (USB2+H05261)
Strobe/Lamp Enabled: No (USB2+H05261)
Correct for Detector Non-linearity: No (USB2+H05261)
Correct for Stray Light: No (USB2+H05261)
Number of Pixels in Processed Spectrum: 2048
>>>>>Begin Processed Spectral Data<<<<<
365.73	0.00
365.92	0.00
366.12	0.00
366.32	0.00
366.52	0.00
366.72	0.00
366.91	0.00
367.11	0.00
367.31	0.00
367.51	0.00
367.70	0.00
367.90	0.00
368.10	0.00
368.30	0.00
368.49	0.00
368.69	0.00
368.89	0.00
369.09	0.00
369.28	0.00
369.48	0.00
369.68	0.00
369.87	0.00
370.07	0.00
370.27	0.00
370.47	7.02
370.66	60.85
370.86	128.73
371.06	142.77
371.25	166.18
371.45	79.58
371.65	166.18
371.84	105.32
372.04	149.79
372.24	196.60
372.44	184.90
372.63	241.08
372.83	262.14
373.03	175.54
373.22	175.54
373.42	217.67
373.62	201.29
373.81	264.48
374.01	224.69
374.21	236.39
374.40	248.10
374.60	320.65
374.79	175.54
374.99	271.50
375.19	266.82
375.38	257.46
375.58	205.97
375.78	203.63
375.97	299.59
376.17	264.48
376.37	280.86
376.56	346.40
376.76	278.52
376.95	346.40
377.15	283.20
377.35	269.16
377.54	308.95
377.74	292.57
377.93	299.59
378.13	255.12
378.33	264.48
378.52	229.37
378.72	311.29
378.91	273.84
379.11	332.36
379.31	308.95
379.50	339.38
379.70	280.86
379.89	280.86
380.09	322.99
380.28	271.50
380.48	276.18
380.68	297.25
380.87	290.23
381.07	290.23
381.26	341.72
381.46	351.08
381.65	334.70
381.85	337.04
382.04	332.36
382.24	330.02
382.43	273.84
382.63	311.29
382.83	400.23
383.02	346.40
383.22	367.46
383.41	433.00
383.61	390.87
383.80	315.97
384.00	423.64
384.19	369.80
384.39	421.30
384.58	383.85
384.78	414.27
384.97	409.59
385.17	418.96
385.36	465.77
385.56	411.93
385.75	372.15
385.95	386.19
386.14	381.51
386.34	477.47
386.53	418.96
386.72	425.98
386.92	437.68
387.11	407.25
387.31	433.00
387.50	430.66
387.70	390.87
387.89	475.13
388.09	404.91
388.28	430.66
388.48	519.60
388.67	388.53
388.86	451.72
389.06	428.32
389.25	402.57
389.45	543.00
389.64	449.38
389.84	489.17
390.03	568.75
390.22	505.56
390.42	454.06
390.61	514.92
390.81	500.87
391.00	479.81
391.19	535.98
391.39	503.22
391.58	547.69
391.78	486.83
391.97	444.70
392.16	447.04
392.36	561.73
392.55	545.34
392.75	456.40
392.94	514.92
393.13	528.96
393.33	470.45
393.52	482.15
393.71	589.82
393.91	585.13
394.10	514.92
394.29	575.77
394.49	603.86
394.68	608.54
394.88	592.16
395.07	547.69
395.26	627.26
395.46	622.58
395.65	695.14
395.84	653.01
396.04	655.35
396.23	622.58
396.42	681.10
396.62	662.37
396.81	589.82
397.00	620.24
397.19	711.52
397.39	727.91
397.58	655.35
397.77	582.79
397.97	648.33
398.16	741.95
398.35	650.67
398.55	690.46
398.74	657.69
398.93	641.31
399.12	706.84
399.32	645.99
399.51	758.33
399.70	697.48
399.90	702.16
400.09	809.83
400.28	671.73
400.47	814.51
400.67	814.51
400.86	788.76
401.05	748.97
401.24	753.65
401.44	793.44
401.63	809.83
401.82	814.51
402.01	779.40
402.21	770.04
402.40	795.78
402.59	788.76
402.78	802.80
402.97	830.89
403.17	875.36
403.36	805.14
403.55	919.83
403.74	936.21
403.93	844.93
404.13	940.90
404.32	826.21
404.51	938.55
404.70	957.28
404.89	1004.09
405.09	936.21
405.28	903.45
405.47	973.66
405.66	936.21
405.85	943.24
406.05	954.94
406.24	945.58
406.43	957.28
406.62	1029.84
406.81	1046.22
407.00	950.26
407.20	994.73
407.39	990.05
407.58	1067.28
407.77	1081.33
407.96	1114.10
408.15	1060.26
408.34	1039.20
408.54	1076.65
408.73	1111.75
408.92	1158.57
409.11	1067.28
409.30	1114.10
409.49	1219.42
409.68	1053.24
409.87	1050.90
410.07	1135.16
410.26	1130.48
410.45	1144.52
410.64	1263.89
410.83	1186.65
411.02	1228.78
411.21	1231.12
411.40	1191.33
411.59	1153.88
411.78	1252.19
411.98	1174.95
412.17	1228.78
412.36	1364.53
412.55	1338.79
412.74	1280.27
412.93	1275.59
413.12	1420.71
413.31	1397.30
413.50	1465.18
413.69	1371.55
413.88	1472.20
414.07	1378.58
414.26	1369.21
414.45	1465.18
414.64	1376.24
414.83	1507.30
415.02	1549.43
415.22	1430.07
415.41	1537.73
415.60	1535.39
415.79	1596.25
415.98	1509.65
416.17	1619.65
416.36	1572.84
416.55	1640.72
416.74	1624.33
416.93	1689.87
417.12	1680.50
417.31	1699.23
417.50	1591.56
417.69	1661.78
417.88	1605.61
418.07	1703.91
418.26	1743.70
418.45	1708.59
418.64	1748.38
418.83	1732.00
419.02	1734.34
419.21	1846.68
419.39	1895.83
419.58	1694.55
419.77	1715.61
419.96	1818.60
420.15	1912.22
420.34	1893.49
420.53	1797.53
420.72	1975.41
420.91	1860.73
421.10	1912.22
421.29	1963.71
421.48	1900.52
421.67	1919.24
421.86	1898.17
422.05	2080.74
422.24	1891.15
422.43	1884.13
422.61	1996.48
422.80	2085.42
422.99	2026.90
423.18	2043.29
423.37	2047.97
423.56	2045.63
423.75	2008.18
423.94	2050.31
424.13	1849.02
424.32	1895.83
424.50	2054.99
424.69	2026.90
424.88	2054.99
425.07	1954.35
425.26	1937.96
425.45	1916.90
425.64	1963.71
425.83	1989.46
426.01	2092.44
426.20	1956.69
426.39	1987.11
426.58	2047.97
426.77	2083.08
426.96	2036.27
427.15	1973.07
427.33	2167.34
427.52	2162.66
427.71	2136.91
427.90	2167.34
428.09	2141.59
428.28	2195.42
428.46	2115.84
428.65	2129.89
428.84	2136.91
429.03	2305.43
429.22	2228.19
429.40	2232.87
429.59	2232.87
429.78	2174.36
429.97	2153.29
430.16	2188.40
430.34	2260.96
430.53	2335.85
430.72	2239.89
430.91	2284.36
431.10	2321.81
431.28	2260.96
431.47	2345.22
431.66	2326.49
431.85	2408.41
432.03	2319.47
432.22	2403.73
432.41	2487.99
432.60	2434.16
432.79	2340.54
432.97	2452.88
433.16	2370.96
433.35	2424.80
433.54	2527.78
433.72	2340.54
433.91	2469.27
434.10	2497.35
434.28	2459.90
434.47	2530.12
434.66	2560.55
434.85	2527.78
435.03	2495.01
435.22	2565.23
435.41	2675.23
435.59	2651.83
435.78	2656.51
435.97	2635.44
436.16	2581.61
436.34	2644.81
436.53	2602.68
436.72	2834.39
436.90	2548.84
437.09	2722.04
437.28	2569.91
437.46	2700.98
437.65	2696.30
437.84	2754.81
438.02	2754.81
438.21	2841.41
438.40	2768.85
438.58	2761.83
438.77	2916.31
438.96	2825.03
439.14	2911.63
439.33	2876.52
439.52	2895.24
439.70	2951.42
439.89	2974.82
440.08	3014.61
440.26	2911.63
440.45	3012.27
440.63	3009.93
440.82	3077.80
441.01	3091.85
441.19	3176.11
441.38	3122.27
441.57	3096.53
441.75	3211.22
441.94	3241.64
442.12	3215.90
442.31	3316.54
442.50	3365.69
442.68	3131.64
442.87	3349.31
443.05	3227.60
443.24	3370.37
443.43	3307.18
443.61	3527.19
443.80	3496.76
443.98	3349.31
444.17	3220.58
444.35	3365.69
444.54	3414.84
444.73	3391.44
444.91	3405.48
445.10	3382.07
445.28	3466.33
445.47	3501.44
445.65	3424.20
445.84	3342.28
446.02	3304.84
446.21	3311.86
446.39	3300.16
446.58	3454.63
446.77	3510.80
446.95	3370.37
447.14	3426.54
447.32	3431.23
447.51	3410.16
447.69	3520.17
447.88	3585.70
448.06	3461.65
448.25	3520.17
448.43	3557.61
448.62	3541.23
448.80	3442.93
448.99	3468.67
449.17	3768.26
449.36	3583.36
449.54	3772.94
449.73	3529.53
449.91	3770.60
450.10	3651.24
450.28	3630.17
450.46	3611.45
450.65	3655.92
450.83	3798.69
451.02	3798.69
451.20	3786.99
451.39	3805.71
451.57	3740.18
451.76	3761.24
451.94	3829.12
452.13	3763.58
452.31	3808.05
452.49	3658.26
452.68	3693.37
452.86	3744.86
453.05	3913.38
453.23	3997.64
453.42	3850.18
453.60	3824.44
453.78	3836.14
453.97	3815.07
454.15	3812.73
454.34	3964.87
454.52	3934.44
454.70	3915.72
454.89	3920.40
455.07	3955.51
455.26	4119.34
455.44	4049.13
455.62	4070.19
455.81	3922.74
455.99	4269.14
456.17	4105.30
456.36	4077.21
456.54	4231.69
456.73	4035.08
456.91	4411.91
457.09	4306.59
457.28	4285.52
457.46	4109.98
457.64	4173.18
457.83	4222.33
458.01	4337.01
458.19	4301.90
458.38	4425.95
458.56	4390.84
458.74	4285.52
458.93	4299.56
459.11	4423.61
459.29	4409.57
459.48	4395.53
459.66	4285.52
459.84	4458.72
460.03	4533.62
460.21	4554.68
460.39	4498.51
460.57	4365.10
460.76	4531.28
460.94	4479.79
461.12	4383.82
461.31	4545.32
461.49	4519.57
461.67	4369.78
461.85	4781.71
462.04	4580.43
462.22	4650.64
462.40	4774.69
462.59	4765.33
462.77	4760.65
462.95	4779.37
463.13	4699.80
463.32	4676.39
463.50	4751.29
463.68	4809.80
463.86	4744.27
464.05	4837.89
464.23	4809.80
464.41	4933.85
464.59	4755.97
464.78	5050.88
464.96	4823.84
465.14	4854.27
465.32	4842.57
465.50	5160.88
465.69	4961.94
465.87	4973.64
466.05	5027.47
466.23	4908.10
466.41	5053.22
466.60	5186.63
466.78	4938.53
466.96	5027.47
467.14	5046.20
467.32	4910.44
467.51	5142.16
467.69	4971.30
467.87	5071.94
468.05	5188.97
468.23	5097.69
468.41	4999.38
468.60	5191.31
468.78	5114.07
468.96	5217.05
469.14	5195.99
469.32	5179.61
469.50	5074.28
469.69	5198.33
469.87	5413.66
470.05	5481.53
470.23	5413.66
470.41	5387.91
470.59	5287.27
470.77	5383.23
470.95	5294.29
471.14	5521.32
471.32	5526.00
471.50	5481.53
471.68	5500.26
471.86	5715.59
472.04	5617.29
472.22	5722.61
472.40	5488.56
472.58	5614.95
472.77	5547.07
472.95	5771.76
473.13	5785.80
473.31	5673.46
473.49	5682.82
473.67	5738.99
473.85	5886.45
474.03	5909.85
474.21	5888.79
474.39	5912.19
474.57	6111.14
474.75	5881.77
474.93	6183.70
475.12	6073.69
475.30	6160.29
475.48	5877.09
475.66	6148.59
475.84	6338.17
476.02	6293.70
476.20	6176.67
476.38	6340.51
476.56	6602.65
476.74	6541.80
476.92	6375.62
477.10	6520.73
477.28	6682.23
477.46	6640.10
477.64	6658.82
477.82	6771.17
478.00	6857.77
478.18	6754.79
478.36	7068.42
478.54	7047.35
478.72	6956.07
478.90	7173.74
479.08	7220.55
479.26	7040.33
479.44	7084.80
479.62	7269.70
479.80	7293.11
479.98	7330.56
480.16	7360.98
480.34	7499.08
480.52	7473.33
480.70	7623.12
480.88	7630.15
481.06	7819.73
481.24	7616.10
481.41	7698.02
481.59	8180.17
481.77	8121.66
481.95	7920.37
482.13	8032.72
482.31	7913.35
482.49	8236.35
482.67	8109.96
482.85	8217.62
483.03	8175.49
483.21	8538.27
483.39	8430.61
483.57	8493.80
483.74	8582.74
483.92	8615.51
484.10	8521.89
484.28	8912.76
484.46	9081.28
484.64	8975.95
484.82	8847.22
485.00	9121.07
485.18	9114.05
485.35	9296.61
485.53	9441.72
485.71	9224.05
485.89	9575.13
486.07	9472.15
486.25	9334.06
486.43	9586.83
486.61	9554.07
486.78	9530.66
486.96	9827.91
487.14	10017.49
487.32	10012.81
487.50	10019.83
487.68	10153.24
487.85	10267.93
488.03	10366.23
488.21	10654.12
488.39	10588.58
488.57	10546.45
488.75	10616.67
488.92	10740.72
489.10	10668.16
489.28	10843.70
489.46	11026.26
489.64	10927.96
489.81	11112.86
489.99	11232.23
490.17	11234.57
490.35	11220.53
490.53	11410.11
490.70	11620.76
490.88	11428.84
491.06	11405.43
491.24	11613.74
491.41	11660.55
491.59	11721.40
491.77	11721.40
491.95	12051.42
492.13	12018.65
492.30	12138.02
492.48	12341.64
492.66	12229.30
492.84	12184.83
493.01	12461.01
493.19	12552.29
493.37	12615.49
493.54	12657.62
493.72	12545.27
493.90	12891.67
494.08	12779.32
494.25	12971.25
494.43	13212.32
494.61	13235.73
494.79	13469.78
494.96	13177.22
495.14	13172.54
495.32	13385.52
495.49	13364.46
495.67	13469.78
495.85	13558.72
496.02	13928.53
496.20	14057.26
496.38	13923.85
496.55	14022.15
496.73	13921.51
496.91	13907.46
497.09	14043.21
497.26	14338.12
497.44	14139.18
497.62	14345.14
497.79	14530.05
497.97	14539.41
498.14	14523.02
498.32	14553.45
498.50	14651.75
498.67	14710.27
498.85	15007.52
499.03	14703.25
499.20	14810.91
499.38	15040.28
499.56	15026.24
499.73	15211.14
499.91	15262.63
500.08	15304.76
500.26	15021.56
500.44	15468.60
500.61	15524.77
500.79	15447.54
500.97	15578.61
501.14	15744.78
501.32	15606.69
501.49	15761.17
501.67	15688.61
501.84	15557.54
502.02	15829.04
502.20	15803.30
502.37	15915.64
502.55	16107.57
502.72	16243.32
502.90	15775.21
503.07	16058.42
503.25	16262.04
503.43	16126.29
503.60	16233.96
503.78	16477.37
503.95	16203.53
504.13	16353.32
504.30	16613.12
504.48	16456.31
504.65	16407.16
504.83	16688.02
505.01	16996.97
505.18	16908.03
505.36	17003.99
505.53	16903.35
505.71	16858.88
505.88	17018.04
506.06	16994.63
506.23	17123.36
506.41	16903.35
506.58	17308.26
506.76	17366.78
506.93	17259.11
507.11	17310.60
507.28	17462.74
507.46	17523.59
507.63	17610.19
507.81	17713.17
507.98	17664.02
508.16	17568.06
508.33	17322.30
508.50	17947.23
508.68	17507.21
508.85	18279.58
509.03	18246.82
509.20	17961.27
509.38	18127.45
509.55	18038.51
509.73	18242.14
509.90	18171.92
510.08	17888.71
510.25	18237.45
510.42	18331.08
510.60	18665.77
510.77	18342.78
510.95	18726.63
511.12	18520.66
511.30	18623.64
511.47	18721.95
511.64	18752.37
511.82	19066.00
511.99	18771.10
512.17	18888.12
512.34	18740.67
512.51	18965.36
512.69	19042.60
512.86	18686.84
513.04	19300.06
513.21	19183.03
513.38	19239.20
513.56	19470.92
513.73	18995.79
513.90	19143.24
514.08	19183.03
514.25	19723.69
514.43	19611.35
514.60	19655.82
514.77	19887.53
514.95	19960.09
515.12	19744.76
515.29	19421.77
515.47	19953.07
515.64	19805.61
515.81	20013.92
515.99	20255.00
516.16	20116.90
516.33	20226.91
516.51	20315.85
516.68	20065.41
516.85	20170.74
517.03	20133.29
517.20	20156.69
517.37	20273.72
517.54	20304.15
517.72	20624.80
517.89	20552.24
518.06	20524.16
518.24	20304.15
518.41	20446.92
518.58	20650.55
518.75	20716.08
518.93	20650.55
519.10	20732.47
519.27	20734.81
519.45	20652.89
519.62	20858.85
519.79	20903.32
519.96	20851.83
520.14	20629.48
520.31	20994.61
520.48	21207.59
520.65	21254.40
520.83	21219.30
521.00	21123.33
521.17	21308.24
521.34	21518.89
521.52	21341.00
521.69	21338.66
521.86	21474.42
522.03	21607.83
522.20	21851.24
522.38	21490.80
522.55	21605.49
522.72	21584.42
522.89	21521.23
523.07	21998.70
523.24	21933.16
523.41	21912.10
523.58	21422.92
523.75	22045.51
523.92	22082.95
524.10	22085.30
524.27	21900.39
524.44	21989.33
524.61	22525.32
524.78	22211.68
524.96	22043.17
525.13	22424.67
525.30	22469.14
525.47	22279.56
525.64	22132.11
525.81	22368.50
525.98	22522.98
526.16	22387.22
526.33	22562.76
526.50	22923.21
526.67	22625.96
526.84	23065.98
527.01	22345.09
527.18	22595.53
527.36	22569.79
527.53	23087.04
527.70	22986.40
527.87	23388.97
528.04	22642.34
528.21	23297.69
528.38	23215.77
528.55	23194.71
528.72	23175.98
528.89	23075.34
529.07	22874.06
529.24	23229.82
529.41	23323.44
529.58	22948.95
529.75	23054.28
529.92	22958.31
530.09	23431.10
530.26	23562.17
530.43	23723.67
530.60	23501.32
530.77	23325.78
530.94	23711.97
531.11	23728.35
531.28	23440.47
531.46	23487.28
531.63	23978.79
531.80	23985.81
531.97	23836.02
532.14	24180.07
532.31	24049.00
532.48	23948.36
532.65	23854.74
532.82	24018.58
532.99	23709.63
533.16	23861.76
533.33	24203.48
533.50	24425.83
533.67	24243.27
533.84	24121.56
534.01	24276.04
534.18	24161.35
534.35	24486.68
534.52	24318.17
534.69	24739.46
534.86	24556.90
535.03	24147.31
535.20	24276.04
535.37	24261.99
535.54	24489.03
535.71	24269.01
535.88	24797.98
536.05	24418.81
536.22	24933.73
536.38	25003.94
536.55	24769.89
536.72	25008.62
536.89	24601.37
537.06	24556.90
537.23	24975.86
537.40	24741.80
537.57	24638.82
537.74	25214.59
537.91	24931.39
538.08	25223.95
538.25	24847.13
538.42	24915.00
538.59	25025.01
538.75	25165.44
538.92	25303.53
539.09	25200.55
539.26	25275.45
539.43	25436.94
539.60	25633.55
539.77	25165.44
539.94	25415.88
540.11	25401.83
540.28	25153.74
540.44	25270.76
540.61	25027.35
540.78	25352.68
540.95	25230.98
541.12	25549.29
541.29	25357.36
541.46	25397.15
541.62	25383.11
541.79	25380.77
541.96	25516.52
542.13	25553.97
542.30	25745.89
542.47	25612.48
542.63	25745.89
542.80	25905.05
542.97	25940.16
543.14	25972.92
543.31	26129.74
543.48	26089.95
543.64	26122.72
543.81	26331.03
543.98	26328.69
544.15	26581.46
544.32	26525.29
544.48	26845.94
544.65	26438.69
544.82	26342.73
544.99	26080.59
545.16	26214.00
545.32	26314.64
545.49	26544.02
545.66	26799.13
545.83	26366.13
546.00	26497.20
546.16	26525.29
546.33	26639.98
546.50	26125.06
546.67	26724.24
546.83	26384.86
547.00	26569.76
547.17	26604.87
547.34	26848.29
547.50	27049.57
547.67	26951.27
547.84	26932.54
548.00	27002.76
548.17	26986.38
548.34	26923.18
548.51	26761.69
548.67	27318.73
548.84	26932.54
549.01	26764.03
549.18	27112.77
549.34	26775.73
549.51	27140.85
549.68	26923.18
549.84	26785.09
550.01	27236.81
550.18	27091.70
550.34	27005.10
550.51	27590.24
550.68	27337.46
550.84	27108.08
551.01	27466.19
551.18	26981.70
551.34	27262.56
551.51	27414.69
551.68	27239.15
551.84	27477.89
552.01	27393.63
552.18	27410.01
552.34	27571.51
552.51	27562.15
552.68	27880.46
552.84	27740.03
553.01	27580.87
553.18	27311.71
553.34	27580.87
553.51	27417.04
553.67	27641.73
553.84	27948.34
554.01	27950.68
554.17	27789.18
554.34	27641.73
554.51	27892.16
554.67	28170.69
554.84	27758.75
555.00	27789.18
555.17	27772.80
555.33	27782.16
555.50	28208.14
555.67	27871.10
555.83	28063.02
556.00	28500.70
556.16	28266.65
556.33	27688.54
556.50	27740.03
556.66	28276.01
556.83	28016.21
556.99	28526.45
557.16	28191.75
557.32	28383.68
557.49	28388.36
557.65	28151.96
557.82	27978.76
557.98	28203.46
558.15	28112.17
558.32	28369.63
558.48	28088.77
558.65	28423.47
558.81	27997.49
558.98	28498.36
559.14	27948.34
559.31	28053.66
559.47	28079.41
559.64	28393.04
559.80	28517.09
559.97	28861.15
560.13	28404.74
560.30	28622.41
560.46	28369.63
560.63	28070.04
560.79	28807.31
560.96	28421.13
561.12	28510.07
561.29	28278.35
561.45	28446.87
561.61	28591.98
561.78	28538.15
561.94	28725.39
562.11	28662.20
562.27	28322.82
562.44	28683.27
562.60	28463.25
562.77	28453.89
562.93	28554.54
563.10	28627.09
563.26	28694.97
563.42	29221.59
563.59	28641.14
563.75	28996.90
563.92	28549.85
564.08	28760.50
564.24	28851.78
564.41	28833.06
564.57	29113.92
564.74	29113.92
564.90	29055.41
565.07	29111.58
565.23	28947.75
565.39	28987.53
565.56	29123.29
565.72	28680.92
565.88	28826.04
566.05	28453.89
566.21	28854.12
566.38	28741.78
566.54	28823.70
566.70	29214.57
566.87	29088.18
567.03	29057.75
567.19	29509.47
567.36	29427.56
567.52	28858.81
567.68	29387.77
567.85	29343.30
568.01	29179.46
568.17	29095.20
568.34	29252.02
568.50	28994.56
568.66	29235.63
568.83	29291.80
568.99	29362.02
569.15	29088.18
569.32	29401.81
569.48	28912.64
569.64	29230.95
569.81	29188.82
569.97	29448.62
570.13	29219.25
570.30	29149.03
570.46	29682.67
570.62	29303.51
570.78	28776.89
570.95	29200.52
571.11	29649.91
571.27	28903.28
571.43	29198.18
571.60	29432.24
571.76	29338.62
571.92	29247.33
572.09	29621.82
572.25	29252.02
572.41	29116.26
572.57	29481.39
572.74	29165.42
572.90	29296.49
573.06	29212.23
573.22	29116.26
573.38	29326.91
573.55	29252.02
573.71	29788.00
573.87	29418.19
574.03	29572.67
574.20	29270.74
574.36	29392.45
574.52	29439.26
574.68	29214.57
574.84	29607.78
575.01	29621.82
575.17	29465.00
575.33	29467.34
575.49	29067.11
575.65	29668.63
575.82	29591.39
575.98	29507.13
576.14	29289.46
576.30	29584.37
576.46	29186.48
576.62	29144.35
576.79	29549.26
576.95	29282.44
577.11	29514.16
577.27	29844.17
577.43	29560.97
577.59	29240.31
577.75	29469.69
577.92	29373.72
578.08	29635.86
578.24	29406.49
578.40	29329.25
578.56	29715.44
578.72	29738.85
578.88	29872.26
579.04	29586.71
579.21	29696.72
579.37	29516.50
579.53	29769.27
579.69	29317.55
579.85	29582.03
580.01	29701.40
580.17	29340.96
580.33	29722.46
580.49	29605.44
580.65	29706.08
580.82	29780.98
580.98	29865.24
581.14	29663.95
581.30	29769.27
581.46	29827.79
581.62	29465.00
581.78	29493.09
581.94	29560.97
582.10	29373.72
582.26	29713.10
582.42	29848.85
582.58	29624.16
582.74	29441.60
582.90	29500.11
583.06	30066.52
583.22	29734.17
583.38	29778.64
583.54	29947.15
583.70	29612.46
583.86	29907.37
584.02	29111.58
584.18	29858.21
584.34	29811.40
584.50	29483.73
584.66	29516.50
584.82	29596.07
584.98	29614.80
585.14	29511.81
585.30	29413.51
585.46	29425.22
585.62	29380.74
585.78	29820.77
585.94	29804.38
586.10	29773.95
586.26	29844.17
586.42	29715.44
586.58	29633.52
586.74	29642.88
586.90	29621.82
587.06	29677.99
587.22	29617.14
587.38	29633.52
587.54	30094.61
587.70	29724.80
587.86	29755.23
588.02	29869.92
588.18	30225.68
588.34	29535.22
588.49	29750.55
588.65	29593.73
588.81	29607.78
588.97	29701.40
589.13	29844.17
589.29	29446.28
589.45	29780.98
589.61	29617.14
589.77	30206.95
589.93	30188.23
590.08	30171.85
590.24	30118.01
590.40	30061.84
590.56	30108.65
590.72	29984.60
590.88	29755.23
591.04	30129.72
591.20	30342.70
591.35	30129.72
591.51	30251.42
591.67	30281.85
591.83	30272.49
591.99	29935.45
592.15	30328.66
592.31	30223.34
592.46	30188.23
592.62	29965.88
592.78	29811.40
592.94	29762.25
593.10	29923.75
593.26	30185.89
593.41	29883.96
593.57	29940.13
593.73	30181.21
593.89	30426.96
594.05	30057.16
594.20	29930.77
594.36	30066.52
594.52	29860.55
594.68	29748.21
594.84	29743.53
594.99	30225.68
595.15	30277.17
595.31	30122.69
595.47	30061.84
595.62	30253.76
595.78	30551.01
595.94	30064.18
596.10	30150.78
596.25	30071.20
596.41	30080.56
596.57	30094.61
596.73	30476.12
596.88	30061.84
597.04	30071.20
597.20	30464.41
597.36	30345.05
597.51	30389.52
597.67	30036.09
597.83	30192.91
597.99	30300.58
598.14	30008.01
598.30	30005.67
598.46	30141.42
598.61	30401.22
598.77	30017.37
598.93	29996.31
599.09	30396.54
599.24	30228.02
599.40	30794.43
599.56	30579.10
599.71	30412.92
599.87	30185.89
600.03	30195.25
600.18	30333.34
600.34	30085.25
600.50	30267.81
600.65	30583.78
600.81	30157.80
600.97	30387.18
601.12	30373.13
601.28	30469.09
601.44	30387.18
601.59	30338.02
601.75	30281.85
601.91	30003.33
602.06	30008.01
602.22	29977.58
602.37	30115.67
602.53	30312.28
602.69	30539.31
602.84	30349.73
603.00	30536.97
603.16	30373.13
603.31	30185.89
603.47	30349.73
603.62	30258.45
603.78	30443.35
603.94	29869.92
604.09	30391.86
604.25	30445.69
604.40	30403.56
604.56	30239.72
604.71	30377.81
604.87	30354.41
605.03	30211.64
605.18	30373.13
605.34	30445.69
605.49	29652.25
605.65	30136.74
605.80	29883.96
605.96	30178.87
606.12	30146.10
606.27	30441.01
606.43	30192.91
606.58	30595.48
606.74	30284.19
606.89	30335.68
607.05	30562.72
607.20	30494.84
607.36	30005.67
607.51	30441.01
607.67	30270.15
607.82	30101.63
607.98	30143.76
608.13	30008.01
608.29	30080.56
608.44	30331.00
608.60	30005.67
608.75	30298.23
608.91	29886.30
609.06	30349.73
609.22	30127.38
609.37	29942.47
609.53	29851.19
609.68	30073.54
609.84	30008.01
609.99	29755.23
610.15	30314.62
610.30	29780.98
610.46	30134.40
610.61	30487.82
610.76	29902.68
610.92	29876.94
611.07	29993.97
611.23	30103.97
611.38	29640.54
611.54	29612.46
611.69	29509.47
611.84	29867.58
612.00	29921.41
612.15	29474.37
612.31	30361.43
612.46	29542.24
612.62	29804.38
612.77	29469.69
612.92	30082.91
613.08	29411.17
613.23	29811.40
613.39	29530.54
613.54	29369.04
613.69	29876.94
613.85	29694.38
614.00	29699.06
614.15	29633.52
614.31	29469.69
614.46	29902.68
614.62	29717.78
614.77	29521.18
614.92	29759.91
615.08	29605.44
615.23	29635.86
615.38	29647.57
615.54	29380.74
615.69	29556.28
615.84	29202.86
616.00	29890.98
616.15	29649.91
616.30	29582.03
616.46	29748.21
616.61	29890.98
616.76	29785.66
616.92	29233.29
617.07	29390.11
617.22	29294.14
617.37	29418.19
617.53	29532.88
617.68	29467.34
617.83	28734.76
617.99	29186.48
618.14	29434.58
618.29	29455.64
618.45	29228.61
618.60	29336.27
618.75	29425.22
618.90	29202.86
619.06	29252.02
619.21	29322.23
619.36	29174.78
619.51	29046.05
619.67	28905.62
619.82	29076.48
619.97	29111.58
620.12	29095.20
620.28	29163.08
620.43	28926.68
620.58	29350.32
620.73	29214.57
620.89	29366.70
621.04	29230.95
621.19	29118.60
621.34	28669.22
621.49	28835.40
621.65	28952.43
621.80	28903.28
621.95	28596.67
622.10	28826.04
622.25	29223.93
622.41	28659.86
622.56	29109.24
622.71	28891.57
622.86	29022.64
623.01	29099.88
623.16	28814.34
623.32	28601.35
623.47	28767.52
623.62	29008.60
623.77	29097.54
623.92	28828.38
624.07	28739.44
624.23	28734.76
624.38	28992.22
624.53	28627.09
624.68	28549.85
624.83	28854.12
624.98	28884.55
625.13	28690.29
625.29	28786.25
625.44	28683.27
625.59	28348.57
625.74	28545.17
625.89	28533.47
626.04	28261.97
626.19	28746.46
626.34	28158.99
626.49	28364.95
626.65	28334.53
626.80	28591.98
626.95	28690.29
627.10	28678.58
627.25	28369.63
627.40	28421.13
627.55	28219.84
627.70	28280.69
627.85	27948.34
628.00	28198.77
628.15	28257.29
628.30	28023.23
628.45	28238.56
628.60	28297.08
628.76	28484.32
628.91	28250.27
629.06	28121.54
629.21	28109.83
629.36	28046.64
629.51	28201.11
629.66	28229.20
629.81	27950.68
629.96	28222.18
630.11	28102.81
630.26	28322.82
630.41	27768.12
630.56	27707.26
630.71	27866.42
630.86	27878.12
631.01	27924.93
631.16	28130.90
631.31	28383.68
631.46	27751.73
631.61	27803.22
631.76	27990.47
631.91	27847.69
632.06	27761.09
632.21	27536.40
632.36	27805.56
632.51	27463.85
632.66	27805.56
632.81	27630.02
632.96	27559.81
633.10	27744.71
633.25	27583.21
633.40	27562.15
633.55	27541.08
633.70	27400.65
633.85	27704.92
634.00	27428.74
634.15	27559.81
634.30	27426.40
634.45	27503.64
634.60	27417.04
634.75	27536.40
634.90	27150.21
635.05	27510.66
635.19	27686.20
635.34	28137.92
635.49	27620.66
635.64	27660.45
635.79	27634.71
635.94	27012.12
636.09	27302.35
636.24	27262.56
636.39	27138.51
636.53	27232.13
636.68	26946.59
636.83	27040.21
636.98	27358.52
637.13	27337.46
637.28	27229.79
637.43	27503.64
637.57	27012.12
637.72	26888.07
637.87	27115.11
638.02	27140.85
638.17	27030.85
638.32	26850.63
638.46	26740.62
638.61	26874.03
638.76	26904.46
638.91	26401.24
639.06	26801.47
639.20	26998.08
639.35	26953.61
639.50	27087.02
639.65	27215.75
639.80	27262.56
639.94	26836.58
640.09	26993.40
640.24	26773.39
640.39	26927.86
640.54	26771.05
640.68	26508.91
640.83	26780.41
640.98	26607.21
641.13	26506.57
641.27	26551.04
641.42	26984.04
641.57	26731.26
641.72	26948.93
641.86	26443.37
642.01	26431.67
642.16	26721.90
642.31	26499.55
642.45	26806.16
642.60	26424.65
642.75	26251.45
642.90	26855.31
643.04	26408.26
643.19	26221.02
643.34	26441.03
643.48	26579.12
643.63	26426.99
643.78	26342.73
643.93	26593.17
644.07	26726.58
644.22	26469.12
644.37	26176.55
644.51	26572.10
644.66	26340.39
644.81	26398.90
644.95	26003.35
645.10	26225.70
645.25	26120.38
645.39	26450.39
645.54	25872.28
645.69	26377.84
645.83	26192.94
645.98	26492.52
646.13	26443.37
646.27	26305.28
646.42	25944.84
646.57	26052.50
646.71	26092.29
646.86	26160.17
647.00	26012.71
647.15	25951.86
647.30	26125.06
647.44	25778.66
647.59	26321.66
647.74	25909.73
647.88	25837.17
648.03	26305.28
648.17	26366.13
648.32	26071.23
648.47	26174.21
648.61	25993.99
648.76	26106.34
648.90	26312.30
649.05	26106.34
649.20	25549.29
649.34	25912.07
649.49	25685.04
649.63	25799.73
649.78	25727.17
649.92	25603.12
650.07	25788.02
650.21	25722.49
650.36	25752.91
650.51	25795.04
650.65	26225.70
650.80	25666.31
650.94	25979.95
651.09	25795.04
651.23	25458.01
651.38	25605.46
651.52	25450.99
651.67	25582.06
651.81	25280.13
651.96	25371.41
652.10	25776.32
652.25	25755.26
652.39	25350.34
652.54	25556.31
652.68	25324.60
652.83	25397.15
652.97	25951.86
653.12	25565.67
653.26	25142.03
653.41	25626.53
653.55	25504.82
653.70	25216.93
653.84	25273.10
653.99	25240.34
654.13	25216.93
654.27	25113.95
654.42	25504.82
654.56	25139.69
654.71	25685.04
654.85	24833.08
655.00	25383.11
655.14	25198.21
655.29	25252.04
655.43	25277.79
655.57	25149.06
655.72	25132.67
655.86	25046.07
656.01	24837.76
656.15	25032.03
656.30	24893.94
656.44	24959.47
656.58	24676.27
656.73	24863.51
656.87	25076.50
657.01	24884.58
657.16	25111.61
657.30	24833.08
657.45	25125.65
657.59	24999.26
657.73	25127.99
657.88	24840.11
658.02	24819.04
658.16	24776.91
658.31	24685.63
658.45	25053.09
658.60	24465.62
658.74	24652.86
658.88	24592.01
659.03	24397.74
659.17	24793.29
659.31	24580.31
659.46	24606.05
659.60	24568.60
659.74	24772.23
659.89	24783.93
660.03	24446.90
660.17	24439.87
660.32	24472.64
660.46	24201.14
660.60	24217.52
660.74	24346.25
660.89	24500.73
661.03	23957.72
661.17	24505.41
661.32	24273.70
661.46	24049.00
661.60	24194.12
661.74	24252.63
661.89	24290.08
662.03	24404.77
662.17	23770.48
662.31	24100.50
662.46	24166.03
662.60	23941.34
662.74	24011.56
662.88	23934.32
663.03	23889.85
663.17	24184.76
663.31	23271.95
663.45	23819.63
663.60	23562.17
663.74	24049.00
663.88	23875.80
664.02	23737.71
664.17	23962.40
664.31	23550.47
664.45	23646.43
664.59	23452.17
664.73	23463.87
664.88	23358.55
665.02	23012.15
665.16	23297.69
665.30	23403.02
665.44	23377.27
665.59	22829.59
665.73	23173.64
665.87	22888.10
666.01	23175.98
666.15	23293.01
666.29	23264.92
666.44	23014.49
666.58	22974.70
666.72	23204.07
666.86	23124.49
667.00	23096.41
667.14	22820.22
667.28	23023.85
667.43	22948.95
667.57	22799.16
667.71	22970.02
667.85	22689.15
667.99	22773.41
668.13	22665.75
668.27	22764.05
668.41	22925.55
668.56	22609.58
668.70	22525.32
668.84	22902.14
668.98	22597.87
669.12	22537.02
669.26	22370.84
669.40	22263.18
669.54	22368.50
669.68	22551.06
669.82	22338.07
669.96	22405.95
670.10	22078.27
670.25	22258.49
670.39	22038.48
670.53	21827.84
670.67	21745.92
670.81	22066.57
670.95	22134.45
671.09	21874.65
671.23	22066.57
671.37	22054.87
671.51	22384.88
671.65	21738.90
671.79	21656.98
671.93	21991.67
672.07	21675.70
672.21	21862.94
672.35	21509.52
672.49	21493.14
672.63	21462.71
672.77	21490.80
672.91	21537.61
673.05	21514.20
673.19	21355.05
673.33	21317.60
673.47	21392.50
673.61	21591.44
673.75	21128.02
673.89	21497.82
674.03	21205.25
674.17	21483.78
674.31	21013.33
674.45	21170.15
674.59	21160.78
674.73	21043.76
674.87	21128.02
675.01	20629.48
675.15	20798.00
675.29	21053.12
675.43	20556.93
675.56	20580.33
675.70	20559.27
675.84	20577.99
675.98	20053.71
676.12	20926.73
676.26	20615.44
676.40	20556.93
676.54	20418.83
676.68	20229.25
676.82	20123.93
676.96	20191.80
677.10	20084.14
677.23	20105.20
677.37	19964.77
677.51	19880.51
677.65	19896.89
677.79	19679.22
677.93	19740.08
678.07	19861.79
678.21	19632.41
678.34	19704.97
678.48	19623.05
678.62	19555.18
678.76	19276.65
678.90	19384.32
679.04	19332.82
679.18	19538.79
679.31	19136.22
679.45	19339.85
679.59	19105.79
679.73	19056.64
679.87	19281.33
680.00	18803.86
680.14	18995.79
680.28	18831.95
680.42	18750.03
680.56	18920.89
680.70	18937.27
680.83	18792.16
680.97	18654.07
681.11	18691.52
681.25	18773.44
681.39	18579.17
681.52	18560.45
681.66	18560.45
681.80	18188.30
681.94	18342.78
682.07	18359.16
682.21	18232.77
682.35	18244.48
682.49	17617.21
682.62	17783.39
682.76	17752.96
682.90	17905.10
683.04	18057.23
683.17	17799.77
683.31	17994.04
683.45	18092.34
683.59	17603.17
683.72	17467.42
683.86	17614.87
684.00	17624.23
684.13	17448.69
684.27	17507.21
684.41	17369.12
684.55	17341.03
684.68	17111.66
684.82	17046.12
684.96	17280.18
685.09	17158.47
685.23	16964.20
685.37	16947.82
685.50	16877.60
685.64	16980.59
685.78	16879.94
685.91	17011.01
686.05	16776.96
686.19	16858.88
686.32	16709.08
686.46	16547.59
686.60	16500.78
686.73	16411.84
686.87	16294.81
687.01	16367.37
687.14	16592.06
687.28	16154.38
687.42	16006.92
687.55	16287.79
687.69	16306.51
687.82	16058.42
687.96	15815.00
688.10	15798.62
688.23	15871.17
688.37	15936.71
688.50	15810.32
688.64	15557.54
688.78	15492.01
688.91	15419.45
689.05	15716.70
689.18	15726.06
689.32	15082.41
689.46	15435.83
689.59	15297.74
689.73	15227.53
689.86	15098.80
690.00	15304.76
690.13	15122.20
690.27	14930.28
690.41	15222.84
690.54	15047.30
690.68	14885.81
690.81	14731.33
690.95	15021.56
691.08	14984.11
691.22	14813.25
691.35	14705.59
691.49	14841.34
691.62	14607.28
691.76	14424.72
691.89	14455.15
692.03	14539.41
692.16	14270.25
692.30	14113.43
692.43	14111.09
692.57	14080.66
692.70	14017.47
692.84	14097.05
692.97	14024.49
693.11	14008.11
693.24	13958.96
693.38	13851.29
693.51	13898.10
693.65	13640.64
693.78	13965.98
693.92	13706.18
694.05	13668.73
694.19	13472.12
694.32	13369.14
694.45	13242.75
694.59	13209.98
694.72	13121.04
694.86	13181.90
694.99	13055.51
695.13	13256.79
695.26	13076.57
695.39	13022.74
695.53	12842.52
695.66	13018.06
695.80	13097.64
695.93	13107.00
696.07	13025.08
696.20	13179.56
696.33	12926.78
696.47	12858.90
696.60	12564.00
696.73	12552.29
696.87	12400.16
697.00	12655.28
697.14	12617.83
697.27	12461.01
697.40	12133.34
697.54	12114.61
697.67	12290.15
697.80	12131.00
697.94	11920.35
698.07	12018.65
698.21	11922.69
698.34	12070.14
698.47	12077.16
698.61	12084.19
698.74	11969.50
698.87	11953.12
699.01	11751.83
699.14	11552.88
699.27	11585.65
699.40	11681.61
699.54	11597.35
699.67	11552.88
699.80	11641.82
699.94	11342.24
700.07	11290.74
700.20	11171.38
700.34	10810.93
700.47	10998.18
700.60	10986.47
700.73	11145.63
700.87	10995.84
701.00	11084.78
701.13	11070.73
701.26	11054.35
701.40	10942.00
701.53	11108.18
701.66	11066.05
701.79	10993.50
701.93	11019.24
702.06	10670.50
702.19	10672.84
702.32	10516.03
702.46	10328.78
702.59	10333.47
702.72	10347.51
702.85	10445.81
702.99	10225.80
703.12	10417.72
703.25	10040.90
703.38	10061.96
703.51	10246.87
703.65	10223.46
703.78	10164.95
703.91	10026.86
704.04	10033.88
704.17	10101.75
704.31	10080.69
704.44	9893.44
704.57	9727.27
704.70	9696.84
704.83	9743.65
704.96	9399.59
705.10	9682.80
705.23	9511.94
>>>>>End Processed Spectral Data<<<<<
