SpectraSuite Data File
++++++++++++++++++++++++++++++++++++
Date: Fri Oct 18 13:58:31 GMT-05:00 2013
User: bianchi
Dark Spectrum Present: No
Reference Spectrum Present: No
Number of Sampled Component Spectra: 1
Spectrometers: USB2+H05261
Integration Time (usec): 50000 (USB2+H05261)
Spectra Averaged: 1 (USB2+H05261)
Boxcar Smoothing: 0 (USB2+H05261)
Correct for Electrical Dark: No (USB2+H05261)
Strobe/Lamp Enabled: No (USB2+H05261)
Correct for Detector Non-linearity: No (USB2+H05261)
Correct for Stray Light: No (USB2+H05261)
Number of Pixels in Processed Spectrum: 2048
>>>>>Begin Processed Spectral Data<<<<<
365.73	0.00
365.92	0.00
366.12	0.00
366.32	0.00
366.52	0.00
366.72	0.00
366.91	0.00
367.11	0.00
367.31	0.00
367.51	0.00
367.70	0.00
367.90	0.00
368.10	0.00
368.30	0.00
368.49	0.00
368.69	0.00
368.89	0.00
369.09	0.00
369.28	0.00
369.48	0.00
369.68	0.00
369.87	0.00
370.07	0.00
370.27	0.00
370.47	7.02
370.66	100.64
370.86	100.64
371.06	210.65
371.25	100.64
371.45	81.92
371.65	161.50
371.84	95.96
372.04	196.60
372.24	191.92
372.44	212.99
372.63	189.58
372.83	208.31
373.03	163.84
373.22	224.69
373.42	170.86
373.62	241.08
373.81	257.46
374.01	182.56
374.21	236.39
374.40	222.35
374.60	224.69
374.79	212.99
374.99	224.69
375.19	248.10
375.38	236.39
375.58	170.86
375.78	245.76
375.97	217.67
376.17	341.72
376.37	271.50
376.56	177.88
376.76	191.92
376.95	285.55
377.15	374.49
377.35	264.48
377.54	229.37
377.74	217.67
377.93	278.52
378.13	238.73
378.33	332.36
378.52	313.63
378.72	271.50
378.91	229.37
379.11	243.42
379.31	262.14
379.50	355.76
379.70	397.89
379.89	266.82
380.09	313.63
380.28	297.25
380.48	313.63
380.68	353.42
380.87	285.55
381.07	332.36
381.26	290.23
381.46	362.78
381.65	322.99
381.85	297.25
382.04	308.95
382.24	266.82
382.43	320.65
382.63	320.65
382.83	395.55
383.02	404.91
383.22	294.91
383.41	287.89
383.61	346.40
383.80	402.57
384.00	379.17
384.19	458.74
384.39	337.04
384.58	388.53
384.78	330.02
384.97	304.27
385.17	280.86
385.36	330.02
385.56	322.99
385.75	390.87
385.95	334.70
386.14	416.62
386.34	393.21
386.53	344.06
386.72	435.34
386.92	447.04
387.11	301.93
387.31	414.27
387.50	451.72
387.70	407.25
387.89	407.25
388.09	407.25
388.28	435.34
388.48	444.70
388.67	383.85
388.86	447.04
389.06	486.83
389.25	507.90
389.45	428.32
389.64	454.06
389.84	519.60
390.03	456.40
390.22	489.17
390.42	484.49
390.61	360.44
390.81	475.13
391.00	505.56
391.19	461.09
391.39	550.03
391.58	498.53
391.78	411.93
391.97	437.68
392.16	517.26
392.36	540.66
392.55	557.05
392.75	517.26
392.94	498.53
393.13	465.77
393.33	521.94
393.52	547.69
393.71	512.58
393.91	482.15
394.10	545.34
394.29	489.17
394.49	594.50
394.68	601.52
394.88	608.54
395.07	603.86
395.26	564.07
395.46	671.73
395.65	599.18
395.84	554.71
396.04	608.54
396.23	660.03
396.42	704.50
396.62	578.11
396.81	653.01
397.00	627.26
397.19	685.78
397.39	599.18
397.58	655.35
397.77	653.01
397.97	702.16
398.16	655.35
398.35	620.24
398.55	636.63
398.74	692.80
398.93	660.03
399.12	690.46
399.32	662.37
399.51	645.99
399.70	744.29
399.90	671.73
400.09	744.29
400.28	734.93
400.47	774.72
400.67	809.83
400.86	856.64
401.05	697.48
401.24	744.29
401.44	854.30
401.63	772.38
401.82	765.36
402.01	823.87
402.21	896.43
402.40	758.33
402.59	748.97
402.78	833.23
402.97	779.40
403.17	952.60
403.36	814.51
403.55	765.36
403.74	992.39
403.93	844.93
404.13	889.40
404.32	795.78
404.51	905.79
404.70	936.21
404.89	812.17
405.09	999.41
405.28	908.13
405.47	933.87
405.66	945.58
405.85	954.94
406.05	854.30
406.24	887.06
406.43	887.06
406.62	933.87
406.81	968.98
407.00	929.19
407.20	978.34
407.39	971.32
407.58	999.41
407.77	1074.31
407.96	1174.95
408.15	1006.43
408.34	1013.45
408.54	1032.18
408.73	1071.97
408.92	1109.41
409.11	1146.86
409.30	1090.69
409.49	1060.26
409.68	1177.29
409.87	1081.33
410.07	1219.42
410.26	1177.29
410.45	1090.69
410.64	1200.69
410.83	1149.20
411.02	1177.29
411.21	1210.06
411.40	1170.27
411.59	1142.18
411.78	1193.67
411.98	1247.51
412.17	1231.12
412.36	1294.32
412.55	1320.06
412.74	1394.96
412.93	1289.64
413.12	1366.87
413.31	1331.76
413.50	1369.21
413.69	1416.02
413.88	1334.11
414.07	1404.32
414.26	1465.18
414.45	1519.01
414.64	1474.54
414.83	1523.69
415.02	1432.41
415.22	1530.71
415.41	1603.27
415.60	1458.15
415.79	1593.90
415.98	1465.18
416.17	1551.78
416.36	1605.61
416.55	1563.48
416.74	1582.20
416.93	1666.46
417.12	1612.63
417.31	1657.10
417.50	1673.48
417.69	1739.02
417.88	1834.98
418.07	1556.46
418.26	1661.78
418.45	1767.10
418.64	1867.75
418.83	1820.94
419.02	1816.26
419.21	1767.10
419.39	1818.60
419.58	1694.55
419.77	1820.94
419.96	1811.57
420.15	1839.66
420.34	1783.49
420.53	1839.66
420.72	1799.87
420.91	1872.43
421.10	2019.88
421.29	1954.35
421.48	1804.55
421.67	1984.77
421.86	1970.73
422.05	1963.71
422.24	1987.11
422.43	1984.77
422.61	1888.81
422.80	1860.73
422.99	1949.67
423.18	1877.11
423.37	1975.41
423.56	2022.22
423.75	1973.07
423.94	1923.92
424.13	1811.57
424.32	1898.17
424.50	1919.24
424.69	1944.99
424.88	2003.50
425.07	1940.30
425.26	1930.94
425.45	2050.31
425.64	2069.03
425.83	1954.35
426.01	2062.01
426.20	2038.61
426.39	1891.15
426.58	2099.46
426.77	2073.71
426.96	2132.23
427.15	2012.86
427.33	2057.33
427.52	2085.42
427.71	2141.59
427.90	2127.55
428.09	2090.10
428.28	2179.04
428.46	2090.10
428.65	2069.03
428.84	2165.00
429.03	2251.60
429.22	2113.50
429.40	2132.23
429.59	2202.44
429.78	2047.97
429.97	2134.57
430.16	2141.59
430.34	2183.72
430.53	2319.47
430.72	2277.34
430.91	2242.23
431.10	2232.87
431.28	2368.62
431.47	2284.36
431.66	2314.79
431.85	2209.47
432.03	2368.62
432.22	2429.48
432.41	2392.03
432.60	2377.98
432.79	2385.01
432.97	2422.45
433.16	2457.56
433.35	2431.82
433.54	2429.48
433.72	2408.41
433.91	2436.50
434.10	2448.20
434.28	2471.61
434.47	2569.91
434.66	2628.42
434.85	2434.16
435.03	2595.65
435.22	2516.08
435.41	2708.00
435.59	2532.46
435.78	2640.12
435.97	2523.10
436.16	2595.65
436.34	2640.12
436.53	2738.43
436.72	2726.72
436.90	2600.34
437.09	2700.98
437.28	2551.18
437.46	2789.92
437.65	2696.30
437.84	2761.83
438.02	2682.25
438.21	2871.84
438.40	2740.77
438.58	2708.00
438.77	2782.90
438.96	2895.24
439.14	2867.16
439.33	2876.52
439.52	2829.71
439.70	2869.50
439.89	2825.03
440.08	3054.40
440.26	2981.84
440.45	3005.25
440.63	3098.87
440.82	3068.44
441.01	2951.42
441.19	3030.99
441.38	3234.62
441.57	3101.21
441.75	3232.28
441.94	3169.09
442.12	3105.89
442.31	3190.15
442.50	3222.92
442.68	3178.45
442.87	3218.24
443.05	3323.56
443.24	3267.39
443.43	3286.11
443.61	3400.80
443.80	3368.03
443.98	3272.07
444.17	3183.13
444.35	3316.54
444.54	3403.14
444.73	3412.50
444.91	3351.65
445.10	3290.79
445.28	3314.20
445.47	3286.11
445.65	3304.84
445.84	3386.76
446.02	3379.73
446.21	3485.06
446.39	3382.07
446.58	3520.17
446.77	3510.80
446.95	3316.54
447.14	3391.44
447.32	3503.78
447.51	3473.36
447.69	3428.88
447.88	3492.08
448.06	3494.42
448.25	3372.71
448.43	3435.91
448.62	3372.71
448.80	3358.67
448.99	3595.06
449.17	3592.72
449.36	3389.10
449.54	3503.78
449.73	3524.85
449.91	3637.19
450.10	3632.51
450.28	3714.43
450.46	3625.49
450.65	3569.32
450.83	3625.49
451.02	3784.65
451.20	3920.40
451.39	3747.20
451.57	3625.49
451.76	3550.59
451.94	3735.50
452.13	3728.47
452.31	3786.99
452.49	3665.28
452.68	3946.14
452.86	3796.35
453.05	3866.56
453.23	3922.74
453.42	3815.07
453.60	3714.43
453.78	3911.04
453.97	3721.45
454.15	3742.52
454.34	3871.25
454.52	3922.74
454.70	3880.61
454.89	3939.12
455.07	4007.00
455.26	4021.04
455.44	3861.88
455.62	3845.50
455.81	3957.85
455.99	4065.51
456.17	4049.13
456.36	4135.73
456.54	4212.96
456.73	4119.34
456.91	4217.65
457.09	4201.26
457.28	4154.45
457.46	4231.69
457.64	4297.22
457.83	4250.41
458.01	4138.07
458.19	4271.48
458.38	4290.20
458.56	4301.90
458.74	4402.55
458.93	4219.99
459.11	4365.10
459.29	4568.73
459.48	4290.20
459.66	4414.25
459.84	4547.66
460.03	4540.64
460.21	4435.32
460.39	4470.42
460.57	4374.46
460.76	4444.68
460.94	4489.15
461.12	4482.13
461.31	4538.30
461.49	4526.60
461.67	4608.51
461.85	4519.57
462.04	4575.75
462.22	4571.07
462.40	4629.58
462.59	4695.11
462.77	4730.22
462.95	4751.29
463.13	4755.97
463.32	4688.09
463.50	4739.58
463.68	4812.14
463.86	4718.52
464.05	4643.62
464.23	4777.03
464.41	4863.63
464.59	4681.07
464.78	4826.18
464.96	4652.98
465.14	4842.57
465.32	4784.06
465.50	4945.55
465.69	4929.17
465.87	4709.16
466.05	4868.31
466.23	4968.96
466.41	5011.09
466.60	5046.20
466.78	4943.21
466.96	4929.17
467.14	4884.70
467.32	5025.13
467.51	4997.04
467.69	4844.91
467.87	5004.07
468.05	5107.05
468.23	5104.71
468.41	4943.21
468.60	4943.21
468.78	5254.50
468.96	5186.63
469.14	5053.22
469.32	5205.35
469.50	5123.43
469.69	5221.74
469.87	5341.10
470.05	5413.66
470.23	5331.74
470.41	5296.63
470.59	5078.96
470.77	5338.76
470.95	5277.91
471.14	5479.19
471.32	5439.40
471.50	5554.09
471.68	5533.03
471.86	5493.24
472.04	5406.64
472.22	5659.42
472.40	5418.34
472.58	5696.86
472.77	5778.78
472.95	5542.39
473.13	5790.49
473.31	5680.48
473.49	5781.12
473.67	5554.09
473.85	5746.02
474.03	5980.07
474.21	6001.13
474.39	5907.51
474.57	5956.66
474.75	6022.20
474.93	5984.75
475.12	5872.40
475.30	6289.02
475.48	5987.09
475.66	6108.80
475.84	6108.80
476.02	6328.81
476.20	6368.60
476.38	6225.82
476.56	6431.79
476.74	6363.92
476.92	6466.90
477.10	6403.71
477.28	6579.25
477.46	6523.07
477.64	6719.68
477.82	6623.72
478.00	6832.02
478.18	6778.19
478.36	6761.81
478.54	6745.42
478.72	6885.86
478.90	6965.43
479.08	6888.20
479.26	6918.62
479.44	7171.40
479.62	7258.00
479.80	7375.03
479.98	7391.41
480.16	7466.31
480.34	7206.51
480.52	7548.23
480.70	7449.93
480.88	7412.48
481.06	7618.44
481.24	7616.10
481.41	7674.62
481.59	7866.54
481.77	7805.69
481.95	7936.76
482.13	7845.48
482.31	7896.97
482.49	7946.12
482.67	8187.19
482.85	8262.09
483.03	8198.90
483.21	8339.33
483.39	8327.63
483.57	8425.93
483.74	8500.83
483.92	8329.97
484.10	8484.44
484.28	8875.31
484.46	9121.07
484.64	8926.80
484.82	8826.16
485.00	8901.06
485.18	9200.65
485.35	9121.07
485.53	9343.42
485.71	9057.87
485.89	9507.26
486.07	9420.66
486.25	9284.91
486.43	9394.91
486.61	9348.10
486.78	9554.07
486.96	9762.37
487.14	9994.09
487.32	9769.40
487.50	9788.12
487.68	10038.56
487.85	10284.31
488.03	10438.79
488.21	10377.94
488.39	10244.52
488.57	10539.43
488.75	10384.96
488.92	10544.11
489.10	10651.78
489.28	10574.54
489.46	10799.23
489.64	10768.80
489.81	11028.60
489.99	11084.78
490.17	10911.58
490.35	11176.06
490.53	11286.06
490.70	11239.25
490.88	11470.97
491.06	11520.12
491.24	11349.26
491.41	11548.20
491.59	11529.48
491.77	11857.15
491.95	11995.25
492.13	12072.48
492.30	11999.93
492.48	11875.88
492.66	12107.59
492.84	11850.13
493.01	12369.73
493.19	12573.36
493.37	12596.76
493.54	12372.07
493.72	12535.91
493.90	12601.44
494.08	12753.58
494.25	12681.02
494.43	12898.69
494.61	12952.52
494.79	13273.18
494.96	12975.93
495.14	13149.13
495.32	13308.29
495.49	13275.52
495.67	13441.70
495.85	13593.83
496.02	13598.51
496.20	13413.61
496.38	13745.97
496.55	13582.13
496.73	14083.00
496.91	13774.05
497.09	14129.81
497.26	13987.04
497.44	13764.69
497.62	13987.04
497.79	14387.27
497.97	14059.60
498.14	14403.66
498.32	14523.02
498.50	14436.42
498.67	14668.14
498.85	14427.06
499.03	14487.92
499.20	14628.35
499.38	14904.53
499.56	14986.45
499.73	14918.57
499.91	15014.54
500.08	14881.13
500.26	14876.44
500.44	15110.50
500.61	15098.80
500.79	15145.61
500.97	15351.57
501.14	15389.02
501.32	15545.84
501.49	15545.84
501.67	15297.74
501.84	15447.54
502.02	15658.18
502.20	15646.48
502.37	15721.38
502.55	15754.15
502.72	15899.26
502.90	15658.18
503.07	15927.35
503.25	16020.97
503.43	15981.18
503.60	16252.68
503.78	16105.23
503.95	16350.98
504.13	16376.73
504.30	16343.96
504.48	16350.98
504.65	16287.79
504.83	16587.38
505.01	16484.39
505.18	16297.15
505.36	16826.11
505.53	16507.80
505.71	16475.03
505.88	16908.03
506.06	16643.55
506.23	17046.12
506.41	16889.31
506.58	17067.19
506.76	16950.16
506.93	17083.57
507.11	16980.59
507.28	17207.62
507.46	17193.58
507.63	17469.76
507.81	17586.79
507.98	17032.08
508.16	17259.11
508.33	17575.08
508.50	17488.48
508.68	17406.56
508.85	17633.60
509.03	17752.96
509.20	17647.64
509.38	17912.12
509.55	17977.65
509.73	17984.68
509.90	17678.07
510.08	18183.62
510.25	17675.73
510.42	18223.41
510.60	18146.17
510.77	18328.74
510.95	18728.97
511.12	18422.36
511.30	18265.54
511.47	18242.14
511.64	18441.08
511.82	18665.77
511.99	18656.41
512.17	19037.92
512.34	18614.28
512.51	18855.36
512.69	18597.90
512.86	18785.14
513.04	19122.18
513.21	19185.37
513.38	19157.28
513.56	19293.04
513.73	19386.66
513.90	19255.59
514.08	19171.33
514.25	19187.71
514.43	19236.86
514.60	19323.46
514.77	19618.37
514.95	19168.99
515.12	19737.74
515.29	19360.91
515.47	19452.19
515.64	19758.80
515.81	19609.01
515.99	19924.98
516.16	19693.27
516.33	19885.19
516.51	19936.68
516.68	19896.89
516.85	19702.63
517.03	20025.62
517.20	20023.28
517.37	20074.77
517.54	20042.01
517.72	19967.11
517.89	19896.89
518.06	20250.32
518.24	20292.44
518.41	20084.14
518.58	20554.58
518.75	20280.74
518.93	20372.02
519.10	20430.54
519.27	20404.79
519.45	20212.87
519.62	20613.10
519.79	20458.62
519.96	20472.67
520.14	20587.35
520.31	20465.64
520.48	20711.40
520.65	20561.61
520.83	20755.87
521.00	21069.50
521.17	20938.43
521.34	21252.06
521.52	21083.55
521.69	21156.10
521.86	21500.16
522.03	21132.70
522.20	21303.56
522.38	21348.03
522.55	21324.62
522.72	21247.38
522.89	21027.37
523.07	21546.97
523.24	21390.16
523.41	21465.05
523.58	21575.06
523.75	21818.47
523.92	21504.84
524.10	21598.46
524.27	21497.82
524.44	21874.65
524.61	22164.87
524.78	21853.58
524.96	21799.75
525.13	21467.39
525.30	22141.47
525.47	22115.72
525.64	21830.18
525.81	22230.41
525.98	22333.39
526.16	22192.96
526.33	22129.77
526.50	22551.06
526.67	22132.11
526.84	22391.91
527.01	22445.74
527.18	22412.97
527.36	22181.26
527.53	22574.47
527.70	22806.18
527.87	22944.27
528.04	22649.36
528.21	22656.39
528.38	22490.21
528.55	22810.86
528.72	22934.91
528.89	22986.40
529.07	22965.34
529.24	22761.71
529.41	22960.66
529.58	23012.15
529.75	22719.58
529.92	22967.68
530.09	22831.93
530.26	23707.29
530.43	23356.21
530.60	23159.60
530.77	23250.88
530.94	23267.27
531.11	23140.88
531.28	23304.71
531.46	23068.32
531.63	23293.01
531.80	23681.54
531.97	23681.54
532.14	23527.06
532.31	23391.31
532.48	23653.45
532.65	23623.03
532.82	23400.68
532.99	23924.96
533.16	23475.57
533.33	23508.34
533.50	23990.49
533.67	23997.51
533.84	23756.44
534.01	23817.29
534.18	23735.37
534.35	24030.28
534.52	24189.44
534.69	23934.32
534.86	24208.16
535.03	24077.09
535.20	24184.76
535.37	24449.24
535.54	24187.10
535.71	24074.75
535.88	24170.71
536.05	24093.47
536.22	24489.03
536.38	24575.62
536.55	24542.86
536.72	24512.43
536.89	24329.87
537.06	24400.08
537.23	24397.74
537.40	24486.68
537.57	24404.77
537.74	24313.48
537.91	24858.83
538.08	24725.42
538.25	24400.08
538.42	24786.27
538.59	24980.54
538.75	24430.51
538.92	25032.03
539.09	24783.93
539.26	24758.19
539.43	25055.43
539.60	25216.93
539.77	25008.62
539.94	24680.95
540.11	24849.47
540.28	24854.15
540.44	24966.49
540.61	24652.86
540.78	25170.12
540.95	25039.05
541.12	25116.29
541.29	25200.55
541.46	25160.76
541.62	24933.73
541.79	25261.40
541.96	24863.51
542.13	25188.85
542.30	25268.42
542.47	25172.46
542.63	25654.61
542.80	25551.63
542.97	26139.10
543.14	25982.29
543.31	25514.18
543.48	25841.85
543.64	26174.21
543.81	26281.88
543.98	26197.62
544.15	26015.05
544.32	25930.80
544.48	26188.25
544.65	26162.51
544.82	26244.43
544.99	25874.62
545.16	25818.45
545.32	25893.35
545.49	26391.88
545.66	26038.46
545.83	26480.82
546.00	26700.83
546.16	26146.12
546.33	26047.82
546.50	25970.58
546.67	26595.51
546.83	26162.51
547.00	26143.78
547.17	26253.79
547.34	26609.55
547.50	26438.69
547.67	26560.40
547.84	26239.75
548.00	26319.32
548.17	26434.01
548.34	26288.90
548.51	26852.97
548.67	26513.59
548.84	26696.15
549.01	26693.81
549.18	26391.88
549.34	26429.33
549.51	26703.17
549.68	26920.84
549.84	26754.66
550.01	26799.13
550.18	26883.39
550.34	26761.69
550.51	26703.17
550.68	27065.96
550.84	26813.18
551.01	27058.93
551.18	26696.15
551.34	26639.98
551.51	26712.53
551.68	26948.93
551.84	27077.66
552.01	27138.51
552.18	27185.32
552.34	26822.54
552.51	27248.52
552.68	27026.17
552.84	27091.70
553.01	27339.80
553.18	27037.87
553.34	27225.11
553.51	26962.97
553.67	27248.52
553.84	27288.31
554.01	27583.21
554.17	27615.98
554.34	27328.10
554.51	27281.28
554.67	27644.07
554.84	27527.04
555.00	27449.80
555.17	27328.10
555.33	27594.92
555.50	27878.12
555.67	27330.44
555.83	27543.42
556.00	27763.43
556.16	28074.73
556.33	27391.29
556.50	27718.96
556.66	27889.82
556.83	27721.30
556.99	27819.61
557.16	28025.57
557.32	27702.58
557.49	27798.54
557.65	27456.82
557.82	27522.36
557.98	27695.56
558.15	27681.52
558.32	27639.39
558.48	28002.17
558.65	27852.38
558.81	27786.84
558.98	27857.06
559.14	27866.42
559.31	27950.68
559.47	27899.19
559.64	28023.23
559.80	27882.80
559.97	27892.16
560.13	27969.40
560.30	27894.50
560.46	28311.12
560.63	28077.07
560.79	27873.44
560.96	28194.09
561.12	28261.97
561.29	28170.69
561.45	28105.15
561.61	28348.57
561.78	28060.68
561.94	28074.73
562.11	28133.24
562.27	27983.44
562.44	28151.96
562.60	28273.67
562.77	28287.71
562.93	28177.71
563.10	28533.47
563.26	27950.68
563.42	28566.24
563.59	28187.07
563.75	28360.27
563.92	28404.74
564.08	28386.02
564.24	28540.49
564.41	28374.31
564.57	28091.11
564.74	28428.15
564.90	28095.79
565.07	28531.13
565.23	28507.72
565.39	28130.90
565.56	28582.62
565.72	28308.78
565.88	28163.67
566.05	28584.96
566.21	28655.18
566.38	28287.71
566.54	28327.50
566.70	28472.62
566.87	28699.65
567.03	28868.17
567.19	28863.49
567.36	28858.81
567.52	28500.70
567.68	28568.58
567.85	28350.91
568.01	28781.57
568.17	28102.81
568.34	28896.25
568.50	28568.58
568.66	28510.07
568.83	28954.77
568.99	28414.10
569.15	28713.69
569.32	28505.38
569.48	28465.60
569.64	28383.68
569.81	28308.78
569.97	28383.68
570.13	28669.22
570.30	28685.61
570.46	28999.24
570.62	28751.14
570.78	28425.81
570.95	28783.91
571.11	28720.71
571.27	28238.56
571.43	28905.62
571.60	28914.98
571.76	28926.68
571.92	28783.91
572.09	29329.25
572.25	28765.18
572.41	28783.91
572.57	28786.25
572.74	28961.79
572.90	28730.08
573.06	28980.51
573.22	28650.50
573.38	28980.51
573.55	28779.23
573.71	29219.25
573.87	29132.65
574.03	28720.71
574.20	29109.24
574.36	28863.49
574.52	28957.11
574.68	28898.59
574.84	28734.76
575.01	28929.02
575.17	29111.58
575.33	28992.22
575.49	28964.13
575.65	28758.16
575.82	29329.25
575.98	28552.20
576.14	28765.18
576.30	28903.28
576.46	28797.95
576.62	28521.77
576.79	28767.52
576.95	28774.55
577.11	29352.66
577.27	29350.32
577.43	29399.47
577.59	29109.24
577.75	29095.20
577.92	29057.75
578.08	29088.18
578.24	28804.97
578.40	29074.13
578.56	28833.06
578.72	29139.67
578.88	29490.75
579.04	29359.68
579.21	29076.48
579.37	28975.83
579.53	29095.20
579.69	28870.51
579.85	28961.79
580.01	29474.37
580.17	28634.11
580.33	29146.69
580.49	28989.88
580.65	29425.22
580.82	29420.53
580.98	28985.19
581.14	29067.11
581.30	29509.47
581.46	29207.55
581.62	29113.92
581.78	28783.91
581.94	29202.86
582.10	29242.65
582.26	29069.45
582.42	28971.15
582.58	29633.52
582.74	29041.37
582.90	29303.51
583.06	29291.80
583.22	28912.64
583.38	29223.93
583.54	29195.84
583.70	28959.45
583.86	29247.33
584.02	28975.83
584.18	29095.20
584.34	29600.76
584.50	29551.60
584.66	29289.46
584.82	29156.05
584.98	28882.21
585.14	29261.38
585.30	29303.51
585.46	29275.42
585.62	29347.98
585.78	29160.73
585.94	29310.53
586.10	29392.45
586.26	29439.26
586.42	29092.86
586.58	28978.17
586.74	28926.68
586.90	29345.64
587.06	29212.23
587.22	29200.52
587.38	29336.27
587.54	29504.79
587.70	29214.57
587.86	29455.64
588.02	29530.54
588.18	29523.52
588.34	29736.51
588.49	29322.23
588.65	29331.59
588.81	28835.40
588.97	29371.38
589.13	29113.92
589.29	29296.49
589.45	29692.04
589.61	29357.34
589.77	29642.88
589.93	29408.83
590.08	29876.94
590.24	29930.77
590.40	29694.38
590.56	29748.21
590.72	29041.37
590.88	29123.29
591.04	29345.64
591.20	29411.17
591.35	29848.85
591.51	29713.10
591.67	29792.68
591.83	29851.19
591.99	29773.95
592.15	29614.80
592.31	29490.75
592.46	29111.58
592.62	29326.91
592.78	29537.56
592.94	29216.91
593.10	29530.54
593.26	29457.98
593.41	29537.56
593.57	29535.22
593.73	29872.26
593.89	29771.61
594.05	29635.86
594.20	29242.65
594.36	29617.14
594.52	29387.77
594.68	29659.27
594.84	29411.17
594.99	29694.38
595.15	29785.66
595.31	29834.81
595.47	29404.15
595.62	29937.79
595.78	29722.46
595.94	29284.78
596.10	29663.95
596.25	29500.11
596.41	29039.03
596.57	29670.97
596.73	29802.04
596.88	29624.16
597.04	29930.77
597.20	29996.31
597.36	29771.61
597.51	29813.74
597.67	29614.80
597.83	29804.38
597.99	29886.30
598.14	29593.73
598.30	29544.58
598.46	29624.16
598.61	29755.23
598.77	29397.13
598.93	29905.02
599.09	29720.12
599.24	30204.61
599.40	30005.67
599.56	30015.03
599.71	29930.77
599.87	30258.45
600.03	29715.44
600.18	29521.18
600.34	29736.51
600.50	29621.82
600.65	29535.22
600.81	30181.21
600.97	30099.29
601.12	30120.35
601.28	29954.18
601.44	29783.32
601.59	29841.83
601.75	29647.57
601.91	30066.52
602.06	29649.91
602.22	29404.15
602.37	29649.91
602.53	30085.25
602.69	29890.98
602.84	29811.40
603.00	29699.06
603.16	29640.54
603.31	29991.62
603.47	29523.52
603.62	29457.98
603.78	29895.66
603.94	29764.59
604.09	29560.97
604.25	29745.87
604.40	29570.33
604.56	29617.14
604.71	29895.66
604.87	29663.95
605.03	29778.64
605.18	29469.69
605.34	29729.48
605.49	29773.95
605.65	29724.80
605.80	29209.89
605.96	29376.06
606.12	29322.23
606.27	29596.07
606.43	29689.70
606.58	29546.92
606.74	29710.76
606.89	30110.99
607.05	29886.30
607.20	29804.38
607.36	29319.89
607.51	29577.35
607.67	29460.32
607.82	29640.54
607.98	29347.98
608.13	29209.89
608.29	29296.49
608.44	29680.33
608.60	29376.06
608.75	29542.24
608.91	29544.58
609.06	29488.41
609.22	29823.11
609.37	29429.90
609.53	29345.64
609.68	29605.44
609.84	29441.60
609.99	29205.20
610.15	29759.91
610.30	29699.06
610.46	29481.39
610.61	29324.57
610.76	29820.77
610.92	29418.19
611.07	29565.65
611.23	29518.84
611.38	29397.13
611.54	29617.14
611.69	29277.76
611.84	29275.42
612.00	28975.83
612.15	29146.69
612.31	29163.08
612.46	29200.52
612.62	29378.40
612.77	28985.19
612.92	29249.67
613.08	29015.62
613.23	29415.85
613.39	29097.54
613.54	29076.48
613.69	28858.81
613.85	28950.09
614.00	28739.44
614.15	29020.30
614.31	28933.70
614.46	29305.85
614.62	29144.35
614.77	29034.35
614.92	28929.02
615.08	29020.30
615.23	28940.72
615.38	29179.46
615.54	29032.00
615.69	29202.86
615.84	28884.55
616.00	29177.12
616.15	29181.80
616.30	28992.22
616.46	28790.93
616.61	28996.90
616.76	29212.23
616.92	29198.18
617.07	29017.96
617.22	28620.07
617.37	28734.76
617.53	29069.45
617.68	29062.43
617.83	28709.01
617.99	28549.85
618.14	28451.55
618.29	28545.17
618.45	29076.48
618.60	28650.50
618.75	29001.58
618.90	28460.91
619.06	28601.35
619.21	28526.45
619.36	28727.74
619.51	28589.64
619.67	28545.17
619.82	28034.94
619.97	28793.27
620.12	28437.51
620.28	28554.54
620.43	28819.02
620.58	28657.52
620.73	28914.98
620.89	28870.51
621.04	28622.41
621.19	28355.59
621.34	28699.65
621.49	28271.33
621.65	27906.21
621.80	28568.58
621.95	28044.30
622.10	28287.71
622.25	28268.99
622.41	28617.73
622.56	28353.25
622.71	28383.68
622.86	28287.71
623.01	28041.96
623.16	28336.87
623.32	28093.45
623.47	28259.63
623.62	28177.71
623.77	28072.39
623.92	27894.50
624.07	28002.17
624.23	28240.90
624.38	28079.41
624.53	28091.11
624.68	28751.14
624.83	28336.87
624.98	28521.77
625.13	28013.87
625.29	28039.62
625.44	28133.24
625.59	27702.58
625.74	28098.13
625.89	27967.06
626.04	28032.60
626.19	27707.26
626.34	28013.87
626.49	27749.39
626.65	27625.34
626.80	28390.70
626.95	28018.55
627.10	28077.07
627.25	28077.07
627.40	27887.48
627.55	27688.54
627.70	27445.12
627.85	27583.21
628.00	27585.55
628.15	27737.69
628.30	27585.55
628.45	27627.68
628.60	27473.21
628.76	27859.40
628.91	27494.27
629.06	28004.51
629.21	27583.21
629.36	27695.56
629.51	27896.85
629.66	27213.41
629.81	27173.62
629.96	27302.35
630.11	27644.07
630.26	27721.30
630.41	27000.42
630.56	27414.69
630.71	27740.03
630.86	27461.51
631.01	27246.18
631.16	27536.40
631.31	27276.60
631.46	27407.67
631.61	27304.69
631.76	27386.61
631.91	27028.51
632.06	27080.00
632.21	27246.18
632.36	27276.60
632.51	27168.94
632.66	27178.30
632.81	26876.37
632.96	27091.70
633.10	27454.48
633.25	27157.24
633.40	27391.29
633.55	27253.20
633.70	26700.83
633.85	26888.07
634.00	27239.15
634.15	26764.03
634.30	27112.77
634.45	26796.79
634.60	26930.20
634.75	27175.96
634.90	26946.59
635.05	26934.88
635.19	27243.84
635.34	27316.39
635.49	27164.26
635.64	27246.18
635.79	27218.09
635.94	27007.44
636.09	26895.10
636.24	26649.34
636.39	26558.06
636.53	27180.64
636.68	26672.74
636.83	26682.11
636.98	26782.75
637.13	26962.97
637.28	26829.56
637.43	26668.06
637.57	26937.23
637.72	26127.40
637.87	26967.65
638.02	26710.19
638.17	26735.94
638.32	26228.04
638.46	26471.46
638.61	26333.37
638.76	26321.66
638.91	26452.73
639.06	26216.34
639.20	26831.90
639.35	26359.11
639.50	26478.48
639.65	26583.80
639.80	26441.03
639.94	26478.48
640.09	26445.71
640.24	26487.84
640.39	26419.97
640.54	26106.34
640.68	26497.20
640.83	26291.24
640.98	25984.63
641.13	25832.49
641.27	26490.18
641.42	26188.25
641.57	26120.38
641.72	26155.49
641.86	25582.06
642.01	26340.39
642.16	26061.87
642.31	25818.45
642.45	25982.29
642.60	25872.28
642.75	25860.58
642.90	25642.91
643.04	25701.42
643.19	26293.58
643.34	25968.24
643.48	25869.94
643.63	25972.92
643.78	26075.91
643.93	25968.24
644.07	26321.66
644.22	26059.52
644.37	25881.64
644.51	25558.65
644.66	25605.46
644.81	25935.48
644.95	25516.52
645.10	25755.26
645.25	25441.62
645.39	25708.44
645.54	25523.54
645.69	25820.79
645.83	26082.93
645.98	25546.95
646.13	25663.97
646.27	25738.87
646.42	25467.37
646.57	25771.64
646.71	25465.03
646.86	25596.10
647.00	25612.48
647.15	25518.86
647.30	25965.90
647.44	25708.44
647.59	25715.47
647.74	25467.37
647.88	25277.79
648.03	25589.08
648.17	25640.57
648.32	25848.88
648.47	25277.79
648.61	25429.92
648.76	25666.31
648.90	25486.09
649.05	25453.33
649.20	25315.23
649.34	25397.15
649.49	25312.89
649.63	25390.13
649.78	25439.28
649.92	25228.63
650.07	25071.82
650.21	25027.35
650.36	25200.55
650.51	25104.59
650.65	25149.06
650.80	25177.14
650.94	25315.23
651.09	25116.29
651.23	25003.94
651.38	24959.47
651.52	25003.94
651.67	25289.49
651.81	25259.06
651.96	25050.75
652.10	25193.53
652.25	24910.32
652.39	25404.17
652.54	25017.99
652.68	24891.60
652.83	25106.93
652.97	25446.30
653.12	25057.78
653.26	25111.61
653.41	24767.55
653.55	24926.71
653.70	24788.61
653.84	24741.80
653.99	24723.08
654.13	24826.06
654.27	24680.95
654.42	24669.25
654.56	24861.17
654.71	25249.70
654.85	24732.44
655.00	24800.32
655.14	24669.25
655.29	24980.54
655.43	24683.29
655.57	24360.30
655.72	24622.44
655.86	24407.11
656.01	24657.54
656.15	24498.39
656.30	24489.03
656.44	24245.61
656.58	24505.41
656.73	24521.79
656.87	24760.53
657.01	24629.46
657.16	24477.32
657.30	24559.24
657.45	24355.61
657.59	24311.14
657.73	24203.48
657.88	24498.39
658.02	24624.78
658.16	24449.24
658.31	24386.04
658.45	24128.58
658.60	24006.87
658.74	24084.11
658.88	24320.51
659.03	24009.22
659.17	24163.69
659.31	24137.94
659.46	24041.98
659.60	23910.91
659.74	24348.59
659.89	24018.58
660.03	23971.77
660.17	23789.20
660.32	24056.03
660.46	23744.73
660.60	23775.16
660.74	23618.35
660.89	23812.61
661.03	23749.42
661.17	23723.67
661.32	23648.77
661.46	23751.76
661.60	23821.97
661.74	23873.46
661.89	23955.38
662.03	23754.10
662.17	23604.30
662.31	23580.90
662.46	23821.97
662.60	23545.79
662.74	23587.92
662.88	23180.67
663.03	23040.23
663.17	23384.29
663.31	22857.67
663.45	23178.33
663.60	22920.87
663.74	23037.89
663.88	23159.60
664.02	23096.41
664.17	23386.63
664.31	23297.69
664.45	23061.30
664.59	23117.47
664.73	23215.77
664.88	22932.57
665.02	22640.00
665.16	22761.71
665.30	23030.87
665.44	22595.53
665.59	22871.72
665.73	22654.05
665.87	22602.55
666.01	22834.27
666.15	22867.03
666.29	22721.92
666.44	22995.76
666.58	22483.19
666.72	22679.79
666.86	22775.75
667.00	22511.27
667.14	22651.70
667.28	22286.58
667.43	22415.31
667.57	22352.12
667.71	22537.02
667.85	22408.29
667.99	21970.61
668.13	22345.09
668.27	22190.62
668.41	22214.02
668.56	22040.82
668.70	22125.08
668.84	22202.32
668.98	22015.08
669.12	22148.49
669.26	22183.60
669.40	21940.18
669.54	21759.96
669.68	22022.10
669.82	22010.40
669.96	21553.99
670.10	21532.93
670.25	21762.30
670.39	21998.70
670.53	21542.29
670.67	21366.75
670.81	21647.61
670.95	21551.65
671.09	21755.28
671.23	21521.23
671.37	21593.78
671.51	21659.32
671.65	21598.46
671.79	21387.82
671.93	21373.77
672.07	21184.19
672.21	21420.58
672.35	21095.25
672.49	21226.32
672.63	20936.09
672.77	21036.74
672.91	20910.35
673.05	20830.77
673.19	20973.54
673.33	20685.65
673.47	21036.74
673.61	20774.60
673.75	20739.49
673.89	21034.39
674.03	20889.28
674.17	20987.58
674.31	20650.55
674.45	20664.59
674.59	20664.59
674.73	20652.89
674.87	20386.07
675.01	20645.87
675.15	20285.42
675.29	20386.07
675.43	20353.30
675.56	20404.79
675.70	20233.93
675.84	20308.83
675.98	19700.29
676.12	20173.08
676.26	20390.75
676.40	20049.03
676.54	20126.27
676.68	19971.79
676.82	19805.61
676.96	19892.21
677.10	20100.52
677.23	19585.60
677.37	19426.45
677.51	19674.54
677.65	19314.10
677.79	19531.77
677.93	19468.58
678.07	19379.64
678.21	19384.32
678.34	19356.23
678.48	19218.14
678.62	19213.46
678.76	19190.05
678.90	18827.27
679.04	19220.48
679.18	18799.18
679.31	18520.66
679.45	18668.11
679.59	18420.02
679.73	18787.48
679.87	18450.44
680.00	18263.20
680.14	18401.29
680.28	18319.37
680.42	18499.59
680.56	18457.46
680.70	18438.74
680.83	18562.79
680.97	18506.62
681.11	18506.62
681.25	18066.60
681.39	17919.14
681.52	18155.54
681.66	17844.24
681.80	18197.67
681.94	17837.22
682.07	17855.95
682.21	17928.50
682.35	17532.95
682.49	17528.27
682.62	17682.75
682.76	17680.41
682.90	17390.18
683.04	17308.26
683.17	17446.35
683.31	17280.18
683.45	17341.03
683.59	17303.58
683.72	17193.58
683.86	17216.98
684.00	17200.60
684.13	17256.77
684.27	17050.80
684.41	16847.18
684.55	16945.48
684.68	16968.88
684.82	16568.65
684.96	16879.94
685.09	16582.70
685.23	16659.93
685.37	16751.21
685.50	16603.76
685.64	16446.94
685.78	16503.12
685.91	16531.20
686.05	16439.92
686.19	16465.67
686.32	16435.24
686.46	16304.17
686.60	16140.33
686.73	16018.63
686.87	16116.93
687.01	16018.63
687.14	15793.94
687.28	15559.88
687.42	15585.63
687.55	15681.59
687.69	15723.72
687.82	15777.55
687.96	15730.74
688.10	15669.89
688.23	15606.69
688.37	15517.75
688.50	15456.90
688.64	15307.10
688.78	15449.88
688.91	15250.93
689.05	15201.78
689.18	14974.75
689.32	14862.40
689.46	14944.32
689.59	15075.39
689.73	15180.71
689.86	14738.35
690.00	14963.04
690.13	14946.66
690.27	14780.48
690.41	14682.18
690.54	14700.90
690.68	14743.03
690.81	14473.87
690.95	14569.83
691.08	14644.73
691.22	14499.62
691.35	14410.68
691.49	14466.85
691.62	14352.16
691.76	14466.85
691.89	14097.05
692.03	14038.53
692.16	14024.49
692.30	13973.00
692.43	13703.84
692.57	14108.75
692.70	13687.45
692.84	13654.69
692.97	13940.23
693.11	13467.44
693.24	13778.73
693.38	13657.03
693.51	13577.45
693.65	13502.55
693.78	13568.09
693.92	13715.54
694.05	13497.87
694.19	13160.83
694.32	13146.79
694.45	13165.51
694.59	13008.70
694.72	12936.14
694.86	12978.27
694.99	12767.62
695.13	13011.04
695.26	13092.96
695.39	12381.43
695.53	12643.57
695.66	12915.08
695.80	12699.75
695.93	12664.64
696.07	12573.36
696.20	12812.09
696.33	12594.42
696.47	12453.99
696.60	12482.08
696.73	12404.84
696.87	12355.69
697.00	12088.87
697.14	12098.23
697.27	11892.26
697.40	11845.45
697.54	12198.87
697.67	11934.39
697.80	12051.42
697.94	11712.04
698.07	11566.93
698.21	11407.77
698.34	11602.04
698.47	11864.18
698.61	11758.85
698.74	11644.17
698.87	11623.10
699.01	11569.27
699.14	11477.99
699.27	11300.11
699.40	11611.40
699.54	11449.90
699.67	11438.20
699.80	11229.89
699.94	11410.11
700.07	11365.64
700.20	10923.28
700.34	11049.67
700.47	11012.22
700.60	10909.24
700.73	11098.82
700.87	11061.37
701.00	11084.78
701.13	10677.52
701.26	11014.56
701.40	10902.22
701.53	10815.62
701.66	10595.61
701.79	10665.82
701.93	10527.73
702.06	10537.09
702.19	10459.85
702.32	10134.52
702.46	10118.14
702.59	10150.90
702.72	10083.03
702.85	10136.86
702.99	10043.24
703.12	10090.05
703.25	10003.45
703.38	9848.97
703.51	10026.86
703.65	9874.72
703.78	10106.43
703.91	9872.38
704.04	9921.53
704.17	10038.56
704.31	9736.63
704.44	9455.76
704.57	9706.20
704.70	9535.34
704.83	9689.82
704.96	9451.08
705.10	9549.39
705.23	9270.86
>>>>>End Processed Spectral Data<<<<<
