SpectraSuite Data File
++++++++++++++++++++++++++++++++++++
Date: Fri Oct 18 13:58:40 GMT-05:00 2013
User: bianchi
Dark Spectrum Present: No
Reference Spectrum Present: No
Number of Sampled Component Spectra: 1
Spectrometers: USB2+H05261
Integration Time (usec): 50000 (USB2+H05261)
Spectra Averaged: 1 (USB2+H05261)
Boxcar Smoothing: 0 (USB2+H05261)
Correct for Electrical Dark: No (USB2+H05261)
Strobe/Lamp Enabled: No (USB2+H05261)
Correct for Detector Non-linearity: No (USB2+H05261)
Correct for Stray Light: No (USB2+H05261)
Number of Pixels in Processed Spectrum: 2048
>>>>>Begin Processed Spectral Data<<<<<
365.73	0.00
365.92	0.00
366.12	0.00
366.32	0.00
366.52	0.00
366.72	0.00
366.91	0.00
367.11	0.00
367.31	0.00
367.51	0.00
367.70	0.00
367.90	0.00
368.10	0.00
368.30	0.00
368.49	0.00
368.69	0.00
368.89	0.00
369.09	0.00
369.28	0.00
369.48	0.00
369.68	0.00
369.87	0.00
370.07	0.00
370.27	0.00
370.47	0.00
370.66	128.73
370.86	117.03
371.06	168.52
371.25	93.62
371.45	74.90
371.65	128.73
371.84	161.50
372.04	191.92
372.24	163.84
372.44	145.11
372.63	163.84
372.83	201.29
373.03	191.92
373.22	208.31
373.42	222.35
373.62	234.05
373.81	203.63
374.01	283.20
374.21	231.71
374.40	180.22
374.60	311.29
374.79	257.46
374.99	196.60
375.19	231.71
375.38	248.10
375.58	297.25
375.78	266.82
375.97	191.92
376.17	227.03
376.37	184.90
376.56	203.63
376.76	238.73
376.95	175.54
377.15	292.57
377.35	252.78
377.54	273.84
377.74	236.39
377.93	259.80
378.13	163.84
378.33	283.20
378.52	327.68
378.72	248.10
378.91	379.17
379.11	311.29
379.31	278.52
379.50	299.59
379.70	236.39
379.89	210.65
380.09	330.02
380.28	304.27
380.48	327.68
380.68	292.57
380.87	318.31
381.07	311.29
381.26	374.49
381.46	322.99
381.65	278.52
381.85	280.86
382.04	273.84
382.24	358.10
382.43	299.59
382.63	369.80
382.83	276.18
383.02	341.72
383.22	393.21
383.41	262.14
383.61	402.57
383.80	400.23
384.00	334.70
384.19	416.62
384.39	348.74
384.58	402.57
384.78	360.44
384.97	362.78
385.17	397.89
385.36	416.62
385.56	430.66
385.75	404.91
385.95	428.32
386.14	369.80
386.34	386.19
386.53	444.70
386.72	465.77
386.92	423.64
387.11	390.87
387.31	418.96
387.50	447.04
387.70	411.93
387.89	433.00
388.09	505.56
388.28	442.36
388.48	435.34
388.67	449.38
388.86	442.36
389.06	503.22
389.25	475.13
389.45	437.68
389.64	512.58
389.84	507.90
390.03	526.62
390.22	526.62
390.42	503.22
390.61	463.43
390.81	409.59
391.00	507.90
391.19	514.92
391.39	552.37
391.58	491.51
391.78	524.28
391.97	507.90
392.16	524.28
392.36	559.39
392.55	493.85
392.75	566.41
392.94	458.74
393.13	550.03
393.33	531.30
393.52	571.09
393.71	486.83
393.91	575.77
394.10	561.73
394.29	580.45
394.49	571.09
394.68	653.01
394.88	592.16
395.07	613.22
395.26	695.14
395.46	624.92
395.65	697.48
395.84	617.90
396.04	643.65
396.23	660.03
396.42	573.43
396.62	631.94
396.81	653.01
397.00	629.60
397.19	589.82
397.39	526.62
397.58	603.86
397.77	653.01
397.97	664.71
398.16	734.93
398.35	699.82
398.55	681.10
398.74	657.69
398.93	676.41
399.12	716.20
399.32	709.18
399.51	674.07
399.70	732.59
399.90	800.46
400.09	697.48
400.28	763.01
400.47	760.67
400.67	727.91
400.86	805.14
401.05	777.06
401.24	812.17
401.44	751.31
401.63	765.36
401.82	882.38
402.01	908.13
402.21	833.23
402.40	816.85
402.59	866.00
402.78	924.51
402.97	809.83
403.17	844.93
403.36	772.38
403.55	805.14
403.74	908.13
403.93	779.40
404.13	1006.43
404.32	861.32
404.51	805.14
404.70	912.81
404.89	983.02
405.09	952.60
405.28	901.11
405.47	961.96
405.66	971.32
405.85	971.32
406.05	1029.84
406.24	950.26
406.43	959.62
406.62	1006.43
406.81	990.05
407.00	985.37
407.20	1008.77
407.39	1004.09
407.58	1062.60
407.77	938.55
407.96	1095.37
408.15	1027.50
408.34	1086.01
408.54	1046.22
408.73	1043.88
408.92	1107.07
409.11	1102.39
409.30	1149.20
409.49	1235.80
409.68	1245.16
409.87	1179.63
410.07	1071.97
410.26	1093.03
410.45	1151.54
410.64	1135.16
410.83	1261.55
411.02	1114.10
411.21	1268.57
411.40	1249.85
411.59	1198.35
411.78	1301.34
411.98	1373.89
412.17	1369.21
412.36	1287.29
412.55	1334.11
412.74	1474.54
412.93	1348.15
413.12	1294.32
413.31	1397.30
413.50	1369.21
413.69	1308.36
413.88	1439.43
414.07	1481.56
414.26	1383.26
414.45	1409.00
414.64	1476.88
414.83	1521.35
415.02	1472.20
415.22	1439.43
415.41	1521.35
415.60	1509.65
415.79	1565.82
415.98	1647.74
416.17	1579.86
416.36	1493.26
416.55	1521.35
416.74	1586.88
416.93	1607.95
417.12	1682.85
417.31	1668.80
417.50	1666.46
417.69	1685.19
417.88	1678.16
418.07	1736.68
418.26	1790.51
418.45	1750.72
418.64	1760.08
418.83	1818.60
419.02	1797.53
419.21	1919.24
419.39	1874.77
419.58	1853.70
419.77	1736.68
419.96	1858.39
420.15	1898.17
420.34	1863.07
420.53	1867.75
420.72	1975.41
420.91	1834.98
421.10	1863.07
421.29	1909.88
421.48	1837.32
421.67	1963.71
421.86	1970.73
422.05	1933.28
422.24	1970.73
422.43	1980.09
422.61	2019.88
422.80	1853.70
422.99	1966.05
423.18	1947.33
423.37	2069.03
423.56	2057.33
423.75	2026.90
423.94	1928.60
424.13	1937.96
424.32	1921.58
424.50	2050.31
424.69	1973.07
424.88	2069.03
425.07	1865.41
425.26	1914.56
425.45	1998.82
425.64	2008.18
425.83	2043.29
426.01	2003.50
426.20	2019.88
426.39	2052.65
426.58	2134.57
426.77	2040.95
426.96	2085.42
427.15	1996.48
427.33	2057.33
427.52	2211.81
427.71	2085.42
427.90	2139.25
428.09	2132.23
428.28	2193.08
428.46	2214.15
428.65	2153.29
428.84	2263.30
429.03	2349.90
429.22	2183.72
429.40	2228.19
429.59	2129.89
429.78	2141.59
429.97	2106.48
430.16	2324.15
430.34	2272.66
430.53	2324.15
430.72	2228.19
430.91	2293.72
431.10	2335.85
431.28	2193.08
431.47	2403.73
431.66	2438.84
431.85	2289.04
432.03	2518.42
432.22	2420.11
432.41	2441.18
432.60	2525.44
432.79	2523.10
432.97	2389.69
433.16	2478.63
433.35	2485.65
433.54	2483.31
433.72	2626.08
433.91	2420.11
434.10	2551.18
434.28	2574.59
434.47	2525.44
434.66	2590.97
434.85	2583.95
435.03	2562.89
435.22	2534.80
435.41	2544.16
435.59	2647.15
435.78	2621.40
435.97	2672.89
436.16	2724.38
436.34	2656.51
436.53	2654.17
436.72	2661.19
436.90	2640.12
437.09	2717.36
437.28	2658.85
437.46	2705.66
437.65	2754.81
437.84	2827.37
438.02	2754.81
438.21	2719.70
438.40	2799.28
438.58	2785.24
438.77	2775.88
438.96	2846.09
439.14	2930.35
439.33	2883.54
439.52	2869.50
439.70	3070.78
439.89	2986.52
440.08	3045.04
440.26	2991.20
440.45	3040.36
440.63	3080.14
440.82	3178.45
441.01	3038.02
441.19	3129.30
441.38	3009.93
441.57	3220.58
441.75	3344.63
441.94	3267.39
442.12	3133.98
442.31	3325.90
442.50	3318.88
442.68	3307.18
442.87	3353.99
443.05	3274.41
443.24	3503.78
443.43	3300.16
443.61	3428.88
443.80	3398.46
443.98	3323.56
444.17	3293.13
444.35	3517.83
444.54	3435.91
444.73	3435.91
444.91	3344.63
445.10	3529.53
445.28	3382.07
445.47	3318.88
445.65	3503.78
445.84	3463.99
446.02	3473.36
446.21	3428.88
446.39	3417.18
446.58	3412.50
446.77	3386.76
446.95	3375.05
447.14	3627.83
447.32	3492.08
447.51	3428.88
447.69	3515.48
447.88	3562.30
448.06	3449.95
448.25	3494.42
448.43	3431.23
448.62	3417.18
448.80	3435.91
448.99	3536.55
449.17	3566.98
449.36	3428.88
449.54	3627.83
449.73	3695.71
449.91	3712.09
450.10	3712.09
450.28	3583.36
450.46	3712.09
450.65	3712.09
450.83	3733.15
451.02	3676.98
451.20	3808.05
451.39	3719.11
451.57	3679.32
451.76	3740.18
451.94	3857.20
452.13	3889.97
452.31	3913.38
452.49	3833.80
452.68	3810.39
452.86	3871.25
453.05	3939.12
453.23	4065.51
453.42	3775.28
453.60	3866.56
453.78	3833.80
453.97	3911.04
454.15	3995.29
454.34	3803.37
454.52	3929.76
454.70	3960.19
454.89	3976.57
455.07	4037.42
455.26	4093.60
455.44	4030.40
455.62	4051.47
455.81	4077.21
455.99	4112.32
456.17	4065.51
456.36	4138.07
456.54	4140.41
456.73	4255.09
456.91	4280.84
457.09	4255.09
457.28	4404.89
457.46	4194.24
457.64	4432.97
457.83	4292.54
458.01	4311.27
458.19	4376.80
458.38	4374.46
458.56	4456.38
458.74	4564.04
458.93	4299.56
459.11	4421.27
459.29	4449.36
459.48	4498.51
459.66	4514.89
459.84	4582.77
460.03	4564.04
460.21	4442.34
460.39	4517.23
460.57	4395.53
460.76	4362.76
460.94	4592.13
461.12	4624.90
461.31	4657.67
461.49	4587.45
461.67	4573.41
461.85	4692.77
462.04	4631.92
462.22	4779.37
462.40	4676.39
462.59	4835.55
462.77	4674.05
462.95	4741.93
463.13	4725.54
463.32	4795.76
463.50	4952.57
463.68	4847.25
463.86	4887.04
464.05	4713.84
464.23	4868.31
464.41	4844.91
464.59	4713.84
464.78	4821.50
464.96	5022.79
465.14	4933.85
465.32	4917.47
465.50	4968.96
465.69	5083.64
465.87	5027.47
466.05	5060.24
466.23	5043.85
466.41	5191.31
466.60	5163.22
466.78	5128.11
466.96	5107.05
467.14	5195.99
467.32	5195.99
467.51	5043.85
467.69	5198.33
467.87	5238.12
468.05	5095.35
468.23	5095.35
468.41	5050.88
468.60	5074.28
468.78	5071.94
468.96	5174.92
469.14	5256.84
469.32	5273.23
469.50	5226.42
469.69	5254.50
469.87	5310.68
470.05	5401.96
470.23	5277.91
470.41	5497.92
470.59	5518.98
470.77	5406.64
470.95	5348.12
471.14	5474.51
471.32	5359.83
471.50	5675.80
471.68	5607.92
471.86	5738.99
472.04	5600.90
472.22	5659.42
472.40	5771.76
472.58	5741.33
472.77	5537.71
472.95	5771.76
473.13	5951.98
473.31	5748.36
473.49	5799.85
473.67	5811.55
473.85	6080.71
474.03	5982.41
474.21	5914.53
474.39	5996.45
474.57	6087.73
474.75	6221.14
474.93	6183.70
475.12	6097.10
475.30	6338.17
475.48	6216.46
475.66	6293.70
475.84	6174.33
476.02	6176.67
476.20	6125.18
476.38	6593.29
476.56	6548.82
476.74	6555.84
476.92	6506.69
477.10	6478.60
477.28	6593.29
477.46	6523.07
477.64	6789.89
477.82	6558.18
478.00	6970.12
478.18	6944.37
478.36	7016.93
478.54	7070.76
478.72	6946.71
478.90	7152.68
479.08	7220.55
479.26	7098.84
479.44	7155.02
479.62	7148.00
479.80	7194.81
479.98	7447.58
480.16	7349.28
480.34	7410.14
480.52	7686.32
480.70	7440.56
480.88	7426.52
481.06	7625.47
481.24	7658.23
481.41	7719.09
481.59	7896.97
481.77	7742.49
481.95	8156.77
482.13	7971.86
482.31	7901.65
482.49	8201.24
482.67	8311.24
482.85	8201.24
483.03	8496.14
483.21	8571.04
483.39	8631.90
483.57	8418.91
483.74	8585.08
483.92	8655.30
484.10	8730.20
484.28	8795.73
484.46	9039.15
484.64	9219.37
484.82	9022.77
485.00	9095.32
485.18	9467.47
485.35	9446.40
485.53	9376.19
485.71	9259.16
485.89	9664.07
486.07	9572.79
486.25	9509.60
486.43	9514.28
486.61	9488.53
486.78	9839.61
486.96	9944.94
487.14	9809.19
487.32	9874.72
487.50	10019.83
487.68	10148.56
487.85	10146.22
488.03	10305.38
488.21	10539.43
488.39	10558.16
488.57	10480.92
488.75	10621.35
488.92	10834.34
489.10	11000.52
489.28	11054.35
489.46	11154.99
489.64	10986.47
489.81	11192.44
489.99	11166.70
490.17	11192.44
490.35	11445.22
490.53	11241.59
490.70	11337.56
490.88	11440.54
491.06	11777.58
491.24	11854.81
491.41	11882.90
491.59	11899.28
491.77	11967.16
491.95	12030.35
492.13	12203.55
492.30	12311.22
492.48	11967.16
492.66	12116.95
492.84	12208.23
493.01	12552.29
493.19	12641.23
493.37	12695.07
493.54	12688.04
493.72	12493.78
493.90	12587.40
494.08	12842.52
494.25	13020.40
494.43	12973.59
494.61	13224.03
494.79	13083.59
494.96	13242.75
495.14	13242.75
495.32	13556.38
495.49	13837.25
495.67	13610.22
495.85	13652.34
496.02	13877.04
496.20	13792.78
496.38	13816.18
496.55	13844.27
496.73	14160.24
496.91	13956.61
497.09	14305.35
497.26	14143.86
497.44	14183.65
497.62	14288.97
497.79	14689.20
497.97	14464.51
498.14	14637.71
498.32	14684.52
498.50	14970.07
498.67	14857.72
498.85	14651.75
499.03	14869.42
499.20	14827.29
499.38	15075.39
499.56	15115.18
499.73	15138.58
499.91	15250.93
500.08	15358.60
500.26	14998.15
500.44	15250.93
500.61	15276.68
500.79	15580.95
500.97	15583.29
501.14	15953.09
501.32	15765.85
501.49	15807.98
501.67	15461.58
501.84	15714.36
502.02	15742.44
502.20	16046.71
502.37	16011.60
502.55	16088.84
502.72	16077.14
502.90	16332.26
503.07	16035.01
503.25	15925.00
503.43	16250.34
503.60	16397.79
503.78	16526.52
503.95	16578.01
504.13	16641.21
504.30	16121.61
504.48	16739.51
504.65	16400.13
504.83	16673.98
505.01	17046.12
505.18	16692.70
505.36	17039.10
505.53	17022.72
505.71	16779.30
505.88	17123.36
506.06	16933.78
506.23	16917.39
506.41	17228.68
506.58	17352.73
506.76	17394.86
506.93	17565.72
507.11	17362.09
507.28	17476.78
507.46	17329.33
507.63	17343.37
507.81	17722.54
507.98	17701.47
508.16	17607.85
508.33	17708.49
508.50	17792.75
508.68	17797.43
508.85	18132.13
509.03	18061.91
509.20	17879.35
509.38	18054.89
509.55	18139.15
509.73	18242.14
509.90	18415.34
510.08	18087.66
510.25	18258.52
510.42	18576.83
510.60	18794.50
510.77	18630.66
510.95	18544.06
511.12	18401.29
511.30	18363.84
511.47	18415.34
511.64	18555.77
511.82	18920.89
511.99	18862.38
512.17	18930.25
512.34	18773.44
512.51	19269.63
512.69	19119.84
512.86	19094.09
513.04	19477.94
513.21	19616.03
513.38	19374.95
513.56	19372.61
513.73	19353.89
513.90	19367.93
514.08	19400.70
514.25	19592.62
514.43	19538.79
514.60	19896.89
514.77	19662.84
514.95	19782.21
515.12	19728.38
515.29	19768.16
515.47	19620.71
515.64	19953.07
515.81	19868.81
515.99	19807.95
516.16	20236.27
516.33	20074.77
516.51	20264.36
516.68	20231.59
516.85	19957.75
517.03	20517.14
517.20	20093.50
517.37	20446.92
517.54	20395.43
517.72	20526.50
517.89	20166.06
518.06	20135.63
518.24	20554.58
518.41	20297.13
518.58	20472.67
518.75	20879.92
518.93	21132.70
519.10	21083.55
519.27	20896.30
519.45	20678.63
519.62	21130.36
519.79	20800.34
519.96	20744.17
520.14	21099.93
520.31	21055.46
520.48	21027.37
520.65	21036.74
520.83	21174.83
521.00	21296.53
521.17	21057.80
521.34	21249.72
521.52	21355.05
521.69	21352.71
521.86	21308.24
522.03	21888.69
522.20	21348.03
522.38	21820.81
522.55	21745.92
522.72	21577.40
522.89	21951.88
523.07	21834.86
523.24	21600.80
523.41	22286.58
523.58	21701.45
523.75	22160.19
523.92	21912.10
524.10	22008.06
524.27	22167.21
524.44	22412.97
524.61	22384.88
524.78	22647.02
524.96	22384.88
525.13	22417.65
525.30	22141.47
525.47	22501.91
525.64	22218.71
525.81	22384.88
525.98	22838.95
526.16	22771.07
526.33	22731.28
526.50	22803.84
526.67	22738.30
526.84	22586.17
527.01	22904.48
527.18	22808.52
527.36	22981.72
527.53	22904.48
527.70	23288.33
527.87	23206.41
528.04	23154.92
528.21	23094.07
528.38	23349.18
528.55	23021.51
528.72	23183.01
528.89	23318.76
529.07	23508.34
529.24	23054.28
529.41	23566.85
529.58	23077.68
529.75	23494.30
529.92	23241.52
530.09	23374.93
530.26	23295.35
530.43	23646.43
530.60	23220.45
530.77	23381.95
530.94	23852.40
531.11	23480.25
531.28	23487.28
531.46	23356.21
531.63	23634.73
531.80	24027.94
531.97	24020.92
532.14	24009.22
532.31	23611.32
532.48	23693.24
532.65	24056.03
532.82	23824.31
532.99	23920.28
533.16	23623.03
533.33	24313.48
533.50	24367.32
533.67	24121.56
533.84	23974.11
534.01	23960.06
534.18	24357.96
534.35	24449.24
534.52	24292.42
534.69	24617.75
534.86	24531.15
535.03	24301.78
535.20	24484.34
535.37	24844.79
535.54	24767.55
535.71	24432.85
535.88	24467.96
536.05	24444.56
536.22	24776.91
536.38	24748.82
536.55	24877.55
536.72	24961.81
536.89	24683.29
537.06	24685.63
537.23	25048.41
537.40	24809.68
537.57	24814.36
537.74	25010.96
537.91	25046.07
538.08	25092.88
538.25	24966.49
538.42	24947.77
538.59	25116.29
538.75	25135.01
538.92	25116.29
539.09	25331.62
539.26	25139.69
539.43	25525.88
539.60	25678.02
539.77	25331.62
539.94	25968.24
540.11	25036.71
540.28	25127.99
540.44	25427.58
540.61	25362.04
540.78	25532.90
540.95	25497.80
541.12	25488.43
541.29	25324.60
541.46	25914.41
541.62	25729.51
541.79	25762.28
541.96	25191.19
542.13	25797.38
542.30	25425.24
542.47	25905.05
542.63	25806.75
542.80	25818.45
542.97	26047.82
543.14	26099.31
543.31	25795.04
543.48	26160.17
543.64	26298.26
543.81	26267.83
543.98	26218.68
544.15	26221.02
544.32	26169.53
544.48	26471.46
544.65	26258.47
544.82	26214.00
544.99	26141.44
545.16	26286.56
545.32	26450.39
545.49	26506.57
545.66	26803.82
545.83	26810.84
546.00	26541.68
546.16	26569.76
546.33	26548.70
546.50	26382.52
546.67	26644.66
546.83	26511.25
547.00	26733.60
547.17	26471.46
547.34	26544.02
547.50	26590.83
547.67	26946.59
547.84	26656.36
548.00	27051.91
548.17	26923.18
548.34	26916.16
548.51	26852.97
548.67	27309.37
548.84	27019.14
549.01	26944.25
549.18	27112.77
549.34	26757.00
549.51	27105.74
549.68	27009.78
549.84	26913.82
550.01	27098.72
550.18	26951.27
550.34	27395.97
550.51	27587.89
550.68	27491.93
550.84	26948.93
551.01	27182.98
551.18	27185.32
551.34	26869.35
551.51	27229.79
551.68	27353.84
551.84	27407.67
552.01	27314.05
552.18	27538.74
552.34	27304.69
552.51	27683.86
552.68	27164.26
552.84	27503.64
553.01	27283.62
553.18	27648.75
553.34	27700.24
553.51	27885.14
553.67	27632.36
553.84	28175.37
554.01	27812.59
554.17	27936.63
554.34	27749.39
554.51	27887.48
554.67	27871.10
554.84	28397.72
555.00	27847.69
555.17	27707.26
555.33	28084.09
555.50	27924.93
555.67	28013.87
555.83	28180.05
556.00	27957.70
556.16	28034.94
556.33	28004.51
556.50	27864.08
556.66	28421.13
556.83	27953.02
556.99	28456.23
557.16	28063.02
557.32	28353.25
557.49	28535.81
557.65	28002.17
557.82	28322.82
557.98	28004.51
558.15	28381.34
558.32	28404.74
558.48	28329.84
558.65	28549.85
558.81	28489.00
558.98	28381.34
559.14	28444.53
559.31	28402.40
559.47	28538.15
559.64	28364.95
559.80	28762.84
559.97	28720.71
560.13	28694.97
560.30	28484.32
560.46	28397.72
560.63	28652.84
560.79	28397.72
560.96	28664.54
561.12	28582.62
561.29	28397.72
561.45	28444.53
561.61	28872.85
561.78	28648.16
561.94	28844.76
562.11	28914.98
562.27	28374.31
562.44	28706.67
562.60	28634.11
562.77	28570.92
562.93	28369.63
563.10	28776.89
563.26	28861.15
563.42	28608.37
563.59	28737.10
563.75	28886.89
563.92	28851.78
564.08	28865.83
564.24	28727.74
564.41	28561.56
564.57	28828.38
564.74	29015.62
564.90	29244.99
565.07	28943.06
565.23	28968.81
565.39	29142.01
565.56	29525.86
565.72	28716.03
565.88	29266.06
566.05	29237.97
566.21	29104.56
566.38	28797.95
566.54	29193.50
566.70	29401.81
566.87	29261.38
567.03	29165.42
567.19	29156.05
567.36	29191.16
567.52	29214.57
567.68	28938.38
567.85	28982.85
568.01	28872.85
568.17	28950.09
568.34	28861.15
568.50	29287.12
568.66	29247.33
568.83	29373.72
568.99	29109.24
569.15	29055.41
569.32	29326.91
569.48	29170.10
569.64	29525.86
569.81	29364.36
569.97	29165.42
570.13	29226.27
570.30	29179.46
570.46	29312.87
570.62	29017.96
570.78	29076.48
570.95	28912.64
571.11	28872.85
571.27	28886.89
571.43	29142.01
571.60	29408.83
571.76	29654.59
571.92	29055.41
572.09	29579.69
572.25	29486.07
572.41	29383.09
572.57	29727.14
572.74	29455.64
572.90	29315.21
573.06	29284.78
573.22	29511.81
573.38	29553.94
573.55	29252.02
573.71	29694.38
573.87	29280.10
574.03	29425.22
574.20	29584.37
574.36	28989.88
574.52	29111.58
574.68	29670.97
574.84	29474.37
575.01	29708.42
575.17	29422.87
575.33	29563.31
575.49	29586.71
575.65	29507.13
575.82	29802.04
575.98	29209.89
576.14	29575.01
576.30	29502.45
576.46	29319.89
576.62	29434.58
576.79	29685.01
576.95	29462.66
577.11	29795.02
577.27	29591.39
577.43	29560.97
577.59	29420.53
577.75	29465.00
577.92	29235.63
578.08	29677.99
578.24	29472.03
578.40	29607.78
578.56	30125.04
578.72	29741.19
578.88	29720.12
579.04	29825.45
579.21	29724.80
579.37	29809.06
579.53	29687.36
579.69	29876.94
579.85	29502.45
580.01	29797.36
580.17	29287.12
580.33	29694.38
580.49	29799.70
580.65	29839.49
580.82	30036.09
580.98	29621.82
581.14	29322.23
581.30	29902.68
581.46	29694.38
581.62	29968.22
581.78	29401.81
581.94	29523.52
582.10	29312.87
582.26	29977.58
582.42	29591.39
582.58	29745.87
582.74	29715.44
582.90	29525.86
583.06	29883.96
583.22	29453.30
583.38	29390.11
583.54	29902.68
583.70	29977.58
583.86	29694.38
584.02	29301.17
584.18	29481.39
584.34	29792.68
584.50	30040.78
584.66	29411.17
584.82	29118.60
584.98	29750.55
585.14	29446.28
585.30	29472.03
585.46	29535.22
585.62	29591.39
585.78	30064.18
585.94	29542.24
586.10	29734.17
586.26	29713.10
586.42	29893.32
586.58	30106.31
586.74	29439.26
586.90	29654.59
587.06	29656.93
587.22	29912.05
587.38	29572.67
587.54	30010.35
587.70	29984.60
587.86	29617.14
588.02	30054.82
588.18	29947.15
588.34	29778.64
588.49	29949.50
588.65	29584.37
588.81	29535.22
588.97	29586.71
589.13	29708.42
589.29	29926.09
589.45	29928.43
589.61	30026.73
589.77	30239.72
589.93	30073.54
590.08	30209.29
590.24	30333.34
590.40	30068.86
590.56	30312.28
590.72	30031.41
590.88	29820.77
591.04	29827.79
591.20	30181.21
591.35	30235.04
591.51	30066.52
591.67	30188.23
591.83	30408.24
591.99	30202.27
592.15	29993.97
592.31	30508.88
592.46	30199.93
592.62	30092.27
592.78	29661.61
592.94	29958.86
593.10	30204.61
593.26	30061.84
593.41	30010.35
593.57	29947.15
593.73	30253.76
593.89	30518.25
594.05	30382.49
594.20	29820.77
594.36	29919.07
594.52	29958.86
594.68	30424.62
594.84	29841.83
594.99	30110.99
595.15	30045.46
595.31	30127.38
595.47	30433.99
595.62	30459.73
595.78	30410.58
595.94	29982.26
596.10	30087.59
596.25	30321.64
596.41	30373.13
596.57	29771.61
596.73	30089.93
596.88	30078.22
597.04	30174.19
597.20	30419.94
597.36	30630.59
597.51	30508.88
597.67	30441.01
597.83	30267.81
597.99	30209.29
598.14	30122.69
598.30	30363.77
598.46	29986.94
598.61	30401.22
598.77	30206.95
598.93	30232.70
599.09	30410.58
599.24	30513.56
599.40	30389.52
599.56	30759.32
599.71	30389.52
599.87	30251.42
600.03	30338.02
600.18	30363.77
600.34	30242.06
600.50	30576.76
600.65	29710.76
600.81	30541.65
600.97	30920.82
601.12	30595.48
601.28	30560.37
601.44	30522.93
601.59	30494.84
601.75	30068.86
601.91	30675.06
602.06	30443.35
602.22	30349.73
602.37	30188.23
602.53	30298.23
602.69	30331.00
602.84	30522.93
603.00	30623.57
603.16	30672.72
603.31	30377.81
603.47	30295.89
603.62	30183.55
603.78	30471.43
603.94	29996.31
604.09	30005.67
604.25	30345.05
604.40	30235.04
604.56	30462.07
604.71	30714.85
604.87	30272.49
605.03	30422.28
605.18	30560.37
605.34	30141.42
605.49	30295.89
605.65	30513.56
605.80	29930.77
605.96	30455.05
606.12	29902.68
606.27	30342.70
606.43	30003.33
606.58	30115.67
606.74	30419.94
606.89	30199.93
607.05	30410.58
607.20	30792.09
607.36	30223.34
607.51	30113.33
607.67	30092.27
607.82	30228.02
607.98	30110.99
608.13	30452.71
608.29	30211.64
608.44	30052.48
608.60	29869.92
608.75	30717.19
608.91	30244.40
609.06	30239.72
609.22	30529.95
609.37	29816.08
609.53	29872.26
609.68	30188.23
609.84	29710.76
609.99	29977.58
610.15	30274.83
610.30	30143.76
610.46	29851.19
610.61	30342.70
610.76	30251.42
610.92	29682.67
611.07	30026.73
611.23	29572.67
611.38	29827.79
611.54	29638.20
611.69	29752.89
611.84	29769.27
612.00	29839.49
612.15	29460.32
612.31	30103.97
612.46	30120.35
612.62	29703.74
612.77	29537.56
612.92	29872.26
613.08	29696.72
613.23	29954.18
613.39	29362.02
613.54	29539.90
613.69	29436.92
613.85	29788.00
614.00	29731.83
614.15	29771.61
614.31	29741.19
614.46	29841.83
614.62	29612.46
614.77	29668.63
614.92	29783.32
615.08	29834.81
615.23	29776.30
615.38	29680.33
615.54	29486.07
615.69	29675.65
615.84	29558.63
616.00	29874.60
616.15	29275.42
616.30	29493.09
616.46	29785.66
616.61	29666.29
616.76	29720.12
616.92	29493.09
617.07	29511.81
617.22	29219.25
617.37	29280.10
617.53	29404.15
617.68	29277.76
617.83	29371.38
617.99	29336.27
618.14	29319.89
618.29	29355.00
618.45	29570.33
618.60	29472.03
618.75	29504.79
618.90	29472.03
619.06	28978.17
619.21	29525.86
619.36	29165.42
619.51	29165.42
619.67	29001.58
619.82	28811.99
619.97	29130.31
620.12	28964.13
620.28	28723.05
620.43	29156.05
620.58	29198.18
620.73	29392.45
620.89	29319.89
621.04	29710.76
621.19	29436.92
621.34	28898.59
621.49	28664.54
621.65	29333.93
621.80	28926.68
621.95	29067.11
622.10	29003.92
622.25	28957.11
622.41	29170.10
622.56	28723.05
622.71	29532.88
622.86	28954.77
623.01	29001.58
623.16	29118.60
623.32	28762.84
623.47	29165.42
623.62	29277.76
623.77	28994.56
623.92	29083.50
624.07	28828.38
624.23	28797.95
624.38	28718.37
624.53	28416.44
624.68	29001.58
624.83	28973.49
624.98	29008.60
625.13	28591.98
625.29	28814.34
625.44	28601.35
625.59	28313.46
625.74	28411.76
625.89	28290.06
626.04	28500.70
626.19	28596.67
626.34	28224.52
626.49	28093.45
626.65	28409.42
626.80	28566.24
626.95	28496.02
627.10	28781.57
627.25	28489.00
627.40	28236.22
627.55	28137.92
627.70	27960.04
627.85	28144.94
628.00	28177.71
628.15	28271.33
628.30	28070.04
628.45	28570.92
628.60	28091.11
628.76	28156.64
628.91	28343.89
629.06	28119.20
629.21	28044.30
629.36	28620.07
629.51	28081.75
629.66	27613.64
629.81	28180.05
629.96	28013.87
630.11	27791.52
630.26	27803.22
630.41	27641.73
630.56	27772.80
630.71	28116.86
630.86	27723.65
631.01	27758.75
631.16	27878.12
631.31	27660.45
631.46	27725.99
631.61	28308.78
631.76	28238.56
631.91	27508.32
632.06	28027.92
632.21	27339.80
632.36	27843.01
632.51	27398.31
632.66	27644.07
632.81	27765.78
632.96	27779.82
633.10	27433.42
633.25	27976.42
633.40	27456.82
633.55	27599.60
633.70	27655.77
633.85	27491.93
634.00	27496.61
634.15	27288.31
634.30	27531.72
634.45	27709.60
634.60	27374.91
634.75	27606.62
634.90	27412.35
635.05	27461.51
635.19	27367.88
635.34	28158.99
635.49	28056.00
635.64	27513.00
635.79	27487.25
635.94	27314.05
636.09	27339.80
636.24	27307.03
636.39	27042.55
636.53	27665.13
636.68	27190.00
636.83	27391.29
636.98	27335.12
637.13	27213.41
637.28	27332.78
637.43	27311.71
637.57	27491.93
637.72	27133.83
637.87	27201.71
638.02	27091.70
638.17	27129.15
638.32	26878.71
638.46	26986.38
638.61	27173.62
638.76	26794.45
638.91	26534.65
639.06	26944.25
639.20	26859.99
639.35	26939.57
639.50	27234.47
639.65	27274.26
639.80	26993.40
639.94	26998.08
640.09	27304.69
640.24	26817.86
640.39	26991.06
640.54	26689.13
640.68	26670.40
640.83	26874.03
640.98	26637.64
641.13	26309.96
641.27	27124.47
641.42	26679.77
641.57	26946.59
641.72	27105.74
641.86	26733.60
642.01	26485.50
642.16	26328.69
642.31	26370.82
642.45	26588.49
642.60	26436.35
642.75	26309.96
642.90	26328.69
643.04	26141.44
643.19	26494.86
643.34	26286.56
643.48	26333.37
643.63	26511.25
643.78	26356.77
643.93	26803.82
644.07	26520.61
644.22	26897.44
644.37	26574.44
644.51	26244.43
644.66	26230.38
644.81	26426.99
644.95	26089.95
645.10	26232.72
645.25	26637.64
645.39	26558.06
645.54	26412.95
645.69	25914.41
645.83	26305.28
645.98	26059.52
646.13	26436.35
646.27	26698.49
646.42	26010.37
646.57	26412.95
646.71	26246.77
646.86	26288.90
647.00	26305.28
647.15	25965.90
647.30	26043.14
647.44	25942.50
647.59	25958.88
647.74	25937.82
647.88	25921.43
648.03	26221.02
648.17	26148.46
648.32	26017.40
648.47	25977.61
648.61	25956.54
648.76	25972.92
648.90	26239.75
649.05	26225.70
649.20	25635.89
649.34	25642.91
649.49	25743.55
649.63	25771.64
649.78	25591.42
649.92	25795.04
650.07	25830.15
650.21	25893.35
650.36	25799.73
650.51	25528.22
650.65	25532.90
650.80	25654.61
650.94	25867.60
651.09	25593.76
651.23	25486.09
651.38	25551.63
651.52	25406.52
651.67	25827.81
651.81	25687.38
651.96	25539.93
652.10	25333.96
652.25	25888.67
652.39	25600.78
652.54	25427.58
652.68	25535.24
652.83	25500.14
652.97	25462.69
653.12	25919.09
653.26	25177.14
653.41	25647.59
653.55	25214.59
653.70	25385.45
653.84	25352.68
653.99	25420.56
654.13	25235.66
654.27	25113.95
654.42	25378.43
654.56	25385.45
654.71	25514.18
654.85	25055.43
655.00	25392.47
655.14	25174.80
655.29	24910.32
655.43	25273.10
655.57	24952.45
655.72	25233.32
655.86	25481.41
656.01	25139.69
656.15	24912.66
656.30	24786.27
656.44	25025.01
656.58	24776.91
656.73	24886.92
656.87	25062.46
657.01	25036.71
657.16	25006.28
657.30	25111.61
657.45	24903.30
657.59	25174.80
657.73	24769.89
657.88	25146.72
658.02	24751.17
658.16	24795.64
658.31	24610.73
658.45	24884.58
658.60	24397.74
658.74	24638.82
658.88	24734.78
659.03	24676.27
659.17	24486.68
659.31	24505.41
659.46	24318.17
659.60	24613.07
659.74	24498.39
659.89	24458.60
660.03	24545.20
660.17	24627.12
660.32	24561.58
660.46	24577.97
660.60	24395.40
660.74	24273.70
660.89	24362.64
661.03	24100.50
661.17	24496.05
661.32	24088.79
661.46	24613.07
661.60	24294.76
661.74	24465.62
661.89	24140.29
662.03	24112.20
662.17	24034.96
662.31	24444.56
662.46	23950.70
662.60	23948.36
662.74	23889.85
662.88	23672.18
663.03	23555.15
663.17	23889.85
663.31	23606.64
663.45	23681.54
663.60	23845.38
663.74	23660.48
663.88	23704.95
664.02	23674.52
664.17	23964.75
664.31	23623.03
664.45	23674.52
664.59	23349.18
664.73	23583.24
664.88	23613.66
665.02	23157.26
665.16	23665.16
665.30	23417.06
665.44	23377.27
665.59	23009.81
665.73	23288.33
665.87	23335.14
666.01	23578.56
666.15	23250.88
666.29	23166.62
666.44	22937.25
666.58	23136.20
666.72	23012.15
666.86	23421.74
667.00	22965.34
667.14	22892.78
667.28	23094.07
667.43	22590.85
667.57	22836.61
667.71	22719.58
667.85	22731.28
667.99	22841.29
668.13	22843.63
668.27	22457.44
668.41	23073.00
668.56	22401.27
668.70	22480.85
668.84	22869.37
668.98	22569.79
669.12	22799.16
669.26	22572.13
669.40	22499.57
669.54	22438.72
669.68	22522.98
669.82	22080.61
669.96	22148.49
670.10	22127.42
670.25	22291.26
670.39	22092.32
670.53	22443.40
670.67	21874.65
670.81	21881.67
670.95	22223.39
671.09	22307.65
671.23	21989.33
671.37	22146.15
671.51	22342.75
671.65	21949.54
671.79	22026.78
671.93	22113.38
672.07	21640.59
672.21	21853.58
672.35	21757.62
672.49	21781.03
672.63	21497.82
672.77	21750.60
672.91	21479.10
673.05	21352.71
673.19	21685.06
673.33	21586.76
673.47	21429.94
673.61	21429.94
673.75	21671.02
673.89	20884.60
674.03	21352.71
674.17	21172.49
674.31	21128.02
674.45	21371.43
674.59	21226.32
674.73	21198.23
674.87	20828.43
675.01	21010.99
675.15	20807.36
675.29	20624.80
675.43	20980.56
675.56	20786.30
675.70	20741.83
675.84	21165.46
675.98	20313.51
676.12	20568.63
676.26	20568.63
676.40	20451.60
676.54	20479.69
676.68	20671.61
676.82	20182.44
676.96	20215.21
677.10	20250.32
677.23	20020.94
677.37	20037.33
677.51	19550.49
677.65	20011.58
677.79	19782.21
677.93	19932.00
678.07	19791.57
678.21	19611.35
678.34	19545.81
678.48	19683.91
678.62	19749.44
678.76	19339.85
678.90	19300.06
679.04	19372.61
679.18	19360.91
679.31	18944.30
679.45	18991.11
679.59	19129.20
679.73	18937.27
679.87	18967.70
680.00	18661.09
680.14	18625.98
680.28	18707.90
680.42	18953.66
680.56	18906.85
680.70	18810.89
680.83	18822.59
680.97	18471.51
681.11	18785.14
681.25	18588.53
681.39	18508.96
681.52	18785.14
681.66	18200.01
681.80	18270.22
681.94	18244.48
682.07	18045.53
682.21	18174.26
682.35	18099.36
682.49	18125.11
682.62	17867.65
682.76	17834.88
682.90	17860.63
683.04	18087.66
683.17	17823.18
683.31	18017.44
683.45	18118.09
683.59	17694.45
683.72	17804.46
683.86	17727.22
684.00	17902.76
684.13	17249.75
684.27	17645.30
684.41	17518.91
684.55	16996.97
684.68	16954.84
684.82	17273.15
684.96	16950.16
685.09	16971.22
685.23	17041.44
685.37	17085.91
685.50	17029.74
685.64	16978.25
685.78	16798.02
685.91	16905.69
686.05	17013.35
686.19	16622.48
686.32	16643.55
686.46	16266.72
686.60	16489.07
686.73	16662.27
686.87	16182.46
687.01	16341.62
687.14	16470.35
687.28	16051.39
687.42	16020.97
687.55	15939.05
687.69	15981.18
687.82	15960.11
687.96	15932.03
688.10	15936.71
688.23	16063.10
688.37	15910.96
688.50	15829.04
688.64	15875.85
688.78	15754.15
688.91	15330.51
689.05	15609.03
689.18	15496.69
689.32	15169.01
689.46	15152.63
689.59	15197.10
689.73	15400.72
689.86	15307.10
690.00	14860.06
690.13	14972.41
690.27	15087.09
690.41	15023.90
690.54	15161.99
690.68	14939.64
690.81	14757.08
690.95	14743.03
691.08	14892.83
691.22	14878.79
691.35	14651.75
691.49	14796.87
691.62	14462.17
691.76	14831.97
691.89	14560.47
692.03	14197.69
692.16	14455.15
692.30	14298.33
692.43	14160.24
692.57	14057.26
692.70	14132.15
692.84	13930.87
692.97	13804.48
693.11	13973.00
693.24	13851.29
693.38	14094.71
693.51	13916.83
693.65	13851.29
693.78	13916.83
693.92	13989.38
694.05	13542.34
694.19	13502.55
694.32	13493.19
694.45	13516.59
694.59	13167.85
694.72	13418.29
694.86	13472.12
694.99	12961.89
695.13	13022.74
695.26	13132.75
695.39	13090.62
695.53	13055.51
695.66	13207.64
695.80	13111.68
695.93	13020.40
696.07	12926.78
696.20	12851.88
696.33	12908.05
696.47	12755.92
696.60	12606.13
696.73	12819.11
696.87	12559.31
697.00	12636.55
697.14	12437.61
697.27	12388.46
697.40	12372.07
697.54	12013.97
697.67	12198.87
697.80	12152.06
697.94	11978.86
698.07	12002.27
698.21	11936.73
698.34	11999.93
698.47	11927.37
698.61	12030.35
698.74	11901.62
698.87	11831.41
699.01	11927.37
699.14	11707.36
699.27	11726.08
699.40	11812.68
699.54	11803.32
699.67	11534.16
699.80	11583.31
699.94	11269.68
700.07	11302.45
700.20	11372.66
700.34	11225.21
700.47	11014.56
700.60	11091.80
700.73	11229.89
700.87	11274.36
701.00	11190.10
701.13	10850.72
701.26	11091.80
701.40	11171.38
701.53	11047.33
701.66	11110.52
701.79	10946.69
701.93	10841.36
702.06	10647.10
702.19	10623.69
702.32	10422.41
702.46	10403.68
702.59	10239.84
702.72	10427.09
702.85	10377.94
702.99	10485.60
703.12	10305.38
703.25	10267.93
703.38	10349.85
703.51	10188.35
703.65	10373.25
703.78	10148.56
703.91	10038.56
704.04	9947.28
704.17	9975.36
704.31	9994.09
704.44	9907.49
704.57	10146.22
704.70	9870.04
704.83	9734.29
704.96	9764.72
705.10	9460.45
705.23	9603.22
>>>>>End Processed Spectral Data<<<<<
