SpectraSuite Data File
++++++++++++++++++++++++++++++++++++
Date: Fri Oct 18 13:57:55 GMT-05:00 2013
User: bianchi
Dark Spectrum Present: No
Reference Spectrum Present: No
Number of Sampled Component Spectra: 1
Spectrometers: USB2+H05261
Integration Time (usec): 50000 (USB2+H05261)
Spectra Averaged: 1 (USB2+H05261)
Boxcar Smoothing: 0 (USB2+H05261)
Correct for Electrical Dark: No (USB2+H05261)
Strobe/Lamp Enabled: No (USB2+H05261)
Correct for Detector Non-linearity: No (USB2+H05261)
Correct for Stray Light: No (USB2+H05261)
Number of Pixels in Processed Spectrum: 2048
>>>>>Begin Processed Spectral Data<<<<<
365.73	0.00
365.92	0.00
366.12	0.00
366.32	0.00
366.52	0.00
366.72	0.00
366.91	0.00
367.11	0.00
367.31	0.00
367.51	0.00
367.70	0.00
367.90	0.00
368.10	0.00
368.30	0.00
368.49	0.00
368.69	0.00
368.89	0.00
369.09	0.00
369.28	0.00
369.48	0.00
369.68	0.00
369.87	0.00
370.07	0.00
370.27	0.00
370.47	0.00
370.66	79.58
370.86	110.01
371.06	100.64
371.25	126.39
371.45	135.75
371.65	142.77
371.84	74.90
372.04	187.24
372.24	152.13
372.44	180.22
372.63	180.22
372.83	306.61
373.03	257.46
373.22	180.22
373.42	217.67
373.62	262.14
373.81	276.18
374.01	297.25
374.21	220.01
374.40	273.84
374.60	245.76
374.79	208.31
374.99	255.12
375.19	184.90
375.38	222.35
375.58	264.48
375.78	257.46
375.97	234.05
376.17	301.93
376.37	217.67
376.56	353.42
376.76	283.20
376.95	294.91
377.15	224.69
377.35	337.04
377.54	301.93
377.74	367.46
377.93	332.36
378.13	283.20
378.33	301.93
378.52	372.15
378.72	318.31
378.91	315.97
379.11	271.50
379.31	292.57
379.50	173.20
379.70	287.89
379.89	287.89
380.09	332.36
380.28	287.89
380.48	320.65
380.68	374.49
380.87	278.52
381.07	330.02
381.26	337.04
381.46	266.82
381.65	355.76
381.85	332.36
382.04	337.04
382.24	381.51
382.43	294.91
382.63	390.87
382.83	287.89
383.02	421.30
383.22	290.23
383.41	322.99
383.61	365.12
383.80	388.53
384.00	360.44
384.19	376.83
384.39	292.57
384.58	393.21
384.78	400.23
384.97	386.19
385.17	411.93
385.36	365.12
385.56	351.08
385.75	381.51
385.95	390.87
386.14	433.00
386.34	402.57
386.53	390.87
386.72	428.32
386.92	442.36
387.11	362.78
387.31	517.26
387.50	463.43
387.70	519.60
387.89	451.72
388.09	461.09
388.28	451.72
388.48	440.02
388.67	447.04
388.86	470.45
389.06	507.90
389.25	540.66
389.45	491.51
389.64	505.56
389.84	456.40
390.03	484.49
390.22	475.13
390.42	491.51
390.61	510.24
390.81	547.69
391.00	589.82
391.19	561.73
391.39	442.36
391.58	507.90
391.78	507.90
391.97	491.51
392.16	552.37
392.36	559.39
392.55	493.85
392.75	482.15
392.94	524.28
393.13	589.82
393.33	550.03
393.52	564.07
393.71	575.77
393.91	531.30
394.10	610.88
394.29	641.31
394.49	566.41
394.68	636.63
394.88	676.41
395.07	615.56
395.26	585.13
395.46	676.41
395.65	636.63
395.84	681.10
396.04	713.86
396.23	730.25
396.42	692.80
396.62	699.82
396.81	737.27
397.00	643.65
397.19	669.39
397.39	624.92
397.58	709.18
397.77	692.80
397.97	711.52
398.16	833.23
398.35	706.84
398.55	667.05
398.74	699.82
398.93	798.12
399.12	821.53
399.32	807.48
399.51	828.55
399.70	795.78
399.90	779.40
400.09	784.08
400.28	823.87
400.47	667.05
400.67	786.42
400.86	779.40
401.05	903.45
401.24	774.72
401.44	800.46
401.63	898.77
401.82	866.00
402.01	884.72
402.21	870.68
402.40	854.30
402.59	880.04
402.78	842.59
402.97	868.34
403.17	922.17
403.36	805.14
403.55	887.06
403.74	940.90
403.93	985.37
404.13	973.66
404.32	851.96
404.51	931.53
404.70	915.15
404.89	940.90
405.09	1027.50
405.28	980.68
405.47	1011.11
405.66	1020.47
405.85	1078.99
406.05	1013.45
406.24	1029.84
406.43	997.07
406.62	1034.52
406.81	1071.97
407.00	1004.09
407.20	1053.24
407.39	976.00
407.58	1071.97
407.77	1062.60
407.96	1156.22
408.15	1057.92
408.34	1114.10
408.54	1221.76
408.73	1186.65
408.92	1055.58
409.11	1125.80
409.30	1158.57
409.49	1057.92
409.68	1170.27
409.87	1186.65
410.07	1261.55
410.26	1270.91
410.45	1184.31
410.64	1275.59
410.83	1320.06
411.02	1273.25
411.21	1228.78
411.40	1320.06
411.59	1303.68
411.78	1233.46
411.98	1273.25
412.17	1247.51
412.36	1352.83
412.55	1413.68
412.74	1294.32
412.93	1310.70
413.12	1371.55
413.31	1481.56
413.50	1364.53
413.69	1418.36
413.88	1338.79
414.07	1504.96
414.26	1465.18
414.45	1455.81
414.64	1451.13
414.83	1502.62
415.02	1526.03
415.22	1610.29
415.41	1647.74
415.60	1533.05
415.79	1671.14
415.98	1661.78
416.17	1598.59
416.36	1708.59
416.55	1624.33
416.74	1687.53
416.93	1647.74
417.12	1647.74
417.31	1774.13
417.50	1802.21
417.69	1788.17
417.88	1743.70
418.07	1755.40
418.26	1837.32
418.45	1809.23
418.64	1874.77
418.83	1902.86
419.02	1823.28
419.21	1987.11
419.39	1792.85
419.58	1743.70
419.77	1799.87
419.96	1881.79
420.15	1820.94
420.34	1937.96
420.53	1891.15
420.72	1877.11
420.91	1909.88
421.10	1909.88
421.29	1987.11
421.48	2019.88
421.67	2005.84
421.86	2024.56
422.05	2106.48
422.24	1994.14
422.43	1961.37
422.61	2024.56
422.80	2080.74
422.99	2001.16
423.18	2033.93
423.37	2059.67
423.56	2008.18
423.75	2090.10
423.94	2090.10
424.13	1961.37
424.32	2022.22
424.50	2064.35
424.69	2101.80
424.88	2101.80
425.07	1994.14
425.26	2062.01
425.45	2083.08
425.64	2108.82
425.83	2186.06
426.01	2225.85
426.20	2150.95
426.39	2172.02
426.58	2225.85
426.77	2108.82
426.96	2179.04
427.15	2085.42
427.33	2092.44
427.52	2207.13
427.71	2176.70
427.90	2134.57
428.09	2174.36
428.28	2282.02
428.46	2263.30
428.65	2256.28
428.84	2293.72
429.03	2260.96
429.22	2209.47
429.40	2321.81
429.59	2303.09
429.78	2221.17
429.97	2186.06
430.16	2352.24
430.34	2345.22
430.53	2389.69
430.72	2424.80
430.91	2361.60
431.10	2296.07
431.28	2401.39
431.47	2438.84
431.66	2466.92
431.85	2417.77
432.03	2361.60
432.22	2595.65
432.41	2438.84
432.60	2553.52
432.79	2487.99
432.97	2464.58
433.16	2565.23
433.35	2537.14
433.54	2558.21
433.72	2572.25
433.91	2572.25
434.10	2656.51
434.28	2588.63
434.47	2597.99
434.66	2593.31
434.85	2640.12
435.03	2726.72
435.22	2752.47
435.41	2740.77
435.59	2675.23
435.78	2747.79
435.97	2693.96
436.16	2675.23
436.34	2581.61
436.53	2612.04
436.72	2733.75
436.90	2799.28
437.09	2789.92
437.28	2813.32
437.46	2825.03
437.65	2775.88
437.84	2808.64
438.02	2796.94
438.21	2883.54
438.40	2808.64
438.58	3066.10
438.77	3047.38
438.96	2993.55
439.14	3016.95
439.33	3023.97
439.52	3262.71
439.70	3014.61
439.89	3023.97
440.08	3084.83
440.26	3105.89
440.45	3187.81
440.63	3234.62
440.82	3239.30
441.01	3206.53
441.19	3342.28
441.38	3220.58
441.57	3349.31
441.75	3295.47
441.94	3480.38
442.12	3328.24
442.31	3508.46
442.50	3407.82
442.68	3187.81
442.87	3379.73
443.05	3349.31
443.24	3468.67
443.43	3538.89
443.61	3431.23
443.80	3480.38
443.98	3431.23
444.17	3391.44
444.35	3634.85
444.54	3571.66
444.73	3538.89
444.91	3545.91
445.10	3536.55
445.28	3557.61
445.47	3566.98
445.65	3517.83
445.84	3520.17
446.02	3618.47
446.21	3506.12
446.39	3557.61
446.58	3641.87
446.77	3634.85
446.95	3527.19
447.14	3562.30
447.32	3592.72
447.51	3515.48
447.69	3550.59
447.88	3695.71
448.06	3770.60
448.25	3571.66
448.43	3613.79
448.62	3545.91
448.80	3709.75
448.99	3740.18
449.17	3721.45
449.36	3707.41
449.54	3700.39
449.73	3716.77
449.91	3822.09
450.10	3836.14
450.28	3950.82
450.46	3990.61
450.65	3925.08
450.83	3817.41
451.02	3861.88
451.20	3981.25
451.39	3941.46
451.57	3871.25
451.76	3763.58
451.94	3852.52
452.13	3964.87
452.31	3948.48
452.49	3868.91
452.68	3878.27
452.86	4128.70
453.05	4091.26
453.23	4030.40
453.42	4009.34
453.60	3971.89
453.78	3934.44
453.97	3918.06
454.15	4142.75
454.34	3934.44
454.52	4215.30
454.70	4168.49
454.89	4152.11
455.07	4133.39
455.26	4222.33
455.44	4203.60
455.62	4311.27
455.81	4170.83
455.99	4198.92
456.17	4241.05
456.36	4444.68
456.54	4365.10
456.73	4379.14
456.91	4327.65
457.09	4414.25
457.28	4606.17
457.46	4624.90
457.64	4540.64
457.83	4461.06
458.01	4409.57
458.19	4538.30
458.38	4428.29
458.56	4578.09
458.74	4552.34
458.93	4418.93
459.11	4599.15
459.29	4594.47
459.48	4713.84
459.66	4622.56
459.84	4730.22
460.03	4755.97
460.21	4685.75
460.39	4582.77
460.57	4648.30
460.76	4730.22
460.94	4704.48
461.12	4849.59
461.31	4643.62
461.49	4744.27
461.67	4812.14
461.85	4938.53
462.04	4830.87
462.22	5163.22
462.40	4858.95
462.59	4685.75
462.77	4931.51
462.95	4849.59
463.13	5085.98
463.32	4875.34
463.50	4936.19
463.68	4898.74
463.86	4961.94
464.05	4924.49
464.23	5048.54
464.41	5132.79
464.59	4997.04
464.78	5069.60
464.96	5018.11
465.14	5057.90
465.32	5074.28
465.50	5174.92
465.69	5158.54
465.87	5263.86
466.05	5144.50
466.23	5076.62
466.41	5270.89
466.60	5397.28
466.78	5163.22
466.96	5139.82
467.14	5149.18
467.32	5399.62
467.51	5284.93
467.69	5198.33
467.87	5352.81
468.05	5359.83
468.23	5336.42
468.41	5186.63
468.60	5399.62
468.78	5427.70
468.96	5348.12
469.14	5434.72
469.32	5521.32
469.50	5352.81
469.69	5460.47
469.87	5526.00
470.05	5692.18
470.23	5699.20
470.41	5556.43
470.59	5565.79
470.77	5451.11
470.95	5628.99
471.14	5720.27
471.32	5462.81
471.50	5888.79
471.68	5900.49
471.86	5907.51
472.04	5947.30
472.22	6033.90
472.40	5968.37
472.58	5736.65
472.77	5966.03
472.95	6017.52
473.13	6153.27
473.31	6033.90
473.49	5935.60
473.67	6202.42
473.85	6031.56
474.03	6223.48
474.21	6232.85
474.39	6221.14
474.57	6258.59
474.75	6209.44
474.93	6459.88
475.12	6279.66
475.30	6443.49
475.48	6417.75
475.66	6572.22
475.84	6558.18
476.02	6366.26
476.20	6647.12
476.38	6715.00
476.56	6726.70
476.74	6927.99
476.92	6829.68
477.10	6904.58
477.28	6904.58
477.46	6789.89
477.64	6927.99
477.82	6972.46
478.00	7265.02
478.18	7372.69
478.36	7393.75
478.54	7325.88
478.72	7368.01
478.90	7442.90
479.08	7550.57
479.26	7400.77
479.44	7353.96
479.62	7662.91
479.80	7555.25
479.98	7545.89
480.16	7730.79
480.34	7688.66
480.52	7819.73
480.70	7950.80
480.88	7873.56
481.06	7911.01
481.24	8046.76
481.41	7990.59
481.59	8346.35
481.77	8421.25
481.95	8280.82
482.13	8292.52
482.31	8491.46
482.49	8571.04
482.67	8589.77
482.85	8678.71
483.03	8690.41
483.21	8531.25
483.39	8865.95
483.57	8674.03
483.74	8805.10
483.92	8992.34
484.10	9184.26
484.28	9146.81
484.46	9343.42
484.64	9617.26
484.82	9303.63
485.00	9312.99
485.18	9476.83
485.35	9738.97
485.53	9626.62
485.71	9898.13
485.89	9961.32
486.07	9977.70
486.25	10171.97
486.43	9891.10
486.61	10190.69
486.78	10218.78
486.96	10401.34
487.14	10410.70
487.32	10518.37
487.50	10471.56
487.68	10602.63
487.85	10808.59
488.03	10874.13
488.21	10967.75
488.39	11087.12
488.57	11098.82
488.75	10942.00
488.92	11417.13
489.10	11293.08
489.28	11349.26
489.46	11510.75
489.64	11552.88
489.81	11419.47
489.99	11812.68
490.17	11569.27
490.35	11812.68
490.53	11889.92
490.70	11824.39
490.88	12098.23
491.06	12051.42
491.24	12318.24
491.41	12409.52
491.59	12334.62
491.77	12264.41
491.95	12608.47
492.13	12704.43
492.30	12746.56
492.48	12755.92
492.66	12681.02
492.84	12748.90
493.01	13109.34
493.19	13011.04
493.37	13467.44
493.54	13200.62
493.72	13219.35
493.90	13266.16
494.08	13219.35
494.25	13668.73
494.43	13612.56
494.61	13640.64
494.79	13511.91
494.96	13774.05
495.14	13942.57
495.32	14017.47
495.49	13984.70
495.67	14157.90
495.85	14239.82
496.02	14178.97
496.20	14581.54
496.38	14544.09
496.55	14724.31
496.73	14672.82
496.91	14691.54
497.09	14658.78
497.26	14888.15
497.44	14682.18
497.62	14764.10
497.79	14892.83
497.97	14911.55
498.14	15365.62
498.32	15176.03
498.50	15541.16
498.67	15674.57
498.85	15473.28
499.03	15211.14
499.20	15674.57
499.38	15700.31
499.56	15569.24
499.73	16039.69
499.91	15672.23
500.08	15997.56
500.26	15910.96
500.44	16308.85
500.61	16039.69
500.79	16072.46
500.97	16236.30
501.14	16599.08
501.32	16636.53
501.49	16393.11
501.67	16229.27
501.84	16243.32
502.02	16622.48
502.20	16552.27
502.37	16603.76
502.55	16896.33
502.72	16755.90
502.90	16882.28
503.07	16842.50
503.25	16690.36
503.43	16926.75
503.60	17123.36
503.78	17429.97
503.95	17200.60
504.13	16952.50
504.30	17268.47
504.48	17233.36
504.65	17432.31
504.83	17657.00
505.01	17797.43
505.18	17476.78
505.36	17745.94
505.53	17816.16
505.71	17687.43
505.88	17589.13
506.06	17949.57
506.23	17727.22
506.41	17614.87
506.58	18132.13
506.76	17928.50
506.93	18260.86
507.11	18019.78
507.28	18183.62
507.46	18366.18
507.63	18228.09
507.81	18661.09
507.98	18583.85
508.16	18286.61
508.33	18670.45
508.50	18717.26
508.68	18534.70
508.85	18895.14
509.03	18757.05
509.20	18771.10
509.38	19346.87
509.55	18810.89
509.73	19204.10
509.90	19138.56
510.08	18967.70
510.25	18941.96
510.42	19365.59
510.60	19480.28
510.77	19274.31
510.95	19534.11
511.12	19234.52
511.30	19264.95
511.47	19601.99
511.64	19644.12
511.82	19763.48
511.99	19894.55
512.17	19943.70
512.34	19974.13
512.51	20135.63
512.69	19962.43
512.86	19950.73
513.04	20074.77
513.21	20311.17
513.38	20456.28
513.56	20107.54
513.73	20175.42
513.90	20140.31
514.08	20175.42
514.25	20271.38
514.43	20538.20
514.60	20620.12
514.77	20456.28
514.95	20676.29
515.12	20652.89
515.29	20393.09
515.47	21036.74
515.64	20936.09
515.81	20652.89
515.99	20603.74
516.16	21231.00
516.33	20875.24
516.51	20835.45
516.68	20809.70
516.85	21036.74
517.03	21341.00
517.20	21427.60
517.37	21390.16
517.54	21046.10
517.72	21298.88
517.89	21266.11
518.06	21355.05
518.24	21584.42
518.41	21401.86
518.58	21158.44
518.75	21673.36
518.93	21902.73
519.10	21546.97
519.27	21975.29
519.45	21881.67
519.62	21703.79
519.79	22089.98
519.96	22038.48
520.14	22235.09
520.31	22038.48
520.48	22270.20
520.65	22010.40
520.83	22113.38
521.00	21996.35
521.17	21994.01
521.34	22394.25
521.52	22340.41
521.69	22328.71
521.86	22508.93
522.03	22895.12
522.20	22766.39
522.38	22616.60
522.55	22724.26
522.72	22551.06
522.89	22724.26
523.07	23070.66
523.24	23157.26
523.41	22986.40
523.58	22696.17
523.75	23054.28
523.92	22590.85
524.10	22939.59
524.27	23164.28
524.44	23517.70
524.61	23246.20
524.78	23140.88
524.96	23185.35
525.13	23419.40
525.30	23517.70
525.47	23323.44
525.64	23543.45
525.81	23644.09
525.98	24093.47
526.16	23772.82
526.33	23566.85
526.50	23662.82
526.67	23772.82
526.84	23847.72
527.01	23442.81
527.18	23679.20
527.36	23807.93
527.53	23836.02
527.70	24430.51
527.87	24149.65
528.04	23812.61
528.21	23948.36
528.38	24004.53
528.55	24095.82
528.72	23953.04
528.89	24439.87
529.07	24343.91
529.24	24374.34
529.41	24168.37
529.58	24456.26
529.75	24203.48
529.92	24306.46
530.09	24381.36
530.26	24395.40
530.43	24573.28
530.60	24790.95
530.77	24482.00
530.94	24744.14
531.11	24627.12
531.28	24833.08
531.46	24924.36
531.63	24907.98
531.80	24624.78
531.97	24702.01
532.14	24734.78
532.31	24849.47
532.48	25046.07
532.65	24917.34
532.82	25135.01
532.99	25032.03
533.16	25226.29
533.33	25406.52
533.50	25359.70
533.67	25490.77
533.84	25186.50
534.01	25324.60
534.18	25624.18
534.35	25504.82
534.52	25673.34
534.69	25769.30
534.86	25876.96
535.03	25537.59
535.20	25872.28
535.37	25270.76
535.54	25785.68
535.71	25839.51
535.88	25668.66
536.05	25626.53
536.22	25935.48
536.38	26183.57
536.55	25993.99
536.72	26075.91
536.89	25682.70
537.06	25825.47
537.23	26120.38
537.40	26176.55
537.57	25795.04
537.74	26309.96
537.91	26171.87
538.08	26101.65
538.25	26426.99
538.42	26146.12
538.59	26281.88
538.75	26331.03
538.92	26398.90
539.09	26473.80
539.26	26611.89
539.43	26635.30
539.60	26536.99
539.77	26298.26
539.94	26316.98
540.11	26691.47
540.28	26595.51
540.44	26625.93
540.61	26307.62
540.78	26155.49
540.95	26733.60
541.12	27061.27
541.29	26586.15
541.46	26719.56
541.62	26742.96
541.79	26906.80
541.96	26607.21
542.13	26508.91
542.30	27384.27
542.47	26801.47
542.63	27098.72
542.80	27283.62
542.97	27201.71
543.14	27552.79
543.31	27328.10
543.48	27412.35
543.64	27648.75
543.81	27946.00
543.98	27576.19
544.15	27651.09
544.32	27740.03
544.48	27695.56
544.65	27433.42
544.82	27363.20
544.99	26937.23
545.16	27590.24
545.32	27381.93
545.49	27585.55
545.66	27779.82
545.83	27784.50
546.00	28027.92
546.16	27828.97
546.33	27428.74
546.50	27431.08
546.67	27913.23
546.83	27747.05
547.00	28168.35
547.17	27793.86
547.34	28098.13
547.50	27964.72
547.67	28531.13
547.84	27765.78
548.00	28535.81
548.17	28166.01
548.34	28084.09
548.51	28306.44
548.67	28493.68
548.84	28334.53
549.01	28226.86
549.18	28629.43
549.34	28343.89
549.51	28210.48
549.68	28170.69
549.84	27971.74
550.01	28393.04
550.18	28601.35
550.34	28650.50
550.51	28844.76
550.68	28627.09
550.84	28318.14
551.01	28774.55
551.18	28477.30
551.34	28608.37
551.51	28465.60
551.68	28968.81
551.84	28566.24
552.01	28313.46
552.18	28828.38
552.34	28776.89
552.51	28985.19
552.68	28606.03
552.84	28615.39
553.01	28957.11
553.18	29099.88
553.34	29055.41
553.51	28924.34
553.67	29284.78
553.84	29095.20
554.01	29139.67
554.17	29383.09
554.34	29111.58
554.51	29134.99
554.67	29336.27
554.84	29469.69
555.00	29383.09
555.17	29268.40
555.33	29362.02
555.50	29287.12
555.67	29252.02
555.83	29291.80
556.00	28996.90
556.16	29359.68
556.33	29312.87
556.50	29273.08
556.66	29736.51
556.83	29689.70
556.99	29876.94
557.16	29757.57
557.32	29233.29
557.49	29649.91
557.65	29326.91
557.82	29694.38
557.98	29507.13
558.15	29872.26
558.32	29862.90
558.48	29455.64
558.65	29663.95
558.81	30026.73
558.98	29603.10
559.14	29567.99
559.31	29455.64
559.47	29858.21
559.64	29942.47
559.80	29708.42
559.97	29874.60
560.13	29745.87
560.30	29956.52
560.46	30389.52
560.63	29769.27
560.79	29790.34
560.96	29659.27
561.12	30026.73
561.29	29874.60
561.45	30082.91
561.61	30120.35
561.78	29965.88
561.94	30050.14
562.11	30110.99
562.27	30073.54
562.44	30089.93
562.60	30125.04
562.77	29820.77
562.93	30106.31
563.10	30162.48
563.26	30134.40
563.42	30548.67
563.59	30323.98
563.75	30298.23
563.92	30497.18
564.08	29982.26
564.24	30302.92
564.41	30115.67
564.57	30010.35
564.74	30073.54
564.90	30703.15
565.07	30735.92
565.23	30457.39
565.39	30384.83
565.56	30731.23
565.72	30176.53
565.88	30438.67
566.05	30216.32
566.21	30319.30
566.38	30665.70
566.54	30682.08
566.70	30834.22
566.87	30866.98
567.03	30642.29
567.19	30869.33
567.36	30789.75
567.52	30464.41
567.68	30525.27
567.85	30331.00
568.01	30431.65
568.17	30457.39
568.34	30593.14
568.50	30815.49
568.66	30450.37
568.83	30735.92
568.99	30813.15
569.15	30682.08
569.32	30312.28
569.48	30632.93
569.64	30581.44
569.81	30609.53
569.97	30492.50
570.13	30745.28
570.30	30836.56
570.46	30993.37
570.62	30675.06
570.78	30672.72
570.95	30452.71
571.11	30923.16
571.27	30614.21
571.43	30700.81
571.60	30377.81
571.76	30752.30
571.92	30616.55
572.09	30937.20
572.25	30972.31
572.41	30785.07
572.57	30572.08
572.74	30909.11
572.90	30918.48
573.06	30581.44
573.22	30602.50
573.38	30962.95
573.55	30965.29
573.71	31000.40
573.87	31201.68
574.03	31232.11
574.20	30991.03
574.36	30859.96
574.52	30485.48
574.68	30632.93
574.84	30939.54
575.01	31229.77
575.17	30986.35
575.33	31021.46
575.49	30958.27
575.65	31349.14
575.82	30782.73
575.98	30890.39
576.14	31234.45
576.30	31035.50
576.46	31194.66
576.62	30866.98
576.79	31028.48
576.95	30799.11
577.11	31087.00
577.27	31232.11
577.43	31583.19
577.59	31356.16
577.75	30976.99
577.92	31168.91
578.08	30721.87
578.24	30546.33
578.40	30892.73
578.56	31264.88
578.72	30895.07
578.88	31283.60
579.04	31466.16
579.21	30995.71
579.37	31325.73
579.53	31126.78
579.69	30593.14
579.85	31124.44
580.01	30991.03
580.17	31042.53
580.33	31124.44
580.49	31087.00
580.65	30869.33
580.82	31082.31
580.98	31227.43
581.14	31070.61
581.30	31337.43
581.46	30946.56
581.62	31229.77
581.78	30995.71
581.94	31098.70
582.10	31129.12
582.26	30941.88
582.42	31108.06
582.58	31229.77
582.74	31578.51
582.90	31344.45
583.06	31325.73
583.22	31246.15
583.38	31178.28
583.54	31077.63
583.70	31119.76
583.86	31318.71
584.02	31063.59
584.18	31161.89
584.34	30740.60
584.50	31470.84
584.66	31292.96
584.82	31267.22
584.98	31452.12
585.14	31164.23
585.30	31206.36
585.46	31000.40
585.62	30962.95
585.78	31175.94
585.94	31417.01
586.10	31775.11
586.26	31524.68
586.42	31344.45
586.58	32044.27
586.74	31665.11
586.90	30724.21
587.06	30820.17
587.22	31323.39
587.38	31016.78
587.54	31459.14
587.70	31527.02
587.86	31358.50
588.02	31353.82
588.18	31372.54
588.34	31894.48
588.49	31723.62
588.65	31379.56
588.81	30909.11
588.97	31234.45
589.13	31480.21
589.29	31372.54
589.45	31630.00
589.61	31501.27
589.77	31887.46
589.93	31728.30
590.08	31681.49
590.24	31737.66
590.40	31840.65
590.56	31412.33
590.72	31728.30
590.88	31466.16
591.04	31384.24
591.20	31426.37
591.35	31777.45
591.51	31908.52
591.67	31765.75
591.83	32238.54
591.99	31665.11
592.15	31676.81
592.31	31789.16
592.46	31660.43
592.62	31440.42
592.78	31234.45
592.94	31695.53
593.10	31405.31
593.26	31601.91
593.41	31889.80
593.57	31988.10
593.73	31782.13
593.89	32032.57
594.05	32133.21
594.20	31934.27
594.36	31906.18
594.52	31793.84
594.68	31779.79
594.84	31534.04
594.99	32058.32
595.15	31644.04
595.31	32208.11
595.47	31981.08
595.62	32044.27
595.78	31990.44
595.94	31974.06
596.10	31852.35
596.25	32055.98
596.41	31852.35
596.57	31264.88
596.73	31534.04
596.88	31845.33
597.04	32170.66
597.20	31765.75
597.36	31960.02
597.51	32055.98
597.67	31569.15
597.83	31765.75
597.99	31637.02
598.14	31709.58
598.30	31817.24
598.46	31714.26
598.61	32107.47
598.77	31885.12
598.93	31873.42
599.09	31796.18
599.24	32144.92
599.40	32077.04
599.56	31709.58
599.71	32074.70
599.87	31819.58
600.03	31838.31
600.18	31812.56
600.34	31892.14
600.50	31952.99
600.65	31847.67
600.81	31847.67
600.97	31665.11
601.12	31995.12
601.28	32044.27
601.44	31943.63
601.59	32357.91
601.75	31931.93
601.91	31756.39
602.06	31583.19
602.22	32463.23
602.37	32074.70
602.53	31475.52
602.69	32203.43
602.84	32224.50
603.00	32065.34
603.16	32374.29
603.31	31885.12
603.47	32451.53
603.62	32304.07
603.78	31864.05
603.94	31894.48
604.09	31627.66
604.25	31728.30
604.40	32058.32
604.56	31379.56
604.71	32126.19
604.87	31578.51
605.03	32275.99
605.18	31810.22
605.34	32058.32
605.49	31545.74
605.65	31999.80
605.80	31517.65
605.96	31786.82
606.12	31454.46
606.27	32055.98
606.43	31945.97
606.58	31999.80
606.74	32046.62
606.89	32182.37
607.05	31864.05
607.20	32201.09
607.36	31859.37
607.51	32048.96
607.67	31718.94
607.82	31470.84
607.98	31775.11
608.13	31931.93
608.29	31674.47
608.44	32173.00
608.60	31742.35
608.75	32191.73
608.91	31971.72
609.06	31246.15
609.22	32053.64
609.37	31756.39
609.53	31747.03
609.68	31531.70
609.84	31695.53
609.99	31662.77
610.15	31686.17
610.30	31346.79
610.46	31501.27
610.61	31566.81
610.76	31894.48
610.92	31702.56
611.07	32058.32
611.23	31562.12
611.38	31489.57
611.54	31330.41
611.69	31482.55
611.84	31585.53
612.00	31648.72
612.15	31543.40
612.31	32030.23
612.46	31676.81
612.62	31534.04
612.77	31765.75
612.92	31805.54
613.08	31552.76
613.23	31880.44
613.39	31424.03
613.54	31225.09
613.69	31414.67
613.85	31484.89
614.00	31742.35
614.15	31412.33
614.31	31466.16
614.46	31344.45
614.62	31119.76
614.77	31089.34
614.92	31440.42
615.08	31211.04
615.23	31489.57
615.38	31697.88
615.54	31297.64
615.69	31112.74
615.84	31157.21
616.00	31035.50
616.15	30815.49
616.30	31594.89
616.46	31101.04
616.61	31194.66
616.76	31433.39
616.92	31377.22
617.07	31082.31
617.22	31058.91
617.37	30803.79
617.53	31381.90
617.68	30934.86
617.83	30724.21
617.99	30869.33
618.14	30888.05
618.29	31211.04
618.45	31063.59
618.60	31278.92
618.75	31124.44
618.90	31175.94
619.06	31267.22
619.21	30789.75
619.36	31021.46
619.51	30712.51
619.67	30548.67
619.82	30562.72
619.97	30815.49
620.12	30490.16
620.28	30480.80
620.43	30906.77
620.58	31234.45
620.73	31075.29
620.89	31129.12
621.04	30745.28
621.19	30712.51
621.34	30682.08
621.49	30780.39
621.65	30457.39
621.80	30366.11
621.95	30398.88
622.10	30520.59
622.25	30546.33
622.41	30202.27
622.56	30431.65
622.71	30775.70
622.86	30497.18
623.01	30349.73
623.16	30267.81
623.32	30298.23
623.47	30368.45
623.62	30686.76
623.77	30401.22
623.92	30480.80
624.07	30457.39
624.23	30295.89
624.38	30527.61
624.53	30499.52
624.68	30532.29
624.83	30307.60
624.98	30534.63
625.13	29905.02
625.29	30438.67
625.44	30387.18
625.59	30096.95
625.74	29926.09
625.89	30422.28
626.04	30029.07
626.19	29968.22
626.34	30249.08
626.49	29851.19
626.65	29790.34
626.80	30183.55
626.95	30141.42
627.10	29970.56
627.25	30298.23
627.40	29795.02
627.55	29949.50
627.70	29867.58
627.85	29984.60
628.00	29858.21
628.15	29977.58
628.30	29699.06
628.45	29996.31
628.60	29584.37
628.76	29448.62
628.91	29986.94
629.06	29982.26
629.21	29745.87
629.36	29624.16
629.51	29607.78
629.66	29778.64
629.81	29755.23
629.96	29200.52
630.11	29427.56
630.26	29663.95
630.41	29685.01
630.56	29589.05
630.71	29598.41
630.86	29523.52
631.01	29369.04
631.16	29883.96
631.31	29832.47
631.46	29116.26
631.61	29668.63
631.76	29804.38
631.91	29305.85
632.06	29331.59
632.21	29387.77
632.36	29198.18
632.51	28804.97
632.66	29420.53
632.81	29202.86
632.96	29149.03
633.10	29312.87
633.25	29308.19
633.40	29462.66
633.55	29116.26
633.70	29378.40
633.85	29202.86
634.00	29092.86
634.15	28912.64
634.30	28957.11
634.45	28636.45
634.60	28868.17
634.75	28896.25
634.90	28734.76
635.05	29064.77
635.19	28980.51
635.34	29380.74
635.49	29530.54
635.64	29355.00
635.79	28830.72
635.94	28971.15
636.09	28896.25
636.24	28886.89
636.39	28669.22
636.53	28720.71
636.68	28877.53
636.83	28879.87
636.98	28982.85
637.13	29212.23
637.28	29085.84
637.43	28800.29
637.57	28886.89
637.72	28652.84
637.87	28620.07
638.02	28645.82
638.17	28828.38
638.32	28458.57
638.46	28521.77
638.61	28599.01
638.76	28280.69
638.91	28816.68
639.06	28563.90
639.20	28486.66
639.35	28748.80
639.50	28503.04
639.65	28645.82
639.80	28741.78
639.94	28540.49
640.09	28776.89
640.24	28788.59
640.39	28041.96
640.54	28175.37
640.68	28140.26
640.83	28245.58
640.98	27964.72
641.13	28201.11
641.27	28884.55
641.42	28168.35
641.57	28493.68
641.72	28484.32
641.86	28091.11
642.01	27896.85
642.16	28095.79
642.31	28119.20
642.45	27983.44
642.60	27938.97
642.75	27913.23
642.90	27861.74
643.04	27866.42
643.19	27700.24
643.34	28034.94
643.48	28053.66
643.63	28006.85
643.78	27985.79
643.93	27981.10
644.07	28294.74
644.22	28414.10
644.37	27969.40
644.51	28116.86
644.66	27941.32
644.81	27683.86
644.95	27772.80
645.10	27728.33
645.25	27744.71
645.39	27936.63
645.54	27857.06
645.69	27672.15
645.83	27821.95
645.98	27850.03
646.13	27969.40
646.27	27920.25
646.42	27821.95
646.57	27955.36
646.71	27817.27
646.86	27880.46
647.00	27534.06
647.15	27503.64
647.30	27463.85
647.44	27735.35
647.59	27585.55
647.74	27250.86
647.88	27360.86
648.03	27498.95
648.17	27615.98
648.32	27536.40
648.47	27580.87
648.61	27725.99
648.76	27826.63
648.90	27740.03
649.05	27566.83
649.20	27445.12
649.34	27538.74
649.49	27510.66
649.63	27105.74
649.78	27126.81
649.92	27187.66
650.07	27360.86
650.21	27063.61
650.36	27080.00
650.51	27325.75
650.65	27232.13
650.80	27094.04
650.94	27367.88
651.09	27192.34
651.23	27276.60
651.38	26796.79
651.52	27065.96
651.67	27126.81
651.81	27021.48
651.96	27213.41
652.10	26883.39
652.25	27218.09
652.39	27349.16
652.54	27480.23
652.68	27679.18
652.83	27227.45
652.97	27346.82
653.12	27033.19
653.26	27056.59
653.41	27285.97
653.55	26768.71
653.70	26787.43
653.84	26792.11
653.99	26967.65
654.13	26850.63
654.27	26944.25
654.42	26604.87
654.56	26696.15
654.71	26951.27
654.85	26845.94
655.00	26934.88
655.14	26658.70
655.29	26787.43
655.43	26742.96
655.57	27030.85
655.72	26401.24
655.86	26735.94
656.01	26455.08
656.15	26382.52
656.30	26555.72
656.44	26342.73
656.58	26305.28
656.73	26363.79
656.87	26876.37
657.01	26682.11
657.16	26719.56
657.30	26520.61
657.45	26073.57
657.59	26279.54
657.73	26242.09
657.88	26522.95
658.02	25935.48
658.16	26335.71
658.31	26363.79
658.45	26059.52
658.60	25862.92
658.74	25998.67
658.88	26015.05
659.03	25982.29
659.17	25914.41
659.31	26363.79
659.46	25949.52
659.60	26188.25
659.74	26089.95
659.89	26120.38
660.03	25830.15
660.17	26141.44
660.32	25408.86
660.46	25785.68
660.60	25928.45
660.74	25476.73
660.89	26066.55
661.03	25633.55
661.17	25797.38
661.32	25951.86
661.46	25898.03
661.60	25790.36
661.74	25811.43
661.89	25703.76
662.03	25425.24
662.17	25818.45
662.31	25666.31
662.46	25855.90
662.60	25708.44
662.74	25415.88
662.88	25191.19
663.03	25149.06
663.17	25050.75
663.31	24882.24
663.45	25106.93
663.60	25270.76
663.74	25158.42
663.88	24896.28
664.02	24985.22
664.17	25408.86
664.31	25041.39
664.45	24929.05
664.59	24924.36
664.73	24758.19
664.88	24879.89
665.02	24805.00
665.16	24709.04
665.30	24823.72
665.44	24713.72
665.59	24538.18
665.73	24816.70
665.87	24477.32
666.01	24622.44
666.15	24659.88
666.29	24376.68
666.44	24526.47
666.58	24229.23
666.72	24788.61
666.86	24072.41
667.00	24353.27
667.14	24446.90
667.28	24416.47
667.43	24177.73
667.57	24685.63
667.71	24137.94
667.85	24002.19
667.99	24278.38
668.13	24353.27
668.27	24233.91
668.41	24198.80
668.56	23943.68
668.70	24116.88
668.84	24116.88
668.98	24332.21
669.12	24133.26
669.26	24058.37
669.40	23751.76
669.54	24020.92
669.68	23812.61
669.82	23868.78
669.96	23503.66
670.10	23255.56
670.25	23873.46
670.39	23639.41
670.53	23674.52
670.67	23426.42
670.81	23676.86
670.95	23398.34
671.09	23407.70
671.23	23695.58
671.37	23342.16
671.51	23276.63
671.65	23267.27
671.79	23281.31
671.93	23220.45
672.07	23213.43
672.21	23094.07
672.35	22572.13
672.49	22738.30
672.63	23349.18
672.77	22663.41
672.91	22803.84
673.05	22747.67
673.19	22658.73
673.33	22630.64
673.47	22764.05
673.61	22785.12
673.75	22792.14
673.89	22558.08
674.03	22663.41
674.17	22431.69
674.31	22342.75
674.45	22286.58
674.59	22609.58
674.73	22352.12
674.87	22097.00
675.01	22099.34
675.15	22057.21
675.29	22050.19
675.43	21895.71
675.56	21771.66
675.70	21895.71
675.84	22050.19
675.98	21324.62
676.12	21891.03
676.26	21806.77
676.40	21685.06
676.54	21642.93
676.68	21912.10
676.82	21357.39
676.96	21778.68
677.10	21350.37
677.23	21053.12
677.37	21048.44
677.51	21518.89
677.65	20945.45
677.79	21039.08
677.93	20929.07
678.07	20903.32
678.21	20884.60
678.34	20671.61
678.48	20720.76
678.62	20603.74
678.76	20837.79
678.90	20802.68
679.04	20692.68
679.18	20636.50
679.31	20273.72
679.45	20376.70
679.59	20255.00
679.73	20271.38
679.87	19997.54
680.00	20107.54
680.14	19840.72
680.28	20020.94
680.42	19939.02
680.56	19934.34
680.70	20126.27
680.83	19978.81
680.97	20144.99
681.11	20002.22
681.25	19763.48
681.39	19688.59
681.52	19807.95
681.66	19620.71
681.80	19337.51
681.94	19293.04
682.07	19499.00
682.21	19190.05
682.35	19197.07
682.49	18848.33
682.62	19208.78
682.76	18965.36
682.90	18890.46
683.04	19316.44
683.17	18796.84
683.31	18995.79
683.45	18923.23
683.59	18642.37
683.72	18876.42
683.86	18668.11
684.00	18569.81
684.13	18354.48
684.27	18391.93
684.41	18368.52
684.55	18237.45
684.68	18263.20
684.82	18211.71
684.96	17895.74
685.09	18197.67
685.23	18019.78
685.37	18071.28
685.50	18380.23
685.64	18104.04
685.78	18012.76
685.91	18017.44
686.05	18075.96
686.19	17759.98
686.32	17972.97
686.46	17572.74
686.60	17369.12
686.73	17486.14
686.87	17013.35
687.01	17224.00
687.14	17413.59
687.28	17025.06
687.42	16912.71
687.55	16886.97
687.69	17207.62
687.82	17076.55
687.96	17188.89
688.10	17006.33
688.23	16926.75
688.37	16959.52
688.50	16826.11
688.64	16893.99
688.78	16765.26
688.91	16489.07
689.05	16423.54
689.18	16343.96
689.32	16119.27
689.46	15971.82
689.59	16173.10
689.73	16194.17
689.86	16088.84
690.00	15960.11
690.13	16035.01
690.27	15889.90
690.41	15896.92
690.54	15768.19
690.68	15983.52
690.81	15948.41
690.95	15810.32
691.08	15976.50
691.22	15651.16
691.35	15599.67
691.49	15597.33
691.62	15719.04
691.76	15468.60
691.89	15435.83
692.03	15239.23
692.16	15171.35
692.30	15183.06
692.43	14824.95
692.57	15082.41
692.70	15321.15
692.84	15131.56
692.97	14726.65
693.11	14633.03
693.24	14923.26
693.38	14724.31
693.51	14785.16
693.65	14651.75
693.78	14684.52
693.92	14527.71
694.05	14483.24
694.19	14672.82
694.32	13958.96
694.45	14228.12
694.59	14267.91
694.72	14010.45
694.86	14099.39
694.99	13860.65
695.13	13855.97
695.26	13722.56
695.39	13631.28
695.53	14052.58
695.66	14050.24
695.80	13734.26
695.93	13460.42
696.07	13954.27
696.20	13900.44
696.33	13458.08
696.47	13554.04
696.60	13465.10
696.73	13511.91
696.87	13509.57
697.00	13341.05
697.14	13312.97
697.27	13050.83
697.40	13107.00
697.54	13132.75
697.67	12926.78
697.80	12903.37
697.94	12683.36
698.07	12634.21
698.21	12697.41
698.34	12882.31
698.47	12699.75
698.61	12549.95
698.74	12849.54
698.87	12671.66
699.01	12582.72
699.14	12311.22
699.27	12542.93
699.40	12348.67
699.54	12269.09
699.67	12243.34
699.80	12264.41
699.94	12173.13
700.07	12116.95
700.20	11885.24
700.34	11978.86
700.47	11808.00
700.60	11889.92
700.73	11903.96
700.87	11859.49
701.00	11768.21
701.13	11707.36
701.26	11683.95
701.40	11929.71
701.53	11627.78
701.66	11449.90
701.79	11372.66
701.93	11627.78
702.06	11379.68
702.19	11239.25
702.32	11447.56
702.46	11211.17
702.59	11082.44
702.72	10916.26
702.85	10930.30
702.99	10949.03
703.12	10925.62
703.25	10590.92
703.38	11094.14
703.51	10965.41
703.65	10841.36
703.78	10874.13
703.91	10864.77
704.04	10719.65
704.17	10672.84
704.31	10588.58
704.44	10466.88
704.57	10497.30
704.70	10354.53
704.83	10359.21
704.96	10492.62
705.10	10214.10
705.23	10083.03
>>>>>End Processed Spectral Data<<<<<
