SpectraSuite Data File
++++++++++++++++++++++++++++++++++++
Date: Fri Oct 18 13:58:25 GMT-05:00 2013
User: bianchi
Dark Spectrum Present: No
Reference Spectrum Present: No
Number of Sampled Component Spectra: 1
Spectrometers: USB2+H05261
Integration Time (usec): 50000 (USB2+H05261)
Spectra Averaged: 1 (USB2+H05261)
Boxcar Smoothing: 0 (USB2+H05261)
Correct for Electrical Dark: No (USB2+H05261)
Strobe/Lamp Enabled: No (USB2+H05261)
Correct for Detector Non-linearity: No (USB2+H05261)
Correct for Stray Light: No (USB2+H05261)
Number of Pixels in Processed Spectrum: 2048
>>>>>Begin Processed Spectral Data<<<<<
365.73	0.00
365.92	0.00
366.12	0.00
366.32	0.00
366.52	0.00
366.72	0.00
366.91	0.00
367.11	0.00
367.31	0.00
367.51	0.00
367.70	0.00
367.90	0.00
368.10	0.00
368.30	0.00
368.49	0.00
368.69	0.00
368.89	0.00
369.09	0.00
369.28	0.00
369.48	0.00
369.68	0.00
369.87	0.00
370.07	0.00
370.27	0.00
370.47	0.00
370.66	84.26
370.86	173.20
371.06	42.13
371.25	98.30
371.45	63.19
371.65	163.84
371.84	86.60
372.04	121.71
372.24	180.22
372.44	191.92
372.63	180.22
372.83	175.54
373.03	198.95
373.22	264.48
373.42	201.29
373.62	159.16
373.81	166.18
374.01	294.91
374.21	330.02
374.40	161.50
374.60	245.76
374.79	236.39
374.99	201.29
375.19	217.67
375.38	215.33
375.58	205.97
375.78	334.70
375.97	212.99
376.17	255.12
376.37	273.84
376.56	283.20
376.76	203.63
376.95	271.50
377.15	297.25
377.35	257.46
377.54	224.69
377.74	337.04
377.93	252.78
378.13	236.39
378.33	280.86
378.52	243.42
378.72	276.18
378.91	301.93
379.11	229.37
379.31	327.68
379.50	327.68
379.70	290.23
379.89	299.59
380.09	269.16
380.28	299.59
380.48	390.87
380.68	287.89
380.87	304.27
381.07	294.91
381.26	264.48
381.46	327.68
381.65	294.91
381.85	339.38
382.04	365.12
382.24	358.10
382.43	360.44
382.63	248.10
382.83	344.06
383.02	243.42
383.22	402.57
383.41	362.78
383.61	365.12
383.80	365.12
384.00	283.20
384.19	306.61
384.39	418.96
384.58	402.57
384.78	339.38
384.97	315.97
385.17	369.80
385.36	365.12
385.56	355.76
385.75	430.66
385.95	386.19
386.14	330.02
386.34	390.87
386.53	379.17
386.72	477.47
386.92	437.68
387.11	449.38
387.31	367.46
387.50	414.27
387.70	367.46
387.89	395.55
388.09	465.77
388.28	468.11
388.48	418.96
388.67	479.81
388.86	458.74
389.06	355.76
389.25	463.43
389.45	397.89
389.64	521.94
389.84	498.53
390.03	489.17
390.22	500.87
390.42	447.04
390.61	456.40
390.81	411.93
391.00	447.04
391.19	472.79
391.39	507.90
391.58	468.11
391.78	500.87
391.97	479.81
392.16	543.00
392.36	568.75
392.55	538.32
392.75	538.32
392.94	482.15
393.13	498.53
393.33	496.19
393.52	531.30
393.71	631.94
393.91	533.64
394.10	442.36
394.29	517.26
394.49	589.82
394.68	589.82
394.88	596.84
395.07	634.29
395.26	648.33
395.46	528.96
395.65	561.73
395.84	528.96
396.04	744.29
396.23	645.99
396.42	603.86
396.62	671.73
396.81	587.47
397.00	653.01
397.19	566.41
397.39	697.48
397.58	624.92
397.77	674.07
397.97	702.16
398.16	667.05
398.35	697.48
398.55	734.93
398.74	671.73
398.93	758.33
399.12	695.14
399.32	765.36
399.51	706.84
399.70	746.63
399.90	755.99
400.09	723.23
400.28	755.99
400.47	737.27
400.67	774.72
400.86	770.04
401.05	826.21
401.24	847.27
401.44	678.76
401.63	873.02
401.82	760.67
402.01	746.63
402.21	880.04
402.40	826.21
402.59	816.85
402.78	877.70
402.97	798.12
403.17	882.38
403.36	854.30
403.55	793.44
403.74	887.06
403.93	877.70
404.13	901.11
404.32	936.21
404.51	870.68
404.70	952.60
404.89	950.26
405.09	873.02
405.28	898.77
405.47	912.81
405.66	938.55
405.85	929.19
406.05	875.36
406.24	926.85
406.43	1034.52
406.62	980.68
406.81	978.34
407.00	999.41
407.20	992.39
407.39	938.55
407.58	1093.03
407.77	1125.80
407.96	1069.62
408.15	1011.11
408.34	980.68
408.54	1071.97
408.73	1151.54
408.92	1083.67
409.11	1163.25
409.30	1167.93
409.49	1165.59
409.68	1125.80
409.87	1163.25
410.07	1254.53
410.26	1149.20
410.45	1114.10
410.64	1233.46
410.83	1174.95
411.02	1144.52
411.21	1268.57
411.40	1207.72
411.59	1287.29
411.78	1345.81
411.98	1268.57
412.17	1406.66
412.36	1121.12
412.55	1327.08
412.74	1446.45
412.93	1451.13
413.12	1397.30
413.31	1451.13
413.50	1427.73
413.69	1420.71
413.88	1430.07
414.07	1359.85
414.26	1404.32
414.45	1472.20
414.64	1451.13
414.83	1493.26
415.02	1458.15
415.22	1554.12
415.41	1549.43
415.60	1533.05
415.79	1584.54
415.98	1572.84
416.17	1540.07
416.36	1526.03
416.55	1598.59
416.74	1586.88
416.93	1636.03
417.12	1619.65
417.31	1675.82
417.50	1694.55
417.69	1692.21
417.88	1736.68
418.07	1778.81
418.26	1760.08
418.45	1715.61
418.64	1809.23
418.83	1774.13
419.02	1937.96
419.21	1764.76
419.39	1816.26
419.58	1837.32
419.77	1844.34
419.96	1813.92
420.15	1944.99
420.34	1825.62
420.53	1886.47
420.72	1956.69
420.91	1959.03
421.10	1935.62
421.29	2012.86
421.48	1928.60
421.67	1942.64
421.86	1991.80
422.05	1872.43
422.24	1914.56
422.43	1937.96
422.61	2022.22
422.80	2005.84
422.99	2099.46
423.18	1996.48
423.37	2078.40
423.56	2047.97
423.75	1949.67
423.94	1937.96
424.13	1834.98
424.32	1928.60
424.50	1996.48
424.69	2015.20
424.88	2052.65
425.07	2033.93
425.26	1963.71
425.45	1963.71
425.64	2001.16
425.83	2024.56
426.01	2069.03
426.20	2029.24
426.39	1968.39
426.58	2214.15
426.77	2106.48
426.96	2090.10
427.15	2012.86
427.33	2132.23
427.52	2083.08
427.71	2204.78
427.90	2146.27
428.09	2249.25
428.28	2228.19
428.46	2211.81
428.65	2193.08
428.84	2277.34
429.03	2326.49
429.22	2181.38
429.40	2389.69
429.59	2258.62
429.78	2132.23
429.97	2134.57
430.16	2214.15
430.34	2211.81
430.53	2373.30
430.72	2394.37
430.91	2277.34
431.10	2232.87
431.28	2345.22
431.47	2403.73
431.66	2403.73
431.85	2377.98
432.03	2424.80
432.22	2485.65
432.41	2422.45
432.60	2403.73
432.79	2436.50
432.97	2476.29
433.16	2567.57
433.35	2417.77
433.54	2518.42
433.72	2504.37
433.91	2518.42
434.10	2469.27
434.28	2548.84
434.47	2539.48
434.66	2497.35
434.85	2633.10
435.03	2663.53
435.22	2658.85
435.41	2682.25
435.59	2530.12
435.78	2731.41
435.97	2757.15
436.16	2708.00
436.34	2677.57
436.53	2693.96
436.72	2649.49
436.90	2572.25
437.09	2731.41
437.28	2691.62
437.46	2719.70
437.65	2696.30
437.84	2810.98
438.02	2836.73
438.21	2890.56
438.40	2789.92
438.58	2780.56
438.77	2787.58
438.96	2960.78
439.14	2946.73
439.33	3012.27
439.52	3063.76
439.70	3028.65
439.89	3016.95
440.08	3016.95
440.26	3045.04
440.45	3084.83
440.63	3035.67
440.82	3080.14
441.01	3122.27
441.19	3061.42
441.38	3110.57
441.57	3150.36
441.75	3304.84
441.94	3290.79
442.12	3248.66
442.31	3204.19
442.50	3330.58
442.68	3272.07
442.87	3349.31
443.05	3330.58
443.24	3452.29
443.43	3314.20
443.61	3421.86
443.80	3564.64
443.98	3321.22
444.17	3117.59
444.35	3438.25
444.54	3541.23
444.73	3386.76
444.91	3433.57
445.10	3393.78
445.28	3410.16
445.47	3365.69
445.65	3389.10
445.84	3424.20
446.02	3571.66
446.21	3421.86
446.39	3496.76
446.58	3688.68
446.77	3459.31
446.95	3440.59
447.14	3515.48
447.32	3468.67
447.51	3501.44
447.69	3311.86
447.88	3489.74
448.06	3508.46
448.25	3520.17
448.43	3550.59
448.62	3494.42
448.80	3513.14
448.99	3503.78
449.17	3602.08
449.36	3543.57
449.54	3702.73
449.73	3627.83
449.91	3641.87
450.10	3684.00
450.28	3775.28
450.46	3707.41
450.65	3747.20
450.83	3791.67
451.02	3772.94
451.20	3861.88
451.39	3782.31
451.57	3726.13
451.76	3684.00
451.94	3646.55
452.13	3896.99
452.31	3822.09
452.49	3719.11
452.68	3744.86
452.86	3840.82
453.05	3997.64
453.23	3960.19
453.42	3894.65
453.60	3742.52
453.78	4021.04
453.97	3981.25
454.15	3779.97
454.34	3829.12
454.52	3889.97
454.70	4039.76
454.89	4091.26
455.07	3920.40
455.26	3911.04
455.44	4018.70
455.62	4187.22
455.81	4128.70
455.99	4135.73
456.17	4018.70
456.36	4105.30
456.54	4156.79
456.73	4159.13
456.91	4283.18
457.09	4159.13
457.28	4252.75
457.46	4393.19
457.64	4393.19
457.83	4264.46
458.01	4351.06
458.19	4479.79
458.38	4484.47
458.56	4381.48
458.74	4451.70
458.93	4440.00
459.11	4503.19
459.29	4411.91
459.48	4475.10
459.66	4528.94
459.84	4491.49
460.03	4587.45
460.21	4526.60
460.39	4470.42
460.57	4456.38
460.76	4599.15
460.94	4601.49
461.12	4622.56
461.31	4622.56
461.49	4582.77
461.67	4554.68
461.85	4788.74
462.04	4638.94
462.22	4664.69
462.40	4791.08
462.59	4741.93
462.77	4667.03
462.95	4854.27
463.13	4823.84
463.32	4786.40
463.50	4720.86
463.68	5029.81
463.86	4781.71
464.05	4788.74
464.23	4699.80
464.41	4851.93
464.59	4774.69
464.78	5015.77
464.96	4781.71
465.14	4873.00
465.32	4964.28
465.50	4793.42
465.69	5060.24
465.87	5057.90
466.05	4826.18
466.23	5022.79
466.41	4971.30
466.60	5172.58
466.78	5018.11
466.96	5008.75
467.14	4919.81
467.32	5090.67
467.51	5128.11
467.69	5034.49
467.87	5041.51
468.05	5006.41
468.23	5064.92
468.41	5008.75
468.60	5160.88
468.78	5238.12
468.96	5090.67
469.14	5348.12
469.32	5390.25
469.50	5156.20
469.69	5235.78
469.87	5383.23
470.05	5437.06
470.23	5418.34
470.41	5364.51
470.59	5476.85
470.77	5451.11
470.95	5568.13
471.14	5425.36
471.32	5570.48
471.50	5589.20
471.68	5621.97
471.86	5462.81
472.04	5547.07
472.22	5692.18
472.40	5689.84
472.58	5877.09
472.77	5717.93
472.95	5956.66
473.13	5823.25
473.31	5788.14
473.49	5994.11
473.67	5640.69
473.85	6061.99
474.03	6033.90
474.21	5802.19
474.39	6260.93
474.57	6141.57
474.75	6211.78
474.93	6366.26
475.12	6043.26
475.30	6092.41
475.48	6162.63
475.66	6249.23
475.84	6136.88
476.02	6375.62
476.20	6338.17
476.38	6307.74
476.56	6658.82
476.74	6628.40
476.92	6473.92
477.10	6640.10
477.28	6637.76
477.46	6492.65
477.64	6736.06
477.82	6817.98
478.00	6916.28
478.18	7077.78
478.36	7124.59
478.54	7094.16
478.72	7000.54
478.90	7309.49
479.08	7330.56
479.26	7178.42
479.44	7162.04
479.62	7335.24
479.80	7379.71
479.98	7407.80
480.16	7599.72
480.34	7372.69
480.52	7616.10
480.70	7562.27
480.88	7623.12
481.06	7686.32
481.24	7569.29
481.41	7845.48
481.59	7894.63
481.77	8138.04
481.95	8222.30
482.13	8208.26
482.31	8231.66
482.49	8217.62
482.67	8311.24
482.85	8367.42
483.03	8187.19
483.21	8552.32
483.39	8662.32
483.57	8542.96
483.74	8587.43
483.92	8912.76
484.10	8496.14
484.28	8732.54
484.46	9067.24
484.64	9142.13
484.82	9046.17
485.00	9142.13
485.18	9123.41
485.35	9366.82
485.53	9336.40
485.71	9509.60
485.89	9614.92
486.07	9577.47
486.25	9657.05
486.43	9448.74
486.61	9558.75
486.78	9750.67
486.96	9720.24
487.14	10148.56
487.32	10036.22
487.50	10113.45
487.68	10122.82
487.85	10204.74
488.03	10466.88
488.21	10670.50
488.39	10567.52
488.57	10705.61
488.75	10703.27
488.92	10740.72
489.10	10789.87
489.28	10853.06
489.46	10934.98
489.64	11126.91
489.81	11335.21
489.99	11339.90
490.17	11389.05
490.35	11496.71
490.53	11379.68
490.70	11702.68
490.88	11506.07
491.06	11819.71
491.24	11571.61
491.41	11721.40
491.59	12023.33
491.77	11740.13
491.95	12088.87
492.13	11971.84
492.30	12182.49
492.48	12217.60
492.66	12271.43
492.84	12547.61
493.01	12608.47
493.19	12702.09
493.37	12957.21
493.54	12439.95
493.72	12683.36
493.90	12798.05
494.08	12847.20
494.25	13121.04
494.43	12762.94
494.61	13263.82
494.79	13352.76
494.96	13364.46
495.14	13336.37
495.32	13319.99
495.49	13429.99
495.67	13586.81
495.85	13734.26
496.02	13724.90
496.20	13926.19
496.38	13928.53
496.55	13816.18
496.73	14230.46
496.91	14083.00
497.09	14209.39
497.26	14171.94
497.44	14256.20
497.62	14401.32
497.79	14679.84
497.97	14279.61
498.14	14429.40
498.32	14988.79
498.50	14719.63
498.67	14906.87
498.85	14834.32
499.03	15005.17
499.20	14754.74
499.38	14827.29
499.56	15208.80
499.73	15183.06
499.91	15475.62
500.08	15508.39
500.26	15194.76
500.44	15236.89
500.61	15379.66
500.79	15428.81
500.97	15562.22
501.14	15538.82
501.32	15623.08
501.49	15770.53
501.67	15920.32
501.84	15660.52
502.02	15744.78
502.20	16032.67
502.37	16100.55
502.55	15941.39
502.72	15981.18
502.90	16126.29
503.07	16128.63
503.25	16126.29
503.43	16252.68
503.60	16402.47
503.78	16580.36
503.95	16559.29
504.13	16306.51
504.30	16446.94
504.48	16535.88
504.65	16821.43
504.83	17067.19
505.01	16936.12
505.18	16826.11
505.36	17003.99
505.53	16709.08
505.71	16936.12
505.88	16856.54
506.06	16985.27
506.23	17071.87
506.41	17158.47
506.58	16886.97
506.76	17476.78
506.93	17399.54
507.11	17214.64
507.28	17586.79
507.46	17558.70
507.63	17764.67
507.81	17539.97
507.98	17607.85
508.16	17685.09
508.33	17881.69
508.50	17724.88
508.68	17678.07
508.85	18094.68
509.03	17956.59
509.20	18232.77
509.38	18160.22
509.55	18295.97
509.73	18373.21
509.90	18403.63
510.08	17884.03
510.25	18302.99
510.42	18422.36
510.60	18820.25
510.77	18831.95
510.95	18799.18
511.12	18630.66
511.30	18417.68
511.47	18766.42
511.64	18902.17
511.82	18892.80
511.99	18766.42
512.17	19063.66
512.34	19089.41
512.51	19176.01
512.69	19290.70
512.86	19398.36
513.04	19665.18
513.21	19201.76
513.38	19470.92
513.56	19328.14
513.73	19445.17
513.90	19452.19
514.08	19367.93
514.25	19524.75
514.43	19463.90
514.60	19831.36
514.77	20058.39
514.95	19812.63
515.12	19814.98
515.29	19592.62
515.47	20042.01
515.64	19901.58
515.81	19814.98
515.99	19800.93
516.16	19967.11
516.33	20376.70
516.51	20266.70
516.68	20357.98
516.85	20187.12
517.03	20563.95
517.20	20292.44
517.37	20386.07
517.54	20585.01
517.72	20655.23
517.89	20409.47
518.06	20517.14
518.24	20732.47
518.41	20489.05
518.58	20526.50
518.75	20786.30
518.93	20680.97
519.10	20767.57
519.27	21305.90
519.45	20931.41
519.62	20936.09
519.79	21106.95
519.96	21137.38
520.14	21254.40
520.31	20898.64
520.48	21280.15
520.65	21050.78
520.83	21635.91
521.00	21343.35
521.17	21050.78
521.34	21642.93
521.52	21422.92
521.69	21338.66
521.86	21387.82
522.03	21568.04
522.20	21329.30
522.38	21563.36
522.55	21902.73
522.72	21898.05
522.89	21766.98
523.07	21717.83
523.24	21860.60
523.41	22019.76
523.58	21619.53
523.75	22005.72
523.92	21926.14
524.10	22122.74
524.27	22342.75
524.44	22324.03
524.61	22513.61
524.78	22607.23
524.96	22345.09
525.13	22562.76
525.30	22267.86
525.47	22558.08
525.64	22457.44
525.81	22476.16
525.98	22829.59
526.16	22707.88
526.33	22757.03
526.50	22644.68
526.67	22719.58
526.84	22684.47
527.01	22799.16
527.18	22750.01
527.36	22944.27
527.53	22972.36
527.70	23323.44
527.87	23236.84
528.04	23578.56
528.21	23281.31
528.38	23278.97
528.55	23297.69
528.72	23068.32
528.89	23307.05
529.07	23323.44
529.24	23257.90
529.41	23419.40
529.58	23056.62
529.75	23463.87
529.92	23524.72
530.09	23410.04
530.26	23590.26
530.43	23491.96
530.60	23435.78
530.77	23580.90
530.94	24032.62
531.11	23587.92
531.28	23679.20
531.46	23613.66
531.63	23709.63
531.80	23789.20
531.97	24072.41
532.14	24013.90
532.31	24030.28
532.48	23941.34
532.65	24116.88
532.82	23768.14
532.99	24163.69
533.16	23868.78
533.33	24233.91
533.50	24381.36
533.67	24285.40
533.84	24142.63
534.01	24299.44
534.18	24163.69
534.35	24554.56
534.52	24215.18
534.69	24592.01
534.86	24603.71
535.03	24381.36
535.20	24608.39
535.37	24418.81
535.54	24517.11
535.71	24645.84
535.88	24807.34
536.05	24893.94
536.22	24582.65
536.38	24999.26
536.55	25032.03
536.72	24720.74
536.89	24821.38
537.06	24694.99
537.23	24891.60
537.40	24812.02
537.57	25085.86
537.74	25144.38
537.91	25268.42
538.08	25069.48
538.25	25310.55
538.42	25223.95
538.59	25284.81
538.75	25060.12
538.92	25376.09
539.09	25249.70
539.26	25509.50
539.43	25399.49
539.60	25383.11
539.77	25235.66
539.94	25706.10
540.11	25469.71
540.28	25738.87
540.44	25390.13
540.61	25532.90
540.78	25486.09
540.95	25626.53
541.12	25802.07
541.29	25472.05
541.46	26008.03
541.62	25649.93
541.79	25448.64
541.96	25268.42
542.13	25659.29
542.30	25685.04
542.47	25888.67
542.63	25876.96
542.80	26141.44
542.97	26260.81
543.14	26504.23
543.31	26125.06
543.48	26272.51
543.64	26167.19
543.81	26876.37
543.98	26183.57
544.15	26281.88
544.32	26515.93
544.48	26742.96
544.65	26225.70
544.82	26511.25
544.99	26501.89
545.16	26647.00
545.32	26740.62
545.49	26595.51
545.66	26820.20
545.83	26885.73
546.00	26710.19
546.16	26548.70
546.33	26408.26
546.50	26434.01
546.67	27056.59
546.83	26438.69
547.00	26511.25
547.17	27094.04
547.34	26934.88
547.50	26965.31
547.67	27145.53
547.84	26782.75
548.00	27152.55
548.17	27300.01
548.34	26761.69
548.51	27082.34
548.67	27253.20
548.84	27145.53
549.01	27054.25
549.18	27136.17
549.34	27056.59
549.51	27318.73
549.68	27087.02
549.84	27087.02
550.01	27260.22
550.18	26843.60
550.34	27133.83
550.51	27550.45
550.68	27449.80
550.84	27236.81
551.01	27133.83
551.18	27243.84
551.34	27187.66
551.51	27257.88
551.68	27470.87
551.84	27524.70
552.01	27541.08
552.18	27391.29
552.34	27524.70
552.51	27857.06
552.68	27599.60
552.84	27721.30
553.01	27552.79
553.18	27330.44
553.34	27754.07
553.51	27861.74
553.67	28051.32
553.84	28084.09
554.01	27758.75
554.17	27971.74
554.34	27960.04
554.51	27634.71
554.67	27957.70
554.84	27608.96
555.00	27639.39
555.17	28102.81
555.33	27955.36
555.50	28224.52
555.67	27735.35
555.83	28018.55
556.00	27929.61
556.16	28018.55
556.33	27899.19
556.50	28198.77
556.66	28357.93
556.83	28271.33
556.99	28559.22
557.16	28418.78
557.32	28107.49
557.49	28439.85
557.65	28350.91
557.82	28130.90
557.98	27915.57
558.15	28187.07
558.32	28615.39
558.48	28180.05
558.65	28486.66
558.81	28589.64
558.98	28507.72
559.14	28362.61
559.31	28395.38
559.47	28374.31
559.64	28591.98
559.80	28833.06
559.97	28685.61
560.13	28463.25
560.30	28826.04
560.46	28837.74
560.63	28819.02
560.79	28582.62
560.96	28657.52
561.12	28725.39
561.29	28851.78
561.45	28872.85
561.61	28858.81
561.78	28725.39
561.94	28884.55
562.11	28788.59
562.27	28900.94
562.44	28685.61
562.60	28676.24
562.77	28917.32
562.93	28772.21
563.10	28652.84
563.26	28694.97
563.42	29268.40
563.59	29205.20
563.75	28748.80
563.92	28882.21
564.08	28617.73
564.24	28577.94
564.41	28547.51
564.57	28741.78
564.74	28914.98
564.90	29195.84
565.07	29303.51
565.23	29036.69
565.39	29074.13
565.56	29071.79
565.72	29134.99
565.88	28989.88
566.05	29193.50
566.21	28999.24
566.38	29032.00
566.54	29289.46
566.70	29083.50
566.87	29120.95
567.03	29205.20
567.19	29357.34
567.36	29294.14
567.52	29273.08
567.68	29502.45
567.85	29249.67
568.01	29310.53
568.17	28994.56
568.34	29366.70
568.50	29390.11
568.66	29315.21
568.83	29759.91
568.99	29518.84
569.15	29099.88
569.32	29207.55
569.48	29130.31
569.64	29659.27
569.81	29261.38
569.97	29053.07
570.13	29589.05
570.30	29443.94
570.46	29303.51
570.62	29362.02
570.78	29097.54
570.95	29235.63
571.11	29188.82
571.27	29436.92
571.43	28889.23
571.60	29607.78
571.76	29209.89
571.92	29340.96
572.09	29682.67
572.25	29502.45
572.41	29146.69
572.57	29390.11
572.74	29263.72
572.90	29387.77
573.06	29186.48
573.22	29324.57
573.38	29331.59
573.55	29249.67
573.71	29610.12
573.87	29493.09
574.03	29436.92
574.20	29467.34
574.36	29713.10
574.52	29347.98
574.68	29441.60
574.84	29319.89
575.01	29649.91
575.17	29305.85
575.33	29696.72
575.49	29383.09
575.65	29844.17
575.82	29378.40
575.98	29446.28
576.14	29605.44
576.30	29586.71
576.46	29235.63
576.62	29200.52
576.79	29230.95
576.95	29104.56
577.11	29752.89
577.27	29685.01
577.43	29795.02
577.59	29710.76
577.75	29825.45
577.92	29455.64
578.08	29486.07
578.24	29621.82
578.40	29558.63
578.56	29734.17
578.72	29701.40
578.88	29879.28
579.04	29755.23
579.21	29212.23
579.37	29500.11
579.53	29773.95
579.69	29649.91
579.85	29593.73
580.01	29502.45
580.17	29600.76
580.33	29350.32
580.49	29797.36
580.65	29855.87
580.82	29935.45
580.98	29319.89
581.14	29446.28
581.30	29902.68
581.46	29818.42
581.62	29860.55
581.78	29549.26
581.94	29584.37
582.10	29663.95
582.26	29528.20
582.42	29605.44
582.58	29729.48
582.74	29472.03
582.90	29406.49
583.06	29851.19
583.22	29762.25
583.38	29858.21
583.54	29507.13
583.70	29689.70
583.86	29612.46
584.02	29443.94
584.18	29914.39
584.34	30008.01
584.50	30066.52
584.66	29528.20
584.82	29888.64
584.98	29963.54
585.14	29874.60
585.30	29563.31
585.46	29862.90
585.62	29415.85
585.78	29500.11
585.94	29673.31
586.10	29591.39
586.26	29846.51
586.42	29773.95
586.58	30008.01
586.74	29736.51
586.90	29773.95
587.06	29497.77
587.22	29900.34
587.38	29837.15
587.54	30022.05
587.70	29638.20
587.86	30000.99
588.02	30183.55
588.18	30024.39
588.34	30380.15
588.49	29577.35
588.65	29472.03
588.81	29909.71
588.97	29963.54
589.13	29935.45
589.29	30050.14
589.45	30036.09
589.61	30057.16
589.77	30380.15
589.93	30216.32
590.08	30169.51
590.24	30155.46
590.40	29998.65
590.56	29972.90
590.72	30033.75
590.88	30043.12
591.04	29886.30
591.20	30279.51
591.35	30382.49
591.51	30569.74
591.67	30132.06
591.83	30471.43
591.99	30150.78
592.15	30251.42
592.31	30302.92
592.46	29982.26
592.62	29834.81
592.78	29979.92
592.94	30078.22
593.10	30221.00
593.26	30260.79
593.41	30539.31
593.57	29965.88
593.73	30366.11
593.89	30541.65
594.05	30162.48
594.20	30431.65
594.36	30012.69
594.52	29914.39
594.68	30326.32
594.84	30178.87
594.99	30321.64
595.15	30249.08
595.31	30363.77
595.47	30213.98
595.62	30391.86
595.78	29769.27
595.94	30188.23
596.10	30195.25
596.25	30223.34
596.41	29975.24
596.57	29898.00
596.73	30064.18
596.88	30246.74
597.04	30068.86
597.20	30195.25
597.36	30026.73
597.51	30115.67
597.67	30410.58
597.83	29965.88
597.99	30560.37
598.14	30361.43
598.30	30071.20
598.46	30593.14
598.61	30433.99
598.77	30316.96
598.93	30572.08
599.09	30656.34
599.24	30656.34
599.40	30235.04
599.56	30487.82
599.71	30171.85
599.87	30658.68
600.03	30408.24
600.18	30349.73
600.34	30251.42
600.50	30260.79
600.65	30237.38
600.81	30295.89
600.97	29937.79
601.12	30455.05
601.28	30441.01
601.44	30373.13
601.59	30319.30
601.75	29970.56
601.91	30047.80
602.06	30263.13
602.22	30403.56
602.37	30127.38
602.53	30197.59
602.69	30469.09
602.84	30302.92
603.00	30206.95
603.16	30300.58
603.31	30050.14
603.47	30356.75
603.62	30478.46
603.78	30476.12
603.94	30593.14
604.09	30181.21
604.25	30274.83
604.40	30569.74
604.56	30125.04
604.71	30534.63
604.87	30389.52
605.03	30277.17
605.18	30389.52
605.34	30354.41
605.49	30080.56
605.65	30403.56
605.80	30045.46
605.96	30237.38
606.12	30438.67
606.27	30443.35
606.43	30541.65
606.58	30394.20
606.74	30293.55
606.89	30338.02
607.05	30410.58
607.20	30382.49
607.36	30045.46
607.51	29795.02
607.67	29706.08
607.82	29996.31
607.98	30171.85
608.13	30614.21
608.29	30110.99
608.44	30096.95
608.60	30412.92
608.75	30560.37
608.91	30302.92
609.06	30108.65
609.22	30221.00
609.37	30073.54
609.53	29811.40
609.68	30038.44
609.84	29741.19
609.99	29968.22
610.15	29806.72
610.30	29930.77
610.46	29961.20
610.61	30101.63
610.76	30466.75
610.92	30274.83
611.07	30103.97
611.23	29811.40
611.38	30150.78
611.54	29949.50
611.69	29759.91
611.84	29795.02
612.00	29933.11
612.15	29823.11
612.31	30246.74
612.46	29886.30
612.62	30106.31
612.77	29731.83
612.92	30352.07
613.08	29752.89
613.23	30012.69
613.39	29788.00
613.54	29638.20
613.69	30206.95
613.85	29565.65
614.00	29890.98
614.15	29958.86
614.31	29893.32
614.46	29720.12
614.62	29902.68
614.77	29771.61
614.92	29685.01
615.08	29500.11
615.23	29692.04
615.38	29766.93
615.54	29764.59
615.69	29500.11
615.84	29324.57
616.00	29336.27
616.15	29507.13
616.30	29539.90
616.46	29769.27
616.61	29369.04
616.76	29654.59
616.92	29448.62
617.07	29729.48
617.22	29202.86
617.37	29752.89
617.53	30015.03
617.68	29387.77
617.83	29319.89
617.99	29069.45
618.14	29380.74
618.29	29296.49
618.45	29329.25
618.60	29465.00
618.75	29465.00
618.90	29053.07
619.06	29120.95
619.21	29383.09
619.36	29266.06
619.51	29392.45
619.67	28999.24
619.82	28889.23
619.97	29205.20
620.12	28800.29
620.28	28767.52
620.43	29399.47
620.58	29167.76
620.73	29537.56
620.89	29254.36
621.04	28992.22
621.19	29244.99
621.34	29041.37
621.49	29032.00
621.65	28790.93
621.80	28769.86
621.95	28882.21
622.10	29252.02
622.25	28945.41
622.41	28779.23
622.56	28872.85
622.71	28917.32
622.86	28765.18
623.01	29144.35
623.16	28744.12
623.32	28793.27
623.47	28755.82
623.62	28617.73
623.77	28662.20
623.92	28900.94
624.07	28732.42
624.23	28830.72
624.38	28451.55
624.53	29022.64
624.68	28858.81
624.83	28985.19
624.98	28847.10
625.13	28673.90
625.29	28727.74
625.44	28519.43
625.59	28177.71
625.74	28390.70
625.89	28376.66
626.04	28584.96
626.19	28718.37
626.34	28463.25
626.49	28664.54
626.65	28755.82
626.80	28430.49
626.95	28657.52
627.10	28411.76
627.25	28772.21
627.40	28191.75
627.55	28636.45
627.70	28095.79
627.85	28360.27
628.00	27833.65
628.15	28240.90
628.30	28371.97
628.45	28229.20
628.60	28203.46
628.76	28217.50
628.91	28039.62
629.06	28229.20
629.21	27946.00
629.36	28135.58
629.51	28053.66
629.66	28123.88
629.81	27789.18
629.96	28058.34
630.11	28116.86
630.26	27967.06
630.41	27946.00
630.56	27831.31
630.71	27995.15
630.86	27988.13
631.01	27992.81
631.16	28252.61
631.31	28130.90
631.46	27838.33
631.61	28009.19
631.76	27946.00
631.91	27679.18
632.06	27803.22
632.21	27599.60
632.36	27674.49
632.51	27683.86
632.66	27946.00
632.81	27798.54
632.96	27983.44
633.10	27747.05
633.25	27714.28
633.40	27536.40
633.55	27363.20
633.70	27491.93
633.85	27424.06
634.00	27374.91
634.15	27421.72
634.30	27541.08
634.45	27262.56
634.60	27697.90
634.75	27491.93
634.90	27393.63
635.05	27391.29
635.19	27728.33
635.34	27978.76
635.49	27442.78
635.64	27325.75
635.79	27580.87
635.94	27388.95
636.09	27498.95
636.24	27461.51
636.39	27517.68
636.53	27353.84
636.68	27065.96
636.83	27110.43
636.98	27491.93
637.13	27351.50
637.28	27103.40
637.43	27391.29
637.57	27445.12
637.72	27054.25
637.87	27023.83
638.02	27173.62
638.17	26787.43
638.32	27058.93
638.46	26984.04
638.61	26967.65
638.76	26684.45
638.91	26782.75
639.06	26689.13
639.20	27094.04
639.35	27005.10
639.50	26939.57
639.65	27227.45
639.80	26902.12
639.94	27225.11
640.09	26808.50
640.24	26855.31
640.39	26799.13
640.54	26419.97
640.68	26647.00
640.83	26855.31
640.98	26834.24
641.13	26476.14
641.27	26984.04
641.42	26822.54
641.57	26768.71
641.72	26689.13
641.86	26600.19
642.01	26586.15
642.16	26326.35
642.31	26312.30
642.45	26565.08
642.60	26553.38
642.75	26333.37
642.90	26389.54
643.04	26260.81
643.19	26728.92
643.34	26661.04
643.48	26218.68
643.63	26368.48
643.78	26422.31
643.93	26499.55
644.07	26469.12
644.22	26600.19
644.37	26263.15
644.51	26567.42
644.66	26422.31
644.81	26057.18
644.95	26623.59
645.10	26267.83
645.25	26466.78
645.39	26202.30
645.54	26185.91
645.69	26099.31
645.83	26321.66
645.98	26197.62
646.13	26162.51
646.27	26532.31
646.42	26192.94
646.57	26656.36
646.71	26204.64
646.86	26178.89
647.00	26169.53
647.15	25898.03
647.30	25905.05
647.44	26199.96
647.59	26038.46
647.74	25722.49
647.88	26228.04
648.03	26279.54
648.17	25949.52
648.32	25860.58
648.47	26183.57
648.61	25998.67
648.76	26127.40
648.90	26305.28
649.05	26143.78
649.20	25818.45
649.34	25703.76
649.49	25951.86
649.63	25465.03
649.78	25366.73
649.92	25666.31
650.07	26108.68
650.21	25621.84
650.36	25996.33
650.51	25607.80
650.65	25879.30
650.80	25792.70
650.94	26092.29
651.09	25965.90
651.23	25603.12
651.38	25654.61
651.52	25202.89
651.67	25488.43
651.81	25626.53
651.96	25638.23
652.10	25497.80
652.25	25839.51
652.39	25411.20
652.54	25441.62
652.68	25537.59
652.83	25392.47
652.97	25874.62
653.12	25647.59
653.26	25544.61
653.41	25270.76
653.55	25291.83
653.70	25504.82
653.84	25486.09
653.99	25645.25
654.13	25149.06
654.27	25090.54
654.42	25053.09
654.56	25586.74
654.71	25312.89
654.85	25130.33
655.00	25591.42
655.14	25326.94
655.29	25214.59
655.43	25422.90
655.57	25216.93
655.72	24971.18
655.86	25301.19
656.01	24739.46
656.15	25139.69
656.30	25067.14
656.44	25106.93
656.58	25137.35
656.73	24828.40
656.87	24903.30
657.01	24816.70
657.16	24980.54
657.30	25319.92
657.45	25015.65
657.59	24842.45
657.73	24891.60
657.88	24985.22
658.02	24678.61
658.16	24783.93
658.31	24940.75
658.45	24966.49
658.60	24556.90
658.74	24613.07
658.88	24512.43
659.03	24592.01
659.17	24732.44
659.31	24563.92
659.46	24755.85
659.60	24929.05
659.74	24512.43
659.89	24870.53
660.03	24697.33
660.17	24503.07
660.32	24498.39
660.46	24259.65
660.60	24446.90
660.74	24313.48
660.89	24311.14
661.03	24376.68
661.17	24362.64
661.32	24175.39
661.46	24060.71
661.60	24498.39
661.74	24292.42
661.89	24236.25
662.03	24243.27
662.17	23931.98
662.31	24002.19
662.46	23901.55
662.60	23784.52
662.74	23948.36
662.88	23950.70
663.03	23587.92
663.17	23590.26
663.31	23520.04
663.45	23648.77
663.60	23765.80
663.74	23585.58
663.88	23875.80
664.02	23810.27
664.17	23393.65
664.31	23779.84
664.45	23424.08
664.59	23931.98
664.73	23529.41
664.88	23669.84
665.02	23323.44
665.16	23358.55
665.30	23190.03
665.44	23138.54
665.59	23307.05
665.73	23206.41
665.87	23365.57
666.01	23229.82
666.15	23536.43
666.29	23087.04
666.44	23110.45
666.58	22876.40
666.72	23133.86
666.86	23211.09
667.00	22998.10
667.14	22972.36
667.28	22750.01
667.43	22852.99
667.57	23236.84
667.71	22684.47
667.85	22771.07
667.99	22698.52
668.13	22558.08
668.27	22602.55
668.41	22965.34
668.56	22522.98
668.70	23023.85
668.84	22953.63
668.98	22691.49
669.12	22616.60
669.26	22595.53
669.40	22246.79
669.54	22412.97
669.68	22239.77
669.82	22391.91
669.96	22274.88
670.10	22115.72
670.25	22057.21
670.39	22328.71
670.53	22031.46
670.67	21935.50
670.81	22010.40
670.95	22202.32
671.09	21900.39
671.23	21996.35
671.37	22178.92
671.51	22132.11
671.65	22157.85
671.79	21912.10
671.93	21769.32
672.07	21914.44
672.21	21462.71
672.35	21577.40
672.49	21338.66
672.63	21507.18
672.77	21149.08
672.91	21528.25
673.05	21628.89
673.19	21418.24
673.33	21387.82
673.47	21252.06
673.61	21085.89
673.75	21617.19
673.89	21682.72
674.03	21376.11
674.17	21223.98
674.31	21128.02
674.45	21242.70
674.59	20891.62
674.73	21254.40
674.87	20931.41
675.01	20954.82
675.15	20659.91
675.29	20709.06
675.43	20718.42
675.56	20816.72
675.70	20861.19
675.84	20688.00
675.98	19969.45
676.12	20917.37
676.26	20657.57
676.40	20711.40
676.54	20444.58
676.68	20561.61
676.82	20212.87
676.96	20034.99
677.10	19805.61
677.23	20072.43
677.37	19751.78
677.51	19726.04
677.65	20013.92
677.79	19683.91
677.93	19618.37
678.07	19726.04
678.21	19845.40
678.34	19541.13
678.48	19524.75
678.62	19697.95
678.76	19459.21
678.90	19396.02
679.04	19597.31
679.18	19374.95
679.31	19246.23
679.45	19037.92
679.59	18939.62
679.73	19194.73
679.87	18878.76
680.00	18946.64
680.14	18534.70
680.28	18567.47
680.42	18956.00
680.56	19005.15
680.70	18909.19
680.83	18775.78
680.97	18909.19
681.11	18761.73
681.25	18537.04
681.39	18586.19
681.52	18494.91
681.66	18455.12
681.80	18167.24
681.94	18595.56
682.07	18270.22
682.21	18464.49
682.35	17745.94
682.49	18197.67
682.62	18171.92
682.76	17984.68
682.90	18099.36
683.04	17804.46
683.17	18092.34
683.31	17839.56
683.45	17947.23
683.59	17909.78
683.72	17738.92
683.86	17446.35
684.00	17539.97
684.13	17687.43
684.27	17256.77
684.41	17088.25
684.55	17034.42
684.68	17296.56
684.82	17289.54
684.96	16720.79
685.09	17069.53
685.23	16681.00
685.37	17050.80
685.50	17130.38
685.64	17029.74
685.78	16931.44
685.91	17191.23
686.05	16903.35
686.19	16430.56
686.32	16535.88
686.46	16353.32
686.60	16135.65
686.73	16437.58
686.87	16613.12
687.01	16456.31
687.14	15985.86
687.28	16243.32
687.42	16013.95
687.55	15920.32
687.69	16065.44
687.82	15948.41
687.96	16154.38
688.10	15850.11
688.23	16128.63
688.37	15859.47
688.50	15847.77
688.64	15763.51
688.78	15599.67
688.91	15587.97
689.05	15403.07
689.18	15648.82
689.32	15178.37
689.46	15241.57
689.59	15023.90
689.73	15318.81
689.86	14984.11
690.00	15365.62
690.13	14970.07
690.27	14960.70
690.41	15302.42
690.54	15014.54
690.68	15033.26
690.81	14876.44
690.95	15250.93
691.08	14822.61
691.22	14937.30
691.35	14787.50
691.49	14867.08
691.62	14675.16
691.76	14738.35
691.89	14829.63
692.03	14181.31
692.16	14197.69
692.30	14061.94
692.43	14136.84
692.57	14298.33
692.70	13898.10
692.84	13872.36
692.97	13825.54
693.11	13874.70
693.24	14008.11
693.38	13783.41
693.51	13888.74
693.65	13844.27
693.78	13668.73
693.92	13778.73
694.05	13577.45
694.19	13359.78
694.32	13661.71
694.45	13315.31
694.59	13434.68
694.72	13118.70
694.86	13507.23
694.99	12994.65
695.13	13092.96
695.26	13167.85
695.39	13144.45
695.53	13170.19
695.66	13114.02
695.80	12943.16
695.93	12915.08
696.07	12978.27
696.20	13027.42
696.33	12894.01
696.47	12739.54
696.60	12807.41
696.73	12465.69
696.87	12517.18
697.00	12521.87
697.14	12381.43
697.27	12135.68
697.40	12233.98
697.54	12100.57
697.67	12138.02
697.80	12098.23
697.94	12070.14
698.07	12035.03
698.21	11850.13
698.34	12231.64
698.47	12018.65
698.61	11892.26
698.74	11981.20
698.87	11859.49
699.01	11819.71
699.14	11782.26
699.27	11477.99
699.40	11723.74
699.54	11590.33
699.67	11639.48
699.80	11485.01
699.94	11307.13
700.07	11239.25
700.20	11253.30
700.34	11117.54
700.47	11068.39
700.60	11234.57
700.73	11222.87
700.87	11215.85
701.00	11101.16
701.13	10963.07
701.26	11105.84
701.40	10967.75
701.53	10597.95
701.66	11056.69
701.79	10888.17
701.93	10803.91
702.06	10637.73
702.19	10567.52
702.32	10661.14
702.46	10462.19
702.59	10424.75
702.72	10193.03
702.85	10221.12
702.99	10443.47
703.12	10197.71
703.25	10216.44
703.38	10387.30
703.51	10347.51
703.65	10216.44
703.78	10178.99
703.91	10097.07
704.04	9947.28
704.17	10033.88
704.31	10139.20
704.44	10003.45
704.57	9926.21
704.70	9825.57
704.83	9657.05
704.96	9626.62
705.10	9563.43
705.23	9547.05
>>>>>End Processed Spectral Data<<<<<
