SpectraSuite Data File
++++++++++++++++++++++++++++++++++++
Date: Fri Oct 18 13:58:33 GMT-05:00 2013
User: bianchi
Dark Spectrum Present: No
Reference Spectrum Present: No
Number of Sampled Component Spectra: 1
Spectrometers: USB2+H05261
Integration Time (usec): 50000 (USB2+H05261)
Spectra Averaged: 1 (USB2+H05261)
Boxcar Smoothing: 0 (USB2+H05261)
Correct for Electrical Dark: No (USB2+H05261)
Strobe/Lamp Enabled: No (USB2+H05261)
Correct for Detector Non-linearity: No (USB2+H05261)
Correct for Stray Light: No (USB2+H05261)
Number of Pixels in Processed Spectrum: 2048
>>>>>Begin Processed Spectral Data<<<<<
365.73	0.00
365.92	0.00
366.12	0.00
366.32	0.00
366.52	0.00
366.72	0.00
366.91	0.00
367.11	0.00
367.31	0.00
367.51	0.00
367.70	0.00
367.90	0.00
368.10	0.00
368.30	0.00
368.49	0.00
368.69	0.00
368.89	0.00
369.09	0.00
369.28	0.00
369.48	0.00
369.68	0.00
369.87	0.00
370.07	0.00
370.27	0.00
370.47	0.00
370.66	51.49
370.86	189.58
371.06	205.97
371.25	140.43
371.45	196.60
371.65	51.49
371.84	121.71
372.04	177.88
372.24	187.24
372.44	201.29
372.63	208.31
372.83	173.20
373.03	210.65
373.22	208.31
373.42	210.65
373.62	184.90
373.81	250.44
374.01	276.18
374.21	231.71
374.40	198.95
374.60	308.95
374.79	252.78
374.99	271.50
375.19	238.73
375.38	248.10
375.58	280.86
375.78	255.12
375.97	203.63
376.17	182.56
376.37	283.20
376.56	208.31
376.76	224.69
376.95	266.82
377.15	248.10
377.35	308.95
377.54	283.20
377.74	234.05
377.93	325.33
378.13	285.55
378.33	327.68
378.52	278.52
378.72	255.12
378.91	301.93
379.11	283.20
379.31	320.65
379.50	315.97
379.70	334.70
379.89	210.65
380.09	262.14
380.28	250.44
380.48	264.48
380.68	330.02
380.87	273.84
381.07	346.40
381.26	332.36
381.46	348.74
381.65	388.53
381.85	341.72
382.04	339.38
382.24	355.76
382.43	341.72
382.63	358.10
382.83	292.57
383.02	334.70
383.22	358.10
383.41	308.95
383.61	341.72
383.80	358.10
384.00	362.78
384.19	306.61
384.39	315.97
384.58	351.08
384.78	407.25
384.97	423.64
385.17	332.36
385.36	416.62
385.56	332.36
385.75	397.89
385.95	411.93
386.14	386.19
386.34	397.89
386.53	447.04
386.72	376.83
386.92	454.06
387.11	381.51
387.31	493.85
387.50	376.83
387.70	461.09
387.89	411.93
388.09	430.66
388.28	421.30
388.48	437.68
388.67	409.59
388.86	463.43
389.06	442.36
389.25	451.72
389.45	437.68
389.64	449.38
389.84	477.47
390.03	390.87
390.22	447.04
390.42	468.11
390.61	496.19
390.81	489.17
391.00	470.45
391.19	578.11
391.39	580.45
391.58	566.41
391.78	447.04
391.97	564.07
392.16	524.28
392.36	547.69
392.55	592.16
392.75	594.50
392.94	482.15
393.13	573.43
393.33	538.32
393.52	470.45
393.71	580.45
393.91	547.69
394.10	498.53
394.29	575.77
394.49	545.34
394.68	596.84
394.88	620.24
395.07	709.18
395.26	550.03
395.46	657.69
395.65	622.58
395.84	645.99
396.04	751.31
396.23	643.65
396.42	636.63
396.62	751.31
396.81	699.82
397.00	608.54
397.19	697.48
397.39	662.37
397.58	711.52
397.77	718.54
397.97	641.31
398.16	678.76
398.35	788.76
398.55	711.52
398.74	753.65
398.93	760.67
399.12	802.80
399.32	683.44
399.51	739.61
399.70	753.65
399.90	763.01
400.09	812.17
400.28	695.14
400.47	781.74
400.67	837.91
400.86	807.48
401.05	748.97
401.24	688.12
401.44	833.23
401.63	821.53
401.82	816.85
402.01	802.80
402.21	751.31
402.40	877.70
402.59	856.64
402.78	788.76
402.97	842.59
403.17	802.80
403.36	861.32
403.55	816.85
403.74	866.00
403.93	896.43
404.13	931.53
404.32	880.04
404.51	847.27
404.70	919.83
404.89	910.47
405.09	926.85
405.28	971.32
405.47	990.05
405.66	943.24
405.85	987.71
406.05	964.30
406.24	931.53
406.43	929.19
406.62	1060.26
406.81	961.96
407.00	1006.43
407.20	999.41
407.39	1008.77
407.58	1050.90
407.77	1001.75
407.96	1036.86
408.15	1062.60
408.34	1062.60
408.54	1043.88
408.73	1104.73
408.92	1078.99
409.11	1062.60
409.30	1146.86
409.49	1015.79
409.68	1102.39
409.87	1130.48
410.07	1186.65
410.26	1160.91
410.45	1221.76
410.64	1146.86
410.83	1200.69
411.02	1221.76
411.21	1210.06
411.40	1245.16
411.59	1221.76
411.78	1252.19
411.98	1249.85
412.17	1219.42
412.36	1317.72
412.55	1362.19
412.74	1315.38
412.93	1348.15
413.12	1373.89
413.31	1409.00
413.50	1439.43
413.69	1411.34
413.88	1420.71
414.07	1497.94
414.26	1544.75
414.45	1413.68
414.64	1441.77
414.83	1432.41
415.02	1526.03
415.22	1455.81
415.41	1570.50
415.60	1549.43
415.79	1593.90
415.98	1614.97
416.17	1605.61
416.36	1675.82
416.55	1577.52
416.74	1575.18
416.93	1591.56
417.12	1666.46
417.31	1619.65
417.50	1689.87
417.69	1734.34
417.88	1650.08
418.07	1668.80
418.26	1717.95
418.45	1696.89
418.64	1767.10
418.83	1788.17
419.02	1727.32
419.21	1860.73
419.39	1736.68
419.58	1727.32
419.77	1746.04
419.96	1795.19
420.15	1860.73
420.34	1827.96
420.53	1907.54
420.72	1937.96
420.91	1872.43
421.10	2005.84
421.29	1980.09
421.48	1823.28
421.67	1888.81
421.86	1834.98
422.05	1928.60
422.24	1937.96
422.43	1980.09
422.61	1982.43
422.80	2005.84
422.99	2097.12
423.18	1991.80
423.37	1984.77
423.56	1982.43
423.75	1949.67
423.94	1865.41
424.13	1881.79
424.32	1961.37
424.50	2045.63
424.69	2054.99
424.88	2080.74
425.07	1989.46
425.26	1984.77
425.45	2040.95
425.64	2172.02
425.83	1989.46
426.01	2057.33
426.20	2017.54
426.39	2054.99
426.58	1926.26
426.77	2069.03
426.96	2125.21
427.15	1928.60
427.33	2134.57
427.52	2064.35
427.71	2064.35
427.90	2118.18
428.09	2197.76
428.28	2186.06
428.46	2181.38
428.65	2118.18
428.84	2282.02
429.03	2300.75
429.22	2221.17
429.40	2289.04
429.59	2174.36
429.78	2054.99
429.97	2101.80
430.16	2272.66
430.34	2310.11
430.53	2399.05
430.72	2296.07
430.91	2244.57
431.10	2326.49
431.28	2312.45
431.47	2361.60
431.66	2495.01
431.85	2307.77
432.03	2286.70
432.22	2438.84
432.41	2305.43
432.60	2408.41
432.79	2476.29
432.97	2495.01
433.16	2438.84
433.35	2476.29
433.54	2457.56
433.72	2602.68
433.91	2483.31
434.10	2478.63
434.28	2403.73
434.47	2572.25
434.66	2553.52
434.85	2605.02
435.03	2607.36
435.22	2560.55
435.41	2637.78
435.59	2672.89
435.78	2583.95
435.97	2595.65
436.16	2544.16
436.34	2642.46
436.53	2747.79
436.72	2789.92
436.90	2705.66
437.09	2733.75
437.28	2700.98
437.46	2672.89
437.65	2794.60
437.84	2747.79
438.02	2752.47
438.21	2796.94
438.40	2722.04
438.58	2808.64
438.77	2930.35
438.96	2829.71
439.14	2991.20
439.33	2974.82
439.52	2935.03
439.70	2986.52
439.89	2939.71
440.08	3185.47
440.26	3094.19
440.45	3115.25
440.63	3002.91
440.82	3087.17
441.01	2963.12
441.19	3152.70
441.38	3187.81
441.57	3169.09
441.75	3220.58
441.94	3405.48
442.12	3253.34
442.31	3173.77
442.50	3351.65
442.68	3269.73
442.87	3328.24
443.05	3452.29
443.24	3335.26
443.43	3410.16
443.61	3302.50
443.80	3407.82
443.98	3325.90
444.17	3190.15
444.35	3487.40
444.54	3382.07
444.73	3454.63
444.91	3384.41
445.10	3468.67
445.28	3328.24
445.47	3323.56
445.65	3377.39
445.84	3562.30
446.02	3531.87
446.21	3531.87
446.39	3534.21
446.58	3531.87
446.77	3400.80
446.95	3274.41
447.14	3452.29
447.32	3574.00
447.51	3459.31
447.69	3386.76
447.88	3492.08
448.06	3508.46
448.25	3438.25
448.43	3501.44
448.62	3543.57
448.80	3585.70
448.99	3669.96
449.17	3513.14
449.36	3529.53
449.54	3641.87
449.73	3721.45
449.91	3733.15
450.10	3655.92
450.28	3641.87
450.46	3765.92
450.65	3709.75
450.83	3700.39
451.02	3885.29
451.20	3779.97
451.39	3939.12
451.57	3595.06
451.76	3648.90
451.94	3772.94
452.13	3803.37
452.31	3845.50
452.49	3719.11
452.68	3854.86
452.86	3829.12
453.05	3962.53
453.23	3847.84
453.42	3822.09
453.60	3868.91
453.78	3864.22
453.97	3784.65
454.15	3887.63
454.34	3927.42
454.52	4039.76
454.70	3990.61
454.89	4011.68
455.07	4046.79
455.26	3957.85
455.44	3985.93
455.62	4191.90
455.81	4021.04
455.99	4023.38
456.17	4074.87
456.36	4126.36
456.54	4196.58
456.73	4175.52
456.91	4170.83
457.09	4248.07
457.28	4341.69
457.46	4367.44
457.64	4477.44
457.83	4276.16
458.01	4191.90
458.19	4418.93
458.38	4437.66
458.56	4313.61
458.74	4496.17
458.93	4491.49
459.11	4351.06
459.29	4409.57
459.48	4423.61
459.66	4409.57
459.84	4519.57
460.03	4568.73
460.21	4545.32
460.39	4638.94
460.57	4365.10
460.76	4416.59
460.94	4624.90
461.12	4603.83
461.31	4582.77
461.49	4601.49
461.67	4454.04
461.85	4648.30
462.04	4463.40
462.22	4709.16
462.40	4805.12
462.59	4786.40
462.77	4891.72
462.95	4772.35
463.13	4657.67
463.32	4746.61
463.50	4662.35
463.68	4821.50
463.86	4912.78
464.05	4894.06
464.23	4552.34
464.41	4938.53
464.59	4725.54
464.78	4877.68
464.96	4964.28
465.14	4849.59
465.32	4840.23
465.50	5088.32
465.69	5121.09
465.87	4833.21
466.05	5069.60
466.23	5149.18
466.41	5006.41
466.60	5181.95
466.78	4931.51
466.96	5025.13
467.14	5020.45
467.32	5046.20
467.51	5095.35
467.69	4997.04
467.87	5076.62
468.05	5097.69
468.23	5137.48
468.41	5025.13
468.60	5146.84
468.78	5287.27
468.96	5200.67
469.14	5238.12
469.32	5172.58
469.50	5301.31
469.69	5327.06
469.87	5167.90
470.05	5320.04
470.23	5303.65
470.41	5378.55
470.59	5589.20
470.77	5500.26
470.95	5338.76
471.14	5582.18
471.32	5413.66
471.50	5593.88
471.68	5689.84
471.86	5645.37
472.04	5455.79
472.22	5593.88
472.40	5408.98
472.58	5572.82
472.77	5708.57
472.95	5778.78
473.13	6071.35
473.31	5804.53
473.49	5757.72
473.67	5727.29
473.85	5776.44
474.03	5956.66
474.21	6003.47
474.39	6127.52
474.57	6071.35
474.75	6101.78
474.93	6057.31
475.12	6179.01
475.30	6043.26
475.48	6352.21
475.66	6155.61
475.84	6277.32
476.02	6335.83
476.20	6300.72
476.38	6387.32
476.56	6464.56
476.74	6497.33
476.92	6506.69
477.10	6607.33
477.28	6520.73
477.46	6324.13
477.64	6567.54
477.82	6572.22
478.00	6691.59
478.18	6932.67
478.36	6946.71
478.54	7098.84
478.72	7068.42
478.90	7145.66
479.08	7140.97
479.26	7009.90
479.44	7204.17
479.62	7279.07
479.80	7243.96
479.98	7382.05
480.16	7651.21
480.34	7344.60
480.52	7426.52
480.70	7573.97
480.88	7515.46
481.06	7688.66
481.24	7726.11
481.41	7906.33
481.59	7758.88
481.77	8023.36
481.95	8149.75
482.13	7941.44
482.31	8161.45
482.49	8163.79
482.67	8163.79
482.85	8229.32
483.03	8521.89
483.21	8362.73
483.39	8498.49
483.57	8627.21
483.74	8669.34
483.92	8667.00
484.10	8608.49
484.28	8723.18
484.46	8931.48
484.64	9233.41
484.82	8982.98
485.00	9118.73
485.18	9193.62
485.35	9427.68
485.53	9317.67
485.71	9451.08
485.89	9387.89
486.07	9355.12
486.25	9554.07
486.43	9497.89
486.61	9790.46
486.78	9708.54
486.96	9745.99
487.14	10033.88
487.32	9895.78
487.50	10258.57
487.68	10071.33
487.85	10178.99
488.03	10516.03
488.21	10389.64
488.39	10665.82
488.57	10406.02
488.75	10600.29
488.92	10956.05
489.10	10789.87
489.28	10810.93
489.46	11049.67
489.64	10855.40
489.81	11335.21
489.99	11075.42
490.17	11152.65
490.35	11300.11
490.53	11485.01
490.70	11634.80
490.88	11499.05
491.06	11800.98
491.24	11548.20
491.41	11707.36
491.59	11836.09
491.77	11721.40
491.95	11967.16
492.13	12123.98
492.30	12128.66
492.48	12245.68
492.66	12205.89
492.84	12294.83
493.01	12512.50
493.19	12456.33
493.37	12599.10
493.54	12798.05
493.72	12627.19
493.90	12809.75
494.08	12753.58
494.25	13085.94
494.43	12985.29
494.61	12994.65
494.79	13273.18
494.96	13245.09
495.14	13238.07
495.32	13535.32
495.49	13392.55
495.67	13664.05
495.85	13734.26
496.02	13935.55
496.20	13813.84
496.38	13970.66
496.55	13774.05
496.73	14075.98
496.91	14083.00
497.09	14193.01
497.26	14384.93
497.44	14099.39
497.62	14270.25
497.79	14754.74
497.97	14434.08
498.14	14679.84
498.32	14792.19
498.50	14743.03
498.67	14862.40
498.85	14537.07
499.03	14672.82
499.20	14771.12
499.38	15061.35
499.56	15166.67
499.73	14920.92
499.91	15389.02
500.08	15300.08
500.26	14724.31
500.44	15360.94
500.61	15342.21
500.79	15133.90
500.97	15440.51
501.14	15594.99
501.32	15983.52
501.49	15786.91
501.67	15798.62
501.84	15882.88
502.02	15751.81
502.20	16182.46
502.37	16180.12
502.55	16079.48
502.72	16121.61
502.90	16067.78
503.07	16219.91
503.25	16177.78
503.43	16259.70
503.60	16568.65
503.78	16318.22
503.95	16255.02
504.13	16477.37
504.30	16542.91
504.48	16613.12
504.65	16468.01
504.83	16517.16
505.01	17060.16
505.18	16952.50
505.36	16772.28
505.53	16685.68
505.71	16929.09
505.88	17071.87
506.06	16793.34
506.23	17174.85
506.41	17362.09
506.58	17504.87
506.76	17493.16
506.93	17357.41
507.11	17242.73
507.28	17268.47
507.46	17521.25
507.63	17614.87
507.81	17785.73
507.98	17635.94
508.16	17507.21
508.33	17692.11
508.50	17558.70
508.68	17598.49
508.85	17956.59
509.03	17834.88
509.20	18225.75
509.38	18277.24
509.55	18101.70
509.73	18108.72
509.90	18450.44
510.08	18415.34
510.25	18312.35
510.42	18347.46
510.60	18597.90
510.77	18792.16
510.95	18588.53
511.12	18335.76
511.30	18588.53
511.47	18506.62
511.64	18696.20
511.82	18815.57
511.99	19164.31
512.17	18735.99
512.34	18764.07
512.51	19218.14
512.69	19227.50
512.86	19061.32
513.04	19468.58
513.21	19208.78
513.38	19351.55
513.56	19159.63
513.73	19461.55
513.90	19321.12
514.08	19466.24
514.25	19702.63
514.43	19466.24
514.60	19594.96
514.77	19609.01
514.95	19660.50
515.12	19515.39
515.29	19695.61
515.47	19578.58
515.64	19674.54
515.81	20217.55
515.99	19840.72
516.16	20004.56
516.33	20355.64
516.51	20350.96
516.68	20299.47
516.85	19995.20
517.03	20184.78
517.20	20257.34
517.37	20795.66
517.54	20437.56
517.72	20570.97
517.89	20102.86
518.06	20566.29
518.24	20596.71
518.41	20393.09
518.58	20575.65
518.75	20465.64
518.93	20732.47
519.10	20631.82
519.27	20498.41
519.45	20751.19
519.62	20741.83
519.79	21132.70
519.96	20964.18
520.14	21174.83
520.31	20957.16
520.48	21312.92
520.65	21125.68
520.83	21729.53
521.00	21247.38
521.17	21322.28
521.34	21202.91
521.52	21479.10
521.69	21345.69
521.86	21570.38
522.03	21762.30
522.20	21612.51
522.38	21668.68
522.55	21752.94
522.72	21766.98
522.89	21738.90
523.07	21762.30
523.24	22087.64
523.41	21947.20
523.58	21888.69
523.75	21862.94
523.92	22141.47
524.10	22038.48
524.27	21963.59
524.44	22253.81
524.61	22298.28
524.78	22328.71
524.96	22469.14
525.13	21975.29
525.30	22405.95
525.47	22476.16
525.64	22183.60
525.81	22651.70
525.98	22263.18
526.16	22473.82
526.33	22600.21
526.50	22827.24
526.67	22604.89
526.84	22640.00
527.01	22616.60
527.18	22991.08
527.36	22953.63
527.53	22878.74
527.70	22923.21
527.87	23393.65
528.04	23332.80
528.21	23047.26
528.38	22845.97
528.55	23358.55
528.72	23138.54
528.89	22904.48
529.07	23063.64
529.24	23190.03
529.41	23278.97
529.58	23250.88
529.75	23096.41
529.92	23452.17
530.09	23381.95
530.26	23583.24
530.43	23545.79
530.60	23040.23
530.77	23089.38
530.94	23557.49
531.11	23459.19
531.28	23592.60
531.46	23351.52
531.63	23988.15
531.80	23772.82
531.97	23981.13
532.14	24074.75
532.31	23847.72
532.48	23943.68
532.65	23894.53
532.82	23962.40
532.99	24301.78
533.16	23599.62
533.33	24264.33
533.50	24187.10
533.67	24601.37
533.84	24100.50
534.01	24051.34
534.18	24121.56
534.35	24269.01
534.52	24074.75
534.69	24379.02
534.86	24510.09
535.03	24203.48
535.20	24278.38
535.37	24676.27
535.54	24584.99
535.71	24280.72
535.88	24620.10
536.05	24240.93
536.22	25216.93
536.38	24716.06
536.55	24276.04
536.72	25242.68
536.89	24669.25
537.06	24957.13
537.23	25120.97
537.40	24884.58
537.57	24807.34
537.74	24835.42
537.91	25216.93
538.08	25015.65
538.25	24996.92
538.42	24987.56
538.59	25324.60
538.75	25158.42
538.92	25127.99
539.09	25177.14
539.26	25181.82
539.43	25326.94
539.60	25701.42
539.77	25289.49
539.94	25268.42
540.11	25247.36
540.28	25589.08
540.44	25205.23
540.61	25296.51
540.78	25710.78
540.95	25266.08
541.12	25549.29
541.29	25319.92
541.46	25036.71
541.62	25338.64
541.79	25933.14
541.96	25479.07
542.13	25523.54
542.30	25792.70
542.47	25514.18
542.63	26033.78
542.80	26057.18
542.97	26363.79
543.14	26115.70
543.31	26087.61
543.48	25834.83
543.64	26586.15
543.81	26508.91
543.98	26228.04
544.15	26167.19
544.32	26363.79
544.48	26749.98
544.65	26363.79
544.82	26436.35
544.99	26209.32
545.16	26546.36
545.32	26508.91
545.49	26703.17
545.66	26735.94
545.83	26576.78
546.00	26522.95
546.16	26618.91
546.33	26349.75
546.50	26565.08
546.67	26738.28
546.83	26541.68
547.00	26607.21
547.17	26689.13
547.34	26801.47
547.50	26691.47
547.67	27243.84
547.84	27040.21
548.00	27096.38
548.17	27112.77
548.34	27040.21
548.51	27274.26
548.67	27248.52
548.84	27199.37
549.01	27267.24
549.18	26733.60
549.34	27042.55
549.51	27168.94
549.68	27391.29
549.84	26941.91
550.01	27505.98
550.18	27075.32
550.34	27335.12
550.51	27267.24
550.68	27510.66
550.84	27257.88
551.01	27608.96
551.18	27220.43
551.34	27126.81
551.51	27367.88
551.68	27569.17
551.84	27374.91
552.01	27278.94
552.18	27716.62
552.34	27290.65
552.51	27831.31
552.68	27482.57
552.84	27585.55
553.01	27580.87
553.18	27688.54
553.34	27716.62
553.51	27587.89
553.67	27946.00
553.84	28077.07
554.01	27927.27
554.17	27969.40
554.34	27819.61
554.51	27740.03
554.67	28109.83
554.84	27807.90
555.00	27775.14
555.17	27840.67
555.33	28046.64
555.50	28034.94
555.67	28034.94
555.83	27896.85
556.00	28081.75
556.16	28226.86
556.33	28254.95
556.50	28086.43
556.66	28283.03
556.83	27960.04
556.99	28233.88
557.16	28390.70
557.32	27967.06
557.49	28233.88
557.65	28233.88
557.82	28250.27
557.98	27843.01
558.15	28290.06
558.32	28664.54
558.48	28002.17
558.65	28149.62
558.81	28140.26
558.98	28348.57
559.14	28505.38
559.31	28266.65
559.47	28411.76
559.64	28603.69
559.80	28559.22
559.97	28463.25
560.13	28512.41
560.30	28493.68
560.46	28716.03
560.63	28912.64
560.79	28540.49
560.96	28283.03
561.12	28439.85
561.29	28650.50
561.45	28601.35
561.61	28697.31
561.78	28797.95
561.94	28809.65
562.11	28659.86
562.27	28732.42
562.44	28940.72
562.60	28484.32
562.77	28627.09
562.93	28313.46
563.10	28510.07
563.26	28765.18
563.42	29254.36
563.59	28727.74
563.75	29029.66
563.92	28938.38
564.08	28683.27
564.24	28671.56
564.41	28966.47
564.57	28701.99
564.74	29123.29
564.90	29085.84
565.07	28865.83
565.23	29076.48
565.39	28744.12
565.56	29071.79
565.72	29006.26
565.88	28767.52
566.05	28952.43
566.21	29214.57
566.38	29205.20
566.54	28744.12
566.70	28975.83
566.87	29144.35
567.03	29338.62
567.19	29287.12
567.36	29216.91
567.52	29329.25
567.68	28657.52
567.85	29039.03
568.01	29296.49
568.17	29076.48
568.34	29340.96
568.50	29319.89
568.66	28779.23
568.83	29738.85
568.99	29167.76
569.15	29177.12
569.32	29333.93
569.48	29010.94
569.64	28989.88
569.81	29270.74
569.97	29387.77
570.13	29315.21
570.30	28910.30
570.46	29380.74
570.62	29319.89
570.78	29296.49
570.95	29226.27
571.11	29247.33
571.27	29050.73
571.43	28861.15
571.60	29284.78
571.76	29392.45
571.92	29219.25
572.09	29223.93
572.25	29509.47
572.41	29223.93
572.57	29380.74
572.74	29656.93
572.90	29221.59
573.06	29596.07
573.22	29429.90
573.38	29177.12
573.55	29319.89
573.71	29689.70
573.87	29223.93
574.03	29207.55
574.20	29366.70
574.36	29434.58
574.52	29656.93
574.68	29556.28
574.84	29532.88
575.01	29575.01
575.17	29635.86
575.33	29158.39
575.49	29352.66
575.65	29647.57
575.82	29696.72
575.98	29301.17
576.14	29539.90
576.30	29586.71
576.46	29125.63
576.62	29469.69
576.79	29560.97
576.95	29270.74
577.11	29692.04
577.27	29701.40
577.43	29628.84
577.59	29558.63
577.75	29422.87
577.92	29240.31
578.08	29567.99
578.24	29670.97
578.40	29406.49
578.56	29369.04
578.72	29673.31
578.88	29465.00
579.04	29610.12
579.21	29460.32
579.37	29694.38
579.53	29411.17
579.69	29151.37
579.85	29633.52
580.01	29661.61
580.17	29518.84
580.33	29675.65
580.49	29544.58
580.65	29663.95
580.82	29450.96
580.98	29626.50
581.14	29490.75
581.30	29949.50
581.46	29362.02
581.62	30005.67
581.78	29177.12
581.94	29551.60
582.10	29387.77
582.26	29647.57
582.42	29722.46
582.58	29696.72
582.74	29729.48
582.90	29610.12
583.06	29582.03
583.22	29750.55
583.38	29572.67
583.54	29369.04
583.70	29893.32
583.86	29722.46
584.02	29472.03
584.18	29839.49
584.34	29905.02
584.50	29584.37
584.66	29596.07
584.82	29275.42
584.98	29312.87
585.14	30045.46
585.30	29825.45
585.46	29525.86
585.62	29539.90
585.78	29778.64
585.94	30015.03
586.10	30031.41
586.26	29743.53
586.42	29886.30
586.58	29780.98
586.74	29806.72
586.90	29654.59
587.06	29677.99
587.22	29453.30
587.38	29890.98
587.54	29743.53
587.70	29649.91
587.86	29982.26
588.02	29839.49
588.18	30033.75
588.34	30136.74
588.49	29837.15
588.65	29825.45
588.81	29762.25
588.97	29645.23
589.13	29614.80
589.29	29832.47
589.45	29727.14
589.61	30300.58
589.77	29715.44
589.93	29998.65
590.08	30316.96
590.24	30155.46
590.40	30094.61
590.56	29834.81
590.72	30099.29
590.88	29912.05
591.04	29497.77
591.20	30452.71
591.35	29853.53
591.51	30302.92
591.67	29991.62
591.83	30279.51
591.99	29989.28
592.15	29890.98
592.31	30312.28
592.46	30089.93
592.62	30110.99
592.78	29890.98
592.94	30066.52
593.10	30270.15
593.26	30061.84
593.41	30188.23
593.57	30309.94
593.73	29958.86
593.89	30237.38
594.05	30221.00
594.20	30061.84
594.36	29979.92
594.52	29706.08
594.68	30110.99
594.84	30228.02
594.99	30780.39
595.15	30417.60
595.31	30719.53
595.47	30129.72
595.62	30265.47
595.78	30057.16
595.94	30054.82
596.10	30110.99
596.25	30668.04
596.41	30181.21
596.57	29837.15
596.73	29993.97
596.88	30057.16
597.04	30553.35
597.20	30281.85
597.36	30190.57
597.51	29975.24
597.67	30291.21
597.83	30078.22
597.99	30134.40
598.14	30029.07
598.30	30213.98
598.46	29860.55
598.61	30003.33
598.77	30295.89
598.93	30394.20
599.09	30146.10
599.24	30574.42
599.40	30162.48
599.56	30719.53
599.71	30515.90
599.87	30293.55
600.03	30242.06
600.18	30192.91
600.34	30181.21
600.50	30270.15
600.65	30258.45
600.81	30511.22
600.97	30316.96
601.12	30675.06
601.28	30267.81
601.44	30314.62
601.59	30181.21
601.75	29848.85
601.91	30527.61
602.06	30213.98
602.22	30452.71
602.37	30223.34
602.53	29921.41
602.69	30143.76
602.84	30389.52
603.00	30656.34
603.16	30270.15
603.31	30143.76
603.47	30602.50
603.62	30080.56
603.78	29993.97
603.94	30307.60
604.09	30143.76
604.25	30340.36
604.40	30192.91
604.56	30429.30
604.71	30326.32
604.87	30270.15
605.03	29968.22
605.18	29972.90
605.34	30405.90
605.49	29961.20
605.65	30331.00
605.80	29909.71
605.96	30335.68
606.12	29933.11
606.27	30171.85
606.43	29919.07
606.58	30469.09
606.74	30302.92
606.89	30422.28
607.05	30192.91
607.20	30127.38
607.36	30054.82
607.51	29933.11
607.67	29883.96
607.82	29825.45
607.98	29841.83
608.13	29998.65
608.29	30078.22
608.44	29961.20
608.60	29982.26
608.75	30546.33
608.91	30312.28
609.06	30167.16
609.22	30085.25
609.37	30363.77
609.53	30178.87
609.68	30019.71
609.84	29963.54
609.99	29759.91
610.15	29642.88
610.30	29898.00
610.46	29823.11
610.61	29914.39
610.76	30300.58
610.92	30424.62
611.07	29958.86
611.23	29593.73
611.38	29830.13
611.54	29708.42
611.69	29263.72
611.84	29640.54
612.00	30015.03
612.15	29998.65
612.31	30108.65
612.46	29876.94
612.62	30118.01
612.77	30019.71
612.92	30010.35
613.08	29886.30
613.23	29834.81
613.39	29839.49
613.54	29701.40
613.69	29727.14
613.85	29638.20
614.00	29816.08
614.15	30087.59
614.31	29380.74
614.46	29401.81
614.62	29635.86
614.77	29886.30
614.92	29628.84
615.08	29762.25
615.23	29645.23
615.38	29425.22
615.54	29160.73
615.69	29839.49
615.84	29244.99
616.00	29439.26
616.15	29556.28
616.30	29347.98
616.46	29446.28
616.61	29282.44
616.76	29589.05
616.92	29682.67
617.07	29376.06
617.22	29488.41
617.37	29518.84
617.53	29434.58
617.68	29191.16
617.83	29296.49
617.99	29095.20
618.14	29256.70
618.29	29682.67
618.45	29378.40
618.60	29556.28
618.75	29015.62
618.90	29146.69
619.06	29495.43
619.21	29090.52
619.36	29422.87
619.51	29212.23
619.67	28947.75
619.82	29235.63
619.97	28952.43
620.12	28973.49
620.28	29170.10
620.43	28891.57
620.58	29542.24
620.73	29160.73
620.89	29193.50
621.04	29369.04
621.19	29357.34
621.34	29366.70
621.49	28919.66
621.65	28877.53
621.80	29270.74
621.95	28755.82
622.10	29270.74
622.25	28589.64
622.41	29081.16
622.56	28914.98
622.71	29085.84
622.86	28992.22
623.01	28758.16
623.16	28816.68
623.32	28456.23
623.47	28561.56
623.62	28779.23
623.77	28816.68
623.92	28659.86
624.07	28797.95
624.23	28868.17
624.38	28629.43
624.53	28699.65
624.68	29109.24
624.83	28828.38
624.98	29146.69
625.13	28882.21
625.29	28945.41
625.44	28907.96
625.59	28453.89
625.74	28240.90
625.89	28746.46
626.04	28173.03
626.19	28388.36
626.34	27934.29
626.49	28074.73
626.65	27889.82
626.80	28580.28
626.95	28477.30
627.10	28306.44
627.25	28425.81
627.40	28240.90
627.55	28070.04
627.70	27967.06
627.85	28336.87
628.00	28004.51
628.15	27969.40
628.30	27683.86
628.45	27887.48
628.60	28355.59
628.76	28362.61
628.91	28292.40
629.06	27960.04
629.21	28528.79
629.36	28259.63
629.51	28390.70
629.66	27992.81
629.81	27833.65
629.96	28215.16
630.11	27920.25
630.26	27843.01
630.41	27981.10
630.56	27529.38
630.71	27978.76
630.86	27915.57
631.01	27676.83
631.16	27938.97
631.31	27810.25
631.46	27908.55
631.61	27800.88
631.76	27938.97
631.91	27901.53
632.06	27601.94
632.21	27693.22
632.36	27534.06
632.51	27618.32
632.66	27889.82
632.81	27285.97
632.96	27559.81
633.10	27761.09
633.25	27410.01
633.40	27550.45
633.55	27704.92
633.70	27470.87
633.85	27583.21
634.00	27515.34
634.15	27873.44
634.30	27569.17
634.45	27487.25
634.60	27585.55
634.75	27524.70
634.90	27482.57
635.05	27742.37
635.19	27674.49
635.34	27672.15
635.49	27491.93
635.64	27381.93
635.79	27733.01
635.94	27473.21
636.09	27489.59
636.24	27346.82
636.39	27105.74
636.53	27232.13
636.68	27220.43
636.83	26859.99
636.98	27520.02
637.13	27344.48
637.28	27101.06
637.43	27159.58
637.57	27524.70
637.72	26855.31
637.87	26930.20
638.02	27164.26
638.17	26757.00
638.32	27089.36
638.46	26916.16
638.61	26852.97
638.76	26813.18
638.91	27030.85
639.06	27168.94
639.20	26991.06
639.35	27321.07
639.50	27204.05
639.65	27204.05
639.80	27159.58
639.94	27145.53
640.09	26845.94
640.24	26771.05
640.39	26717.22
640.54	27044.89
640.68	26639.98
640.83	26602.53
640.98	26536.99
641.13	26410.60
641.27	26593.17
641.42	26478.48
641.57	26834.24
641.72	27215.75
641.86	26981.70
642.01	26267.83
642.16	26745.30
642.31	26136.76
642.45	26787.43
642.60	26181.23
642.75	26340.39
642.90	26366.13
643.04	26396.56
643.19	25916.75
643.34	26504.23
643.48	26888.07
643.63	26455.08
643.78	26328.69
643.93	26443.37
644.07	26546.36
644.22	26419.97
644.37	26398.90
644.51	26483.16
644.66	26118.04
644.81	26012.71
644.95	26272.51
645.10	26382.52
645.25	25893.35
645.39	26429.33
645.54	26321.66
645.69	26015.05
645.83	26171.87
645.98	26305.28
646.13	26342.73
646.27	26408.26
646.42	26033.78
646.57	26232.72
646.71	26017.40
646.86	26059.52
647.00	26256.13
647.15	26223.36
647.30	26099.31
647.44	25855.90
647.59	26066.55
647.74	26230.38
647.88	26118.04
648.03	26008.03
648.17	26209.32
648.32	26017.40
648.47	26242.09
648.61	25968.24
648.76	26239.75
648.90	25773.98
649.05	25820.79
649.20	25401.83
649.34	25706.10
649.49	25659.29
649.63	25867.60
649.78	26010.37
649.92	25420.56
650.07	25958.88
650.21	26071.23
650.36	25486.09
650.51	25743.55
650.65	25827.81
650.80	25942.50
650.94	25502.48
651.09	25415.88
651.23	25305.87
651.38	25633.55
651.52	25610.14
651.67	25591.42
651.81	25521.20
651.96	25851.22
652.10	25418.22
652.25	25277.79
652.39	25535.24
652.54	25841.85
652.68	25504.82
652.83	25802.07
652.97	25549.29
653.12	25455.67
653.26	25401.83
653.41	25144.38
653.55	25226.29
653.70	25160.76
653.84	25146.72
653.99	25310.55
654.13	25156.08
654.27	24893.94
654.42	25113.95
654.56	25443.96
654.71	25455.67
654.85	25408.86
655.00	25671.00
655.14	25252.04
655.29	25207.57
655.43	25198.21
655.57	25125.65
655.72	25137.35
655.86	25130.33
656.01	25153.74
656.15	24987.56
656.30	24929.05
656.44	25055.43
656.58	25118.63
656.73	24891.60
656.87	24856.49
657.01	24978.20
657.16	24992.24
657.30	24929.05
657.45	25340.98
657.59	24929.05
657.73	24783.93
657.88	25076.50
658.02	24685.63
658.16	24552.22
658.31	24533.50
658.45	24584.99
658.60	24580.31
658.74	24758.19
658.88	24437.53
659.03	24250.29
659.17	24568.60
659.31	24589.67
659.46	24322.85
659.60	24875.21
659.74	24702.01
659.89	24151.99
660.03	24781.59
660.17	24458.60
660.32	24606.05
660.46	24259.65
660.60	24236.25
660.74	24362.64
660.89	24196.46
661.03	23922.62
661.17	24215.18
661.32	24222.20
661.46	24100.50
661.60	23981.13
661.74	24320.51
661.89	24257.31
662.03	24142.63
662.17	24154.33
662.31	23658.14
662.46	24039.64
662.60	24252.63
662.74	23988.15
662.88	24187.10
663.03	23850.06
663.17	23772.82
663.31	23227.48
663.45	23365.57
663.60	23590.26
663.74	23791.55
663.88	23899.21
664.02	23599.62
664.17	23955.38
664.31	23641.75
664.45	23637.07
664.59	23639.41
664.73	23473.23
664.88	22869.37
665.02	23419.40
665.16	23473.23
665.30	23168.96
665.44	23552.81
665.59	22995.76
665.73	23005.13
665.87	23047.26
666.01	23473.23
666.15	23110.45
666.29	23161.94
666.44	22977.04
666.58	22871.72
666.72	22934.91
666.86	23346.84
667.00	23185.35
667.14	22960.66
667.28	22801.50
667.43	22670.43
667.57	22988.74
667.71	22717.24
667.85	22740.64
667.99	22546.38
668.13	22588.51
668.27	22579.15
668.41	22466.80
668.56	22338.07
668.70	22522.98
668.84	22904.48
668.98	22305.31
669.12	22499.57
669.26	22443.40
669.40	22735.96
669.54	22445.74
669.68	22375.52
669.82	22389.56
669.96	22120.40
670.10	22288.92
670.25	22047.85
670.39	22174.24
670.53	21998.70
670.67	21947.20
670.81	22003.38
670.95	21823.16
671.09	21675.70
671.23	22022.10
671.37	22197.64
671.51	22335.73
671.65	22204.66
671.79	22054.87
671.93	21731.87
672.07	21706.13
672.21	21778.68
672.35	21458.03
672.49	21221.64
672.63	21628.89
672.77	21518.89
672.91	21270.79
673.05	21453.35
673.19	21291.85
673.33	21706.13
673.47	21179.51
673.61	21326.96
673.75	21291.85
673.89	21348.03
674.03	21303.56
674.17	21252.06
674.31	21338.66
674.45	20767.57
674.59	20781.62
674.73	20741.83
674.87	20912.69
675.01	20987.58
675.15	20631.82
675.29	20748.85
675.43	20868.22
675.56	20805.02
675.70	20664.59
675.84	20533.52
675.98	20163.72
676.12	20596.71
676.26	20662.25
676.40	20570.97
676.54	20400.11
676.68	20547.56
676.82	20086.48
676.96	20219.89
677.10	20168.40
677.23	19878.17
677.37	19889.87
677.51	19939.02
677.65	19932.00
677.79	19915.62
677.93	19679.22
678.07	19719.01
678.21	19594.96
678.34	19583.26
678.48	19318.78
678.62	19396.02
678.76	19264.95
678.90	19267.29
679.04	19482.62
679.18	19255.59
679.31	19241.54
679.45	19201.76
679.59	19037.92
679.73	19047.28
679.87	18836.63
680.00	18778.12
680.14	18834.29
680.28	19061.32
680.42	19021.53
680.56	18874.08
680.70	18820.25
680.83	18761.73
680.97	18539.38
681.11	18618.96
681.25	18724.29
681.39	18679.82
681.52	18530.02
681.66	18625.98
681.80	18279.58
681.94	18253.84
682.07	18195.32
682.21	17912.12
682.35	17916.80
682.49	17762.33
682.62	17642.96
682.76	17893.40
682.90	17881.69
683.04	18047.87
683.17	17891.06
683.31	17846.58
683.45	17811.48
683.59	17654.66
683.72	17422.95
683.86	17518.91
684.00	17427.63
684.13	17537.63
684.27	17429.97
684.41	17179.53
684.55	17343.37
684.68	17067.19
684.82	16985.27
684.96	17209.96
685.09	16758.24
685.23	17116.34
685.37	16891.65
685.50	17006.33
685.64	16919.73
685.78	17188.89
685.91	16893.99
686.05	16924.41
686.19	16671.64
686.32	16865.90
686.46	16449.28
686.60	16290.13
686.73	16479.71
686.87	16353.32
687.01	16046.71
687.14	16189.49
687.28	15948.41
687.42	15999.90
687.55	15936.71
687.69	16154.38
687.82	15948.41
687.96	16116.93
688.10	16166.08
688.23	15765.85
688.37	15770.53
688.50	15704.99
688.64	16027.99
688.78	15712.02
688.91	15438.17
689.05	15442.85
689.18	15391.36
689.32	15005.17
689.46	15372.64
689.59	15309.44
689.73	15377.32
689.86	15288.38
690.00	14956.02
690.13	15253.27
690.27	14972.41
690.41	14820.27
690.54	14925.60
690.68	14941.98
690.81	14988.79
690.95	14988.79
691.08	14843.68
691.22	14860.06
691.35	14782.82
691.49	14595.58
691.62	14679.84
691.76	14424.72
691.89	14326.42
692.03	14293.65
692.16	14230.46
692.30	14108.75
692.43	14071.30
692.57	14195.35
692.70	14038.53
692.84	14012.79
692.97	13958.96
693.11	14036.19
693.24	13781.07
693.38	13806.82
693.51	13792.78
693.65	13965.98
693.78	13458.08
693.92	13680.43
694.05	13722.56
694.19	13453.40
694.32	13458.08
694.45	13319.99
694.59	13069.55
694.72	13188.92
694.86	13048.49
694.99	13142.11
695.13	13076.57
695.26	13050.83
695.39	13071.89
695.53	13071.89
695.66	12992.31
695.80	12975.93
695.93	13107.00
696.07	12940.82
696.20	12870.61
696.33	12915.08
696.47	12648.26
696.60	12545.27
696.73	12587.40
696.87	12514.84
697.00	12643.57
697.14	12655.28
697.27	12231.64
697.40	12058.44
697.54	12264.41
697.67	12233.98
697.80	12128.66
697.94	11981.20
698.07	11913.33
698.21	11903.96
698.34	11981.20
698.47	12039.72
698.61	12051.42
698.74	11843.11
698.87	11981.20
699.01	11927.37
699.14	11676.93
699.27	11723.74
699.40	11824.39
699.54	11414.79
699.67	11321.17
699.80	11349.26
699.94	11377.34
700.07	11061.37
700.20	11232.23
700.34	11190.10
700.47	11171.38
700.60	11190.10
700.73	11325.85
700.87	11052.01
701.00	10864.77
701.13	10946.69
701.26	10979.45
701.40	11162.01
701.53	10991.16
701.66	10951.37
701.79	10796.89
701.93	10621.35
702.06	10698.59
702.19	10700.93
702.32	10406.02
702.46	10504.32
702.59	10310.06
702.72	10532.41
702.85	10473.90
702.99	10338.15
703.12	10410.70
703.25	10221.12
703.38	10164.95
703.51	10164.95
703.65	10291.34
703.78	10017.49
703.91	10202.40
704.04	10253.89
704.17	9933.23
704.31	9879.40
704.44	9863.02
704.57	9895.78
704.70	9717.90
704.83	9584.49
704.96	9579.81
705.10	9617.26
705.23	9633.64
>>>>>End Processed Spectral Data<<<<<
