SpectraSuite Data File
++++++++++++++++++++++++++++++++++++
Date: Fri Oct 18 13:58:25 GMT-05:00 2013
User: bianchi
Dark Spectrum Present: No
Reference Spectrum Present: No
Number of Sampled Component Spectra: 1
Spectrometers: USB2+H05261
Integration Time (usec): 50000 (USB2+H05261)
Spectra Averaged: 1 (USB2+H05261)
Boxcar Smoothing: 0 (USB2+H05261)
Correct for Electrical Dark: No (USB2+H05261)
Strobe/Lamp Enabled: No (USB2+H05261)
Correct for Detector Non-linearity: No (USB2+H05261)
Correct for Stray Light: No (USB2+H05261)
Number of Pixels in Processed Spectrum: 2048
>>>>>Begin Processed Spectral Data<<<<<
365.73	0.00
365.92	0.00
366.12	0.00
366.32	0.00
366.52	0.00
366.72	0.00
366.91	0.00
367.11	0.00
367.31	0.00
367.51	0.00
367.70	0.00
367.90	0.00
368.10	0.00
368.30	0.00
368.49	0.00
368.69	0.00
368.89	0.00
369.09	0.00
369.28	0.00
369.48	0.00
369.68	0.00
369.87	0.00
370.07	0.00
370.27	0.00
370.47	0.00
370.66	86.60
370.86	142.77
371.06	86.60
371.25	161.50
371.45	88.94
371.65	175.54
371.84	198.95
372.04	180.22
372.24	236.39
372.44	135.75
372.63	212.99
372.83	161.50
373.03	170.86
373.22	271.50
373.42	266.82
373.62	220.01
373.81	241.08
374.01	203.63
374.21	177.88
374.40	229.37
374.60	273.84
374.79	259.80
374.99	222.35
375.19	273.84
375.38	315.97
375.58	241.08
375.78	248.10
375.97	243.42
376.17	266.82
376.37	191.92
376.56	212.99
376.76	243.42
376.95	236.39
377.15	294.91
377.35	220.01
377.54	311.29
377.74	271.50
377.93	248.10
378.13	273.84
378.33	271.50
378.52	276.18
378.72	337.04
378.91	355.76
379.11	215.33
379.31	262.14
379.50	285.55
379.70	278.52
379.89	304.27
380.09	355.76
380.28	203.63
380.48	278.52
380.68	217.67
380.87	222.35
381.07	332.36
381.26	297.25
381.46	301.93
381.65	299.59
381.85	355.76
382.04	301.93
382.24	320.65
382.43	287.89
382.63	334.70
382.83	355.76
383.02	423.64
383.22	444.70
383.41	365.12
383.61	330.02
383.80	404.91
384.00	344.06
384.19	388.53
384.39	315.97
384.58	386.19
384.78	388.53
384.97	470.45
385.17	369.80
385.36	351.08
385.56	355.76
385.75	369.80
385.95	437.68
386.14	388.53
386.34	402.57
386.53	360.44
386.72	393.21
386.92	369.80
387.11	320.65
387.31	404.91
387.50	454.06
387.70	376.83
387.89	437.68
388.09	395.55
388.28	447.04
388.48	393.21
388.67	442.36
388.86	418.96
389.06	421.30
389.25	430.66
389.45	444.70
389.64	437.68
389.84	486.83
390.03	454.06
390.22	547.69
390.42	414.27
390.61	421.30
390.81	470.45
391.00	484.49
391.19	533.64
391.39	519.60
391.58	461.09
391.78	491.51
391.97	554.71
392.16	517.26
392.36	505.56
392.55	489.17
392.75	505.56
392.94	514.92
393.13	514.92
393.33	552.37
393.52	517.26
393.71	557.05
393.91	592.16
394.10	547.69
394.29	496.19
394.49	554.71
394.68	636.63
394.88	578.11
395.07	566.41
395.26	587.47
395.46	587.47
395.65	599.18
395.84	648.33
396.04	629.60
396.23	578.11
396.42	589.82
396.62	571.09
396.81	674.07
397.00	645.99
397.19	645.99
397.39	606.20
397.58	606.20
397.77	688.12
397.97	741.95
398.16	688.12
398.35	795.78
398.55	648.33
398.74	706.84
398.93	805.14
399.12	716.20
399.32	688.12
399.51	660.03
399.70	835.57
399.90	772.38
400.09	716.20
400.28	828.55
400.47	755.99
400.67	847.27
400.86	734.93
401.05	739.61
401.24	807.48
401.44	753.65
401.63	816.85
401.82	884.72
402.01	812.17
402.21	781.74
402.40	781.74
402.59	784.08
402.78	844.93
402.97	854.30
403.17	812.17
403.36	840.25
403.55	821.53
403.74	957.28
403.93	882.38
404.13	851.96
404.32	830.89
404.51	961.96
404.70	866.00
404.89	992.39
405.09	884.72
405.28	922.17
405.47	1020.47
405.66	994.73
405.85	985.37
406.05	938.55
406.24	912.81
406.43	1032.18
406.62	950.26
406.81	922.17
407.00	947.92
407.20	978.34
407.39	1039.20
407.58	1032.18
407.77	1048.56
407.96	968.98
408.15	1008.77
408.34	1027.50
408.54	1067.28
408.73	1130.48
408.92	997.07
409.11	1100.05
409.30	1104.73
409.49	1153.88
409.68	1123.46
409.87	1139.84
410.07	1231.12
410.26	1160.91
410.45	1156.22
410.64	1118.78
410.83	1135.16
411.02	1233.46
411.21	1228.78
411.40	1345.81
411.59	1284.95
411.78	1306.02
411.98	1137.50
412.17	1362.19
412.36	1289.64
412.55	1343.47
412.74	1334.11
412.93	1331.76
413.12	1420.71
413.31	1451.13
413.50	1483.90
413.69	1390.28
413.88	1420.71
414.07	1373.89
414.26	1439.43
414.45	1399.64
414.64	1453.47
414.83	1516.67
415.02	1554.12
415.22	1453.47
415.41	1565.82
415.60	1526.03
415.79	1455.81
415.98	1575.18
416.17	1516.67
416.36	1486.24
416.55	1526.03
416.74	1750.72
416.93	1762.42
417.12	1689.87
417.31	1591.56
417.50	1666.46
417.69	1832.64
417.88	1741.36
418.07	1643.06
418.26	1687.53
418.45	1710.93
418.64	1860.73
418.83	1769.44
419.02	1856.04
419.21	1804.55
419.39	1760.08
419.58	1734.34
419.77	1811.57
419.96	1757.74
420.15	1909.88
420.34	1856.04
420.53	1804.55
420.72	1923.92
420.91	1952.01
421.10	1952.01
421.29	1930.94
421.48	1825.62
421.67	1949.67
421.86	1935.62
422.05	1984.77
422.24	1923.92
422.43	1963.71
422.61	2029.24
422.80	1909.88
422.99	1980.09
423.18	1893.49
423.37	2019.88
423.56	2015.20
423.75	2108.82
423.94	1952.01
424.13	1830.30
424.32	1984.77
424.50	2069.03
424.69	2076.06
424.88	2047.97
425.07	1940.30
425.26	1959.03
425.45	1935.62
425.64	2090.10
425.83	2078.40
426.01	2087.76
426.20	2019.88
426.39	2113.50
426.58	2045.63
426.77	2024.56
426.96	2043.29
427.15	2129.89
427.33	2092.44
427.52	2071.37
427.71	2108.82
427.90	2179.04
428.09	2202.44
428.28	2174.36
428.46	2162.66
428.65	2148.61
428.84	2202.44
429.03	2253.94
429.22	2244.57
429.40	2118.18
429.59	2228.19
429.78	2132.23
429.97	2221.17
430.16	2225.85
430.34	2204.78
430.53	2300.75
430.72	2122.87
430.91	2284.36
431.10	2279.68
431.28	2265.64
431.47	2385.01
431.66	2356.92
431.85	2321.81
432.03	2368.62
432.22	2370.96
432.41	2340.54
432.60	2471.61
432.79	2359.26
432.97	2328.83
433.16	2396.71
433.35	2410.75
433.54	2478.63
433.72	2450.54
433.91	2565.23
434.10	2513.74
434.28	2424.80
434.47	2560.55
434.66	2579.27
434.85	2534.80
435.03	2572.25
435.22	2621.40
435.41	2630.76
435.59	2581.61
435.78	2654.17
435.97	2665.87
436.16	2715.02
436.34	2649.49
436.53	2619.06
436.72	2902.26
436.90	2565.23
437.09	2635.44
437.28	2495.01
437.46	2696.30
437.65	2640.12
437.84	2710.34
438.02	2729.06
438.21	2822.69
438.40	2768.85
438.58	2818.00
438.77	2836.73
438.96	2813.32
439.14	2895.24
439.33	3026.31
439.52	3056.74
439.70	2979.50
439.89	3110.57
440.08	3054.40
440.26	2991.20
440.45	2963.12
440.63	3096.53
440.82	3089.51
441.01	3110.57
441.19	3059.08
441.38	3150.36
441.57	3253.34
441.75	3094.19
441.94	3232.28
442.12	3309.52
442.31	3314.20
442.50	3267.39
442.68	3236.96
442.87	3344.63
443.05	3370.37
443.24	3279.09
443.43	3351.65
443.61	3328.24
443.80	3363.35
443.98	3279.09
444.17	3260.37
444.35	3304.84
444.54	3517.83
444.73	3349.31
444.91	3349.31
445.10	3370.37
445.28	3410.16
445.47	3290.79
445.65	3386.76
445.84	3522.51
446.02	3452.29
446.21	3545.91
446.39	3255.69
446.58	3499.10
446.77	3595.06
446.95	3459.31
447.14	3515.48
447.32	3538.89
447.51	3501.44
447.69	3421.86
447.88	3585.70
448.06	3412.50
448.25	3499.10
448.43	3548.25
448.62	3463.99
448.80	3529.53
448.99	3592.72
449.17	3693.37
449.36	3606.77
449.54	3597.40
449.73	3688.68
449.91	3798.69
450.10	3712.09
450.28	3754.22
450.46	3665.28
450.65	3742.52
450.83	3646.55
451.02	3609.11
451.20	3733.15
451.39	3754.22
451.57	3695.71
451.76	3716.77
451.94	3627.83
452.13	4014.02
452.31	3672.30
452.49	3789.33
452.68	3815.07
452.86	3847.84
453.05	3838.48
453.23	3716.77
453.42	3939.12
453.60	3941.46
453.78	3866.56
453.97	3878.27
454.15	3880.61
454.34	3871.25
454.52	3950.82
454.70	4032.74
454.89	3908.69
455.07	3934.44
455.26	4046.79
455.44	4154.45
455.62	4084.23
455.81	4107.64
455.99	4063.17
456.17	4255.09
456.36	4142.75
456.54	4166.15
456.73	4131.05
456.91	4292.54
457.09	4208.28
457.28	4374.46
457.46	4182.54
457.64	4276.16
457.83	4215.30
458.01	4191.90
458.19	4332.33
458.38	4290.20
458.56	4390.84
458.74	4475.10
458.93	4376.80
459.11	4301.90
459.29	4493.83
459.48	4477.44
459.66	4390.84
459.84	4418.93
460.03	4627.24
460.21	4397.87
460.39	4559.36
460.57	4456.38
460.76	4489.15
460.94	4681.07
461.12	4629.58
461.31	4643.62
461.49	4582.77
461.67	4615.54
461.85	4678.73
462.04	4582.77
462.22	4601.49
462.40	4695.11
462.59	4798.10
462.77	4723.20
462.95	4800.44
463.13	4685.75
463.32	4643.62
463.50	4828.53
463.68	4821.50
463.86	4868.31
464.05	4699.80
464.23	4870.65
464.41	4880.02
464.59	4851.93
464.78	4971.30
464.96	4849.59
465.14	4847.25
465.32	4943.21
465.50	5015.77
465.69	5144.50
465.87	4929.17
466.05	4943.21
466.23	5022.79
466.41	5004.07
466.60	5174.92
466.78	5053.22
466.96	5146.84
467.14	4910.44
467.32	5069.60
467.51	5081.30
467.69	4980.66
467.87	4975.98
468.05	5008.75
468.23	4978.32
468.41	5104.71
468.60	5160.88
468.78	5256.84
468.96	5167.90
469.14	5165.56
469.32	5298.97
469.50	5109.39
469.69	5380.89
469.87	5273.23
470.05	5373.87
470.23	5301.31
470.41	5298.97
470.59	5355.15
470.77	5376.21
470.95	5418.34
471.14	5631.33
471.32	5359.83
471.50	5734.31
471.68	5636.01
471.86	5511.96
472.04	5687.50
472.22	5930.92
472.40	5570.48
472.58	5687.50
472.77	5783.46
472.95	5774.10
473.13	5980.07
473.31	5720.27
473.49	5806.87
473.67	5825.59
473.85	5961.34
474.03	6141.57
474.21	6033.90
474.39	6150.93
474.57	6092.41
474.75	6099.44
474.93	6195.40
475.12	6118.16
475.30	6057.31
475.48	6127.52
475.66	6249.23
475.84	6197.74
476.02	6359.24
476.20	6324.13
476.38	6438.81
476.56	6406.05
476.74	6497.33
476.92	6567.54
477.10	6595.63
477.28	6628.40
477.46	6579.25
477.64	6724.36
477.82	6633.08
478.00	7030.97
478.18	6853.09
478.36	6946.71
478.54	6986.50
478.72	7009.90
478.90	7091.82
479.08	7162.04
479.26	7159.70
479.44	7192.47
479.62	7220.55
479.80	7384.39
479.98	7485.03
480.16	7426.52
480.34	7325.88
480.52	7700.36
480.70	7674.62
480.88	7627.81
481.06	7658.23
481.24	7571.63
481.41	7630.15
481.59	7983.57
481.77	7824.41
481.95	7999.95
482.13	8035.06
482.31	7941.44
482.49	8280.82
482.67	8215.28
482.85	8112.30
483.03	8482.10
483.21	8477.42
483.39	8461.04
483.57	8505.51
483.74	8575.72
483.92	8697.43
484.10	8650.62
484.28	8730.20
484.46	8943.19
484.64	9076.60
484.82	8898.72
485.00	8898.72
485.18	9200.65
485.35	9437.04
485.53	9490.87
485.71	9369.16
485.89	9738.97
486.07	9554.07
486.25	9628.96
486.43	9633.64
486.61	9607.90
486.78	9760.03
486.96	9825.57
487.14	9977.70
487.32	9745.99
487.50	10036.22
487.68	10146.22
487.85	10216.44
488.03	10396.66
488.21	10509.01
488.39	10422.41
488.57	10576.88
488.75	10721.99
488.92	10747.74
489.10	10689.23
489.28	10857.75
489.46	10988.82
489.64	10768.80
489.81	11171.38
489.99	11108.18
490.17	11056.69
490.35	11349.26
490.53	11363.30
490.70	11508.41
490.88	11417.13
491.06	11470.97
491.24	11714.38
491.41	11733.11
491.59	11810.34
491.77	11920.35
491.95	11936.73
492.13	12189.51
492.30	12184.83
492.48	12322.92
492.66	12189.51
492.84	12498.46
493.01	12610.81
493.19	12418.88
493.37	12610.81
493.54	12716.13
493.72	12821.45
493.90	12725.49
494.08	12982.95
494.25	12915.08
494.43	13156.15
494.61	13174.88
494.79	13219.35
494.96	13165.51
495.14	13153.81
495.32	13603.19
495.49	13270.84
495.67	13654.69
495.85	13612.56
496.02	13769.37
496.20	13652.34
496.38	13823.20
496.55	13980.02
496.73	14178.97
496.91	13907.46
497.09	14193.01
497.26	14417.70
497.44	14410.68
497.62	14310.04
497.79	14516.00
497.97	14436.42
498.14	14530.05
498.32	14658.78
498.50	14607.28
498.67	14988.79
498.85	14906.87
499.03	15068.37
499.20	14974.75
499.38	14991.13
499.56	15295.40
499.73	15344.55
499.91	15236.89
500.08	15412.43
500.26	15173.69
500.44	15407.75
500.61	15353.91
500.79	15204.12
500.97	15683.93
501.14	15688.61
501.32	15597.33
501.49	15555.20
501.67	15857.13
501.84	15583.29
502.02	15850.11
502.20	16037.35
502.37	16006.92
502.55	16152.04
502.72	15943.73
502.90	16224.59
503.07	16072.46
503.25	15925.00
503.43	16093.52
503.60	16243.32
503.78	16367.37
503.95	16336.94
504.13	16589.72
504.30	16451.63
504.48	16489.07
504.65	16566.31
504.83	16840.15
505.01	16868.24
505.18	16886.97
505.36	17284.86
505.53	17088.25
505.71	17092.93
505.88	16945.48
506.06	16753.55
506.23	17364.43
506.41	16978.25
506.58	17387.84
506.76	17383.16
506.93	17231.02
507.11	17298.90
507.28	17338.69
507.46	17432.31
507.63	17303.58
507.81	17792.75
507.98	17591.47
508.16	17444.01
508.33	17544.66
508.50	17781.05
508.68	17816.16
508.85	18120.43
509.03	17970.63
509.20	18012.76
509.38	18038.51
509.55	18169.58
509.73	18415.34
509.90	18319.37
510.08	18207.03
510.25	18279.58
510.42	18317.03
510.60	18520.66
510.77	18892.80
510.95	18658.75
511.12	18499.59
511.30	18342.78
511.47	18890.46
511.64	18920.89
511.82	18728.97
511.99	18508.96
512.17	19124.52
512.34	18930.25
512.51	19056.64
512.69	18948.98
512.86	19150.26
513.04	19281.33
513.21	19250.91
513.38	19337.51
513.56	19321.12
513.73	19218.14
513.90	19286.01
514.08	19098.77
514.25	19639.44
514.43	19941.36
514.60	19580.92
514.77	19452.19
514.95	19648.80
515.12	19585.60
515.29	19604.33
515.47	19906.26
515.64	20034.99
515.81	19833.70
515.99	19894.55
516.16	19917.96
516.33	19967.11
516.51	20147.33
516.68	20077.12
516.85	20032.65
517.03	20198.82
517.20	20552.24
517.37	20365.00
517.54	20638.84
517.72	20472.67
517.89	20566.29
518.06	20411.81
518.24	20444.58
518.41	20402.45
518.58	20517.14
518.75	20486.71
518.93	20879.92
519.10	21088.23
519.27	20769.91
519.45	20774.60
519.62	21177.17
519.79	20535.86
519.96	21092.91
520.14	21214.62
520.31	20971.20
520.48	21020.35
520.65	21057.80
520.83	21345.69
521.00	21343.35
521.17	21362.07
521.34	21221.64
521.52	21579.74
521.69	21298.88
521.86	21715.49
522.03	21556.33
522.20	22019.76
522.38	21656.98
522.55	21738.90
522.72	21565.70
522.89	21635.91
523.07	22237.43
523.24	21986.99
523.41	22097.00
523.58	22043.17
523.75	21937.84
523.92	22153.17
524.10	21982.31
524.27	21926.14
524.44	22197.64
524.61	22487.87
524.78	22548.72
524.96	22370.84
525.13	22302.96
525.30	22291.26
525.47	22419.99
525.64	22354.46
525.81	22494.89
525.98	22422.33
526.16	22651.70
526.33	22560.42
526.50	22693.83
526.67	22450.42
526.84	22897.46
527.01	22331.05
527.18	22700.86
527.36	23161.94
527.53	23140.88
527.70	23264.92
527.87	23239.18
528.04	22991.08
528.21	23349.18
528.38	22960.66
528.55	23119.81
528.72	23243.86
528.89	23323.44
529.07	22789.80
529.24	23288.33
529.41	23419.40
529.58	23346.84
529.75	23274.29
529.92	23365.57
530.09	23426.42
530.26	23438.12
530.43	23882.83
530.60	23119.81
530.77	23421.74
530.94	23466.21
531.11	23468.55
531.28	23426.42
531.46	23655.79
531.63	23606.64
531.80	23875.80
531.97	23796.23
532.14	23931.98
532.31	24037.30
532.48	24210.50
532.65	24081.77
532.82	23927.30
532.99	24226.89
533.16	23749.42
533.33	24294.76
533.50	24276.04
533.67	24325.19
533.84	23894.53
534.01	24168.37
534.18	24325.19
534.35	24259.65
534.52	24074.75
534.69	24437.53
534.86	24608.39
535.03	24320.51
535.20	24390.72
535.37	24442.21
535.54	24453.92
535.71	24566.26
535.88	24460.94
536.05	24545.20
536.22	24917.34
536.38	24608.39
536.55	24601.37
536.72	24790.95
536.89	24720.74
537.06	24526.47
537.23	24996.92
537.40	25010.96
537.57	24730.10
537.74	24879.89
537.91	25055.43
538.08	24966.49
538.25	24952.45
538.42	25319.92
538.59	25177.14
538.75	24821.38
538.92	24854.15
539.09	25329.28
539.26	24950.11
539.43	25404.17
539.60	25380.77
539.77	25319.92
539.94	25839.51
540.11	25530.56
540.28	25144.38
540.44	25483.75
540.61	25163.10
540.78	25362.04
540.95	25497.80
541.12	25366.73
541.29	25781.00
541.46	25291.83
541.62	25628.87
541.79	25589.08
541.96	25376.09
542.13	25490.77
542.30	25769.30
542.47	25898.03
542.63	25717.81
542.80	26192.94
542.97	26190.59
543.14	26265.49
543.31	26373.16
543.48	26003.35
543.64	26494.86
543.81	26223.36
543.98	26356.77
544.15	26040.80
544.32	26176.55
544.48	26040.80
544.65	26157.83
544.82	26340.39
544.99	26230.38
545.16	26464.44
545.32	26394.22
545.49	26604.87
545.66	26520.61
545.83	26911.48
546.00	26572.10
546.16	26471.46
546.33	26368.48
546.50	26316.98
546.67	27026.17
546.83	26139.10
547.00	26513.59
547.17	26656.36
547.34	26529.97
547.50	26448.05
547.67	26927.86
547.84	26267.83
548.00	26885.73
548.17	27206.39
548.34	26754.66
548.51	26850.63
548.67	26923.18
548.84	26885.73
549.01	27356.18
549.18	26951.27
549.34	26962.97
549.51	26979.36
549.68	27087.02
549.84	26778.07
550.01	27260.22
550.18	27119.79
550.34	26794.45
550.51	27388.95
550.68	27505.98
550.84	27358.52
551.01	27197.02
551.18	27204.05
551.34	27143.19
551.51	27309.37
551.68	27307.03
551.84	27211.07
552.01	27559.81
552.18	27482.57
552.34	27468.53
552.51	27988.13
552.68	27470.87
552.84	27463.85
553.01	27318.73
553.18	27625.34
553.34	28046.64
553.51	27707.26
553.67	27545.76
553.84	27796.20
554.01	27744.71
554.17	27943.66
554.34	27791.52
554.51	27922.59
554.67	27978.76
554.84	28009.19
555.00	28030.26
555.17	27831.31
555.33	27913.23
555.50	28140.26
555.67	28306.44
555.83	27681.52
556.00	27850.03
556.16	28224.52
556.33	27789.18
556.50	27758.75
556.66	28109.83
556.83	27786.84
556.99	28360.27
557.16	28439.85
557.32	28374.31
557.49	28472.62
557.65	27803.22
557.82	28390.70
557.98	27878.12
558.15	28268.99
558.32	28156.64
558.48	28140.26
558.65	28449.21
558.81	28013.87
558.98	28259.63
559.14	28458.57
559.31	28002.17
559.47	28584.96
559.64	28006.85
559.80	28346.23
559.97	28465.60
560.13	28545.17
560.30	28730.08
560.46	28390.70
560.63	28685.61
560.79	28458.57
560.96	28701.99
561.12	28603.69
561.29	28229.20
561.45	28783.91
561.61	28898.59
561.78	28823.70
561.94	28914.98
562.11	28802.63
562.27	28645.82
562.44	28870.51
562.60	29008.60
562.77	28673.90
562.93	28591.98
563.10	28929.02
563.26	28332.18
563.42	29134.99
563.59	29184.14
563.75	28767.52
563.92	28477.30
564.08	28905.62
564.24	28837.74
564.41	28662.20
564.57	28627.09
564.74	28788.59
564.90	29120.95
565.07	29188.82
565.23	28975.83
565.39	28676.24
565.56	29039.03
565.72	28985.19
565.88	29064.77
566.05	28877.53
566.21	28896.25
566.38	29184.14
566.54	28856.46
566.70	29209.89
566.87	28926.68
567.03	29200.52
567.19	29167.76
567.36	28779.23
567.52	28959.45
567.68	29280.10
567.85	29106.90
568.01	28795.61
568.17	29053.07
568.34	29415.85
568.50	28849.44
568.66	29200.52
568.83	29071.79
568.99	29097.54
569.15	29385.43
569.32	29329.25
569.48	28617.73
569.64	29530.54
569.81	29404.15
569.97	29186.48
570.13	29137.33
570.30	29219.25
570.46	29287.12
570.62	29064.77
570.78	29181.80
570.95	29191.16
571.11	29247.33
571.27	29242.65
571.43	29104.56
571.60	29301.17
571.76	29095.20
571.92	29273.08
572.09	29371.38
572.25	29420.53
572.41	29301.17
572.57	29125.63
572.74	29500.11
572.90	29226.27
573.06	29202.86
573.22	29415.85
573.38	29476.71
573.55	29193.50
573.71	29385.43
573.87	29441.60
574.03	29563.31
574.20	29635.86
574.36	29820.77
574.52	29329.25
574.68	29317.55
574.84	29109.24
575.01	29247.33
575.17	29516.50
575.33	29722.46
575.49	29406.49
575.65	29181.80
575.82	29631.18
575.98	29457.98
576.14	29429.90
576.30	29596.07
576.46	29605.44
576.62	29296.49
576.79	29661.61
576.95	29387.77
577.11	29717.78
577.27	29579.69
577.43	29418.19
577.59	29472.03
577.75	29530.54
577.92	29685.01
578.08	29092.86
578.24	29448.62
578.40	29696.72
578.56	29790.34
578.72	29682.67
578.88	29895.66
579.04	29223.93
579.21	29528.20
579.37	29369.04
579.53	29504.79
579.69	29525.86
579.85	29624.16
580.01	29514.16
580.17	29446.28
580.33	29153.71
580.49	29326.91
580.65	29530.54
580.82	29586.71
580.98	29633.52
581.14	29589.05
581.30	29759.91
581.46	29593.73
581.62	29338.62
581.78	29340.96
581.94	29720.12
582.10	29230.95
582.26	29827.79
582.42	29563.31
582.58	29572.67
582.74	29633.52
582.90	29750.55
583.06	29851.19
583.22	29577.35
583.38	29490.75
583.54	29603.10
583.70	29467.34
583.86	29504.79
584.02	29582.03
584.18	29717.78
584.34	29745.87
584.50	29947.15
584.66	29448.62
584.82	29252.02
584.98	29371.38
585.14	29453.30
585.30	29186.48
585.46	29575.01
585.62	29610.12
585.78	29982.26
585.94	29322.23
586.10	29668.63
586.26	29905.02
586.42	29872.26
586.58	29940.13
586.74	29436.92
586.90	30003.33
587.06	29570.33
587.22	29706.08
587.38	29553.94
587.54	29750.55
587.70	29975.24
587.86	29633.52
588.02	30349.73
588.18	30213.98
588.34	29692.04
588.49	29748.21
588.65	29661.61
588.81	29373.72
588.97	29865.24
589.13	29958.86
589.29	29413.51
589.45	29567.99
589.61	29844.17
589.77	30155.46
589.93	30188.23
590.08	29930.77
590.24	30263.13
590.40	29979.92
590.56	30256.11
590.72	29642.88
590.88	29862.90
591.04	29982.26
591.20	30108.65
591.35	29799.70
591.51	30331.00
591.67	30036.09
591.83	30022.05
591.99	29986.94
592.15	30134.40
592.31	29474.37
592.46	29563.31
592.62	29933.11
592.78	29462.66
592.94	29640.54
593.10	30160.14
593.26	30057.16
593.41	30408.24
593.57	30057.16
593.73	30256.11
593.89	30359.09
594.05	30127.38
594.20	29909.71
594.36	30281.85
594.52	29865.24
594.68	30012.69
594.84	29930.77
594.99	30242.06
595.15	29912.05
595.31	30125.04
595.47	30326.32
595.62	30085.25
595.78	29944.81
595.94	30017.37
596.10	30228.02
596.25	29986.94
596.41	29968.22
596.57	29858.21
596.73	30061.84
596.88	29883.96
597.04	30424.62
597.20	30209.29
597.36	30115.67
597.51	30595.48
597.67	29860.55
597.83	30059.50
597.99	30228.02
598.14	30092.27
598.30	30115.67
598.46	30359.09
598.61	30251.42
598.77	30164.82
598.93	29977.58
599.09	30188.23
599.24	30656.34
599.40	30319.30
599.56	30225.68
599.71	30141.42
599.87	30211.64
600.03	30405.90
600.18	30312.28
600.34	30045.46
600.50	30408.24
600.65	30061.84
600.81	30309.94
600.97	30195.25
601.12	30691.44
601.28	30525.27
601.44	30490.16
601.59	30518.25
601.75	30370.79
601.91	30323.98
602.06	30122.69
602.22	30120.35
602.37	30089.93
602.53	29923.75
602.69	30211.64
602.84	30073.54
603.00	30305.26
603.16	30164.82
603.31	29986.94
603.47	30354.41
603.62	29879.28
603.78	30019.71
603.94	30181.21
604.09	30195.25
604.25	29961.20
604.40	30225.68
604.56	30017.37
604.71	30110.99
604.87	29818.42
605.03	30267.81
605.18	30246.74
605.34	30026.73
605.49	30036.09
605.65	29846.51
605.80	30153.12
605.96	29556.28
606.12	29982.26
606.27	30752.30
606.43	29816.08
606.58	30661.02
606.74	30183.55
606.89	30113.33
607.05	30555.69
607.20	29951.84
607.36	30050.14
607.51	30426.96
607.67	29993.97
607.82	30010.35
607.98	29993.97
608.13	30335.68
608.29	29640.54
608.44	29869.92
608.60	30134.40
608.75	30230.36
608.91	30436.33
609.06	29933.11
609.22	30103.97
609.37	29600.76
609.53	30040.78
609.68	29984.60
609.84	29357.34
609.99	29883.96
610.15	30108.65
610.30	30110.99
610.46	29612.46
610.61	29860.55
610.76	29841.83
610.92	29986.94
611.07	29935.45
611.23	30024.39
611.38	29993.97
611.54	29589.05
611.69	29598.41
611.84	29977.58
612.00	29785.66
612.15	29701.40
612.31	30218.66
612.46	29708.42
612.62	29759.91
612.77	29720.12
612.92	29797.36
613.08	29827.79
613.23	30197.59
613.39	29685.01
613.54	29347.98
613.69	29448.62
613.85	29413.51
614.00	29511.81
614.15	29825.45
614.31	29717.78
614.46	29806.72
614.62	29806.72
614.77	29656.93
614.92	29422.87
615.08	29450.96
615.23	29404.15
615.38	29703.74
615.54	29179.46
615.69	29043.71
615.84	29092.86
616.00	29635.86
616.15	29340.96
616.30	29687.36
616.46	29345.64
616.61	29619.48
616.76	29661.61
616.92	29167.76
617.07	29481.39
617.22	29301.17
617.37	28615.39
617.53	29329.25
617.68	29336.27
617.83	29357.34
617.99	29142.01
618.14	28978.17
618.29	29181.80
618.45	29106.90
618.60	29408.83
618.75	29111.58
618.90	29207.55
619.06	29532.88
619.21	29043.71
619.36	29064.77
619.51	29205.20
619.67	28577.94
619.82	28905.62
619.97	29254.36
620.12	29149.03
620.28	28943.06
620.43	29015.62
620.58	29132.65
620.73	29277.76
620.89	29312.87
621.04	28910.30
621.19	29160.73
621.34	29081.16
621.49	28926.68
621.65	28891.57
621.80	29013.28
621.95	28751.14
622.10	28877.53
622.25	28819.02
622.41	29006.26
622.56	28439.85
622.71	28840.08
622.86	28308.78
623.01	28847.10
623.16	28474.96
623.32	28615.39
623.47	28741.78
623.62	28823.70
623.77	28753.48
623.92	28631.77
624.07	28175.37
624.23	28788.59
624.38	28692.63
624.53	28617.73
624.68	28886.89
624.83	29113.92
624.98	29113.92
625.13	28542.83
625.29	28671.56
625.44	28533.47
625.59	28194.09
625.74	28732.42
625.89	28383.68
626.04	28437.51
626.19	28723.05
626.34	28030.26
626.49	28250.27
626.65	28299.42
626.80	28720.71
626.95	28079.41
627.10	28685.61
627.25	28292.40
627.40	28107.49
627.55	27803.22
627.70	28498.36
627.85	28144.94
628.00	28254.95
628.15	28346.23
628.30	28056.00
628.45	27768.12
628.60	28154.30
628.76	27871.10
628.91	28173.03
629.06	27990.47
629.21	28201.11
629.36	28023.23
629.51	27730.67
629.66	28027.92
629.81	27845.35
629.96	27330.44
630.11	27983.44
630.26	27894.50
630.41	28079.41
630.56	27604.28
630.71	27936.63
630.86	27765.78
631.01	27711.94
631.16	28002.17
631.31	27943.66
631.46	27571.51
631.61	27831.31
631.76	27660.45
631.91	27672.15
632.06	27718.96
632.21	27679.18
632.36	27665.13
632.51	27419.38
632.66	27601.94
632.81	27433.42
632.96	27592.58
633.10	27571.51
633.25	27817.27
633.40	27644.07
633.55	27587.89
633.70	27737.69
633.85	27192.34
634.00	27456.82
634.15	27484.91
634.30	27527.04
634.45	27124.47
634.60	27337.46
634.75	27569.17
634.90	27377.25
635.05	27592.58
635.19	27400.65
635.34	27585.55
635.49	27634.71
635.64	27222.77
635.79	27012.12
635.94	27515.34
636.09	27065.96
636.24	27136.17
636.39	27091.70
636.53	27236.81
636.68	26817.86
636.83	27419.38
636.98	27119.79
637.13	26923.18
637.28	27192.34
637.43	27260.22
637.57	27550.45
637.72	27145.53
637.87	27157.24
638.02	27227.45
638.17	27232.13
638.32	26991.06
638.46	26934.88
638.61	26623.59
638.76	26672.74
638.91	26738.28
639.06	26438.69
639.20	26551.04
639.35	27026.17
639.50	27208.73
639.65	27152.55
639.80	27304.69
639.94	27098.72
640.09	26803.82
640.24	27063.61
640.39	26719.56
640.54	26569.76
640.68	26438.69
640.83	26691.47
640.98	26647.00
641.13	26267.83
641.27	27136.17
641.42	26223.36
641.57	26548.70
641.72	26780.41
641.86	26487.84
642.01	26361.45
642.16	26595.51
642.31	26312.30
642.45	26242.09
642.60	26169.53
642.75	26450.39
642.90	26356.77
643.04	26370.82
643.19	26347.41
643.34	26581.46
643.48	26209.32
643.63	26504.23
643.78	26132.08
643.93	26298.26
644.07	26209.32
644.22	26455.08
644.37	26497.20
644.51	26316.98
644.66	26115.70
644.81	26122.72
644.95	25893.35
645.10	25872.28
645.25	26209.32
645.39	26260.81
645.54	26017.40
645.69	25902.71
645.83	26106.34
645.98	25940.16
646.13	26103.99
646.27	26012.71
646.42	26277.19
646.57	26209.32
646.71	26178.89
646.86	25975.27
647.00	26008.03
647.15	25879.30
647.30	26066.55
647.44	25841.85
647.59	26029.10
647.74	25572.69
647.88	25811.43
648.03	25902.71
648.17	26071.23
648.32	26026.76
648.47	25848.88
648.61	26181.23
648.76	25993.99
648.90	25528.22
649.05	26031.44
649.20	25612.48
649.34	25905.05
649.49	25640.57
649.63	25591.42
649.78	25502.48
649.92	25914.41
650.07	25731.85
650.21	25788.02
650.36	25549.29
650.51	25731.85
650.65	25675.68
650.80	25902.71
650.94	25546.95
651.09	25525.88
651.23	25415.88
651.38	25589.08
651.52	25532.90
651.67	25453.33
651.81	25776.32
651.96	25750.57
652.10	25343.32
652.25	25338.64
652.39	25778.66
652.54	25694.40
652.68	25572.69
652.83	25626.53
652.97	25610.14
653.12	25261.40
653.26	25596.10
653.41	25692.06
653.55	25111.61
653.70	25034.37
653.84	25156.08
653.99	25497.80
654.13	25369.07
654.27	25235.66
654.42	25078.84
654.56	25254.38
654.71	25310.55
654.85	25322.26
655.00	24971.18
655.14	24872.87
655.29	25097.56
655.43	25165.44
655.57	24718.40
655.72	24999.26
655.86	25481.41
656.01	25046.07
656.15	24734.78
656.30	24802.66
656.44	24816.70
656.58	25039.05
656.73	24915.00
656.87	25039.05
657.01	24884.58
657.16	24973.52
657.30	25268.42
657.45	24907.98
657.59	24959.47
657.73	24957.13
657.88	25137.35
658.02	24854.15
658.16	24690.31
658.31	24938.41
658.45	24510.09
658.60	24577.97
658.74	24142.63
658.88	24114.54
659.03	24320.51
659.17	24472.64
659.31	24713.72
659.46	24465.62
659.60	24610.73
659.74	24685.63
659.89	24599.03
660.03	24994.58
660.17	24559.24
660.32	24294.76
660.46	23969.43
660.60	24151.99
660.74	24390.72
660.89	24159.01
661.03	24159.01
661.17	23873.46
661.32	23931.98
661.46	23924.96
661.60	24273.70
661.74	24367.32
661.89	24205.82
662.03	24444.56
662.17	23910.91
662.31	23798.57
662.46	24439.87
662.60	24020.92
662.74	23777.50
662.88	23721.33
663.03	23564.51
663.17	23880.49
663.31	23527.06
663.45	23754.10
663.60	23641.75
663.74	23503.66
663.88	23707.29
664.02	23506.00
664.17	23648.77
664.31	23421.74
664.45	23608.98
664.59	23534.09
664.73	23501.32
664.88	23367.91
665.02	23016.83
665.16	23110.45
665.30	23180.67
665.44	23297.69
665.59	22946.61
665.73	23372.59
665.87	22867.03
666.01	23098.75
666.15	23044.91
666.29	22909.16
666.44	23096.41
666.58	22913.84
666.72	22939.59
666.86	23253.22
667.00	23110.45
667.14	22621.28
667.28	22899.80
667.43	22628.30
667.57	22803.84
667.71	22824.90
667.85	22806.18
667.99	22548.72
668.13	22733.62
668.27	22429.35
668.41	22548.72
668.56	22225.73
668.70	22274.88
668.84	22810.86
668.98	22490.21
669.12	22672.77
669.26	22445.74
669.40	22518.29
669.54	22389.56
669.68	22417.65
669.82	22305.31
669.96	22190.62
670.10	22202.32
670.25	22122.74
670.39	22209.34
670.53	21984.65
670.67	21940.18
670.81	21905.07
670.95	22382.54
671.09	21982.31
671.23	22174.24
671.37	21626.55
671.51	21912.10
671.65	21895.71
671.79	21972.95
671.93	21841.88
672.07	21680.38
672.21	21383.13
672.35	21383.13
672.49	21209.93
672.63	21338.66
672.77	21097.59
672.91	21579.74
673.05	21448.67
673.19	21357.39
673.33	21067.16
673.47	21184.19
673.61	21493.14
673.75	21233.34
673.89	21322.28
674.03	21137.38
674.17	21326.96
674.31	21076.52
674.45	21015.67
674.59	20645.87
674.73	20863.54
674.87	20875.24
675.01	20795.66
675.15	20910.35
675.29	20723.10
675.43	20575.65
675.56	20624.80
675.70	20915.03
675.84	20900.98
675.98	20168.40
676.12	20442.24
676.26	20547.56
676.40	20617.78
676.54	20372.02
676.68	20393.09
676.82	19955.41
676.96	20058.39
677.10	20163.72
677.23	19960.09
677.37	20009.24
677.51	20039.67
677.65	20074.77
677.79	19637.09
677.93	19826.68
678.07	19552.84
678.21	19517.73
678.34	19520.07
678.48	19709.65
678.62	19461.55
678.76	19477.94
678.90	19236.86
679.04	19389.00
679.18	19405.38
679.31	18829.61
679.45	18803.86
679.59	18752.37
679.73	19122.18
679.87	18651.73
680.00	18789.82
680.14	18806.20
680.28	18574.49
680.42	18616.62
680.56	18857.70
680.70	18836.63
680.83	18780.46
680.97	18527.68
681.11	18625.98
681.25	18633.00
681.39	18452.78
681.52	18644.71
681.66	18113.41
681.80	18288.95
681.94	18115.75
682.07	18340.44
682.21	18043.19
682.35	17940.21
682.49	17893.40
682.62	17846.58
682.76	17858.29
682.90	17926.16
683.04	17776.37
683.17	17788.07
683.31	17635.94
683.45	17579.76
683.59	17539.97
683.72	17500.19
683.86	17638.28
684.00	17329.33
684.13	17497.84
684.27	17177.19
684.41	17039.10
684.55	16940.80
684.68	16933.78
684.82	16877.60
684.96	16893.99
685.09	16882.28
685.23	16814.41
685.37	16681.00
685.50	16690.36
685.64	16926.75
685.78	16641.21
685.91	16844.84
686.05	16779.30
686.19	16578.01
686.32	16479.71
686.46	16563.97
686.60	16343.96
686.73	16238.64
686.87	16505.46
687.01	16262.04
687.14	16152.04
687.28	15857.13
687.42	15815.00
687.55	15723.72
687.69	15953.09
687.82	16107.57
687.96	15903.94
688.10	15763.51
688.23	15602.01
688.37	15604.35
688.50	15499.03
688.64	15878.19
688.78	15683.93
688.91	15531.80
689.05	15386.68
689.18	15531.80
689.32	15136.24
689.46	15255.61
689.59	15012.20
689.73	15014.54
689.86	14881.13
690.00	15077.73
690.13	15075.39
690.27	15082.41
690.41	14953.68
690.54	14808.57
690.68	14848.36
690.81	15044.96
690.95	14810.91
691.08	14867.08
691.22	14626.01
691.35	14616.65
691.49	14712.61
691.62	14567.49
691.76	14443.45
691.89	14216.41
692.03	14031.51
692.16	13713.20
692.30	14052.58
692.43	14193.01
692.57	13951.93
692.70	14075.98
692.84	13715.54
692.97	13689.79
693.11	13933.21
693.24	13900.44
693.38	13895.76
693.51	13537.66
693.65	13818.52
693.78	13650.00
693.92	13743.63
694.05	13570.43
694.19	13547.02
694.32	13315.31
694.45	13191.26
694.59	13380.84
694.72	13275.52
694.86	12861.24
694.99	13092.96
695.13	13020.40
695.26	13261.48
695.39	12823.80
695.53	12968.91
695.66	12868.27
695.80	12987.63
695.93	12982.95
696.07	12842.52
696.20	12819.11
696.33	12819.11
696.47	12697.41
696.60	12713.79
696.73	12554.63
696.87	12236.32
697.00	12358.03
697.14	12255.04
697.27	11988.22
697.40	12358.03
697.54	12149.72
697.67	12051.42
697.80	12203.55
697.94	11829.07
698.07	11934.39
698.21	11913.33
698.34	12093.55
698.47	12025.67
698.61	11978.86
698.74	11847.79
698.87	11953.12
699.01	11609.06
699.14	11747.15
699.27	11524.80
699.40	11700.34
699.54	11536.50
699.67	11403.09
699.80	11414.79
699.94	11442.88
700.07	11222.87
700.20	11215.85
700.34	10960.73
700.47	11115.20
700.60	11014.56
700.73	11164.36
700.87	11136.27
701.00	11012.22
701.13	11009.88
701.26	11005.20
701.40	11014.56
701.53	11028.60
701.66	10953.71
701.79	10604.97
701.93	10642.42
702.06	10511.35
702.19	10651.78
702.32	10497.30
702.46	10509.01
702.59	10349.85
702.72	10270.27
702.85	10380.28
702.99	10171.97
703.12	10249.21
703.25	10174.31
703.38	10174.31
703.51	10232.82
703.65	9914.51
703.78	10076.01
703.91	10026.86
704.04	10057.28
704.17	9895.78
704.31	9963.66
704.44	9912.17
704.57	9710.88
704.70	9628.96
704.83	9556.41
704.96	9738.97
705.10	9523.64
705.23	9628.96
>>>>>End Processed Spectral Data<<<<<
