SpectraSuite Data File
++++++++++++++++++++++++++++++++++++
Date: Fri Oct 18 13:58:32 GMT-05:00 2013
User: bianchi
Dark Spectrum Present: No
Reference Spectrum Present: No
Number of Sampled Component Spectra: 1
Spectrometers: USB2+H05261
Integration Time (usec): 50000 (USB2+H05261)
Spectra Averaged: 1 (USB2+H05261)
Boxcar Smoothing: 0 (USB2+H05261)
Correct for Electrical Dark: No (USB2+H05261)
Strobe/Lamp Enabled: No (USB2+H05261)
Correct for Detector Non-linearity: No (USB2+H05261)
Correct for Stray Light: No (USB2+H05261)
Number of Pixels in Processed Spectrum: 2048
>>>>>Begin Processed Spectral Data<<<<<
365.73	0.00
365.92	0.00
366.12	0.00
366.32	0.00
366.52	0.00
366.72	0.00
366.91	0.00
367.11	0.00
367.31	0.00
367.51	0.00
367.70	0.00
367.90	0.00
368.10	0.00
368.30	0.00
368.49	0.00
368.69	0.00
368.89	0.00
369.09	0.00
369.28	0.00
369.48	0.00
369.68	0.00
369.87	0.00
370.07	0.00
370.27	0.00
370.47	0.00
370.66	58.51
370.86	11.70
371.06	88.94
371.25	131.07
371.45	112.35
371.65	203.63
371.84	198.95
372.04	159.16
372.24	215.33
372.44	152.13
372.63	231.71
372.83	187.24
373.03	243.42
373.22	196.60
373.42	297.25
373.62	152.13
373.81	306.61
374.01	238.73
374.21	234.05
374.40	229.37
374.60	227.03
374.79	287.89
374.99	224.69
375.19	250.44
375.38	184.90
375.58	238.73
375.78	243.42
375.97	285.55
376.17	175.54
376.37	341.72
376.56	236.39
376.76	255.12
376.95	252.78
377.15	320.65
377.35	217.67
377.54	311.29
377.74	198.95
377.93	248.10
378.13	231.71
378.33	245.76
378.52	255.12
378.72	273.84
378.91	231.71
379.11	271.50
379.31	297.25
379.50	318.31
379.70	341.72
379.89	346.40
380.09	320.65
380.28	353.42
380.48	304.27
380.68	243.42
380.87	224.69
381.07	290.23
381.26	280.86
381.46	358.10
381.65	327.68
381.85	229.37
382.04	287.89
382.24	346.40
382.43	294.91
382.63	330.02
382.83	402.57
383.02	374.49
383.22	360.44
383.41	341.72
383.61	325.33
383.80	383.85
384.00	374.49
384.19	383.85
384.39	383.85
384.58	346.40
384.78	411.93
384.97	358.10
385.17	414.27
385.36	381.51
385.56	365.12
385.75	397.89
385.95	369.80
386.14	421.30
386.34	330.02
386.53	395.55
386.72	372.15
386.92	407.25
387.11	332.36
387.31	440.02
387.50	421.30
387.70	437.68
387.89	362.78
388.09	358.10
388.28	374.49
388.48	388.53
388.67	484.49
388.86	381.51
389.06	437.68
389.25	482.15
389.45	477.47
389.64	433.00
389.84	468.11
390.03	430.66
390.22	482.15
390.42	383.85
390.61	454.06
390.81	425.98
391.00	416.62
391.19	428.32
391.39	477.47
391.58	482.15
391.78	521.94
391.97	468.11
392.16	524.28
392.36	503.22
392.55	550.03
392.75	498.53
392.94	547.69
393.13	557.05
393.33	456.40
393.52	528.96
393.71	580.45
393.91	645.99
394.10	547.69
394.29	552.37
394.49	528.96
394.68	557.05
394.88	624.92
395.07	578.11
395.26	638.97
395.46	615.56
395.65	624.92
395.84	580.45
396.04	620.24
396.23	634.29
396.42	664.71
396.62	667.05
396.81	615.56
397.00	692.80
397.19	601.52
397.39	620.24
397.58	636.63
397.77	585.13
397.97	697.48
398.16	674.07
398.35	664.71
398.55	674.07
398.74	662.37
398.93	706.84
399.12	671.73
399.32	589.82
399.51	650.67
399.70	770.04
399.90	706.84
400.09	746.63
400.28	753.65
400.47	723.23
400.67	805.14
400.86	650.67
401.05	784.08
401.24	828.55
401.44	802.80
401.63	753.65
401.82	751.31
402.01	777.06
402.21	896.43
402.40	798.12
402.59	861.32
402.78	830.89
402.97	805.14
403.17	880.04
403.36	802.80
403.55	940.90
403.74	835.57
403.93	844.93
404.13	896.43
404.32	880.04
404.51	898.77
404.70	980.68
404.89	828.55
405.09	880.04
405.28	835.57
405.47	954.94
405.66	990.05
405.85	887.06
406.05	915.15
406.24	1055.58
406.43	987.71
406.62	1013.45
406.81	1025.15
407.00	947.92
407.20	966.64
407.39	983.02
407.58	1050.90
407.77	997.07
407.96	999.41
408.15	1029.84
408.34	978.34
408.54	1048.56
408.73	1111.75
408.92	1184.31
409.11	1097.71
409.30	1097.71
409.49	1107.07
409.68	1139.84
409.87	1116.44
410.07	1130.48
410.26	1219.42
410.45	1107.07
410.64	1270.91
410.83	1174.95
411.02	1203.04
411.21	1226.44
411.40	1273.25
411.59	1219.42
411.78	1196.01
411.98	1200.69
412.17	1289.64
412.36	1259.21
412.55	1387.94
412.74	1324.74
412.93	1355.17
413.12	1301.34
413.31	1416.02
413.50	1401.98
413.69	1392.62
413.88	1350.49
414.07	1376.24
414.26	1458.15
414.45	1474.54
414.64	1441.77
414.83	1458.15
415.02	1537.73
415.22	1430.07
415.41	1526.03
415.60	1563.48
415.79	1528.37
415.98	1547.09
416.17	1582.20
416.36	1612.63
416.55	1647.74
416.74	1692.21
416.93	1556.46
417.12	1629.01
417.31	1661.78
417.50	1647.74
417.69	1703.91
417.88	1701.57
418.07	1657.10
418.26	1689.87
418.45	1708.59
418.64	1846.68
418.83	1748.38
419.02	1778.81
419.21	1816.26
419.39	1802.21
419.58	1799.87
419.77	1732.00
419.96	1732.00
420.15	1872.43
420.34	1795.19
420.53	1820.94
420.72	1895.83
420.91	1926.26
421.10	1940.30
421.29	1959.03
421.48	1874.77
421.67	1930.94
421.86	1928.60
422.05	2083.08
422.24	1923.92
422.43	1966.05
422.61	1952.01
422.80	1928.60
422.99	2024.56
423.18	2059.67
423.37	1987.11
423.56	1886.47
423.75	1989.46
423.94	1863.07
424.13	1912.22
424.32	1767.10
424.50	2069.03
424.69	1989.46
424.88	2062.01
425.07	1970.73
425.26	2001.16
425.45	1989.46
425.64	1928.60
425.83	2003.50
426.01	1998.82
426.20	1888.81
426.39	1928.60
426.58	2097.12
426.77	2054.99
426.96	2064.35
427.15	2078.40
427.33	2080.74
427.52	2134.57
427.71	2200.10
427.90	2104.14
428.09	2174.36
428.28	2127.55
428.46	2172.02
428.65	2167.34
428.84	2225.85
429.03	2218.83
429.22	2071.37
429.40	2321.81
429.59	2242.23
429.78	2122.87
429.97	2242.23
430.16	2064.35
430.34	2249.25
430.53	2338.20
430.72	2420.11
430.91	2221.17
431.10	2310.11
431.28	2328.83
431.47	2375.64
431.66	2466.92
431.85	2417.77
432.03	2452.88
432.22	2455.22
432.41	2401.39
432.60	2408.41
432.79	2438.84
432.97	2530.12
433.16	2387.35
433.35	2445.86
433.54	2497.35
433.72	2401.39
433.91	2389.69
434.10	2434.16
434.28	2438.84
434.47	2450.54
434.66	2567.57
434.85	2595.65
435.03	2495.01
435.22	2544.16
435.41	2567.57
435.59	2576.93
435.78	2548.84
435.97	2637.78
436.16	2626.08
436.34	2698.64
436.53	2612.04
436.72	2635.44
436.90	2733.75
437.09	2715.02
437.28	2651.83
437.46	2799.28
437.65	2703.32
437.84	2693.96
438.02	2609.70
438.21	2813.32
438.40	2743.11
438.58	2902.26
438.77	2836.73
438.96	2820.35
439.14	2878.86
439.33	2895.24
439.52	3009.93
439.70	2916.31
439.89	2899.92
440.08	3002.91
440.26	3117.59
440.45	2995.89
440.63	3082.49
440.82	3030.99
441.01	3194.83
441.19	3187.81
441.38	3143.34
441.57	3225.26
441.75	3162.06
441.94	3192.49
442.12	3178.45
442.31	3197.17
442.50	3239.30
442.68	3251.00
442.87	3206.53
443.05	3403.14
443.24	3302.50
443.43	3382.07
443.61	3440.59
443.80	3421.86
443.98	3318.88
444.17	3222.92
444.35	3417.18
444.54	3363.35
444.73	3297.81
444.91	3307.18
445.10	3407.82
445.28	3461.65
445.47	3335.26
445.65	3396.12
445.84	3541.23
446.02	3358.67
446.21	3475.70
446.39	3578.68
446.58	3599.74
446.77	3377.39
446.95	3435.91
447.14	3541.23
447.32	3520.17
447.51	3368.03
447.69	3478.04
447.88	3459.31
448.06	3445.27
448.25	3520.17
448.43	3442.93
448.62	3365.69
448.80	3463.99
448.99	3557.61
449.17	3581.02
449.36	3520.17
449.54	3667.62
449.73	3653.58
449.91	3702.73
450.10	3564.64
450.28	3665.28
450.46	3641.87
450.65	3534.21
450.83	3770.60
451.02	3611.45
451.20	3590.38
451.39	3728.47
451.57	3712.09
451.76	3662.94
451.94	3794.01
452.13	3871.25
452.31	3756.56
452.49	3845.50
452.68	3791.67
452.86	3838.48
453.05	3864.22
453.23	3901.67
453.42	3854.86
453.60	3786.99
453.78	3922.74
453.97	3845.50
454.15	3878.27
454.34	3997.64
454.52	4077.21
454.70	4025.72
454.89	3901.67
455.07	3932.10
455.26	4025.72
455.44	4138.07
455.62	4079.55
455.81	4117.00
455.99	4098.28
456.17	4100.62
456.36	4147.43
456.54	4217.65
456.73	4142.75
456.91	4299.56
457.09	4353.40
457.28	4334.67
457.46	4194.24
457.64	4337.01
457.83	4273.82
458.01	4294.88
458.19	4493.83
458.38	4248.07
458.56	4365.10
458.74	4369.78
458.93	4255.09
459.11	4386.16
459.29	4400.21
459.48	4486.81
459.66	4519.57
459.84	4535.96
460.03	4444.68
460.21	4587.45
460.39	4358.08
460.57	4393.19
460.76	4545.32
460.94	4643.62
461.12	4528.94
461.31	4491.49
461.49	4512.55
461.67	4503.19
461.85	4720.86
462.04	4652.98
462.22	4779.37
462.40	4645.96
462.59	4755.97
462.77	4638.94
462.95	4685.75
463.13	4662.35
463.32	4657.67
463.50	4858.95
463.68	4774.69
463.86	4779.37
464.05	4741.93
464.23	4753.63
464.41	4983.00
464.59	4723.20
464.78	4903.42
464.96	4868.31
465.14	4875.34
465.32	4889.38
465.50	5029.81
465.69	4978.32
465.87	4987.68
466.05	4861.29
466.23	4968.96
466.41	4954.91
466.60	5200.67
466.78	4968.96
466.96	4873.00
467.14	5046.20
467.32	5062.58
467.51	5158.54
467.69	4950.23
467.87	5032.15
468.05	5114.07
468.23	5050.88
468.41	5165.56
468.60	5130.45
468.78	5153.86
468.96	5055.56
469.14	5184.29
469.32	5247.48
469.50	5095.35
469.69	5238.12
469.87	5462.81
470.05	5305.99
470.23	5385.57
470.41	5327.06
470.59	5533.03
470.77	5362.17
470.95	5537.71
471.14	5350.46
471.32	5317.70
471.50	5689.84
471.68	5486.22
471.86	5500.26
472.04	5671.12
472.22	5703.89
472.40	5640.69
472.58	5736.65
472.77	5593.88
472.95	5661.76
473.13	5944.96
473.31	5769.42
473.49	5809.21
473.67	5760.06
473.85	5832.62
474.03	5827.93
474.21	5912.19
474.39	5926.24
474.57	5982.41
474.75	6193.06
474.93	6115.82
475.12	6057.31
475.30	6033.90
475.48	6073.69
475.66	6221.14
475.84	6356.90
476.02	6244.55
476.20	6274.98
476.38	6408.39
476.56	6590.95
476.74	6307.74
476.92	6354.55
477.10	6520.73
477.28	6574.56
477.46	6656.48
477.64	6600.31
477.82	6771.17
478.00	6832.02
478.18	6897.56
478.36	6806.28
478.54	6932.67
478.72	7016.93
478.90	7042.67
479.08	7007.56
479.26	7131.61
479.44	7066.08
479.62	7183.10
479.80	7349.28
479.98	7246.30
480.16	7419.50
480.34	7442.90
480.52	7576.31
480.70	7534.18
480.88	7234.60
481.06	7449.93
481.24	7733.13
481.41	7709.72
481.59	7770.58
481.77	7878.24
481.95	8084.21
482.13	7864.20
482.31	8060.80
482.49	8077.19
482.67	8325.29
482.85	8327.63
483.03	8149.75
483.21	8449.33
483.39	8573.38
483.57	8451.67
483.74	8655.30
483.92	8702.11
484.10	8486.78
484.28	8762.97
484.46	8819.14
484.64	8924.46
484.82	8997.02
485.00	8910.42
485.18	9090.64
485.35	9427.68
485.53	9242.78
485.71	9245.12
485.89	9565.77
486.07	9179.58
486.25	9518.96
486.43	9420.66
486.61	9624.28
486.78	9680.46
486.96	9715.56
487.14	10005.79
487.32	9935.57
487.50	9928.55
487.68	10054.94
487.85	10171.97
488.03	10548.79
488.21	10384.96
488.39	10668.16
488.57	10630.71
488.75	10860.09
488.92	10654.12
489.10	10822.64
489.28	10651.78
489.46	11201.80
489.64	10787.53
489.81	11190.10
489.99	10991.16
490.17	11389.05
490.35	11398.41
490.53	11246.27
490.70	11541.18
490.88	11499.05
491.06	11646.51
491.24	11557.57
491.41	11716.72
491.59	11812.68
491.77	11737.79
491.95	11887.58
492.13	11974.18
492.30	12121.63
492.48	12231.64
492.66	11950.78
492.84	12123.98
493.01	12439.95
493.19	12535.91
493.37	12615.49
493.54	12704.43
493.72	12744.22
493.90	12638.89
494.08	12650.60
494.25	12849.54
494.43	12961.89
494.61	13228.71
494.79	13111.68
494.96	13277.86
495.14	13394.89
495.32	13277.86
495.49	13448.72
495.67	13514.25
495.85	13572.77
496.02	13514.25
496.20	13905.12
496.38	13703.84
496.55	13858.31
496.73	14260.88
496.91	13834.91
497.09	14017.47
497.26	14185.99
497.44	14019.81
497.62	14239.82
497.79	14576.86
497.97	14197.69
498.14	14789.85
498.32	14736.01
498.50	14700.90
498.67	14721.97
498.85	14590.90
499.03	14757.08
499.20	14754.74
499.38	14885.81
499.56	14850.70
499.73	15176.03
499.91	15211.14
500.08	15218.16
500.26	14949.00
500.44	15192.42
500.61	15250.93
500.79	15445.20
500.97	15541.16
501.14	15681.59
501.32	15386.68
501.49	15456.90
501.67	15246.25
501.84	15896.92
502.02	15730.74
502.20	15697.97
502.37	16060.76
502.55	16053.73
502.72	16020.97
502.90	16112.25
503.07	16065.44
503.25	16042.03
503.43	16037.35
503.60	16130.97
503.78	16418.86
503.95	16620.14
504.13	16292.47
504.30	16463.33
504.48	16236.30
504.65	16510.14
504.83	16741.85
505.01	16805.05
505.18	16940.80
505.36	16709.08
505.53	17053.14
505.71	16947.82
505.88	16952.50
506.06	16681.00
506.23	17233.36
506.41	16912.71
506.58	16982.93
506.76	16915.05
506.93	17226.34
507.11	17221.66
507.28	17284.86
507.46	17462.74
507.63	17369.12
507.81	17781.05
507.98	17415.93
508.16	17429.97
508.33	17607.85
508.50	17458.06
508.68	17713.17
508.85	17811.48
509.03	17905.10
509.20	18050.21
509.38	18068.94
509.55	18003.40
509.73	18068.94
509.90	18038.51
510.08	18235.11
510.25	18078.30
510.42	18272.56
510.60	18368.52
510.77	18525.34
510.95	18398.95
511.12	18171.92
511.30	18459.81
511.47	18906.85
511.64	18663.43
511.82	18941.96
511.99	18607.26
512.17	18995.79
512.34	18913.87
512.51	19033.24
512.69	18871.74
512.86	18838.97
513.04	19021.53
513.21	19103.45
513.38	19295.38
513.56	19358.57
513.73	19290.70
513.90	19433.47
514.08	19131.54
514.25	19468.58
514.43	19360.91
514.60	19667.52
514.77	19611.35
514.95	19632.41
515.12	19576.24
515.29	19487.30
515.47	19800.93
515.64	19829.02
515.81	20009.24
515.99	20128.61
516.16	19864.13
516.33	20067.75
516.51	20180.10
516.68	20023.28
516.85	20077.12
517.03	20135.63
517.20	20173.08
517.37	20301.81
517.54	20088.82
517.72	20271.38
517.89	20367.34
518.06	20379.04
518.24	20505.43
518.41	20395.43
518.58	20517.14
518.75	20556.93
518.93	20664.59
519.10	20606.08
519.27	20744.17
519.45	20622.46
519.62	20741.83
519.79	20854.17
519.96	20657.57
520.14	20985.24
520.31	20610.76
520.48	20938.43
520.65	21142.06
520.83	20835.45
521.00	21174.83
521.17	21355.05
521.34	21158.44
521.52	21390.16
521.69	21163.12
521.86	21724.85
522.03	21542.29
522.20	21603.14
522.38	21530.59
522.55	21551.65
522.72	21738.90
522.89	21692.08
523.07	21647.61
523.24	21783.37
523.41	21898.05
523.58	21422.92
523.75	21614.85
523.92	21741.24
524.10	21928.48
524.27	22115.72
524.44	21865.28
524.61	22239.77
524.78	22101.68
524.96	22085.30
525.13	22218.71
525.30	22307.65
525.47	22537.02
525.64	22398.93
525.81	22356.80
525.98	22583.83
526.16	22265.52
526.33	22522.98
526.50	22630.64
526.67	22368.50
526.84	22649.36
527.01	22686.81
527.18	22700.86
527.36	22967.68
527.53	22785.12
527.70	22970.02
527.87	22735.96
528.04	22934.91
528.21	22738.30
528.38	22911.50
528.55	23405.36
528.72	22937.25
528.89	22923.21
529.07	23260.24
529.24	23098.75
529.41	22939.59
529.58	22951.29
529.75	23061.30
529.92	23248.54
530.09	23161.94
530.26	23206.41
530.43	23290.67
530.60	23484.94
530.77	23225.14
530.94	23613.66
531.11	23407.70
531.28	23084.70
531.46	23187.69
531.63	23665.16
531.80	23466.21
531.97	23800.91
532.14	23761.12
532.31	23793.89
532.48	23852.40
532.65	23651.11
532.82	23536.43
532.99	23707.29
533.16	23929.64
533.33	24219.86
533.50	24264.33
533.67	24325.19
533.84	23941.34
534.01	23981.13
534.18	24018.58
534.35	24034.96
534.52	24088.79
534.69	24418.81
534.86	24411.79
535.03	24034.96
535.20	24175.39
535.37	24702.01
535.54	24238.59
535.71	24428.17
535.88	24355.61
536.05	24269.01
536.22	24484.34
536.38	24685.63
536.55	24676.27
536.72	24732.44
536.89	24610.73
537.06	24631.80
537.23	24496.05
537.40	24573.28
537.57	24727.76
537.74	24945.43
537.91	25230.98
538.08	25039.05
538.25	24711.38
538.42	24896.28
538.59	24996.92
538.75	24805.00
538.92	24802.66
539.09	25256.72
539.26	24823.72
539.43	25048.41
539.60	25261.40
539.77	25301.19
539.94	25811.43
540.11	25142.03
540.28	25151.40
540.44	25380.77
540.61	25216.93
540.78	25158.42
540.95	25207.57
541.12	25450.99
541.29	25338.64
541.46	25560.99
541.62	25256.72
541.79	25308.21
541.96	25069.48
542.13	25497.80
542.30	25549.29
542.47	25453.33
542.63	25766.96
542.80	25785.68
542.97	26185.91
543.14	25834.83
543.31	25825.47
543.48	25518.86
543.64	26359.11
543.81	26218.68
543.98	26328.69
544.15	26192.94
544.32	26370.82
544.48	26373.16
544.65	26354.43
544.82	26284.22
544.99	25879.30
545.16	26001.01
545.32	26129.74
545.49	26352.09
545.66	26632.96
545.83	26452.73
546.00	26525.29
546.16	26185.91
546.33	26359.11
546.50	26157.83
546.67	26157.83
546.83	26244.43
547.00	26143.78
547.17	26462.10
547.34	26469.12
547.50	26682.11
547.67	26438.69
547.84	26480.82
548.00	26450.39
548.17	27173.62
548.34	26705.51
548.51	27058.93
548.67	27056.59
548.84	26813.18
549.01	26895.10
549.18	26710.19
549.34	26946.59
549.51	26787.43
549.68	26888.07
549.84	26850.63
550.01	27105.74
550.18	26670.40
550.34	26642.32
550.51	27147.87
550.68	27054.25
550.84	26686.79
551.01	27019.14
551.18	26871.69
551.34	26962.97
551.51	27239.15
551.68	27108.08
551.84	27520.02
552.01	27047.23
552.18	27496.61
552.34	27145.53
552.51	27281.28
552.68	27487.25
552.84	27239.15
553.01	27264.90
553.18	27253.20
553.34	27623.00
553.51	27576.19
553.67	27611.30
553.84	27807.90
554.01	27669.81
554.17	27545.76
554.34	27339.80
554.51	27550.45
554.67	27693.22
554.84	27688.54
555.00	27459.16
555.17	27672.15
555.33	27910.89
555.50	27452.14
555.67	27669.81
555.83	27784.50
556.00	27658.11
556.16	27999.83
556.33	27370.22
556.50	28091.11
556.66	28053.66
556.83	27903.87
556.99	27931.95
557.16	28397.72
557.32	28362.61
557.49	28336.87
557.65	27805.56
557.82	27573.85
557.98	28009.19
558.15	28435.17
558.32	28414.10
558.48	27974.08
558.65	28252.61
558.81	28121.54
558.98	28100.47
559.14	27962.38
559.31	28133.24
559.47	28084.09
559.64	28222.18
559.80	28390.70
559.97	28364.95
560.13	28084.09
560.30	28189.41
560.46	28587.30
560.63	28453.89
560.79	28329.84
560.96	28386.02
561.12	28474.96
561.29	28119.20
561.45	28407.08
561.61	28343.89
561.78	28463.25
561.94	28453.89
562.11	28498.36
562.27	28348.57
562.44	28210.48
562.60	28531.13
562.77	28484.32
562.93	28325.16
563.10	28584.96
563.26	28517.09
563.42	28989.88
563.59	28769.86
563.75	28498.36
563.92	28608.37
564.08	28390.70
564.24	27934.29
564.41	28395.38
564.57	28505.38
564.74	28559.22
564.90	28491.34
565.07	28673.90
565.23	28753.48
565.39	28692.63
565.56	28613.05
565.72	28732.42
565.88	28737.10
566.05	28687.95
566.21	28624.75
566.38	28751.14
566.54	28790.93
566.70	29090.52
566.87	29160.73
567.03	28765.18
567.19	29153.71
567.36	28882.21
567.52	28926.68
567.68	28706.67
567.85	28732.42
568.01	29088.18
568.17	28687.95
568.34	29060.09
568.50	28980.51
568.66	28936.04
568.83	28823.70
568.99	28898.59
569.15	28760.50
569.32	28804.97
569.48	28898.59
569.64	29015.62
569.81	29120.95
569.97	28596.67
570.13	29062.43
570.30	28987.53
570.46	29053.07
570.62	29240.31
570.78	28992.22
570.95	28713.69
571.11	28800.29
571.27	29013.28
571.43	28793.27
571.60	28840.08
571.76	29064.77
571.92	29048.39
572.09	29235.63
572.25	29156.05
572.41	29099.88
572.57	29090.52
572.74	29280.10
572.90	28837.74
573.06	28980.51
573.22	29340.96
573.38	29369.04
573.55	29450.96
573.71	29359.68
573.87	29457.98
574.03	29488.41
574.20	29352.66
574.36	28893.91
574.52	29069.45
574.68	29219.25
574.84	29411.17
575.01	29392.45
575.17	29139.67
575.33	28945.41
575.49	29165.42
575.65	29401.81
575.82	29359.68
575.98	29252.02
576.14	29287.12
576.30	28989.88
576.46	29443.94
576.62	29200.52
576.79	29343.30
576.95	29212.23
577.11	29277.76
577.27	29521.18
577.43	29373.72
577.59	29483.73
577.75	29350.32
577.92	29397.13
578.08	29057.75
578.24	29221.59
578.40	29579.69
578.56	29343.30
578.72	29563.31
578.88	29392.45
579.04	29535.22
579.21	29413.51
579.37	29350.32
579.53	29532.88
579.69	29242.65
579.85	29228.61
580.01	29214.57
580.17	29390.11
580.33	29041.37
580.49	29273.08
580.65	29336.27
580.82	29343.30
580.98	29301.17
581.14	29483.73
581.30	29504.79
581.46	29319.89
581.62	29177.12
581.78	29139.67
581.94	29621.82
582.10	29240.31
582.26	29282.44
582.42	29289.46
582.58	29593.73
582.74	29773.95
582.90	29511.81
583.06	29546.92
583.22	29338.62
583.38	29467.34
583.54	29237.97
583.70	29460.32
583.86	29193.50
584.02	29558.63
584.18	29378.40
584.34	29610.12
584.50	29724.80
584.66	29263.72
584.82	29347.98
584.98	29893.32
585.14	29455.64
585.30	29202.86
585.46	29366.70
585.62	28971.15
585.78	28900.94
585.94	29649.91
586.10	29738.85
586.26	29465.00
586.42	29860.55
586.58	29682.67
586.74	29446.28
586.90	29247.33
587.06	29137.33
587.22	29261.38
587.38	29263.72
587.54	29907.37
587.70	29572.67
587.86	29427.56
588.02	29972.90
588.18	29820.77
588.34	29511.81
588.49	29750.55
588.65	29392.45
588.81	29387.77
588.97	29535.22
589.13	29589.05
589.29	29661.61
589.45	29692.04
589.61	29921.41
589.77	29624.16
589.93	29858.21
590.08	30089.93
590.24	29387.77
590.40	29940.13
590.56	29675.65
590.72	29656.93
590.88	29661.61
591.04	29556.28
591.20	29844.17
591.35	30251.42
591.51	29930.77
591.67	29853.53
591.83	29830.13
591.99	29773.95
592.15	29502.45
592.31	30078.22
592.46	29989.28
592.62	30052.48
592.78	29699.06
592.94	29525.86
593.10	29752.89
593.26	29862.90
593.41	30314.62
593.57	29851.19
593.73	29680.33
593.89	30277.17
594.05	29823.11
594.20	29750.55
594.36	29874.60
594.52	29762.25
594.68	29862.90
594.84	29930.77
594.99	30291.21
595.15	29799.70
595.31	30242.06
595.47	30040.78
595.62	30192.91
595.78	29806.72
595.94	29979.92
596.10	29834.81
596.25	29766.93
596.41	29628.84
596.57	29670.97
596.73	29961.20
596.88	29858.21
597.04	29968.22
597.20	30059.50
597.36	30099.29
597.51	30305.26
597.67	29958.86
597.83	29677.99
597.99	29876.94
598.14	29757.57
598.30	29907.37
598.46	29731.83
598.61	30202.27
598.77	29762.25
598.93	29991.62
599.09	29759.91
599.24	30143.76
599.40	30312.28
599.56	30024.39
599.71	30249.08
599.87	29874.60
600.03	30129.72
600.18	30309.94
600.34	30071.20
600.50	29947.15
600.65	30300.58
600.81	30108.65
600.97	30110.99
601.12	30251.42
601.28	29970.56
601.44	30235.04
601.59	30225.68
601.75	29937.79
601.91	30075.88
602.06	30115.67
602.22	30171.85
602.37	30139.08
602.53	30061.84
602.69	30202.27
602.84	29888.64
603.00	30073.54
603.16	30206.95
603.31	30188.23
603.47	30160.14
603.62	30476.12
603.78	30232.70
603.94	29507.13
604.09	29720.12
604.25	30190.57
604.40	29570.33
604.56	30246.74
604.71	30148.44
604.87	29886.30
605.03	30148.44
605.18	30047.80
605.34	29766.93
605.49	29865.24
605.65	30003.33
605.80	29921.41
605.96	29898.00
606.12	29792.68
606.27	29853.53
606.43	29773.95
606.58	30260.79
606.74	30361.43
606.89	30714.85
607.05	30309.94
607.20	30375.47
607.36	29914.39
607.51	29900.34
607.67	29642.88
607.82	29773.95
607.98	29706.08
608.13	29827.79
608.29	29649.91
608.44	29762.25
608.60	29968.22
608.75	29832.47
608.91	30092.27
609.06	29900.34
609.22	29488.41
609.37	29645.23
609.53	29586.71
609.68	29455.64
609.84	29488.41
609.99	29970.56
610.15	29757.57
610.30	29780.98
610.46	29783.32
610.61	30101.63
610.76	29802.04
610.92	29736.51
611.07	29879.28
611.23	29795.02
611.38	29729.48
611.54	29900.34
611.69	29139.67
611.84	29418.19
612.00	29462.66
612.15	29949.50
612.31	29710.76
612.46	29280.10
612.62	29921.41
612.77	29902.68
612.92	30078.22
613.08	29406.49
613.23	29511.81
613.39	29605.44
613.54	29490.75
613.69	29181.80
613.85	29172.44
614.00	29439.26
614.15	29596.07
614.31	29397.13
614.46	29902.68
614.62	29715.44
614.77	29263.72
614.92	29575.01
615.08	29645.23
615.23	29397.13
615.38	29329.25
615.54	29364.36
615.69	29113.92
615.84	28872.85
616.00	29195.84
616.15	28760.50
616.30	29427.56
616.46	29448.62
616.61	29324.57
616.76	29291.80
616.92	29343.30
617.07	29298.83
617.22	29130.31
617.37	28989.88
617.53	29287.12
617.68	28994.56
617.83	29043.71
617.99	28727.74
618.14	29008.60
618.29	29284.78
618.45	28950.09
618.60	29558.63
618.75	28900.94
618.90	29036.69
619.06	29050.73
619.21	28966.47
619.36	29259.04
619.51	28531.13
619.67	28718.37
619.82	28765.18
619.97	28711.35
620.12	29095.20
620.28	28730.08
620.43	29254.36
620.58	28882.21
620.73	28863.49
620.89	29060.09
621.04	28987.53
621.19	28971.15
621.34	28755.82
621.49	28521.77
621.65	28730.08
621.80	28339.21
621.95	28292.40
622.10	28657.52
622.25	28865.83
622.41	28863.49
622.56	28711.35
622.71	28882.21
622.86	29006.26
623.01	28809.65
623.16	28428.15
623.32	28545.17
623.47	28531.13
623.62	28444.53
623.77	28456.23
623.92	28594.32
624.07	28580.28
624.23	28283.03
624.38	28559.22
624.53	28753.48
624.68	28552.20
624.83	28489.00
624.98	28610.71
625.13	28364.95
625.29	28517.09
625.44	28458.57
625.59	28479.64
625.74	27892.16
625.89	28189.41
626.04	28215.16
626.19	27981.10
626.34	28105.15
626.49	27924.93
626.65	28077.07
626.80	28180.05
626.95	28191.75
627.10	28318.14
627.25	28194.09
627.40	27899.19
627.55	28133.24
627.70	28025.57
627.85	27857.06
628.00	27814.93
628.15	27901.53
628.30	28081.75
628.45	27908.55
628.60	27967.06
628.76	28168.35
628.91	27871.10
629.06	27906.21
629.21	27969.40
629.36	27674.49
629.51	27709.60
629.66	27831.31
629.81	27922.59
629.96	27637.05
630.11	27754.07
630.26	27742.37
630.41	27697.90
630.56	27679.18
630.71	27821.95
630.86	27924.93
631.01	27615.98
631.16	27941.32
631.31	27431.08
631.46	27091.70
631.61	27508.32
631.76	27442.78
631.91	27513.00
632.06	27445.12
632.21	27524.70
632.36	27484.91
632.51	27484.91
632.66	27398.31
632.81	27103.40
632.96	27590.24
633.10	27613.64
633.25	27421.72
633.40	27321.07
633.55	27683.86
633.70	27412.35
633.85	27173.62
634.00	27442.78
634.15	27332.78
634.30	27054.25
634.45	27241.50
634.60	27192.34
634.75	26977.01
634.90	27283.62
635.05	27431.08
635.19	27023.83
635.34	27262.56
635.49	27517.68
635.64	27704.92
635.79	27363.20
635.94	27178.30
636.09	27124.47
636.24	26579.12
636.39	26707.85
636.53	27005.10
636.68	27023.83
636.83	27012.12
636.98	26969.99
637.13	27136.17
637.28	26969.99
637.43	26937.23
637.57	26883.39
637.72	26836.58
637.87	26857.65
638.02	26824.88
638.17	26925.52
638.32	26256.13
638.46	26492.52
638.61	26480.82
638.76	26536.99
638.91	26471.46
639.06	26639.98
639.20	26782.75
639.35	27030.85
639.50	26501.89
639.65	27129.15
639.80	26911.48
639.94	26639.98
640.09	26546.36
640.24	27087.02
640.39	26382.52
640.54	26328.69
640.68	26424.65
640.83	26223.36
640.98	26384.86
641.13	26551.04
641.27	26394.22
641.42	26244.43
641.57	26579.12
641.72	26422.31
641.86	26111.02
642.01	26295.92
642.16	26661.04
642.31	26370.82
642.45	26441.03
642.60	26080.59
642.75	25996.33
642.90	26235.06
643.04	25914.41
643.19	26483.16
643.34	26583.80
643.48	26239.75
643.63	26045.48
643.78	26434.01
643.93	26164.85
644.07	26654.02
644.22	26417.63
644.37	26274.85
644.51	26211.66
644.66	26300.60
644.81	26106.34
644.95	26101.65
645.10	25963.56
645.25	26012.71
645.39	26080.59
645.54	25937.82
645.69	25940.16
645.83	26265.49
645.98	26181.23
646.13	26087.61
646.27	26293.58
646.42	26113.36
646.57	25923.77
646.71	26284.22
646.86	26071.23
647.00	25951.86
647.15	25909.73
647.30	26024.42
647.44	25458.01
647.59	25539.93
647.74	25490.77
647.88	25750.57
648.03	25839.51
648.17	25694.40
648.32	25865.26
648.47	25865.26
648.61	25507.16
648.76	25972.92
648.90	25940.16
649.05	25598.44
649.20	25614.82
649.34	25481.41
649.49	25319.92
649.63	25488.43
649.78	25450.99
649.92	25495.46
650.07	25633.55
650.21	25415.88
650.36	25413.54
650.51	25663.97
650.65	25493.12
650.80	25710.78
650.94	25558.65
651.09	25535.24
651.23	25261.40
651.38	25254.38
651.52	25383.11
651.67	25329.28
651.81	25118.63
651.96	25575.03
652.10	25617.16
652.25	25099.90
652.39	25331.62
652.54	25362.04
652.68	25132.67
652.83	25376.09
652.97	25282.47
653.12	25399.49
653.26	25179.48
653.41	25336.30
653.55	25043.73
653.70	25130.33
653.84	25151.40
653.99	25109.27
654.13	24816.70
654.27	24856.49
654.42	25338.64
654.56	25184.16
654.71	25340.98
654.85	24891.60
655.00	25521.20
655.14	24744.14
655.29	24900.96
655.43	25113.95
655.57	24807.34
655.72	24725.42
655.86	24842.45
656.01	24652.86
656.15	24608.39
656.30	24842.45
656.44	24854.15
656.58	24360.30
656.73	24779.25
656.87	24657.54
657.01	24877.55
657.16	24753.51
657.30	24830.74
657.45	24627.12
657.59	24381.36
657.73	24592.01
657.88	24379.02
658.02	24357.96
658.16	24711.38
658.31	24657.54
658.45	24472.64
658.60	24390.72
658.74	24395.40
658.88	24388.38
659.03	24182.42
659.17	24510.09
659.31	24531.15
659.46	24170.71
659.60	24559.24
659.74	24219.86
659.89	24243.27
660.03	24032.62
660.17	24187.10
660.32	23775.16
660.46	24133.26
660.60	23910.91
660.74	24135.60
660.89	24205.82
661.03	23934.32
661.17	23955.38
661.32	23985.81
661.46	24301.78
661.60	23913.25
661.74	23878.15
661.89	24159.01
662.03	23896.87
662.17	24030.28
662.31	23735.37
662.46	23793.89
662.60	23606.64
662.74	23693.24
662.88	23634.73
663.03	23363.23
663.17	23520.04
663.31	23503.66
663.45	23506.00
663.60	23335.14
663.74	23232.16
663.88	23618.35
664.02	23616.01
664.17	23494.30
664.31	23243.86
664.45	23531.75
664.59	23271.95
664.73	23033.21
664.88	23271.95
665.02	22951.29
665.16	23183.01
665.30	23026.19
665.44	23201.73
665.59	22541.70
665.73	23016.83
665.87	22920.87
666.01	22965.34
666.15	22878.74
666.29	22792.14
666.44	23037.89
666.58	22979.38
666.72	22775.75
666.86	23009.81
667.00	22705.54
667.14	23007.47
667.28	22946.61
667.43	22595.53
667.57	22443.40
667.71	22239.77
667.85	22436.38
667.99	22319.35
668.13	22569.79
668.27	22249.13
668.41	22281.90
668.56	22359.14
668.70	22441.06
668.84	22850.65
668.98	22661.07
669.12	22267.86
669.26	22436.38
669.40	22146.15
669.54	22363.82
669.68	22225.73
669.82	22022.10
669.96	21895.71
670.10	22008.06
670.25	21972.95
670.39	21888.69
670.53	21696.77
670.67	21671.02
670.81	21781.03
670.95	22015.08
671.09	21855.92
671.23	21624.21
671.37	22122.74
671.51	21675.70
671.65	21589.10
671.79	21886.35
671.93	21575.06
672.07	21357.39
672.21	21095.25
672.35	21535.27
672.49	21429.94
672.63	21312.92
672.77	21273.13
672.91	21172.49
673.05	21579.74
673.19	21060.14
673.33	20875.24
673.47	21521.23
673.61	21106.95
673.75	21294.19
673.89	21120.99
674.03	20994.61
674.17	20964.18
674.31	21102.27
674.45	20966.52
674.59	21207.59
674.73	21048.44
674.87	20863.54
675.01	20524.16
675.15	20982.90
675.29	20627.14
675.43	20341.60
675.56	20648.21
675.70	20500.75
675.84	20407.13
675.98	20020.94
676.12	20325.21
676.26	20409.47
676.40	20491.39
676.54	20170.74
676.68	20257.34
676.82	20046.69
676.96	20044.35
677.10	19917.96
677.23	19578.58
677.37	19756.46
677.51	19843.06
677.65	19520.07
677.79	19562.20
677.93	19587.94
678.07	19571.56
678.21	19323.46
678.34	19372.61
678.48	19236.86
678.62	19435.81
678.76	19262.61
678.90	19178.35
679.04	19241.54
679.18	19110.47
679.31	18923.23
679.45	19105.79
679.59	18764.07
679.73	18604.92
679.87	18602.58
680.00	18508.96
680.14	18483.21
680.28	18897.49
680.42	18668.11
680.56	18560.45
680.70	18843.65
680.83	18455.12
680.97	18450.44
681.11	18478.53
681.25	18415.34
681.39	18349.80
681.52	18246.82
681.66	18331.08
681.80	18192.98
681.94	18181.28
682.07	18008.08
682.21	17834.88
682.35	18164.90
682.49	17848.93
682.62	18036.17
682.76	17874.67
682.90	17872.33
683.04	17462.74
683.17	17617.21
683.31	17568.06
683.45	17500.19
683.59	17727.22
683.72	17511.89
683.86	17392.52
684.00	17476.78
684.13	17411.25
684.27	17050.80
684.41	16849.52
684.55	17092.93
684.68	17018.04
684.82	16786.32
684.96	16709.08
685.09	16753.55
685.23	16563.97
685.37	16788.66
685.50	16954.84
685.64	16542.91
685.78	16903.35
685.91	16662.27
686.05	16622.48
686.19	16535.88
686.32	16503.12
686.46	16269.06
686.60	16365.03
686.73	16264.38
686.87	16187.14
687.01	16100.55
687.14	15971.82
687.28	16114.59
687.42	15840.75
687.55	15779.89
687.69	16004.58
687.82	15789.25
687.96	15700.31
688.10	15482.64
688.23	15941.39
688.37	15775.21
688.50	15487.32
688.64	15522.43
688.78	15534.14
688.91	15442.85
689.05	15307.10
689.18	15421.79
689.32	15152.63
689.46	15136.24
689.59	15143.27
689.73	15084.75
689.86	15019.22
690.00	14731.33
690.13	14876.44
690.27	14824.95
690.41	14743.03
690.54	14869.42
690.68	14986.45
690.81	14602.60
690.95	14789.85
691.08	14537.07
691.22	14717.29
691.35	14544.09
691.49	14623.67
691.62	14626.01
691.76	14464.51
691.89	14178.97
692.03	14143.86
692.16	14132.15
692.30	14005.77
692.43	14146.20
692.57	13987.04
692.70	14097.05
692.84	13916.83
692.97	13795.12
693.11	14005.77
693.24	13942.57
693.38	13724.90
693.51	13650.00
693.65	13743.63
693.78	13614.90
693.92	13626.60
694.05	13341.05
694.19	13380.84
694.32	13469.78
694.45	13188.92
694.59	13177.22
694.72	13294.24
694.86	13090.62
694.99	13092.96
695.13	12835.50
695.26	13060.19
695.39	13083.59
695.53	12732.51
695.66	12886.99
695.80	12802.73
695.93	12996.99
696.07	12748.90
696.20	12980.61
696.33	12606.13
696.47	12524.21
696.60	12662.30
696.73	12418.88
696.87	12397.82
697.00	12100.57
697.14	11997.59
697.27	12212.92
697.40	12053.76
697.54	12140.36
697.67	11882.90
697.80	11882.90
697.94	11983.54
698.07	11843.11
698.21	11548.20
698.34	11925.03
698.47	12002.27
698.61	11941.41
698.74	11772.89
698.87	11838.43
699.01	11522.46
699.14	11817.36
699.27	11557.57
699.40	11344.58
699.54	11524.80
699.67	11590.33
699.80	11346.92
699.94	11250.96
700.07	11068.39
700.20	10925.62
700.34	11005.20
700.47	11061.37
700.60	10951.37
700.73	11103.50
700.87	10890.51
701.00	10986.47
701.13	10782.85
701.26	10647.10
701.40	10939.66
701.53	11049.67
701.66	10909.24
701.79	10518.37
701.93	10501.98
702.06	10560.50
702.19	10518.37
702.32	10523.05
702.46	10331.12
702.59	10120.48
702.72	10410.70
702.85	10169.63
702.99	10218.78
703.12	10026.86
703.25	10153.24
703.38	10239.84
703.51	10043.24
703.65	10031.54
703.78	10026.86
703.91	9886.42
704.04	9994.09
704.17	9893.44
704.31	9963.66
704.44	9776.42
704.57	9820.89
704.70	9647.69
704.83	9551.73
704.96	9542.36
705.10	9331.72
705.23	9591.52
>>>>>End Processed Spectral Data<<<<<
