SpectraSuite Data File
++++++++++++++++++++++++++++++++++++
Date: Fri Oct 18 13:58:42 GMT-05:00 2013
User: bianchi
Dark Spectrum Present: No
Reference Spectrum Present: No
Number of Sampled Component Spectra: 1
Spectrometers: USB2+H05261
Integration Time (usec): 50000 (USB2+H05261)
Spectra Averaged: 1 (USB2+H05261)
Boxcar Smoothing: 0 (USB2+H05261)
Correct for Electrical Dark: No (USB2+H05261)
Strobe/Lamp Enabled: No (USB2+H05261)
Correct for Detector Non-linearity: No (USB2+H05261)
Correct for Stray Light: No (USB2+H05261)
Number of Pixels in Processed Spectrum: 2048
>>>>>Begin Processed Spectral Data<<<<<
365.73	0.00
365.92	0.00
366.12	0.00
366.32	0.00
366.52	0.00
366.72	0.00
366.91	0.00
367.11	0.00
367.31	0.00
367.51	0.00
367.70	0.00
367.90	0.00
368.10	0.00
368.30	0.00
368.49	0.00
368.69	0.00
368.89	0.00
369.09	0.00
369.28	0.00
369.48	0.00
369.68	0.00
369.87	0.00
370.07	0.00
370.27	0.00
370.47	0.00
370.66	72.56
370.86	95.96
371.06	135.75
371.25	191.92
371.45	121.71
371.65	133.41
371.84	159.16
372.04	163.84
372.24	187.24
372.44	191.92
372.63	95.96
372.83	234.05
373.03	161.50
373.22	166.18
373.42	187.24
373.62	236.39
373.81	152.13
374.01	210.65
374.21	245.76
374.40	250.44
374.60	271.50
374.79	217.67
374.99	280.86
375.19	264.48
375.38	262.14
375.58	238.73
375.78	266.82
375.97	311.29
376.17	238.73
376.37	362.78
376.56	271.50
376.76	255.12
376.95	262.14
377.15	266.82
377.35	290.23
377.54	269.16
377.74	255.12
377.93	346.40
378.13	367.46
378.33	301.93
378.52	297.25
378.72	276.18
378.91	332.36
379.11	306.61
379.31	210.65
379.50	215.33
379.70	264.48
379.89	304.27
380.09	304.27
380.28	332.36
380.48	308.95
380.68	264.48
380.87	294.91
381.07	351.08
381.26	318.31
381.46	250.44
381.65	372.15
381.85	395.55
382.04	341.72
382.24	367.46
382.43	344.06
382.63	367.46
382.83	280.86
383.02	341.72
383.22	330.02
383.41	327.68
383.61	339.38
383.80	327.68
384.00	383.85
384.19	341.72
384.39	360.44
384.58	383.85
384.78	425.98
384.97	304.27
385.17	257.46
385.36	283.20
385.56	355.76
385.75	360.44
385.95	355.76
386.14	376.83
386.34	393.21
386.53	430.66
386.72	390.87
386.92	421.30
387.11	470.45
387.31	472.79
387.50	376.83
387.70	463.43
387.89	418.96
388.09	390.87
388.28	433.00
388.48	430.66
388.67	447.04
388.86	407.25
389.06	442.36
389.25	383.85
389.45	440.02
389.64	479.81
389.84	472.79
390.03	442.36
390.22	463.43
390.42	470.45
390.61	470.45
390.81	533.64
391.00	606.20
391.19	573.43
391.39	540.66
391.58	498.53
391.78	543.00
391.97	603.86
392.16	531.30
392.36	535.98
392.55	507.90
392.75	524.28
392.94	540.66
393.13	435.34
393.33	545.34
393.52	596.84
393.71	573.43
393.91	645.99
394.10	582.79
394.29	589.82
394.49	554.71
394.68	566.41
394.88	547.69
395.07	613.22
395.26	587.47
395.46	636.63
395.65	568.75
395.84	641.31
396.04	669.39
396.23	664.71
396.42	571.09
396.62	629.60
396.81	746.63
397.00	645.99
397.19	620.24
397.39	638.97
397.58	720.88
397.77	601.52
397.97	671.73
398.16	690.46
398.35	636.63
398.55	615.56
398.74	648.33
398.93	737.27
399.12	636.63
399.32	744.29
399.51	758.33
399.70	720.88
399.90	767.70
400.09	685.78
400.28	739.61
400.47	814.51
400.67	772.38
400.86	692.80
401.05	746.63
401.24	812.17
401.44	816.85
401.63	816.85
401.82	758.33
402.01	727.91
402.21	727.91
402.40	788.76
402.59	840.25
402.78	840.25
402.97	823.87
403.17	926.85
403.36	894.08
403.55	856.64
403.74	814.51
403.93	819.19
404.13	933.87
404.32	912.81
404.51	987.71
404.70	994.73
404.89	929.19
405.09	915.15
405.28	910.47
405.47	922.17
405.66	990.05
405.85	1074.31
406.05	992.39
406.24	1004.09
406.43	1081.33
406.62	992.39
406.81	1006.43
407.00	1001.75
407.20	931.53
407.39	976.00
407.58	999.41
407.77	1036.86
407.96	1048.56
408.15	1008.77
408.34	1027.50
408.54	1018.13
408.73	1027.50
408.92	1081.33
409.11	1104.73
409.30	1132.82
409.49	1144.52
409.68	1165.59
409.87	1090.69
410.07	1186.65
410.26	1111.75
410.45	1146.86
410.64	1142.18
410.83	1088.35
411.02	1067.28
411.21	1184.31
411.40	1214.74
411.59	1254.53
411.78	1284.95
411.98	1165.59
412.17	1273.25
412.36	1362.19
412.55	1291.98
412.74	1359.85
412.93	1329.42
413.12	1282.61
413.31	1481.56
413.50	1460.49
413.69	1397.30
413.88	1458.15
414.07	1406.66
414.26	1437.09
414.45	1465.18
414.64	1437.09
414.83	1488.58
415.02	1509.65
415.22	1528.37
415.41	1462.83
415.60	1565.82
415.79	1657.10
415.98	1626.67
416.17	1671.14
416.36	1643.06
416.55	1579.86
416.74	1572.84
416.93	1668.80
417.12	1743.70
417.31	1575.18
417.50	1671.14
417.69	1799.87
417.88	1750.72
418.07	1678.16
418.26	1778.81
418.45	1701.57
418.64	1708.59
418.83	1778.81
419.02	1727.32
419.21	1914.56
419.39	1788.17
419.58	1856.04
419.77	1671.14
419.96	1809.23
420.15	1760.08
420.34	1844.34
420.53	1802.21
420.72	1863.07
420.91	1872.43
421.10	1921.58
421.29	1919.24
421.48	1877.11
421.67	1867.75
421.86	1916.90
422.05	1902.86
422.24	1933.28
422.43	1987.11
422.61	1926.26
422.80	1888.81
422.99	2073.71
423.18	1984.77
423.37	1959.03
423.56	2043.29
423.75	1900.52
423.94	1919.24
424.13	1912.22
424.32	1942.64
424.50	2026.90
424.69	1991.80
424.88	2031.58
425.07	1935.62
425.26	2050.31
425.45	1954.35
425.64	1987.11
425.83	1973.07
426.01	1989.46
426.20	2033.93
426.39	2040.95
426.58	1989.46
426.77	2031.58
426.96	2069.03
427.15	1994.14
427.33	2165.00
427.52	2062.01
427.71	2169.68
427.90	2080.74
428.09	2122.87
428.28	2181.38
428.46	2167.34
428.65	2165.00
428.84	2169.68
429.03	2317.13
429.22	2277.34
429.40	2291.38
429.59	2193.08
429.78	2197.76
429.97	2101.80
430.16	2125.21
430.34	2260.96
430.53	2326.49
430.72	2317.13
430.91	2122.87
431.10	2150.95
431.28	2459.90
431.47	2277.34
431.66	2443.52
431.85	2328.83
432.03	2312.45
432.22	2429.48
432.41	2399.05
432.60	2471.61
432.79	2401.39
432.97	2424.80
433.16	2579.27
433.35	2525.44
433.54	2518.42
433.72	2499.69
433.91	2546.50
434.10	2525.44
434.28	2485.65
434.47	2567.57
434.66	2637.78
434.85	2569.91
435.03	2466.92
435.22	2595.65
435.41	2729.06
435.59	2576.93
435.78	2583.95
435.97	2441.18
436.16	2590.97
436.34	2586.29
436.53	2626.08
436.72	2670.55
436.90	2607.36
437.09	2803.96
437.28	2635.44
437.46	2813.32
437.65	2796.94
437.84	2829.71
438.02	2712.68
438.21	2757.15
438.40	2801.62
438.58	2843.75
438.77	2909.29
438.96	2965.46
439.14	2902.26
439.33	2951.42
439.52	3021.63
439.70	2918.65
439.89	2979.50
440.08	3045.04
440.26	2953.76
440.45	2995.89
440.63	3119.93
440.82	3225.26
441.01	3021.63
441.19	3155.04
441.38	3171.43
441.57	3194.83
441.75	3211.22
441.94	3173.77
442.12	3159.72
442.31	3323.56
442.50	3236.96
442.68	3056.74
442.87	3332.92
443.05	3274.41
443.24	3421.86
443.43	3335.26
443.61	3220.58
443.80	3604.42
443.98	3274.41
444.17	3197.17
444.35	3419.52
444.54	3501.44
444.73	3248.66
444.91	3463.99
445.10	3375.05
445.28	3513.14
445.47	3412.50
445.65	3403.14
445.84	3403.14
446.02	3480.38
446.21	3346.97
446.39	3384.41
446.58	3517.83
446.77	3435.91
446.95	3351.65
447.14	3466.33
447.32	3559.95
447.51	3424.20
447.69	3548.25
447.88	3499.10
448.06	3538.89
448.25	3382.07
448.43	3581.02
448.62	3386.76
448.80	3503.78
448.99	3517.83
449.17	3564.64
449.36	3583.36
449.54	3641.87
449.73	3522.51
449.91	3662.94
450.10	3667.62
450.28	3684.00
450.46	3695.71
450.65	3754.22
450.83	3679.32
451.02	3534.21
451.20	3700.39
451.39	3838.48
451.57	3852.52
451.76	3831.46
451.94	3768.26
452.13	3911.04
452.31	3953.16
452.49	3744.86
452.68	3817.41
452.86	3850.18
453.05	3899.33
453.23	4002.32
453.42	3911.04
453.60	3861.88
453.78	3904.01
453.97	3882.95
454.15	3988.27
454.34	3978.91
454.52	3983.59
454.70	3978.91
454.89	4086.58
455.07	3985.93
455.26	4086.58
455.44	4156.79
455.62	4014.02
455.81	4102.96
455.99	4093.60
456.17	4091.26
456.36	4210.62
456.54	4243.39
456.73	4117.00
456.91	4191.90
457.09	4341.69
457.28	4376.80
457.46	4117.00
457.64	4440.00
457.83	4306.59
458.01	4156.79
458.19	4367.44
458.38	4341.69
458.56	4395.53
458.74	4332.33
458.93	4318.29
459.11	4236.37
459.29	4418.93
459.48	4435.32
459.66	4496.17
459.84	4601.49
460.03	4414.25
460.21	4526.60
460.39	4524.26
460.57	4486.81
460.76	4554.68
460.94	4685.75
461.12	4650.64
461.31	4706.82
461.49	4517.23
461.67	4505.53
461.85	4613.20
462.04	4629.58
462.22	4685.75
462.40	4744.27
462.59	4685.75
462.77	4685.75
462.95	4699.80
463.13	4683.41
463.32	4793.42
463.50	4952.57
463.68	4550.00
463.86	4720.86
464.05	4802.78
464.23	4788.74
464.41	4875.34
464.59	4887.04
464.78	4819.16
464.96	4882.36
465.14	4819.16
465.32	4945.55
465.50	5088.32
465.69	4933.85
465.87	4851.93
466.05	4919.81
466.23	4975.98
466.41	5008.75
466.60	5158.54
466.78	5097.69
466.96	5039.17
467.14	5022.79
467.32	5114.07
467.51	5008.75
467.69	5041.51
467.87	5195.99
468.05	5104.71
468.23	5100.03
468.41	5170.24
468.60	5041.51
468.78	5242.80
468.96	5179.61
469.14	5245.14
469.32	5287.27
469.50	5114.07
469.69	5444.09
469.87	5310.68
470.05	5310.68
470.23	5432.38
470.41	5322.38
470.59	5462.81
470.77	5460.47
470.95	5530.69
471.14	5619.63
471.32	5308.34
471.50	5549.41
471.68	5549.41
471.86	5664.10
472.04	5556.43
472.22	5701.54
472.40	5528.35
472.58	5692.18
472.77	5631.33
472.95	5799.85
473.13	5797.51
473.31	5778.78
473.49	5668.78
473.67	5792.83
473.85	5942.62
474.03	5877.09
474.21	5818.57
474.39	5823.25
474.57	6115.82
474.75	6038.58
474.93	6193.06
475.12	6300.72
475.30	6069.01
475.48	5966.03
475.66	6319.45
475.84	6319.45
476.02	6225.82
476.20	6387.32
476.38	6572.22
476.56	6539.46
476.74	6401.37
476.92	6602.65
477.10	6403.71
477.28	6677.55
477.46	6583.93
477.64	6586.27
477.82	6637.76
478.00	6857.77
478.18	6846.07
478.36	6920.96
478.54	6946.71
478.72	6885.86
478.90	6932.67
479.08	7131.61
479.26	7295.45
479.44	7407.80
479.62	7262.68
479.80	7342.26
479.98	7314.17
480.16	7475.67
480.34	7449.93
480.52	7449.93
480.70	7648.87
480.88	7482.69
481.06	7691.00
481.24	7726.11
481.41	7674.62
481.59	7892.29
481.77	7957.82
481.95	7826.75
482.13	7939.10
482.31	8051.44
482.49	8191.88
482.67	8126.34
482.85	8112.30
483.03	8468.06
483.21	8634.24
483.39	8746.58
483.57	8641.26
483.74	8678.71
483.92	8868.29
484.10	8678.71
484.28	9004.04
484.46	9071.92
484.64	9247.46
484.82	8788.71
485.00	8982.98
485.18	9083.62
485.35	9312.99
485.53	9273.20
485.71	9301.29
485.89	9750.67
486.07	9441.72
486.25	9453.42
486.43	9399.59
486.61	9729.61
486.78	9778.76
486.96	9994.09
487.14	10099.41
487.32	9877.06
487.50	9984.73
487.68	10078.35
487.85	10160.27
488.03	10303.04
488.21	10644.76
488.39	10719.65
488.57	10597.95
488.75	10752.42
488.92	10719.65
489.10	10740.72
489.28	10829.66
489.46	11145.63
489.64	11112.86
489.81	11419.47
489.99	11059.03
490.17	11323.51
490.35	11475.65
490.53	11412.45
490.70	11808.00
490.88	11543.52
491.06	11569.27
491.24	11522.46
491.41	11707.36
491.59	11906.31
491.77	11819.71
491.95	11918.01
492.13	11936.73
492.30	11974.18
492.48	12161.42
492.66	12524.21
492.84	12372.07
493.01	12334.62
493.19	12498.46
493.37	12638.89
493.54	12500.80
493.72	12699.75
493.90	12802.73
494.08	12769.96
494.25	12938.48
494.43	12886.99
494.61	13104.66
494.79	13191.26
494.96	13083.59
495.14	13324.67
495.32	13825.54
495.49	13462.76
495.67	13516.59
495.85	13682.77
496.02	13717.88
496.20	13748.31
496.38	13790.44
496.55	13729.58
496.73	14139.18
496.91	14178.97
497.09	14244.50
497.26	14068.96
497.44	14380.25
497.62	14286.63
497.79	14438.76
497.97	14558.13
498.14	14593.24
498.32	14778.14
498.50	14747.72
498.67	14771.12
498.85	14665.80
499.03	14890.49
499.20	15061.35
499.38	15021.56
499.56	14897.51
499.73	15002.83
499.91	15421.79
500.08	15393.70
500.26	15377.32
500.44	15410.09
500.61	15431.15
500.79	15468.60
500.97	15747.12
501.14	15496.69
501.32	15772.87
501.49	15510.73
501.67	15805.64
501.84	15733.08
502.02	15981.18
502.20	16027.99
502.37	16013.95
502.55	15976.50
502.72	16299.49
502.90	16070.12
503.07	16051.39
503.25	16100.55
503.43	16212.89
503.60	16308.85
503.78	16285.45
503.95	16549.93
504.13	16681.00
504.30	16343.96
504.48	16573.33
504.65	16805.05
504.83	16924.41
505.01	17130.38
505.18	16898.67
505.36	17247.41
505.53	16744.19
505.71	17053.14
505.88	17071.87
506.06	16905.69
506.23	17334.01
506.41	16987.61
506.58	17462.74
506.76	17137.40
506.93	17263.79
507.11	17380.82
507.28	17315.28
507.46	17771.69
507.63	17338.69
507.81	17949.57
507.98	17987.02
508.16	17518.91
508.33	18015.10
508.50	17661.68
508.68	18024.47
508.85	18061.91
509.03	17846.58
509.20	17963.61
509.38	18417.68
509.55	18534.70
509.73	18359.16
509.90	18207.03
510.08	18202.35
510.25	18504.28
510.42	18214.05
510.60	18480.87
510.77	18590.88
510.95	18757.05
511.12	18427.04
511.30	18537.04
511.47	18590.88
511.64	18651.73
511.82	18647.05
511.99	19066.00
512.17	19080.05
512.34	18813.23
512.51	19356.23
512.69	19405.38
512.86	19080.05
513.04	19335.17
513.21	19077.71
513.38	19555.18
513.56	18934.93
513.73	19049.62
513.90	19398.36
514.08	19377.30
514.25	19506.02
514.43	19704.97
514.60	19747.10
514.77	19882.85
514.95	19845.40
515.12	19475.60
515.29	19573.90
515.47	20018.60
515.64	19894.55
515.81	19817.32
515.99	19936.68
516.16	20465.64
516.33	20184.78
516.51	20381.38
516.68	20156.69
516.85	20219.89
517.03	20238.61
517.20	20264.36
517.37	20456.28
517.54	20369.68
517.72	20407.13
517.89	20589.69
518.06	20669.27
518.24	20720.76
518.41	20758.21
518.58	20610.76
518.75	20648.21
518.93	20879.92
519.10	20662.25
519.27	20739.49
519.45	20884.60
519.62	20720.76
519.79	21018.01
519.96	20917.37
520.14	21092.91
520.31	20978.22
520.48	21125.68
520.65	21146.74
520.83	21120.99
521.00	21109.29
521.17	21146.74
521.34	21415.90
521.52	21565.70
521.69	21399.52
521.86	21451.01
522.03	21715.49
522.20	21837.20
522.38	21909.75
522.55	21610.17
522.72	21673.36
522.89	21841.88
523.07	22148.49
523.24	21839.54
523.41	22223.39
523.58	21776.34
523.75	22125.08
523.92	21825.50
524.10	21884.01
524.27	22040.82
524.44	22300.62
524.61	22368.50
524.78	22382.54
524.96	22471.48
525.13	22214.02
525.30	22396.59
525.47	22473.82
525.64	22419.99
525.81	22602.55
525.98	22621.28
526.16	22387.22
526.33	22537.02
526.50	22742.99
526.67	22548.72
526.84	22712.56
527.01	22703.20
527.18	23049.60
527.36	22998.10
527.53	22892.78
527.70	23211.09
527.87	23285.99
528.04	22960.66
528.21	23201.73
528.38	23108.11
528.55	23311.74
528.72	23206.41
528.89	23440.47
529.07	23239.18
529.24	22885.76
529.41	23564.51
529.58	23276.63
529.75	23400.68
529.92	23314.08
530.09	22965.34
530.26	23557.49
530.43	23288.33
530.60	23564.51
530.77	23344.50
530.94	23721.33
531.11	23784.52
531.28	23541.11
531.46	23726.01
531.63	23637.07
531.80	23791.55
531.97	23791.55
532.14	24081.77
532.31	24112.20
532.48	24016.24
532.65	24315.83
532.82	23852.40
532.99	23634.73
533.16	23974.11
533.33	23995.17
533.50	24243.27
533.67	24222.20
533.84	24058.37
534.01	24350.93
534.18	24119.22
534.35	24416.47
534.52	24474.98
534.69	24376.68
534.86	24416.47
535.03	24198.80
535.20	24489.03
535.37	24367.32
535.54	24648.18
535.71	24582.65
535.88	24575.62
536.05	24283.06
536.22	25158.42
536.38	24877.55
536.55	24992.24
536.72	24950.11
536.89	24898.62
537.06	24610.73
537.23	24982.88
537.40	24982.88
537.57	24844.79
537.74	25116.29
537.91	25465.03
538.08	25102.25
538.25	25109.27
538.42	25050.75
538.59	25340.98
538.75	24779.25
538.92	25500.14
539.09	25333.96
539.26	25291.83
539.43	25523.54
539.60	25413.54
539.77	25268.42
539.94	25387.79
540.11	25481.41
540.28	25523.54
540.44	25284.81
540.61	25514.18
540.78	25429.92
540.95	25401.83
541.12	25394.81
541.29	25462.69
541.46	25617.16
541.62	25539.93
541.79	25544.61
541.96	25240.34
542.13	25652.27
542.30	25523.54
542.47	25909.73
542.63	25888.67
542.80	25818.45
542.97	26349.75
543.14	26160.17
543.31	25902.71
543.48	26239.75
543.64	26426.99
543.81	26101.65
543.98	26157.83
544.15	26361.45
544.32	26202.30
544.48	26656.36
544.65	26452.73
544.82	26302.94
544.99	26017.40
545.16	26291.24
545.32	26129.74
545.49	26504.23
545.66	26590.83
545.83	26705.51
546.00	26719.56
546.16	26487.84
546.33	26419.97
546.50	26094.63
546.67	26586.15
546.83	26424.65
547.00	26618.91
547.17	26478.48
547.34	26506.57
547.50	26939.57
547.67	26852.97
547.84	27063.61
548.00	27384.27
548.17	27243.84
548.34	26789.77
548.51	27009.78
548.67	27152.55
548.84	27096.38
549.01	26906.80
549.18	26939.57
549.34	26782.75
549.51	27140.85
549.68	26810.84
549.84	27140.85
550.01	27290.65
550.18	27040.21
550.34	27484.91
550.51	27454.48
550.68	26953.61
550.84	27363.20
551.01	27398.31
551.18	26686.79
551.34	26937.23
551.51	27117.45
551.68	27346.82
551.84	27601.94
552.01	27857.06
552.18	27555.13
552.34	27178.30
552.51	27742.37
552.68	27330.44
552.84	27461.51
553.01	27646.41
553.18	27513.00
553.34	27793.86
553.51	27402.99
553.67	28070.04
553.84	27880.46
554.01	28116.86
554.17	28151.96
554.34	27843.01
554.51	27864.08
554.67	27950.68
554.84	28051.32
555.00	28109.83
555.17	28123.88
555.33	28056.00
555.50	27688.54
555.67	28013.87
555.83	27936.63
556.00	28133.24
556.16	28252.61
556.33	28348.57
556.50	27718.96
556.66	28144.94
556.83	28006.85
556.99	28271.33
557.16	28404.74
557.32	28460.91
557.49	28608.37
557.65	28208.14
557.82	28247.93
557.98	28121.54
558.15	28360.27
558.32	28404.74
558.48	28638.80
558.65	28318.14
558.81	28388.36
558.98	28297.08
559.14	28283.03
559.31	28540.49
559.47	27992.81
559.64	28470.28
559.80	28599.01
559.97	28648.16
560.13	28243.24
560.30	28538.15
560.46	28339.21
560.63	28659.86
560.79	28858.81
560.96	28694.97
561.12	28666.88
561.29	28603.69
561.45	28833.06
561.61	28650.50
561.78	28458.57
561.94	28776.89
562.11	28872.85
562.27	28727.74
562.44	28844.76
562.60	28938.38
562.77	28514.75
562.93	28577.94
563.10	28900.94
563.26	28919.66
563.42	28959.45
563.59	28870.51
563.75	28701.99
563.92	29205.20
564.08	28542.83
564.24	28800.29
564.41	28797.95
564.57	29039.03
564.74	28961.79
564.90	28914.98
565.07	28847.10
565.23	28596.67
565.39	28442.19
565.56	29284.78
565.72	29008.60
565.88	29151.37
566.05	28940.72
566.21	28896.25
566.38	29277.76
566.54	29181.80
566.70	29364.36
566.87	29350.32
567.03	29233.29
567.19	29462.66
567.36	29228.61
567.52	29062.43
567.68	29411.17
567.85	28945.41
568.01	29322.23
568.17	29333.93
568.34	29013.28
568.50	29191.16
568.66	29408.83
568.83	29188.82
568.99	29331.59
569.15	29212.23
569.32	29275.42
569.48	28631.77
569.64	29261.38
569.81	29209.89
569.97	29336.27
570.13	29315.21
570.30	29685.01
570.46	29352.66
570.62	29078.82
570.78	29209.89
570.95	28610.71
571.11	29291.80
571.27	29017.96
571.43	29149.03
571.60	29188.82
571.76	29373.72
571.92	29397.13
572.09	29371.38
572.25	29202.86
572.41	29584.37
572.57	29425.22
572.74	29565.65
572.90	29090.52
573.06	29404.15
573.22	29277.76
573.38	29270.74
573.55	28912.64
573.71	29713.10
573.87	29834.81
574.03	29472.03
574.20	29319.89
574.36	29474.37
574.52	29460.32
574.68	29415.85
574.84	28968.81
575.01	29766.93
575.17	29509.47
575.33	29425.22
575.49	29834.81
575.65	29060.09
575.82	29701.40
575.98	29551.60
576.14	29563.31
576.30	29235.63
576.46	29266.06
576.62	29113.92
576.79	29324.57
576.95	29621.82
577.11	29764.59
577.27	29549.26
577.43	29809.06
577.59	29467.34
577.75	29336.27
577.92	29319.89
578.08	29156.05
578.24	29467.34
578.40	29376.06
578.56	29612.46
578.72	29532.88
578.88	29816.08
579.04	29694.38
579.21	30038.44
579.37	29759.91
579.53	29895.66
579.69	29516.50
579.85	29097.54
580.01	29692.04
580.17	29247.33
580.33	29404.15
580.49	29762.25
580.65	29631.18
580.82	29755.23
580.98	29635.86
581.14	29883.96
581.30	29788.00
581.46	29277.76
581.62	29006.26
581.78	29689.70
581.94	29521.18
582.10	29549.26
582.26	29399.47
582.42	29457.98
582.58	29347.98
582.74	29785.66
582.90	29633.52
583.06	29750.55
583.22	29727.14
583.38	29626.50
583.54	29923.75
583.70	29378.40
583.86	29724.80
584.02	29266.06
584.18	29663.95
584.34	29860.55
584.50	30162.48
584.66	29481.39
584.82	29935.45
584.98	29673.31
585.14	29516.50
585.30	29198.18
585.46	29687.36
585.62	29553.94
585.78	29734.17
585.94	29329.25
586.10	29535.22
586.26	30075.88
586.42	30258.45
586.58	30045.46
586.74	29549.26
586.90	29902.68
587.06	28961.79
587.22	29689.70
587.38	29659.27
587.54	29701.40
587.70	30113.33
587.86	29741.19
588.02	30024.39
588.18	30188.23
588.34	29607.78
588.49	29797.36
588.65	29493.09
588.81	29830.13
588.97	29813.74
589.13	29570.33
589.29	29544.58
589.45	29668.63
589.61	30298.23
589.77	30377.81
589.93	30216.32
590.08	29876.94
590.24	29881.62
590.40	29977.58
590.56	30101.63
590.72	29898.00
590.88	29675.65
591.04	29958.86
591.20	29799.70
591.35	30047.80
591.51	30745.28
591.67	30628.25
591.83	30567.40
591.99	30038.44
592.15	29951.84
592.31	30354.41
592.46	30218.66
592.62	29954.18
592.78	29883.96
592.94	30029.07
593.10	30000.99
593.26	30558.03
593.41	30211.64
593.57	30436.33
593.73	30101.63
593.89	30073.54
594.05	30522.93
594.20	30298.23
594.36	30150.78
594.52	29902.68
594.68	30185.89
594.84	30010.35
594.99	30335.68
595.15	30204.61
595.31	30050.14
595.47	29921.41
595.62	30513.56
595.78	30331.00
595.94	30272.49
596.10	30125.04
596.25	30419.94
596.41	30157.80
596.57	29591.39
596.73	30192.91
596.88	30263.13
597.04	30169.51
597.20	30199.93
597.36	30466.75
597.51	30335.68
597.67	30195.25
597.83	30211.64
597.99	30181.21
598.14	29853.53
598.30	29895.66
598.46	30352.07
598.61	30412.92
598.77	30110.99
598.93	30237.38
599.09	30017.37
599.24	30441.01
599.40	30551.01
599.56	30436.33
599.71	30335.68
599.87	30015.03
600.03	29860.55
600.18	30160.14
600.34	30153.12
600.50	30221.00
600.65	30270.15
600.81	30614.21
600.97	30621.23
601.12	30419.94
601.28	30160.14
601.44	30558.03
601.59	30396.54
601.75	30054.82
601.91	30195.25
602.06	30352.07
602.22	30305.26
602.37	29907.37
602.53	30183.55
602.69	30377.81
602.84	30263.13
603.00	30457.39
603.16	30663.36
603.31	30789.75
603.47	30560.37
603.62	30071.20
603.78	30190.57
603.94	29963.54
604.09	30263.13
604.25	30265.47
604.40	30080.56
604.56	30223.34
604.71	30433.99
604.87	30101.63
605.03	30607.19
605.18	30532.29
605.34	30553.35
605.49	29888.64
605.65	30396.54
605.80	29977.58
605.96	30356.75
606.12	30281.85
606.27	30265.47
606.43	30148.44
606.58	30312.28
606.74	29797.36
606.89	30473.78
607.05	30338.02
607.20	30487.82
607.36	30270.15
607.51	30192.91
607.67	29841.83
607.82	30143.76
607.98	29947.15
608.13	30132.06
608.29	29909.71
608.44	29869.92
608.60	30202.27
608.75	30450.37
608.91	30375.47
609.06	30031.41
609.22	30312.28
609.37	29762.25
609.53	29783.32
609.68	29673.31
609.84	29802.04
609.99	30026.73
610.15	29813.74
610.30	29855.87
610.46	30230.36
610.61	30272.49
610.76	30394.20
610.92	29853.53
611.07	29996.31
611.23	29886.30
611.38	30096.95
611.54	29446.28
611.69	30110.99
611.84	29879.28
612.00	29673.31
612.15	29802.04
612.31	30171.85
612.46	29586.71
612.62	30146.10
612.77	29633.52
612.92	30029.07
613.08	29785.66
613.23	29795.02
613.39	29497.77
613.54	29575.01
613.69	30050.14
613.85	29820.77
614.00	29628.84
614.15	29703.74
614.31	29624.16
614.46	29942.47
614.62	30000.99
614.77	29759.91
614.92	29465.00
615.08	29553.94
615.23	29642.88
615.38	29827.79
615.54	29385.43
615.69	29600.76
615.84	29577.35
616.00	29912.05
616.15	29097.54
616.30	29832.47
616.46	29476.71
616.61	29465.00
616.76	29668.63
616.92	29724.80
617.07	29493.09
617.22	29345.64
617.37	29528.20
617.53	29729.48
617.68	29319.89
617.83	29399.47
617.99	29263.72
618.14	29177.12
618.29	29378.40
618.45	29146.69
618.60	29589.05
618.75	29654.59
618.90	29090.52
619.06	29509.47
619.21	29759.91
619.36	29153.71
619.51	28968.81
619.67	28879.87
619.82	28989.88
619.97	29039.03
620.12	29235.63
620.28	29362.02
620.43	29420.53
620.58	29387.77
620.73	29043.71
620.89	28912.64
621.04	29315.21
621.19	28767.52
621.34	29266.06
621.49	29214.57
621.65	29109.24
621.80	28776.89
621.95	29017.96
622.10	28800.29
622.25	28999.24
622.41	28900.94
622.56	29123.29
622.71	29125.63
622.86	28655.18
623.01	29032.00
623.16	29078.82
623.32	28737.10
623.47	28744.12
623.62	29116.26
623.77	28650.50
623.92	28683.27
624.07	28442.19
624.23	28863.49
624.38	28755.82
624.53	28861.15
624.68	28926.68
624.83	28767.52
624.98	28875.19
625.13	28357.93
625.29	28781.57
625.44	28559.22
625.59	28809.65
625.74	28386.02
625.89	28416.44
626.04	28301.76
626.19	28479.64
626.34	28402.40
626.49	28259.63
626.65	28259.63
626.80	27992.81
626.95	28428.15
627.10	28442.19
627.25	28503.04
627.40	28325.16
627.55	28173.03
627.70	28240.90
627.85	28002.17
628.00	28261.97
628.15	28210.48
628.30	28067.70
628.45	28065.36
628.60	28025.57
628.76	28470.28
628.91	28041.96
629.06	28575.60
629.21	28463.25
629.36	27950.68
629.51	28046.64
629.66	28285.37
629.81	28243.24
629.96	27740.03
630.11	27934.29
630.26	27917.91
630.41	27927.27
630.56	27749.39
630.71	27683.86
630.86	27838.33
631.01	28041.96
631.16	27903.87
631.31	28053.66
631.46	27599.60
631.61	28135.58
631.76	27913.23
631.91	27613.64
632.06	27906.21
632.21	27529.38
632.36	27700.24
632.51	27466.19
632.66	27372.57
632.81	27288.31
632.96	27578.53
633.10	27658.11
633.25	27728.33
633.40	27821.95
633.55	27873.44
633.70	27466.19
633.85	27494.27
634.00	27543.42
634.15	27583.21
634.30	27459.16
634.45	27608.96
634.60	27351.50
634.75	27653.43
634.90	27763.43
635.05	27501.29
635.19	27384.27
635.34	27686.20
635.49	27702.58
635.64	27510.66
635.79	27332.78
635.94	27302.35
636.09	27285.97
636.24	27630.02
636.39	27110.43
636.53	27058.93
636.68	27082.34
636.83	27126.81
636.98	26941.91
637.13	27328.10
637.28	27395.97
637.43	27449.80
637.57	27173.62
637.72	27421.72
637.87	27103.40
638.02	26986.38
638.17	27234.47
638.32	26656.36
638.46	27138.51
638.61	27105.74
638.76	26600.19
638.91	26852.97
639.06	26979.36
639.20	27037.87
639.35	27381.93
639.50	26944.25
639.65	27096.38
639.80	27063.61
639.94	26637.64
640.09	27080.00
640.24	27016.80
640.39	26780.41
640.54	26778.07
640.68	26831.90
640.83	26969.99
640.98	26522.95
641.13	26581.46
641.27	26948.93
641.42	26649.34
641.57	26712.53
641.72	26810.84
641.86	26588.49
642.01	26340.39
642.16	26682.11
642.31	26668.06
642.45	26422.31
642.60	26471.46
642.75	26738.28
642.90	26230.38
643.04	26333.37
643.19	26185.91
643.34	26242.09
643.48	26630.62
643.63	26642.32
643.78	26363.79
643.93	26787.43
644.07	26199.96
644.22	26977.01
644.37	26242.09
644.51	26515.93
644.66	26361.45
644.81	26071.23
644.95	26476.14
645.10	26120.38
645.25	26546.36
645.39	26426.99
645.54	26593.17
645.69	26260.81
645.83	26235.06
645.98	26164.85
646.13	26134.42
646.27	26038.46
646.42	26457.42
646.57	26012.71
646.71	26260.81
646.86	26199.96
647.00	26288.90
647.15	26096.97
647.30	26089.95
647.44	26061.87
647.59	26106.34
647.74	25954.20
647.88	25972.92
648.03	26167.19
648.17	25958.88
648.32	25984.63
648.47	26171.87
648.61	26183.57
648.76	26476.14
648.90	26059.52
649.05	25851.22
649.20	25844.20
649.34	25888.67
649.49	25575.03
649.63	25788.02
649.78	25954.20
649.92	25553.97
650.07	25795.04
650.21	25696.74
650.36	25963.56
650.51	25605.46
650.65	25818.45
650.80	26045.48
650.94	25736.53
651.09	25855.90
651.23	25418.22
651.38	25762.28
651.52	25731.85
651.67	25692.06
651.81	25553.97
651.96	25713.13
652.10	25425.24
652.25	25769.30
652.39	25642.91
652.54	25535.24
652.68	25369.07
652.83	25415.88
652.97	25596.10
653.12	25558.65
653.26	25425.24
653.41	25280.13
653.55	25434.60
653.70	25319.92
653.84	25528.22
653.99	25603.12
654.13	25226.29
654.27	25188.85
654.42	25352.68
654.56	25413.54
654.71	25223.95
654.85	25364.39
655.00	25043.73
655.14	25308.21
655.29	25172.46
655.43	25380.77
655.57	25415.88
655.72	24924.36
655.86	25275.45
656.01	25242.68
656.15	25181.82
656.30	24676.27
656.44	24854.15
656.58	24936.07
656.73	24905.64
656.87	24959.47
657.01	24746.48
657.16	24973.52
657.30	25167.78
657.45	25151.40
657.59	25055.43
657.73	24863.51
657.88	24922.02
658.02	24877.55
658.16	24673.93
658.31	24683.29
658.45	24903.30
658.60	24280.72
658.74	24606.05
658.88	24486.68
659.03	24648.18
659.17	24772.23
659.31	25069.48
659.46	24421.15
659.60	24781.59
659.74	24467.96
659.89	24500.73
660.03	24294.76
660.17	24411.79
660.32	24364.98
660.46	24215.18
660.60	24383.70
660.74	24147.31
660.89	24217.52
661.03	24002.19
661.17	24133.26
661.32	24243.27
661.46	24421.15
661.60	24025.60
661.74	24266.67
661.89	24732.44
662.03	23988.15
662.17	23744.73
662.31	24009.22
662.46	24053.69
662.60	23828.99
662.74	24079.43
662.88	24049.00
663.03	23894.53
663.17	23651.11
663.31	23555.15
663.45	23747.08
663.60	23737.71
663.74	23623.03
663.88	23791.55
664.02	23372.59
664.17	24013.90
664.31	23496.64
664.45	23243.86
664.59	23400.68
664.73	23690.90
664.88	23548.13
665.02	23260.24
665.16	23339.82
665.30	23447.49
665.44	23124.49
665.59	22944.27
665.73	23094.07
665.87	23049.60
666.01	23183.01
666.15	23426.42
666.29	23218.11
666.44	23080.02
666.58	22937.25
666.72	22995.76
666.86	23133.86
667.00	23424.08
667.14	22288.92
667.28	22691.49
667.43	22684.47
667.57	23175.98
667.71	22759.37
667.85	22740.64
667.99	22527.66
668.13	22867.03
668.27	22738.30
668.41	22757.03
668.56	22707.88
668.70	22506.59
668.84	22848.31
668.98	22817.88
669.12	22721.92
669.26	22389.56
669.40	22443.40
669.54	22480.85
669.68	22340.41
669.82	22333.39
669.96	22307.65
670.10	22045.51
670.25	22223.39
670.39	22321.69
670.53	22066.57
670.67	21895.71
670.81	22396.59
670.95	22223.39
671.09	22298.28
671.23	21736.56
671.37	22253.81
671.51	21799.75
671.65	21902.73
671.79	22036.14
671.93	22010.40
672.07	21919.12
672.21	21902.73
672.35	21418.24
672.49	21703.79
672.63	21425.26
672.77	21441.65
672.91	21387.82
673.05	21422.92
673.19	21413.56
673.33	21352.71
673.47	21305.90
673.61	21427.60
673.75	20950.14
673.89	20898.64
674.03	21373.77
674.17	21486.12
674.31	21385.47
674.45	21006.31
674.59	20999.29
674.73	21249.72
674.87	20959.50
675.01	20908.01
675.15	20720.76
675.29	20655.23
675.43	20706.72
675.56	20479.69
675.70	20521.82
675.84	20603.74
675.98	19955.41
676.12	20828.43
676.26	20428.20
676.40	20636.50
676.54	20652.89
676.68	20491.39
676.82	19913.28
676.96	20095.84
677.10	20170.74
677.23	19999.88
677.37	19807.95
677.51	20205.84
677.65	19585.60
677.79	19992.86
677.93	19749.44
678.07	19908.60
678.21	19798.59
678.34	19499.00
678.48	19630.07
678.62	19707.31
678.76	19314.10
678.90	19166.65
679.04	19445.17
679.18	19066.00
679.31	18998.13
679.45	18925.57
679.59	19012.17
679.73	19000.47
679.87	18853.02
680.00	18801.52
680.14	18892.80
680.28	18892.80
680.42	18829.61
680.56	18923.23
680.70	18934.93
680.83	18967.70
680.97	18532.36
681.11	18633.00
681.25	18487.89
681.39	18607.26
681.52	18644.71
681.66	18288.95
681.80	18256.18
681.94	18616.62
682.07	18183.62
682.21	18094.68
682.35	17872.33
682.49	17827.86
682.62	17980.00
682.76	17675.73
682.90	17844.24
683.04	17682.75
683.17	18017.44
683.31	18125.11
683.45	17729.56
683.59	17879.35
683.72	17404.22
683.86	17923.82
684.00	17493.16
684.13	17535.29
684.27	17465.08
684.41	17254.43
684.55	17088.25
684.68	17207.62
684.82	16933.78
684.96	16898.67
685.09	17015.69
685.23	16669.30
685.37	16798.02
685.50	17003.99
685.64	16973.56
685.78	16723.13
685.91	16999.31
686.05	16802.71
686.19	16594.40
686.32	16823.77
686.46	16327.58
686.60	16451.63
686.73	16369.71
686.87	16278.43
687.01	16290.13
687.14	16095.86
687.28	15964.79
687.42	16381.41
687.55	15934.37
687.69	15941.39
687.82	16037.35
687.96	15803.30
688.10	15798.62
688.23	15796.28
688.37	16077.14
688.50	16018.63
688.64	15555.20
688.78	15550.52
688.91	15382.00
689.05	15758.83
689.18	15529.45
689.32	15318.81
689.46	15433.49
689.59	15351.57
689.73	15180.71
689.86	15267.31
690.00	15019.22
690.13	15269.66
690.27	15042.62
690.41	15056.67
690.54	14970.07
690.68	14675.16
690.81	15016.88
690.95	14745.38
691.08	14853.04
691.22	14626.01
691.35	14747.72
691.49	14759.42
691.62	14705.59
691.76	14441.11
691.89	14530.05
692.03	14389.61
692.16	14265.57
692.30	14295.99
692.43	14120.45
692.57	14097.05
692.70	14017.47
692.84	13984.70
692.97	13970.66
693.11	13891.08
693.24	13977.68
693.38	13879.38
693.51	13790.44
693.65	13942.57
693.78	13556.38
693.92	13664.05
694.05	13572.77
694.19	13521.27
694.32	13647.66
694.45	13336.37
694.59	13214.66
694.72	13238.07
694.86	13305.95
694.99	12938.48
695.13	13071.89
695.26	12903.37
695.39	13013.38
695.53	13153.81
695.66	12968.91
695.80	13076.57
695.93	12966.57
696.07	12952.52
696.20	13085.94
696.33	12800.39
696.47	12779.32
696.60	12697.41
696.73	12599.10
696.87	12592.08
697.00	12823.80
697.14	12414.20
697.27	12416.54
697.40	12257.39
697.54	12226.96
697.67	12374.41
697.80	12074.82
697.94	12072.48
698.07	11950.78
698.21	11669.91
698.34	11887.58
698.47	11854.81
698.61	11712.04
698.74	12084.19
698.87	12063.12
699.01	11889.92
699.14	11712.04
699.27	11552.88
699.40	11686.29
699.54	11623.10
699.67	11562.25
699.80	11201.80
699.94	11218.19
700.07	11477.99
700.20	10965.41
700.34	11115.20
700.47	11115.20
700.60	11187.76
700.73	11229.89
700.87	11375.00
701.00	11154.99
701.13	10963.07
701.26	10979.45
701.40	11169.04
701.53	10974.77
701.66	10895.19
701.79	10801.57
701.93	10888.17
702.06	10937.32
702.19	10651.78
702.32	10551.14
702.46	10499.64
702.59	10466.88
702.72	10450.49
702.85	10349.85
702.99	10277.29
703.12	10150.90
703.25	10153.24
703.38	10146.22
703.51	10207.08
703.65	10244.52
703.78	10183.67
703.91	10263.25
704.04	10167.29
704.17	10111.11
704.31	10064.30
704.44	9975.36
704.57	9933.23
704.70	9874.72
704.83	9881.74
704.96	9603.22
705.10	9654.71
705.23	9568.11
>>>>>End Processed Spectral Data<<<<<
