SpectraSuite Data File
++++++++++++++++++++++++++++++++++++
Date: Fri Oct 18 13:58:00 GMT-05:00 2013
User: bianchi
Dark Spectrum Present: No
Reference Spectrum Present: No
Number of Sampled Component Spectra: 1
Spectrometers: USB2+H05261
Integration Time (usec): 50000 (USB2+H05261)
Spectra Averaged: 1 (USB2+H05261)
Boxcar Smoothing: 0 (USB2+H05261)
Correct for Electrical Dark: No (USB2+H05261)
Strobe/Lamp Enabled: No (USB2+H05261)
Correct for Detector Non-linearity: No (USB2+H05261)
Correct for Stray Light: No (USB2+H05261)
Number of Pixels in Processed Spectrum: 2048
>>>>>Begin Processed Spectral Data<<<<<
365.73	0.00
365.92	0.00
366.12	0.00
366.32	0.00
366.52	0.00
366.72	0.00
366.91	0.00
367.11	0.00
367.31	0.00
367.51	0.00
367.70	0.00
367.90	0.00
368.10	0.00
368.30	0.00
368.49	0.00
368.69	0.00
368.89	0.00
369.09	0.00
369.28	0.00
369.48	0.00
369.68	0.00
369.87	0.00
370.07	0.00
370.27	0.00
370.47	0.00
370.66	98.30
370.86	152.13
371.06	100.64
371.25	98.30
371.45	124.05
371.65	140.43
371.84	135.75
372.04	196.60
372.24	184.90
372.44	154.48
372.63	81.92
372.83	182.56
373.03	243.42
373.22	234.05
373.42	203.63
373.62	334.70
373.81	208.31
374.01	290.23
374.21	168.52
374.40	173.20
374.60	250.44
374.79	259.80
374.99	189.58
375.19	299.59
375.38	243.42
375.58	325.33
375.78	285.55
375.97	304.27
376.17	292.57
376.37	229.37
376.56	152.13
376.76	264.48
376.95	259.80
377.15	287.89
377.35	341.72
377.54	322.99
377.74	243.42
377.93	271.50
378.13	257.46
378.33	266.82
378.52	306.61
378.72	208.31
378.91	355.76
379.11	248.10
379.31	292.57
379.50	297.25
379.70	292.57
379.89	313.63
380.09	304.27
380.28	322.99
380.48	315.97
380.68	262.14
380.87	271.50
381.07	266.82
381.26	337.04
381.46	308.95
381.65	313.63
381.85	332.36
382.04	369.80
382.24	334.70
382.43	266.82
382.63	332.36
382.83	395.55
383.02	374.49
383.22	367.46
383.41	353.42
383.61	341.72
383.80	346.40
384.00	304.27
384.19	294.91
384.39	379.17
384.58	372.15
384.78	411.93
384.97	411.93
385.17	358.10
385.36	383.85
385.56	407.25
385.75	409.59
385.95	472.79
386.14	451.72
386.34	353.42
386.53	477.47
386.72	404.91
386.92	388.53
387.11	374.49
387.31	416.62
387.50	479.81
387.70	475.13
387.89	372.15
388.09	411.93
388.28	498.53
388.48	425.98
388.67	433.00
388.86	477.47
389.06	517.26
389.25	484.49
389.45	477.47
389.64	463.43
389.84	489.17
390.03	475.13
390.22	531.30
390.42	489.17
390.61	435.34
390.81	526.62
391.00	543.00
391.19	482.15
391.39	606.20
391.58	489.17
391.78	519.60
391.97	526.62
392.16	440.02
392.36	594.50
392.55	571.09
392.75	554.71
392.94	470.45
393.13	589.82
393.33	533.64
393.52	603.86
393.71	526.62
393.91	631.94
394.10	589.82
394.29	613.22
394.49	582.79
394.68	564.07
394.88	671.73
395.07	596.84
395.26	599.18
395.46	634.29
395.65	573.43
395.84	650.67
396.04	615.56
396.23	589.82
396.42	674.07
396.62	660.03
396.81	629.60
397.00	720.88
397.19	667.05
397.39	592.16
397.58	650.67
397.77	566.41
397.97	713.86
398.16	606.20
398.35	660.03
398.55	615.56
398.74	662.37
398.93	704.50
399.12	671.73
399.32	645.99
399.51	753.65
399.70	723.23
399.90	744.29
400.09	767.70
400.28	779.40
400.47	755.99
400.67	767.70
400.86	713.86
401.05	814.51
401.24	751.31
401.44	781.74
401.63	765.36
401.82	833.23
402.01	760.67
402.21	854.30
402.40	798.12
402.59	840.25
402.78	837.91
402.97	877.70
403.17	844.93
403.36	847.27
403.55	882.38
403.74	910.47
403.93	873.02
404.13	950.26
404.32	875.36
404.51	952.60
404.70	950.26
404.89	823.87
405.09	884.72
405.28	997.07
405.47	947.92
405.66	915.15
405.85	999.41
406.05	954.94
406.24	1053.24
406.43	1064.94
406.62	964.30
406.81	968.98
407.00	1036.86
407.20	1071.97
407.39	1043.88
407.58	1020.47
407.77	1069.62
407.96	1015.79
408.15	1001.75
408.34	1027.50
408.54	1097.71
408.73	1027.50
408.92	1181.97
409.11	1100.05
409.30	1137.50
409.49	1186.65
409.68	1203.04
409.87	1184.31
410.07	1160.91
410.26	1266.23
410.45	1158.57
410.64	1198.35
410.83	1231.12
411.02	1308.36
411.21	1345.81
411.40	1235.80
411.59	1268.57
411.78	1313.04
411.98	1390.28
412.17	1315.38
412.36	1343.47
412.55	1320.06
412.74	1364.53
412.93	1259.21
413.12	1338.79
413.31	1390.28
413.50	1320.06
413.69	1411.34
413.88	1390.28
414.07	1481.56
414.26	1490.92
414.45	1474.54
414.64	1453.47
414.83	1523.69
415.02	1420.71
415.22	1476.88
415.41	1479.22
415.60	1551.78
415.79	1434.75
415.98	1528.37
416.17	1689.87
416.36	1689.87
416.55	1577.52
416.74	1558.80
416.93	1746.04
417.12	1682.85
417.31	1734.34
417.50	1785.83
417.69	1820.94
417.88	1692.21
418.07	1757.74
418.26	1694.55
418.45	1753.06
418.64	1816.26
418.83	1776.47
419.02	1760.08
419.21	1715.61
419.39	1839.66
419.58	1816.26
419.77	1729.66
419.96	1802.21
420.15	1881.79
420.34	1736.68
420.53	1813.92
420.72	1956.69
420.91	1912.22
421.10	1863.07
421.29	1940.30
421.48	1881.79
421.67	1891.15
421.86	1977.75
422.05	1977.75
422.24	1996.48
422.43	1947.33
422.61	1991.80
422.80	2043.29
422.99	2045.63
423.18	2038.61
423.37	2050.31
423.56	1944.99
423.75	1989.46
423.94	2078.40
424.13	1961.37
424.32	2019.88
424.50	2045.63
424.69	2146.27
424.88	2165.00
425.07	2012.86
425.26	2069.03
425.45	2099.46
425.64	1994.14
425.83	1963.71
426.01	1912.22
426.20	2118.18
426.39	2200.10
426.58	2050.31
426.77	2104.14
426.96	2127.55
427.15	2108.82
427.33	2094.78
427.52	2118.18
427.71	2193.08
427.90	2200.10
428.09	2305.43
428.28	2132.23
428.46	2157.97
428.65	2186.06
428.84	2260.96
429.03	2422.45
429.22	2260.96
429.40	2328.83
429.59	2307.77
429.78	2260.96
429.97	2157.97
430.16	2230.53
430.34	2387.35
430.53	2349.90
430.72	2310.11
430.91	2258.62
431.10	2328.83
431.28	2312.45
431.47	2303.09
431.66	2406.07
431.85	2228.19
432.03	2480.97
432.22	2487.99
432.41	2317.13
432.60	2532.46
432.79	2436.50
432.97	2370.96
433.16	2455.22
433.35	2466.92
433.54	2569.91
433.72	2466.92
433.91	2513.74
434.10	2630.76
434.28	2534.80
434.47	2527.78
434.66	2560.55
434.85	2616.72
435.03	2647.15
435.22	2661.19
435.41	2630.76
435.59	2539.48
435.78	2623.74
435.97	2647.15
436.16	2743.11
436.34	2614.38
436.53	2747.79
436.72	2789.92
436.90	2686.94
437.09	2715.02
437.28	2689.28
437.46	2658.85
437.65	2712.68
437.84	2815.66
438.02	2827.37
438.21	2874.18
438.40	2750.13
438.58	2754.81
438.77	2949.08
438.96	2820.35
439.14	3028.65
439.33	2984.18
439.52	2970.14
439.70	2897.58
439.89	2981.84
440.08	3068.44
440.26	3012.27
440.45	3073.12
440.63	3190.15
440.82	3155.04
441.01	3047.38
441.19	3138.66
441.38	3178.45
441.57	3222.92
441.75	3234.62
441.94	3213.56
442.12	3293.13
442.31	3236.96
442.50	3370.37
442.68	3316.54
442.87	3370.37
443.05	3365.69
443.24	3372.71
443.43	3461.65
443.61	3379.73
443.80	3499.10
443.98	3255.69
444.17	3218.24
444.35	3433.57
444.54	3375.05
444.73	3480.38
444.91	3424.20
445.10	3478.04
445.28	3454.63
445.47	3393.78
445.65	3571.66
445.84	3442.93
446.02	3543.57
446.21	3485.06
446.39	3459.31
446.58	3559.95
446.77	3489.74
446.95	3487.40
447.14	3440.59
447.32	3452.29
447.51	3686.34
447.69	3468.67
447.88	3662.94
448.06	3588.04
448.25	3555.27
448.43	3646.55
448.62	3454.63
448.80	3538.89
448.99	3749.54
449.17	3653.58
449.36	3604.42
449.54	3674.64
449.73	3714.43
449.91	3658.26
450.10	3768.26
450.28	3838.48
450.46	3847.84
450.65	3648.90
450.83	3723.79
451.02	3765.92
451.20	3716.77
451.39	3655.92
451.57	3831.46
451.76	3751.88
451.94	3887.63
452.13	3779.97
452.31	3836.14
452.49	3896.99
452.68	3829.12
452.86	3934.44
453.05	3887.63
453.23	3962.53
453.42	3868.91
453.60	4002.32
453.78	4039.76
453.97	4079.55
454.15	3798.69
454.34	3817.41
454.52	3988.27
454.70	4046.79
454.89	4042.11
455.07	4028.06
455.26	4095.94
455.44	4098.28
455.62	4088.92
455.81	4065.51
455.99	4105.30
456.17	4109.98
456.36	4264.46
456.54	4353.40
456.73	4182.54
456.91	4369.78
457.09	4276.16
457.28	4421.27
457.46	4308.93
457.64	4325.31
457.83	4346.37
458.01	4367.44
458.19	4423.61
458.38	4273.82
458.56	4421.27
458.74	4423.61
458.93	4418.93
459.11	4519.57
459.29	4362.76
459.48	4496.17
459.66	4608.51
459.84	4479.79
460.03	4634.26
460.21	4461.06
460.39	4610.86
460.57	4393.19
460.76	4477.44
460.94	4627.24
461.12	4472.76
461.31	4575.75
461.49	4624.90
461.67	4634.26
461.85	4702.14
462.04	4624.90
462.22	4905.76
462.40	4713.84
462.59	4753.63
462.77	4554.68
462.95	4865.97
463.13	4788.74
463.32	4819.16
463.50	4858.95
463.68	4933.85
463.86	4844.91
464.05	4704.48
464.23	4861.29
464.41	4903.42
464.59	4847.25
464.78	4889.38
464.96	4821.50
465.14	4905.76
465.32	4966.62
465.50	5022.79
465.69	5015.77
465.87	5062.58
466.05	4858.95
466.23	4994.70
466.41	5083.64
466.60	5104.71
466.78	5095.35
466.96	5317.70
467.14	5069.60
467.32	5186.63
467.51	5235.78
467.69	5046.20
467.87	5242.80
468.05	5156.20
468.23	5095.35
468.41	5074.28
468.60	5149.18
468.78	5207.69
468.96	5219.39
469.14	5242.80
469.32	5406.64
469.50	5310.68
469.69	5289.61
469.87	5420.68
470.05	5408.98
470.23	5465.15
470.41	5383.23
470.59	5467.49
470.77	5565.79
470.95	5446.43
471.14	5659.42
471.32	5544.73
471.50	5558.77
471.68	5706.23
471.86	5621.97
472.04	5668.78
472.22	5753.04
472.40	5661.76
472.58	5811.55
472.77	5753.04
472.95	5858.36
473.13	5937.94
473.31	5762.40
473.49	5844.32
473.67	5940.28
473.85	5933.26
474.03	5973.05
474.21	5956.66
474.39	6129.86
474.57	6164.97
474.75	6183.70
474.93	6282.00
475.12	6193.06
475.30	6265.61
475.48	6352.21
475.66	6190.72
475.84	6317.11
476.02	6485.62
476.20	6338.17
476.38	6478.60
476.56	6686.91
476.74	6588.61
476.92	6516.05
477.10	6523.07
477.28	6731.38
477.46	6738.40
477.64	6949.05
477.82	6677.55
478.00	7140.97
478.18	6867.13
478.36	6995.86
478.54	7225.23
478.72	7140.97
478.90	7152.68
479.08	7089.48
479.26	7243.96
479.44	7307.15
479.62	7302.47
479.80	7419.50
479.98	7421.84
480.16	7688.66
480.34	7529.50
480.52	7775.26
480.70	7789.30
480.88	7611.42
481.06	7691.00
481.24	7672.28
481.41	7920.37
481.59	7941.44
481.77	8039.74
481.95	8067.83
482.13	8180.17
482.31	8070.17
482.49	8297.20
482.67	8131.02
482.85	8334.65
483.03	8587.43
483.21	8549.98
483.39	8664.66
483.57	8695.09
483.74	8592.11
483.92	8662.32
484.10	8746.58
484.28	8877.65
484.46	8896.38
484.64	9188.94
484.82	9001.70
485.00	9167.88
485.18	9158.52
485.35	9420.66
485.53	9420.66
485.71	9483.85
485.89	9659.39
486.07	9708.54
486.25	9434.70
486.43	9341.08
486.61	9914.51
486.78	9998.77
486.96	10033.88
487.14	10057.28
487.32	10197.71
487.50	10246.87
487.68	10274.95
487.85	10326.44
488.03	10487.94
488.21	10509.01
488.39	10569.86
488.57	10747.74
488.75	10895.19
488.92	11016.90
489.10	11035.63
489.28	10824.98
489.46	11080.10
489.64	11049.67
489.81	11627.78
489.99	11485.01
490.17	11265.00
490.35	11417.13
490.53	11726.08
490.70	11585.65
490.88	11861.84
491.06	11609.06
491.24	11782.26
491.41	11782.26
491.59	11915.67
491.77	11995.25
491.95	12166.10
492.13	12133.34
492.30	12311.22
492.48	12353.35
492.66	12313.56
492.84	12585.06
493.01	12456.33
493.19	12430.59
493.37	12748.90
493.54	12840.18
493.72	12814.43
493.90	13095.30
494.08	13060.19
494.25	13018.06
494.43	13275.52
494.61	13060.19
494.79	13224.03
494.96	13245.09
495.14	13551.70
495.32	13619.58
495.49	13589.15
495.67	13521.27
495.85	13776.39
496.02	13841.93
496.20	13914.48
496.38	13947.25
496.55	13806.82
496.73	14185.99
496.91	14125.13
497.09	14345.14
497.26	14331.10
497.44	14211.73
497.62	14595.58
497.79	14621.33
497.97	14663.46
498.14	14771.12
498.32	14850.70
498.50	14951.34
498.67	14843.68
498.85	14932.62
499.03	15028.58
499.20	15077.73
499.38	15066.03
499.56	15164.33
499.73	15454.56
499.91	15543.50
500.08	15346.89
500.26	15487.32
500.44	15510.73
500.61	15707.34
500.79	15564.56
500.97	15592.65
501.14	15913.30
501.32	15920.32
501.49	15590.31
501.67	16016.29
501.84	16044.37
502.02	16056.08
502.20	15845.43
502.37	16184.80
502.55	16161.40
502.72	16130.97
502.90	16257.36
503.07	16051.39
503.25	16601.42
503.43	16528.86
503.60	16711.42
503.78	16456.31
503.95	16835.47
504.13	16549.93
504.30	16594.40
504.48	16561.63
504.65	16779.30
504.83	16964.20
505.01	16886.97
505.18	17425.29
505.36	17104.64
505.53	16875.26
505.71	17249.75
505.88	16978.25
506.06	16898.67
506.23	17649.98
506.41	17432.31
506.58	17357.41
506.76	17387.84
506.93	17397.20
507.11	17303.58
507.28	17593.81
507.46	17640.62
507.63	17942.55
507.81	18068.94
507.98	17806.80
508.16	17645.30
508.33	17961.27
508.50	18064.25
508.68	18052.55
508.85	18211.71
509.03	17909.78
509.20	18113.41
509.38	18642.37
509.55	18773.44
509.73	18497.25
509.90	18459.81
510.08	18132.13
510.25	18169.58
510.42	18431.72
510.60	18766.42
510.77	18864.72
510.95	19101.11
511.12	18897.49
511.30	18703.22
511.47	18813.23
511.64	19087.07
511.82	18953.66
511.99	19278.99
512.17	19276.65
512.34	19056.64
512.51	19302.40
512.69	19351.55
512.86	19293.04
513.04	19543.47
513.21	19630.07
513.38	19782.21
513.56	19386.66
513.73	19222.82
513.90	19260.27
514.08	19637.09
514.25	19796.25
514.43	19601.99
514.60	19765.82
514.77	19999.88
514.95	20203.50
515.12	19934.34
515.29	20034.99
515.47	19936.68
515.64	20252.66
515.81	20414.15
515.99	20336.91
516.16	20360.32
516.33	20594.37
516.51	20460.96
516.68	20336.91
516.85	20432.88
517.03	20563.95
517.20	20577.99
517.37	20514.80
517.54	20540.54
517.72	20802.68
517.89	20526.50
518.06	20554.58
518.24	21083.55
518.41	20872.90
518.58	20849.49
518.75	20931.41
518.93	21163.12
519.10	21223.98
519.27	21184.19
519.45	20950.14
519.62	21198.23
519.79	21055.46
519.96	21275.47
520.14	21434.63
520.31	21165.46
520.48	21228.66
520.65	21406.54
520.83	21617.19
521.00	21465.05
521.17	21656.98
521.34	22012.74
521.52	21881.67
521.69	21844.22
521.86	21944.86
522.03	21942.52
522.20	21769.32
522.38	21839.54
522.55	21748.26
522.72	21907.41
522.89	21940.18
523.07	22429.35
523.24	22281.90
523.41	22148.49
523.58	22164.87
523.75	22567.45
523.92	22277.22
524.10	22539.36
524.27	22246.79
524.44	22607.23
524.61	22661.07
524.78	22586.17
524.96	22602.55
525.13	22457.44
525.30	23002.78
525.47	22649.36
525.64	22647.02
525.81	22661.07
525.98	22883.42
526.16	22764.05
526.33	22932.57
526.50	22864.69
526.67	22707.88
526.84	23154.92
527.01	23110.45
527.18	23199.39
527.36	23131.51
527.53	23283.65
527.70	23501.32
527.87	23342.16
528.04	22991.08
528.21	22946.61
528.38	23035.55
528.55	23508.34
528.72	23447.49
528.89	23468.55
529.07	23606.64
529.24	23517.70
529.41	23658.14
529.58	23613.66
529.75	23473.23
529.92	23625.37
530.09	23733.03
530.26	23693.24
530.43	23836.02
530.60	23878.15
530.77	23768.14
530.94	24116.88
531.11	24009.22
531.28	23976.45
531.46	23833.68
531.63	24032.62
531.80	23974.11
531.97	24301.78
532.14	24140.29
532.31	24428.17
532.48	24372.00
532.65	24400.08
532.82	23913.25
532.99	24276.04
533.16	24039.64
533.33	24559.24
533.50	24503.07
533.67	24435.19
533.84	24423.49
534.01	24638.82
534.18	24320.51
534.35	24666.91
534.52	24451.58
534.69	24769.89
534.86	24819.04
535.03	24669.25
535.20	24875.21
535.37	24786.27
535.54	24753.51
535.71	24755.85
535.88	24870.53
536.05	24451.58
536.22	25104.59
536.38	25355.02
536.55	24896.28
536.72	25074.16
536.89	25195.87
537.06	24896.28
537.23	25425.24
537.40	25301.19
537.57	25399.49
537.74	25268.42
537.91	25427.58
538.08	25142.03
538.25	25174.80
538.42	25200.55
538.59	25427.58
538.75	25263.74
538.92	25376.09
539.09	25352.68
539.26	25195.87
539.43	25692.06
539.60	25940.16
539.77	26012.71
539.94	25532.90
540.11	25500.14
540.28	25727.17
540.44	25790.36
540.61	25652.27
540.78	25649.93
540.95	25743.55
541.12	25813.77
541.29	25762.28
541.46	25795.04
541.62	26066.55
541.79	26066.55
541.96	25729.51
542.13	26263.15
542.30	26103.99
542.47	26038.46
542.63	25942.50
542.80	26703.17
542.97	26644.66
543.14	26815.52
543.31	26473.80
543.48	26609.55
543.64	26600.19
543.81	26850.63
543.98	26604.87
544.15	26871.69
544.32	26792.11
544.48	26955.95
544.65	26679.77
544.82	26696.15
544.99	26532.31
545.16	26780.41
545.32	26820.20
545.49	26845.94
545.66	27152.55
545.83	27065.96
546.00	26574.44
546.16	26953.61
546.33	26820.20
546.50	26464.44
546.67	26911.48
546.83	27108.08
547.00	26869.35
547.17	26611.89
547.34	27171.28
547.50	27157.24
547.67	27386.61
547.84	27285.97
548.00	27424.06
548.17	27480.23
548.34	27007.44
548.51	27232.13
548.67	27470.87
548.84	27601.94
549.01	27379.59
549.18	27442.78
549.34	27246.18
549.51	27365.54
549.68	27180.64
549.84	27824.29
550.01	27480.23
550.18	27220.43
550.34	27328.10
550.51	27927.27
550.68	27690.88
550.84	27513.00
551.01	27737.69
551.18	27522.36
551.34	27477.89
551.51	27257.88
551.68	27864.08
551.84	27812.59
552.01	27597.26
552.18	27913.23
552.34	27653.43
552.51	27814.93
552.68	27934.29
552.84	27934.29
553.01	28210.48
553.18	28187.07
553.34	27997.49
553.51	28086.43
553.67	28229.20
553.84	28210.48
554.01	28547.51
554.17	28203.46
554.34	28114.52
554.51	28063.02
554.67	28212.82
554.84	28037.28
555.00	28215.16
555.17	28458.57
555.33	28531.13
555.50	28208.14
555.67	28135.58
555.83	28364.95
556.00	28266.65
556.16	28772.21
556.33	28390.70
556.50	28489.00
556.66	28774.55
556.83	28362.61
556.99	28975.83
557.16	28718.37
557.32	28711.35
557.49	28538.15
557.65	28273.67
557.82	28503.04
557.98	28638.80
558.15	28725.39
558.32	28994.56
558.48	28573.26
558.65	28755.82
558.81	29081.16
558.98	28863.49
559.14	28641.14
559.31	28926.68
559.47	28849.44
559.64	29067.11
559.80	28849.44
559.97	29212.23
560.13	28655.18
560.30	29017.96
560.46	29003.92
560.63	28924.34
560.79	29134.99
560.96	29106.90
561.12	29378.40
561.29	28950.09
561.45	28744.12
561.61	29425.22
561.78	29097.54
561.94	29247.33
562.11	29099.88
562.27	28868.17
562.44	29001.58
562.60	28678.58
562.77	29207.55
562.93	29312.87
563.10	29450.96
563.26	28772.21
563.42	29193.50
563.59	29315.21
563.75	29376.06
563.92	29511.81
564.08	29027.32
564.24	29067.11
564.41	29303.51
564.57	29153.71
564.74	29212.23
564.90	29343.30
565.07	29413.51
565.23	29736.51
565.39	29596.07
565.56	29216.91
565.72	29177.12
565.88	29432.24
566.05	29149.03
566.21	29422.87
566.38	29291.80
566.54	29553.94
566.70	29537.56
566.87	29336.27
567.03	29436.92
567.19	29802.04
567.36	29710.76
567.52	29240.31
567.68	29390.11
567.85	29516.50
568.01	29647.57
568.17	29385.43
568.34	29553.94
568.50	29603.10
568.66	29572.67
568.83	29993.97
568.99	29422.87
569.15	29687.36
569.32	29312.87
569.48	29460.32
569.64	29481.39
569.81	29654.59
569.97	29621.82
570.13	29818.42
570.30	29537.56
570.46	29584.37
570.62	29460.32
570.78	29570.33
570.95	29441.60
571.11	29261.38
571.27	29755.23
571.43	29380.74
571.60	29809.06
571.76	29685.01
571.92	29839.49
572.09	30024.39
572.25	29621.82
572.41	29647.57
572.57	29862.90
572.74	30047.80
572.90	29750.55
573.06	29502.45
573.22	29467.34
573.38	29542.24
573.55	29923.75
573.71	30150.78
573.87	30375.47
574.03	30031.41
574.20	29869.92
574.36	29811.40
574.52	29846.51
574.68	29766.93
574.84	29986.94
575.01	29902.68
575.17	29759.91
575.33	29914.39
575.49	29771.61
575.65	29757.57
575.82	29553.94
575.98	29926.09
576.14	30195.25
576.30	30071.20
576.46	29619.48
576.62	29806.72
576.79	30094.61
576.95	29895.66
577.11	29876.94
577.27	29912.05
577.43	30389.52
577.59	30305.26
577.75	29989.28
577.92	30024.39
578.08	30202.27
578.24	29809.06
578.40	29661.61
578.56	29848.85
578.72	29921.41
578.88	30471.43
579.04	30045.46
579.21	29752.89
579.37	29986.94
579.53	30160.14
579.69	30005.67
579.85	29743.53
580.01	29872.26
580.17	30089.93
580.33	29752.89
580.49	30017.37
580.65	30448.03
580.82	30600.16
580.98	30431.65
581.14	30274.83
581.30	29991.62
581.46	30005.67
581.62	29890.98
581.78	29649.91
581.94	29820.77
582.10	29963.54
582.26	29956.52
582.42	30256.11
582.58	29886.30
582.74	30073.54
582.90	29919.07
583.06	30258.45
583.22	30279.51
583.38	30197.59
583.54	30017.37
583.70	29713.10
583.86	29972.90
584.02	30038.44
584.18	30497.18
584.34	30003.33
584.50	30604.84
584.66	30391.86
584.82	29846.51
584.98	30562.72
585.14	30387.18
585.30	29874.60
585.46	29701.40
585.62	29895.66
585.78	30457.39
585.94	30089.93
586.10	30139.08
586.26	30785.07
586.42	30239.72
586.58	30759.32
586.74	30192.91
586.90	30066.52
587.06	30363.77
587.22	30087.59
587.38	30349.73
587.54	30618.89
587.70	30473.78
587.86	30714.85
588.02	30756.98
588.18	30302.92
588.34	30389.52
588.49	30167.16
588.65	30583.78
588.81	30242.06
588.97	30511.22
589.13	30176.53
589.29	30536.97
589.45	30490.16
589.61	30553.35
589.77	30731.23
589.93	30263.13
590.08	30958.27
590.24	30852.94
590.40	30644.63
590.56	30574.42
590.72	30438.67
590.88	30319.30
591.04	30356.75
591.20	30520.59
591.35	30525.27
591.51	30948.90
591.67	30843.58
591.83	30948.90
591.99	30424.62
592.15	30843.58
592.31	30536.97
592.46	30305.26
592.62	30618.89
592.78	30373.13
592.94	30370.79
593.10	30630.59
593.26	30735.92
593.41	30656.34
593.57	30607.19
593.73	30445.69
593.89	30719.53
594.05	30663.36
594.20	30024.39
594.36	30525.27
594.52	30476.12
594.68	30768.68
594.84	30345.05
594.99	30689.10
595.15	30675.06
595.31	30841.24
595.47	30712.51
595.62	30764.00
595.78	30794.43
595.94	30396.54
596.10	30593.14
596.25	30441.01
596.41	30771.02
596.57	30092.27
596.73	30637.61
596.88	30462.07
597.04	30899.75
597.20	30911.46
597.36	30925.50
597.51	31274.24
597.67	30532.29
597.83	30654.00
597.99	30717.19
598.14	30539.31
598.30	30639.95
598.46	30918.48
598.61	30742.94
598.77	30813.15
598.93	31047.21
599.09	30787.41
599.24	30682.08
599.40	31082.31
599.56	30981.67
599.71	30960.61
599.87	30817.83
600.03	30562.72
600.18	30728.89
600.34	30487.82
600.50	30995.71
600.65	30981.67
600.81	31089.34
600.97	31061.25
601.12	31178.28
601.28	30756.98
601.44	30574.42
601.59	30902.09
601.75	30862.30
601.91	31180.62
602.06	30717.19
602.22	30888.05
602.37	30801.45
602.53	30733.57
602.69	30780.39
602.84	30724.21
603.00	31194.66
603.16	31304.67
603.31	30785.07
603.47	30576.76
603.62	30958.27
603.78	30445.69
603.94	30752.30
604.09	30569.74
604.25	30368.45
604.40	30754.64
604.56	30738.26
604.71	30565.06
604.87	30859.96
605.03	31035.50
605.18	31124.44
605.34	30773.36
605.49	30536.97
605.65	30874.01
605.80	30429.30
605.96	30607.19
606.12	30387.18
606.27	31061.25
606.43	30888.05
606.58	30993.37
606.74	30501.86
606.89	31007.42
607.05	30916.14
607.20	30991.03
607.36	30824.86
607.51	30424.62
607.67	30635.27
607.82	30686.76
607.98	30576.76
608.13	30649.32
608.29	30845.92
608.44	30583.78
608.60	30572.08
608.75	30724.21
608.91	30841.24
609.06	30494.84
609.22	31044.87
609.37	30288.87
609.53	30176.53
609.68	30394.20
609.84	30691.44
609.99	30148.44
610.15	30600.16
610.30	30410.58
610.46	30616.55
610.61	30773.36
610.76	30658.68
610.92	30876.35
611.07	30534.63
611.23	30466.75
611.38	30562.72
611.54	30129.72
611.69	30103.97
611.84	30340.36
612.00	30122.69
612.15	30106.31
612.31	30600.16
612.46	30302.92
612.62	30178.87
612.77	30190.57
612.92	30623.57
613.08	30462.07
613.23	30356.75
613.39	30567.40
613.54	30511.22
613.69	30239.72
613.85	29841.83
614.00	30174.19
614.15	30345.05
614.31	30221.00
614.46	30417.60
614.62	30249.08
614.77	30588.46
614.92	29965.88
615.08	29898.00
615.23	30394.20
615.38	30363.77
615.54	30096.95
615.69	30235.04
615.84	29998.65
616.00	30089.93
616.15	29795.02
616.30	30000.99
616.46	29883.96
616.61	29757.57
616.76	30003.33
616.92	29696.72
617.07	29862.90
617.22	29799.70
617.37	29434.58
617.53	29722.46
617.68	30120.35
617.83	29776.30
617.99	29659.27
618.14	30417.60
618.29	29752.89
618.45	29797.36
618.60	29916.73
618.75	29923.75
618.90	29755.23
619.06	29811.40
619.21	29652.25
619.36	29965.88
619.51	29890.98
619.67	29575.01
619.82	29270.74
619.97	30022.05
620.12	29144.35
620.28	29666.29
620.43	29525.86
620.58	29956.52
620.73	30443.35
620.89	29214.57
621.04	29677.99
621.19	29825.45
621.34	29539.90
621.49	29472.03
621.65	29240.31
621.80	29472.03
621.95	29500.11
622.10	29352.66
622.25	29507.13
622.41	29432.24
622.56	29078.82
622.71	29635.86
622.86	29228.61
623.01	29579.69
623.16	29593.73
623.32	29387.77
623.47	29158.39
623.62	29142.01
623.77	29488.41
623.92	29172.44
624.07	29214.57
624.23	29212.23
624.38	29219.25
624.53	29139.67
624.68	29450.96
624.83	29549.26
624.98	29212.23
625.13	28723.05
625.29	29586.71
625.44	29385.43
625.59	28961.79
625.74	28898.59
625.89	28989.88
626.04	28903.28
626.19	28776.89
626.34	28795.61
626.49	28776.89
626.65	28753.48
626.80	29172.44
626.95	28933.70
627.10	28680.92
627.25	29039.03
627.40	28753.48
627.55	28879.87
627.70	28596.67
627.85	28561.56
628.00	28545.17
628.15	28393.04
628.30	28315.80
628.45	28893.91
628.60	28816.68
628.76	28793.27
628.91	28912.64
629.06	28699.65
629.21	28673.90
629.36	28446.87
629.51	29244.99
629.66	28353.25
629.81	28538.15
629.96	28397.72
630.11	28449.21
630.26	28481.98
630.41	28439.85
630.56	28304.10
630.71	28613.05
630.86	28584.96
631.01	28411.76
631.16	28664.54
631.31	28900.94
631.46	28105.15
631.61	28315.80
631.76	28622.41
631.91	27957.70
632.06	28208.14
632.21	28065.36
632.36	28294.74
632.51	28397.72
632.66	28261.97
632.81	27934.29
632.96	28278.35
633.10	28439.85
633.25	28484.32
633.40	28294.74
633.55	28287.71
633.70	27866.42
633.85	28067.70
634.00	27835.99
634.15	27896.85
634.30	27779.82
634.45	28386.02
634.60	27587.89
634.75	27831.31
634.90	27983.44
635.05	28123.88
635.19	28037.28
635.34	28231.54
635.49	28173.03
635.64	28088.77
635.79	28037.28
635.94	27969.40
636.09	27936.63
636.24	27522.36
636.39	27618.32
636.53	27683.86
636.68	27978.76
636.83	28121.54
636.98	27791.52
637.13	27594.92
637.28	27861.74
637.43	27716.62
637.57	27929.61
637.72	27978.76
637.87	27819.61
638.02	27630.02
638.17	27363.20
638.32	27468.53
638.46	27754.07
638.61	27459.16
638.76	27496.61
638.91	27054.25
639.06	27068.30
639.20	27578.53
639.35	27285.97
639.50	27456.82
639.65	27819.61
639.80	27482.57
639.94	27292.99
640.09	27513.00
640.24	27175.96
640.39	27489.59
640.54	26930.20
640.68	27007.44
640.83	27548.11
640.98	27056.59
641.13	26881.05
641.27	27491.93
641.42	27164.26
641.57	27126.81
641.72	27339.80
641.86	27035.53
642.01	26857.65
642.16	27199.37
642.31	26967.65
642.45	27283.62
642.60	26862.33
642.75	26717.22
642.90	26703.17
643.04	26766.37
643.19	26532.31
643.34	26803.82
643.48	27023.83
643.63	26977.01
643.78	26700.83
643.93	26991.06
644.07	27276.60
644.22	26944.25
644.37	26604.87
644.51	26925.52
644.66	27061.27
644.81	26396.56
644.95	26735.94
645.10	26834.24
645.25	26576.78
645.39	26955.95
645.54	26728.92
645.69	26635.30
645.83	26789.77
645.98	26962.97
646.13	27019.14
646.27	26955.95
646.42	26705.51
646.57	26628.27
646.71	26817.86
646.86	26609.55
647.00	26513.59
647.15	26625.93
647.30	26560.40
647.44	26714.87
647.59	26342.73
647.74	26417.63
647.88	26412.95
648.03	26382.52
648.17	26632.96
648.32	26721.90
648.47	26426.99
648.61	26602.53
648.76	26415.29
648.90	26639.98
649.05	26717.22
649.20	25982.29
649.34	26408.26
649.49	25928.45
649.63	26059.52
649.78	26052.50
649.92	25841.85
650.07	26714.87
650.21	26036.12
650.36	26113.36
650.51	25928.45
650.65	26436.35
650.80	26015.05
650.94	26274.85
651.09	26022.08
651.23	26106.34
651.38	25790.36
651.52	26164.85
651.67	26134.42
651.81	25802.07
651.96	25757.60
652.10	25993.99
652.25	25886.32
652.39	26099.31
652.54	25989.31
652.68	25528.22
652.83	26188.25
652.97	26368.48
653.12	26092.29
653.26	25560.99
653.41	26150.81
653.55	25790.36
653.70	25731.85
653.84	25909.73
653.99	25614.82
654.13	25502.48
654.27	25495.46
654.42	25701.42
654.56	26024.42
654.71	25724.83
654.85	25654.61
655.00	25673.34
655.14	25802.07
655.29	25259.06
655.43	25617.16
655.57	25418.22
655.72	25736.53
655.86	25626.53
656.01	25408.86
656.15	25490.77
656.30	25486.09
656.44	25336.30
656.58	25340.98
656.73	25823.13
656.87	25488.43
657.01	25472.05
657.16	25516.52
657.30	25413.54
657.45	25296.51
657.59	24975.86
657.73	25109.27
657.88	25048.41
658.02	25149.06
658.16	25010.96
658.31	25193.53
658.45	25355.02
658.60	24821.38
658.74	25259.06
658.88	24849.47
659.03	25158.42
659.17	24915.00
659.31	25041.39
659.46	25256.72
659.60	25317.57
659.74	24971.18
659.89	25205.23
660.03	24875.21
660.17	25200.55
660.32	24945.43
660.46	24854.15
660.60	24545.20
660.74	25015.65
660.89	24907.98
661.03	24758.19
661.17	24451.58
661.32	24570.94
661.46	25055.43
661.60	24931.39
661.74	24533.50
661.89	24709.04
662.03	25041.39
662.17	24467.96
662.31	24456.26
662.46	24828.40
662.60	24397.74
662.74	24528.81
662.88	24376.68
663.03	24027.94
663.17	24116.88
663.31	23957.72
663.45	24088.79
663.60	23997.51
663.74	24212.84
663.88	24159.01
664.02	24201.14
664.17	24142.63
664.31	24053.69
664.45	24245.61
664.59	24233.91
664.73	24088.79
664.88	23798.57
665.02	23639.41
665.16	23775.16
665.30	23899.21
665.44	23754.10
665.59	24034.96
665.73	23321.10
665.87	23403.02
666.01	23789.20
666.15	23541.11
666.29	23693.24
666.44	23730.69
666.58	23262.58
666.72	23527.06
666.86	23367.91
667.00	23531.75
667.14	23377.27
667.28	23363.23
667.43	23229.82
667.57	23534.09
667.71	23112.79
667.85	23452.17
667.99	22878.74
668.13	22939.59
668.27	23094.07
668.41	23386.63
668.56	22878.74
668.70	23330.46
668.84	23112.79
668.98	22845.97
669.12	23175.98
669.26	22845.97
669.40	22925.55
669.54	22843.63
669.68	23192.37
669.82	22340.41
669.96	22520.63
670.10	22527.66
670.25	22419.99
670.39	22342.75
670.53	22394.25
670.67	22302.96
670.81	22581.49
670.95	22473.82
671.09	22352.12
671.23	22352.12
671.37	22548.72
671.51	22211.68
671.65	22497.23
671.79	22417.65
671.93	22209.34
672.07	22361.48
672.21	22089.98
672.35	22057.21
672.49	21862.94
672.63	22073.59
672.77	21860.60
672.91	21546.97
673.05	21834.86
673.19	21972.95
673.33	21673.36
673.47	21472.07
673.61	21968.27
673.75	21661.66
673.89	21724.85
674.03	21708.47
674.17	21888.69
674.31	21451.01
674.45	21582.08
674.59	21273.13
674.73	21422.92
674.87	21397.18
675.01	21350.37
675.15	21039.08
675.29	20865.88
675.43	21219.30
675.56	20793.32
675.70	20900.98
675.84	21036.74
675.98	20456.28
676.12	21064.82
676.26	21226.32
676.40	20896.30
676.54	20793.32
676.68	20966.52
676.82	20390.75
676.96	20730.12
677.10	20711.40
677.23	20381.38
677.37	20505.43
677.51	20463.30
677.65	20285.42
677.79	20259.68
677.93	20252.66
678.07	20105.20
678.21	19803.27
678.34	20079.46
678.48	19859.45
678.62	19585.60
678.76	19840.72
678.90	19585.60
679.04	19789.23
679.18	19894.55
679.31	19396.02
679.45	19449.85
679.59	19562.20
679.73	19419.42
679.87	18944.30
680.00	19508.37
680.14	19096.43
680.28	19070.68
680.42	19150.26
680.56	19461.55
680.70	19056.64
680.83	19332.82
680.97	19115.16
681.11	19016.85
681.25	18953.66
681.39	18810.89
681.52	18853.02
681.66	18773.44
681.80	18768.76
681.94	18361.50
682.07	18588.53
682.21	18483.21
682.35	18377.89
682.49	18139.15
682.62	18263.20
682.76	18209.37
682.90	18434.06
683.04	18115.75
683.17	18368.52
683.31	18040.85
683.45	18143.83
683.59	17994.04
683.72	17673.39
683.86	18064.25
684.00	17661.68
684.13	17860.63
684.27	17905.10
684.41	17462.74
684.55	17455.72
684.68	17575.08
684.82	17266.13
684.96	17174.85
685.09	17415.93
685.23	17198.26
685.37	17249.75
685.50	17301.24
685.64	17170.17
685.78	17245.07
685.91	16964.20
686.05	17312.94
686.19	16931.44
686.32	17317.62
686.46	16624.83
686.60	16659.93
686.73	16795.68
686.87	16713.77
687.01	16690.36
687.14	16479.71
687.28	16386.09
687.42	16369.71
687.55	16306.51
687.69	16528.86
687.82	16191.83
687.96	16559.29
688.10	16336.94
688.23	16027.99
688.37	15880.53
688.50	16161.40
688.64	15983.52
688.78	16128.63
688.91	15995.22
689.05	15990.54
689.18	15768.19
689.32	15445.20
689.46	15630.10
689.59	15438.17
689.73	15686.27
689.86	15433.49
690.00	15267.31
690.13	15283.70
690.27	15508.39
690.41	15288.38
690.54	15321.15
690.68	15035.60
690.81	15234.55
690.95	15389.02
691.08	15084.75
691.22	15035.60
691.35	15016.88
691.49	15314.13
691.62	14916.23
691.76	14738.35
691.89	14553.45
692.03	14497.28
692.16	14623.67
692.30	14614.30
692.43	14548.77
692.57	14366.21
692.70	14352.16
692.84	14497.28
692.97	14303.01
693.11	14188.33
693.24	14345.14
693.38	14066.62
693.51	13973.00
693.65	14118.11
693.78	13998.74
693.92	14143.86
694.05	14113.43
694.19	13671.07
694.32	13657.03
694.45	13771.71
694.59	13369.14
694.72	13554.04
694.86	13572.77
694.99	13319.99
695.13	13364.46
695.26	13317.65
695.39	13303.60
695.53	13247.43
695.66	13048.49
695.80	13458.08
695.93	13334.03
696.07	12975.93
696.20	12968.91
696.33	12989.97
696.47	12936.14
696.60	12858.90
696.73	12767.62
696.87	12734.85
697.00	12746.56
697.14	12554.63
697.27	12596.76
697.40	12575.70
697.54	12449.31
697.67	12393.14
697.80	12320.58
697.94	12262.07
698.07	12229.30
698.21	11960.14
698.34	12145.04
698.47	12341.64
698.61	12044.40
698.74	12222.28
698.87	12231.64
699.01	11812.68
699.14	11943.75
699.27	11742.47
699.40	12025.67
699.54	11714.38
699.67	11723.74
699.80	11761.19
699.94	11492.03
700.07	11658.21
700.20	11513.10
700.34	11276.70
700.47	11536.50
700.60	11459.26
700.73	11428.84
700.87	11400.75
701.00	11255.64
701.13	11222.87
701.26	11529.48
701.40	11351.60
701.53	11232.23
701.66	11222.87
701.79	11052.01
701.93	10801.57
702.06	10951.37
702.19	10768.80
702.32	10773.49
702.46	10684.55
702.59	10462.19
702.72	10354.53
702.85	10703.27
702.99	10324.10
703.12	10417.72
703.25	10499.64
703.38	10335.81
703.51	10637.73
703.65	10244.52
703.78	10363.89
703.91	10162.61
704.04	10455.17
704.17	10178.99
704.31	10111.11
704.44	10057.28
704.57	9987.07
704.70	9839.61
704.83	9891.10
704.96	9839.61
705.10	9661.73
705.23	9657.05
>>>>>End Processed Spectral Data<<<<<
