SpectraSuite Data File
++++++++++++++++++++++++++++++++++++
Date: Fri Oct 18 13:58:06 GMT-05:00 2013
User: bianchi
Dark Spectrum Present: No
Reference Spectrum Present: No
Number of Sampled Component Spectra: 1
Spectrometers: USB2+H05261
Integration Time (usec): 50000 (USB2+H05261)
Spectra Averaged: 1 (USB2+H05261)
Boxcar Smoothing: 0 (USB2+H05261)
Correct for Electrical Dark: No (USB2+H05261)
Strobe/Lamp Enabled: No (USB2+H05261)
Correct for Detector Non-linearity: No (USB2+H05261)
Correct for Stray Light: No (USB2+H05261)
Number of Pixels in Processed Spectrum: 2048
>>>>>Begin Processed Spectral Data<<<<<
365.73	0.00
365.92	0.00
366.12	0.00
366.32	0.00
366.52	0.00
366.72	0.00
366.91	0.00
367.11	0.00
367.31	0.00
367.51	0.00
367.70	0.00
367.90	0.00
368.10	0.00
368.30	0.00
368.49	0.00
368.69	0.00
368.89	0.00
369.09	0.00
369.28	0.00
369.48	0.00
369.68	0.00
369.87	0.00
370.07	0.00
370.27	0.00
370.47	0.00
370.66	0.00
370.86	23.41
371.06	98.30
371.25	198.95
371.45	163.84
371.65	107.66
371.84	46.81
372.04	189.58
372.24	168.52
372.44	189.58
372.63	163.84
372.83	196.60
373.03	217.67
373.22	224.69
373.42	184.90
373.62	313.63
373.81	229.37
374.01	222.35
374.21	360.44
374.40	210.65
374.60	250.44
374.79	215.33
374.99	255.12
375.19	252.78
375.38	222.35
375.58	306.61
375.78	236.39
375.97	248.10
376.17	315.97
376.37	203.63
376.56	241.08
376.76	198.95
376.95	292.57
377.15	376.83
377.35	241.08
377.54	306.61
377.74	271.50
377.93	344.06
378.13	287.89
378.33	278.52
378.52	234.05
378.72	325.33
378.91	257.46
379.11	278.52
379.31	257.46
379.50	264.48
379.70	304.27
379.89	264.48
380.09	245.76
380.28	351.08
380.48	339.38
380.68	411.93
380.87	252.78
381.07	320.65
381.26	297.25
381.46	306.61
381.65	318.31
381.85	332.36
382.04	388.53
382.24	322.99
382.43	362.78
382.63	393.21
382.83	374.49
383.02	297.25
383.22	463.43
383.41	358.10
383.61	313.63
383.80	442.36
384.00	358.10
384.19	404.91
384.39	433.00
384.58	414.27
384.78	491.51
384.97	337.04
385.17	407.25
385.36	374.49
385.56	416.62
385.75	430.66
385.95	421.30
386.14	435.34
386.34	430.66
386.53	507.90
386.72	390.87
386.92	428.32
387.11	440.02
387.31	507.90
387.50	444.70
387.70	348.74
387.89	362.78
388.09	390.87
388.28	475.13
388.48	442.36
388.67	465.77
388.86	486.83
389.06	489.17
389.25	484.49
389.45	521.94
389.64	531.30
389.84	458.74
390.03	463.43
390.22	547.69
390.42	470.45
390.61	510.24
390.81	503.22
391.00	557.05
391.19	510.24
391.39	533.64
391.58	521.94
391.78	514.92
391.97	554.71
392.16	550.03
392.36	493.85
392.55	540.66
392.75	594.50
392.94	528.96
393.13	645.99
393.33	561.73
393.52	491.51
393.71	589.82
393.91	664.71
394.10	594.50
394.29	655.35
394.49	631.94
394.68	578.11
394.88	620.24
395.07	638.97
395.26	660.03
395.46	702.16
395.65	613.22
395.84	620.24
396.04	648.33
396.23	657.69
396.42	638.97
396.62	613.22
396.81	641.31
397.00	692.80
397.19	664.71
397.39	662.37
397.58	725.57
397.77	669.39
397.97	648.33
398.16	662.37
398.35	800.46
398.55	767.70
398.74	725.57
398.93	699.82
399.12	737.27
399.32	730.25
399.51	732.59
399.70	784.08
399.90	688.12
400.09	746.63
400.28	748.97
400.47	805.14
400.67	821.53
400.86	854.30
401.05	814.51
401.24	821.53
401.44	858.98
401.63	847.27
401.82	805.14
402.01	758.33
402.21	880.04
402.40	926.85
402.59	795.78
402.78	812.17
402.97	976.00
403.17	933.87
403.36	891.74
403.55	901.11
403.74	961.96
403.93	922.17
404.13	985.37
404.32	898.77
404.51	915.15
404.70	891.74
404.89	842.59
405.09	990.05
405.28	971.32
405.47	936.21
405.66	985.37
405.85	992.39
406.05	994.73
406.24	1046.22
406.43	985.37
406.62	1067.28
406.81	1160.91
407.00	961.96
407.20	964.30
407.39	987.71
407.58	1146.86
407.77	1116.44
407.96	1071.97
408.15	1067.28
408.34	1116.44
408.54	1086.01
408.73	1090.69
408.92	1104.73
409.11	1233.46
409.30	1123.46
409.49	1233.46
409.68	1296.66
409.87	1228.78
410.07	1123.46
410.26	1179.63
410.45	1196.01
410.64	1268.57
410.83	1156.22
411.02	1177.29
411.21	1219.42
411.40	1296.66
411.59	1301.34
411.78	1245.16
411.98	1425.39
412.17	1373.89
412.36	1259.21
412.55	1212.40
412.74	1275.59
412.93	1453.47
413.12	1359.85
413.31	1437.09
413.50	1427.73
413.69	1526.03
413.88	1416.02
414.07	1383.26
414.26	1444.11
414.45	1458.15
414.64	1430.07
414.83	1715.61
415.02	1486.24
415.22	1547.09
415.41	1579.86
415.60	1710.93
415.79	1586.88
415.98	1631.35
416.17	1610.29
416.36	1687.53
416.55	1603.27
416.74	1652.42
416.93	1631.35
417.12	1724.97
417.31	1804.55
417.50	1715.61
417.69	1739.02
417.88	1657.10
418.07	1746.04
418.26	1694.55
418.45	1834.98
418.64	1937.96
418.83	1816.26
419.02	1757.74
419.21	1949.67
419.39	1827.96
419.58	1792.85
419.77	1799.87
419.96	1856.04
420.15	1940.30
420.34	1860.73
420.53	1935.62
420.72	2036.27
420.91	2017.54
421.10	1954.35
421.29	2090.10
421.48	1944.99
421.67	2031.58
421.86	1886.47
422.05	2083.08
422.24	1961.37
422.43	1959.03
422.61	2026.90
422.80	2045.63
422.99	1944.99
423.18	2008.18
423.37	2031.58
423.56	2057.33
423.75	2122.87
423.94	2069.03
424.13	1909.88
424.32	2012.86
424.50	2092.44
424.69	2176.70
424.88	2167.34
425.07	2071.37
425.26	2064.35
425.45	2012.86
425.64	2031.58
425.83	2101.80
426.01	2157.97
426.20	2104.14
426.39	2085.42
426.58	2059.67
426.77	2083.08
426.96	2174.36
427.15	2225.85
427.33	2071.37
427.52	2338.20
427.71	2223.51
427.90	2157.97
428.09	2190.74
428.28	2186.06
428.46	2289.04
428.65	2190.74
428.84	2377.98
429.03	2267.98
429.22	2359.26
429.40	2284.36
429.59	2267.98
429.78	2221.17
429.97	2230.53
430.16	2328.83
430.34	2408.41
430.53	2413.09
430.72	2380.32
430.91	2328.83
431.10	2331.17
431.28	2361.60
431.47	2387.35
431.66	2499.69
431.85	2523.10
432.03	2380.32
432.22	2504.37
432.41	2485.65
432.60	2562.89
432.79	2448.20
432.97	2413.09
433.16	2532.46
433.35	2455.22
433.54	2569.91
433.72	2487.99
433.91	2544.16
434.10	2492.67
434.28	2567.57
434.47	2703.32
434.66	2607.36
434.85	2700.98
435.03	2736.09
435.22	2621.40
435.41	2672.89
435.59	2710.34
435.78	2612.04
435.97	2780.56
436.16	2677.57
436.34	2682.25
436.53	2736.09
436.72	2810.98
436.90	2696.30
437.09	2768.85
437.28	2708.00
437.46	2822.69
437.65	2897.58
437.84	2855.45
438.02	2733.75
438.21	2665.87
438.40	2773.53
438.58	2984.18
438.77	3012.27
438.96	2888.22
439.14	2958.44
439.33	3023.97
439.52	2993.55
439.70	3082.49
439.89	2920.99
440.08	3119.93
440.26	3063.76
440.45	3157.38
440.63	3173.77
440.82	3178.45
441.01	3131.64
441.19	3112.91
441.38	3304.84
441.57	3276.75
441.75	3211.22
441.94	3325.90
442.12	3286.11
442.31	3496.76
442.50	3361.01
442.68	3358.67
442.87	3295.47
443.05	3478.04
443.24	3482.72
443.43	3414.84
443.61	3356.33
443.80	3485.06
443.98	3410.16
444.17	3339.94
444.35	3501.44
444.54	3569.32
444.73	3510.80
444.91	3557.61
445.10	3538.89
445.28	3478.04
445.47	3456.97
445.65	3552.93
445.84	3520.17
446.02	3508.46
446.21	3356.33
446.39	3499.10
446.58	3634.85
446.77	3611.45
446.95	3564.64
447.14	3597.40
447.32	3552.93
447.51	3485.06
447.69	3487.40
447.88	3466.33
448.06	3618.47
448.25	3529.53
448.43	3602.08
448.62	3536.55
448.80	3583.36
448.99	3712.09
449.17	3676.98
449.36	3651.24
449.54	3782.31
449.73	3733.15
449.91	3784.65
450.10	3810.39
450.28	3840.82
450.46	3866.56
450.65	3782.31
450.83	3801.03
451.02	3770.60
451.20	3852.52
451.39	3791.67
451.57	3791.67
451.76	3962.53
451.94	3864.22
452.13	4021.04
452.31	3908.69
452.49	3920.40
452.68	3871.25
452.86	3901.67
453.05	4016.36
453.23	4060.83
453.42	3962.53
453.60	4112.32
453.78	3985.93
453.97	3840.82
454.15	3922.74
454.34	3915.72
454.52	4222.33
454.70	4091.26
454.89	4170.83
455.07	4091.26
455.26	4021.04
455.44	4133.39
455.62	4056.15
455.81	4124.02
455.99	4194.24
456.17	4332.33
456.36	4124.02
456.54	4344.03
456.73	4287.86
456.91	4325.31
457.09	4407.23
457.28	4409.57
457.46	4278.50
457.64	4416.59
457.83	4428.29
458.01	4308.93
458.19	4440.00
458.38	4585.11
458.56	4484.47
458.74	4432.97
458.93	4610.86
459.11	4379.14
459.29	4547.66
459.48	4559.36
459.66	4550.00
459.84	4568.73
460.03	4748.95
460.21	4723.20
460.39	4678.73
460.57	4702.14
460.76	4697.46
460.94	4793.42
461.12	4634.26
461.31	4770.01
461.49	4641.28
461.67	4734.90
461.85	4987.68
462.04	4805.12
462.22	5078.96
462.40	4936.19
462.59	4856.61
462.77	4826.18
462.95	4938.53
463.13	4915.12
463.32	4835.55
463.50	4868.31
463.68	4936.19
463.86	5041.51
464.05	4915.12
464.23	5074.28
464.41	4978.32
464.59	4854.27
464.78	5128.11
464.96	5074.28
465.14	5027.47
465.32	5121.09
465.50	5245.14
465.69	5118.75
465.87	5104.71
466.05	5032.15
466.23	5296.63
466.41	5186.63
466.60	5212.37
466.78	5039.17
466.96	5233.44
467.14	5121.09
467.32	5411.32
467.51	5249.82
467.69	5036.83
467.87	5268.55
468.05	5394.93
468.23	5270.89
468.41	5132.79
468.60	5329.40
468.78	5378.55
468.96	5331.74
469.14	5479.19
469.32	5362.17
469.50	5313.02
469.69	5507.28
469.87	5533.03
470.05	5565.79
470.23	5446.43
470.41	5582.18
470.59	5586.86
470.77	5514.30
470.95	5593.88
471.14	5631.33
471.32	5582.18
471.50	5809.21
471.68	5584.52
471.86	5891.13
472.04	5643.03
472.22	6141.57
472.40	5764.74
472.58	5856.02
472.77	5970.71
472.95	6019.86
473.13	6183.70
473.31	5973.05
473.49	5823.25
473.67	6083.05
473.85	5987.09
474.03	6146.25
474.21	6064.33
474.39	6054.97
474.57	6221.14
474.75	6338.17
474.93	6338.17
475.12	6202.42
475.30	6415.41
475.48	6389.66
475.66	6415.41
475.84	6469.24
476.02	6586.27
476.20	6569.88
476.38	6663.51
476.56	6647.12
476.74	6869.47
476.92	6712.66
477.10	6546.48
477.28	6703.29
477.46	6743.08
477.64	6883.52
477.82	7150.34
478.00	6986.50
478.18	7239.28
478.36	7152.68
478.54	7068.42
478.72	7349.28
478.90	7304.81
479.08	7442.90
479.26	7307.15
479.44	7332.90
479.62	7470.99
479.80	7559.93
479.98	7604.40
480.16	7648.87
480.34	7658.23
480.52	7758.88
480.70	7801.01
480.88	7597.38
481.06	7831.43
481.24	7868.88
481.41	7786.96
481.59	8360.39
481.77	8210.60
481.95	8142.72
482.13	8285.50
482.31	8416.57
482.49	8554.66
482.67	8610.83
482.85	8542.96
483.03	8821.48
483.21	8814.46
483.39	8772.33
483.57	8704.45
483.74	8992.34
483.92	8975.95
484.10	9057.87
484.28	9074.26
484.46	9181.92
484.64	9504.92
484.82	9184.26
485.00	9212.35
485.18	9481.51
485.35	9458.10
485.53	9549.39
485.71	9678.12
485.89	10052.60
486.07	9727.27
486.25	9853.66
486.43	9804.50
486.61	10022.17
486.78	10186.01
486.96	10146.22
487.14	10537.09
487.32	10164.95
487.50	10246.87
487.68	10583.90
487.85	10534.75
488.03	10658.80
488.21	11037.97
488.39	10789.87
488.57	10843.70
488.75	11143.29
488.92	11136.27
489.10	11091.80
489.28	11044.99
489.46	11379.68
489.64	11447.56
489.81	11501.39
489.99	11534.16
490.17	11339.90
490.35	11896.94
490.53	11838.43
490.70	12109.93
490.88	12002.27
491.06	12175.47
491.24	11831.41
491.41	12131.00
491.59	12238.66
491.77	12503.14
491.95	12664.64
492.13	12601.44
492.30	12634.21
492.48	12690.38
492.66	12582.72
492.84	12556.97
493.01	12903.37
493.19	12964.23
493.37	12952.52
493.54	13209.98
493.72	13338.71
493.90	13392.55
494.08	13287.22
494.25	13350.42
494.43	13472.12
494.61	13804.48
494.79	13558.72
494.96	13467.44
495.14	13640.64
495.32	13909.80
495.49	14104.07
495.67	14019.81
495.85	14249.18
496.02	14139.18
496.20	14211.73
496.38	14476.21
496.55	14326.42
496.73	14934.96
496.91	14237.48
497.09	14857.72
497.26	14878.79
497.44	14747.72
497.62	14590.90
497.79	14939.64
497.97	14984.11
498.14	15087.09
498.32	15255.61
498.50	15185.40
498.67	15222.84
498.85	15384.34
499.03	15391.36
499.20	15513.07
499.38	15520.09
499.56	15594.99
499.73	15571.58
499.91	15831.38
500.08	15644.14
500.26	15543.50
500.44	15723.72
500.61	15995.22
500.79	15786.91
500.97	15920.32
501.14	16196.51
501.32	16393.11
501.49	16233.96
501.67	16133.31
501.84	16133.31
502.02	16460.99
502.20	16500.78
502.37	16582.70
502.55	16606.10
502.72	16723.13
502.90	16741.85
503.07	16643.55
503.25	16776.96
503.43	16765.26
503.60	17034.42
503.78	16987.61
503.95	17216.98
504.13	17128.04
504.30	17048.46
504.48	17053.14
504.65	17184.21
504.83	17174.85
505.01	17521.25
505.18	17666.36
505.36	17804.46
505.53	17256.77
505.71	17511.89
505.88	17743.60
506.06	17390.18
506.23	17830.20
506.41	17720.20
506.58	17914.46
506.76	17886.37
506.93	17809.14
507.11	17961.27
507.28	17774.03
507.46	17811.48
507.63	18230.43
507.81	18532.36
507.98	18029.15
508.16	18307.67
508.33	18412.99
508.50	18363.84
508.68	18448.10
508.85	18523.00
509.03	18721.95
509.20	18607.26
509.38	18614.28
509.55	19012.17
509.73	18925.57
509.90	18829.61
510.08	18754.71
510.25	19199.41
510.42	19028.56
510.60	19220.48
510.77	19140.90
510.95	19129.20
511.12	19332.82
511.30	19213.46
511.47	19276.65
511.64	19014.51
511.82	19562.20
511.99	19630.07
512.17	19501.34
512.34	19702.63
512.51	19955.41
512.69	19924.98
512.86	19974.13
513.04	20070.09
513.21	20231.59
513.38	19784.55
513.56	19477.94
513.73	19906.26
513.90	19983.49
514.08	19903.92
514.25	20023.28
514.43	20137.97
514.60	20472.67
514.77	20297.13
514.95	20732.47
515.12	20425.86
515.29	20292.44
515.47	20430.54
515.64	20711.40
515.81	20435.22
515.99	20802.68
516.16	20936.09
516.33	20924.39
516.51	20631.82
516.68	20992.26
516.85	20585.01
517.03	20861.19
517.20	21336.32
517.37	21039.08
517.54	21195.89
517.72	21343.35
517.89	21135.04
518.06	21198.23
518.24	20968.86
518.41	21179.51
518.58	21425.26
518.75	21582.08
518.93	21610.17
519.10	21675.70
519.27	21834.86
519.45	21500.16
519.62	21579.74
519.79	21586.76
519.96	21596.12
520.14	21874.65
520.31	21949.54
520.48	21907.41
520.65	21818.47
520.83	21816.13
521.00	22202.32
521.17	22157.85
521.34	22223.39
521.52	21986.99
521.69	22347.44
521.86	22464.46
522.03	22431.69
522.20	22539.36
522.38	22288.92
522.55	22403.61
522.72	22242.11
522.89	22267.86
523.07	22883.42
523.24	22647.02
523.41	22731.28
523.58	22632.98
523.75	22541.70
523.92	22567.45
524.10	22742.99
524.27	22792.14
524.44	23342.16
524.61	23335.14
524.78	23274.29
524.96	23070.66
525.13	23145.56
525.30	23332.80
525.47	23218.11
525.64	23166.62
525.81	23524.72
525.98	23349.18
526.16	23384.29
526.33	23688.56
526.50	23658.14
526.67	23641.75
526.84	23676.86
527.01	23550.47
527.18	23765.80
527.36	23721.33
527.53	23777.50
527.70	24039.64
527.87	23903.89
528.04	23632.39
528.21	23908.57
528.38	24006.87
528.55	24311.14
528.72	23920.28
528.89	23875.80
529.07	23899.21
529.24	24173.05
529.41	24329.87
529.58	24299.44
529.75	23997.51
529.92	24290.08
530.09	24320.51
530.26	24229.23
530.43	24514.77
530.60	24397.74
530.77	24215.18
530.94	24526.47
531.11	24659.88
531.28	24613.07
531.46	24250.29
531.63	24381.36
531.80	24765.21
531.97	25001.60
532.14	24882.24
532.31	24437.53
532.48	24790.95
532.65	24854.15
532.82	24774.57
532.99	24858.83
533.16	25235.66
533.33	25205.23
533.50	25167.78
533.67	24805.00
533.84	25186.50
534.01	24945.43
534.18	24781.59
534.35	25106.93
534.52	25043.73
534.69	25287.15
534.86	25628.87
535.03	25336.30
535.20	25661.63
535.37	25303.53
535.54	25476.73
535.71	25289.49
535.88	25509.50
536.05	25551.63
536.22	25752.91
536.38	25888.67
536.55	25668.66
536.72	25804.41
536.89	25458.01
537.06	25404.17
537.23	26047.82
537.40	25497.80
537.57	25928.45
537.74	25781.00
537.91	26162.51
538.08	26169.53
538.25	26094.63
538.42	26029.10
538.59	26038.46
538.75	25483.75
538.92	25886.32
539.09	26544.02
539.26	26015.05
539.43	26342.73
539.60	26448.05
539.77	26258.47
539.94	26466.78
540.11	26562.74
540.28	26167.19
540.44	26560.40
540.61	26314.64
540.78	26307.62
540.95	26506.57
541.12	26483.16
541.29	26471.46
541.46	26462.10
541.62	26677.43
541.79	26665.72
541.96	26431.67
542.13	26635.30
542.30	26909.14
542.47	26923.18
542.63	26733.60
542.80	26937.23
542.97	27077.66
543.14	27129.15
543.31	27276.60
543.48	27204.05
543.64	27365.54
543.81	27374.91
543.98	27367.88
544.15	27171.28
544.32	27496.61
544.48	27604.28
544.65	27370.22
544.82	27438.10
544.99	27379.59
545.16	27503.64
545.32	27016.80
545.49	27590.24
545.66	27658.11
545.83	27356.18
546.00	27580.87
546.16	27611.30
546.33	27527.04
546.50	27243.84
546.67	27896.85
546.83	27534.06
547.00	27601.94
547.17	27505.98
547.34	27524.70
547.50	28046.64
547.67	28432.83
547.84	27740.03
548.00	27992.81
548.17	28645.82
548.34	27695.56
548.51	28102.81
548.67	28353.25
548.84	28027.92
549.01	28187.07
549.18	28121.54
549.34	27873.44
549.51	27885.14
549.68	28278.35
549.84	28357.93
550.01	28077.07
550.18	27908.55
550.34	28268.99
550.51	28343.89
550.68	28512.41
550.84	27800.88
551.01	28367.29
551.18	28109.83
551.34	28510.07
551.51	28154.30
551.68	28542.83
551.84	28816.68
552.01	28538.15
552.18	28610.71
552.34	28423.47
552.51	28730.08
552.68	28247.93
552.84	28734.76
553.01	29146.69
553.18	28620.07
553.34	28968.81
553.51	28877.53
553.67	28713.69
553.84	29380.74
554.01	29219.25
554.17	28573.26
554.34	28893.91
554.51	29076.48
554.67	28826.04
554.84	29230.95
555.00	28943.06
555.17	29453.30
555.33	29193.50
555.50	28914.98
555.67	29195.84
555.83	29160.73
556.00	29137.33
556.16	29235.63
556.33	28971.15
556.50	29462.66
556.66	29347.98
556.83	29050.73
556.99	29689.70
557.16	29659.27
557.32	29537.56
557.49	29223.93
557.65	29275.42
557.82	29181.80
557.98	29221.59
558.15	29371.38
558.32	29631.18
558.48	29563.31
558.65	29530.54
558.81	29303.51
558.98	29495.43
559.14	29748.21
559.31	29347.98
559.47	29422.87
559.64	29916.73
559.80	29797.36
559.97	29837.15
560.13	29462.66
560.30	29362.02
560.46	29518.84
560.63	29563.31
560.79	29956.52
560.96	29603.10
561.12	30008.01
561.29	29818.42
561.45	29771.61
561.61	29909.71
561.78	29729.48
561.94	29872.26
562.11	30225.68
562.27	29996.31
562.44	30106.31
562.60	29785.66
562.77	29769.27
562.93	29687.36
563.10	29949.50
563.26	29954.18
563.42	30101.63
563.59	30143.76
563.75	29661.61
563.92	30054.82
564.08	30106.31
564.24	29993.97
564.41	29832.47
564.57	29479.05
564.74	30064.18
564.90	30396.54
565.07	29940.13
565.23	30485.48
565.39	30300.58
565.56	30270.15
565.72	30118.01
565.88	30118.01
566.05	29748.21
566.21	30218.66
566.38	29979.92
566.54	30272.49
566.70	30511.22
566.87	30258.45
567.03	30682.08
567.19	30480.80
567.36	30129.72
567.52	30551.01
567.68	30501.86
567.85	30246.74
568.01	30443.35
568.17	30436.33
568.34	30497.18
568.50	30368.45
568.66	30642.29
568.83	30389.52
568.99	30541.65
569.15	30546.33
569.32	30298.23
569.48	30103.97
569.64	30267.81
569.81	30597.82
569.97	30778.04
570.13	30352.07
570.30	30572.08
570.46	30565.06
570.62	30391.86
570.78	30747.62
570.95	30675.06
571.11	30445.69
571.27	30293.55
571.43	30457.39
571.60	30455.05
571.76	30541.65
571.92	30618.89
572.09	30452.71
572.25	30707.83
572.41	30457.39
572.57	30590.80
572.74	30646.97
572.90	30263.13
573.06	30391.86
573.22	30291.21
573.38	30244.40
573.55	30520.59
573.71	31016.78
573.87	31007.42
574.03	30637.61
574.20	30686.76
574.36	30841.24
574.52	30639.95
574.68	30595.48
574.84	30181.21
575.01	30785.07
575.17	30352.07
575.33	30726.55
575.49	30771.02
575.65	31168.91
575.82	30998.06
575.98	30190.57
576.14	30733.57
576.30	31058.91
576.46	30515.90
576.62	30852.94
576.79	31033.16
576.95	30361.43
577.11	30785.07
577.27	30909.11
577.43	30939.54
577.59	30698.47
577.75	30656.34
577.92	30457.39
578.08	30405.90
578.24	30717.19
578.40	30616.55
578.56	30609.53
578.72	30972.31
578.88	30991.03
579.04	31409.99
579.21	30771.02
579.37	31021.46
579.53	31098.70
579.69	30452.71
579.85	30410.58
580.01	30464.41
580.17	30766.34
580.33	30646.97
580.49	30855.28
580.65	30998.06
580.82	30890.39
580.98	31061.25
581.14	31063.59
581.30	31248.49
581.46	30700.81
581.62	30995.71
581.78	30560.37
581.94	31213.38
582.10	30745.28
582.26	31307.01
582.42	30780.39
582.58	30979.33
582.74	30916.14
582.90	30930.18
583.06	30920.82
583.22	30817.83
583.38	30703.15
583.54	31248.49
583.70	31182.96
583.86	31084.65
584.02	30785.07
584.18	31028.48
584.34	31030.82
584.50	31147.85
584.66	30960.61
584.82	30628.25
584.98	31112.74
585.14	31061.25
585.30	30960.61
585.46	30899.75
585.62	30658.68
585.78	31225.09
585.94	30927.84
586.10	31138.49
586.26	31007.42
586.42	31007.42
586.58	31147.85
586.74	30838.90
586.90	30962.95
587.06	30749.96
587.22	31077.63
587.38	31042.53
587.54	31276.58
587.70	31246.15
587.86	31187.64
588.02	31463.82
588.18	31702.56
588.34	31171.25
588.49	31269.56
588.65	30991.03
588.81	31180.62
588.97	31402.97
589.13	31091.68
589.29	30904.43
589.45	30974.65
589.61	31344.45
589.77	31550.42
589.93	31557.44
590.08	31225.09
590.24	31323.39
590.40	31498.93
590.56	31023.80
590.72	31332.75
590.88	30848.26
591.04	31058.91
591.20	31658.09
591.35	31732.98
591.51	31749.37
591.67	31307.01
591.83	31508.29
591.99	31632.34
592.15	31573.83
592.31	31503.61
592.46	31218.07
592.62	31342.11
592.78	31459.14
592.94	31278.92
593.10	31498.93
593.26	31510.63
593.41	32027.89
593.57	31744.69
593.73	31304.67
593.89	31805.54
594.05	31250.83
594.20	31421.69
594.36	31630.00
594.52	31527.02
594.68	31243.81
594.84	31414.67
594.99	31400.63
595.15	31527.02
595.31	31842.99
595.47	31669.79
595.62	31543.40
595.78	31468.50
595.94	31676.81
596.10	31693.19
596.25	31007.42
596.41	31438.08
596.57	30984.01
596.73	31435.74
596.88	31466.16
597.04	31658.09
597.20	32084.06
597.36	31772.77
597.51	31508.29
597.67	31597.23
597.83	31405.31
597.99	31772.77
598.14	31456.80
598.30	31552.76
598.46	31765.75
598.61	31321.05
598.77	31529.36
598.93	31728.30
599.09	31634.68
599.24	31943.63
599.40	31679.15
599.56	32002.14
599.71	31721.28
599.87	31894.48
600.03	31789.16
600.18	31873.42
600.34	31658.09
600.50	31442.76
600.65	31576.17
600.81	31604.25
600.97	32369.61
601.12	31859.37
601.28	31922.57
601.44	31786.82
601.59	31468.50
601.75	31683.83
601.91	31658.09
602.06	31630.00
602.22	31667.45
602.37	31225.09
602.53	31564.46
602.69	31669.79
602.84	31817.24
603.00	31468.50
603.16	31487.23
603.31	31604.25
603.47	31454.46
603.62	31398.29
603.78	31784.48
603.94	31283.60
604.09	31765.75
604.25	31433.39
604.40	31548.08
604.56	31419.35
604.71	31957.67
604.87	31304.67
605.03	32252.58
605.18	31817.24
605.34	31697.88
605.49	31435.74
605.65	31740.00
605.80	31505.95
605.96	31400.63
606.12	31335.09
606.27	31796.18
606.43	31477.86
606.58	31824.26
606.74	31388.92
606.89	31723.62
607.05	31943.63
607.20	31248.49
607.36	31775.11
607.51	31541.06
607.67	31534.04
607.82	31337.43
607.98	31409.99
608.13	31695.53
608.29	31342.11
608.44	31288.28
608.60	31782.13
608.75	31358.50
608.91	31826.60
609.06	31548.08
609.22	31690.85
609.37	31091.68
609.53	31585.53
609.68	31194.66
609.84	31290.62
609.99	31569.15
610.15	31220.41
610.30	31129.12
610.46	31669.79
610.61	31503.61
610.76	31079.97
610.92	31943.63
611.07	31072.95
611.23	31035.50
611.38	31211.04
611.54	31014.44
611.69	31136.15
611.84	31023.80
612.00	31299.98
612.15	31180.62
612.31	31831.29
612.46	31309.35
612.62	31402.97
612.77	30951.24
612.92	31608.93
613.08	31049.55
613.23	30993.37
613.39	30766.34
613.54	31091.68
613.69	30883.37
613.85	30878.69
614.00	30836.56
614.15	30941.88
614.31	31044.87
614.46	31009.76
614.62	30981.67
614.77	30703.15
614.92	31215.72
615.08	30939.54
615.23	30953.58
615.38	30843.58
615.54	30955.93
615.69	30976.99
615.84	30597.82
616.00	31035.50
616.15	30693.79
616.30	30993.37
616.46	30895.07
616.61	30852.94
616.76	31220.41
616.92	30775.70
617.07	30668.04
617.22	30789.75
617.37	30478.46
617.53	30838.90
617.68	30724.21
617.83	30593.14
617.99	30551.01
618.14	30490.16
618.29	30583.78
618.45	30841.24
618.60	30534.63
618.75	30850.60
618.90	30684.42
619.06	30628.25
619.21	30684.42
619.36	30595.48
619.51	30462.07
619.67	30387.18
619.82	30387.18
619.97	30492.50
620.12	30136.74
620.28	30429.30
620.43	30401.22
620.58	30237.38
620.73	30520.59
620.89	30644.63
621.04	30621.23
621.19	30597.82
621.34	30342.70
621.49	30548.67
621.65	30565.06
621.80	30401.22
621.95	30335.68
622.10	30553.35
622.25	30057.16
622.41	29809.06
622.56	30501.86
622.71	30543.99
622.86	30593.14
623.01	30522.93
623.16	30099.29
623.32	29989.28
623.47	30436.33
623.62	30438.67
623.77	30569.74
623.92	30223.34
624.07	29806.72
624.23	30017.37
624.38	30246.74
624.53	30228.02
624.68	30291.21
624.83	30249.08
624.98	30202.27
625.13	29947.15
625.29	30391.86
625.44	29879.28
625.59	29872.26
625.74	29766.93
625.89	29748.21
626.04	29600.76
626.19	29933.11
626.34	29741.19
626.49	29816.08
626.65	29792.68
626.80	30092.27
626.95	29813.74
627.10	29783.32
627.25	29738.85
627.40	29731.83
627.55	29617.14
627.70	29474.37
627.85	29205.20
628.00	29376.06
628.15	29724.80
628.30	29628.84
628.45	29537.56
628.60	29769.27
628.76	29340.96
628.91	29448.62
629.06	29619.48
629.21	29745.87
629.36	29525.86
629.51	29467.34
629.66	29277.76
629.81	29144.35
629.96	29301.17
630.11	29411.17
630.26	28999.24
630.41	29453.30
630.56	29195.84
630.71	29270.74
630.86	29179.46
631.01	29303.51
631.16	29610.12
631.31	29495.43
631.46	29230.95
631.61	29359.68
631.76	29453.30
631.91	28959.45
632.06	28950.09
632.21	29088.18
632.36	29008.60
632.51	29020.30
632.66	29298.83
632.81	28996.90
632.96	29069.45
633.10	29064.77
633.25	29319.89
633.40	29003.92
633.55	29029.66
633.70	28914.98
633.85	28879.87
634.00	28854.12
634.15	28720.71
634.30	28816.68
634.45	28456.23
634.60	28833.06
634.75	28943.06
634.90	28732.42
635.05	29275.42
635.19	28957.11
635.34	29137.33
635.49	28980.51
635.64	28851.78
635.79	28807.31
635.94	28367.29
636.09	28474.96
636.24	28795.61
636.39	28687.95
636.53	28587.30
636.68	28533.47
636.83	28503.04
636.98	28587.30
637.13	28601.35
637.28	28924.34
637.43	28531.13
637.57	28746.46
637.72	28191.75
637.87	28322.82
638.02	28669.22
638.17	28449.21
638.32	28168.35
638.46	27988.13
638.61	27908.55
638.76	28093.45
638.91	28329.84
639.06	28268.99
639.20	28697.31
639.35	28409.42
639.50	28215.16
639.65	28540.49
639.80	28496.02
639.94	28381.34
640.09	28650.50
640.24	28112.17
640.39	28257.29
640.54	28224.52
640.68	27901.53
640.83	27873.44
640.98	28233.88
641.13	28142.60
641.27	27901.53
641.42	27946.00
641.57	27857.06
641.72	28355.59
641.86	28137.92
642.01	27803.22
642.16	27915.57
642.31	27445.12
642.45	27824.29
642.60	27379.59
642.75	27669.81
642.90	27527.04
643.04	27393.63
643.19	27711.94
643.34	27592.58
643.48	27679.18
643.63	27604.28
643.78	27522.36
643.93	27910.89
644.07	27646.41
644.22	28032.60
644.37	27721.30
644.51	27721.30
644.66	27524.70
644.81	27545.76
644.95	27356.18
645.10	27665.13
645.25	27522.36
645.39	27271.92
645.54	27400.65
645.69	27702.58
645.83	27646.41
645.98	27728.33
646.13	27475.55
646.27	27658.11
646.42	27538.74
646.57	27351.50
646.71	27140.85
646.86	27775.14
647.00	27199.37
647.15	27360.86
647.30	27475.55
647.44	27269.58
647.59	27784.50
647.74	27126.81
647.88	27709.60
648.03	27363.20
648.17	27447.46
648.32	27402.99
648.47	27435.76
648.61	26965.31
648.76	27084.68
648.90	27288.31
649.05	27187.66
649.20	27190.00
649.34	27140.85
649.49	26789.77
649.63	27143.19
649.78	27072.98
649.92	26672.74
650.07	27056.59
650.21	27187.66
650.36	27557.47
650.51	26862.33
650.65	27009.78
650.80	27035.53
650.94	26656.36
651.09	26867.01
651.23	26548.70
651.38	26728.92
651.52	26864.67
651.67	26476.14
651.81	26941.91
651.96	26764.03
652.10	26803.82
652.25	26539.33
652.39	27185.32
652.54	26574.44
652.68	27075.32
652.83	26892.76
652.97	26871.69
653.12	26742.96
653.26	26347.41
653.41	26918.50
653.55	26508.91
653.70	26347.41
653.84	26520.61
653.99	26623.59
654.13	26396.56
654.27	26480.82
654.42	26532.31
654.56	26359.11
654.71	26569.76
654.85	26527.63
655.00	26607.21
655.14	26553.38
655.29	26492.52
655.43	26764.03
655.57	26429.33
655.72	25930.80
655.86	26586.15
656.01	26562.74
656.15	26265.49
656.30	25914.41
656.44	26160.17
656.58	26361.45
656.73	26197.62
656.87	26541.68
657.01	26253.79
657.16	26527.63
657.30	26359.11
657.45	26244.43
657.59	26108.68
657.73	26345.07
657.88	25935.48
658.02	25804.41
658.16	25778.66
658.31	26176.55
658.45	26015.05
658.60	26008.03
658.74	25905.05
658.88	26050.16
659.03	25642.91
659.17	25764.62
659.31	25776.32
659.46	25633.55
659.60	25874.62
659.74	25722.49
659.89	25612.48
660.03	25706.10
660.17	25734.19
660.32	25401.83
660.46	25699.08
660.60	25619.50
660.74	25605.46
660.89	25336.30
661.03	25378.43
661.17	25352.68
661.32	25254.38
661.46	25661.63
661.60	25652.27
661.74	25228.63
661.89	25371.41
662.03	25612.48
662.17	25275.45
662.31	25088.20
662.46	25256.72
662.60	25160.76
662.74	25139.69
662.88	24776.91
663.03	25057.78
663.17	25174.80
663.31	24716.06
663.45	24889.26
663.60	24992.24
663.74	25085.86
663.88	24535.84
664.02	24980.54
664.17	24954.79
664.31	25151.40
664.45	24762.87
664.59	24697.33
664.73	25053.09
664.88	24865.85
665.02	24676.27
665.16	24407.11
665.30	24741.80
665.44	24531.15
665.59	24507.75
665.73	24460.94
665.87	24222.20
666.01	24313.48
666.15	24592.01
666.29	24217.52
666.44	24683.29
666.58	24128.58
666.72	24374.34
666.86	24362.64
667.00	23969.43
667.14	24271.36
667.28	24147.31
667.43	24233.91
667.57	24142.63
667.71	24362.64
667.85	23929.64
667.99	23777.50
668.13	23857.08
668.27	23882.83
668.41	23775.16
668.56	24046.66
668.70	23702.61
668.84	24093.47
668.98	24030.28
669.12	23531.75
669.26	23487.28
669.40	23721.33
669.54	23641.75
669.68	23793.89
669.82	23164.28
669.96	23564.51
670.10	23023.85
670.25	23496.64
670.39	23094.07
670.53	23576.22
670.67	23075.34
670.81	22855.33
670.95	23285.99
671.09	22967.68
671.23	23225.14
671.37	23321.10
671.51	23173.64
671.65	23175.98
671.79	23159.60
671.93	23028.53
672.07	23194.71
672.21	22789.80
672.35	22731.28
672.49	22319.35
672.63	22574.47
672.77	22532.34
672.91	22492.55
673.05	22562.76
673.19	22408.29
673.33	22197.64
673.47	22445.74
673.61	22864.69
673.75	22555.74
673.89	22345.09
674.03	22391.91
674.17	22171.89
674.31	22087.64
674.45	22160.19
674.59	22087.64
674.73	22345.09
674.87	22031.46
675.01	22249.13
675.15	21855.92
675.29	21804.43
675.43	21989.33
675.56	21750.60
675.70	21692.08
675.84	21923.80
675.98	21130.36
676.12	21598.46
676.26	21827.84
676.40	21738.90
676.54	21509.52
676.68	21212.28
676.82	21355.05
676.96	21090.57
677.10	21170.15
677.23	21188.87
677.37	20594.37
677.51	20699.70
677.65	21034.39
677.79	20500.75
677.93	20587.35
678.07	20994.61
678.21	20678.63
678.34	20505.43
678.48	20664.59
678.62	20505.43
678.76	20636.50
678.90	20680.97
679.04	20453.94
679.18	20493.73
679.31	20372.02
679.45	20212.87
679.59	19826.68
679.73	20020.94
679.87	19822.00
680.00	20020.94
680.14	19829.02
680.28	19936.68
680.42	20098.18
680.56	19899.23
680.70	19768.16
680.83	20121.59
680.97	19447.51
681.11	19513.05
681.25	19543.47
681.39	19396.02
681.52	19438.15
681.66	19480.28
681.80	19328.14
681.94	19314.10
682.07	19311.76
682.21	19047.28
682.35	18623.64
682.49	18932.59
682.62	19005.15
682.76	18707.90
682.90	18939.62
683.04	18759.39
683.17	18523.00
683.31	18796.84
683.45	18668.11
683.59	18644.71
683.72	18654.07
683.86	18707.90
684.00	18654.07
684.13	18462.15
684.27	18424.70
684.41	18232.77
684.55	18134.47
684.68	17954.25
684.82	17759.98
684.96	17963.61
685.09	18120.43
685.23	17802.11
685.37	17914.46
685.50	17898.08
685.64	17701.47
685.78	17860.63
685.91	17785.73
686.05	17923.82
686.19	17891.06
686.32	17731.90
686.46	17245.07
686.60	17383.16
686.73	17188.89
686.87	17415.93
687.01	17102.29
687.14	17114.00
687.28	17001.65
687.42	16905.69
687.55	16903.35
687.69	16695.04
687.82	16917.39
687.96	16987.61
688.10	16830.79
688.23	16781.64
688.37	16830.79
688.50	16617.80
688.64	16271.40
688.78	16451.63
688.91	16435.24
689.05	16294.81
689.18	16334.60
689.32	16126.29
689.46	16248.00
689.59	16084.16
689.73	16259.70
689.86	15976.50
690.00	15946.07
690.13	16072.46
690.27	15730.74
690.41	15840.75
690.54	15906.28
690.68	15915.64
690.81	15566.90
690.95	15800.96
691.08	15749.46
691.22	15531.80
691.35	15508.39
691.49	15431.15
691.62	15557.54
691.76	15314.13
691.89	15222.84
692.03	14998.15
692.16	14953.68
692.30	14843.68
692.43	14712.61
692.57	14775.80
692.70	14951.34
692.84	14841.34
692.97	14862.40
693.11	14864.74
693.24	14803.89
693.38	14663.46
693.51	14408.34
693.65	14698.56
693.78	14317.06
693.92	14698.56
694.05	14436.42
694.19	14420.04
694.32	14471.53
694.45	14258.54
694.59	14005.77
694.72	14019.81
694.86	13989.38
694.99	13631.28
695.13	13783.41
695.26	13984.70
695.39	13675.75
695.53	13642.98
695.66	13778.73
695.80	13518.93
695.93	13537.66
696.07	13708.52
696.20	13757.67
696.33	13458.08
696.47	13540.00
696.60	13455.74
696.73	13341.05
696.87	13287.22
697.00	13060.19
697.14	12945.50
697.27	13015.72
697.40	12741.88
697.54	12964.23
697.67	12805.07
697.80	12769.96
697.94	12442.29
698.07	12657.62
698.21	12608.47
698.34	12821.45
698.47	12638.89
698.61	12720.81
698.74	12762.94
698.87	12435.27
699.01	12301.86
699.14	12332.28
699.27	12294.83
699.40	12461.01
699.54	12194.19
699.67	12280.79
699.80	12381.43
699.94	12039.72
700.07	12072.48
700.20	11655.87
700.34	11688.64
700.47	11587.99
700.60	11793.96
700.73	11672.25
700.87	11885.24
701.00	11613.74
701.13	11669.91
701.26	11873.54
701.40	11758.85
701.53	11669.91
701.66	11442.88
701.79	11435.86
701.93	11349.26
702.06	11194.78
702.19	11276.70
702.32	11342.24
702.46	11138.61
702.59	10906.90
702.72	11037.97
702.85	10747.74
702.99	10923.28
703.12	10696.25
703.25	10731.36
703.38	10782.85
703.51	10860.09
703.65	10677.52
703.78	10394.32
703.91	10471.56
704.04	10684.55
704.17	10600.29
704.31	10555.82
704.44	10686.89
704.57	10553.48
704.70	10202.40
704.83	10176.65
704.96	10155.58
705.10	10078.35
705.23	9860.68
>>>>>End Processed Spectral Data<<<<<
