SpectraSuite Data File
++++++++++++++++++++++++++++++++++++
Date: Fri Oct 18 13:58:31 GMT-05:00 2013
User: bianchi
Dark Spectrum Present: No
Reference Spectrum Present: No
Number of Sampled Component Spectra: 1
Spectrometers: USB2+H05261
Integration Time (usec): 50000 (USB2+H05261)
Spectra Averaged: 1 (USB2+H05261)
Boxcar Smoothing: 0 (USB2+H05261)
Correct for Electrical Dark: No (USB2+H05261)
Strobe/Lamp Enabled: No (USB2+H05261)
Correct for Detector Non-linearity: No (USB2+H05261)
Correct for Stray Light: No (USB2+H05261)
Number of Pixels in Processed Spectrum: 2048
>>>>>Begin Processed Spectral Data<<<<<
365.73	0.00
365.92	0.00
366.12	0.00
366.32	0.00
366.52	0.00
366.72	0.00
366.91	0.00
367.11	0.00
367.31	0.00
367.51	0.00
367.70	0.00
367.90	0.00
368.10	0.00
368.30	0.00
368.49	0.00
368.69	0.00
368.89	0.00
369.09	0.00
369.28	0.00
369.48	0.00
369.68	0.00
369.87	0.00
370.07	0.00
370.27	0.00
370.47	0.00
370.66	98.30
370.86	117.03
371.06	16.38
371.25	74.90
371.45	100.64
371.65	161.50
371.84	159.16
372.04	147.45
372.24	182.56
372.44	217.67
372.63	248.10
372.83	229.37
373.03	100.64
373.22	147.45
373.42	154.48
373.62	208.31
373.81	238.73
374.01	147.45
374.21	264.48
374.40	238.73
374.60	248.10
374.79	341.72
374.99	205.97
375.19	173.20
375.38	325.33
375.58	236.39
375.78	294.91
375.97	325.33
376.17	234.05
376.37	262.14
376.56	292.57
376.76	304.27
376.95	231.71
377.15	250.44
377.35	180.22
377.54	332.36
377.74	280.86
377.93	255.12
378.13	241.08
378.33	369.80
378.52	301.93
378.72	285.55
378.91	273.84
379.11	234.05
379.31	313.63
379.50	255.12
379.70	322.99
379.89	334.70
380.09	234.05
380.28	231.71
380.48	187.24
380.68	330.02
380.87	346.40
381.07	369.80
381.26	393.21
381.46	294.91
381.65	360.44
381.85	276.18
382.04	365.12
382.24	320.65
382.43	322.99
382.63	339.38
382.83	283.20
383.02	346.40
383.22	362.78
383.41	327.68
383.61	320.65
383.80	367.46
384.00	315.97
384.19	365.12
384.39	407.25
384.58	362.78
384.78	360.44
384.97	381.51
385.17	369.80
385.36	411.93
385.56	337.04
385.75	423.64
385.95	390.87
386.14	386.19
386.34	428.32
386.53	433.00
386.72	475.13
386.92	372.15
387.11	376.83
387.31	393.21
387.50	442.36
387.70	470.45
387.89	416.62
388.09	435.34
388.28	376.83
388.48	414.27
388.67	320.65
388.86	421.30
389.06	435.34
389.25	351.08
389.45	484.49
389.64	433.00
389.84	470.45
390.03	475.13
390.22	571.09
390.42	479.81
390.61	400.23
390.81	486.83
391.00	517.26
391.19	557.05
391.39	519.60
391.58	531.30
391.78	599.18
391.97	503.22
392.16	507.90
392.36	608.54
392.55	568.75
392.75	543.00
392.94	608.54
393.13	482.15
393.33	617.90
393.52	545.34
393.71	528.96
393.91	547.69
394.10	564.07
394.29	500.87
394.49	514.92
394.68	657.69
394.88	566.41
395.07	533.64
395.26	622.58
395.46	603.86
395.65	692.80
395.84	713.86
396.04	723.23
396.23	620.24
396.42	674.07
396.62	664.71
396.81	660.03
397.00	620.24
397.19	704.50
397.39	711.52
397.58	648.33
397.77	648.33
397.97	683.44
398.16	699.82
398.35	655.35
398.55	730.25
398.74	744.29
398.93	713.86
399.12	690.46
399.32	617.90
399.51	755.99
399.70	758.33
399.90	788.76
400.09	704.50
400.28	779.40
400.47	765.36
400.67	805.14
400.86	807.48
401.05	786.42
401.24	760.67
401.44	805.14
401.63	800.46
401.82	744.29
402.01	788.76
402.21	814.51
402.40	779.40
402.59	772.38
402.78	844.93
402.97	884.72
403.17	774.72
403.36	830.89
403.55	917.49
403.74	936.21
403.93	802.80
404.13	837.91
404.32	884.72
404.51	901.11
404.70	1008.77
404.89	961.96
405.09	868.34
405.28	919.83
405.47	924.51
405.66	983.02
405.85	964.30
406.05	926.85
406.24	882.38
406.43	1067.28
406.62	1004.09
406.81	1011.11
407.00	992.39
407.20	959.62
407.39	1025.15
407.58	940.90
407.77	1022.81
407.96	1064.94
408.15	1041.54
408.34	1043.88
408.54	1022.81
408.73	1102.39
408.92	992.39
409.11	1165.59
409.30	1128.14
409.49	1121.12
409.68	1095.37
409.87	1039.20
410.07	1158.57
410.26	1071.97
410.45	1100.05
410.64	1118.78
410.83	1205.38
411.02	1240.48
411.21	1348.15
411.40	1228.78
411.59	1240.48
411.78	1228.78
411.98	1249.85
412.17	1287.29
412.36	1324.74
412.55	1313.04
412.74	1369.21
412.93	1322.40
413.12	1359.85
413.31	1432.41
413.50	1315.38
413.69	1369.21
413.88	1432.41
414.07	1488.58
414.26	1411.34
414.45	1401.98
414.64	1458.15
414.83	1430.07
415.02	1420.71
415.22	1458.15
415.41	1479.22
415.60	1537.73
415.79	1453.47
415.98	1563.48
416.17	1476.88
416.36	1579.86
416.55	1563.48
416.74	1579.86
416.93	1666.46
417.12	1664.12
417.31	1596.25
417.50	1696.89
417.69	1638.38
417.88	1678.16
418.07	1680.50
418.26	1689.87
418.45	1760.08
418.64	1799.87
418.83	1879.45
419.02	1746.04
419.21	1706.25
419.39	1764.76
419.58	1849.02
419.77	1907.54
419.96	1881.79
420.15	1781.15
420.34	1818.60
420.53	1839.66
420.72	1961.37
420.91	1860.73
421.10	1947.33
421.29	1865.41
421.48	1874.77
421.67	1849.02
421.86	1867.75
422.05	1860.73
422.24	1968.39
422.43	1844.34
422.61	1944.99
422.80	1961.37
422.99	1963.71
423.18	1961.37
423.37	2024.56
423.56	2069.03
423.75	1980.09
423.94	1966.05
424.13	1846.68
424.32	1834.98
424.50	2045.63
424.69	2019.88
424.88	2146.27
425.07	2066.69
425.26	1900.52
425.45	1884.13
425.64	1923.92
425.83	1888.81
426.01	2094.78
426.20	2104.14
426.39	2003.50
426.58	1959.03
426.77	2043.29
426.96	2094.78
427.15	2101.80
427.33	2076.06
427.52	2026.90
427.71	2118.18
427.90	2150.95
428.09	2127.55
428.28	2204.78
428.46	2209.47
428.65	2115.84
428.84	2256.28
429.03	2275.00
429.22	2143.93
429.40	2218.83
429.59	2282.02
429.78	2141.59
429.97	2083.08
430.16	2195.42
430.34	2312.45
430.53	2223.51
430.72	2326.49
430.91	2249.25
431.10	2211.81
431.28	2298.41
431.47	2277.34
431.66	2354.58
431.85	2361.60
432.03	2450.54
432.22	2443.52
432.41	2457.56
432.60	2441.18
432.79	2331.17
432.97	2387.35
433.16	2513.74
433.35	2382.67
433.54	2541.82
433.72	2462.24
433.91	2394.37
434.10	2506.71
434.28	2340.54
434.47	2413.09
434.66	2616.72
434.85	2572.25
435.03	2560.55
435.22	2431.82
435.41	2651.83
435.59	2546.50
435.78	2490.33
435.97	2595.65
436.16	2553.52
436.34	2562.89
436.53	2654.17
436.72	2696.30
436.90	2633.10
437.09	2644.81
437.28	2675.23
437.46	2750.13
437.65	2684.59
437.84	2757.15
438.02	2733.75
438.21	2785.24
438.40	2693.96
438.58	2846.09
438.77	2892.90
438.96	2785.24
439.14	2834.39
439.33	2979.50
439.52	2967.80
439.70	2967.80
439.89	3042.70
440.08	2932.69
440.26	2932.69
440.45	3005.25
440.63	3115.25
440.82	3068.44
441.01	2906.95
441.19	3276.75
441.38	3009.93
441.57	3077.80
441.75	3133.98
441.94	3236.96
442.12	3052.06
442.31	3204.19
442.50	3276.75
442.68	3143.34
442.87	3260.37
443.05	3255.69
443.24	3274.41
443.43	3300.16
443.61	3349.31
443.80	3431.23
443.98	3225.26
444.17	3124.62
444.35	3262.71
444.54	3466.33
444.73	3332.92
444.91	3286.11
445.10	3382.07
445.28	3431.23
445.47	3272.07
445.65	3396.12
445.84	3574.00
446.02	3330.58
446.21	3307.18
446.39	3452.29
446.58	3382.07
446.77	3438.25
446.95	3314.20
447.14	3524.85
447.32	3449.95
447.51	3548.25
447.69	3442.93
447.88	3471.01
448.06	3449.95
448.25	3335.26
448.43	3522.51
448.62	3407.82
448.80	3461.65
448.99	3389.10
449.17	3508.46
449.36	3447.61
449.54	3590.38
449.73	3695.71
449.91	3772.94
450.10	3637.19
450.28	3864.22
450.46	3658.26
450.65	3632.51
450.83	3735.50
451.02	3681.66
451.20	3726.13
451.39	3686.34
451.57	3627.83
451.76	3632.51
451.94	3702.73
452.13	3815.07
452.31	3723.79
452.49	3611.45
452.68	3904.01
452.86	3737.84
453.05	3758.90
453.23	3847.84
453.42	3770.60
453.60	3838.48
453.78	3798.69
453.97	3859.54
454.15	3871.25
454.34	3815.07
454.52	3913.38
454.70	3913.38
454.89	3878.27
455.07	3992.95
455.26	4042.11
455.44	4091.26
455.62	4002.32
455.81	3988.27
455.99	4021.04
456.17	4002.32
456.36	4023.38
456.54	4063.17
456.73	4119.34
456.91	4119.34
457.09	4248.07
457.28	4271.48
457.46	4133.39
457.64	4315.95
457.83	4180.20
458.01	4189.56
458.19	4341.69
458.38	4166.15
458.56	4241.05
458.74	4486.81
458.93	4294.88
459.11	4325.31
459.29	4329.99
459.48	4348.72
459.66	4498.51
459.84	4552.34
460.03	4451.70
460.21	4603.83
460.39	4315.95
460.57	4404.89
460.76	4491.49
460.94	4552.34
461.12	4681.07
461.31	4512.55
461.49	4552.34
461.67	4491.49
461.85	4608.51
462.04	4652.98
462.22	4669.37
462.40	4692.77
462.59	4582.77
462.77	4725.54
462.95	4732.56
463.13	4702.14
463.32	4748.95
463.50	4830.87
463.68	4573.41
463.86	4800.44
464.05	4624.90
464.23	4709.16
464.41	4973.64
464.59	4875.34
464.78	4847.25
464.96	4873.00
465.14	4856.61
465.32	4816.82
465.50	5046.20
465.69	4877.68
465.87	4814.48
466.05	4929.17
466.23	4947.89
466.41	4905.76
466.60	5036.83
466.78	4877.68
466.96	4835.55
467.14	4863.63
467.32	4931.51
467.51	5071.94
467.69	4823.84
467.87	4919.81
468.05	5135.14
468.23	5022.79
468.41	5060.24
468.60	4987.68
468.78	5156.20
468.96	5090.67
469.14	5210.03
469.32	5207.69
469.50	5027.47
469.69	5118.75
469.87	5212.37
470.05	5200.67
470.23	5329.40
470.41	5399.62
470.59	5280.25
470.77	5263.86
470.95	5362.17
471.14	5586.86
471.32	5427.70
471.50	5432.38
471.68	5425.36
471.86	5577.50
472.04	5406.64
472.22	5666.44
472.40	5533.03
472.58	5617.29
472.77	5568.13
472.95	5579.84
473.13	5905.17
473.31	5757.72
473.49	5699.20
473.67	5806.87
473.85	5827.93
474.03	6076.03
474.21	5968.37
474.39	6029.22
474.57	5933.26
474.75	6176.67
474.93	6078.37
475.12	6099.44
475.30	5954.32
475.48	6179.01
475.66	6010.50
475.84	6141.57
476.02	6162.63
476.20	6174.33
476.38	6286.68
476.56	6443.49
476.74	6478.60
476.92	6265.61
477.10	6579.25
477.28	6597.97
477.46	6457.54
477.64	6677.55
477.82	6679.89
478.00	6672.87
478.18	6820.32
478.36	6883.52
478.54	6743.08
478.72	7105.87
478.90	7009.90
479.08	6942.03
479.26	7035.65
479.44	7063.74
479.62	6991.18
479.80	7229.91
479.98	7328.22
480.16	7239.28
480.34	7382.05
480.52	7370.35
480.70	7585.68
480.88	7346.94
481.06	7597.38
481.24	7501.42
481.41	7714.41
481.59	7857.18
481.77	8032.72
481.95	7847.82
482.13	7819.73
482.31	8028.04
482.49	8063.15
482.67	8135.70
482.85	8095.91
483.03	8248.05
483.21	8358.05
483.39	8545.30
483.57	8552.32
483.74	8566.36
483.92	8652.96
484.10	8505.51
484.28	8692.75
484.46	8781.69
484.64	8926.80
484.82	8713.81
485.00	8980.64
485.18	9153.84
485.35	9256.82
485.53	8954.89
485.71	9179.58
485.89	9554.07
486.07	9324.69
486.25	9322.35
486.43	9497.89
486.61	9708.54
486.78	9757.69
486.96	9743.65
487.14	9940.26
487.32	9804.50
487.50	9916.85
487.68	10045.58
487.85	10111.11
488.03	10239.84
488.21	10218.78
488.39	10258.57
488.57	10293.68
488.75	10588.58
488.92	10635.39
489.10	10771.15
489.28	10785.19
489.46	10817.96
489.64	10909.24
489.81	11084.78
489.99	11122.23
490.17	11016.90
490.35	11145.63
490.53	11171.38
490.70	11194.78
490.88	11496.71
491.06	11592.67
491.24	11555.22
491.41	11721.40
491.59	11808.00
491.77	11850.13
491.95	12217.60
492.13	12107.59
492.30	12166.10
492.48	11990.56
492.66	12163.76
492.84	11932.05
493.01	12283.13
493.19	12453.99
493.37	12622.51
493.54	12638.89
493.72	12709.11
493.90	12526.55
494.08	12844.86
494.25	13158.49
494.43	12889.33
494.61	13242.75
494.79	12903.37
494.96	13088.28
495.14	13069.55
495.32	13006.36
495.49	13249.77
495.67	13224.03
495.85	13479.15
496.02	13650.00
496.20	13858.31
496.38	13687.45
496.55	13830.23
496.73	14031.51
496.91	13654.69
497.09	13645.32
497.26	13862.99
497.44	13886.40
497.62	14134.50
497.79	14277.27
497.97	14359.19
498.14	14410.68
498.32	14721.97
498.50	14527.71
498.67	14661.12
498.85	14623.67
499.03	14696.22
499.20	15002.83
499.38	14932.62
499.56	14682.18
499.73	15082.41
499.91	15211.14
500.08	15234.55
500.26	14960.70
500.44	15274.34
500.61	15124.54
500.79	15206.46
500.97	15515.41
501.14	15719.04
501.32	15496.69
501.49	15365.62
501.67	15349.23
501.84	15786.91
502.02	15477.96
502.20	15637.12
502.37	15754.15
502.55	15763.51
502.72	16140.33
502.90	15852.45
503.07	15845.43
503.25	15896.92
503.43	15962.45
503.60	16114.59
503.78	15950.75
503.95	16189.49
504.13	16290.13
504.30	16137.99
504.48	16439.92
504.65	16500.78
504.83	16526.52
505.01	16872.92
505.18	16563.97
505.36	16486.73
505.53	16596.74
505.71	16622.48
505.88	16776.96
506.06	16468.01
506.23	17022.72
506.41	16552.27
506.58	16849.52
506.76	17015.69
506.93	17001.65
507.11	16868.24
507.28	16971.22
507.46	17195.92
507.63	17238.05
507.81	17289.54
507.98	17357.41
508.16	17380.82
508.33	17418.27
508.50	17865.31
508.68	17568.06
508.85	17586.79
509.03	17755.30
509.20	17886.37
509.38	17778.71
509.55	18005.74
509.73	17956.59
509.90	18087.66
510.08	17858.29
510.25	17926.16
510.42	18071.28
510.60	18281.92
510.77	18265.54
510.95	18253.84
511.12	18384.91
511.30	18143.83
511.47	18242.14
511.64	18630.66
511.82	18466.83
511.99	18693.86
512.17	18714.92
512.34	18576.83
512.51	18920.89
512.69	18808.54
512.86	18789.82
513.04	18820.25
513.21	18801.52
513.38	19346.87
513.56	18991.11
513.73	18864.72
513.90	19274.31
514.08	19094.09
514.25	19101.11
514.43	19630.07
514.60	19484.96
514.77	19105.79
514.95	19611.35
515.12	19442.83
515.29	19412.40
515.47	19527.09
515.64	19660.50
515.81	19763.48
515.99	19569.22
516.16	20004.56
516.33	20114.56
516.51	20170.74
516.68	20051.37
516.85	19665.18
517.03	19756.46
517.20	20030.30
517.37	19983.49
517.54	19983.49
517.72	20098.18
517.89	20116.90
518.06	20121.59
518.24	20437.56
518.41	20322.87
518.58	20568.63
518.75	20318.19
518.93	20821.41
519.10	20503.09
519.27	20498.41
519.45	20126.27
519.62	20397.77
519.79	20678.63
519.96	20922.05
520.14	20732.47
520.31	20851.83
520.48	20938.43
520.65	20664.59
520.83	20985.24
521.00	20765.23
521.17	20744.17
521.34	20877.58
521.52	21167.80
521.69	21085.89
521.86	21263.77
522.03	21376.11
522.20	21476.76
522.38	21153.76
522.55	21198.23
522.72	21322.28
522.89	21333.98
523.07	21977.63
523.24	21846.56
523.41	21844.22
523.58	21472.07
523.75	22087.64
523.92	21645.27
524.10	21687.40
524.27	21830.18
524.44	21710.81
524.61	21994.01
524.78	21930.82
524.96	22068.91
525.13	21926.14
525.30	22134.45
525.47	21956.57
525.64	22094.66
525.81	22485.53
525.98	22263.18
526.16	22387.22
526.33	22223.39
526.50	22717.24
526.67	22003.38
526.84	22211.68
527.01	22293.60
527.18	22401.27
527.36	22527.66
527.53	22565.10
527.70	23047.26
527.87	22539.36
528.04	22761.71
528.21	22309.99
528.38	22618.94
528.55	22836.61
528.72	22600.21
528.89	22932.57
529.07	22951.29
529.24	22764.05
529.41	23026.19
529.58	22771.07
529.75	22986.40
529.92	23026.19
530.09	23171.30
530.26	23056.62
530.43	23175.98
530.60	22923.21
530.77	23000.44
530.94	23063.64
531.11	22970.02
531.28	23440.47
531.46	23353.87
531.63	23386.63
531.80	23894.53
531.97	23714.31
532.14	23548.13
532.31	23496.64
532.48	23742.39
532.65	23695.58
532.82	23616.01
532.99	23688.56
533.16	23644.09
533.33	23737.71
533.50	23608.98
533.67	24266.67
533.84	23679.20
534.01	23791.55
534.18	23836.02
534.35	23917.93
534.52	23892.19
534.69	23812.61
534.86	24156.67
535.03	23882.83
535.20	24364.98
535.37	24121.56
535.54	24453.92
535.71	24217.52
535.88	24348.59
536.05	24025.60
536.22	24271.36
536.38	24458.60
536.55	24500.73
536.72	24893.94
536.89	24266.67
537.06	24533.50
537.23	24339.23
537.40	24372.00
537.57	24261.99
537.74	24805.00
537.91	24933.73
538.08	24849.47
538.25	24528.81
538.42	24753.51
538.59	24919.68
538.75	24367.32
538.92	24950.11
539.09	24748.82
539.26	24870.53
539.43	25006.28
539.60	24847.13
539.77	25055.43
539.94	25137.35
540.11	25214.59
540.28	25179.48
540.44	24915.00
540.61	24687.97
540.78	24645.84
540.95	24783.93
541.12	25469.71
541.29	25357.36
541.46	25425.24
541.62	24903.30
541.79	24971.18
541.96	24840.11
542.13	25249.70
542.30	25324.60
542.47	25694.40
542.63	25678.02
542.80	25544.61
542.97	25975.27
543.14	25799.73
543.31	25645.25
543.48	25584.40
543.64	25942.50
543.81	25944.84
543.98	25776.32
544.15	26017.40
544.32	26005.69
544.48	26054.84
544.65	26176.55
544.82	26085.27
544.99	25827.81
545.16	26094.63
545.32	25465.03
545.49	26347.41
545.66	26050.16
545.83	26040.80
546.00	26242.09
546.16	26211.66
546.33	26239.75
546.50	25921.43
546.67	26118.04
546.83	26071.23
547.00	26384.86
547.17	26368.48
547.34	26291.24
547.50	26682.11
547.67	26576.78
547.84	26426.99
548.00	26527.63
548.17	26593.17
548.34	26314.64
548.51	26864.67
548.67	26431.67
548.84	26668.06
549.01	26885.73
549.18	26658.70
549.34	26614.23
549.51	26501.89
549.68	26628.27
549.84	26637.64
550.01	26693.81
550.18	26761.69
550.34	26806.16
550.51	27136.17
550.68	26569.76
550.84	26764.03
551.01	27000.42
551.18	26831.90
551.34	26927.86
551.51	26878.71
551.68	26799.13
551.84	26944.25
552.01	26923.18
552.18	27412.35
552.34	27007.44
552.51	27222.77
552.68	26946.59
552.84	27101.06
553.01	27145.53
553.18	27005.10
553.34	27035.53
553.51	27318.73
553.67	27552.79
553.84	27515.34
554.01	27220.43
554.17	27236.81
554.34	27236.81
554.51	27161.92
554.67	27461.51
554.84	27569.17
555.00	27473.21
555.17	27688.54
555.33	27775.14
555.50	27421.72
555.67	27388.95
555.83	27489.59
556.00	27592.58
556.16	27899.19
556.33	27594.92
556.50	27662.79
556.66	27623.00
556.83	27529.38
556.99	27969.40
557.16	27821.95
557.32	27651.09
557.49	28128.56
557.65	27456.82
557.82	27442.78
557.98	27718.96
558.15	27538.74
558.32	28133.24
558.48	27950.68
558.65	28109.83
558.81	27679.18
558.98	28100.47
559.14	27962.38
559.31	28084.09
559.47	27871.10
559.64	28184.73
559.80	27955.36
559.97	28041.96
560.13	28247.93
560.30	28173.03
560.46	28271.33
560.63	27878.12
560.79	28233.88
560.96	28247.93
561.12	28039.62
561.29	28222.18
561.45	28041.96
561.61	28329.84
561.78	27997.49
561.94	28746.46
562.11	28641.14
562.27	28205.80
562.44	28320.48
562.60	27828.97
562.77	28481.98
562.93	28432.83
563.10	28250.27
563.26	28304.10
563.42	28577.94
563.59	28276.01
563.75	28528.79
563.92	28603.69
564.08	28364.95
564.24	28411.76
564.41	28226.86
564.57	28320.48
564.74	28315.80
564.90	28233.88
565.07	28418.78
565.23	28575.60
565.39	28587.30
565.56	28425.81
565.72	28730.08
565.88	28737.10
566.05	28521.77
566.21	28753.48
566.38	28444.53
566.54	28444.53
566.70	28603.69
566.87	28826.04
567.03	28821.36
567.19	28615.39
567.36	28797.95
567.52	28723.05
567.68	28652.84
567.85	28680.92
568.01	28662.20
568.17	28594.32
568.34	28311.12
568.50	28760.50
568.66	28753.48
568.83	28701.99
568.99	28624.75
569.15	28833.06
569.32	28685.61
569.48	28779.23
569.64	28723.05
569.81	28577.94
569.97	28788.59
570.13	28802.63
570.30	28945.41
570.46	28814.34
570.62	28685.61
570.78	28596.67
570.95	28531.13
571.11	28826.04
571.27	28540.49
571.43	28554.54
571.60	28732.42
571.76	28889.23
571.92	28933.70
572.09	28662.20
572.25	28678.58
572.41	28868.17
572.57	28762.84
572.74	29338.62
572.90	28538.15
573.06	28882.21
573.22	28659.86
573.38	28975.83
573.55	29036.69
573.71	28723.05
573.87	28943.06
574.03	28989.88
574.20	28819.02
574.36	29074.13
574.52	28872.85
574.68	28858.81
574.84	28652.84
575.01	29261.38
575.17	28776.89
575.33	28786.25
575.49	28627.09
575.65	28952.43
575.82	29085.84
575.98	28931.36
576.14	29001.58
576.30	29242.65
576.46	28896.25
576.62	29043.71
576.79	29266.06
576.95	28936.04
577.11	29221.59
577.27	28910.30
577.43	28842.42
577.59	29067.11
577.75	29083.50
577.92	28973.49
578.08	28929.02
578.24	28669.22
578.40	28865.83
578.56	28797.95
578.72	29095.20
578.88	29055.41
579.04	29158.39
579.21	28833.06
579.37	29022.64
579.53	29001.58
579.69	28542.83
579.85	28299.42
580.01	29214.57
580.17	28865.83
580.33	29153.71
580.49	29436.92
580.65	29216.91
580.82	29315.21
580.98	29039.03
581.14	29259.04
581.30	29436.92
581.46	29046.05
581.62	28823.70
581.78	28840.08
581.94	29703.74
582.10	29156.05
582.26	28907.96
582.42	29294.14
582.58	29167.76
582.74	29483.73
582.90	29207.55
583.06	29289.46
583.22	29195.84
583.38	29420.53
583.54	29017.96
583.70	29111.58
583.86	28957.11
584.02	29193.50
584.18	29399.47
584.34	28926.68
584.50	29247.33
584.66	29111.58
584.82	28723.05
584.98	29390.11
585.14	29205.20
585.30	29050.73
585.46	29118.60
585.62	29001.58
585.78	29677.99
585.94	29076.48
586.10	29294.14
586.26	29378.40
586.42	29085.84
586.58	29387.77
586.74	29177.12
586.90	29001.58
587.06	29163.08
587.22	29177.12
587.38	29174.78
587.54	29046.05
587.70	29500.11
587.86	29457.98
588.02	29818.42
588.18	29645.23
588.34	29479.05
588.49	29612.46
588.65	29088.18
588.81	29139.67
588.97	29385.43
589.13	29298.83
589.29	29462.66
589.45	29291.80
589.61	29380.74
589.77	29706.08
589.93	29645.23
590.08	29626.50
590.24	29745.87
590.40	29656.93
590.56	29612.46
590.72	29582.03
590.88	29078.82
591.04	29298.83
591.20	29944.81
591.35	29670.97
591.51	29837.15
591.67	29134.99
591.83	29680.33
591.99	30146.10
592.15	29811.40
592.31	29474.37
592.46	29507.13
592.62	29455.64
592.78	29567.99
592.94	29675.65
593.10	29563.31
593.26	29401.81
593.41	29532.88
593.57	29696.72
593.73	29757.57
593.89	29811.40
594.05	29638.20
594.20	29656.93
594.36	29883.96
594.52	29352.66
594.68	29336.27
594.84	29479.05
594.99	29635.86
595.15	29420.53
595.31	29844.17
595.47	29589.05
595.62	29731.83
595.78	29582.03
595.94	29333.93
596.10	29750.55
596.25	29668.63
596.41	29549.26
596.57	29266.06
596.73	29511.81
596.88	29443.94
597.04	29848.85
597.20	29560.97
597.36	29731.83
597.51	29799.70
597.67	29582.03
597.83	29596.07
597.99	29708.42
598.14	29692.04
598.30	29769.27
598.46	29785.66
598.61	30096.95
598.77	29532.88
598.93	29773.95
599.09	29795.02
599.24	30008.01
599.40	29799.70
599.56	30148.44
599.71	29687.36
599.87	29771.61
600.03	29654.59
600.18	29565.65
600.34	29563.31
600.50	29427.56
600.65	29928.43
600.81	29993.97
600.97	29923.75
601.12	29752.89
601.28	30038.44
601.44	29731.83
601.59	30183.55
601.75	29989.28
601.91	29881.62
602.06	29954.18
602.22	29830.13
602.37	29769.27
602.53	29979.92
602.69	29898.00
602.84	29455.64
603.00	29720.12
603.16	29762.25
603.31	29958.86
603.47	30000.99
603.62	29748.21
603.78	29876.94
603.94	29467.34
604.09	29769.27
604.25	29610.12
604.40	29865.24
604.56	29502.45
604.71	29935.45
604.87	29652.25
605.03	29972.90
605.18	29654.59
605.34	29390.11
605.49	29151.37
605.65	29546.92
605.80	29926.09
605.96	29626.50
606.12	29549.26
606.27	29748.21
606.43	29502.45
606.58	30012.69
606.74	29364.36
606.89	29788.00
607.05	29890.98
607.20	29823.11
607.36	29663.95
607.51	29851.19
607.67	29120.95
607.82	29750.55
607.98	29387.77
608.13	29802.04
608.29	29567.99
608.44	29626.50
608.60	29680.33
608.75	29799.70
608.91	29558.63
609.06	29352.66
609.22	29605.44
609.37	28987.53
609.53	29535.22
609.68	29366.70
609.84	29223.93
609.99	29544.58
610.15	29436.92
610.30	29116.26
610.46	29500.11
610.61	29401.81
610.76	29696.72
610.92	29532.88
611.07	29333.93
611.23	29237.97
611.38	29495.43
611.54	29319.89
611.69	29312.87
611.84	29142.01
612.00	29046.05
612.15	28891.57
612.31	29556.28
612.46	29434.58
612.62	29472.03
612.77	29493.09
612.92	29481.39
613.08	29170.10
613.23	29462.66
613.39	29024.98
613.54	28842.42
613.69	28844.76
613.85	28961.79
614.00	29432.24
614.15	29432.24
614.31	28793.27
614.46	29420.53
614.62	28882.21
614.77	29099.88
614.92	28931.36
615.08	29200.52
615.23	29125.63
615.38	29092.86
615.54	29209.89
615.69	28929.02
615.84	28872.85
616.00	29132.65
616.15	28790.93
616.30	29237.97
616.46	28694.97
616.61	28769.86
616.76	29193.50
616.92	28809.65
617.07	28966.47
617.22	28819.02
617.37	28964.13
617.53	28694.97
617.68	28865.83
617.83	28711.35
617.99	28746.46
618.14	28882.21
618.29	29343.30
618.45	28549.85
618.60	28863.49
618.75	28821.36
618.90	28751.14
619.06	28943.06
619.21	28797.95
619.36	28795.61
619.51	28547.51
619.67	28100.47
619.82	28233.88
619.97	28800.29
620.12	28121.54
620.28	28404.74
620.43	28788.59
620.58	28540.49
620.73	28765.18
620.89	28945.41
621.04	28610.71
621.19	28697.31
621.34	28481.98
621.49	28226.86
621.65	28472.62
621.80	29111.58
621.95	28243.24
622.10	28659.86
622.25	28411.76
622.41	28091.11
622.56	28140.26
622.71	28346.23
622.86	27969.40
623.01	28156.64
623.16	28566.24
623.32	28379.00
623.47	28343.89
623.62	28652.84
623.77	28081.75
623.92	27871.10
624.07	27721.30
624.23	28381.34
624.38	28137.92
624.53	28112.17
624.68	28299.42
624.83	28250.27
624.98	28149.62
625.13	28095.79
625.29	28280.69
625.44	28250.27
625.59	28264.31
625.74	27824.29
625.89	27969.40
626.04	28081.75
626.19	28130.90
626.34	27697.90
626.49	27608.96
626.65	28353.25
626.80	28161.33
626.95	27517.68
627.10	27861.74
627.25	27749.39
627.40	28063.02
627.55	27749.39
627.70	27826.63
627.85	27517.68
628.00	27608.96
628.15	27686.20
628.30	27243.84
628.45	27381.93
628.60	27410.01
628.76	27946.00
628.91	27627.68
629.06	27599.60
629.21	27679.18
629.36	27690.88
629.51	27508.32
629.66	27634.71
629.81	27889.82
629.96	27522.36
630.11	27290.65
630.26	27704.92
630.41	27536.40
630.56	27190.00
630.71	27206.39
630.86	27384.27
631.01	27447.46
631.16	27150.21
631.31	26984.04
631.46	27236.81
631.61	27316.39
631.76	27660.45
631.91	27131.49
632.06	27449.80
632.21	27269.58
632.36	27496.61
632.51	26747.64
632.66	27227.45
632.81	27346.82
632.96	27236.81
633.10	27232.13
633.25	27239.15
633.40	27187.66
633.55	27414.69
633.70	27192.34
633.85	26953.61
634.00	27187.66
634.15	26829.56
634.30	26731.26
634.45	27044.89
634.60	26932.54
634.75	26897.44
634.90	27077.66
635.05	26993.40
635.19	26913.82
635.34	27131.49
635.49	27087.02
635.64	27260.22
635.79	26899.78
635.94	26831.90
636.09	26799.13
636.24	26649.34
636.39	26527.63
636.53	26988.72
636.68	26572.10
636.83	26625.93
636.98	26829.56
637.13	26761.69
637.28	26902.12
637.43	26632.96
637.57	27089.36
637.72	26616.57
637.87	26801.47
638.02	26539.33
638.17	26815.52
638.32	26314.64
638.46	26293.58
638.61	26225.70
638.76	26237.41
638.91	26293.58
639.06	26419.97
639.20	26260.81
639.35	26600.19
639.50	26312.30
639.65	26848.29
639.80	26387.20
639.94	26361.45
640.09	26382.52
640.24	26415.29
640.39	26370.82
640.54	26113.36
640.68	26214.00
640.83	26469.12
640.98	26017.40
641.13	26052.50
641.27	26370.82
641.42	26359.11
641.57	26185.91
641.72	26410.60
641.86	26010.37
642.01	26522.95
642.16	25837.17
642.31	26003.35
642.45	26223.36
642.60	25724.83
642.75	26094.63
642.90	25710.78
643.04	25692.06
643.19	25790.36
643.34	25811.43
643.48	26017.40
643.63	26307.62
643.78	25816.11
643.93	25862.92
644.07	26338.05
644.22	26071.23
644.37	25940.16
644.51	25825.47
644.66	25699.08
644.81	25942.50
644.95	25572.69
645.10	25860.58
645.25	25832.49
645.39	25766.96
645.54	25816.11
645.69	25804.41
645.83	25717.81
645.98	25610.14
646.13	25668.66
646.27	25919.09
646.42	25837.17
646.57	25638.23
646.71	25799.73
646.86	25886.32
647.00	25708.44
647.15	25504.82
647.30	25319.92
647.44	25745.89
647.59	25603.12
647.74	25324.60
647.88	25446.30
648.03	25596.10
648.17	25455.67
648.32	25715.47
648.47	25762.28
648.61	25556.31
648.76	25441.62
648.90	25530.56
649.05	25759.94
649.20	25303.53
649.34	25308.21
649.49	25413.54
649.63	25277.79
649.78	25291.83
649.92	24837.76
650.07	25406.52
650.21	25261.40
650.36	25514.18
650.51	25135.01
650.65	25326.94
650.80	25174.80
650.94	25305.87
651.09	25025.01
651.23	25448.64
651.38	25249.70
651.52	25289.49
651.67	24802.66
651.81	25226.29
651.96	24872.87
652.10	25027.35
652.25	24933.73
652.39	25125.65
652.54	25305.87
652.68	25041.39
652.83	25074.16
652.97	25254.38
653.12	25233.32
653.26	24835.42
653.41	25130.33
653.55	25003.94
653.70	25184.16
653.84	24830.74
653.99	25036.71
654.13	24826.06
654.27	24828.40
654.42	24582.65
654.56	24346.25
654.71	25144.38
654.85	24453.92
655.00	24655.20
655.14	24910.32
655.29	24587.33
655.43	24755.85
655.57	24690.31
655.72	24767.55
655.86	24769.89
656.01	24861.17
656.15	24528.81
656.30	24334.55
656.44	24261.99
656.58	24505.41
656.73	24386.04
656.87	24617.75
657.01	24435.19
657.16	24402.43
657.30	24643.50
657.45	24374.34
657.59	24694.99
657.73	24570.94
657.88	24168.37
658.02	24439.87
658.16	24116.88
658.31	24119.22
658.45	24678.61
658.60	24257.31
658.74	24119.22
658.88	24224.54
659.03	24367.32
659.17	24446.90
659.31	24245.61
659.46	23772.82
659.60	24025.60
659.74	24416.47
659.89	24196.46
660.03	23864.10
660.17	23934.32
660.32	24079.43
660.46	23817.29
660.60	23838.36
660.74	23658.14
660.89	23314.08
661.03	23765.80
661.17	23777.50
661.32	23775.16
661.46	23868.78
661.60	23711.97
661.74	23487.28
661.89	23756.44
662.03	23695.58
662.17	23536.43
662.31	23557.49
662.46	23658.14
662.60	23531.75
662.74	23379.61
662.88	23358.55
663.03	23157.26
663.17	23101.09
663.31	23220.45
663.45	22979.38
663.60	23417.06
663.74	23014.49
663.88	23089.38
664.02	22991.08
664.17	23314.08
664.31	23183.01
664.45	23168.96
664.59	23241.52
664.73	23213.43
664.88	23311.74
665.02	22511.27
665.16	22881.08
665.30	22822.56
665.44	22855.33
665.59	22745.33
665.73	22721.92
665.87	22412.97
666.01	22897.46
666.15	22939.59
666.29	22764.05
666.44	22771.07
666.58	22595.53
666.72	22703.20
666.86	22668.09
667.00	22618.94
667.14	22508.93
667.28	22429.35
667.43	22436.38
667.57	22249.13
667.71	22127.42
667.85	22005.72
667.99	22085.30
668.13	22338.07
668.27	21937.84
668.41	22003.38
668.56	22038.48
668.70	22047.85
668.84	22354.46
668.98	22279.56
669.12	22125.08
669.26	22270.20
669.40	22012.74
669.54	21914.44
669.68	22075.93
669.82	21645.27
669.96	21914.44
670.10	21720.17
670.25	22010.40
670.39	21743.58
670.53	21783.37
670.67	21738.90
670.81	21516.54
670.95	21795.07
671.09	21631.23
671.23	21649.96
671.37	21741.24
671.51	21778.68
671.65	21479.10
671.79	21462.71
671.93	21378.45
672.07	21495.48
672.21	21060.14
672.35	21153.76
672.49	20781.62
672.63	21259.09
672.77	20912.69
672.91	20774.60
673.05	21125.68
673.19	20868.22
673.33	20683.31
673.47	21043.76
673.61	21013.33
673.75	20915.03
673.89	21092.91
674.03	20720.76
674.17	20989.92
674.31	20767.57
674.45	20624.80
674.59	20798.00
674.73	20842.47
674.87	20283.08
675.01	20479.69
675.15	20266.70
675.29	20142.65
675.43	20482.03
675.56	20311.17
675.70	20322.87
675.84	20247.97
675.98	19704.97
676.12	20418.83
676.26	20074.77
676.40	20166.06
676.54	20006.90
676.68	20030.30
676.82	19398.36
676.96	19534.11
677.10	19513.05
677.23	19667.52
677.37	19417.08
677.51	19611.35
677.65	19496.66
677.79	19124.52
677.93	19590.28
678.07	19192.39
678.21	19178.35
678.34	19229.84
678.48	19115.16
678.62	19295.38
678.76	19152.60
678.90	18918.55
679.04	18890.46
679.18	19009.83
679.31	18939.62
679.45	18768.76
679.59	18721.95
679.73	18635.35
679.87	18595.56
680.00	18670.45
680.14	18429.38
680.28	18511.30
680.42	18480.87
680.56	18434.06
680.70	18424.70
680.83	18398.95
680.97	18380.23
681.11	17998.72
681.25	18087.66
681.39	17851.27
681.52	17965.95
681.66	18043.19
681.80	17813.82
681.94	17790.41
682.07	17949.57
682.21	17891.06
682.35	17589.13
682.49	17486.14
682.62	17422.95
682.76	17631.26
682.90	17717.86
683.04	17355.07
683.17	17579.76
683.31	17535.29
683.45	17603.17
683.59	17345.71
683.72	17404.22
683.86	17165.49
684.00	17184.21
684.13	17392.52
684.27	16788.66
684.41	16943.14
684.55	17022.72
684.68	16482.05
684.82	16587.38
684.96	16681.00
685.09	16634.19
685.23	16484.39
685.37	16428.22
685.50	16617.80
685.64	16655.25
685.78	16758.24
685.91	16781.64
686.05	16369.71
686.19	16255.02
686.32	16468.01
686.46	16238.64
686.60	16042.03
686.73	15693.29
686.87	16009.26
687.01	16142.67
687.14	15817.34
687.28	15810.32
687.42	15513.07
687.55	15604.35
687.69	15859.47
687.82	15218.16
687.96	15503.71
688.10	15683.93
688.23	15819.68
688.37	15477.96
688.50	15417.11
688.64	15454.56
688.78	15349.23
688.91	15152.63
689.05	15410.09
689.18	15260.29
689.32	14836.66
689.46	14806.23
689.59	14808.57
689.73	15105.82
689.86	14963.04
690.00	14656.43
690.13	14803.89
690.27	14759.42
690.41	14869.42
690.54	14586.22
690.68	14705.59
690.81	14551.11
690.95	14691.54
691.08	14579.20
691.22	14310.04
691.35	14621.33
691.49	14455.15
691.62	14487.92
691.76	14239.82
691.89	14235.14
692.03	13844.27
692.16	13816.18
692.30	14022.15
692.43	13977.68
692.57	13586.81
692.70	13790.44
692.84	13530.64
692.97	13729.58
693.11	13685.11
693.24	13575.11
693.38	13446.38
693.51	13497.87
693.65	13671.07
693.78	13530.64
693.92	13657.03
694.05	13640.64
694.19	13296.58
694.32	13277.86
694.45	13041.46
694.59	13064.87
694.72	12966.57
694.86	12760.60
694.99	12776.98
695.13	12807.41
695.26	12819.11
695.39	12989.97
695.53	12886.99
695.66	12711.45
695.80	12713.79
695.93	12746.56
696.07	12559.31
696.20	12851.88
696.33	12514.84
696.47	12435.27
696.60	12369.73
696.73	12411.86
696.87	12194.19
697.00	12320.58
697.14	12255.04
697.27	11749.49
697.40	11843.11
697.54	11812.68
697.67	12086.53
697.80	11992.90
697.94	11946.09
698.07	11800.98
698.21	11686.29
698.34	11786.94
698.47	11815.02
698.61	11597.35
698.74	11721.40
698.87	11517.78
699.01	11552.88
699.14	11482.67
699.27	11482.67
699.40	11190.10
699.54	11339.90
699.67	11307.13
699.80	11044.99
699.94	11232.23
700.07	11276.70
700.20	11218.19
700.34	10682.20
700.47	10714.97
700.60	10902.22
700.73	10871.79
700.87	11033.29
701.00	10920.94
701.13	10888.17
701.26	10801.57
701.40	10848.38
701.53	10750.08
701.66	10796.89
701.79	10525.39
701.93	10611.99
702.06	10221.12
702.19	10424.75
702.32	10497.30
702.46	10132.18
702.59	10150.90
702.72	10207.08
702.85	10024.51
702.99	10078.35
703.12	10186.01
703.25	9935.57
703.38	10174.31
703.51	10045.58
703.65	9961.32
703.78	10045.58
703.91	9916.85
704.04	10017.49
704.17	10005.79
704.31	9760.03
704.44	9507.26
704.57	9659.39
704.70	9612.58
704.83	9453.42
704.96	9516.62
705.10	9282.56
705.23	9174.90
>>>>>End Processed Spectral Data<<<<<
