SpectraSuite Data File
++++++++++++++++++++++++++++++++++++
Date: Fri Oct 18 13:58:22 GMT-05:00 2013
User: bianchi
Dark Spectrum Present: No
Reference Spectrum Present: No
Number of Sampled Component Spectra: 1
Spectrometers: USB2+H05261
Integration Time (usec): 50000 (USB2+H05261)
Spectra Averaged: 1 (USB2+H05261)
Boxcar Smoothing: 0 (USB2+H05261)
Correct for Electrical Dark: No (USB2+H05261)
Strobe/Lamp Enabled: No (USB2+H05261)
Correct for Detector Non-linearity: No (USB2+H05261)
Correct for Stray Light: No (USB2+H05261)
Number of Pixels in Processed Spectrum: 2048
>>>>>Begin Processed Spectral Data<<<<<
365.73	0.00
365.92	0.00
366.12	0.00
366.32	0.00
366.52	0.00
366.72	0.00
366.91	0.00
367.11	0.00
367.31	0.00
367.51	0.00
367.70	0.00
367.90	0.00
368.10	0.00
368.30	0.00
368.49	0.00
368.69	0.00
368.89	0.00
369.09	0.00
369.28	0.00
369.48	0.00
369.68	0.00
369.87	0.00
370.07	0.00
370.27	0.00
370.47	0.00
370.66	86.60
370.86	65.54
371.06	140.43
371.25	161.50
371.45	138.09
371.65	147.45
371.84	189.58
372.04	154.48
372.24	234.05
372.44	177.88
372.63	264.48
372.83	259.80
373.03	105.32
373.22	173.20
373.42	198.95
373.62	224.69
373.81	205.97
374.01	243.42
374.21	220.01
374.40	283.20
374.60	241.08
374.79	205.97
374.99	222.35
375.19	196.60
375.38	220.01
375.58	266.82
375.78	243.42
375.97	283.20
376.17	304.27
376.37	259.80
376.56	283.20
376.76	245.76
376.95	283.20
377.15	266.82
377.35	306.61
377.54	269.16
377.74	264.48
377.93	250.44
378.13	269.16
378.33	257.46
378.52	264.48
378.72	266.82
378.91	322.99
379.11	376.83
379.31	238.73
379.50	269.16
379.70	287.89
379.89	337.04
380.09	245.76
380.28	266.82
380.48	353.42
380.68	271.50
380.87	318.31
381.07	369.80
381.26	393.21
381.46	374.49
381.65	397.89
381.85	393.21
382.04	297.25
382.24	330.02
382.43	320.65
382.63	339.38
382.83	255.12
383.02	332.36
383.22	404.91
383.41	339.38
383.61	376.83
383.80	358.10
384.00	304.27
384.19	294.91
384.39	353.42
384.58	334.70
384.78	273.84
384.97	346.40
385.17	362.78
385.36	416.62
385.56	461.09
385.75	449.38
385.95	397.89
386.14	428.32
386.34	465.77
386.53	402.57
386.72	383.85
386.92	437.68
387.11	376.83
387.31	454.06
387.50	390.87
387.70	433.00
387.89	449.38
388.09	395.55
388.28	411.93
388.48	468.11
388.67	400.23
388.86	400.23
389.06	463.43
389.25	498.53
389.45	458.74
389.64	500.87
389.84	416.62
390.03	468.11
390.22	500.87
390.42	428.32
390.61	491.51
390.81	465.77
391.00	568.75
391.19	538.32
391.39	491.51
391.58	491.51
391.78	496.19
391.97	550.03
392.16	531.30
392.36	578.11
392.55	580.45
392.75	608.54
392.94	475.13
393.13	535.98
393.33	566.41
393.52	526.62
393.71	547.69
393.91	638.97
394.10	528.96
394.29	580.45
394.49	603.86
394.68	559.39
394.88	603.86
395.07	608.54
395.26	601.52
395.46	587.47
395.65	627.26
395.84	610.88
396.04	552.37
396.23	660.03
396.42	617.90
396.62	620.24
396.81	683.44
397.00	634.29
397.19	685.78
397.39	603.86
397.58	573.43
397.77	690.46
397.97	748.97
398.16	655.35
398.35	641.31
398.55	699.82
398.74	704.50
398.93	737.27
399.12	676.41
399.32	688.12
399.51	671.73
399.70	727.91
399.90	737.27
400.09	685.78
400.28	713.86
400.47	734.93
400.67	842.59
400.86	816.85
401.05	781.74
401.24	758.33
401.44	763.01
401.63	837.91
401.82	737.27
402.01	826.21
402.21	763.01
402.40	805.14
402.59	814.51
402.78	823.87
402.97	863.66
403.17	821.53
403.36	903.45
403.55	971.32
403.74	854.30
403.93	903.45
404.13	866.00
404.32	854.30
404.51	908.13
404.70	880.04
404.89	837.91
405.09	851.96
405.28	938.55
405.47	980.68
405.66	940.90
405.85	1018.13
406.05	959.62
406.24	1013.45
406.43	959.62
406.62	978.34
406.81	919.83
407.00	1015.79
407.20	999.41
407.39	964.30
407.58	1109.41
407.77	1043.88
407.96	1121.12
408.15	1036.86
408.34	1123.46
408.54	1174.95
408.73	1151.54
408.92	1074.31
409.11	1153.88
409.30	1132.82
409.49	1135.16
409.68	1100.05
409.87	1135.16
410.07	1172.61
410.26	1146.86
410.45	1146.86
410.64	1100.05
410.83	1242.82
411.02	1277.93
411.21	1296.66
411.40	1121.12
411.59	1287.29
411.78	1247.51
411.98	1174.95
412.17	1177.29
412.36	1224.10
412.55	1240.48
412.74	1387.94
412.93	1320.06
413.12	1266.23
413.31	1327.08
413.50	1409.00
413.69	1331.76
413.88	1504.96
414.07	1446.45
414.26	1364.53
414.45	1418.36
414.64	1409.00
414.83	1394.96
415.02	1392.62
415.22	1528.37
415.41	1526.03
415.60	1643.06
415.79	1575.18
415.98	1586.88
416.17	1563.48
416.36	1561.14
416.55	1607.95
416.74	1617.31
416.93	1612.63
417.12	1650.08
417.31	1659.44
417.50	1668.80
417.69	1748.38
417.88	1654.76
418.07	1750.72
418.26	1732.00
418.45	1776.47
418.64	1856.04
418.83	1811.57
419.02	1781.15
419.21	1774.13
419.39	1650.08
419.58	1820.94
419.77	1804.55
419.96	1813.92
420.15	1830.30
420.34	1914.56
420.53	1816.26
420.72	1921.58
420.91	1902.86
421.10	1966.05
421.29	2087.76
421.48	1881.79
421.67	1856.04
421.86	1842.00
422.05	1933.28
422.24	1881.79
422.43	1907.54
422.61	1970.73
422.80	2017.54
422.99	2043.29
423.18	1989.46
423.37	1949.67
423.56	2019.88
423.75	2076.06
423.94	1963.71
424.13	1849.02
424.32	1944.99
424.50	2031.58
424.69	1966.05
424.88	2108.82
425.07	1881.79
425.26	2003.50
425.45	2026.90
425.64	2076.06
425.83	2033.93
426.01	2073.71
426.20	2120.53
426.39	1970.73
426.58	1991.80
426.77	2040.95
426.96	2097.12
427.15	2064.35
427.33	2125.21
427.52	1982.43
427.71	2143.93
427.90	2115.84
428.09	2052.65
428.28	2181.38
428.46	2256.28
428.65	2188.40
428.84	2321.81
429.03	2223.51
429.22	2181.38
429.40	2303.09
429.59	2237.55
429.78	2204.78
429.97	2165.00
430.16	2150.95
430.34	2277.34
430.53	2256.28
430.72	2312.45
430.91	2275.00
431.10	2230.53
431.28	2298.41
431.47	2363.94
431.66	2396.71
431.85	2345.22
432.03	2415.43
432.22	2392.03
432.41	2368.62
432.60	2485.65
432.79	2452.88
432.97	2473.95
433.16	2492.67
433.35	2342.88
433.54	2455.22
433.72	2499.69
433.91	2504.37
434.10	2541.82
434.28	2466.92
434.47	2523.10
434.66	2471.61
434.85	2480.97
435.03	2537.14
435.22	2628.42
435.41	2689.28
435.59	2642.46
435.78	2633.10
435.97	2670.55
436.16	2558.21
436.34	2590.97
436.53	2654.17
436.72	2906.95
436.90	2693.96
437.09	2768.85
437.28	2668.21
437.46	2595.65
437.65	2778.22
437.84	2771.19
438.02	2803.96
438.21	2810.98
438.40	2736.09
438.58	2820.35
438.77	2789.92
438.96	2897.58
439.14	2918.65
439.33	2988.86
439.52	2963.12
439.70	2949.08
439.89	2995.89
440.08	3042.70
440.26	3021.63
440.45	3063.76
440.63	3045.04
440.82	3141.00
441.01	3159.72
441.19	3007.59
441.38	3239.30
441.57	3173.77
441.75	3126.96
441.94	3215.90
442.12	3276.75
442.31	3302.50
442.50	3187.81
442.68	3255.69
442.87	3330.58
443.05	3452.29
443.24	3321.22
443.43	3407.82
443.61	3384.41
443.80	3506.12
443.98	3363.35
444.17	3286.11
444.35	3330.58
444.54	3447.61
444.73	3506.12
444.91	3396.12
445.10	3480.38
445.28	3384.41
445.47	3578.68
445.65	3510.80
445.84	3501.44
446.02	3405.48
446.21	3459.31
446.39	3368.03
446.58	3424.20
446.77	3435.91
446.95	3499.10
447.14	3543.57
447.32	3494.42
447.51	3307.18
447.69	3442.93
447.88	3445.27
448.06	3365.69
448.25	3566.98
448.43	3522.51
448.62	3581.02
448.80	3545.91
448.99	3574.00
449.17	3590.38
449.36	3618.47
449.54	3548.25
449.73	3534.21
449.91	3627.83
450.10	3861.88
450.28	3688.68
450.46	3723.79
450.65	3786.99
450.83	3808.05
451.02	3620.81
451.20	3737.84
451.39	3796.35
451.57	3705.07
451.76	3712.09
451.94	3730.81
452.13	3915.72
452.31	3754.22
452.49	3789.33
452.68	3908.69
452.86	3833.80
453.05	3712.09
453.23	3838.48
453.42	3833.80
453.60	3822.09
453.78	3840.82
453.97	3833.80
454.15	3999.98
454.34	3866.56
454.52	3974.23
454.70	4042.11
454.89	3946.14
455.07	4032.74
455.26	4070.19
455.44	4091.26
455.62	4168.49
455.81	4037.42
455.99	4067.85
456.17	4201.26
456.36	4276.16
456.54	4109.98
456.73	4224.67
456.91	4269.14
457.09	4299.56
457.28	4334.67
457.46	4280.84
457.64	4301.90
457.83	4465.74
458.01	4208.28
458.19	4245.73
458.38	4294.88
458.56	4395.53
458.74	4468.08
458.93	4435.32
459.11	4423.61
459.29	4379.14
459.48	4372.12
459.66	4559.36
459.84	4650.64
460.03	4526.60
460.21	4517.23
460.39	4592.13
460.57	4671.71
460.76	4699.80
460.94	4437.66
461.12	4599.15
461.31	4615.54
461.49	4524.26
461.67	4671.71
461.85	4601.49
462.04	4531.28
462.22	4858.95
462.40	4777.03
462.59	4770.01
462.77	4746.61
462.95	4926.83
463.13	4788.74
463.32	4844.91
463.50	4837.89
463.68	4779.37
463.86	4793.42
464.05	4695.11
464.23	4992.36
464.41	4837.89
464.59	4826.18
464.78	4922.15
464.96	4985.34
465.14	4884.70
465.32	4905.76
465.50	5048.54
465.69	4936.19
465.87	5013.43
466.05	4908.10
466.23	4940.87
466.41	5008.75
466.60	5217.05
466.78	4990.02
466.96	4915.12
467.14	5055.56
467.32	5085.98
467.51	5125.77
467.69	5102.37
467.87	5334.08
468.05	5188.97
468.23	5093.01
468.41	5135.14
468.60	5149.18
468.78	5214.71
468.96	5308.34
469.14	5116.41
469.32	5303.65
469.50	5130.45
469.69	5233.44
469.87	5212.37
470.05	5210.03
470.23	5430.04
470.41	5308.34
470.59	5479.19
470.77	5387.91
470.95	5387.91
471.14	5528.35
471.32	5511.96
471.50	5486.22
471.68	5490.90
471.86	5518.98
472.04	5502.60
472.22	5825.59
472.40	5554.09
472.58	5544.73
472.77	5647.71
472.95	5771.76
473.13	5802.19
473.31	5809.21
473.49	5593.88
473.67	5816.23
473.85	5818.57
474.03	5921.56
474.21	5788.14
474.39	6085.39
474.57	5966.03
474.75	6228.17
474.93	6230.51
475.12	6132.20
475.30	6373.28
475.48	6054.97
475.66	6305.40
475.84	6162.63
476.02	6291.36
476.20	6331.15
476.38	6441.15
476.56	6537.12
476.74	6663.51
476.92	6406.05
477.10	6614.35
477.28	6747.76
477.46	6525.41
477.64	6565.20
477.82	6782.87
478.00	6930.33
478.18	6913.94
478.36	6920.96
478.54	6988.84
478.72	7180.76
478.90	7370.35
479.08	7016.93
479.26	7262.68
479.44	7152.68
479.62	7461.63
479.80	7550.57
479.98	7382.05
480.16	7428.86
480.34	7353.96
480.52	7646.53
480.70	7784.62
480.88	7461.63
481.06	7681.64
481.24	7616.10
481.41	7868.88
481.59	8081.87
481.77	7950.80
481.95	7990.59
482.13	8067.83
482.31	7948.46
482.49	8294.86
482.67	8236.35
482.85	8397.84
483.03	8461.04
483.21	8446.99
483.39	8451.67
483.57	8421.25
483.74	8547.64
483.92	8624.87
484.10	8704.45
484.28	8800.41
484.46	8908.08
484.64	9163.20
484.82	8884.67
485.00	9036.81
485.18	9315.33
485.35	9055.53
485.53	9413.63
485.71	9516.62
485.89	9413.63
486.07	9610.24
486.25	9458.10
486.43	9591.52
486.61	9694.50
486.78	9769.40
486.96	9734.29
487.14	10015.15
487.32	9802.16
487.50	10228.14
487.68	10155.58
487.85	10368.57
488.03	10406.02
488.21	10677.52
488.39	10413.04
488.57	10782.85
488.75	10604.97
488.92	10766.46
489.10	10803.91
489.28	10981.79
489.46	10911.58
489.64	10944.34
489.81	11215.85
489.99	11199.46
490.17	11199.46
490.35	11382.03
490.53	11466.28
490.70	11522.46
490.88	11616.08
491.06	11831.41
491.24	11571.61
491.41	11698.00
491.59	11805.66
491.77	12255.04
491.95	11913.33
492.13	11936.73
492.30	12084.19
492.48	12182.49
492.66	12241.00
492.84	12360.37
493.01	12519.53
493.19	12627.19
493.37	12786.35
493.54	12870.61
493.72	12692.73
493.90	12945.50
494.08	13006.36
494.25	13200.62
494.43	12870.61
494.61	13111.68
494.79	13432.33
494.96	13050.83
495.14	13345.73
495.32	13327.01
495.49	13582.13
495.67	13479.15
495.85	13518.93
496.02	13781.07
496.20	13799.80
496.38	13525.96
496.55	13811.50
496.73	14139.18
496.91	13998.74
497.09	14029.17
497.26	14375.57
497.44	14394.29
497.62	14347.48
497.79	14457.49
497.97	14508.98
498.14	14541.75
498.32	14640.05
498.50	14766.44
498.67	14918.57
498.85	14600.26
499.03	14913.89
499.20	14925.60
499.38	14817.93
499.56	15293.06
499.73	15082.41
499.91	15239.23
500.08	15269.66
500.26	15119.86
500.44	15328.17
500.61	15594.99
500.79	15410.09
500.97	15573.92
501.14	15925.00
501.32	15831.38
501.49	15625.42
501.67	15662.86
501.84	15838.41
502.02	15962.45
502.20	15887.56
502.37	15852.45
502.55	16070.12
502.72	15953.09
502.90	16318.22
503.07	15962.45
503.25	16315.87
503.43	16161.40
503.60	16517.16
503.78	16666.95
503.95	16409.50
504.13	16332.26
504.30	16582.70
504.48	16755.90
504.65	16678.66
504.83	16858.88
505.01	16905.69
505.18	16800.37
505.36	17020.38
505.53	16889.31
505.71	16957.18
505.88	17296.56
506.06	17064.85
506.23	17027.40
506.41	16938.46
506.58	17235.70
506.76	17420.61
506.93	17315.28
507.11	17387.84
507.28	17465.08
507.46	17544.66
507.63	17633.60
507.81	17972.97
507.98	17614.87
508.16	17839.56
508.33	17874.67
508.50	17645.30
508.68	17816.16
508.85	18197.67
509.03	18019.78
509.20	18120.43
509.38	18298.31
509.55	18265.54
509.73	18015.10
509.90	18118.09
510.08	18054.89
510.25	18157.88
510.42	18541.72
510.60	18630.66
510.77	18431.72
510.95	18567.47
511.12	18263.20
511.30	18523.00
511.47	18389.59
511.64	18588.53
511.82	18974.72
511.99	18801.52
512.17	18979.40
512.34	19187.71
512.51	18897.49
512.69	19066.00
512.86	19136.22
513.04	19068.34
513.21	18984.09
513.38	19503.68
513.56	19325.80
513.73	19255.59
513.90	19412.40
514.08	19620.71
514.25	19421.77
514.43	19445.17
514.60	19676.88
514.77	19583.26
514.95	19616.03
515.12	19585.60
515.29	19810.29
515.47	19592.62
515.64	19793.91
515.81	20023.28
515.99	19831.36
516.16	20126.27
516.33	20072.43
516.51	20346.28
516.68	19941.36
516.85	20175.42
517.03	20114.56
517.20	20372.02
517.37	20491.39
517.54	20325.21
517.72	20662.25
517.89	20306.49
518.06	20456.28
518.24	20402.45
518.41	20355.64
518.58	20540.54
518.75	20556.93
518.93	20753.53
519.10	20737.15
519.27	20886.94
519.45	20552.24
519.62	20727.78
519.79	20676.29
519.96	21015.67
520.14	20947.79
520.31	21245.04
520.48	21252.06
520.65	21102.27
520.83	21247.38
521.00	21252.06
521.17	21263.77
521.34	21310.58
521.52	21310.58
521.69	21434.63
521.86	21422.92
522.03	21451.01
522.20	21944.86
522.38	21659.32
522.55	21532.93
522.72	21530.59
522.89	21647.61
523.07	22066.57
523.24	21659.32
523.41	22169.55
523.58	21977.63
523.75	22097.00
523.92	21907.41
524.10	21921.46
524.27	22038.48
524.44	22230.41
524.61	22520.63
524.78	22560.42
524.96	22347.44
525.13	22539.36
525.30	22312.33
525.47	22459.78
525.64	22354.46
525.81	22817.88
525.98	22766.39
526.16	22405.95
526.33	22754.69
526.50	23005.13
526.67	22595.53
526.84	22682.13
527.01	22632.98
527.18	22885.76
527.36	22815.54
527.53	22876.40
527.70	22958.31
527.87	23531.75
528.04	23014.49
528.21	23012.15
528.38	23157.26
528.55	23281.31
528.72	23358.55
528.89	23166.62
529.07	23012.15
529.24	23058.96
529.41	23133.86
529.58	23293.01
529.75	23316.42
529.92	23271.95
530.09	23513.02
530.26	23484.94
530.43	23475.57
530.60	23271.95
530.77	23749.42
530.94	23665.16
531.11	23573.88
531.28	23470.89
531.46	23293.01
531.63	23852.40
531.80	23934.32
531.97	23934.32
532.14	24500.73
532.31	23953.04
532.48	23857.08
532.65	23976.45
532.82	23714.31
532.99	24245.61
533.16	23985.81
533.33	24147.31
533.50	24538.18
533.67	23906.23
533.84	24177.73
534.01	24175.39
534.18	23791.55
534.35	24334.55
534.52	24428.17
534.69	24484.34
534.86	24435.19
535.03	24489.03
535.20	24386.04
535.37	24730.10
535.54	24919.68
535.71	24584.99
535.88	24503.07
536.05	24933.73
536.22	24606.05
536.38	24662.22
536.55	24755.85
536.72	24758.19
536.89	24620.10
537.06	24540.52
537.23	25069.48
537.40	24727.76
537.57	24716.06
537.74	24952.45
537.91	25366.73
538.08	24994.58
538.25	24840.11
538.42	25184.16
538.59	25191.19
538.75	24713.72
538.92	25006.28
539.09	25425.24
539.26	25259.06
539.43	24950.11
539.60	25326.94
539.77	25502.48
539.94	25560.99
540.11	25205.23
540.28	25614.82
540.44	25268.42
540.61	25394.81
540.78	25411.20
540.95	25481.41
541.12	25722.49
541.29	25708.44
541.46	25408.86
541.62	25350.34
541.79	25710.78
541.96	25146.72
542.13	25584.40
542.30	25553.97
542.47	25706.10
542.63	25867.60
542.80	25956.54
542.97	26001.01
543.14	26057.18
543.31	25872.28
543.48	25930.80
543.64	26267.83
543.81	26272.51
543.98	26551.04
544.15	26319.32
544.32	26396.56
544.48	26293.58
544.65	26125.06
544.82	26391.88
544.99	25900.37
545.16	26518.27
545.32	26368.48
545.49	26871.69
545.66	26576.78
545.83	26480.82
546.00	26808.50
546.16	26529.97
546.33	26462.10
546.50	26263.15
546.67	26661.04
546.83	26602.53
547.00	26623.59
547.17	26897.44
547.34	26567.42
547.50	26721.90
547.67	26869.35
547.84	26911.48
548.00	27168.94
548.17	26859.99
548.34	26845.94
548.51	26731.26
548.67	26806.16
548.84	27070.64
549.01	26988.72
549.18	27105.74
549.34	27105.74
549.51	27412.35
549.68	27384.27
549.84	27211.07
550.01	27278.94
550.18	27082.34
550.34	27747.05
550.51	27337.46
550.68	27302.35
550.84	27248.52
551.01	27372.57
551.18	27328.10
551.34	27072.98
551.51	27604.28
551.68	27845.35
551.84	27634.71
552.01	27424.06
552.18	27690.88
552.34	27431.08
552.51	27754.07
552.68	27461.51
552.84	27480.23
553.01	27938.97
553.18	27491.93
553.34	27662.79
553.51	27637.05
553.67	27562.15
553.84	28133.24
554.01	27873.44
554.17	27569.17
554.34	28002.17
554.51	27948.34
554.67	27974.08
554.84	27838.33
555.00	27962.38
555.17	28123.88
555.33	27868.76
555.50	27807.90
555.67	28044.30
555.83	28163.67
556.00	27941.32
556.16	28395.38
556.33	27936.63
556.50	27910.89
556.66	28414.10
556.83	28060.68
556.99	28402.40
557.16	28699.65
557.32	28121.54
557.49	28034.94
557.65	27943.66
557.82	27828.97
557.98	28107.49
558.15	28383.68
558.32	28542.83
558.48	28182.39
558.65	28292.40
558.81	28163.67
558.98	28538.15
559.14	28196.43
559.31	28367.29
559.47	28086.43
559.64	28287.71
559.80	28414.10
559.97	28664.54
560.13	28393.04
560.30	28568.58
560.46	28678.58
560.63	28156.64
560.79	28793.27
560.96	28535.81
561.12	28404.74
561.29	28479.64
561.45	28582.62
561.61	28599.01
561.78	28872.85
561.94	28957.11
562.11	28706.67
562.27	28833.06
562.44	28727.74
562.60	28355.59
562.77	28811.99
562.93	28680.92
563.10	28755.82
563.26	28346.23
563.42	28936.04
563.59	28968.81
563.75	28671.56
563.92	29235.63
564.08	28613.05
564.24	28622.41
564.41	28570.92
564.57	28709.01
564.74	28753.48
564.90	28556.88
565.07	28849.44
565.23	29053.07
565.39	29046.05
565.56	29357.34
565.72	28919.66
565.88	29130.31
566.05	28706.67
566.21	29188.82
566.38	28823.70
566.54	28912.64
566.70	29172.44
566.87	29355.00
567.03	28854.12
567.19	29371.38
567.36	29188.82
567.52	28954.77
567.68	28996.90
567.85	29123.29
568.01	29242.65
568.17	29036.69
568.34	29359.68
568.50	29097.54
568.66	29116.26
568.83	29387.77
568.99	29259.04
569.15	29053.07
569.32	29071.79
569.48	29266.06
569.64	29514.16
569.81	29376.06
569.97	29624.16
570.13	29371.38
570.30	28914.98
570.46	29076.48
570.62	29394.79
570.78	28819.02
570.95	29027.32
571.11	29003.92
571.27	29146.69
571.43	28994.56
571.60	29125.63
571.76	29233.29
571.92	29530.54
572.09	29310.53
572.25	29567.99
572.41	29312.87
572.57	28992.22
572.74	29638.20
572.90	29326.91
573.06	29343.30
573.22	29055.41
573.38	29436.92
573.55	29214.57
573.71	29715.44
573.87	29500.11
574.03	29392.45
574.20	29771.61
574.36	29408.83
574.52	29912.05
574.68	29170.10
574.84	29404.15
575.01	29343.30
575.17	29394.79
575.33	29364.36
575.49	29799.70
575.65	29771.61
575.82	29338.62
575.98	29315.21
576.14	29219.25
576.30	29387.77
576.46	29474.37
576.62	29195.84
576.79	29628.84
576.95	29460.32
577.11	29727.14
577.27	29722.46
577.43	29757.57
577.59	29598.41
577.75	29432.24
577.92	29429.90
578.08	29535.22
578.24	29509.47
578.40	29916.73
578.56	29289.46
578.72	29317.55
578.88	29507.13
579.04	29982.26
579.21	29495.43
579.37	29401.81
579.53	29701.40
579.69	29523.52
579.85	29518.84
580.01	29310.53
580.17	29062.43
580.33	29537.56
580.49	29560.97
580.65	29146.69
580.82	29954.18
580.98	29713.10
581.14	29614.80
581.30	29738.85
581.46	29233.29
581.62	29289.46
581.78	29397.13
581.94	29617.14
582.10	29617.14
582.26	29483.73
582.42	29778.64
582.58	29670.97
582.74	29837.15
582.90	29759.91
583.06	29649.91
583.22	29895.66
583.38	30043.12
583.54	29603.10
583.70	29575.01
583.86	29598.41
584.02	29516.50
584.18	29804.38
584.34	29813.74
584.50	29825.45
584.66	29682.67
584.82	29408.83
584.98	29802.04
585.14	30015.03
585.30	29198.18
585.46	29504.79
585.62	29607.78
585.78	29654.59
585.94	29621.82
586.10	29895.66
586.26	29998.65
586.42	29844.17
586.58	29687.36
586.74	29706.08
586.90	29317.55
587.06	29544.58
587.22	29881.62
587.38	29851.19
587.54	29841.83
587.70	29888.64
587.86	29633.52
588.02	29867.58
588.18	30169.51
588.34	30024.39
588.49	29869.92
588.65	29692.04
588.81	29563.31
588.97	29823.11
589.13	29600.76
589.29	29862.90
589.45	29867.58
589.61	30022.05
589.77	29909.71
589.93	30113.33
590.08	30501.86
590.24	29963.54
590.40	30258.45
590.56	29942.47
590.72	29982.26
590.88	29951.84
591.04	30101.63
591.20	30209.29
591.35	30174.19
591.51	30192.91
591.67	30094.61
591.83	30176.53
591.99	30167.16
592.15	29802.04
592.31	30213.98
592.46	29972.90
592.62	30118.01
592.78	29699.06
592.94	29993.97
593.10	30188.23
593.26	30054.82
593.41	30008.01
593.57	30284.19
593.73	30146.10
593.89	30181.21
594.05	29839.49
594.20	30228.02
594.36	29933.11
594.52	29823.11
594.68	29731.83
594.84	29944.81
594.99	30199.93
595.15	29872.26
595.31	30211.64
595.47	30199.93
595.62	30263.13
595.78	30029.07
595.94	29998.65
596.10	30249.08
596.25	30089.93
596.41	30036.09
596.57	29844.17
596.73	29851.19
596.88	29949.50
597.04	30183.55
597.20	30373.13
597.36	30333.34
597.51	30293.55
597.67	30366.11
597.83	30139.08
597.99	30258.45
598.14	30426.96
598.30	30267.81
598.46	29919.07
598.61	30017.37
598.77	29834.81
598.93	30506.54
599.09	30235.04
599.24	30719.53
599.40	30253.76
599.56	30607.19
599.71	30188.23
599.87	30569.74
600.03	30103.97
600.18	30176.53
600.34	29848.85
600.50	30153.12
600.65	30256.11
600.81	30328.66
600.97	30525.27
601.12	30663.36
601.28	30815.49
601.44	30452.71
601.59	30267.81
601.75	30068.86
601.91	29935.45
602.06	30714.85
602.22	30277.17
602.37	30211.64
602.53	30281.85
602.69	30103.97
602.84	30288.87
603.00	30108.65
603.16	30333.34
603.31	30316.96
603.47	30422.28
603.62	30281.85
603.78	30185.89
603.94	30476.12
604.09	30335.68
604.25	30045.46
604.40	30181.21
604.56	30541.65
604.71	30433.99
604.87	30553.35
605.03	30377.81
605.18	30036.09
605.34	30579.10
605.49	30118.01
605.65	30394.20
605.80	29977.58
605.96	30565.06
606.12	30162.48
606.27	30064.18
606.43	30068.86
606.58	30721.87
606.74	30197.59
606.89	30515.90
607.05	30473.78
607.20	30522.93
607.36	30380.15
607.51	30000.99
607.67	30038.44
607.82	29902.68
607.98	29926.09
608.13	30127.38
608.29	29809.06
608.44	29727.14
608.60	30625.91
608.75	30150.78
608.91	29991.62
609.06	30171.85
609.22	30108.65
609.37	30031.41
609.53	29921.41
609.68	29909.71
609.84	29834.81
609.99	30094.61
610.15	29490.75
610.30	30213.98
610.46	29986.94
610.61	30040.78
610.76	30157.80
610.92	30047.80
611.07	30197.59
611.23	29649.91
611.38	29879.28
611.54	29649.91
611.69	29823.11
611.84	29518.84
612.00	29677.99
612.15	29919.07
612.31	30153.12
612.46	29661.61
612.62	29993.97
612.77	30040.78
612.92	29886.30
613.08	29673.31
613.23	29640.54
613.39	29596.07
613.54	29584.37
613.69	29544.58
613.85	29202.86
614.00	29483.73
614.15	29727.14
614.31	30019.71
614.46	29855.87
614.62	29481.39
614.77	29638.20
614.92	29256.70
615.08	29633.52
615.23	29633.52
615.38	29923.75
615.54	29474.37
615.69	29476.71
615.84	29364.36
616.00	29656.93
616.15	29525.86
616.30	29415.85
616.46	29666.29
616.61	29488.41
616.76	29692.04
616.92	29383.09
617.07	29682.67
617.22	29125.63
617.37	29378.40
617.53	29359.68
617.68	29322.23
617.83	29331.59
617.99	29247.33
618.14	29511.81
618.29	29347.98
618.45	29706.08
618.60	29022.64
618.75	29399.47
618.90	29457.98
619.06	29233.29
619.21	29158.39
619.36	29303.51
619.51	28882.21
619.67	28924.34
619.82	28624.75
619.97	29460.32
620.12	28851.78
620.28	28716.03
620.43	28954.77
620.58	29001.58
620.73	29252.02
620.89	29097.54
621.04	29612.46
621.19	28982.85
621.34	29149.03
621.49	28884.55
621.65	28732.42
621.80	29188.82
621.95	28765.18
622.10	29102.22
622.25	28591.98
622.41	29048.39
622.56	29326.91
622.71	29198.18
622.86	28788.59
623.01	29034.35
623.16	29008.60
623.32	28704.33
623.47	28957.11
623.62	29006.26
623.77	28701.99
623.92	29130.31
624.07	28826.04
624.23	28718.37
624.38	28886.89
624.53	28931.36
624.68	28687.95
624.83	28865.83
624.98	28676.24
625.13	28603.69
625.29	28568.58
625.44	28524.11
625.59	28533.47
625.74	28723.05
625.89	28393.04
626.04	28533.47
626.19	28189.41
626.34	28381.34
626.49	28540.49
626.65	28559.22
626.80	28463.25
626.95	28105.15
627.10	28247.93
627.25	28409.42
627.40	28477.30
627.55	27992.81
627.70	27985.79
627.85	27875.78
628.00	28233.88
628.15	28126.22
628.30	28350.91
628.45	28184.73
628.60	28074.73
628.76	28290.06
628.91	28074.73
629.06	28184.73
629.21	28053.66
629.36	28208.14
629.51	28276.01
629.66	28381.34
629.81	28023.23
629.96	27868.76
630.11	27906.21
630.26	28161.33
630.41	27651.09
630.56	27992.81
630.71	27819.61
630.86	27924.93
631.01	28261.97
631.16	27943.66
631.31	28006.85
631.46	27342.14
631.61	28280.69
631.76	28023.23
631.91	27758.75
632.06	27517.68
632.21	27501.29
632.36	27957.70
632.51	27751.73
632.66	27824.29
632.81	27758.75
632.96	27754.07
633.10	27749.39
633.25	27548.11
633.40	27955.36
633.55	27618.32
633.70	27508.32
633.85	27543.42
634.00	27461.51
634.15	27634.71
634.30	27466.19
634.45	27309.37
634.60	27494.27
634.75	27438.10
634.90	27517.68
635.05	27644.07
635.19	27410.01
635.34	27583.21
635.49	27505.98
635.64	27208.73
635.79	27632.36
635.94	27445.12
636.09	27508.32
636.24	27178.30
636.39	27051.91
636.53	27510.66
636.68	27295.33
636.83	27316.39
636.98	27035.53
637.13	27204.05
637.28	27115.11
637.43	27367.88
637.57	27072.98
637.72	27321.07
637.87	27360.86
638.02	26925.52
638.17	27269.58
638.32	27005.10
638.46	26707.85
638.61	27122.13
638.76	27145.53
638.91	27082.34
639.06	26710.19
639.20	27014.46
639.35	26930.20
639.50	27190.00
639.65	27080.00
639.80	27007.44
639.94	27009.78
640.09	26960.63
640.24	27054.25
640.39	27182.98
640.54	26794.45
640.68	26780.41
640.83	26834.24
640.98	26630.62
641.13	26658.70
641.27	26656.36
641.42	26583.80
641.57	26890.41
641.72	26721.90
641.86	26775.73
642.01	26614.23
642.16	26806.16
642.31	26485.50
642.45	26464.44
642.60	26450.39
642.75	26150.81
642.90	26565.08
643.04	26338.05
643.19	26642.32
643.34	26677.43
643.48	26476.14
643.63	26260.81
643.78	26202.30
643.93	26637.64
644.07	26635.30
644.22	26635.30
644.37	26579.12
644.51	26277.19
644.66	26668.06
644.81	26487.84
644.95	26019.74
645.10	26008.03
645.25	26536.99
645.39	26457.42
645.54	26513.59
645.69	26309.96
645.83	26293.58
645.98	26120.38
646.13	26174.21
646.27	26223.36
646.42	25977.61
646.57	26218.68
646.71	26560.40
646.86	26162.51
647.00	25916.75
647.15	26176.55
647.30	25942.50
647.44	25935.48
647.59	26457.42
647.74	26031.44
647.88	25942.50
648.03	25851.22
648.17	26295.92
648.32	26326.35
648.47	25928.45
648.61	25928.45
648.76	25965.90
648.90	26052.50
649.05	26125.06
649.20	25713.13
649.34	25645.25
649.49	25586.74
649.63	25865.26
649.78	25869.94
649.92	25546.95
650.07	25734.19
650.21	25502.48
650.36	25708.44
650.51	25413.54
650.65	25790.36
650.80	25560.99
650.94	25865.26
651.09	25488.43
651.23	25766.96
651.38	25708.44
651.52	25713.13
651.67	25528.22
651.81	25755.26
651.96	25495.46
652.10	25553.97
652.25	25474.39
652.39	25607.80
652.54	25427.58
652.68	25748.23
652.83	25671.00
652.97	25715.47
653.12	25500.14
653.26	25572.69
653.41	25692.06
653.55	25034.37
653.70	25502.48
653.84	25570.35
653.99	25146.72
654.13	25296.51
654.27	25032.03
654.42	25263.74
654.56	25357.36
654.71	25104.59
654.85	25137.35
655.00	25465.03
655.14	25111.61
655.29	25216.93
655.43	25432.26
655.57	25170.12
655.72	25125.65
655.86	25371.41
656.01	24877.55
656.15	24858.83
656.30	25165.44
656.44	24989.90
656.58	24933.73
656.73	24992.24
656.87	24849.47
657.01	25013.31
657.16	24826.06
657.30	24933.73
657.45	24943.09
657.59	24905.64
657.73	24919.68
657.88	24566.26
658.02	24741.80
658.16	24662.22
658.31	24680.95
658.45	24889.26
658.60	24479.66
658.74	24690.31
658.88	24374.34
659.03	24372.00
659.17	24664.57
659.31	25067.14
659.46	24690.31
659.60	24631.80
659.74	24697.33
659.89	24322.85
660.03	24496.05
660.17	24343.91
660.32	24006.87
660.46	24306.46
660.60	24257.31
660.74	24123.90
660.89	24301.78
661.03	24376.68
661.17	24254.97
661.32	24151.99
661.46	24325.19
661.60	24107.52
661.74	24233.91
661.89	24201.14
662.03	24025.60
662.17	24100.50
662.31	23452.17
662.46	23976.45
662.60	24184.76
662.74	24095.82
662.88	23730.69
663.03	23721.33
663.17	24072.41
663.31	23690.90
663.45	23491.96
663.60	23859.42
663.74	23821.97
663.88	23498.98
664.02	24044.32
664.17	23779.84
664.31	23613.66
664.45	23370.25
664.59	23651.11
664.73	23421.74
664.88	23417.06
665.02	23058.96
665.16	23372.59
665.30	23089.38
665.44	23222.80
665.59	23396.00
665.73	22836.61
665.87	23147.90
666.01	22918.53
666.15	23110.45
666.29	23314.08
666.44	23211.09
666.58	23290.67
666.72	22611.92
666.86	23187.69
667.00	23096.41
667.14	23154.92
667.28	22920.87
667.43	22721.92
667.57	22466.80
667.71	22789.80
667.85	23199.39
667.99	22707.88
668.13	22742.99
668.27	22656.39
668.41	22611.92
668.56	22637.66
668.70	22810.86
668.84	22480.85
668.98	22595.53
669.12	22775.75
669.26	22785.12
669.40	22391.91
669.54	22188.28
669.68	22148.49
669.82	22450.42
669.96	22312.33
670.10	21907.41
670.25	22185.94
670.39	22178.92
670.53	22284.24
670.67	21947.20
670.81	22157.85
670.95	22256.15
671.09	21830.18
671.23	22230.41
671.37	22061.89
671.51	22080.61
671.65	21692.08
671.79	21708.47
671.93	21720.17
672.07	21633.57
672.21	21617.19
672.35	21551.65
672.49	21249.72
672.63	21724.85
672.77	21415.90
672.91	21717.83
673.05	21593.78
673.19	21432.29
673.33	21383.13
673.47	21202.91
673.61	21596.12
673.75	21296.53
673.89	21563.36
674.03	21341.00
674.17	21137.38
674.31	21207.59
674.45	21078.86
674.59	20863.54
674.73	21156.10
674.87	20856.51
675.01	20664.59
675.15	20524.16
675.29	20826.09
675.43	20472.67
675.56	20629.48
675.70	20512.46
675.84	20669.27
675.98	20072.43
676.12	20556.93
676.26	20762.89
676.40	20463.30
676.54	20460.96
676.68	20182.44
676.82	19985.83
676.96	20067.75
677.10	20327.55
677.23	20084.14
677.37	20093.50
677.51	19936.68
677.65	19920.30
677.79	19791.57
677.93	19833.70
678.07	19634.75
678.21	19442.83
678.34	19599.65
678.48	19463.90
678.62	19875.83
678.76	19248.57
678.90	19470.92
679.04	19700.29
679.18	19344.53
679.31	19274.31
679.45	19082.39
679.59	18948.98
679.73	18860.04
679.87	18934.93
680.00	18822.59
680.14	18834.29
680.28	19094.09
680.42	18972.38
680.56	18740.67
680.70	18862.38
680.83	18953.66
680.97	18424.70
681.11	18719.60
681.25	18485.55
681.39	18452.78
681.52	18209.37
681.66	18099.36
681.80	18202.35
681.94	18015.10
682.07	18228.09
682.21	18249.16
682.35	17472.10
682.49	17727.22
682.62	18040.85
682.76	17738.92
682.90	17755.30
683.04	17862.97
683.17	17717.86
683.31	17710.83
683.45	17731.90
683.59	17759.98
683.72	17558.70
683.86	17556.36
684.00	17521.25
684.13	17654.66
684.27	17144.42
684.41	17221.66
684.55	17312.94
684.68	17193.58
684.82	16957.18
684.96	17235.70
685.09	17034.42
685.23	16664.61
685.37	17062.51
685.50	16982.93
685.64	16975.91
685.78	16861.22
685.91	16666.95
686.05	16734.83
686.19	16556.95
686.32	16856.54
686.46	16486.73
686.60	16224.59
686.73	16266.72
686.87	16285.45
687.01	16252.68
687.14	16355.66
687.28	15971.82
687.42	16002.24
687.55	16042.03
687.69	15843.09
687.82	16142.67
687.96	15826.70
688.10	15960.11
688.23	16264.38
688.37	15929.69
688.50	15655.84
688.64	15910.96
688.78	15452.22
688.91	15632.44
689.05	15695.63
689.18	15786.91
689.32	15080.07
689.46	15456.90
689.59	15213.48
689.73	15129.22
689.86	15150.29
690.00	15035.60
690.13	14998.15
690.27	15077.73
690.41	15197.10
690.54	15094.11
690.68	14906.87
690.81	15316.47
690.95	14628.35
691.08	14843.68
691.22	14757.08
691.35	14635.37
691.49	14785.16
691.62	14600.26
691.76	14417.70
691.89	14452.81
692.03	14324.08
692.16	14340.46
692.30	14260.88
692.43	14258.54
692.57	14256.20
692.70	14127.47
692.84	13935.55
692.97	14022.15
693.11	13989.38
693.24	14001.08
693.38	13802.14
693.51	13839.59
693.65	13736.60
693.78	13509.57
693.92	13497.87
694.05	13626.60
694.19	13303.60
694.32	13387.86
694.45	13362.12
694.59	13380.84
694.72	13209.98
694.86	13092.96
694.99	12996.99
695.13	13270.84
695.26	13043.81
695.39	12723.15
695.53	13212.32
695.66	12915.08
695.80	12943.16
695.93	12926.78
696.07	13137.43
696.20	12943.16
696.33	12716.13
696.47	12521.87
696.60	12678.68
696.73	12638.89
696.87	12510.16
697.00	12503.14
697.14	12421.22
697.27	12100.57
697.40	12404.84
697.54	12248.02
697.67	12442.29
697.80	12334.62
697.94	11882.90
698.07	11981.20
698.21	11995.25
698.34	11964.82
698.47	12063.12
698.61	11885.24
698.74	12063.12
698.87	12056.10
699.01	11662.89
699.14	11733.11
699.27	11690.98
699.40	11632.46
699.54	11637.14
699.67	11634.80
699.80	11679.27
699.94	11309.47
700.07	11307.13
700.20	11159.67
700.34	10925.62
700.47	11248.61
700.60	11068.39
700.73	11150.31
700.87	11037.97
701.00	10939.66
701.13	11147.97
701.26	11026.26
701.40	11075.42
701.53	10977.11
701.66	10967.75
701.79	10771.15
701.93	10871.79
702.06	10621.35
702.19	10698.59
702.32	10319.42
702.46	10286.65
702.59	10370.91
702.72	10457.51
702.85	10356.87
702.99	10099.41
703.12	10141.54
703.25	10090.05
703.38	10171.97
703.51	10080.69
703.65	10195.37
703.78	10214.10
703.91	10190.69
704.04	10298.36
704.17	9996.43
704.31	10024.51
704.44	9785.78
704.57	9895.78
704.70	9724.93
704.83	9570.45
704.96	9741.31
705.10	9614.92
705.23	9535.34
>>>>>End Processed Spectral Data<<<<<
