SpectraSuite Data File
++++++++++++++++++++++++++++++++++++
Date: Fri Oct 18 13:58:16 GMT-05:00 2013
User: bianchi
Dark Spectrum Present: No
Reference Spectrum Present: No
Number of Sampled Component Spectra: 1
Spectrometers: USB2+H05261
Integration Time (usec): 50000 (USB2+H05261)
Spectra Averaged: 1 (USB2+H05261)
Boxcar Smoothing: 0 (USB2+H05261)
Correct for Electrical Dark: No (USB2+H05261)
Strobe/Lamp Enabled: No (USB2+H05261)
Correct for Detector Non-linearity: No (USB2+H05261)
Correct for Stray Light: No (USB2+H05261)
Number of Pixels in Processed Spectrum: 2048
>>>>>Begin Processed Spectral Data<<<<<
365.73	0.00
365.92	0.00
366.12	0.00
366.32	0.00
366.52	0.00
366.72	0.00
366.91	0.00
367.11	0.00
367.31	0.00
367.51	0.00
367.70	0.00
367.90	0.00
368.10	0.00
368.30	0.00
368.49	0.00
368.69	0.00
368.89	0.00
369.09	0.00
369.28	0.00
369.48	0.00
369.68	0.00
369.87	0.00
370.07	0.00
370.27	0.00
370.47	0.00
370.66	63.19
370.86	119.37
371.06	175.54
371.25	170.86
371.45	196.60
371.65	152.13
371.84	117.03
372.04	110.01
372.24	159.16
372.44	170.86
372.63	156.82
372.83	187.24
373.03	173.20
373.22	166.18
373.42	234.05
373.62	177.88
373.81	229.37
374.01	191.92
374.21	262.14
374.40	180.22
374.60	264.48
374.79	175.54
374.99	201.29
375.19	222.35
375.38	231.71
375.58	231.71
375.78	217.67
375.97	212.99
376.17	297.25
376.37	177.88
376.56	287.89
376.76	224.69
376.95	290.23
377.15	327.68
377.35	278.52
377.54	318.31
377.74	332.36
377.93	255.12
378.13	278.52
378.33	308.95
378.52	234.05
378.72	313.63
378.91	304.27
379.11	285.55
379.31	355.76
379.50	374.49
379.70	320.65
379.89	234.05
380.09	320.65
380.28	262.14
380.48	306.61
380.68	379.17
380.87	297.25
381.07	355.76
381.26	339.38
381.46	351.08
381.65	304.27
381.85	372.15
382.04	327.68
382.24	327.68
382.43	313.63
382.63	402.57
382.83	355.76
383.02	367.46
383.22	358.10
383.41	334.70
383.61	379.17
383.80	388.53
384.00	383.85
384.19	425.98
384.39	407.25
384.58	383.85
384.78	287.89
384.97	404.91
385.17	395.55
385.36	409.59
385.56	397.89
385.75	372.15
385.95	346.40
386.14	334.70
386.34	390.87
386.53	355.76
386.72	374.49
386.92	489.17
387.11	404.91
387.31	470.45
387.50	290.23
387.70	388.53
387.89	414.27
388.09	500.87
388.28	451.72
388.48	500.87
388.67	521.94
388.86	507.90
389.06	512.58
389.25	468.11
389.45	416.62
389.64	444.70
389.84	444.70
390.03	461.09
390.22	437.68
390.42	447.04
390.61	435.34
390.81	531.30
391.00	491.51
391.19	526.62
391.39	552.37
391.58	566.41
391.78	468.11
391.97	540.66
392.16	514.92
392.36	500.87
392.55	461.09
392.75	503.22
392.94	526.62
393.13	531.30
393.33	585.13
393.52	498.53
393.71	475.13
393.91	484.49
394.10	528.96
394.29	545.34
394.49	545.34
394.68	575.77
394.88	575.77
395.07	568.75
395.26	636.63
395.46	636.63
395.65	650.67
395.84	543.00
396.04	599.18
396.23	657.69
396.42	674.07
396.62	564.07
396.81	664.71
397.00	716.20
397.19	662.37
397.39	641.31
397.58	690.46
397.77	645.99
397.97	683.44
398.16	578.11
398.35	641.31
398.55	713.86
398.74	615.56
398.93	704.50
399.12	709.18
399.32	690.46
399.51	765.36
399.70	777.06
399.90	692.80
400.09	734.93
400.28	802.80
400.47	753.65
400.67	786.42
400.86	866.00
401.05	781.74
401.24	826.21
401.44	812.17
401.63	751.31
401.82	830.89
402.01	814.51
402.21	861.32
402.40	793.44
402.59	788.76
402.78	777.06
402.97	866.00
403.17	795.78
403.36	873.02
403.55	889.40
403.74	823.87
403.93	971.32
404.13	931.53
404.32	919.83
404.51	903.45
404.70	919.83
404.89	898.77
405.09	936.21
405.28	917.49
405.47	903.45
405.66	908.13
405.85	1036.86
406.05	978.34
406.24	947.92
406.43	1025.15
406.62	992.39
406.81	1036.86
407.00	1076.65
407.20	992.39
407.39	985.37
407.58	1015.79
407.77	1081.33
407.96	1067.28
408.15	1093.03
408.34	964.30
408.54	1090.69
408.73	1137.50
408.92	1081.33
409.11	1071.97
409.30	1130.48
409.49	1125.80
409.68	1184.31
409.87	1160.91
410.07	1109.41
410.26	1224.10
410.45	1090.69
410.64	1217.08
410.83	1245.16
411.02	1109.41
411.21	1221.76
411.40	1296.66
411.59	1277.93
411.78	1200.69
411.98	1280.27
412.17	1212.40
412.36	1280.27
412.55	1401.98
412.74	1343.47
412.93	1451.13
413.12	1336.45
413.31	1392.62
413.50	1394.96
413.69	1458.15
413.88	1397.30
414.07	1315.38
414.26	1432.41
414.45	1465.18
414.64	1537.73
414.83	1521.35
415.02	1486.24
415.22	1467.52
415.41	1551.78
415.60	1493.26
415.79	1598.59
415.98	1647.74
416.17	1612.63
416.36	1486.24
416.55	1598.59
416.74	1626.67
416.93	1605.61
417.12	1696.89
417.31	1614.97
417.50	1675.82
417.69	1720.29
417.88	1729.66
418.07	1699.23
418.26	1671.14
418.45	1739.02
418.64	1825.62
418.83	1802.21
419.02	1865.41
419.21	1816.26
419.39	1739.02
419.58	1729.66
419.77	1802.21
419.96	1762.42
420.15	1858.39
420.34	1832.64
420.53	1977.75
420.72	1858.39
420.91	1970.73
421.10	1905.20
421.29	2010.52
421.48	1916.90
421.67	1989.46
421.86	1968.39
422.05	1790.51
422.24	1909.88
422.43	1996.48
422.61	1989.46
422.80	1977.75
422.99	2022.22
423.18	1912.22
423.37	1998.82
423.56	1963.71
423.75	1998.82
423.94	2017.54
424.13	1884.13
424.32	2001.16
424.50	2125.21
424.69	1996.48
424.88	2153.29
425.07	1970.73
425.26	2066.69
425.45	2022.22
425.64	2024.56
425.83	1963.71
426.01	1989.46
426.20	1952.01
426.39	2047.97
426.58	1989.46
426.77	2054.99
426.96	2047.97
427.15	1966.05
427.33	2026.90
427.52	2150.95
427.71	2106.48
427.90	2104.14
428.09	2160.31
428.28	2181.38
428.46	2223.51
428.65	2172.02
428.84	2228.19
429.03	2328.83
429.22	2150.95
429.40	2209.47
429.59	2232.87
429.78	2207.13
429.97	2132.23
430.16	2172.02
430.34	2256.28
430.53	2279.68
430.72	2312.45
430.91	2373.30
431.10	2420.11
431.28	2373.30
431.47	2317.13
431.66	2246.91
431.85	2354.58
432.03	2427.14
432.22	2347.56
432.41	2429.48
432.60	2569.91
432.79	2450.54
432.97	2473.95
433.16	2377.98
433.35	2375.64
433.54	2420.11
433.72	2487.99
433.91	2370.96
434.10	2490.33
434.28	2555.86
434.47	2649.49
434.66	2588.63
434.85	2562.89
435.03	2478.63
435.22	2658.85
435.41	2534.80
435.59	2670.55
435.78	2619.06
435.97	2651.83
436.16	2651.83
436.34	2644.81
436.53	2647.15
436.72	2747.79
436.90	2682.25
437.09	2801.62
437.28	2668.21
437.46	2569.91
437.65	2752.47
437.84	2813.32
438.02	2841.41
438.21	2700.98
438.40	2740.77
438.58	2839.07
438.77	2904.60
438.96	2860.13
439.14	2923.33
439.33	2860.13
439.52	2855.45
439.70	2923.33
439.89	3009.93
440.08	3040.36
440.26	3117.59
440.45	2925.67
440.63	3059.08
440.82	3112.91
441.01	3117.59
441.19	3143.34
441.38	3220.58
441.57	3258.03
441.75	3178.45
441.94	3286.11
442.12	3260.37
442.31	3185.47
442.50	3286.11
442.68	3251.00
442.87	3187.81
443.05	3419.52
443.24	3517.83
443.43	3375.05
443.61	3372.71
443.80	3522.51
443.98	3365.69
444.17	3185.47
444.35	3410.16
444.54	3581.02
444.73	3400.80
444.91	3379.73
445.10	3478.04
445.28	3494.42
445.47	3454.63
445.65	3410.16
445.84	3494.42
446.02	3449.95
446.21	3492.08
446.39	3487.40
446.58	3468.67
446.77	3508.46
446.95	3480.38
447.14	3398.46
447.32	3478.04
447.51	3461.65
447.69	3461.65
447.88	3576.34
448.06	3358.67
448.25	3522.51
448.43	3557.61
448.62	3590.38
448.80	3564.64
448.99	3613.79
449.17	3510.80
449.36	3630.17
449.54	3653.58
449.73	3541.23
449.91	3583.36
450.10	3730.81
450.28	3798.69
450.46	3674.64
450.65	3749.54
450.83	3747.20
451.02	3742.52
451.20	3742.52
451.39	3782.31
451.57	3854.86
451.76	3761.24
451.94	3836.14
452.13	3906.35
452.31	3927.42
452.49	3901.67
452.68	3801.03
452.86	3829.12
453.05	3843.16
453.23	3880.61
453.42	3794.01
453.60	3836.14
453.78	3913.38
453.97	3812.73
454.15	3838.48
454.34	3847.84
454.52	4173.18
454.70	4035.08
454.89	3962.53
455.07	3974.23
455.26	4074.87
455.44	3932.10
455.62	3950.82
455.81	4032.74
455.99	4117.00
456.17	4044.45
456.36	4124.02
456.54	4117.00
456.73	4287.86
456.91	4423.61
457.09	4264.46
457.28	4276.16
457.46	4168.49
457.64	4402.55
457.83	4271.48
458.01	4271.48
458.19	4290.20
458.38	4187.22
458.56	4421.27
458.74	4498.51
458.93	4465.74
459.11	4402.55
459.29	4461.06
459.48	4409.57
459.66	4456.38
459.84	4517.23
460.03	4589.79
460.21	4428.29
460.39	4524.26
460.57	4454.04
460.76	4688.09
460.94	4716.18
461.12	4568.73
461.31	4514.89
461.49	4613.20
461.67	4456.38
461.85	4917.47
462.04	4669.37
462.22	4917.47
462.40	4891.72
462.59	4882.36
462.77	4681.07
462.95	4823.84
463.13	4690.43
463.32	4755.97
463.50	4830.87
463.68	4711.50
463.86	4793.42
464.05	4868.31
464.23	4849.59
464.41	4774.69
464.59	4774.69
464.78	4901.08
464.96	4863.63
465.14	4882.36
465.32	4973.64
465.50	5083.64
465.69	4992.36
465.87	5018.11
466.05	5097.69
466.23	4940.87
466.41	4968.96
466.60	5160.88
466.78	5078.96
466.96	5067.26
467.14	5062.58
467.32	5057.90
467.51	5179.61
467.69	5097.69
467.87	5090.67
468.05	5177.26
468.23	5142.16
468.41	5205.35
468.60	5102.37
468.78	5261.52
468.96	5048.54
469.14	5249.82
469.32	5207.69
469.50	5254.50
469.69	5296.63
469.87	5406.64
470.05	5507.28
470.23	5394.93
470.41	5348.12
470.59	5458.13
470.77	5401.96
470.95	5528.35
471.14	5448.77
471.32	5350.46
471.50	5671.12
471.68	5720.27
471.86	5701.54
472.04	5685.16
472.22	5715.59
472.40	5612.60
472.58	5685.16
472.77	5671.12
472.95	5774.10
473.13	5839.64
473.31	5926.24
473.49	5692.18
473.67	5774.10
473.85	5834.96
474.03	5980.07
474.21	5933.26
474.39	6047.94
474.57	6183.70
474.75	6066.67
474.93	6073.69
475.12	6087.73
475.30	6242.21
475.48	6267.95
475.66	6246.89
475.84	6396.68
476.02	6251.57
476.20	6359.24
476.38	6282.00
476.56	6523.07
476.74	6635.42
476.92	6560.52
477.10	6516.05
477.28	6668.19
477.46	6696.27
477.64	6846.07
477.82	6773.51
478.00	7002.88
478.18	6935.01
478.36	7126.93
478.54	7033.31
478.72	6918.62
478.90	7246.30
479.08	7101.19
479.26	7157.36
479.44	7164.38
479.62	7119.91
479.80	7410.14
479.98	7307.15
480.16	7475.67
480.34	7503.76
480.52	7524.82
480.70	7777.60
480.88	7557.59
481.06	7838.45
481.24	7878.24
481.41	7889.95
481.59	7840.79
481.77	8077.19
481.95	7995.27
482.13	8112.30
482.31	7969.52
482.49	8154.43
482.67	8222.30
482.85	8362.73
483.03	8442.31
483.21	8552.32
483.39	8287.84
483.57	8365.07
483.74	8678.71
483.92	8919.78
484.10	8732.54
484.28	8805.10
484.46	9041.49
484.64	9221.71
484.82	9022.77
485.00	9130.43
485.18	9284.91
485.35	9446.40
485.53	9371.50
485.71	9451.08
485.89	9533.00
486.07	9284.91
486.25	9530.66
486.43	9589.17
486.61	9783.44
486.78	9942.60
486.96	9848.97
487.14	10157.92
487.32	10033.88
487.50	10244.52
487.68	10155.58
487.85	10099.41
488.03	10420.06
488.21	10391.98
488.39	10368.57
488.57	10764.12
488.75	10747.74
488.92	10806.25
489.10	10853.06
489.28	10888.17
489.46	10918.60
489.64	11124.57
489.81	11311.81
489.99	11194.78
490.17	11438.20
490.35	11534.16
490.53	11281.38
490.70	11618.42
490.88	11604.38
491.06	11786.94
491.24	11667.57
491.41	11688.64
491.59	11864.18
491.77	11852.47
491.95	12002.27
492.13	12168.45
492.30	12084.19
492.48	12269.09
492.66	12395.48
492.84	12018.65
493.01	12334.62
493.19	12343.99
493.37	12725.49
493.54	12762.94
493.72	12889.33
493.90	12725.49
494.08	13144.45
494.25	12856.56
494.43	13069.55
494.61	13184.24
494.79	13476.80
494.96	13359.78
495.14	13245.09
495.32	13352.76
495.49	13600.85
495.67	13422.97
495.85	13825.54
496.02	13612.56
496.20	13710.86
496.38	13940.23
496.55	13844.27
496.73	13926.19
496.91	13994.06
497.09	14225.78
497.26	14401.32
497.44	14057.26
497.62	14090.02
497.79	14518.34
497.97	14366.21
498.14	14635.37
498.32	14745.38
498.50	14670.48
498.67	15115.18
498.85	14696.22
499.03	14640.05
499.20	14998.15
499.38	15002.83
499.56	15075.39
499.73	15300.08
499.91	15314.13
500.08	15421.79
500.26	15012.20
500.44	15173.69
500.61	15374.98
500.79	15503.71
500.97	15576.27
501.14	15999.90
501.32	15719.04
501.49	15749.46
501.67	15644.14
501.84	15777.55
502.02	15882.88
502.20	16145.02
502.37	16147.36
502.55	15925.00
502.72	16156.72
502.90	16315.87
503.07	16240.98
503.25	16255.02
503.43	16287.79
503.60	16444.60
503.78	16610.78
503.95	16409.50
504.13	16650.57
504.30	16601.42
504.48	16662.27
504.65	16704.40
504.83	16856.54
505.01	17121.02
505.18	16985.27
505.36	17043.78
505.53	16973.56
505.71	16891.65
505.88	17118.68
506.06	17006.33
506.23	17193.58
506.41	17177.19
506.58	17434.65
506.76	17315.28
506.93	17626.57
507.11	17245.07
507.28	17350.39
507.46	17523.59
507.63	17474.44
507.81	17881.69
507.98	17610.19
508.16	18019.78
508.33	17930.84
508.50	17905.10
508.68	18115.75
508.85	17792.75
509.03	17853.61
509.20	18136.81
509.38	18604.92
509.55	18391.93
509.73	18377.89
509.90	18415.34
510.08	18281.92
510.25	18249.16
510.42	18064.25
510.60	18562.79
510.77	18611.94
510.95	18595.56
511.12	18452.78
511.30	18396.61
511.47	18827.27
511.64	18977.06
511.82	19283.67
511.99	19061.32
512.17	19150.26
512.34	18977.06
512.51	19068.34
512.69	19264.95
512.86	19068.34
513.04	19183.03
513.21	18993.45
513.38	19421.77
513.56	19489.64
513.73	19365.59
513.90	19461.55
514.08	19426.45
514.25	19513.05
514.43	19604.33
514.60	19946.05
514.77	19709.65
514.95	19985.83
515.12	19592.62
515.29	19892.21
515.47	19929.66
515.64	19985.83
515.81	19714.33
515.99	19716.67
516.16	20034.99
516.33	20159.03
516.51	20322.87
516.68	20088.82
516.85	20360.32
517.03	20542.88
517.20	20479.69
517.37	20634.16
517.54	20776.94
517.72	20563.95
517.89	20809.70
518.06	20741.83
518.24	20400.11
518.41	20627.14
518.58	20638.84
518.75	20779.28
518.93	20716.08
519.10	20833.11
519.27	20840.13
519.45	21057.80
519.62	21081.21
519.79	21116.31
519.96	21053.12
520.14	21324.62
520.31	20994.61
520.48	21301.22
520.65	21177.17
520.83	21165.46
521.00	21350.37
521.17	21322.28
521.34	21245.04
521.52	21324.62
521.69	21605.49
521.86	21633.57
522.03	21818.47
522.20	21652.30
522.38	21654.64
522.55	21954.22
522.72	21912.10
522.89	21699.11
523.07	22139.13
523.24	21947.20
523.41	21799.75
523.58	21568.04
523.75	22047.85
523.92	21986.99
524.10	22258.49
524.27	21865.28
524.44	22518.29
524.61	22321.69
524.78	22616.60
524.96	22265.52
525.13	22183.60
525.30	22284.24
525.47	22319.35
525.64	22389.56
525.81	22415.31
525.98	22672.77
526.16	22679.79
526.33	22909.16
526.50	22958.31
526.67	22623.62
526.84	22712.56
527.01	22696.17
527.18	22745.33
527.36	22920.87
527.53	23173.64
527.70	23234.50
527.87	23234.50
528.04	23009.81
528.21	23054.28
528.38	23122.15
528.55	22995.76
528.72	23304.71
528.89	23604.30
529.07	23318.76
529.24	23253.22
529.41	23573.88
529.58	23342.16
529.75	23637.07
529.92	23321.10
530.09	23293.01
530.26	23194.71
530.43	23726.01
530.60	23335.14
530.77	23674.52
530.94	23707.29
531.11	23548.13
531.28	23541.11
531.46	23487.28
531.63	23999.85
531.80	23814.95
531.97	23878.15
532.14	23934.32
532.31	24140.29
532.48	24027.94
532.65	24084.11
532.82	23637.07
532.99	24060.71
533.16	23850.06
533.33	24194.12
533.50	24652.86
533.67	24496.05
533.84	24210.50
534.01	24142.63
534.18	24362.64
534.35	24730.10
534.52	24322.85
534.69	24540.52
534.86	24889.26
535.03	24540.52
535.20	24580.31
535.37	24648.18
535.54	24650.52
535.71	24336.89
535.88	24793.29
536.05	24596.69
536.22	24570.94
536.38	24975.86
536.55	24727.76
536.72	24727.76
536.89	24922.02
537.06	24959.47
537.23	25205.23
537.40	24879.89
537.57	24893.94
537.74	24884.58
537.91	25303.53
538.08	24971.18
538.25	25144.38
538.42	25226.29
538.59	25074.16
538.75	25242.68
538.92	25139.69
539.09	25242.68
539.26	25333.96
539.43	25699.08
539.60	25659.29
539.77	25235.66
539.94	25720.15
540.11	25703.76
540.28	25502.48
540.44	25481.41
540.61	25479.07
540.78	25455.67
540.95	25795.04
541.12	25654.61
541.29	25785.68
541.46	25839.51
541.62	25614.82
541.79	25656.95
541.96	25923.77
542.13	25717.81
542.30	25729.51
542.47	25898.03
542.63	25834.83
542.80	25881.64
542.97	26340.39
543.14	26441.03
543.31	26298.26
543.48	25926.11
543.64	26401.24
543.81	26356.77
543.98	26129.74
544.15	26841.26
544.32	26457.42
544.48	26899.78
544.65	26251.45
544.82	26462.10
544.99	26361.45
545.16	26384.86
545.32	26593.17
545.49	26925.52
545.66	26642.32
545.83	26757.00
546.00	26878.71
546.16	26525.29
546.33	26527.63
546.50	26478.48
546.67	26581.46
546.83	26520.61
547.00	26904.46
547.17	26593.17
547.34	26553.38
547.50	26991.06
547.67	27166.60
547.84	26677.43
548.00	27084.68
548.17	27089.36
548.34	27225.11
548.51	27351.50
548.67	27229.79
548.84	27087.02
549.01	27103.40
549.18	27112.77
549.34	27159.58
549.51	26867.01
549.68	27145.53
549.84	27236.81
550.01	27264.90
550.18	27281.28
550.34	27377.25
550.51	27445.12
550.68	27536.40
550.84	27323.41
551.01	27278.94
551.18	27257.88
551.34	27363.20
551.51	27339.80
551.68	27330.44
551.84	27541.08
552.01	27843.01
552.18	27800.88
552.34	27772.80
552.51	28121.54
552.68	27637.05
552.84	27718.96
553.01	27597.26
553.18	27969.40
553.34	27854.72
553.51	27896.85
553.67	28023.23
553.84	28133.24
554.01	28020.89
554.17	27988.13
554.34	27688.54
554.51	27810.25
554.67	27931.95
554.84	27981.10
555.00	28168.35
555.17	27763.43
555.33	28048.98
555.50	28301.76
555.67	28180.05
555.83	28257.29
556.00	28177.71
556.16	28325.16
556.33	28276.01
556.50	28112.17
556.66	28173.03
556.83	27969.40
556.99	28355.59
557.16	28692.63
557.32	28158.99
557.49	28313.46
557.65	28072.39
557.82	28463.25
557.98	28386.02
558.15	28573.26
558.32	28613.05
558.48	28315.80
558.65	28503.04
558.81	28414.10
558.98	28615.39
559.14	28875.19
559.31	28283.03
559.47	28320.48
559.64	28577.94
559.80	28613.05
559.97	28606.03
560.13	28460.91
560.30	28725.39
560.46	29298.83
560.63	28673.90
560.79	28954.77
560.96	28652.84
561.12	28631.77
561.29	28460.91
561.45	28423.47
561.61	28758.16
561.78	28870.51
561.94	28568.58
562.11	28882.21
562.27	28926.68
562.44	28917.32
562.60	28905.62
562.77	28950.09
562.93	28767.52
563.10	28774.55
563.26	29022.64
563.42	29055.41
563.59	28819.02
563.75	28886.89
563.92	29024.98
564.08	28629.43
564.24	28620.07
564.41	28746.46
564.57	29043.71
564.74	29165.42
564.90	29172.44
565.07	29207.55
565.23	29191.16
565.39	29113.92
565.56	29525.86
565.72	29158.39
565.88	29013.28
566.05	28797.95
566.21	29261.38
566.38	29205.20
566.54	29062.43
566.70	29130.31
566.87	29462.66
567.03	29284.78
567.19	29362.02
567.36	29301.17
567.52	29191.16
567.68	29106.90
567.85	29572.67
568.01	29212.23
568.17	29511.81
568.34	29610.12
568.50	29214.57
568.66	29167.76
568.83	29593.73
568.99	29322.23
569.15	29549.26
569.32	28842.42
569.48	29249.67
569.64	29181.80
569.81	29268.40
569.97	29284.78
570.13	29048.39
570.30	29240.31
570.46	29275.42
570.62	29598.41
570.78	29191.16
570.95	29137.33
571.11	29294.14
571.27	29097.54
571.43	29214.57
571.60	29617.14
571.76	29373.72
571.92	29237.97
572.09	29621.82
572.25	29369.04
572.41	29886.30
572.57	29659.27
572.74	29450.96
572.90	29287.12
573.06	29291.80
573.22	29153.71
573.38	29535.22
573.55	29680.33
573.71	29853.53
573.87	29694.38
574.03	29324.57
574.20	30073.54
574.36	29296.49
574.52	29371.38
574.68	29614.80
574.84	29670.97
575.01	29425.22
575.17	29647.57
575.33	29816.08
575.49	29879.28
575.65	30120.35
575.82	29811.40
575.98	29638.20
576.14	29607.78
576.30	29722.46
576.46	29455.64
576.62	29408.83
576.79	29631.18
576.95	29715.44
577.11	29701.40
577.27	29448.62
577.43	29858.21
577.59	29818.42
577.75	29514.16
577.92	29516.50
578.08	29483.73
578.24	29577.35
578.40	29879.28
578.56	29661.61
578.72	29624.16
578.88	29881.62
579.04	29958.86
579.21	29741.19
579.37	29970.56
579.53	29509.47
579.69	29673.31
579.85	29441.60
580.01	30125.04
580.17	29462.66
580.33	29586.71
580.49	29596.07
580.65	29610.12
580.82	29944.81
580.98	29757.57
581.14	29893.32
581.30	29937.79
581.46	29479.05
581.62	29867.58
581.78	29589.05
581.94	29502.45
582.10	29692.04
582.26	29734.17
582.42	29818.42
582.58	29722.46
582.74	29619.48
582.90	29633.52
583.06	29766.93
583.22	30003.33
583.38	29759.91
583.54	29954.18
583.70	29668.63
583.86	30089.93
584.02	29766.93
584.18	30057.16
584.34	29708.42
584.50	30066.52
584.66	29694.38
584.82	29970.56
584.98	29537.56
585.14	30094.61
585.30	29862.90
585.46	29954.18
585.62	29427.56
585.78	30232.70
585.94	29479.05
586.10	29975.24
586.26	29982.26
586.42	30312.28
586.58	30169.51
586.74	29893.32
586.90	29649.91
587.06	29380.74
587.22	29879.28
587.38	29839.49
587.54	29823.11
587.70	30218.66
587.86	29968.22
588.02	30295.89
588.18	30230.36
588.34	30356.75
588.49	30136.74
588.65	30061.84
588.81	30008.01
588.97	29759.91
589.13	29895.66
589.29	29816.08
589.45	30059.50
589.61	29991.62
589.77	30539.31
589.93	30611.87
590.08	29879.28
590.24	30274.83
590.40	30270.15
590.56	30298.23
590.72	30314.62
590.88	29935.45
591.04	30000.99
591.20	30218.66
591.35	30623.57
591.51	30359.09
591.67	30574.42
591.83	30424.62
591.99	30244.40
592.15	30562.72
592.31	30244.40
592.46	30192.91
592.62	30466.75
592.78	30384.83
592.94	30110.99
593.10	30455.05
593.26	30279.51
593.41	30333.34
593.57	30293.55
593.73	30785.07
593.89	30366.11
594.05	30426.96
594.20	30171.85
594.36	30213.98
594.52	30258.45
594.68	30459.73
594.84	30181.21
594.99	30457.39
595.15	30478.46
595.31	30441.01
595.47	30679.74
595.62	30618.89
595.78	30396.54
595.94	30270.15
596.10	30441.01
596.25	29862.90
596.41	30462.07
596.57	30396.54
596.73	30331.00
596.88	30611.87
597.04	30597.82
597.20	30295.89
597.36	30267.81
597.51	30724.21
597.67	30616.55
597.83	30118.01
597.99	30707.83
598.14	30459.73
598.30	29954.18
598.46	30267.81
598.61	30160.14
598.77	30132.06
598.93	30286.53
599.09	30436.33
599.24	30534.63
599.40	30927.84
599.56	30878.69
599.71	30583.78
599.87	30260.79
600.03	30349.73
600.18	30246.74
600.34	30340.36
600.50	30764.00
600.65	30183.55
600.81	30551.01
600.97	30703.15
601.12	30778.04
601.28	30780.39
601.44	30663.36
601.59	30639.95
601.75	30672.72
601.91	30368.45
602.06	30492.50
602.22	30649.32
602.37	30244.40
602.53	29972.90
602.69	30511.22
602.84	30665.70
603.00	30473.78
603.16	30644.63
603.31	30586.12
603.47	30534.63
603.62	30092.27
603.78	30625.91
603.94	30108.65
604.09	30064.18
604.25	30199.93
604.40	30457.39
604.56	30838.90
604.71	30787.41
604.87	30719.53
605.03	30354.41
605.18	30541.65
605.34	30398.88
605.49	29766.93
605.65	30129.72
605.80	30239.72
605.96	30368.45
606.12	30639.95
606.27	30656.34
606.43	30656.34
606.58	30436.33
606.74	30342.70
606.89	30298.23
607.05	30506.54
607.20	30607.19
607.36	30171.85
607.51	30419.94
607.67	30426.96
607.82	30096.95
607.98	30242.06
608.13	30012.69
608.29	29968.22
608.44	30501.86
608.60	30026.73
608.75	30852.94
608.91	30155.46
609.06	30092.27
609.22	30417.60
609.37	29553.94
609.53	29937.79
609.68	29968.22
609.84	30281.85
609.99	30167.16
610.15	30106.31
610.30	30155.46
610.46	30125.04
610.61	29890.98
610.76	30068.86
610.92	30089.93
611.07	30136.74
611.23	29900.34
611.38	30167.16
611.54	30309.94
611.69	29544.58
611.84	30017.37
612.00	29802.04
612.15	29699.06
612.31	30408.24
612.46	29970.56
612.62	30040.78
612.77	29832.47
612.92	30005.67
613.08	30054.82
613.23	29860.55
613.39	29537.56
613.54	29731.83
613.69	29902.68
613.85	29902.68
614.00	29818.42
614.15	29944.81
614.31	29661.61
614.46	30052.48
614.62	29727.14
614.77	29935.45
614.92	29902.68
615.08	29837.15
615.23	30223.34
615.38	30052.48
615.54	29933.11
615.69	29872.26
615.84	29888.64
616.00	29853.53
616.15	29682.67
616.30	29773.95
616.46	29888.64
616.61	29680.33
616.76	29958.86
616.92	29752.89
617.07	29584.37
617.22	29575.01
617.37	29443.94
617.53	29790.34
617.68	29390.11
617.83	29308.19
617.99	29696.72
618.14	29572.67
618.29	29692.04
618.45	29598.41
618.60	29397.13
618.75	29385.43
618.90	29598.41
619.06	29280.10
619.21	29429.90
619.36	29401.81
619.51	29249.67
619.67	29109.24
619.82	29455.64
619.97	29560.97
620.12	29053.07
620.28	29233.29
620.43	29170.10
620.58	29514.16
620.73	29528.20
620.89	29467.34
621.04	29355.00
621.19	29303.51
621.34	29111.58
621.49	28856.46
621.65	29263.72
621.80	29425.22
621.95	28893.91
622.10	29366.70
622.25	29010.94
622.41	28987.53
622.56	29069.45
622.71	29324.57
622.86	28940.72
623.01	29109.24
623.16	29308.19
623.32	29130.31
623.47	29078.82
623.62	29008.60
623.77	28987.53
623.92	29003.92
624.07	28790.93
624.23	28790.93
624.38	29230.95
624.53	28826.04
624.68	29074.13
624.83	28957.11
624.98	29048.39
625.13	28861.15
625.29	28811.99
625.44	28842.42
625.59	28858.81
625.74	28662.20
625.89	28776.89
626.04	28453.89
626.19	28463.25
626.34	28467.94
626.49	28217.50
626.65	28599.01
626.80	28477.30
626.95	28711.35
627.10	28669.22
627.25	28444.53
627.40	28294.74
627.55	28556.88
627.70	28102.81
627.85	28016.21
628.00	28573.26
628.15	27985.79
628.30	28166.01
628.45	28198.77
628.60	28418.78
628.76	28575.60
628.91	28458.57
629.06	28390.70
629.21	28250.27
629.36	28353.25
629.51	28079.41
629.66	28201.11
629.81	28306.44
629.96	28236.22
630.11	28236.22
630.26	27850.03
630.41	28093.45
630.56	28151.96
630.71	27871.10
630.86	28135.58
631.01	28058.34
631.16	28144.94
631.31	28109.83
631.46	27882.80
631.61	27976.42
631.76	28371.97
631.91	27938.97
632.06	27981.10
632.21	27983.44
632.36	27627.68
632.51	27676.83
632.66	28044.30
632.81	27953.02
632.96	27838.33
633.10	27915.57
633.25	27885.14
633.40	27824.29
633.55	27828.97
633.70	27896.85
633.85	27513.00
634.00	27285.97
634.15	27906.21
634.30	27433.42
634.45	27707.26
634.60	27620.66
634.75	27566.83
634.90	27812.59
635.05	27789.18
635.19	27793.86
635.34	27887.48
635.49	27681.52
635.64	27742.37
635.79	27510.66
635.94	27494.27
636.09	27475.55
636.24	27412.35
636.39	27374.91
636.53	27573.85
636.68	27255.54
636.83	27623.00
636.98	27606.62
637.13	27697.90
637.28	27482.57
637.43	27641.73
637.57	27744.71
637.72	27164.26
637.87	27175.96
638.02	27541.08
638.17	27576.19
638.32	26981.70
638.46	27047.23
638.61	27360.86
638.76	26799.13
638.91	27241.50
639.06	26925.52
639.20	27428.74
639.35	27365.54
639.50	27180.64
639.65	27175.96
639.80	27529.38
639.94	26874.03
640.09	26796.79
640.24	26916.16
640.39	26843.60
640.54	26691.47
640.68	27016.80
640.83	26965.31
640.98	26611.89
641.13	26857.65
641.27	26892.76
641.42	27070.64
641.57	27005.10
641.72	26749.98
641.86	26799.13
642.01	26766.37
642.16	26693.81
642.31	26387.20
642.45	26656.36
642.60	26824.88
642.75	26749.98
642.90	26565.08
643.04	26705.51
643.19	27016.80
643.34	26625.93
643.48	26609.55
643.63	26768.71
643.78	26955.95
643.93	26909.14
644.07	26508.91
644.22	26897.44
644.37	26766.37
644.51	26700.83
644.66	26443.37
644.81	26518.27
644.95	26253.79
645.10	26127.40
645.25	26693.81
645.39	26120.38
645.54	26508.91
645.69	26410.60
645.83	26682.11
645.98	26572.10
646.13	26518.27
646.27	26445.71
646.42	26483.16
646.57	26251.45
646.71	26160.17
646.86	26295.92
647.00	26218.68
647.15	26101.65
647.30	26064.21
647.44	26272.51
647.59	26345.07
647.74	25949.52
647.88	26480.82
648.03	26169.53
648.17	26539.33
648.32	26410.60
648.47	26422.31
648.61	26391.88
648.76	26298.26
648.90	25881.64
649.05	25975.27
649.20	25834.83
649.34	25944.84
649.49	26190.59
649.63	25797.38
649.78	26040.80
649.92	25659.29
650.07	25694.40
650.21	25773.98
650.36	25937.82
650.51	25830.15
650.65	25661.63
650.80	25912.07
650.94	25888.67
651.09	25394.81
651.23	25869.94
651.38	25591.42
651.52	25703.76
651.67	25797.38
651.81	25949.52
651.96	25359.70
652.10	25507.16
652.25	25905.05
652.39	25652.27
652.54	25649.93
652.68	25654.61
652.83	25755.26
652.97	26008.03
653.12	25635.89
653.26	25649.93
653.41	25687.38
653.55	25570.35
653.70	25448.64
653.84	25560.99
653.99	25376.09
654.13	25465.03
654.27	25233.32
654.42	25977.61
654.56	25352.68
654.71	25415.88
654.85	25312.89
655.00	25525.88
655.14	25326.94
655.29	25308.21
655.43	25521.20
655.57	25195.87
655.72	25113.95
655.86	25441.62
656.01	25364.39
656.15	25137.35
656.30	25198.21
656.44	25008.62
656.58	25013.31
656.73	25230.98
656.87	25219.27
657.01	25060.12
657.16	25385.45
657.30	25125.65
657.45	25331.62
657.59	25249.70
657.73	25303.53
657.88	24968.84
658.02	25088.20
658.16	24943.09
658.31	24851.81
658.45	24959.47
658.60	24484.34
658.74	24964.15
658.88	24575.62
659.03	25027.35
659.17	24617.75
659.31	24840.11
659.46	24776.91
659.60	24884.58
659.74	24947.77
659.89	24730.10
660.03	24334.55
660.17	24549.88
660.32	24556.90
660.46	24273.70
660.60	24273.70
660.74	24322.85
660.89	24201.14
661.03	24360.30
661.17	24423.49
661.32	24615.41
661.46	24402.43
661.60	24826.06
661.74	24451.58
661.89	24535.84
662.03	24222.20
662.17	24039.64
662.31	24182.42
662.46	24226.89
662.60	23992.83
662.74	23997.51
662.88	23943.68
663.03	23414.72
663.17	24023.26
663.31	23644.09
663.45	23583.24
663.60	23658.14
663.74	23899.21
663.88	23946.02
664.02	23498.98
664.17	23831.33
664.31	24081.77
664.45	23866.44
664.59	23772.82
664.73	23651.11
664.88	23529.41
665.02	23473.23
665.16	23335.14
665.30	23281.31
665.44	23440.47
665.59	23316.42
665.73	23234.50
665.87	22967.68
666.01	23545.79
666.15	23199.39
666.29	23475.57
666.44	23276.63
666.58	23147.90
666.72	23138.54
666.86	22881.08
667.00	23136.20
667.14	23049.60
667.28	23140.88
667.43	22773.41
667.57	23190.03
667.71	22991.08
667.85	23250.88
667.99	22799.16
668.13	22670.43
668.27	22813.20
668.41	23007.47
668.56	22780.43
668.70	22836.61
668.84	23089.38
668.98	22855.33
669.12	22759.37
669.26	22501.91
669.40	22670.43
669.54	22485.53
669.68	22658.73
669.82	22199.98
669.96	22260.84
670.10	22085.30
670.25	22279.56
670.39	22162.53
670.53	22223.39
670.67	22160.19
670.81	22345.09
670.95	22288.92
671.09	22640.00
671.23	21788.05
671.37	22375.52
671.51	22136.79
671.65	21972.95
671.79	22178.92
671.93	21902.73
672.07	22038.48
672.21	21720.17
672.35	21790.39
672.49	21385.47
672.63	21750.60
672.77	21336.32
672.91	21633.57
673.05	21652.30
673.19	21680.38
673.33	21458.03
673.47	21422.92
673.61	21404.20
673.75	20931.41
673.89	21394.84
674.03	21399.52
674.17	21165.46
674.31	21411.22
674.45	21235.68
674.59	21177.17
674.73	20905.66
674.87	20905.66
675.01	21263.77
675.15	20982.90
675.29	20601.40
675.43	20950.14
675.56	20856.51
675.70	20826.09
675.84	20798.00
675.98	20362.66
676.12	20690.34
676.26	20704.38
676.40	20676.29
676.54	20570.97
676.68	20594.37
676.82	20231.59
676.96	20585.01
677.10	20093.50
677.23	19969.45
677.37	20292.44
677.51	20074.77
677.65	20067.75
677.79	19861.79
677.93	19885.19
678.07	19700.29
678.21	19782.21
678.34	19955.41
678.48	19740.08
678.62	19482.62
678.76	19737.74
678.90	19559.86
679.04	19711.99
679.18	19473.26
679.31	19061.32
679.45	19489.64
679.59	19197.07
679.73	19136.22
679.87	18881.10
680.00	18864.72
680.14	19183.03
680.28	18820.25
680.42	19173.67
680.56	19068.34
680.70	19061.32
680.83	18778.12
680.97	18703.22
681.11	18764.07
681.25	18424.70
681.39	18588.53
681.52	18476.19
681.66	18398.95
681.80	18455.12
681.94	18270.22
682.07	18190.64
682.21	18354.48
682.35	18111.07
682.49	17905.10
682.62	17841.90
682.76	18031.49
682.90	18066.60
683.04	17912.12
683.17	18092.34
683.31	18202.35
683.45	17933.18
683.59	17891.06
683.72	17837.22
683.86	17647.64
684.00	17617.21
684.13	17476.78
684.27	17535.29
684.41	17399.54
684.55	17099.95
684.68	17170.17
684.82	17036.76
684.96	17069.53
685.09	17205.28
685.23	16833.13
685.37	17092.93
685.50	17165.49
685.64	17097.61
685.78	16933.78
685.91	16931.44
686.05	16699.72
686.19	17057.82
686.32	16699.72
686.46	16629.51
686.60	16465.67
686.73	16589.72
686.87	16365.03
687.01	16320.56
687.14	16039.69
687.28	16060.76
687.42	16077.14
687.55	16070.12
687.69	15990.54
687.82	15922.66
687.96	15861.81
688.10	15646.48
688.23	15917.98
688.37	16137.99
688.50	15798.62
688.64	15857.13
688.78	15861.81
688.91	15756.49
689.05	15719.04
689.18	15693.29
689.32	15489.67
689.46	15583.29
689.59	15552.86
689.73	15314.13
689.86	15440.51
690.00	15229.87
690.13	15264.97
690.27	15061.35
690.41	15222.84
690.54	15061.35
690.68	15300.08
690.81	15358.60
690.95	15084.75
691.08	15105.82
691.22	14745.38
691.35	14988.79
691.49	14843.68
691.62	14785.16
691.76	14471.53
691.89	14420.04
692.03	14338.12
692.16	14132.15
692.30	14305.35
692.43	14420.04
692.57	14408.34
692.70	14277.27
692.84	14120.45
692.97	13984.70
693.11	13980.02
693.24	14099.39
693.38	14092.37
693.51	13975.34
693.65	13696.82
693.78	13823.20
693.92	13720.22
694.05	13476.80
694.19	13872.36
694.32	13343.39
694.45	13458.08
694.59	13420.63
694.72	13174.88
694.86	13177.22
694.99	13254.45
695.13	13224.03
695.26	13362.12
695.39	13050.83
695.53	13057.85
695.66	13034.44
695.80	13025.08
695.93	12968.91
696.07	12912.74
696.20	13083.59
696.33	13004.02
696.47	13057.85
696.60	12788.69
696.73	12886.99
696.87	12858.90
697.00	12341.64
697.14	12271.43
697.27	12327.60
697.40	12329.94
697.54	12273.77
697.67	12280.79
697.80	12114.61
697.94	12006.95
698.07	12116.95
698.21	11894.60
698.34	12044.40
698.47	12156.74
698.61	12086.53
698.74	11861.84
698.87	11920.35
699.01	11878.22
699.14	11688.64
699.27	11641.82
699.40	11630.12
699.54	11815.02
699.67	11440.54
699.80	11541.18
699.94	11485.01
700.07	11447.56
700.20	11183.08
700.34	11197.12
700.47	11164.36
700.60	11297.77
700.73	11129.25
700.87	11325.85
701.00	11138.61
701.13	11040.31
701.26	10984.13
701.40	11108.18
701.53	10937.32
701.66	11112.86
701.79	10834.34
701.93	10808.59
702.06	10628.37
702.19	10661.14
702.32	10614.33
702.46	10427.09
702.59	10356.87
702.72	10352.19
702.85	10162.61
702.99	10258.57
703.12	10342.83
703.25	10335.81
703.38	10321.76
703.51	10448.15
703.65	10178.99
703.78	10420.06
703.91	10146.22
704.04	10267.93
704.17	10073.67
704.31	10324.10
704.44	10040.90
704.57	9874.72
704.70	10022.17
704.83	9628.96
704.96	9605.56
705.10	9659.39
705.23	9563.43
>>>>>End Processed Spectral Data<<<<<
