SpectraSuite Data File
++++++++++++++++++++++++++++++++++++
Date: Fri Oct 18 13:58:17 GMT-05:00 2013
User: bianchi
Dark Spectrum Present: No
Reference Spectrum Present: No
Number of Sampled Component Spectra: 1
Spectrometers: USB2+H05261
Integration Time (usec): 50000 (USB2+H05261)
Spectra Averaged: 1 (USB2+H05261)
Boxcar Smoothing: 0 (USB2+H05261)
Correct for Electrical Dark: No (USB2+H05261)
Strobe/Lamp Enabled: No (USB2+H05261)
Correct for Detector Non-linearity: No (USB2+H05261)
Correct for Stray Light: No (USB2+H05261)
Number of Pixels in Processed Spectrum: 2048
>>>>>Begin Processed Spectral Data<<<<<
365.73	42.13
365.92	42.13
366.12	42.13
366.32	0.00
366.52	0.00
366.72	0.00
366.91	0.00
367.11	0.00
367.31	0.00
367.51	0.00
367.70	0.00
367.90	0.00
368.10	0.00
368.30	0.00
368.49	0.00
368.69	0.00
368.89	0.00
369.09	0.00
369.28	0.00
369.48	0.00
369.68	0.00
369.87	0.00
370.07	0.00
370.27	0.00
370.47	0.00
370.66	112.35
370.86	112.35
371.06	56.17
371.25	121.71
371.45	110.01
371.65	189.58
371.84	198.95
372.04	102.98
372.24	182.56
372.44	166.18
372.63	133.41
372.83	173.20
373.03	166.18
373.22	159.16
373.42	147.45
373.62	166.18
373.81	159.16
374.01	203.63
374.21	177.88
374.40	241.08
374.60	259.80
374.79	276.18
374.99	208.31
375.19	229.37
375.38	266.82
375.58	229.37
375.78	287.89
375.97	187.24
376.17	264.48
376.37	224.69
376.56	278.52
376.76	198.95
376.95	280.86
377.15	341.72
377.35	212.99
377.54	241.08
377.74	243.42
377.93	273.84
378.13	241.08
378.33	290.23
378.52	259.80
378.72	318.31
378.91	311.29
379.11	243.42
379.31	245.76
379.50	327.68
379.70	325.33
379.89	337.04
380.09	334.70
380.28	344.06
380.48	297.25
380.68	259.80
380.87	285.55
381.07	306.61
381.26	402.57
381.46	334.70
381.65	306.61
381.85	278.52
382.04	322.99
382.24	365.12
382.43	308.95
382.63	315.97
382.83	320.65
383.02	292.57
383.22	299.59
383.41	437.68
383.61	322.99
383.80	409.59
384.00	393.21
384.19	301.93
384.39	351.08
384.58	348.74
384.78	367.46
384.97	428.32
385.17	351.08
385.36	477.47
385.56	463.43
385.75	334.70
385.95	369.80
386.14	454.06
386.34	425.98
386.53	344.06
386.72	437.68
386.92	411.93
387.11	493.85
387.31	425.98
387.50	390.87
387.70	512.58
387.89	489.17
388.09	386.19
388.28	409.59
388.48	444.70
388.67	524.28
388.86	416.62
389.06	411.93
389.25	397.89
389.45	442.36
389.64	475.13
389.84	463.43
390.03	491.51
390.22	491.51
390.42	568.75
390.61	493.85
390.81	531.30
391.00	519.60
391.19	500.87
391.39	528.96
391.58	507.90
391.78	585.13
391.97	430.66
392.16	524.28
392.36	550.03
392.55	550.03
392.75	503.22
392.94	571.09
393.13	547.69
393.33	472.79
393.52	592.16
393.71	517.26
393.91	535.98
394.10	528.96
394.29	608.54
394.49	608.54
394.68	627.26
394.88	660.03
395.07	582.79
395.26	613.22
395.46	561.73
395.65	683.44
395.84	660.03
396.04	699.82
396.23	692.80
396.42	699.82
396.62	631.94
396.81	631.94
397.00	671.73
397.19	718.54
397.39	648.33
397.58	690.46
397.77	552.37
397.97	655.35
398.16	606.20
398.35	683.44
398.55	758.33
398.74	667.05
398.93	739.61
399.12	660.03
399.32	737.27
399.51	734.93
399.70	706.84
399.90	763.01
400.09	746.63
400.28	840.25
400.47	741.95
400.67	699.82
400.86	809.83
401.05	784.08
401.24	774.72
401.44	800.46
401.63	812.17
401.82	917.49
402.01	926.85
402.21	849.61
402.40	709.18
402.59	795.78
402.78	875.36
402.97	798.12
403.17	784.08
403.36	812.17
403.55	837.91
403.74	901.11
403.93	898.77
404.13	835.57
404.32	877.70
404.51	933.87
404.70	898.77
404.89	851.96
405.09	924.51
405.28	1001.75
405.47	966.64
405.66	990.05
405.85	1071.97
406.05	947.92
406.24	952.60
406.43	1032.18
406.62	1011.11
406.81	1004.09
407.00	1062.60
407.20	933.87
407.39	964.30
407.58	973.66
407.77	1078.99
407.96	1041.54
408.15	1090.69
408.34	1025.15
408.54	1057.92
408.73	1156.22
408.92	1132.82
409.11	1053.24
409.30	1139.84
409.49	1104.73
409.68	1210.06
409.87	1163.25
410.07	1268.57
410.26	1205.38
410.45	1221.76
410.64	1090.69
410.83	1125.80
411.02	1174.95
411.21	1277.93
411.40	1214.74
411.59	1294.32
411.78	1362.19
411.98	1270.91
412.17	1289.64
412.36	1313.04
412.55	1320.06
412.74	1275.59
412.93	1322.40
413.12	1313.04
413.31	1394.96
413.50	1345.81
413.69	1394.96
413.88	1404.32
414.07	1458.15
414.26	1394.96
414.45	1458.15
414.64	1497.94
414.83	1432.41
415.02	1537.73
415.22	1488.58
415.41	1519.01
415.60	1504.96
415.79	1495.60
415.98	1537.73
416.17	1624.33
416.36	1540.07
416.55	1547.09
416.74	1673.48
416.93	1652.42
417.12	1682.85
417.31	1661.78
417.50	1732.00
417.69	1746.04
417.88	1682.85
418.07	1643.06
418.26	1804.55
418.45	1680.50
418.64	1774.13
418.83	1703.91
419.02	1851.36
419.21	1816.26
419.39	1746.04
419.58	1797.53
419.77	1753.06
419.96	1968.39
420.15	1837.32
420.34	1849.02
420.53	1863.07
420.72	1905.20
420.91	1879.45
421.10	1987.11
421.29	1914.56
421.48	1872.43
421.67	1902.86
421.86	1980.09
422.05	1933.28
422.24	1998.82
422.43	1937.96
422.61	1959.03
422.80	2045.63
422.99	1966.05
423.18	2083.08
423.37	2024.56
423.56	1933.28
423.75	1991.80
423.94	1872.43
424.13	1884.13
424.32	1853.70
424.50	2062.01
424.69	2148.61
424.88	1954.35
425.07	2047.97
425.26	2064.35
425.45	1942.64
425.64	1989.46
425.83	1928.60
426.01	2129.89
426.20	2001.16
426.39	2052.65
426.58	1994.14
426.77	2134.57
426.96	2118.18
427.15	2148.61
427.33	2010.52
427.52	2111.16
427.71	2087.76
427.90	2099.46
428.09	2099.46
428.28	2146.27
428.46	2188.40
428.65	2197.76
428.84	2216.49
429.03	2310.11
429.22	2249.25
429.40	2265.64
429.59	2296.07
429.78	2176.70
429.97	2207.13
430.16	2146.27
430.34	2382.67
430.53	2352.24
430.72	2258.62
430.91	2345.22
431.10	2286.70
431.28	2450.54
431.47	2387.35
431.66	2399.05
431.85	2394.37
432.03	2307.77
432.22	2445.86
432.41	2354.58
432.60	2389.69
432.79	2422.45
432.97	2499.69
433.16	2506.71
433.35	2527.78
433.54	2523.10
433.72	2436.50
433.91	2544.16
434.10	2471.61
434.28	2497.35
434.47	2534.80
434.66	2616.72
434.85	2532.46
435.03	2574.59
435.22	2448.20
435.41	2726.72
435.59	2593.31
435.78	2523.10
435.97	2689.28
436.16	2752.47
436.34	2588.63
436.53	2616.72
436.72	2686.94
436.90	2719.70
437.09	2708.00
437.28	2686.94
437.46	2729.06
437.65	2693.96
437.84	2778.22
438.02	2693.96
438.21	2895.24
438.40	2700.98
438.58	2920.99
438.77	3056.74
438.96	2939.71
439.14	3009.93
439.33	2937.37
439.52	3035.67
439.70	3112.91
439.89	2998.23
440.08	2977.16
440.26	3063.76
440.45	3014.61
440.63	3040.36
440.82	3115.25
441.01	3021.63
441.19	3213.56
441.38	3119.93
441.57	3208.87
441.75	3176.11
441.94	3300.16
442.12	3276.75
442.31	3187.81
442.50	3295.47
442.68	3339.94
442.87	3304.84
443.05	3372.71
443.24	3393.78
443.43	3288.45
443.61	3290.79
443.80	3449.95
443.98	3255.69
444.17	3323.56
444.35	3389.10
444.54	3508.46
444.73	3433.57
444.91	3372.71
445.10	3506.12
445.28	3463.99
445.47	3419.52
445.65	3426.54
445.84	3524.85
446.02	3550.59
446.21	3461.65
446.39	3534.21
446.58	3574.00
446.77	3499.10
446.95	3433.57
447.14	3461.65
447.32	3562.30
447.51	3503.78
447.69	3517.83
447.88	3545.91
448.06	3550.59
448.25	3456.97
448.43	3541.23
448.62	3520.17
448.80	3496.76
448.99	3662.94
449.17	3515.48
449.36	3503.78
449.54	3585.70
449.73	3686.34
449.91	3782.31
450.10	3676.98
450.28	3803.37
450.46	3829.12
450.65	3751.88
450.83	3695.71
451.02	3847.84
451.20	3684.00
451.39	3857.20
451.57	3786.99
451.76	3784.65
451.94	3815.07
452.13	3882.95
452.31	3857.20
452.49	3822.09
452.68	3911.04
452.86	3913.38
453.05	3908.69
453.23	3887.63
453.42	3866.56
453.60	3918.06
453.78	3866.56
453.97	3955.51
454.15	3981.25
454.34	3962.53
454.52	3934.44
454.70	4072.53
454.89	3974.23
455.07	4007.00
455.26	4011.68
455.44	4072.53
455.62	3941.46
455.81	4156.79
455.99	4166.15
456.17	4187.22
456.36	4086.58
456.54	4105.30
456.73	4184.88
456.91	4259.78
457.09	4135.73
457.28	4381.48
457.46	4292.54
457.64	4367.44
457.83	4315.95
458.01	4147.43
458.19	4339.35
458.38	4292.54
458.56	4517.23
458.74	4367.44
458.93	4332.33
459.11	4465.74
459.29	4423.61
459.48	4514.89
459.66	4540.64
459.84	4596.81
460.03	4568.73
460.21	4512.55
460.39	4400.21
460.57	4507.87
460.76	4533.62
460.94	4585.11
461.12	4725.54
461.31	4585.11
461.49	4751.29
461.67	4610.86
461.85	4760.65
462.04	4638.94
462.22	4896.40
462.40	4816.82
462.59	4744.27
462.77	4798.10
462.95	4784.06
463.13	4741.93
463.32	4887.04
463.50	4777.03
463.68	4954.91
463.86	4833.21
464.05	4793.42
464.23	4788.74
464.41	4894.06
464.59	4828.53
464.78	4997.04
464.96	4959.60
465.14	4835.55
465.32	4990.02
465.50	5102.37
465.69	5067.26
465.87	4943.21
466.05	5043.85
466.23	5020.45
466.41	4961.94
466.60	5228.76
466.78	5158.54
466.96	5015.77
467.14	5046.20
467.32	5191.31
467.51	5104.71
467.69	5114.07
467.87	5137.48
468.05	5235.78
468.23	5256.84
468.41	5104.71
468.60	5249.82
468.78	5322.38
468.96	5289.61
469.14	5238.12
469.32	5287.27
469.50	5334.08
469.69	5392.59
469.87	5430.04
470.05	5329.40
470.23	5413.66
470.41	5441.75
470.59	5458.13
470.77	5334.08
470.95	5533.03
471.14	5516.64
471.32	5533.03
471.50	5472.17
471.68	5675.80
471.86	5551.75
472.04	5703.89
472.22	5811.55
472.40	5673.46
472.58	5729.63
472.77	5776.44
472.95	5900.49
473.13	6012.84
473.31	5949.64
473.49	5858.36
473.67	5804.53
473.85	5884.11
474.03	5947.30
474.21	6057.31
474.39	6029.22
474.57	5994.11
474.75	6197.74
474.93	6216.46
475.12	6104.12
475.30	6186.04
475.48	6092.41
475.66	6237.53
475.84	6429.45
476.02	6263.27
476.20	6293.70
476.38	6406.05
476.56	6677.55
476.74	6487.96
476.92	6429.45
477.10	6455.20
477.28	6834.36
477.46	6593.29
477.64	6560.52
477.82	6722.02
478.00	6902.24
478.18	6902.24
478.36	7012.24
478.54	6963.09
478.72	7047.35
478.90	7178.42
479.08	7211.19
479.26	7204.17
479.44	7258.00
479.62	7349.28
479.80	7250.98
479.98	7391.41
480.16	7403.11
480.34	7529.50
480.52	7702.70
480.70	7749.51
480.88	7702.70
481.06	7768.24
481.24	7957.82
481.41	7801.01
481.59	7936.76
481.77	8032.72
481.95	8077.19
482.13	7967.18
482.31	7936.76
482.49	8170.81
482.67	8002.29
482.85	8294.86
483.03	8542.96
483.21	8627.21
483.39	8681.05
483.57	8634.24
483.74	8753.60
483.92	8704.45
484.10	8599.13
484.28	9008.72
484.46	9170.22
484.64	9217.03
484.82	9048.51
485.00	9029.79
485.18	9420.66
485.35	9355.12
485.53	9359.80
485.71	9430.02
485.89	9525.98
486.07	9689.82
486.25	9577.47
486.43	9720.24
486.61	9706.20
486.78	9820.89
486.96	10083.03
487.14	10029.20
487.32	10061.96
487.50	10204.74
487.68	10403.68
487.85	10303.04
488.03	10459.85
488.21	10452.83
488.39	10569.86
488.57	10658.80
488.75	10729.02
488.92	10883.49
489.10	11052.01
489.28	10965.41
489.46	11068.39
489.64	10995.84
489.81	11089.46
489.99	11417.13
490.17	11499.05
490.35	11510.75
490.53	11286.06
490.70	11651.19
490.88	11552.88
491.06	11461.60
491.24	11557.57
491.41	11878.22
491.59	11950.78
491.77	11964.82
491.95	12032.69
492.13	12271.43
492.30	12294.83
492.48	12278.45
492.66	12449.31
492.84	12461.01
493.01	12564.00
493.19	12606.13
493.37	12830.82
493.54	12641.23
493.72	12945.50
493.90	12704.43
494.08	12933.80
494.25	13095.30
494.43	13212.32
494.61	13331.69
494.79	13476.80
494.96	13252.11
495.14	13689.79
495.32	13624.26
495.49	13640.64
495.67	13514.25
495.85	13816.18
496.02	14143.86
496.20	14038.53
496.38	14118.11
496.55	14153.22
496.73	14188.33
496.91	14031.51
497.09	14169.60
497.26	14586.22
497.44	14443.45
497.62	14618.99
497.79	14504.30
497.97	14401.32
498.14	14733.67
498.32	14792.19
498.50	14689.20
498.67	15112.84
498.85	14752.40
499.03	14920.92
499.20	15431.15
499.38	15145.61
499.56	15382.00
499.73	15211.14
499.91	15187.74
500.08	15426.47
500.26	15393.70
500.44	15569.24
500.61	15632.44
500.79	15541.16
500.97	15620.74
501.14	15768.19
501.32	15779.89
501.49	15859.47
501.67	15786.91
501.84	16030.33
502.02	15941.39
502.20	15988.20
502.37	16262.04
502.55	16236.30
502.72	16318.22
502.90	16170.76
503.07	16042.03
503.25	16070.12
503.43	16432.90
503.60	16414.18
503.78	16444.60
503.95	16538.23
504.13	16671.64
504.30	16599.08
504.48	16554.61
504.65	16594.40
504.83	17027.40
505.01	17317.62
505.18	17057.82
505.36	17160.81
505.53	16910.37
505.71	16692.70
505.88	17114.00
506.06	17022.72
506.23	17558.70
506.41	17174.85
506.58	17191.23
506.76	17413.59
506.93	17621.89
507.11	17378.48
507.28	17570.40
507.46	17710.83
507.63	17771.69
507.81	17982.34
507.98	17806.80
508.16	17830.20
508.33	17912.12
508.50	18214.05
508.68	17797.43
508.85	18235.11
509.03	18284.26
509.20	18080.64
509.38	18558.11
509.55	18134.47
509.73	18565.13
509.90	18530.02
510.08	18305.33
510.25	18466.83
510.42	18466.83
510.60	18651.73
510.77	18668.11
510.95	18916.21
511.12	18888.12
511.30	18719.60
511.47	18991.11
511.64	18860.04
511.82	19080.05
511.99	19040.26
512.17	19253.25
512.34	19138.56
512.51	19208.78
512.69	19417.08
512.86	19161.97
513.04	19159.63
513.21	19410.06
513.38	19316.44
513.56	19665.18
513.73	19412.40
513.90	19365.59
514.08	19536.45
514.25	19768.16
514.43	19623.05
514.60	19934.34
514.77	19543.47
514.95	19922.64
515.12	19896.89
515.29	19770.51
515.47	19990.52
515.64	20039.67
515.81	20027.96
515.99	20336.91
516.16	20409.47
516.33	20421.17
516.51	20451.60
516.68	20264.36
516.85	20301.81
517.03	20065.41
517.20	20547.56
517.37	20365.00
517.54	20870.56
517.72	20575.65
517.89	20587.35
518.06	20744.17
518.24	20549.90
518.41	20786.30
518.58	20989.92
518.75	20807.36
518.93	20802.68
519.10	20713.74
519.27	20964.18
519.45	21116.31
519.62	21193.55
519.79	21139.72
519.96	20854.17
520.14	21261.43
520.31	21338.66
520.48	21355.05
520.65	21032.05
520.83	21167.80
521.00	21710.81
521.17	21369.09
521.34	21607.83
521.52	21701.45
521.69	21891.03
521.86	22080.61
522.03	21851.24
522.20	21851.24
522.38	21680.38
522.55	21715.49
522.72	21771.66
522.89	21991.67
523.07	22047.85
523.24	21888.69
523.41	22223.39
523.58	21879.33
523.75	22089.98
523.92	21884.01
524.10	22157.85
524.27	22246.79
524.44	22321.69
524.61	22286.58
524.78	22520.63
524.96	22445.74
525.13	22600.21
525.30	22780.43
525.47	22628.30
525.64	22642.34
525.81	22967.68
525.98	22874.06
526.16	22733.62
526.33	22785.12
526.50	23047.26
526.67	22785.12
526.84	22820.22
527.01	22934.91
527.18	23065.98
527.36	23150.24
527.53	23140.88
527.70	23356.21
527.87	23370.25
528.04	23534.09
528.21	23056.62
528.38	23627.71
528.55	23676.86
528.72	23337.48
528.89	23300.03
529.07	23222.80
529.24	23372.59
529.41	23697.92
529.58	23414.72
529.75	23274.29
529.92	23400.68
530.09	23702.61
530.26	23700.26
530.43	23955.38
530.60	23939.00
530.77	23761.12
530.94	23868.78
531.11	23833.68
531.28	23606.64
531.46	24039.64
531.63	23964.75
531.80	23943.68
531.97	24226.89
532.14	24063.05
532.31	23969.43
532.48	24140.29
532.65	24694.99
532.82	23843.04
532.99	24276.04
533.16	24367.32
533.33	24332.21
533.50	24650.52
533.67	24294.76
533.84	24329.87
534.01	24596.69
534.18	24189.44
534.35	24533.50
534.52	24809.68
534.69	24538.18
534.86	24748.82
535.03	24599.03
535.20	24575.62
535.37	24699.67
535.54	25163.10
535.71	24542.86
535.88	24566.26
536.05	24940.75
536.22	24833.08
536.38	25287.15
536.55	25188.85
536.72	25198.21
536.89	24933.73
537.06	25029.69
537.23	25432.26
537.40	25069.48
537.57	25076.50
537.74	25355.02
537.91	25560.99
538.08	25392.47
538.25	25413.54
538.42	25350.34
538.59	25308.21
538.75	25034.37
538.92	25399.49
539.09	25242.68
539.26	25549.29
539.43	25495.46
539.60	25589.08
539.77	25757.60
539.94	25539.93
540.11	25766.96
540.28	25881.64
540.44	25483.75
540.61	25619.50
540.78	25699.08
540.95	25905.05
541.12	25724.83
541.29	25727.17
541.46	26253.79
541.62	25731.85
541.79	25762.28
541.96	25694.40
542.13	25902.71
542.30	25816.11
542.47	25773.98
542.63	26031.44
542.80	26005.69
542.97	26443.37
543.14	26288.90
543.31	26316.98
543.48	26195.28
543.64	26361.45
543.81	26623.59
543.98	26511.25
544.15	26600.19
544.32	26522.95
544.48	26829.56
544.65	26904.46
544.82	26579.12
544.99	26274.85
545.16	26864.67
545.32	26546.36
545.49	26906.80
545.66	27028.51
545.83	26955.95
546.00	26834.24
546.16	26773.39
546.33	26658.70
546.50	26586.15
546.67	26749.98
546.83	26799.13
547.00	26864.67
547.17	27131.49
547.34	27012.12
547.50	27288.31
547.67	27211.07
547.84	27122.13
548.00	27070.64
548.17	27246.18
548.34	27009.78
548.51	27482.57
548.67	27536.40
548.84	27349.16
549.01	27185.32
549.18	26977.01
549.34	27381.93
549.51	27236.81
549.68	27377.25
549.84	27477.89
550.01	27758.75
550.18	27115.11
550.34	27538.74
550.51	27985.79
550.68	27496.61
550.84	27410.01
551.01	27880.46
551.18	27491.93
551.34	27555.13
551.51	27733.01
551.68	27819.61
551.84	27812.59
552.01	27688.54
552.18	27971.74
552.34	27887.48
552.51	27854.72
552.68	27927.27
552.84	27597.26
553.01	27976.42
553.18	27587.89
553.34	28210.48
553.51	28133.24
553.67	27950.68
553.84	28283.03
554.01	28013.87
554.17	28086.43
554.34	28198.77
554.51	27971.74
554.67	28386.02
554.84	27880.46
555.00	28334.53
555.17	28149.62
555.33	28161.33
555.50	28168.35
555.67	28250.27
555.83	28465.60
556.00	27938.97
556.16	28627.09
556.33	28540.49
556.50	28498.36
556.66	28470.28
556.83	28755.82
556.99	28353.25
557.16	28849.44
557.32	28685.61
557.49	28456.23
557.65	28161.33
557.82	28386.02
557.98	28669.22
558.15	28599.01
558.32	28662.20
558.48	28662.20
558.65	28463.25
558.81	28931.36
558.98	28807.31
559.14	28856.46
559.31	28776.89
559.47	28704.33
559.64	28821.36
559.80	28842.42
559.97	29060.09
560.13	28905.62
560.30	28776.89
560.46	29022.64
560.63	28755.82
560.79	28582.62
560.96	28847.10
561.12	29118.60
561.29	28390.70
561.45	28882.21
561.61	28959.45
561.78	28938.38
561.94	28936.04
562.11	28968.81
562.27	28896.25
562.44	29029.66
562.60	28959.45
562.77	29013.28
562.93	28837.74
563.10	29254.36
563.26	28872.85
563.42	29315.21
563.59	29146.69
563.75	29378.40
563.92	29008.60
564.08	28980.51
564.24	29134.99
564.41	29127.97
564.57	29071.79
564.74	29027.32
564.90	29064.77
565.07	29195.84
565.23	29287.12
565.39	29460.32
565.56	29495.43
565.72	29146.69
565.88	29434.58
566.05	28945.41
566.21	29172.44
566.38	29713.10
566.54	29406.49
566.70	29319.89
566.87	29933.11
567.03	29315.21
567.19	29453.30
567.36	29614.80
567.52	29237.97
567.68	29446.28
567.85	29535.22
568.01	29502.45
568.17	29181.80
568.34	29413.51
568.50	29715.44
568.66	29497.77
568.83	29626.50
568.99	29607.78
569.15	29376.06
569.32	29097.54
569.48	29046.05
569.64	29188.82
569.81	29383.09
569.97	29584.37
570.13	29460.32
570.30	29570.33
570.46	30230.36
570.62	29355.00
570.78	29406.49
570.95	29319.89
571.11	29572.67
571.27	29331.59
571.43	29401.81
571.60	29376.06
571.76	29188.82
571.92	29570.33
572.09	29811.40
572.25	29867.58
572.41	29605.44
572.57	29858.21
572.74	29802.04
572.90	29685.01
573.06	29509.47
573.22	29729.48
573.38	29848.85
573.55	29322.23
573.71	29895.66
573.87	29919.07
574.03	29874.60
574.20	29869.92
574.36	29560.97
574.52	29617.14
574.68	29785.66
574.84	29876.94
575.01	29738.85
575.17	29675.65
575.33	29670.97
575.49	29755.23
575.65	29539.90
575.82	29881.62
575.98	29699.06
576.14	29951.84
576.30	29986.94
576.46	29654.59
576.62	29525.86
576.79	29649.91
576.95	29631.18
577.11	29907.37
577.27	29909.71
577.43	30012.69
577.59	29947.15
577.75	29656.93
577.92	29670.97
578.08	29539.90
578.24	29935.45
578.40	29797.36
578.56	30103.97
578.72	29968.22
578.88	30033.75
579.04	30455.05
579.21	30118.01
579.37	30040.78
579.53	30036.09
579.69	29720.12
579.85	29958.86
580.01	29642.88
580.17	29589.05
580.33	30110.99
580.49	30127.38
580.65	30443.35
580.82	30150.78
580.98	30005.67
581.14	29949.50
581.30	30129.72
581.46	30045.46
581.62	30050.14
581.78	29535.22
581.94	30118.01
582.10	30003.33
582.26	29729.48
582.42	30136.74
582.58	30129.72
582.74	30309.94
582.90	30239.72
583.06	29989.28
583.22	29670.97
583.38	29916.73
583.54	30066.52
583.70	30073.54
583.86	29956.52
584.02	29914.39
584.18	30354.41
584.34	29972.90
584.50	29989.28
584.66	30171.85
584.82	29942.47
584.98	30026.73
585.14	30059.50
585.30	29851.19
585.46	29907.37
585.62	29825.45
585.78	30143.76
585.94	30148.44
586.10	29893.32
586.26	30293.55
586.42	30005.67
586.58	30139.08
586.74	30012.69
586.90	30242.06
587.06	29900.34
587.22	29977.58
587.38	30094.61
587.54	30349.73
587.70	30464.41
587.86	30125.04
588.02	30391.86
588.18	30272.49
588.34	30190.57
588.49	30543.99
588.65	30092.27
588.81	30024.39
588.97	30361.43
589.13	30054.82
589.29	29855.87
589.45	30174.19
589.61	29986.94
589.77	30164.82
589.93	30543.99
590.08	30600.16
590.24	30260.79
590.40	30448.03
590.56	30808.47
590.72	29991.62
590.88	30188.23
591.04	30157.80
591.20	30595.48
591.35	30703.15
591.51	30792.09
591.67	30672.72
591.83	30661.02
591.99	30635.27
592.15	30520.59
592.31	30148.44
592.46	30373.13
592.62	30335.68
592.78	30408.24
592.94	30003.33
593.10	30387.18
593.26	30562.72
593.41	30731.23
593.57	30164.82
593.73	30522.93
593.89	30307.60
594.05	30160.14
594.20	30230.36
594.36	30803.79
594.52	30436.33
594.68	30127.38
594.84	30717.19
594.99	30417.60
595.15	30235.04
595.31	30555.69
595.47	30878.69
595.62	30335.68
595.78	30742.94
595.94	30497.18
596.10	30478.46
596.25	30635.27
596.41	30546.33
596.57	30033.75
596.73	30548.67
596.88	30417.60
597.04	30656.34
597.20	31005.08
597.36	30745.28
597.51	31152.53
597.67	30705.49
597.83	30731.23
597.99	30368.45
598.14	30735.92
598.30	30742.94
598.46	30932.52
598.61	30462.07
598.77	30288.87
598.93	30756.98
599.09	30808.47
599.24	31108.06
599.40	30775.70
599.56	30572.08
599.71	30747.62
599.87	31112.74
600.03	30747.62
600.18	30775.70
600.34	30387.18
600.50	30703.15
600.65	30588.46
600.81	30742.94
600.97	30899.75
601.12	30635.27
601.28	30874.01
601.44	31084.65
601.59	30602.50
601.75	30668.04
601.91	30551.01
602.06	30403.56
602.22	30656.34
602.37	30356.75
602.53	30962.95
602.69	30834.22
602.84	30754.64
603.00	30644.63
603.16	30728.89
603.31	30724.21
603.47	30359.09
603.62	30522.93
603.78	30452.71
603.94	30518.25
604.09	30707.83
604.25	30789.75
604.40	30623.57
604.56	30684.42
604.71	31101.04
604.87	30665.70
605.03	30700.81
605.18	30675.06
605.34	30696.13
605.49	30829.54
605.65	30771.02
605.80	30284.19
605.96	30373.13
606.12	30401.22
606.27	31211.04
606.43	30085.25
606.58	30859.96
606.74	30462.07
606.89	30651.66
607.05	30691.44
607.20	30494.84
607.36	30483.14
607.51	30773.36
607.67	30061.84
607.82	30333.34
607.98	30565.06
608.13	30586.12
608.29	30539.31
608.44	30284.19
608.60	30810.81
608.75	30745.28
608.91	30483.14
609.06	30286.53
609.22	30670.38
609.37	30148.44
609.53	30398.88
609.68	30405.90
609.84	30167.16
609.99	30754.64
610.15	30377.81
610.30	30323.98
610.46	30394.20
610.61	30359.09
610.76	30422.28
610.92	30197.59
611.07	30408.24
611.23	30492.50
611.38	30003.33
611.54	29975.24
611.69	30141.42
611.84	30031.41
612.00	30085.25
612.15	30171.85
612.31	30457.39
612.46	30005.67
612.62	30466.75
612.77	30223.34
612.92	30150.78
613.08	30253.76
613.23	30492.50
613.39	30075.88
613.54	29926.09
613.69	30127.38
613.85	30338.02
614.00	29984.60
614.15	29830.13
614.31	30213.98
614.46	29694.38
614.62	29940.13
614.77	30052.48
614.92	29961.20
615.08	30075.88
615.23	29881.62
615.38	30099.29
615.54	29685.01
615.69	29600.76
615.84	30288.87
616.00	29886.30
616.15	30012.69
616.30	30043.12
616.46	30132.06
616.61	30012.69
616.76	30031.41
616.92	29921.41
617.07	30031.41
617.22	29928.43
617.37	29696.72
617.53	29825.45
617.68	29647.57
617.83	29308.19
617.99	29465.00
618.14	29481.39
618.29	29324.57
618.45	29645.23
618.60	29881.62
618.75	29467.34
618.90	29390.11
619.06	29582.03
619.21	29537.56
619.36	29455.64
619.51	29319.89
619.67	29223.93
619.82	29453.30
619.97	29586.71
620.12	29252.02
620.28	29275.42
620.43	29788.00
620.58	29481.39
620.73	29593.73
620.89	29366.70
621.04	29645.23
621.19	29682.67
621.34	29324.57
621.49	29078.82
621.65	29326.91
621.80	29170.10
621.95	28954.77
622.10	29090.52
622.25	29188.82
622.41	29291.80
622.56	29586.71
622.71	29570.33
622.86	29043.71
623.01	29305.85
623.16	29149.03
623.32	29401.81
623.47	29401.81
623.62	29090.52
623.77	28919.66
623.92	29383.09
624.07	28992.22
624.23	28847.10
624.38	28863.49
624.53	29116.26
624.68	28987.53
624.83	29631.18
624.98	29228.61
625.13	28882.21
625.29	29097.54
625.44	28975.83
625.59	28795.61
625.74	28933.70
625.89	28538.15
626.04	28599.01
626.19	28971.15
626.34	28842.42
626.49	28458.57
626.65	28376.66
626.80	28519.43
626.95	28718.37
627.10	28659.86
627.25	28425.81
627.40	28641.14
627.55	28671.56
627.70	28264.31
627.85	28465.60
628.00	28720.71
628.15	28472.62
628.30	28596.67
628.45	28650.50
628.60	28067.70
628.76	28554.54
628.91	28498.36
629.06	28460.91
629.21	28610.71
629.36	28435.17
629.51	28446.87
629.66	28903.28
629.81	28217.50
629.96	28416.44
630.11	28283.03
630.26	28194.09
630.41	27779.82
630.56	28074.73
630.71	28444.53
630.86	28226.86
631.01	28353.25
631.16	28257.29
631.31	28496.02
631.46	28194.09
631.61	28421.13
631.76	27798.54
631.91	28109.83
632.06	27889.82
632.21	27915.57
632.36	28048.98
632.51	27538.74
632.66	28158.99
632.81	27887.48
632.96	28149.62
633.10	27852.38
633.25	28371.97
633.40	28173.03
633.55	28051.32
633.70	27651.09
633.85	27737.69
634.00	28121.54
634.15	27601.94
634.30	27784.50
634.45	27599.60
634.60	27793.86
634.75	28098.13
634.90	27480.23
635.05	28409.42
635.19	27889.82
635.34	27742.37
635.49	27835.99
635.64	27550.45
635.79	27606.62
635.94	27985.79
636.09	27592.58
636.24	27971.74
636.39	27520.02
636.53	27630.02
636.68	27587.89
636.83	27625.34
636.98	27927.27
637.13	27269.58
637.28	27585.55
637.43	27707.26
637.57	27850.03
637.72	27180.64
637.87	27611.30
638.02	27449.80
638.17	27765.78
638.32	27510.66
638.46	27538.74
638.61	27491.93
638.76	27356.18
638.91	26883.39
639.06	27400.65
639.20	27248.52
639.35	27438.10
639.50	27538.74
639.65	27768.12
639.80	27496.61
639.94	27400.65
640.09	27152.55
640.24	27386.61
640.39	26981.70
640.54	27096.38
640.68	27080.00
640.83	26808.50
640.98	26834.24
641.13	26906.80
641.27	27232.13
641.42	27477.89
641.57	26867.01
641.72	27021.48
641.86	27187.66
642.01	27171.28
642.16	26981.70
642.31	26586.15
642.45	26941.91
642.60	26672.74
642.75	27119.79
642.90	26565.08
643.04	26581.46
643.19	26780.41
643.34	26534.65
643.48	26899.78
643.63	26824.88
643.78	26682.11
643.93	27091.70
644.07	26845.94
644.22	26967.65
644.37	26572.10
644.51	26785.09
644.66	26927.86
644.81	26625.93
644.95	26845.94
645.10	26852.97
645.25	26738.28
645.39	26808.50
645.54	26544.02
645.69	26789.77
645.83	26796.79
645.98	26504.23
646.13	26579.12
646.27	26785.09
646.42	26504.23
646.57	26508.91
646.71	26567.42
646.86	26520.61
647.00	26316.98
647.15	26569.76
647.30	26504.23
647.44	26183.57
647.59	26260.81
647.74	26387.20
647.88	26403.58
648.03	26553.38
648.17	26345.07
648.32	26373.16
648.47	26408.26
648.61	26181.23
648.76	26429.33
648.90	26618.91
649.05	26031.44
649.20	26686.79
649.34	26342.73
649.49	25759.94
649.63	26064.21
649.78	25970.58
649.92	25860.58
650.07	26274.85
650.21	25916.75
650.36	25993.99
650.51	25958.88
650.65	26202.30
650.80	26038.46
650.94	26291.24
651.09	26118.04
651.23	25542.27
651.38	26127.40
651.52	25659.29
651.67	25832.49
651.81	25979.95
651.96	25921.43
652.10	25947.18
652.25	25436.94
652.39	26307.62
652.54	26171.87
652.68	25900.37
652.83	25933.14
652.97	26150.81
653.12	25333.96
653.26	25855.90
653.41	26047.82
653.55	25776.32
653.70	25486.09
653.84	25586.74
653.99	25399.49
654.13	25448.64
654.27	25582.06
654.42	25898.03
654.56	25481.41
654.71	25977.61
654.85	25603.12
655.00	25689.72
655.14	25781.00
655.29	25446.30
655.43	25263.74
655.57	25490.77
655.72	25329.28
655.86	25308.21
656.01	25434.60
656.15	25104.59
656.30	25216.93
656.44	25345.66
656.58	25046.07
656.73	25254.38
656.87	25343.32
657.01	25694.40
657.16	25460.35
657.30	25481.41
657.45	25544.61
657.59	25497.80
657.73	24608.39
657.88	25401.83
658.02	25397.15
658.16	25053.09
658.31	25219.27
658.45	25048.41
658.60	24697.33
658.74	24957.13
658.88	24889.26
659.03	24907.98
659.17	24769.89
659.31	25132.67
659.46	25099.90
659.60	24863.51
659.74	24896.28
659.89	25317.57
660.03	24552.22
660.17	24915.00
660.32	24641.16
660.46	24870.53
660.60	24496.05
660.74	24318.17
660.89	24421.15
661.03	24287.74
661.17	24273.70
661.32	24243.27
661.46	24217.52
661.60	24669.25
661.74	24542.86
661.89	24446.90
662.03	24348.59
662.17	24584.99
662.31	24477.32
662.46	24552.22
662.60	24292.42
662.74	24182.42
662.88	24203.48
663.03	24027.94
663.17	24018.58
663.31	23852.40
663.45	23899.21
663.60	24070.07
663.74	23943.68
663.88	24079.43
664.02	23889.85
664.17	24414.13
664.31	23796.23
664.45	23756.44
664.59	23948.36
664.73	24002.19
664.88	23812.61
665.02	23625.37
665.16	23847.72
665.30	23728.35
665.44	23634.73
665.59	23302.37
665.73	23541.11
665.87	23302.37
666.01	23520.04
666.15	23534.09
666.29	23396.00
666.44	23180.67
666.58	23061.30
666.72	23211.09
666.86	23208.75
667.00	23154.92
667.14	23281.31
667.28	23522.38
667.43	23044.91
667.57	23332.80
667.71	23321.10
667.85	23267.27
667.99	22897.46
668.13	22918.53
668.27	23168.96
668.41	22981.72
668.56	23126.83
668.70	23136.20
668.84	23077.68
668.98	22677.45
669.12	22925.55
669.26	22705.54
669.40	22871.72
669.54	22803.84
669.68	22703.20
669.82	22806.18
669.96	22576.81
670.10	22384.88
670.25	22642.34
670.39	22831.93
670.53	22572.13
670.67	22134.45
670.81	22586.17
670.95	22157.85
671.09	22150.83
671.23	22462.12
671.37	22473.82
671.51	22389.56
671.65	22108.70
671.79	22246.79
671.93	22071.25
672.07	22405.95
672.21	22225.73
672.35	22089.98
672.49	21860.60
672.63	22040.82
672.77	21848.90
672.91	21708.47
673.05	21813.79
673.19	21664.00
673.33	21736.56
673.47	21572.72
673.61	21507.18
673.75	21785.71
673.89	21891.03
674.03	21397.18
674.17	21561.02
674.31	21621.87
674.45	21397.18
674.59	21378.45
674.73	21186.53
674.87	21120.99
675.01	21055.46
675.15	20971.20
675.29	21041.42
675.43	20915.03
675.56	21062.48
675.70	21046.10
675.84	21067.16
675.98	20350.96
676.12	21039.08
676.26	21109.29
676.40	20915.03
676.54	20851.83
676.68	20711.40
676.82	20318.19
676.96	20657.57
677.10	20510.11
677.23	20453.94
677.37	20119.24
677.51	20489.05
677.65	20247.97
677.79	20154.35
677.93	20198.82
678.07	19829.02
678.21	19737.74
678.34	19868.81
678.48	19786.89
678.62	19967.11
678.76	19573.90
678.90	19765.82
679.04	19552.84
679.18	20058.39
679.31	19452.19
679.45	19276.65
679.59	19290.70
679.73	19529.43
679.87	19311.76
680.00	19190.05
680.14	18895.14
680.28	19168.99
680.42	19049.62
680.56	19084.73
680.70	19005.15
680.83	19332.82
680.97	19094.09
681.11	18815.57
681.25	18572.15
681.39	18569.81
681.52	18824.93
681.66	18677.48
681.80	18518.32
681.94	18480.87
682.07	18572.15
682.21	18537.04
682.35	18146.17
682.49	18143.83
682.62	18232.77
682.76	17980.00
682.90	18415.34
683.04	18050.21
683.17	18246.82
683.31	18279.58
683.45	18298.31
683.59	17942.55
683.72	17451.03
683.86	17652.32
684.00	17947.23
684.13	17752.96
684.27	17624.23
684.41	17160.81
684.55	17495.50
684.68	17289.54
684.82	17242.73
684.96	17322.30
685.09	17406.56
685.23	17076.55
685.37	17322.30
685.50	17191.23
685.64	17338.69
685.78	17224.00
685.91	17242.73
686.05	17125.70
686.19	17074.21
686.32	16938.46
686.46	16828.45
686.60	16702.06
686.73	16896.33
686.87	16559.29
687.01	16690.36
687.14	16807.39
687.28	16224.59
687.42	16320.56
687.55	16320.56
687.69	16402.47
687.82	15999.90
687.96	16428.22
688.10	15719.04
688.23	16177.78
688.37	16060.76
688.50	16100.55
688.64	16093.52
688.78	15744.78
688.91	15515.41
689.05	15648.82
689.18	15609.03
689.32	15398.38
689.46	15358.60
689.59	15447.54
689.73	15197.10
689.86	15344.55
690.00	15227.53
690.13	15367.96
690.27	15384.34
690.41	15356.25
690.54	15286.04
690.68	15307.10
690.81	14944.32
690.95	15063.69
691.08	15054.33
691.22	15197.10
691.35	14787.50
691.49	15019.22
691.62	15145.61
691.76	14754.74
691.89	14801.55
692.03	14621.33
692.16	14569.83
692.30	14429.40
692.43	14389.61
692.57	14139.18
692.70	14132.15
692.84	14129.81
692.97	14256.20
693.11	13987.04
693.24	14118.11
693.38	14059.60
693.51	14031.51
693.65	13696.82
693.78	14033.85
693.92	13933.21
694.05	13907.46
694.19	13650.00
694.32	13568.09
694.45	13738.94
694.59	13675.75
694.72	13441.70
694.86	13479.15
694.99	13359.78
695.13	13373.82
695.26	13303.60
695.39	13174.88
695.53	13280.20
695.66	13425.31
695.80	13214.66
695.93	13186.58
696.07	13069.55
696.20	13102.32
696.33	13029.76
696.47	12912.74
696.60	12580.38
696.73	12772.30
696.87	12751.24
697.00	12556.97
697.14	12643.57
697.27	12517.18
697.40	12533.57
697.54	12379.09
697.67	12376.75
697.80	12381.43
697.94	12154.40
698.07	12067.80
698.21	12091.21
698.34	12297.17
698.47	12362.71
698.61	12180.15
698.74	12091.21
698.87	12245.68
699.01	11962.48
699.14	12081.85
699.27	11852.47
699.40	11644.17
699.54	11665.23
699.67	11487.35
699.80	11375.00
699.94	11737.79
700.07	11494.37
700.20	11398.41
700.34	11126.91
700.47	11335.21
700.60	11321.17
700.73	11318.83
700.87	11136.27
701.00	11204.14
701.13	11140.95
701.26	11087.12
701.40	11091.80
701.53	11007.54
701.66	11173.72
701.79	10890.51
701.93	10939.66
702.06	10579.22
702.19	10665.82
702.32	10572.20
702.46	10497.30
702.59	10382.62
702.72	10335.81
702.85	10394.32
702.99	10413.04
703.12	10640.08
703.25	10565.18
703.38	10305.38
703.51	10443.47
703.65	10434.11
703.78	10286.65
703.91	10148.56
704.04	10080.69
704.17	10251.55
704.31	10092.39
704.44	9940.26
704.57	10061.96
704.70	9921.53
704.83	9811.53
704.96	9867.70
705.10	9685.14
705.23	9694.50
>>>>>End Processed Spectral Data<<<<<
