SpectraSuite Data File
++++++++++++++++++++++++++++++++++++
Date: Fri Oct 18 13:58:31 GMT-05:00 2013
User: bianchi
Dark Spectrum Present: No
Reference Spectrum Present: No
Number of Sampled Component Spectra: 1
Spectrometers: USB2+H05261
Integration Time (usec): 50000 (USB2+H05261)
Spectra Averaged: 1 (USB2+H05261)
Boxcar Smoothing: 0 (USB2+H05261)
Correct for Electrical Dark: No (USB2+H05261)
Strobe/Lamp Enabled: No (USB2+H05261)
Correct for Detector Non-linearity: No (USB2+H05261)
Correct for Stray Light: No (USB2+H05261)
Number of Pixels in Processed Spectrum: 2048
>>>>>Begin Processed Spectral Data<<<<<
365.73	0.00
365.92	0.00
366.12	0.00
366.32	0.00
366.52	0.00
366.72	0.00
366.91	0.00
367.11	0.00
367.31	0.00
367.51	0.00
367.70	0.00
367.90	0.00
368.10	0.00
368.30	0.00
368.49	0.00
368.69	0.00
368.89	0.00
369.09	0.00
369.28	0.00
369.48	0.00
369.68	0.00
369.87	0.00
370.07	0.00
370.27	0.00
370.47	0.00
370.66	107.66
370.86	177.88
371.06	133.41
371.25	229.37
371.45	107.66
371.65	173.20
371.84	91.28
372.04	170.86
372.24	173.20
372.44	177.88
372.63	212.99
372.83	238.73
373.03	294.91
373.22	166.18
373.42	203.63
373.62	161.50
373.81	215.33
374.01	266.82
374.21	215.33
374.40	252.78
374.60	262.14
374.79	224.69
374.99	163.84
375.19	224.69
375.38	283.20
375.58	229.37
375.78	243.42
375.97	234.05
376.17	257.46
376.37	187.24
376.56	297.25
376.76	224.69
376.95	262.14
377.15	271.50
377.35	311.29
377.54	278.52
377.74	276.18
377.93	259.80
378.13	255.12
378.33	269.16
378.52	271.50
378.72	250.44
378.91	245.76
379.11	292.57
379.31	304.27
379.50	248.10
379.70	217.67
379.89	376.83
380.09	348.74
380.28	294.91
380.48	381.51
380.68	257.46
380.87	325.33
381.07	322.99
381.26	327.68
381.46	402.57
381.65	278.52
381.85	294.91
382.04	320.65
382.24	353.42
382.43	383.85
382.63	299.59
382.83	376.83
383.02	332.36
383.22	334.70
383.41	341.72
383.61	358.10
383.80	351.08
384.00	381.51
384.19	306.61
384.39	376.83
384.58	339.38
384.78	397.89
384.97	313.63
385.17	393.21
385.36	376.83
385.56	311.29
385.75	334.70
385.95	456.40
386.14	409.59
386.34	367.46
386.53	393.21
386.72	376.83
386.92	435.34
387.11	433.00
387.31	409.59
387.50	348.74
387.70	320.65
387.89	362.78
388.09	479.81
388.28	428.32
388.48	388.53
388.67	423.64
388.86	479.81
389.06	528.96
389.25	564.07
389.45	428.32
389.64	369.80
389.84	404.91
390.03	517.26
390.22	484.49
390.42	521.94
390.61	482.15
390.81	430.66
391.00	468.11
391.19	477.47
391.39	456.40
391.58	475.13
391.78	559.39
391.97	461.09
392.16	543.00
392.36	568.75
392.55	580.45
392.75	526.62
392.94	489.17
393.13	547.69
393.33	493.85
393.52	559.39
393.71	594.50
393.91	533.64
394.10	545.34
394.29	606.20
394.49	517.26
394.68	564.07
394.88	592.16
395.07	585.13
395.26	594.50
395.46	606.20
395.65	587.47
395.84	648.33
396.04	692.80
396.23	608.54
396.42	688.12
396.62	622.58
396.81	608.54
397.00	655.35
397.19	653.01
397.39	543.00
397.58	723.23
397.77	702.16
397.97	578.11
398.16	718.54
398.35	585.13
398.55	648.33
398.74	650.67
398.93	706.84
399.12	678.76
399.32	610.88
399.51	617.90
399.70	732.59
399.90	706.84
400.09	674.07
400.28	800.46
400.47	718.54
400.67	753.65
400.86	786.42
401.05	786.42
401.24	755.99
401.44	828.55
401.63	858.98
401.82	784.08
402.01	758.33
402.21	791.10
402.40	851.96
402.59	823.87
402.78	835.57
402.97	809.83
403.17	861.32
403.36	798.12
403.55	840.25
403.74	873.02
403.93	849.61
404.13	943.24
404.32	884.72
404.51	938.55
404.70	880.04
404.89	917.49
405.09	863.66
405.28	910.47
405.47	910.47
405.66	964.30
405.85	924.51
406.05	945.58
406.24	978.34
406.43	917.49
406.62	1020.47
406.81	985.37
407.00	1013.45
407.20	950.26
407.39	943.24
407.58	1088.35
407.77	1029.84
407.96	1001.75
408.15	1093.03
408.34	1074.31
408.54	1029.84
408.73	1107.07
408.92	1062.60
409.11	976.00
409.30	1100.05
409.49	1114.10
409.68	1095.37
409.87	1111.75
410.07	1064.94
410.26	1172.61
410.45	1121.12
410.64	1078.99
410.83	1210.06
411.02	1263.89
411.21	1256.87
411.40	1224.10
411.59	1343.47
411.78	1188.99
411.98	1242.82
412.17	1240.48
412.36	1214.74
412.55	1203.04
412.74	1338.79
412.93	1413.68
413.12	1357.51
413.31	1277.93
413.50	1254.53
413.69	1310.70
413.88	1387.94
414.07	1427.73
414.26	1413.68
414.45	1481.56
414.64	1334.11
414.83	1404.32
415.02	1455.81
415.22	1437.09
415.41	1570.50
415.60	1544.75
415.79	1584.54
415.98	1530.71
416.17	1575.18
416.36	1495.60
416.55	1554.12
416.74	1563.48
416.93	1589.22
417.12	1500.28
417.31	1603.27
417.50	1671.14
417.69	1790.51
417.88	1666.46
418.07	1547.09
418.26	1720.29
418.45	1771.79
418.64	1732.00
418.83	1647.74
419.02	1746.04
419.21	1905.20
419.39	1837.32
419.58	1792.85
419.77	1673.48
419.96	1823.28
420.15	1762.42
420.34	1781.15
420.53	1886.47
420.72	1963.71
420.91	1802.21
421.10	1874.77
421.29	1884.13
421.48	1849.02
421.67	1930.94
421.86	1949.67
422.05	1900.52
422.24	1905.20
422.43	1935.62
422.61	1959.03
422.80	2015.20
422.99	1968.39
423.18	1895.83
423.37	1989.46
423.56	2003.50
423.75	2038.61
423.94	1937.96
424.13	1799.87
424.32	1909.88
424.50	1994.14
424.69	2062.01
424.88	1952.01
425.07	1952.01
425.26	2010.52
425.45	2059.67
425.64	1952.01
425.83	2062.01
426.01	2087.76
426.20	2120.53
426.39	1935.62
426.58	2148.61
426.77	2050.31
426.96	2106.48
427.15	2078.40
427.33	2101.80
427.52	2059.67
427.71	2064.35
427.90	2024.56
428.09	2001.16
428.28	2162.66
428.46	2115.84
428.65	2146.27
428.84	2251.60
429.03	2083.08
429.22	2141.59
429.40	2153.29
429.59	2155.63
429.78	2078.40
429.97	2221.17
430.16	2221.17
430.34	2183.72
430.53	2244.57
430.72	2349.90
430.91	2293.72
431.10	2296.07
431.28	2363.94
431.47	2385.01
431.66	2375.64
431.85	2370.96
432.03	2387.35
432.22	2417.77
432.41	2349.90
432.60	2345.22
432.79	2387.35
432.97	2427.14
433.16	2373.30
433.35	2401.39
433.54	2377.98
433.72	2581.61
433.91	2537.14
434.10	2487.99
434.28	2408.41
434.47	2537.14
434.66	2551.18
434.85	2511.39
435.03	2490.33
435.22	2548.84
435.41	2633.10
435.59	2668.21
435.78	2539.48
435.97	2527.78
436.16	2628.42
436.34	2677.57
436.53	2576.93
436.72	2715.02
436.90	2576.93
437.09	2839.07
437.28	2656.51
437.46	2682.25
437.65	2717.36
437.84	2649.49
438.02	2684.59
438.21	2635.44
438.40	2698.64
438.58	2803.96
438.77	2897.58
438.96	2810.98
439.14	2679.91
439.33	2881.20
439.52	2832.05
439.70	2949.08
439.89	2986.52
440.08	2911.63
440.26	2981.84
440.45	3070.78
440.63	3077.80
440.82	3075.46
441.01	3047.38
441.19	3033.33
441.38	3066.10
441.57	3122.27
441.75	3194.83
441.94	3171.43
442.12	3232.28
442.31	3344.63
442.50	3187.81
442.68	3225.26
442.87	3162.06
443.05	3201.85
443.24	3417.18
443.43	3274.41
443.61	3314.20
443.80	3447.61
443.98	3351.65
444.17	3206.53
444.35	3325.90
444.54	3339.94
444.73	3407.82
444.91	3356.33
445.10	3391.44
445.28	3276.75
445.47	3368.03
445.65	3330.58
445.84	3276.75
446.02	3431.23
446.21	3442.93
446.39	3412.50
446.58	3379.73
446.77	3377.39
446.95	3382.07
447.14	3407.82
447.32	3346.97
447.51	3363.35
447.69	3440.59
447.88	3459.31
448.06	3487.40
448.25	3417.18
448.43	3529.53
448.62	3489.74
448.80	3370.37
448.99	3475.70
449.17	3426.54
449.36	3461.65
449.54	3583.36
449.73	3581.02
449.91	3644.21
450.10	3719.11
450.28	3761.24
450.46	3524.85
450.65	3583.36
450.83	3522.51
451.02	3634.85
451.20	3801.03
451.39	3908.69
451.57	3719.11
451.76	3726.13
451.94	3693.37
452.13	3737.84
452.31	3801.03
452.49	3808.05
452.68	3817.41
452.86	3749.54
453.05	3824.44
453.23	3882.95
453.42	3765.92
453.60	3861.88
453.78	3803.37
453.97	3735.50
454.15	3854.86
454.34	3861.88
454.52	4018.70
454.70	3904.01
454.89	3861.88
455.07	3852.52
455.26	3892.31
455.44	3997.64
455.62	4014.02
455.81	4060.83
455.99	4028.06
456.17	4142.75
456.36	4138.07
456.54	4133.39
456.73	4194.24
456.91	4248.07
457.09	4147.43
457.28	4227.01
457.46	4180.20
457.64	4290.20
457.83	4222.33
458.01	4187.22
458.19	4432.97
458.38	4163.81
458.56	4259.78
458.74	4344.03
458.93	4203.60
459.11	4102.96
459.29	4304.25
459.48	4234.03
459.66	4367.44
459.84	4416.59
460.03	4519.57
460.21	4432.97
460.39	4690.43
460.57	4444.68
460.76	4477.44
460.94	4561.70
461.12	4631.92
461.31	4442.34
461.49	4367.44
461.67	4304.25
461.85	4671.71
462.04	4568.73
462.22	4620.22
462.40	4500.85
462.59	4599.15
462.77	4706.82
462.95	4638.94
463.13	4683.41
463.32	4695.11
463.50	4926.83
463.68	4737.24
463.86	4648.30
464.05	4692.77
464.23	4578.09
464.41	4896.40
464.59	4716.18
464.78	4851.93
464.96	4816.82
465.14	4777.03
465.32	5001.72
465.50	4863.63
465.69	4858.95
465.87	4910.44
466.05	4889.38
466.23	4786.40
466.41	5008.75
466.60	4990.02
466.78	4835.55
466.96	4922.15
467.14	5118.75
467.32	4966.62
467.51	5034.49
467.69	4931.51
467.87	5025.13
468.05	5210.03
468.23	5078.96
468.41	5067.26
468.60	5013.43
468.78	5217.05
468.96	5020.45
469.14	5088.32
469.32	5275.57
469.50	4945.55
469.69	5289.61
469.87	5341.10
470.05	5263.86
470.23	5329.40
470.41	5174.92
470.59	5451.11
470.77	5226.42
470.95	5350.46
471.14	5446.43
471.32	5364.51
471.50	5645.37
471.68	5455.79
471.86	5380.89
472.04	5659.42
472.22	5582.18
472.40	5518.98
472.58	5617.29
472.77	5696.86
472.95	5816.23
473.13	5921.56
473.31	5624.31
473.49	5724.95
473.67	5645.37
473.85	5877.09
474.03	5753.04
474.21	5762.40
474.39	5888.79
474.57	5879.43
474.75	5919.21
474.93	5902.83
475.12	6010.50
475.30	6127.52
475.48	6129.86
475.66	6097.10
475.84	6125.18
476.02	6181.35
476.20	6214.12
476.38	6410.73
476.56	6492.65
476.74	6382.64
476.92	6392.00
477.10	6569.88
477.28	6483.28
477.46	6473.92
477.64	6609.67
477.82	6513.71
478.00	6623.72
478.18	6808.62
478.36	6899.90
478.54	6841.39
478.72	6939.69
478.90	6848.41
479.08	6867.13
479.26	7098.84
479.44	7255.66
479.62	7159.70
479.80	7309.49
479.98	7417.16
480.16	7288.43
480.34	7382.05
480.52	7442.90
480.70	7316.51
480.88	7536.52
481.06	7623.12
481.24	7531.84
481.41	7735.47
481.59	7861.86
481.77	7854.84
481.95	7850.16
482.13	7971.86
482.31	7878.24
482.49	7978.89
482.67	8063.15
482.85	8248.05
483.03	8203.58
483.21	8484.44
483.39	8372.10
483.57	8484.44
483.74	8362.73
483.92	8439.97
484.10	8557.00
484.28	8802.75
484.46	9090.64
484.64	8957.23
484.82	8732.54
485.00	8854.25
485.18	9029.79
485.35	9352.78
485.53	9289.59
485.71	9282.56
485.89	9343.42
486.07	9111.71
486.25	9273.20
486.43	9476.83
486.61	9444.06
486.78	9640.67
486.96	9743.65
487.14	9809.19
487.32	9797.48
487.50	9984.73
487.68	10104.09
487.85	10153.24
488.03	9987.07
488.21	10218.78
488.39	10333.47
488.57	10415.38
488.75	10415.38
488.92	10483.26
489.10	10558.16
489.28	10998.18
489.46	10974.77
489.64	10820.30
489.81	11021.58
489.99	10888.17
490.17	10995.84
490.35	11363.30
490.53	11309.47
490.70	11463.94
490.88	11316.49
491.06	11543.52
491.24	11335.21
491.41	11660.55
491.59	11714.38
491.77	11709.70
491.95	11784.60
492.13	11946.09
492.30	12109.93
492.48	12072.48
492.66	12287.81
492.84	12084.19
493.01	12442.29
493.19	12271.43
493.37	12493.78
493.54	12348.67
493.72	12791.03
493.90	12395.48
494.08	12823.80
494.25	13135.09
494.43	13074.23
494.61	13184.24
494.79	13048.49
494.96	13146.79
495.14	12870.61
495.32	13156.15
495.49	13156.15
495.67	13245.09
495.85	13411.27
496.02	13551.70
496.20	13781.07
496.38	13940.23
496.55	13685.11
496.73	14005.77
496.91	13682.77
497.09	13820.86
497.26	14200.03
497.44	14029.17
497.62	14078.32
497.79	14160.24
497.97	14406.00
498.14	14471.53
498.32	14401.32
498.50	14457.49
498.67	14705.59
498.85	14642.39
499.03	14862.40
499.20	14677.50
499.38	14689.20
499.56	15000.49
499.73	15026.24
499.91	15208.80
500.08	15126.88
500.26	15304.76
500.44	15009.86
500.61	15225.18
500.79	15171.35
500.97	15426.47
501.14	15707.34
501.32	15613.71
501.49	15286.04
501.67	15641.80
501.84	15646.48
502.02	15391.36
502.20	15836.06
502.37	15571.58
502.55	15719.04
502.72	15747.12
502.90	15761.17
503.07	15810.32
503.25	15967.13
503.43	16102.89
503.60	16208.21
503.78	16063.10
503.95	16212.89
504.13	16334.60
504.30	16400.13
504.48	16367.37
504.65	16718.45
504.83	16542.91
505.01	16545.25
505.18	16460.99
505.36	16781.64
505.53	16582.70
505.71	16695.04
505.88	16580.36
506.06	16688.02
506.23	16690.36
506.41	16692.70
506.58	17149.11
506.76	17397.20
506.93	17121.02
507.11	17022.72
507.28	17046.12
507.46	17151.45
507.63	17200.60
507.81	17577.42
507.98	17436.99
508.16	17511.89
508.33	17528.27
508.50	17497.84
508.68	17542.32
508.85	17989.36
509.03	17453.37
509.20	17858.29
509.38	17951.91
509.55	18164.90
509.73	18195.32
509.90	17949.57
510.08	17689.77
510.25	18029.15
510.42	18401.29
510.60	18551.09
510.77	18171.92
510.95	18239.79
511.12	18441.08
511.30	18307.67
511.47	18209.37
511.64	18576.83
511.82	18623.64
511.99	18497.25
512.17	18768.76
512.34	18607.26
512.51	18700.88
512.69	19005.15
512.86	18827.27
513.04	19108.13
513.21	18977.06
513.38	19215.80
513.56	19159.63
513.73	18904.51
513.90	19077.71
514.08	19150.26
514.25	19300.06
514.43	19101.11
514.60	19255.59
514.77	19384.32
514.95	19271.97
515.12	19433.47
515.29	19414.74
515.47	19653.48
515.64	19716.67
515.81	19599.65
515.99	19852.42
516.16	20093.50
516.33	19936.68
516.51	19864.13
516.68	20013.92
516.85	19646.46
517.03	20107.54
517.20	20098.18
517.37	20105.20
517.54	20095.84
517.72	19908.60
517.89	20222.23
518.06	20255.00
518.24	20072.43
518.41	20023.28
518.58	20201.16
518.75	20102.86
518.93	20465.64
519.10	20542.88
519.27	20496.07
519.45	20439.90
519.62	20552.24
519.79	20615.44
519.96	20851.83
520.14	21046.10
520.31	20751.19
520.48	20943.11
520.65	20929.07
520.83	20828.43
521.00	21006.31
521.17	21003.97
521.34	21120.99
521.52	21104.61
521.69	21027.37
521.86	20971.20
522.03	21116.31
522.20	21703.79
522.38	21205.25
522.55	21256.75
522.72	21469.73
522.89	21245.04
523.07	21788.05
523.24	21385.47
523.41	21699.11
523.58	21432.29
523.75	21589.10
523.92	21678.04
524.10	21521.23
524.27	21989.33
524.44	21612.51
524.61	22047.85
524.78	22211.68
524.96	21968.27
525.13	22230.41
525.30	22508.93
525.47	21825.50
525.64	22040.82
525.81	22094.66
525.98	22258.49
526.16	22417.65
526.33	22104.02
526.50	22410.63
526.67	21804.43
526.84	22373.18
527.01	22141.47
527.18	22677.45
527.36	22333.39
527.53	22504.25
527.70	22768.73
527.87	22920.87
528.04	22703.20
528.21	22773.41
528.38	22768.73
528.55	22745.33
528.72	22593.19
528.89	22754.69
529.07	22897.46
529.24	22850.65
529.41	23213.43
529.58	22815.54
529.75	22972.36
529.92	23264.92
530.09	23056.62
530.26	23021.51
530.43	23082.36
530.60	23108.11
530.77	22906.82
530.94	23531.75
531.11	23260.24
531.28	23274.29
531.46	23278.97
531.63	23370.25
531.80	23405.36
531.97	23611.32
532.14	23473.23
532.31	23702.61
532.48	23585.58
532.65	23473.23
532.82	23447.49
532.99	23557.49
533.16	23349.18
533.33	24379.02
533.50	24049.00
533.67	24002.19
533.84	23707.29
534.01	23866.44
534.18	23800.91
534.35	23833.68
534.52	23662.82
534.69	24053.69
534.86	23957.72
535.03	23903.89
535.20	24098.16
535.37	24002.19
535.54	24470.30
535.71	23908.57
535.88	24369.66
536.05	24102.84
536.22	24491.37
536.38	24369.66
536.55	24231.57
536.72	24493.71
536.89	24224.54
537.06	24491.37
537.23	24498.39
537.40	24556.90
537.57	24493.71
537.74	24449.24
537.91	24421.15
538.08	24945.43
538.25	24655.20
538.42	24596.69
538.59	24992.24
538.75	24542.86
538.92	24629.46
539.09	24795.64
539.26	24797.98
539.43	24826.06
539.60	25069.48
539.77	24912.66
539.94	24982.88
540.11	24561.58
540.28	24959.47
540.44	24854.15
540.61	24879.89
540.78	24966.49
540.95	25436.94
541.12	25017.99
541.29	25322.26
541.46	25458.01
541.62	25238.00
541.79	25081.18
541.96	24734.78
542.13	25151.40
542.30	25448.64
542.47	25490.77
542.63	25443.96
542.80	25741.21
542.97	25926.11
543.14	26164.85
543.31	25317.57
543.48	25247.36
543.64	25919.09
543.81	26071.23
543.98	26132.08
544.15	26019.74
544.32	26125.06
544.48	25975.27
544.65	25790.36
544.82	25858.24
544.99	25579.71
545.16	25891.01
545.32	25853.56
545.49	26085.27
545.66	26139.10
545.83	26026.76
546.00	26188.25
546.16	26082.93
546.33	26209.32
546.50	26061.87
546.67	26157.83
546.83	26370.82
547.00	25991.65
547.17	26574.44
547.34	26136.76
547.50	26497.20
547.67	26532.31
547.84	26443.37
548.00	26239.75
548.17	26464.44
548.34	26565.08
548.51	26597.85
548.67	27012.12
548.84	26691.47
549.01	26705.51
549.18	26705.51
549.34	26338.05
549.51	26953.61
549.68	26309.96
549.84	26473.80
550.01	27171.28
550.18	26639.98
550.34	26773.39
550.51	26888.07
550.68	26883.39
550.84	26794.45
551.01	27002.76
551.18	26934.88
551.34	26761.69
551.51	26932.54
551.68	26845.94
551.84	27124.47
552.01	26738.28
552.18	27112.77
552.34	27084.68
552.51	26930.20
552.68	27166.60
552.84	26787.43
553.01	27307.03
553.18	27236.81
553.34	27253.20
553.51	27171.28
553.67	27452.14
553.84	27276.60
554.01	27417.04
554.17	27424.06
554.34	27367.88
554.51	27484.91
554.67	27571.51
554.84	27545.76
555.00	27407.67
555.17	27475.55
555.33	27349.16
555.50	27716.62
555.67	27232.13
555.83	27417.04
556.00	27660.45
556.16	27578.53
556.33	27583.21
556.50	27342.14
556.66	27847.69
556.83	27765.78
556.99	28004.51
557.16	27819.61
557.32	27758.75
557.49	27936.63
557.65	27421.72
557.82	27812.59
557.98	27819.61
558.15	27845.35
558.32	27901.53
558.48	27754.07
558.65	27758.75
558.81	28011.53
558.98	27997.49
559.14	27906.21
559.31	27824.29
559.47	27950.68
559.64	27782.16
559.80	27983.44
559.97	28149.62
560.13	28053.66
560.30	28158.99
560.46	28107.49
560.63	28175.37
560.79	28130.90
560.96	28374.31
561.12	27866.42
561.29	28084.09
561.45	28041.96
561.61	28203.46
561.78	28336.87
561.94	28376.66
562.11	28503.04
562.27	28339.21
562.44	28297.08
562.60	28191.75
562.77	28226.86
562.93	28067.70
563.10	28467.94
563.26	28584.96
563.42	28507.72
563.59	28503.04
563.75	28388.36
563.92	28634.11
564.08	28151.96
564.24	28311.12
564.41	28116.86
564.57	28025.57
564.74	28294.74
564.90	28638.80
565.07	28142.60
565.23	28343.89
565.39	28299.42
565.56	28381.34
565.72	28435.17
565.88	28397.72
566.05	28198.77
566.21	28411.76
566.38	28271.33
566.54	28346.23
566.70	28615.39
566.87	28772.21
567.03	28531.13
567.19	29219.25
567.36	28957.11
567.52	28238.56
567.68	28978.17
567.85	28512.41
568.01	28917.32
568.17	28107.49
568.34	28760.50
568.50	28809.65
568.66	28957.11
568.83	28872.85
568.99	28617.73
569.15	28706.67
569.32	28479.64
569.48	28706.67
569.64	28840.08
569.81	28554.54
569.97	28781.57
570.13	29027.32
570.30	28847.10
570.46	28952.43
570.62	28811.99
570.78	28875.19
570.95	28690.29
571.11	28790.93
571.27	28669.22
571.43	28538.15
571.60	28987.53
571.76	28622.41
571.92	28723.05
572.09	28842.42
572.25	28725.39
572.41	28652.84
572.57	28704.33
572.74	28943.06
572.90	28348.57
573.06	28531.13
573.22	28828.38
573.38	28847.10
573.55	28664.54
573.71	29170.10
573.87	29029.66
574.03	29151.37
574.20	28833.06
574.36	28755.82
574.52	29202.86
574.68	29022.64
574.84	28844.76
575.01	29034.35
575.17	28882.21
575.33	28910.30
575.49	29062.43
575.65	29223.93
575.82	29017.96
575.98	28699.65
576.14	29057.75
576.30	28854.12
576.46	29076.48
576.62	28966.47
576.79	28847.10
576.95	28470.28
577.11	28877.53
577.27	28975.83
577.43	29277.76
577.59	28758.16
577.75	28975.83
577.92	28371.97
578.08	28725.39
578.24	28907.96
578.40	28861.15
578.56	28877.53
578.72	29184.14
578.88	29273.08
579.04	29472.03
579.21	28856.46
579.37	28936.04
579.53	29252.02
579.69	29216.91
579.85	28781.57
580.01	28957.11
580.17	29064.77
580.33	28945.41
580.49	29017.96
580.65	29001.58
580.82	29427.56
580.98	29043.71
581.14	29280.10
581.30	29366.70
581.46	29266.06
581.62	28947.75
581.78	28774.55
581.94	28982.85
582.10	28823.70
582.26	29076.48
582.42	29062.43
582.58	29336.27
582.74	29156.05
582.90	29507.13
583.06	29282.44
583.22	29282.44
583.38	29116.26
583.54	29174.78
583.70	28912.64
583.86	29205.20
584.02	28669.22
584.18	29427.56
584.34	29076.48
584.50	29362.02
584.66	29743.53
584.82	28914.98
584.98	29308.19
585.14	29198.18
585.30	28858.81
585.46	29076.48
585.62	28861.15
585.78	28526.45
585.94	29216.91
586.10	29455.64
586.26	29142.01
586.42	29113.92
586.58	29380.74
586.74	29109.24
586.90	28821.36
587.06	28856.46
587.22	29252.02
587.38	29226.27
587.54	28931.36
587.70	29745.87
587.86	29359.68
588.02	29443.94
588.18	29219.25
588.34	29226.27
588.49	29514.16
588.65	29095.20
588.81	29130.31
588.97	29230.95
589.13	29221.59
589.29	29553.94
589.45	29457.98
589.61	29479.05
589.77	29647.57
589.93	29692.04
590.08	29624.16
590.24	29685.01
590.40	29097.54
590.56	29441.60
590.72	29216.91
590.88	29308.19
591.04	29254.36
591.20	29748.21
591.35	29518.84
591.51	30099.29
591.67	29907.37
591.83	30064.18
591.99	29624.16
592.15	29582.03
592.31	29247.33
592.46	29427.56
592.62	29212.23
592.78	29563.31
592.94	29715.44
593.10	29436.92
593.26	29642.88
593.41	29453.30
593.57	29626.50
593.73	29731.83
593.89	29947.15
594.05	29844.17
594.20	29331.59
594.36	29591.39
594.52	29380.74
594.68	29530.54
594.84	29366.70
594.99	29621.82
595.15	29748.21
595.31	29577.35
595.47	29645.23
595.62	29572.67
595.78	29867.58
595.94	29593.73
596.10	29401.81
596.25	29731.83
596.41	29750.55
596.57	29539.90
596.73	29476.71
596.88	29495.43
597.04	29685.01
597.20	29745.87
597.36	29731.83
597.51	29556.28
597.67	29795.02
597.83	29640.54
597.99	29544.58
598.14	29729.48
598.30	29439.26
598.46	29268.40
598.61	30045.46
598.77	29902.68
598.93	29912.05
599.09	29986.94
599.24	29998.65
599.40	29963.54
599.56	29881.62
599.71	29851.19
599.87	29919.07
600.03	29284.78
600.18	29991.62
600.34	29598.41
600.50	29706.08
600.65	29680.33
600.81	30073.54
600.97	29750.55
601.12	29954.18
601.28	29818.42
601.44	29736.51
601.59	30078.22
601.75	29626.50
601.91	29860.55
602.06	29586.71
602.22	29799.70
602.37	29755.23
602.53	29820.77
602.69	29806.72
602.84	29998.65
603.00	29518.84
603.16	29886.30
603.31	29963.54
603.47	29673.31
603.62	29797.36
603.78	29638.20
603.94	29418.19
604.09	29504.79
604.25	29254.36
604.40	29570.33
604.56	29766.93
604.71	30064.18
604.87	29766.93
605.03	29776.30
605.18	29780.98
605.34	29708.42
605.49	29280.10
605.65	29832.47
605.80	29483.73
605.96	29240.31
606.12	29310.53
606.27	29687.36
606.43	29654.59
606.58	29579.69
606.74	29759.91
606.89	30064.18
607.05	29591.39
607.20	29500.11
607.36	29724.80
607.51	29436.92
607.67	29565.65
607.82	29446.28
607.98	29383.09
608.13	29462.66
608.29	29745.87
608.44	29610.12
608.60	29294.14
608.75	29586.71
608.91	29823.11
609.06	29083.50
609.22	29855.87
609.37	29273.08
609.53	29195.84
609.68	29514.16
609.84	29317.55
609.99	29523.52
610.15	29092.86
610.30	29490.75
610.46	29507.13
610.61	29446.28
610.76	29762.25
610.92	29507.13
611.07	29305.85
611.23	29317.55
611.38	29376.06
611.54	29366.70
611.69	29214.57
611.84	29174.78
612.00	29493.09
612.15	29560.97
612.31	29502.45
612.46	29032.00
612.62	29722.46
612.77	29383.09
612.92	29216.91
613.08	28973.49
613.23	29237.97
613.39	29200.52
613.54	28725.39
613.69	29125.63
613.85	28996.90
614.00	28826.04
614.15	29289.46
614.31	28957.11
614.46	29266.06
614.62	29221.59
614.77	29392.45
614.92	29172.44
615.08	29074.13
615.23	29209.89
615.38	29123.29
615.54	28685.61
615.69	28884.55
615.84	29130.31
616.00	29151.37
616.15	28968.81
616.30	29137.33
616.46	28453.89
616.61	29015.62
616.76	29303.51
616.92	28938.38
617.07	28809.65
617.22	28477.30
617.37	28687.95
617.53	28758.16
617.68	29032.00
617.83	28765.18
617.99	28599.01
618.14	28919.66
618.29	29001.58
618.45	28989.88
618.60	28510.07
618.75	28940.72
618.90	28463.25
619.06	29024.98
619.21	28453.89
619.36	28952.43
619.51	28533.47
619.67	28421.13
619.82	28500.70
619.97	28973.49
620.12	28386.02
620.28	28229.20
620.43	28678.58
620.58	28680.92
620.73	28788.59
620.89	28872.85
621.04	28903.28
621.19	28472.62
621.34	28608.37
621.49	28044.30
621.65	28400.06
621.80	28460.91
621.95	27990.47
622.10	28524.11
622.25	28058.34
622.41	28095.79
622.56	28704.33
622.71	28552.20
622.86	28629.43
623.01	28322.82
623.16	28058.34
623.32	28002.17
623.47	28203.46
623.62	28215.16
623.77	27990.47
623.92	28196.43
624.07	28404.74
624.23	28203.46
624.38	28254.95
624.53	28236.22
624.68	28631.77
624.83	28224.52
624.98	28175.37
625.13	28112.17
625.29	28407.08
625.44	27873.44
625.59	27871.10
625.74	27578.53
625.89	28170.69
626.04	27810.25
626.19	28025.57
626.34	27660.45
626.49	27674.49
626.65	28018.55
626.80	28018.55
626.95	28086.43
627.10	27861.74
627.25	27894.50
627.40	27660.45
627.55	27772.80
627.70	27826.63
627.85	27915.57
628.00	27321.07
628.15	27882.80
628.30	27454.48
628.45	27711.94
628.60	27489.59
628.76	27964.72
628.91	27452.14
629.06	27641.73
629.21	27414.69
629.36	27484.91
629.51	27669.81
629.66	27487.25
629.81	27505.98
629.96	27695.56
630.11	27454.48
630.26	27243.84
630.41	27412.35
630.56	27075.32
630.71	27065.96
630.86	27419.38
631.01	27847.69
631.16	27323.41
631.31	27225.11
631.46	27152.55
631.61	27569.17
631.76	27005.10
631.91	27255.54
632.06	27204.05
632.21	27419.38
632.36	27295.33
632.51	27112.77
632.66	27342.14
632.81	27344.48
632.96	27618.32
633.10	27171.28
633.25	27119.79
633.40	27248.52
633.55	27496.61
633.70	27115.11
633.85	26712.53
634.00	26930.20
634.15	26628.27
634.30	27005.10
634.45	26881.05
634.60	26864.67
634.75	26801.47
634.90	26960.63
635.05	26834.24
635.19	26904.46
635.34	26925.52
635.49	27040.21
635.64	26820.20
635.79	27002.76
635.94	26778.07
636.09	26904.46
636.24	26735.94
636.39	26974.67
636.53	26529.97
636.68	26288.90
636.83	26410.60
636.98	26960.63
637.13	26602.53
637.28	26551.04
637.43	27154.90
637.57	26544.02
637.72	26618.91
637.87	26532.31
638.02	26766.37
638.17	26387.20
638.32	26593.17
638.46	26195.28
638.61	26405.92
638.76	26164.85
638.91	26288.90
639.06	26532.31
639.20	26419.97
639.35	26309.96
639.50	26300.60
639.65	26518.27
639.80	26412.95
639.94	26602.53
640.09	26586.15
640.24	26431.67
640.39	26333.37
640.54	26155.49
640.68	26195.28
640.83	26326.35
640.98	25853.56
641.13	26017.40
641.27	26169.53
641.42	26291.24
641.57	26244.43
641.72	26450.39
641.86	26188.25
642.01	26106.34
642.16	26092.29
642.31	26103.99
642.45	26085.27
642.60	25642.91
642.75	25839.51
642.90	25694.40
643.04	25654.61
643.19	25944.84
643.34	26099.31
643.48	25844.20
643.63	25680.36
643.78	25778.66
643.93	25977.61
644.07	26029.10
644.22	26050.16
644.37	25785.68
644.51	26026.76
644.66	25638.23
644.81	25841.85
644.95	25933.14
645.10	25891.01
645.25	25916.75
645.39	25645.25
645.54	25736.53
645.69	26071.23
645.83	25628.87
645.98	25832.49
646.13	25820.79
646.27	25832.49
646.42	25598.44
646.57	25425.24
646.71	25680.36
646.86	25764.62
647.00	25825.47
647.15	25556.31
647.30	25785.68
647.44	25333.96
647.59	25165.44
647.74	25291.83
647.88	25025.01
648.03	25249.70
648.17	25663.97
648.32	25710.78
648.47	25422.90
648.61	25429.92
648.76	25507.16
648.90	25207.57
649.05	25209.91
649.20	25483.75
649.34	25287.15
649.49	25064.80
649.63	24849.47
649.78	25207.57
649.92	24980.54
650.07	25235.66
650.21	25067.14
650.36	25647.59
650.51	25247.36
650.65	24912.66
650.80	25226.29
650.94	25125.65
651.09	25205.23
651.23	24989.90
651.38	24835.42
651.52	24886.92
651.67	24893.94
651.81	24919.68
651.96	25027.35
652.10	25200.55
652.25	24980.54
652.39	25170.12
652.54	25060.12
652.68	25060.12
652.83	25078.84
652.97	25446.30
653.12	24936.07
653.26	24945.43
653.41	25291.83
653.55	24985.22
653.70	24746.48
653.84	24559.24
653.99	24837.76
654.13	24783.93
654.27	24680.95
654.42	24758.19
654.56	24814.36
654.71	24776.91
654.85	24589.67
655.00	25039.05
655.14	24673.93
655.29	24528.81
655.43	25067.14
655.57	24814.36
655.72	24734.78
655.86	24538.18
656.01	24627.12
656.15	24343.91
656.30	24161.35
656.44	24287.74
656.58	24460.94
656.73	24372.00
656.87	24432.85
657.01	24587.33
657.16	24362.64
657.30	24723.08
657.45	24390.72
657.59	24318.17
657.73	24379.02
657.88	24362.64
658.02	24318.17
658.16	24261.99
658.31	24109.86
658.45	23899.21
658.60	24421.15
658.74	23852.40
658.88	24114.54
659.03	24322.85
659.17	24332.21
659.31	24149.65
659.46	24311.14
659.60	24006.87
659.74	24306.46
659.89	24063.05
660.03	24058.37
660.17	24037.30
660.32	23819.63
660.46	24051.34
660.60	23644.09
660.74	24018.58
660.89	23744.73
661.03	23627.71
661.17	23510.68
661.32	23477.91
661.46	23468.55
661.60	23971.77
661.74	23618.35
661.89	23590.26
662.03	23920.28
662.17	23742.39
662.31	23367.91
662.46	23594.94
662.60	23461.53
662.74	23288.33
662.88	23585.58
663.03	23091.73
663.17	23042.57
663.31	23101.09
663.45	23356.21
663.60	23365.57
663.74	23035.55
663.88	22855.33
664.02	23009.81
664.17	23304.71
664.31	23077.68
664.45	23049.60
664.59	23440.47
664.73	23311.74
664.88	22890.44
665.02	22766.39
665.16	22995.76
665.30	22834.27
665.44	22927.89
665.59	22930.23
665.73	22869.37
665.87	22750.01
666.01	22890.44
666.15	22958.31
666.29	22595.53
666.44	22623.62
666.58	22611.92
666.72	22799.16
666.86	22593.19
667.00	22569.79
667.14	22202.32
667.28	22345.09
667.43	22630.64
667.57	22431.69
667.71	22277.22
667.85	22450.42
667.99	22066.57
668.13	22520.63
668.27	22274.88
668.41	22527.66
668.56	21879.33
668.70	22443.40
668.84	21905.07
668.98	22185.94
669.12	21965.93
669.26	22251.47
669.40	21994.01
669.54	22082.95
669.68	21766.98
669.82	21837.20
669.96	21682.72
670.10	21806.77
670.25	21696.77
670.39	21668.68
670.53	21579.74
670.67	21469.73
670.81	21825.50
670.95	21673.36
671.09	21706.13
671.23	21694.43
671.37	21724.85
671.51	21443.99
671.65	21825.50
671.79	21467.39
671.93	21603.14
672.07	21284.83
672.21	21275.47
672.35	21015.67
672.49	20819.07
672.63	20943.11
672.77	21156.10
672.91	20936.09
673.05	21036.74
673.19	20929.07
673.33	21043.76
673.47	20865.88
673.61	20905.66
673.75	20910.35
673.89	21043.76
674.03	20465.64
674.17	20648.21
674.31	20613.10
674.45	20521.82
674.59	20393.09
674.73	20269.04
674.87	20203.50
675.01	20512.46
675.15	20400.11
675.29	20397.77
675.43	20182.44
675.56	20402.45
675.70	20472.67
675.84	20374.36
675.98	19786.89
676.12	20304.15
676.26	20460.96
676.40	20329.89
676.54	20100.52
676.68	20011.58
676.82	19641.78
676.96	19747.10
677.10	19978.81
677.23	19550.49
677.37	19697.95
677.51	19421.77
677.65	19477.94
677.79	19442.83
677.93	19204.10
678.07	19300.06
678.21	19133.88
678.34	19131.54
678.48	19096.43
678.62	19194.73
678.76	19049.62
678.90	19044.94
679.04	18956.00
679.18	18913.87
679.31	18625.98
679.45	18930.25
679.59	18513.64
679.73	18665.77
679.87	18574.49
680.00	18597.90
680.14	18611.94
680.28	18373.21
680.42	18459.81
680.56	18487.89
680.70	18473.85
680.83	18527.68
680.97	18284.26
681.11	18204.69
681.25	18448.10
681.39	17914.46
681.52	18382.57
681.66	18223.41
681.80	17865.31
681.94	17963.61
682.07	17839.56
682.21	17556.36
682.35	17647.64
682.49	17722.54
682.62	17364.43
682.76	17429.97
682.90	17846.58
683.04	17593.81
683.17	17282.52
683.31	17657.00
683.45	17504.87
683.59	17404.22
683.72	17198.26
683.86	17144.42
684.00	17188.89
684.13	17186.55
684.27	16945.48
684.41	17095.27
684.55	16868.24
684.68	16566.31
684.82	16821.43
684.96	16615.46
685.09	16379.07
685.23	16582.70
685.37	16353.32
685.50	16578.01
685.64	16320.56
685.78	16765.26
685.91	16613.12
686.05	16346.30
686.19	16425.88
686.32	16060.76
686.46	15887.56
686.60	15754.15
686.73	16056.08
686.87	16025.65
687.01	15922.66
687.14	15922.66
687.28	15728.40
687.42	15910.96
687.55	15857.13
687.69	15616.05
687.82	15592.65
687.96	15733.08
688.10	15566.90
688.23	15424.13
688.37	15311.78
688.50	15257.95
688.64	15391.36
688.78	15264.97
688.91	15080.07
689.05	15028.58
689.18	14920.92
689.32	14956.02
689.46	15126.88
689.59	14974.75
689.73	15124.54
689.86	14773.46
690.00	14803.89
690.13	15016.88
690.27	14743.03
690.41	14927.94
690.54	14717.29
690.68	14644.73
690.81	14621.33
690.95	14380.25
691.08	14600.26
691.22	14384.93
691.35	14534.73
691.49	14417.70
691.62	14132.15
691.76	14054.92
691.89	14040.87
692.03	14024.49
692.16	13973.00
692.30	13891.08
692.43	13701.50
692.57	13870.01
692.70	13420.63
692.84	13888.74
692.97	13680.43
693.11	13565.74
693.24	13685.11
693.38	13823.20
693.51	13577.45
693.65	13729.58
693.78	13329.35
693.92	13355.10
694.05	13406.59
694.19	13064.87
694.32	13027.42
694.45	13212.32
694.59	12926.78
694.72	13046.15
694.86	12938.48
694.99	12606.13
695.13	12816.77
695.26	12765.28
695.39	12744.22
695.53	12772.30
695.66	12608.47
695.80	12737.20
695.93	12648.26
696.07	12636.55
696.20	12706.77
696.33	12369.73
696.47	12423.56
696.60	12503.14
696.73	12348.67
696.87	12334.62
697.00	12425.90
697.14	12060.78
697.27	12156.74
697.40	11946.09
697.54	11995.25
697.67	11829.07
697.80	11770.55
697.94	11861.84
698.07	11623.10
698.21	11637.14
698.34	11737.79
698.47	11726.08
698.61	11775.24
698.74	11719.06
698.87	11646.51
699.01	11548.20
699.14	11529.48
699.27	11243.93
699.40	11222.87
699.54	11503.73
699.67	11136.27
699.80	11124.57
699.94	11117.54
700.07	11197.12
700.20	11007.54
700.34	10764.12
700.47	10750.08
700.60	10897.53
700.73	10836.68
700.87	10878.81
701.00	11035.63
701.13	10855.40
701.26	10698.59
701.40	11023.92
701.53	10759.44
701.66	10668.16
701.79	10668.16
701.93	10574.54
702.06	10370.91
702.19	10494.96
702.32	10389.64
702.46	10239.84
702.59	10228.14
702.72	10061.96
702.85	10017.49
702.99	10087.71
703.12	10087.71
703.25	9998.77
703.38	9954.30
703.51	10146.22
703.65	9940.26
703.78	9745.99
703.91	9753.01
704.04	9872.38
704.17	9841.95
704.31	9706.20
704.44	9451.08
704.57	9692.16
704.70	9668.75
704.83	9420.66
704.96	9696.84
705.10	9207.67
705.23	9376.19
>>>>>End Processed Spectral Data<<<<<
