SpectraSuite Data File
++++++++++++++++++++++++++++++++++++
Date: Fri Oct 18 13:58:01 GMT-05:00 2013
User: bianchi
Dark Spectrum Present: No
Reference Spectrum Present: No
Number of Sampled Component Spectra: 1
Spectrometers: USB2+H05261
Integration Time (usec): 50000 (USB2+H05261)
Spectra Averaged: 1 (USB2+H05261)
Boxcar Smoothing: 0 (USB2+H05261)
Correct for Electrical Dark: No (USB2+H05261)
Strobe/Lamp Enabled: No (USB2+H05261)
Correct for Detector Non-linearity: No (USB2+H05261)
Correct for Stray Light: No (USB2+H05261)
Number of Pixels in Processed Spectrum: 2048
>>>>>Begin Processed Spectral Data<<<<<
365.73	0.00
365.92	0.00
366.12	0.00
366.32	0.00
366.52	0.00
366.72	0.00
366.91	0.00
367.11	0.00
367.31	0.00
367.51	0.00
367.70	0.00
367.90	0.00
368.10	0.00
368.30	0.00
368.49	0.00
368.69	0.00
368.89	0.00
369.09	0.00
369.28	0.00
369.48	0.00
369.68	0.00
369.87	0.00
370.07	0.00
370.27	0.00
370.47	0.00
370.66	21.06
370.86	112.35
371.06	119.37
371.25	126.39
371.45	124.05
371.65	184.90
371.84	180.22
372.04	161.50
372.24	110.01
372.44	168.52
372.63	154.48
372.83	203.63
373.03	163.84
373.22	222.35
373.42	154.48
373.62	217.67
373.81	248.10
374.01	264.48
374.21	224.69
374.40	231.71
374.60	177.88
374.79	238.73
374.99	313.63
375.19	266.82
375.38	269.16
375.58	217.67
375.78	231.71
375.97	273.84
376.17	297.25
376.37	287.89
376.56	264.48
376.76	187.24
376.95	212.99
377.15	304.27
377.35	271.50
377.54	264.48
377.74	227.03
377.93	276.18
378.13	264.48
378.33	304.27
378.52	292.57
378.72	304.27
378.91	297.25
379.11	276.18
379.31	255.12
379.50	278.52
379.70	299.59
379.89	292.57
380.09	299.59
380.28	269.16
380.48	322.99
380.68	264.48
380.87	245.76
381.07	299.59
381.26	327.68
381.46	308.95
381.65	348.74
381.85	304.27
382.04	327.68
382.24	325.33
382.43	304.27
382.63	390.87
382.83	360.44
383.02	334.70
383.22	442.36
383.41	334.70
383.61	414.27
383.80	418.96
384.00	306.61
384.19	332.36
384.39	365.12
384.58	421.30
384.78	395.55
384.97	428.32
385.17	381.51
385.36	341.72
385.56	348.74
385.75	367.46
385.95	355.76
386.14	358.10
386.34	315.97
386.53	351.08
386.72	416.62
386.92	400.23
387.11	423.64
387.31	379.17
387.50	461.09
387.70	433.00
387.89	423.64
388.09	409.59
388.28	482.15
388.48	489.17
388.67	451.72
388.86	409.59
389.06	416.62
389.25	491.51
389.45	428.32
389.64	479.81
389.84	566.41
390.03	475.13
390.22	500.87
390.42	524.28
390.61	477.47
390.81	461.09
391.00	468.11
391.19	486.83
391.39	486.83
391.58	550.03
391.78	571.09
391.97	510.24
392.16	477.47
392.36	636.63
392.55	519.60
392.75	484.49
392.94	496.19
393.13	543.00
393.33	573.43
393.52	608.54
393.71	592.16
393.91	592.16
394.10	538.32
394.29	648.33
394.49	627.26
394.68	491.51
394.88	620.24
395.07	636.63
395.26	627.26
395.46	674.07
395.65	585.13
395.84	615.56
396.04	678.76
396.23	699.82
396.42	650.67
396.62	634.29
396.81	709.18
397.00	699.82
397.19	620.24
397.39	720.88
397.58	655.35
397.77	730.25
397.97	678.76
398.16	718.54
398.35	688.12
398.55	702.16
398.74	697.48
398.93	786.42
399.12	713.86
399.32	695.14
399.51	746.63
399.70	702.16
399.90	788.76
400.09	828.55
400.28	821.53
400.47	753.65
400.67	751.31
400.86	830.89
401.05	699.82
401.24	774.72
401.44	849.61
401.63	760.67
401.82	868.34
402.01	887.06
402.21	800.46
402.40	842.59
402.59	788.76
402.78	870.68
402.97	873.02
403.17	823.87
403.36	877.70
403.55	861.32
403.74	964.30
403.93	910.47
404.13	959.62
404.32	863.66
404.51	880.04
404.70	978.34
404.89	880.04
405.09	987.71
405.28	978.34
405.47	959.62
405.66	964.30
405.85	992.39
406.05	952.60
406.24	990.05
406.43	978.34
406.62	1011.11
406.81	1102.39
407.00	973.66
407.20	992.39
407.39	1097.71
407.58	1153.88
407.77	1050.90
407.96	1095.37
408.15	1111.75
408.34	1039.20
408.54	1177.29
408.73	1074.31
408.92	1039.20
409.11	1043.88
409.30	1060.26
409.49	1177.29
409.68	1071.97
409.87	1158.57
410.07	1191.33
410.26	1268.57
410.45	1219.42
410.64	1233.46
410.83	1205.38
411.02	1188.99
411.21	1181.97
411.40	1320.06
411.59	1242.82
411.78	1261.55
411.98	1224.10
412.17	1334.11
412.36	1275.59
412.55	1343.47
412.74	1413.68
412.93	1369.21
413.12	1359.85
413.31	1451.13
413.50	1369.21
413.69	1350.49
413.88	1409.00
414.07	1448.79
414.26	1380.92
414.45	1397.30
414.64	1404.32
414.83	1523.69
415.02	1533.05
415.22	1554.12
415.41	1577.52
415.60	1530.71
415.79	1565.82
415.98	1523.69
416.17	1631.35
416.36	1591.56
416.55	1556.46
416.74	1640.72
416.93	1638.38
417.12	1638.38
417.31	1722.63
417.50	1797.53
417.69	1750.72
417.88	1736.68
418.07	1750.72
418.26	1701.57
418.45	1722.63
418.64	1741.36
418.83	1816.26
419.02	1626.67
419.21	1823.28
419.39	1891.15
419.58	1823.28
419.77	1832.64
419.96	1968.39
420.15	1867.75
420.34	1902.86
420.53	2015.20
420.72	1907.54
420.91	1973.07
421.10	1858.39
421.29	1874.77
421.48	1813.92
421.67	2012.86
421.86	2010.52
422.05	1935.62
422.24	1884.13
422.43	1947.33
422.61	1952.01
422.80	1994.14
422.99	1949.67
423.18	2003.50
423.37	2057.33
423.56	2054.99
423.75	2118.18
423.94	1893.49
424.13	1926.26
424.32	1888.81
424.50	2054.99
424.69	2120.53
424.88	2071.37
425.07	2043.29
425.26	2019.88
425.45	2146.27
425.64	2069.03
425.83	2017.54
426.01	2162.66
426.20	2050.31
426.39	2080.74
426.58	2080.74
426.77	2174.36
426.96	2064.35
427.15	2167.34
427.33	2143.93
427.52	2134.57
427.71	2162.66
427.90	2099.46
428.09	2148.61
428.28	2289.04
428.46	2263.30
428.65	2239.89
428.84	2338.20
429.03	2335.85
429.22	2267.98
429.40	2279.68
429.59	2267.98
429.78	2167.34
429.97	2083.08
430.16	2214.15
430.34	2314.79
430.53	2359.26
430.72	2342.88
430.91	2312.45
431.10	2305.43
431.28	2349.90
431.47	2455.22
431.66	2406.07
431.85	2448.20
432.03	2459.90
432.22	2434.16
432.41	2331.17
432.60	2633.10
432.79	2422.45
432.97	2417.77
433.16	2450.54
433.35	2415.43
433.54	2544.16
433.72	2558.21
433.91	2448.20
434.10	2551.18
434.28	2413.09
434.47	2551.18
434.66	2593.31
434.85	2518.42
435.03	2579.27
435.22	2527.78
435.41	2656.51
435.59	2558.21
435.78	2647.15
435.97	2729.06
436.16	2799.28
436.34	2654.17
436.53	2754.81
436.72	2801.62
436.90	2700.98
437.09	2754.81
437.28	2822.69
437.46	2731.41
437.65	2773.53
437.84	2787.58
438.02	2841.41
438.21	2752.47
438.40	2759.49
438.58	2829.71
438.77	2897.58
438.96	2885.88
439.14	2986.52
439.33	3000.57
439.52	2942.05
439.70	2937.37
439.89	3115.25
440.08	3042.70
440.26	3049.72
440.45	3143.34
440.63	3148.02
440.82	3283.77
441.01	3148.02
441.19	3091.85
441.38	3283.77
441.57	3159.72
441.75	3173.77
441.94	3323.56
442.12	3295.47
442.31	3318.88
442.50	3386.76
442.68	3433.57
442.87	3272.07
443.05	3356.33
443.24	3424.20
443.43	3393.78
443.61	3424.20
443.80	3466.33
443.98	3321.22
444.17	3311.86
444.35	3382.07
444.54	3492.08
444.73	3442.93
444.91	3386.76
445.10	3400.80
445.28	3419.52
445.47	3410.16
445.65	3482.72
445.84	3625.49
446.02	3562.30
446.21	3524.85
446.39	3405.48
446.58	3574.00
446.77	3424.20
446.95	3536.55
447.14	3421.86
447.32	3517.83
447.51	3562.30
447.69	3590.38
447.88	3473.36
448.06	3463.99
448.25	3550.59
448.43	3494.42
448.62	3625.49
448.80	3613.79
448.99	3637.19
449.17	3590.38
449.36	3555.27
449.54	3709.75
449.73	3726.13
449.91	3623.15
450.10	3763.58
450.28	3763.58
450.46	3747.20
450.65	3838.48
450.83	3833.80
451.02	3819.75
451.20	3810.39
451.39	3812.73
451.57	3829.12
451.76	3747.20
451.94	3763.58
452.13	3908.69
452.31	3857.20
452.49	3719.11
452.68	3789.33
452.86	3894.65
453.05	4016.36
453.23	3801.03
453.42	3915.72
453.60	3906.35
453.78	3974.23
453.97	3857.20
454.15	3927.42
454.34	3960.19
454.52	3983.59
454.70	4058.49
454.89	4119.34
455.07	4072.53
455.26	4098.28
455.44	4109.98
455.62	4070.19
455.81	4112.32
455.99	4145.09
456.17	4039.76
456.36	4187.22
456.54	4205.94
456.73	4234.03
456.91	4243.39
457.09	4334.67
457.28	4531.28
457.46	4262.12
457.64	4322.97
457.83	4395.53
458.01	4353.40
458.19	4421.27
458.38	4278.50
458.56	4535.96
458.74	4533.62
458.93	4465.74
459.11	4491.49
459.29	4671.71
459.48	4386.16
459.66	4482.13
459.84	4397.87
460.03	4678.73
460.21	4517.23
460.39	4528.94
460.57	4552.34
460.76	4652.98
460.94	4589.79
461.12	4648.30
461.31	4664.69
461.49	4788.74
461.67	4573.41
461.85	4634.26
462.04	4875.34
462.22	4994.70
462.40	4917.47
462.59	4784.06
462.77	4711.50
462.95	4741.93
463.13	4760.65
463.32	4919.81
463.50	4957.25
463.68	4781.71
463.86	4844.91
464.05	4802.78
464.23	4858.95
464.41	4971.30
464.59	4819.16
464.78	5060.24
464.96	4954.91
465.14	5078.96
465.32	5203.01
465.50	5107.05
465.69	5020.45
465.87	4924.49
466.05	4973.64
466.23	5078.96
466.41	5158.54
466.60	5273.23
466.78	5111.73
466.96	5069.60
467.14	5139.82
467.32	5053.22
467.51	5263.86
467.69	4950.23
467.87	5135.14
468.05	5432.38
468.23	5235.78
468.41	5191.31
468.60	5280.25
468.78	5093.01
468.96	5029.81
469.14	5085.98
469.32	5397.28
469.50	5186.63
469.69	5245.14
469.87	5483.88
470.05	5408.98
470.23	5327.06
470.41	5376.21
470.59	5467.49
470.77	5460.47
470.95	5472.17
471.14	5692.18
471.32	5472.17
471.50	5715.59
471.68	5760.06
471.86	5708.57
472.04	5830.27
472.22	5746.02
472.40	5598.56
472.58	5682.82
472.77	5685.16
472.95	5914.53
473.13	6050.28
473.31	6061.99
473.49	5937.94
473.67	5774.10
473.85	5832.62
474.03	6033.90
474.21	6045.60
474.39	6209.44
474.57	6127.52
474.75	6200.08
474.93	6354.55
475.12	6256.25
475.30	5982.41
475.48	6174.33
475.66	6207.10
475.84	6076.03
476.02	6263.27
476.20	6443.49
476.38	6534.78
476.56	6722.02
476.74	6651.80
476.92	6471.58
477.10	6668.19
477.28	6745.42
477.46	6867.13
477.64	6637.76
477.82	6766.49
478.00	7096.50
478.18	6993.52
478.36	7070.76
478.54	7229.91
478.72	7040.33
478.90	7028.63
479.08	7286.09
479.26	7332.90
479.44	7225.23
479.62	7389.07
479.80	7445.24
479.98	7559.93
480.16	7726.11
480.34	7473.33
480.52	7606.74
480.70	7723.77
480.88	7522.48
481.06	7679.30
481.24	7805.69
481.41	7662.91
481.59	7719.09
481.77	7953.14
481.95	8112.30
482.13	8266.77
482.31	8063.15
482.49	8280.82
482.67	8365.07
482.85	8348.69
483.03	8290.18
483.21	8575.72
483.39	8645.94
483.57	8571.04
483.74	8849.57
483.92	8688.07
484.10	8788.71
484.28	8856.59
484.46	9198.31
484.64	9172.56
484.82	8987.66
485.00	9123.41
485.18	9294.27
485.35	9516.62
485.53	9359.80
485.71	9551.73
485.89	9687.48
486.07	9591.52
486.25	9841.95
486.43	9603.22
486.61	9811.53
486.78	10054.94
486.96	10019.83
487.14	10265.59
487.32	10099.41
487.50	10071.33
487.68	10221.12
487.85	10518.37
488.03	10532.41
488.21	10614.33
488.39	10675.18
488.57	10789.87
488.75	10918.60
488.92	10895.19
489.10	11077.76
489.28	11112.86
489.46	11035.63
489.64	11225.21
489.81	11372.66
489.99	11454.58
490.17	11356.28
490.35	11871.20
490.53	11667.57
490.70	11667.57
490.88	11564.59
491.06	11758.85
491.24	11805.66
491.41	11716.72
491.59	12060.78
491.77	12030.35
491.95	12184.83
492.13	12252.70
492.30	12334.62
492.48	12627.19
492.66	12538.25
492.84	12241.00
493.01	12585.06
493.19	12545.27
493.37	12699.75
493.54	12791.03
493.72	12954.87
493.90	12814.43
494.08	12919.76
494.25	13408.93
494.43	13401.91
494.61	13376.16
494.79	13362.12
494.96	13149.13
495.14	13692.13
495.32	13757.67
495.49	13727.24
495.67	13895.76
495.85	13951.93
496.02	13956.61
496.20	13888.74
496.38	14223.44
496.55	13919.17
496.73	14277.27
496.91	14253.86
497.09	14459.83
497.26	14366.21
497.44	14490.26
497.62	14684.52
497.79	14693.88
497.97	14569.83
498.14	15068.37
498.32	14899.85
498.50	14895.17
498.67	15159.65
498.85	15269.66
499.03	15201.78
499.20	15140.93
499.38	15164.33
499.56	15206.46
499.73	15339.87
499.91	15559.88
500.08	15365.62
500.26	15681.59
500.44	15508.39
500.61	15632.44
500.79	15492.01
500.97	15716.70
501.14	16088.84
501.32	16049.05
501.49	16280.77
501.67	15894.58
501.84	15955.43
502.02	16372.05
502.20	16049.05
502.37	16196.51
502.55	16404.81
502.72	16133.31
502.90	16395.45
503.07	16311.19
503.25	16205.87
503.43	16154.38
503.60	16615.46
503.78	16842.50
503.95	16631.85
504.13	16973.56
504.30	16783.98
504.48	16926.75
504.65	16828.45
504.83	17179.53
505.01	16957.18
505.18	17209.96
505.36	17249.75
505.53	16917.39
505.71	17270.81
505.88	17160.81
506.06	17193.58
506.23	17563.38
506.41	17207.62
506.58	17565.72
506.76	17568.06
506.93	17319.96
507.11	17301.24
507.28	17951.91
507.46	17731.90
507.63	17891.06
507.81	17942.55
507.98	17825.52
508.16	17951.91
508.33	18024.47
508.50	17902.76
508.68	17895.74
508.85	18302.99
509.03	18476.19
509.20	18258.52
509.38	18623.64
509.55	18450.44
509.73	18642.37
509.90	18377.89
510.08	18258.52
510.25	18609.60
510.42	18581.51
510.60	18714.92
510.77	19009.83
510.95	18918.55
511.12	18845.99
511.30	18946.64
511.47	19051.96
511.64	19159.63
511.82	19260.27
511.99	19211.12
512.17	19094.09
512.34	19042.60
512.51	19311.76
512.69	19386.66
512.86	19278.99
513.04	19702.63
513.21	19843.06
513.38	19772.85
513.56	19852.42
513.73	19541.13
513.90	19674.54
514.08	19803.27
514.25	19847.74
514.43	20016.26
514.60	19814.98
514.77	19798.59
514.95	20126.27
515.12	20060.73
515.29	20119.24
515.47	20250.32
515.64	19892.21
515.81	20233.93
515.99	20163.72
516.16	20580.33
516.33	20278.40
516.51	20601.40
516.68	20416.49
516.85	20631.82
517.03	20589.69
517.20	20636.50
517.37	20540.54
517.54	20765.23
517.72	20800.34
517.89	20786.30
518.06	20819.07
518.24	20896.30
518.41	20865.88
518.58	20940.77
518.75	21123.33
518.93	21109.29
519.10	21067.16
519.27	21069.50
519.45	21120.99
519.62	21057.80
519.79	20994.61
519.96	21181.85
520.14	21291.85
520.31	21331.64
520.48	21448.67
520.65	21404.20
520.83	21539.95
521.00	21605.49
521.17	21394.84
521.34	21549.31
521.52	21923.80
521.69	21977.63
521.86	22005.72
522.03	22125.08
522.20	21717.83
522.38	21860.60
522.55	21750.60
522.72	22188.28
522.89	22108.70
523.07	22199.98
523.24	22396.59
523.41	22504.25
523.58	22270.20
523.75	22492.55
523.92	22197.64
524.10	22504.25
524.27	22354.46
524.44	22412.97
524.61	22726.60
524.78	22537.02
524.96	22511.27
525.13	22838.95
525.30	22750.01
525.47	22721.92
525.64	22761.71
525.81	22843.63
525.98	23005.13
526.16	22953.63
526.33	22869.37
526.50	23271.95
526.67	22920.87
526.84	23243.86
527.01	23138.54
527.18	23009.81
527.36	23297.69
527.53	23136.20
527.70	23723.67
527.87	23480.25
528.04	23758.78
528.21	23456.85
528.38	23742.39
528.55	23410.04
528.72	23449.83
528.89	23847.72
529.07	23328.12
529.24	24123.90
529.41	23845.38
529.58	23372.59
529.75	23690.90
529.92	24041.98
530.09	23660.48
530.26	23740.05
530.43	23892.19
530.60	24079.43
530.77	23913.25
530.94	23857.08
531.11	23747.08
531.28	24121.56
531.46	24102.84
531.63	23817.29
531.80	23894.53
531.97	24315.83
532.14	24229.23
532.31	23906.23
532.48	24364.98
532.65	23976.45
532.82	24489.03
532.99	24379.02
533.16	23936.66
533.33	24599.03
533.50	24776.91
533.67	24641.16
533.84	24313.48
534.01	24570.94
534.18	24430.51
534.35	24519.45
534.52	24905.64
534.69	24627.12
534.86	25181.82
535.03	24744.14
535.20	25022.67
535.37	24657.54
535.54	24830.74
535.71	24694.99
535.88	25259.06
536.05	24966.49
536.22	25043.73
536.38	24931.39
536.55	25352.68
536.72	25123.31
536.89	25530.56
537.06	25095.22
537.23	24957.13
537.40	25326.94
537.57	25284.81
537.74	25261.40
537.91	25575.03
538.08	25563.33
538.25	25453.33
538.42	25549.29
538.59	25612.48
538.75	25275.45
538.92	25340.98
539.09	25401.83
539.26	25755.26
539.43	25757.60
539.60	25743.55
539.77	26087.61
539.94	25965.90
540.11	25701.42
540.28	25951.86
540.44	25750.57
540.61	25930.80
540.78	25949.52
540.95	26010.37
541.12	26071.23
541.29	25860.58
541.46	26064.21
541.62	26125.06
541.79	25722.49
541.96	25797.38
542.13	25528.22
542.30	26560.40
542.47	26642.32
542.63	26293.58
542.80	26733.60
542.97	26466.78
543.14	26525.29
543.31	26373.16
543.48	26476.14
543.64	26600.19
543.81	26759.34
543.98	26960.63
544.15	27108.08
544.32	26960.63
544.48	27384.27
544.65	26581.46
544.82	26780.41
544.99	26455.08
545.16	26757.00
545.32	27051.91
545.49	27250.86
545.66	27234.47
545.83	27080.00
546.00	27208.73
546.16	26651.68
546.33	26962.97
546.50	26600.19
546.67	27585.55
546.83	26972.33
547.00	27187.66
547.17	27314.05
547.34	27576.19
547.50	27161.92
547.67	27550.45
547.84	27557.47
548.00	27353.84
548.17	27601.94
548.34	27381.93
548.51	27709.60
548.67	27267.24
548.84	27349.16
549.01	27386.61
549.18	27632.36
549.34	27393.63
549.51	27400.65
549.68	27580.87
549.84	27812.59
550.01	27763.43
550.18	27318.73
550.34	27754.07
550.51	27669.81
550.68	27901.53
550.84	27803.22
551.01	27948.34
551.18	27496.61
551.34	27592.58
551.51	27878.12
551.68	27714.28
551.84	27754.07
552.01	27812.59
552.18	27814.93
552.34	28116.86
552.51	27929.61
552.68	28081.75
552.84	27796.20
553.01	27971.74
553.18	28018.55
553.34	28498.36
553.51	27910.89
553.67	28222.18
553.84	28397.72
554.01	28283.03
554.17	28503.04
554.34	28163.67
554.51	28528.79
554.67	28456.23
554.84	28301.76
555.00	28371.97
555.17	28268.99
555.33	28402.40
555.50	28325.16
555.67	28421.13
555.83	28680.92
556.00	28334.53
556.16	28673.90
556.33	28453.89
556.50	28655.18
556.66	28577.94
556.83	28507.72
556.99	28900.94
557.16	29010.94
557.32	29071.79
557.49	29069.45
557.65	28718.37
557.82	28816.68
557.98	28446.87
558.15	28304.10
558.32	29041.37
558.48	28917.32
558.65	29097.54
558.81	28858.81
558.98	29064.77
559.14	28842.42
559.31	28872.85
559.47	28999.24
559.64	29041.37
559.80	28854.12
559.97	28985.19
560.13	29104.56
560.30	29053.07
560.46	28893.91
560.63	29172.44
560.79	29106.90
560.96	28959.45
561.12	29359.68
561.29	28673.90
561.45	29455.64
561.61	29216.91
561.78	29242.65
561.94	29099.88
562.11	29043.71
562.27	29188.82
562.44	29113.92
562.60	29261.38
562.77	29242.65
562.93	29172.44
563.10	29446.28
563.26	29149.03
563.42	29366.70
563.59	29294.14
563.75	29715.44
563.92	29357.34
564.08	29095.20
564.24	28968.81
564.41	29142.01
564.57	29287.12
564.74	29605.44
564.90	29689.70
565.07	29799.70
565.23	29701.40
565.39	29404.15
565.56	29720.12
565.72	29345.64
565.88	29521.18
566.05	29109.24
566.21	29319.89
566.38	29357.34
566.54	29703.74
566.70	29584.37
566.87	29855.87
567.03	29708.42
567.19	29862.90
567.36	29584.37
567.52	29600.76
567.68	30080.56
567.85	29443.94
568.01	29675.65
568.17	29560.97
568.34	29504.79
568.50	29727.14
568.66	29610.12
568.83	30277.17
568.99	29509.47
569.15	29799.70
569.32	29476.71
569.48	29867.58
569.64	29647.57
569.81	29614.80
569.97	29839.49
570.13	29883.96
570.30	29923.75
570.46	30249.08
570.62	29883.96
570.78	29762.25
570.95	29879.28
571.11	30066.52
571.27	29434.58
571.43	29802.04
571.60	30036.09
571.76	29722.46
571.92	29970.56
572.09	29841.83
572.25	29996.31
572.41	29834.81
572.57	29907.37
572.74	30426.96
572.90	29696.72
573.06	29869.92
573.22	29968.22
573.38	29081.16
573.55	29844.17
573.71	30197.59
573.87	30349.73
574.03	29743.53
574.20	29958.86
574.36	29472.03
574.52	29832.47
574.68	29923.75
574.84	29804.38
575.01	29986.94
575.17	30363.77
575.33	29909.71
575.49	30047.80
575.65	30183.55
575.82	29940.13
575.98	29823.11
576.14	30073.54
576.30	29900.34
576.46	30010.35
576.62	29951.84
576.79	30288.87
576.95	30120.35
577.11	30249.08
577.27	30277.17
577.43	30398.88
577.59	30050.14
577.75	29521.18
577.92	29729.48
578.08	30251.42
578.24	29956.52
578.40	30073.54
578.56	30293.55
578.72	30157.80
578.88	30396.54
579.04	30110.99
579.21	30012.69
579.37	30125.04
579.53	30363.77
579.69	29607.78
579.85	29909.71
580.01	30230.36
580.17	29703.74
580.33	30272.49
580.49	30396.54
580.65	30281.85
580.82	30431.65
580.98	30169.51
581.14	30579.10
581.30	30188.23
581.46	30110.99
581.62	30183.55
581.78	30000.99
581.94	30122.69
582.10	30164.82
582.26	30464.41
582.42	30099.29
582.58	30223.34
582.74	30183.55
582.90	30143.76
583.06	29832.47
583.22	30150.78
583.38	30141.42
583.54	30066.52
583.70	29977.58
583.86	30328.66
584.02	29804.38
584.18	30305.26
584.34	30263.13
584.50	30340.36
584.66	30543.99
584.82	29930.77
584.98	30370.79
585.14	30185.89
585.30	30108.65
585.46	30188.23
585.62	29898.00
585.78	30520.59
585.94	30333.34
586.10	30026.73
586.26	30293.55
586.42	30525.27
586.58	30857.62
586.74	30073.54
586.90	30082.91
587.06	29947.15
587.22	30356.75
587.38	30139.08
587.54	30635.27
587.70	30452.71
587.86	30579.10
588.02	30618.89
588.18	30789.75
588.34	30405.90
588.49	30616.55
588.65	30239.72
588.81	30129.72
588.97	30747.62
589.13	30541.65
589.29	30314.62
589.45	30302.92
589.61	30302.92
589.77	31150.19
589.93	30937.20
590.08	30494.84
590.24	30675.06
590.40	30703.15
590.56	30658.68
590.72	30445.69
590.88	30316.96
591.04	30801.45
591.20	30817.83
591.35	30623.57
591.51	30813.15
591.67	30827.20
591.83	30609.53
591.99	31213.38
592.15	30892.73
592.31	30464.41
592.46	30527.61
592.62	30899.75
592.78	30511.22
592.94	30593.14
593.10	30876.35
593.26	30838.90
593.41	30792.09
593.57	30707.83
593.73	30707.83
593.89	30721.87
594.05	30586.12
594.20	30543.99
594.36	30967.63
594.52	30565.06
594.68	30890.39
594.84	30712.51
594.99	31028.48
595.15	30714.85
595.31	31108.06
595.47	30487.82
595.62	30773.36
595.78	30927.84
595.94	31007.42
596.10	31056.57
596.25	30600.16
596.41	30494.84
596.57	30218.66
596.73	30543.99
596.88	30536.97
597.04	30855.28
597.20	30850.60
597.36	31178.28
597.51	30972.31
597.67	30885.71
597.83	30803.79
597.99	30759.32
598.14	30663.36
598.30	30621.23
598.46	30972.31
598.61	30934.86
598.77	30934.86
598.93	30841.24
599.09	31019.12
599.24	30955.93
599.40	31274.24
599.56	31089.34
599.71	31033.16
599.87	30913.80
600.03	30712.51
600.18	30433.99
600.34	30937.20
600.50	31309.35
600.65	30939.54
600.81	31070.61
600.97	30883.37
601.12	30838.90
601.28	31269.56
601.44	30939.54
601.59	31236.79
601.75	31014.44
601.91	30986.35
602.06	30857.62
602.22	30916.14
602.37	30764.00
602.53	30756.98
602.69	30937.20
602.84	30988.69
603.00	30902.09
603.16	31398.29
603.31	31314.03
603.47	30679.74
603.62	30925.50
603.78	30862.30
603.94	30342.70
604.09	30539.31
604.25	31042.53
604.40	30965.29
604.56	30651.66
604.71	31618.30
604.87	30768.68
605.03	31101.04
605.18	30663.36
605.34	30892.73
605.49	30843.58
605.65	30567.40
605.80	30595.48
605.96	30595.48
606.12	30864.64
606.27	30836.56
606.43	30625.91
606.58	31171.25
606.74	30724.21
606.89	30574.42
607.05	31164.23
607.20	30965.29
607.36	30639.95
607.51	31082.31
607.67	30679.74
607.82	30600.16
607.98	30597.82
608.13	30663.36
608.29	30665.70
608.44	30969.97
608.60	30866.98
608.75	30895.07
608.91	30778.04
609.06	30281.85
609.22	31035.50
609.37	30410.58
609.53	30333.34
609.68	30845.92
609.84	30410.58
609.99	30565.06
610.15	30235.04
610.30	30597.82
610.46	30450.37
610.61	30433.99
610.76	30780.39
610.92	30670.38
611.07	30761.66
611.23	30485.48
611.38	30689.10
611.54	30558.03
611.69	30466.75
611.84	29984.60
612.00	30433.99
612.15	30689.10
612.31	30590.80
612.46	30862.30
612.62	31012.10
612.77	30448.03
612.92	30684.42
613.08	30279.51
613.23	30792.09
613.39	30501.86
613.54	30031.41
613.69	30728.89
613.85	30300.58
614.00	30108.65
614.15	30452.71
614.31	30354.41
614.46	30494.84
614.62	30157.80
614.77	30136.74
614.92	30735.92
615.08	30188.23
615.23	30391.86
615.38	30209.29
615.54	30125.04
615.69	30167.16
615.84	30192.91
616.00	30529.95
616.15	30363.77
616.30	30611.87
616.46	30398.88
616.61	30197.59
616.76	30534.63
616.92	29949.50
617.07	30359.09
617.22	29493.09
617.37	29942.47
617.53	30122.69
617.68	29993.97
617.83	29710.76
617.99	29893.32
618.14	30108.65
618.29	30146.10
618.45	30015.03
618.60	30176.53
618.75	29841.83
618.90	29881.62
619.06	30286.53
619.21	29930.77
619.36	29745.87
619.51	29682.67
619.67	29413.51
619.82	29221.59
619.97	29537.56
620.12	29511.81
620.28	29390.11
620.43	29813.74
620.58	29820.77
620.73	29816.08
620.89	29647.57
621.04	29905.02
621.19	29727.14
621.34	29624.16
621.49	29469.69
621.65	29481.39
621.80	29511.81
621.95	29404.15
622.10	29036.69
622.25	29373.72
622.41	29469.69
622.56	29888.64
622.71	29565.65
622.86	29259.04
623.01	29376.06
623.16	29462.66
623.32	29450.96
623.47	29020.30
623.62	29476.71
623.77	29516.50
623.92	29656.93
624.07	29277.76
624.23	29472.03
624.38	29659.27
624.53	29069.45
624.68	29469.69
624.83	29502.45
624.98	29170.10
625.13	29502.45
625.29	29263.72
625.44	29530.54
625.59	28924.34
625.74	29104.56
625.89	28877.53
626.04	29170.10
626.19	28854.12
626.34	29333.93
626.49	28900.94
626.65	29118.60
626.80	29132.65
626.95	29109.24
627.10	29352.66
627.25	28959.45
627.40	28800.29
627.55	29329.25
627.70	28840.08
627.85	28587.30
628.00	28730.08
628.15	28603.69
628.30	28615.39
628.45	28725.39
628.60	28807.31
628.76	28603.69
628.91	28727.74
629.06	28758.16
629.21	28540.49
629.36	28961.79
629.51	28603.69
629.66	28910.30
629.81	28753.48
629.96	28226.86
630.11	28332.18
630.26	28514.75
630.41	28701.99
630.56	28084.09
630.71	28793.27
630.86	28519.43
631.01	28840.08
631.16	29032.00
631.31	28559.22
631.46	28439.85
631.61	28847.10
631.76	28556.88
631.91	28423.47
632.06	28350.91
632.21	28151.96
632.36	28421.13
632.51	28011.53
632.66	28500.70
632.81	28074.73
632.96	28568.58
633.10	28545.17
633.25	28510.07
633.40	28467.94
633.55	28528.79
633.70	28142.60
633.85	28079.41
634.00	27854.72
634.15	28121.54
634.30	27913.23
634.45	28030.26
634.60	27910.89
634.75	28332.18
634.90	28011.53
635.05	28210.48
635.19	28088.77
635.34	28273.67
635.49	27775.14
635.64	28084.09
635.79	28070.04
635.94	28058.34
636.09	28058.34
636.24	27381.93
636.39	27943.66
636.53	27751.73
636.68	27819.61
636.83	27782.16
636.98	28224.52
637.13	28166.01
637.28	27885.14
637.43	28226.86
637.57	28063.02
637.72	27796.20
637.87	27555.13
638.02	27810.25
638.17	27655.77
638.32	27669.81
638.46	27606.62
638.61	27388.95
638.76	27555.13
638.91	27583.21
639.06	27548.11
639.20	27681.52
639.35	27651.09
639.50	27428.74
639.65	27711.94
639.80	27468.53
639.94	27688.54
640.09	27527.04
640.24	27454.48
640.39	27206.39
640.54	27080.00
640.68	27094.04
640.83	26927.86
640.98	27044.89
641.13	27328.10
641.27	27463.85
641.42	27372.57
641.57	27035.53
641.72	27159.58
641.86	27367.88
642.01	27199.37
642.16	27400.65
642.31	27194.68
642.45	27227.45
642.60	26815.52
642.75	27042.55
642.90	27096.38
643.04	27131.49
643.19	26698.49
643.34	27236.81
643.48	27007.44
643.63	27208.73
643.78	26799.13
643.93	27234.47
644.07	27049.57
644.22	27152.55
644.37	27173.62
644.51	27098.72
644.66	27154.90
644.81	26735.94
644.95	26724.24
645.10	26731.26
645.25	26768.71
645.39	26789.77
645.54	26691.47
645.69	26714.87
645.83	26838.92
645.98	26363.79
646.13	27150.21
646.27	27007.44
646.42	26735.94
646.57	26733.60
646.71	26586.15
646.86	26764.03
647.00	26604.87
647.15	26838.92
647.30	26689.13
647.44	26806.16
647.59	26937.23
647.74	26859.99
647.88	26700.83
648.03	26457.42
648.17	26691.47
648.32	26668.06
648.47	26668.06
648.61	26738.28
648.76	26494.86
648.90	26370.82
649.05	26345.07
649.20	26668.06
649.34	26387.20
649.49	26305.28
649.63	26405.92
649.78	26501.89
649.92	26150.81
650.07	26450.39
650.21	26375.50
650.36	26476.14
650.51	26178.89
650.65	26448.05
650.80	26235.06
650.94	25947.18
651.09	25937.82
651.23	26089.95
651.38	26169.53
651.52	26293.58
651.67	26384.86
651.81	26082.93
651.96	26085.27
652.10	26085.27
652.25	25862.92
652.39	26302.94
652.54	26363.79
652.68	26064.21
652.83	26195.28
652.97	26525.29
653.12	26242.09
653.26	26281.88
653.41	26293.58
653.55	25996.33
653.70	26085.27
653.84	26057.18
653.99	26216.34
654.13	25668.66
654.27	25663.97
654.42	25715.47
654.56	25921.43
654.71	26085.27
654.85	25837.17
655.00	25940.16
655.14	25919.09
655.29	25584.40
655.43	25724.83
655.57	25666.31
655.72	25734.19
655.86	25378.43
656.01	25736.53
656.15	25350.34
656.30	25656.95
656.44	25429.92
656.58	25579.71
656.73	25462.69
656.87	25296.51
657.01	25631.21
657.16	25598.44
657.30	25792.70
657.45	25898.03
657.59	25530.56
657.73	25425.24
657.88	25621.84
658.02	25383.11
658.16	25439.28
658.31	25376.09
658.45	25570.35
658.60	25200.55
658.74	25046.07
658.88	25259.06
659.03	24994.58
659.17	25226.29
659.31	25214.59
659.46	25158.42
659.60	25336.30
659.74	25209.91
659.89	24882.24
660.03	25006.28
660.17	24924.36
660.32	25085.86
660.46	25043.73
660.60	24748.82
660.74	24704.35
660.89	24662.22
661.03	24929.05
661.17	24837.76
661.32	24629.46
661.46	25039.05
661.60	24727.76
661.74	24809.68
661.89	24666.91
662.03	24849.47
662.17	24603.71
662.31	24498.39
662.46	24746.48
662.60	24725.42
662.74	24568.60
662.88	24187.10
663.03	23878.15
663.17	24119.22
663.31	24161.35
663.45	24156.67
663.60	24397.74
663.74	24245.61
663.88	24161.35
664.02	24004.53
664.17	24336.89
664.31	24360.30
664.45	24315.83
664.59	24084.11
664.73	24074.75
664.88	24435.19
665.02	23826.65
665.16	23878.15
665.30	23997.51
665.44	23709.63
665.59	23601.96
665.73	23812.61
665.87	23683.88
666.01	24056.03
666.15	23882.83
666.29	23740.05
666.44	23517.70
666.58	23377.27
666.72	23536.43
666.86	23529.41
667.00	23906.23
667.14	23709.63
667.28	23637.07
667.43	23669.84
667.57	23243.86
667.71	23433.44
667.85	23136.20
667.99	23077.68
668.13	23227.48
668.27	23056.62
668.41	23082.36
668.56	23379.61
668.70	23417.06
668.84	23241.52
668.98	23047.26
669.12	23370.25
669.26	22932.57
669.40	22967.68
669.54	23131.51
669.68	22920.87
669.82	22508.93
669.96	22806.18
670.10	22441.06
670.25	22803.84
670.39	22895.12
670.53	22356.80
670.67	22806.18
670.81	22403.61
670.95	22522.98
671.09	22553.40
671.23	22497.23
671.37	22670.43
671.51	22632.98
671.65	22307.65
671.79	22527.66
671.93	22434.03
672.07	22209.34
672.21	22235.09
672.35	22094.66
672.49	21734.21
672.63	21762.30
672.77	21933.16
672.91	22036.14
673.05	22059.55
673.19	22080.61
673.33	22052.53
673.47	22230.41
673.61	21867.63
673.75	21778.68
673.89	21769.32
674.03	21671.02
674.17	21750.60
674.31	21565.70
674.45	21348.03
674.59	21621.87
674.73	21626.55
674.87	21600.80
675.01	21319.94
675.15	21172.49
675.29	21083.55
675.43	21303.56
675.56	21373.77
675.70	21238.02
675.84	21036.74
675.98	20793.32
676.12	21226.32
676.26	21001.63
676.40	20893.96
676.54	20809.70
676.68	20812.04
676.82	20601.40
676.96	20662.25
677.10	20477.35
677.23	20559.27
677.37	20196.48
677.51	20304.15
677.65	20652.89
677.79	20229.25
677.93	20074.77
678.07	20030.30
678.21	19988.18
678.34	20217.55
678.48	20002.22
678.62	20126.27
678.76	19969.45
678.90	19992.86
679.04	20042.01
679.18	19702.63
679.31	19744.76
679.45	19487.30
679.59	19377.30
679.73	19424.11
679.87	19211.12
680.00	19183.03
680.14	19201.76
680.28	19461.55
680.42	19267.29
680.56	19309.42
680.70	19360.91
680.83	19250.91
680.97	19016.85
681.11	19342.19
681.25	19054.30
681.39	18888.12
681.52	18876.42
681.66	18911.53
681.80	18508.96
681.94	18888.12
682.07	18789.82
682.21	18377.89
682.35	18377.89
682.49	18043.19
682.62	18265.54
682.76	18422.36
682.90	18487.89
683.04	18422.36
683.17	18333.42
683.31	17980.00
683.45	18508.96
683.59	18263.20
683.72	18085.32
683.86	17989.36
684.00	17788.07
684.13	17729.56
684.27	17752.96
684.41	17680.41
684.55	17703.81
684.68	17666.36
684.82	17369.12
684.96	17273.15
685.09	17380.82
685.23	17247.41
685.37	17254.43
685.50	17408.90
685.64	17614.87
685.78	17036.76
685.91	17472.10
686.05	17530.61
686.19	17137.40
686.32	17142.08
686.46	16643.55
686.60	16617.80
686.73	17011.01
686.87	16814.41
687.01	16500.78
687.14	16655.25
687.28	16507.80
687.42	16470.35
687.55	16362.69
687.69	16636.53
687.82	16460.99
687.96	16292.47
688.10	16306.51
688.23	15948.41
688.37	16315.87
688.50	16322.90
688.64	16009.26
688.78	15871.17
688.91	16018.63
689.05	16004.58
689.18	15730.74
689.32	15527.11
689.46	15470.94
689.59	15363.28
689.73	15318.81
689.86	15578.61
690.00	15260.29
690.13	15524.77
690.27	15496.69
690.41	15442.85
690.54	15330.51
690.68	15283.70
690.81	15150.29
690.95	15419.45
691.08	15169.01
691.22	14949.00
691.35	14890.49
691.49	15154.97
691.62	15073.05
691.76	14656.43
691.89	14778.14
692.03	14719.63
692.16	14450.47
692.30	14551.11
692.43	14567.49
692.57	14391.95
692.70	14427.06
692.84	14221.10
692.97	14099.39
693.11	14263.22
693.24	14228.12
693.38	14555.79
693.51	14160.24
693.65	14310.04
693.78	13895.76
693.92	13858.31
694.05	13816.18
694.19	13870.01
694.32	13713.20
694.45	13614.90
694.59	13554.04
694.72	13418.29
694.86	13556.38
694.99	13476.80
695.13	13507.23
695.26	13689.79
695.39	13444.04
695.53	13479.15
695.66	13305.95
695.80	13217.01
695.93	13401.91
696.07	13280.20
696.20	13413.61
696.33	13125.72
696.47	13102.32
696.60	12931.46
696.73	13107.00
696.87	12940.82
697.00	12947.84
697.14	12582.72
697.27	12690.38
697.40	12400.16
697.54	12332.28
697.67	12358.03
697.80	12243.34
697.94	12322.92
698.07	12084.19
698.21	12273.77
698.34	12400.16
698.47	12198.87
698.61	12322.92
698.74	12219.94
698.87	12203.55
699.01	11903.96
699.14	12147.38
699.27	11833.75
699.40	11992.90
699.54	11875.88
699.67	11978.86
699.80	11822.05
699.94	11302.45
700.07	11630.12
700.20	11604.38
700.34	11538.84
700.47	11367.98
700.60	11461.60
700.73	11536.50
700.87	11449.90
701.00	11403.09
701.13	11360.96
701.26	11222.87
701.40	11243.93
701.53	11321.17
701.66	10932.64
701.79	11178.40
701.93	10895.19
702.06	10846.04
702.19	10874.13
702.32	10689.23
702.46	10965.41
702.59	10593.26
702.72	10562.84
702.85	10740.72
702.99	10597.95
703.12	10700.93
703.25	10391.98
703.38	10347.51
703.51	10375.59
703.65	10375.59
703.78	10520.71
703.91	10190.69
704.04	10469.22
704.17	10333.47
704.31	10216.44
704.44	10083.03
704.57	10216.44
704.70	9926.21
704.83	9963.66
704.96	9947.28
705.10	9863.02
705.23	9949.62
>>>>>End Processed Spectral Data<<<<<
