SpectraSuite Data File
++++++++++++++++++++++++++++++++++++
Date: Fri Oct 18 13:58:38 GMT-05:00 2013
User: bianchi
Dark Spectrum Present: No
Reference Spectrum Present: No
Number of Sampled Component Spectra: 1
Spectrometers: USB2+H05261
Integration Time (usec): 50000 (USB2+H05261)
Spectra Averaged: 1 (USB2+H05261)
Boxcar Smoothing: 0 (USB2+H05261)
Correct for Electrical Dark: No (USB2+H05261)
Strobe/Lamp Enabled: No (USB2+H05261)
Correct for Detector Non-linearity: No (USB2+H05261)
Correct for Stray Light: No (USB2+H05261)
Number of Pixels in Processed Spectrum: 2048
>>>>>Begin Processed Spectral Data<<<<<
365.73	0.00
365.92	0.00
366.12	0.00
366.32	0.00
366.52	0.00
366.72	0.00
366.91	0.00
367.11	0.00
367.31	0.00
367.51	0.00
367.70	0.00
367.90	0.00
368.10	0.00
368.30	0.00
368.49	0.00
368.69	0.00
368.89	0.00
369.09	0.00
369.28	0.00
369.48	0.00
369.68	0.00
369.87	0.00
370.07	0.00
370.27	0.00
370.47	0.00
370.66	95.96
370.86	166.18
371.06	140.43
371.25	140.43
371.45	170.86
371.65	201.29
371.84	138.09
372.04	100.64
372.24	91.28
372.44	168.52
372.63	234.05
372.83	196.60
373.03	208.31
373.22	152.13
373.42	264.48
373.62	191.92
373.81	222.35
374.01	163.84
374.21	177.88
374.40	217.67
374.60	255.12
374.79	205.97
374.99	264.48
375.19	264.48
375.38	297.25
375.58	259.80
375.78	262.14
375.97	276.18
376.17	229.37
376.37	241.08
376.56	252.78
376.76	271.50
376.95	280.86
377.15	334.70
377.35	269.16
377.54	257.46
377.74	262.14
377.93	280.86
378.13	327.68
378.33	346.40
378.52	315.97
378.72	241.08
378.91	381.51
379.11	285.55
379.31	292.57
379.50	266.82
379.70	313.63
379.89	353.42
380.09	252.78
380.28	365.12
380.48	320.65
380.68	290.23
380.87	306.61
381.07	351.08
381.26	264.48
381.46	290.23
381.65	266.82
381.85	297.25
382.04	322.99
382.24	404.91
382.43	325.33
382.63	341.72
382.83	369.80
383.02	386.19
383.22	348.74
383.41	379.17
383.61	390.87
383.80	325.33
384.00	332.36
384.19	379.17
384.39	407.25
384.58	264.48
384.78	383.85
384.97	308.95
385.17	376.83
385.36	372.15
385.56	360.44
385.75	374.49
385.95	273.84
386.14	379.17
386.34	367.46
386.53	444.70
386.72	358.10
386.92	500.87
387.11	355.76
387.31	416.62
387.50	425.98
387.70	390.87
387.89	451.72
388.09	444.70
388.28	470.45
388.48	402.57
388.67	475.13
388.86	404.91
389.06	442.36
389.25	425.98
389.45	486.83
389.64	362.78
389.84	447.04
390.03	442.36
390.22	418.96
390.42	435.34
390.61	381.51
390.81	395.55
391.00	486.83
391.19	477.47
391.39	479.81
391.58	479.81
391.78	454.06
391.97	475.13
392.16	521.94
392.36	535.98
392.55	573.43
392.75	493.85
392.94	477.47
393.13	500.87
393.33	524.28
393.52	519.60
393.71	594.50
393.91	531.30
394.10	538.32
394.29	589.82
394.49	599.18
394.68	645.99
394.88	624.92
395.07	631.94
395.26	592.16
395.46	561.73
395.65	608.54
395.84	589.82
396.04	667.05
396.23	655.35
396.42	627.26
396.62	681.10
396.81	676.41
397.00	641.31
397.19	622.58
397.39	660.03
397.58	690.46
397.77	692.80
397.97	650.67
398.16	674.07
398.35	699.82
398.55	641.31
398.74	713.86
398.93	734.93
399.12	681.10
399.32	718.54
399.51	688.12
399.70	809.83
399.90	716.20
400.09	713.86
400.28	819.19
400.47	739.61
400.67	772.38
400.86	732.59
401.05	748.97
401.24	760.67
401.44	751.31
401.63	709.18
401.82	770.04
402.01	746.63
402.21	847.27
402.40	758.33
402.59	802.80
402.78	837.91
402.97	866.00
403.17	912.81
403.36	858.98
403.55	940.90
403.74	887.06
403.93	901.11
404.13	873.02
404.32	873.02
404.51	842.59
404.70	891.74
404.89	842.59
405.09	922.17
405.28	877.70
405.47	877.70
405.66	983.02
405.85	950.26
406.05	987.71
406.24	954.94
406.43	943.24
406.62	917.49
406.81	1062.60
407.00	1057.92
407.20	1036.86
407.39	968.98
407.58	994.73
407.77	1083.67
407.96	1008.77
408.15	1088.35
408.34	1036.86
408.54	978.34
408.73	1041.54
408.92	1118.78
409.11	1149.20
409.30	1139.84
409.49	1100.05
409.68	1123.46
409.87	1142.18
410.07	1165.59
410.26	1177.29
410.45	1069.62
410.64	1149.20
410.83	1104.73
411.02	1198.35
411.21	1160.91
411.40	1163.25
411.59	1240.48
411.78	1214.74
411.98	1228.78
412.17	1331.76
412.36	1282.61
412.55	1263.89
412.74	1254.53
412.93	1275.59
413.12	1320.06
413.31	1423.05
413.50	1434.75
413.69	1348.15
413.88	1488.58
414.07	1448.79
414.26	1530.71
414.45	1483.90
414.64	1376.24
414.83	1460.49
415.02	1500.28
415.22	1507.30
415.41	1593.90
415.60	1474.54
415.79	1561.14
415.98	1565.82
416.17	1617.31
416.36	1591.56
416.55	1643.06
416.74	1633.69
416.93	1664.12
417.12	1621.99
417.31	1668.80
417.50	1710.93
417.69	1666.46
417.88	1689.87
418.07	1748.38
418.26	1678.16
418.45	1729.66
418.64	1797.53
418.83	1739.02
419.02	1834.98
419.21	1764.76
419.39	1811.57
419.58	1820.94
419.77	1856.04
419.96	1802.21
420.15	1722.63
420.34	1834.98
420.53	1802.21
420.72	1879.45
420.91	1949.67
421.10	1987.11
421.29	1832.64
421.48	1813.92
421.67	1870.09
421.86	1980.09
422.05	1963.71
422.24	1947.33
422.43	2054.99
422.61	1895.83
422.80	1966.05
422.99	2099.46
423.18	1980.09
423.37	2132.23
423.56	2033.93
423.75	1982.43
423.94	1982.43
424.13	1949.67
424.32	1921.58
424.50	2036.27
424.69	2036.27
424.88	2087.76
425.07	1956.69
425.26	1935.62
425.45	1949.67
425.64	2045.63
425.83	1902.86
426.01	2026.90
426.20	1961.37
426.39	2008.18
426.58	2043.29
426.77	2101.80
426.96	2001.16
427.15	2085.42
427.33	2108.82
427.52	2125.21
427.71	2172.02
427.90	2122.87
428.09	2193.08
428.28	2207.13
428.46	2181.38
428.65	2176.70
428.84	2165.00
429.03	2214.15
429.22	2153.29
429.40	2251.60
429.59	2174.36
429.78	2036.27
429.97	2153.29
430.16	2179.04
430.34	2321.81
430.53	2237.55
430.72	2253.94
430.91	2289.04
431.10	2265.64
431.28	2394.37
431.47	2221.17
431.66	2431.82
431.85	2363.94
432.03	2408.41
432.22	2394.37
432.41	2377.98
432.60	2443.52
432.79	2408.41
432.97	2417.77
433.16	2497.35
433.35	2497.35
433.54	2431.82
433.72	2413.09
433.91	2495.01
434.10	2471.61
434.28	2541.82
434.47	2462.24
434.66	2527.78
434.85	2487.99
435.03	2567.57
435.22	2649.49
435.41	2658.85
435.59	2574.59
435.78	2644.81
435.97	2682.25
436.16	2719.70
436.34	2616.72
436.53	2590.97
436.72	2780.56
436.90	2612.04
437.09	2771.19
437.28	2633.10
437.46	2658.85
437.65	2752.47
437.84	2862.48
438.02	2689.28
438.21	2696.30
438.40	2722.04
438.58	2829.71
438.77	2829.71
438.96	2792.26
439.14	2991.20
439.33	2979.50
439.52	2848.43
439.70	2949.08
439.89	2888.22
440.08	3103.55
440.26	3028.65
440.45	2937.37
440.63	3073.12
440.82	3180.79
441.01	2979.50
441.19	3187.81
441.38	3026.31
441.57	3138.66
441.75	3180.79
441.94	3222.92
442.12	3187.81
442.31	3206.53
442.50	3279.09
442.68	3262.71
442.87	3225.26
443.05	3272.07
443.24	3361.01
443.43	3279.09
443.61	3419.52
443.80	3405.48
443.98	3391.44
444.17	3201.85
444.35	3251.00
444.54	3407.82
444.73	3435.91
444.91	3431.23
445.10	3379.73
445.28	3379.73
445.47	3353.99
445.65	3494.42
445.84	3414.84
446.02	3475.70
446.21	3330.58
446.39	3407.82
446.58	3499.10
446.77	3396.12
446.95	3302.50
447.14	3447.61
447.32	3691.02
447.51	3419.52
447.69	3454.63
447.88	3494.42
448.06	3485.06
448.25	3426.54
448.43	3665.28
448.62	3459.31
448.80	3414.84
448.99	3428.88
449.17	3431.23
449.36	3566.98
449.54	3583.36
449.73	3431.23
449.91	3613.79
450.10	3569.32
450.28	3695.71
450.46	3623.15
450.65	3669.96
450.83	3749.54
451.02	3728.47
451.20	3707.41
451.39	3747.20
451.57	3578.68
451.76	3740.18
451.94	3737.84
452.13	3791.67
452.31	3810.39
452.49	3777.62
452.68	3880.61
452.86	3801.03
453.05	3936.78
453.23	3962.53
453.42	3882.95
453.60	3829.12
453.78	3777.62
453.97	3817.41
454.15	3882.95
454.34	3911.04
454.52	3927.42
454.70	3873.59
454.89	3992.95
455.07	4072.53
455.26	4098.28
455.44	3927.42
455.62	4072.53
455.81	3988.27
455.99	3988.27
456.17	4091.26
456.36	4311.27
456.54	4234.03
456.73	4128.70
456.91	4156.79
457.09	4194.24
457.28	4154.45
457.46	4170.83
457.64	4381.48
457.83	4348.72
458.01	4114.66
458.19	4362.76
458.38	4365.10
458.56	4421.27
458.74	4315.95
458.93	4390.84
459.11	4273.82
459.29	4369.78
459.48	4409.57
459.66	4421.27
459.84	4409.57
460.03	4374.46
460.21	4475.10
460.39	4528.94
460.57	4514.89
460.76	4507.87
460.94	4587.45
461.12	4610.86
461.31	4645.96
461.49	4589.79
461.67	4730.22
461.85	4854.27
462.04	4566.39
462.22	4587.45
462.40	4566.39
462.59	4697.46
462.77	4599.15
462.95	4631.92
463.13	4709.16
463.32	4774.69
463.50	4924.49
463.68	4816.82
463.86	4854.27
464.05	4814.48
464.23	4784.06
464.41	4664.69
464.59	4744.27
464.78	4957.25
464.96	4807.46
465.14	4873.00
465.32	4983.00
465.50	4903.42
465.69	4954.91
465.87	4802.78
466.05	4940.87
466.23	4936.19
466.41	4856.61
466.60	5249.82
466.78	5085.98
466.96	4924.49
467.14	4947.89
467.32	5107.05
467.51	5093.01
467.69	4723.20
467.87	4975.98
468.05	5011.09
468.23	5036.83
468.41	5071.94
468.60	4999.38
468.78	5076.62
468.96	5074.28
469.14	5203.01
469.32	5205.35
469.50	5057.90
469.69	5261.52
469.87	5542.39
470.05	5448.77
470.23	5364.51
470.41	5308.34
470.59	5327.06
470.77	5392.59
470.95	5593.88
471.14	5685.16
471.32	5378.55
471.50	5516.64
471.68	5533.03
471.86	5568.13
472.04	5593.88
472.22	5607.92
472.40	5605.58
472.58	5727.29
472.77	5621.97
472.95	5844.32
473.13	5846.66
473.31	5734.31
473.49	5802.19
473.67	5806.87
473.85	5998.79
474.03	5996.45
474.21	5977.73
474.39	5881.77
474.57	6200.08
474.75	6225.82
474.93	6132.20
475.12	6040.92
475.30	6179.01
475.48	6125.18
475.66	6207.10
475.84	6052.63
476.02	6211.78
476.20	6401.37
476.38	6340.51
476.56	6600.31
476.74	6436.47
476.92	6422.43
477.10	6331.15
477.28	6602.65
477.46	6492.65
477.64	6799.26
477.82	6782.87
478.00	7002.88
478.18	6890.54
478.36	6829.68
478.54	6970.12
478.72	7077.78
478.90	7042.67
479.08	7140.97
479.26	7185.44
479.44	7148.00
479.62	7073.10
479.80	7400.77
479.98	7529.50
480.16	7410.14
480.34	7323.54
480.52	7300.13
480.70	7482.69
480.88	7494.40
481.06	7550.57
481.24	7592.70
481.41	7819.73
481.59	8018.68
481.77	7941.44
481.95	7988.25
482.13	8070.17
482.31	7953.14
482.49	8159.11
482.67	8358.05
482.85	8386.14
483.03	8404.86
483.21	8423.59
483.39	8407.20
483.57	8620.19
483.74	8657.64
483.92	8585.08
484.10	8582.74
484.28	8669.34
484.46	8929.14
484.64	9100.00
484.82	8814.46
485.00	8999.36
485.18	9107.02
485.35	9327.03
485.53	9280.22
485.71	9231.07
485.89	9706.20
486.07	9394.91
486.25	9315.33
486.43	9542.36
486.61	9769.40
486.78	9886.42
486.96	9891.10
487.14	9998.77
487.32	10106.43
487.50	10143.88
487.68	10132.18
487.85	10370.91
488.03	10171.97
488.21	10389.64
488.39	10574.54
488.57	10448.15
488.75	10647.10
488.92	10902.22
489.10	10836.68
489.28	10792.21
489.46	10843.70
489.64	10916.26
489.81	11262.66
489.99	11178.40
490.17	10993.50
490.35	11316.49
490.53	11515.44
490.70	11279.04
490.88	11433.52
491.06	11803.32
491.24	11564.59
491.41	11733.11
491.59	11712.04
491.77	11723.74
491.95	12109.93
492.13	12060.78
492.30	12198.87
492.48	12072.48
492.66	11981.20
492.84	12233.98
493.01	12554.63
493.19	12304.20
493.37	12786.35
493.54	12383.77
493.72	12531.23
493.90	12549.95
494.08	12891.67
494.25	12898.69
494.43	13076.57
494.61	13214.66
494.79	13149.13
494.96	13294.24
495.14	13245.09
495.32	13324.67
495.49	13308.29
495.67	13434.68
495.85	13589.15
496.02	13743.63
496.20	13921.51
496.38	13689.79
496.55	13944.91
496.73	13748.31
496.91	13816.18
497.09	13961.30
497.26	14026.83
497.44	14300.67
497.62	14513.66
497.79	14295.99
497.97	14230.46
498.14	14314.72
498.32	14672.82
498.50	14778.14
498.67	14764.10
498.85	14960.70
499.03	14869.42
499.20	14846.02
499.38	15002.83
499.56	15262.63
499.73	15089.43
499.91	15318.81
500.08	15279.02
500.26	15009.86
500.44	15276.68
500.61	15108.16
500.79	15419.45
500.97	15515.41
501.14	15756.49
501.32	15690.95
501.49	15836.06
501.67	15592.65
501.84	15791.59
502.02	15838.41
502.20	16056.08
502.37	15861.81
502.55	15866.49
502.72	16109.91
502.90	16358.00
503.07	16301.83
503.25	16255.02
503.43	16283.11
503.60	16311.19
503.78	16636.53
503.95	16215.23
504.13	16306.51
504.30	16308.85
504.48	16360.34
504.65	16526.52
504.83	16922.07
505.01	16812.07
505.18	16718.45
505.36	16858.88
505.53	16863.56
505.71	17137.40
505.88	17132.72
506.06	16849.52
506.23	17266.13
506.41	17034.42
506.58	17326.99
506.76	17331.67
506.93	17392.52
507.11	17128.04
507.28	17242.73
507.46	17458.06
507.63	17834.88
507.81	17638.28
507.98	17357.41
508.16	17731.90
508.33	17778.71
508.50	17537.63
508.68	17752.96
508.85	18012.76
509.03	17860.63
509.20	18218.73
509.38	18085.32
509.55	18164.90
509.73	18195.32
509.90	18277.24
510.08	18274.90
510.25	18429.38
510.42	18246.82
510.60	18438.74
510.77	18513.64
510.95	18745.35
511.12	18450.44
511.30	18232.77
511.47	18438.74
511.64	18562.79
511.82	18647.05
511.99	19016.85
512.17	18953.66
512.34	18733.65
512.51	19091.75
512.69	18817.91
512.86	18794.50
513.04	19176.01
513.21	19147.92
513.38	19218.14
513.56	19274.31
513.73	19330.48
513.90	19365.59
514.08	19356.23
514.25	19473.26
514.43	19201.76
514.60	19480.28
514.77	19473.26
514.95	19903.92
515.12	19651.14
515.29	19667.52
515.47	20037.33
515.64	19950.73
515.81	19845.40
515.99	20255.00
516.16	20079.46
516.33	20154.35
516.51	20329.89
516.68	20067.75
516.85	19920.30
517.03	20318.19
517.20	20311.17
517.37	20280.74
517.54	20332.23
517.72	20369.68
517.89	20285.42
518.06	20388.41
518.24	20327.55
518.41	20226.91
518.58	20388.41
518.75	20830.77
518.93	20713.74
519.10	20631.82
519.27	20987.58
519.45	20477.35
519.62	20737.15
519.79	20549.90
519.96	20788.64
520.14	21167.80
520.31	20776.94
520.48	20795.66
520.65	21050.78
520.83	21441.65
521.00	21163.12
521.17	21111.63
521.34	21015.67
521.52	21170.15
521.69	21111.63
521.86	21774.00
522.03	21668.68
522.20	21656.98
522.38	21579.74
522.55	21422.92
522.72	21458.03
522.89	21626.55
523.07	21865.28
523.24	21958.91
523.41	21795.07
523.58	21869.97
523.75	21703.79
523.92	21722.51
524.10	21928.48
524.27	21949.54
524.44	21675.70
524.61	22312.33
524.78	22148.49
524.96	22427.01
525.13	22340.41
525.30	22302.96
525.47	22265.52
525.64	22485.53
525.81	22565.10
525.98	22377.86
526.16	22457.44
526.33	22750.01
526.50	22508.93
526.67	22331.05
526.84	22455.10
527.01	22478.50
527.18	22670.43
527.36	23044.91
527.53	23030.87
527.70	23194.71
527.87	23370.25
528.04	22998.10
528.21	22974.70
528.38	22920.87
528.55	23243.86
528.72	23239.18
528.89	23194.71
529.07	23344.50
529.24	23168.96
529.41	23599.62
529.58	23234.50
529.75	23487.28
529.92	23365.57
530.09	23300.03
530.26	23105.77
530.43	23515.36
530.60	23587.92
530.77	23316.42
530.94	23435.78
531.11	23229.82
531.28	23421.74
531.46	23784.52
531.63	23857.08
531.80	23557.49
531.97	23810.27
532.14	23754.10
532.31	23871.12
532.48	23878.15
532.65	23969.43
532.82	24016.24
532.99	24154.33
533.16	23625.37
533.33	24142.63
533.50	24175.39
533.67	24320.51
533.84	24006.87
534.01	23812.61
534.18	24231.57
534.35	24240.93
534.52	24046.66
534.69	24409.45
534.86	24519.45
535.03	24142.63
535.20	24451.58
535.37	24397.74
535.54	24435.19
535.71	24393.06
535.88	24425.83
536.05	24238.59
536.22	24996.92
536.38	25027.35
536.55	24702.01
536.72	24903.30
536.89	24631.80
537.06	24819.04
537.23	25013.31
537.40	24636.48
537.57	24781.59
537.74	24589.67
537.91	25041.39
538.08	25088.20
538.25	24805.00
538.42	25116.29
538.59	25170.12
538.75	25008.62
538.92	25020.33
539.09	25418.22
539.26	25408.86
539.43	25685.04
539.60	25212.25
539.77	25116.29
539.94	25233.32
540.11	25249.70
540.28	25642.91
540.44	25355.02
540.61	24884.58
540.78	25359.70
540.95	25596.10
541.12	25350.34
541.29	25427.58
541.46	25656.95
541.62	25453.33
541.79	25497.80
541.96	25310.55
542.13	25490.77
542.30	25511.84
542.47	25687.38
542.63	25855.90
542.80	25930.80
542.97	26288.90
543.14	26050.16
543.31	25961.22
543.48	25965.90
543.64	26197.62
543.81	26202.30
543.98	26209.32
544.15	25867.60
544.32	26494.86
544.48	26581.46
544.65	26366.13
544.82	26211.66
544.99	25752.91
545.16	26717.22
545.32	26513.59
545.49	26799.13
545.66	26663.38
545.83	26469.12
546.00	26546.36
546.16	26532.31
546.33	26293.58
546.50	25979.95
546.67	26677.43
546.83	26281.88
547.00	26813.18
547.17	26806.16
547.34	26455.08
547.50	26714.87
547.67	26925.52
547.84	27204.05
548.00	26658.70
548.17	27171.28
548.34	26735.94
548.51	26965.31
548.67	26937.23
548.84	27049.57
549.01	26892.76
549.18	26820.20
549.34	26647.00
549.51	27007.44
549.68	26958.29
549.84	26951.27
550.01	27206.39
550.18	26857.65
550.34	27566.83
550.51	27080.00
550.68	27115.11
550.84	26808.50
551.01	27044.89
551.18	27250.86
551.34	27264.90
551.51	27082.34
551.68	27023.83
551.84	27534.06
552.01	27796.20
552.18	27323.41
552.34	27353.84
552.51	27707.26
552.68	27456.82
552.84	27817.27
553.01	27807.90
553.18	27653.43
553.34	27503.64
553.51	27847.69
553.67	27943.66
553.84	28004.51
554.01	27903.87
554.17	27611.30
554.34	27714.28
554.51	27847.69
554.67	27438.10
554.84	27644.07
555.00	27889.82
555.17	27548.11
555.33	27850.03
555.50	27850.03
555.67	28030.26
555.83	27627.68
556.00	27946.00
556.16	28329.84
556.33	28095.79
556.50	28107.49
556.66	28299.42
556.83	27910.89
556.99	28491.34
557.16	28294.74
557.32	28140.26
557.49	27983.44
557.65	28210.48
557.82	27845.35
557.98	28184.73
558.15	28257.29
558.32	28285.37
558.48	28009.19
558.65	28493.68
558.81	27934.29
558.98	28325.16
559.14	28053.66
559.31	28147.28
559.47	28369.63
559.64	28376.66
559.80	28297.08
559.97	28552.20
560.13	28528.79
560.30	28437.51
560.46	27985.79
560.63	28819.02
560.79	28477.30
560.96	28882.21
561.12	28561.56
561.29	28177.71
561.45	28610.71
561.61	28273.67
561.78	28477.30
561.94	28514.75
562.11	28519.43
562.27	28716.03
562.44	28603.69
562.60	28507.72
562.77	28788.59
562.93	28353.25
563.10	28809.65
563.26	28596.67
563.42	28896.25
563.59	28727.74
563.75	28912.64
563.92	28669.22
564.08	28627.09
564.24	28603.69
564.41	28767.52
564.57	28816.68
564.74	28872.85
564.90	28795.61
565.07	29041.37
565.23	28535.81
565.39	28912.64
565.56	29078.82
565.72	28713.69
565.88	28758.16
566.05	29193.50
566.21	28971.15
566.38	28826.04
566.54	28854.12
566.70	29207.55
566.87	29249.67
567.03	28781.57
567.19	29586.71
567.36	29223.93
567.52	28734.76
567.68	28882.21
567.85	29186.48
568.01	28982.85
568.17	29050.73
568.34	28835.40
568.50	29137.33
568.66	28854.12
568.83	29240.31
568.99	29060.09
569.15	29050.73
569.32	29074.13
569.48	29156.05
569.64	29134.99
569.81	29125.63
569.97	29338.62
570.13	29095.20
570.30	29013.28
570.46	29448.62
570.62	29116.26
570.78	29123.29
570.95	29104.56
571.11	28826.04
571.27	29055.41
571.43	29291.80
571.60	29275.42
571.76	29106.90
571.92	29326.91
572.09	29362.02
572.25	29090.52
572.41	29308.19
572.57	29205.20
572.74	29362.02
572.90	28821.36
573.06	29198.18
573.22	29343.30
573.38	29219.25
573.55	29474.37
573.71	29579.69
573.87	29230.95
574.03	29219.25
574.20	29097.54
574.36	29186.48
574.52	29329.25
574.68	28910.30
574.84	29476.71
575.01	29179.46
575.17	29160.73
575.33	29240.31
575.49	29120.95
575.65	29411.17
575.82	29493.09
575.98	29249.67
576.14	29436.92
576.30	29600.76
576.46	28914.98
576.62	29184.14
576.79	29237.97
576.95	29207.55
577.11	29188.82
577.27	29418.19
577.43	29455.64
577.59	29275.42
577.75	29603.10
577.92	29074.13
578.08	29085.84
578.24	29062.43
578.40	29390.11
578.56	29254.36
578.72	29359.68
578.88	29563.31
579.04	29762.25
579.21	29373.72
579.37	29500.11
579.53	29436.92
579.69	29001.58
579.85	29429.90
580.01	29319.89
580.17	29394.79
580.33	29844.17
580.49	29235.63
580.65	29614.80
580.82	29523.52
580.98	29706.08
581.14	29659.27
581.30	29572.67
581.46	29233.29
581.62	29408.83
581.78	29322.23
581.94	29413.51
582.10	29385.43
582.26	29242.65
582.42	29502.45
582.58	29867.58
582.74	29474.37
582.90	29631.18
583.06	29514.16
583.22	29158.39
583.38	29539.90
583.54	29612.46
583.70	29795.02
583.86	29647.57
584.02	30064.18
584.18	30101.63
584.34	29394.79
584.50	29596.07
584.66	29654.59
584.82	29621.82
584.98	29500.11
585.14	29579.69
585.30	29483.73
585.46	29577.35
585.62	29795.02
585.78	29755.23
585.94	29631.18
586.10	29617.14
586.26	29893.32
586.42	29809.06
586.58	30150.78
586.74	29755.23
586.90	29343.30
587.06	29799.70
587.22	29680.33
587.38	29518.84
587.54	29963.54
587.70	29937.79
587.86	29628.84
588.02	29645.23
588.18	30031.41
588.34	29343.30
588.49	29809.06
588.65	29528.20
588.81	29874.60
588.97	29731.83
589.13	29734.17
589.29	29436.92
589.45	29687.36
589.61	29820.77
589.77	30410.58
589.93	29675.65
590.08	30363.77
590.24	29820.77
590.40	30265.47
590.56	29841.83
590.72	29443.94
590.88	29546.92
591.04	29867.58
591.20	30445.69
591.35	30164.82
591.51	30071.20
591.67	30015.03
591.83	30267.81
591.99	29926.09
592.15	30024.39
592.31	29954.18
592.46	29523.52
592.62	30099.29
592.78	29984.60
592.94	30155.46
593.10	30012.69
593.26	30270.15
593.41	30141.42
593.57	30085.25
593.73	30309.94
593.89	30024.39
594.05	30029.07
594.20	29860.55
594.36	29841.83
594.52	29902.68
594.68	29844.17
594.84	29624.16
594.99	29654.59
595.15	29977.58
595.31	30057.16
595.47	30005.67
595.62	30213.98
595.78	30118.01
595.94	29851.19
596.10	29825.45
596.25	29827.79
596.41	29680.33
596.57	29677.99
596.73	30363.77
596.88	29914.39
597.04	30354.41
597.20	30518.25
597.36	30354.41
597.51	30436.33
597.67	30209.29
597.83	30052.48
597.99	30274.83
598.14	29965.88
598.30	29923.75
598.46	29916.73
598.61	30258.45
598.77	29759.91
598.93	30354.41
599.09	29947.15
599.24	30543.99
599.40	30373.13
599.56	29977.58
599.71	30391.86
599.87	30298.23
600.03	30225.68
600.18	29926.09
600.34	29738.85
600.50	29883.96
600.65	30263.13
600.81	29954.18
600.97	30043.12
601.12	30347.39
601.28	30319.30
601.44	30450.37
601.59	30623.57
601.75	29909.71
601.91	30113.33
602.06	30312.28
602.22	29890.98
602.37	30073.54
602.53	30307.60
602.69	30335.68
602.84	30534.63
603.00	30574.42
603.16	29802.04
603.31	29979.92
603.47	30120.35
603.62	30127.38
603.78	30094.61
603.94	29986.94
604.09	30110.99
604.25	29900.34
604.40	30036.09
604.56	30082.91
604.71	30213.98
604.87	30022.05
605.03	30511.22
605.18	29923.75
605.34	30068.86
605.49	29986.94
605.65	30036.09
605.80	29708.42
605.96	30239.72
606.12	30118.01
606.27	30139.08
606.43	29923.75
606.58	30118.01
606.74	30080.56
606.89	29923.75
607.05	30391.86
607.20	30031.41
607.36	30057.16
607.51	29977.58
607.67	29750.55
607.82	30246.74
607.98	29961.20
608.13	29677.99
608.29	30146.10
608.44	29951.84
608.60	30202.27
608.75	30335.68
608.91	30148.44
609.06	29832.47
609.22	29750.55
609.37	29809.06
609.53	29689.70
609.68	29785.66
609.84	29823.11
609.99	29731.83
610.15	29715.44
610.30	29809.06
610.46	30043.12
610.61	29837.15
610.76	30209.29
610.92	29610.12
611.07	29715.44
611.23	29701.40
611.38	29982.26
611.54	29633.52
611.69	29745.87
611.84	29677.99
612.00	29748.21
612.15	29549.26
612.31	29572.67
612.46	29703.74
612.62	29888.64
612.77	29701.40
612.92	29645.23
613.08	29638.20
613.23	30223.34
613.39	29509.47
613.54	29401.81
613.69	29420.53
613.85	29235.63
614.00	29364.36
614.15	29532.88
614.31	29530.54
614.46	29649.91
614.62	29642.88
614.77	29652.25
614.92	29586.71
615.08	29406.49
615.23	29455.64
615.38	29699.06
615.54	29200.52
615.69	29130.31
615.84	29504.79
616.00	29687.36
616.15	29319.89
616.30	29233.29
616.46	29333.93
616.61	29500.11
616.76	29385.43
616.92	29331.59
617.07	29516.50
617.22	29015.62
617.37	29223.93
617.53	29291.80
617.68	29256.70
617.83	28985.19
617.99	29076.48
618.14	29237.97
618.29	29195.84
618.45	29247.33
618.60	28804.97
618.75	29057.75
618.90	29273.08
619.06	28701.99
619.21	28849.44
619.36	29020.30
619.51	28938.38
619.67	28793.27
619.82	28879.87
619.97	29046.05
620.12	28776.89
620.28	28343.89
620.43	29134.99
620.58	29207.55
620.73	28842.42
620.89	29144.35
621.04	29198.18
621.19	28957.11
621.34	28823.70
621.49	28746.46
621.65	28755.82
621.80	28760.50
621.95	28802.63
622.10	28790.93
622.25	28486.66
622.41	28938.38
622.56	28554.54
622.71	28907.96
622.86	29069.45
623.01	28718.37
623.16	28947.75
623.32	28341.55
623.47	28711.35
623.62	28652.84
623.77	28510.07
623.92	28744.12
624.07	28451.55
624.23	28561.56
624.38	28924.34
624.53	28535.81
624.68	28573.26
624.83	28610.71
624.98	28098.13
625.13	28514.75
625.29	29048.39
625.44	28472.62
625.59	28393.04
625.74	28250.27
625.89	28254.95
626.04	27974.08
626.19	28463.25
626.34	28105.15
626.49	28102.81
626.65	28430.49
626.80	28538.15
626.95	28474.96
627.10	28065.36
627.25	28027.92
627.40	27889.82
627.55	28004.51
627.70	27903.87
627.85	28098.13
628.00	28371.97
628.15	28077.07
628.30	28006.85
628.45	27964.72
628.60	27894.50
628.76	28100.47
628.91	27861.74
629.06	28201.11
629.21	27985.79
629.36	28121.54
629.51	27967.06
629.66	27805.56
629.81	27763.43
629.96	27831.31
630.11	28058.34
630.26	27538.74
630.41	27756.41
630.56	27662.79
630.71	27730.67
630.86	28032.60
631.01	27676.83
631.16	27725.99
631.31	27763.43
631.46	27683.86
631.61	27835.99
631.76	27721.30
631.91	27307.03
632.06	27412.35
632.21	27520.02
632.36	27728.33
632.51	27388.95
632.66	27580.87
632.81	27569.17
632.96	27414.69
633.10	27468.53
633.25	28002.17
633.40	27821.95
633.55	27594.92
633.70	27229.79
633.85	27290.65
634.00	27260.22
634.15	27047.23
634.30	27428.74
634.45	27199.37
634.60	27349.16
634.75	27381.93
634.90	27274.26
635.05	27641.73
635.19	27325.75
635.34	27005.10
635.49	27428.74
635.64	27541.08
635.79	27548.11
635.94	26995.74
636.09	27487.25
636.24	27159.58
636.39	27274.26
636.53	26862.33
636.68	26843.60
636.83	26906.80
636.98	27239.15
637.13	27290.65
637.28	27208.73
637.43	27159.58
637.57	27304.69
637.72	27175.96
637.87	27351.50
638.02	26944.25
638.17	26714.87
638.32	26883.39
638.46	26962.97
638.61	26946.59
638.76	26654.02
638.91	27023.83
639.06	26850.63
639.20	26644.66
639.35	27014.46
639.50	26625.93
639.65	26974.67
639.80	26874.03
639.94	26616.57
640.09	26988.72
640.24	26927.86
640.39	26572.10
640.54	26733.60
640.68	26492.52
640.83	26614.23
640.98	26284.22
641.13	26363.79
641.27	26714.87
641.42	26691.47
641.57	26382.52
641.72	26583.80
641.86	26347.41
642.01	26345.07
642.16	26560.40
642.31	26295.92
642.45	26602.53
642.60	25823.13
642.75	26206.98
642.90	26057.18
643.04	26410.60
643.19	26326.35
643.34	26436.35
643.48	25968.24
643.63	26211.66
643.78	26335.71
643.93	26628.27
644.07	26600.19
644.22	26169.53
644.37	26314.64
644.51	26808.50
644.66	26345.07
644.81	26277.19
644.95	26157.83
645.10	25930.80
645.25	26324.01
645.39	26111.02
645.54	26263.15
645.69	26050.16
645.83	25975.27
645.98	26139.10
646.13	26192.94
646.27	26202.30
646.42	26366.13
646.57	26286.56
646.71	26038.46
646.86	26001.01
647.00	26026.76
647.15	25921.43
647.30	25851.22
647.44	25729.51
647.59	25678.02
647.74	25825.47
647.88	25905.05
648.03	26132.08
648.17	25912.07
648.32	26033.78
648.47	26068.89
648.61	25502.48
648.76	26279.54
648.90	25766.96
649.05	25720.15
649.20	25638.23
649.34	25362.04
649.49	25322.26
649.63	25621.84
649.78	25598.44
649.92	25397.15
650.07	25738.87
650.21	25350.34
650.36	25565.67
650.51	25792.70
650.65	25692.06
650.80	25579.71
650.94	25472.05
651.09	25455.67
651.23	25329.28
651.38	25579.71
651.52	25565.67
651.67	25488.43
651.81	25490.77
651.96	25348.00
652.10	25336.30
652.25	25610.14
652.39	25706.10
652.54	25441.62
652.68	25668.66
652.83	25610.14
652.97	25415.88
653.12	25434.60
653.26	25228.63
653.41	25228.63
653.55	25238.00
653.70	24837.76
653.84	25144.38
653.99	25364.39
654.13	25088.20
654.27	25020.33
654.42	25186.50
654.56	24847.13
654.71	25268.42
654.85	24966.49
655.00	24961.81
655.14	25081.18
655.29	25500.14
655.43	25142.03
655.57	25294.17
655.72	25188.85
655.86	25216.93
656.01	24950.11
656.15	24875.21
656.30	24779.25
656.44	24814.36
656.58	24842.45
656.73	24919.68
656.87	24985.22
657.01	24739.46
657.16	25132.67
657.30	24711.38
657.45	24678.61
657.59	25025.01
657.73	24751.17
657.88	24952.45
658.02	24842.45
658.16	24491.37
658.31	24320.51
658.45	24442.21
658.60	24360.30
658.74	24524.13
658.88	24357.96
659.03	24463.28
659.17	24470.30
659.31	24388.38
659.46	24451.58
659.60	24732.44
659.74	24402.43
659.89	24350.93
660.03	24360.30
660.17	24287.74
660.32	24219.86
660.46	23929.64
660.60	23913.25
660.74	23885.17
660.89	24009.22
661.03	23953.04
661.17	23868.78
661.32	23927.30
661.46	24336.89
661.60	24203.48
661.74	24058.37
661.89	23955.38
662.03	23990.49
662.17	23939.00
662.31	23878.15
662.46	23899.21
662.60	23765.80
662.74	23852.40
662.88	23718.99
663.03	23510.68
663.17	23679.20
663.31	23569.19
663.45	23587.92
663.60	23381.95
663.74	23651.11
663.88	23587.92
664.02	23709.63
664.17	23510.68
664.31	23566.85
664.45	23159.60
664.59	23606.64
664.73	23541.11
664.88	23534.09
665.02	22993.42
665.16	22838.95
665.30	23288.33
665.44	23178.33
665.59	22860.01
665.73	23267.27
665.87	23021.51
666.01	23257.90
666.15	23110.45
666.29	23147.90
666.44	22771.07
666.58	22958.31
666.72	22801.50
666.86	22892.78
667.00	22750.01
667.14	22892.78
667.28	22794.48
667.43	22490.21
667.57	22698.52
667.71	22579.15
667.85	22607.23
667.99	22576.81
668.13	22902.14
668.27	22590.85
668.41	22455.10
668.56	22122.74
668.70	22670.43
668.84	22752.35
668.98	22286.58
669.12	22494.89
669.26	22382.54
669.40	22001.04
669.54	22118.06
669.68	21916.78
669.82	22075.93
669.96	21914.44
670.10	22214.02
670.25	22225.73
670.39	22150.83
670.53	21851.24
670.67	21975.29
670.81	22143.81
670.95	22043.17
671.09	21743.58
671.23	21970.61
671.37	21968.27
671.51	21963.59
671.65	21984.65
671.79	21703.79
671.93	21795.07
672.07	21376.11
672.21	21486.12
672.35	21687.40
672.49	21385.47
672.63	21303.56
672.77	21254.40
672.91	21214.62
673.05	21254.40
673.19	21064.82
673.33	21502.50
673.47	21247.38
673.61	21268.45
673.75	21207.59
673.89	21043.76
674.03	21174.83
674.17	21128.02
674.31	21006.31
674.45	20758.21
674.59	20842.47
674.73	20982.90
674.87	20652.89
675.01	20608.42
675.15	20629.48
675.29	20430.54
675.43	20741.83
675.56	20835.45
675.70	20720.76
675.84	20538.20
675.98	19906.26
676.12	20533.52
676.26	20814.38
676.40	20624.80
676.54	20383.73
676.68	20418.83
676.82	19864.13
676.96	20004.56
677.10	20074.77
677.23	19850.08
677.37	19742.42
677.51	19915.62
677.65	19749.44
677.79	19524.75
677.93	19843.06
678.07	19669.86
678.21	19283.67
678.34	19557.52
678.48	19536.45
678.62	19332.82
678.76	18829.61
678.90	19297.72
679.04	19353.89
679.18	19168.99
679.31	18953.66
679.45	19220.48
679.59	18853.02
679.73	18967.70
679.87	18841.31
680.00	19073.03
680.14	18579.17
680.28	18738.33
680.42	18841.31
680.56	18803.86
680.70	18792.16
680.83	18782.80
680.97	18703.22
681.11	18565.13
681.25	18747.69
681.39	18625.98
681.52	18401.29
681.66	18052.55
681.80	18181.28
681.94	18026.81
682.07	18092.34
682.21	17977.65
682.35	17649.98
682.49	17797.43
682.62	17500.19
682.76	17708.49
682.90	17818.50
683.04	17834.88
683.17	17657.00
683.31	17422.95
683.45	17797.43
683.59	17504.87
683.72	17364.43
683.86	17568.06
684.00	17687.43
684.13	17399.54
684.27	17394.86
684.41	17282.52
684.55	17071.87
684.68	17050.80
684.82	16971.22
684.96	16957.18
685.09	16645.89
685.23	16826.11
685.37	16720.79
685.50	16847.18
685.64	16774.62
685.78	16805.05
685.91	16779.30
686.05	16599.08
686.19	16542.91
686.32	16568.65
686.46	16332.26
686.60	16259.70
686.73	16152.04
686.87	16283.11
687.01	16170.76
687.14	16285.45
687.28	15939.05
687.42	16009.26
687.55	15861.81
687.69	15967.13
687.82	15829.04
687.96	15932.03
688.10	15592.65
688.23	15908.62
688.37	15583.29
688.50	15730.74
688.64	15618.39
688.78	15480.30
688.91	15307.10
689.05	15510.73
689.18	15311.78
689.32	14904.53
689.46	14920.92
689.59	15117.52
689.73	14904.53
689.86	14822.61
690.00	15152.63
690.13	15021.56
690.27	14927.94
690.41	15033.26
690.54	14707.93
690.68	15023.90
690.81	14855.38
690.95	14841.34
691.08	14705.59
691.22	14691.54
691.35	14628.35
691.49	14562.81
691.62	14576.86
691.76	14551.11
691.89	14562.81
692.03	14167.26
692.16	14176.62
692.30	14235.14
692.43	14003.43
692.57	14090.02
692.70	14118.11
692.84	13956.61
692.97	13919.17
693.11	13776.39
693.24	13844.27
693.38	13701.50
693.51	13722.56
693.65	13806.82
693.78	13755.33
693.92	13652.34
694.05	13685.11
694.19	13465.10
694.32	13476.80
694.45	13296.58
694.59	13397.23
694.72	12987.63
694.86	13067.21
694.99	13139.77
695.13	13195.94
695.26	12971.25
695.39	12645.91
695.53	13139.77
695.66	13008.70
695.80	13041.46
695.93	13069.55
696.07	12971.25
696.20	12896.35
696.33	12713.79
696.47	12545.27
696.60	12631.87
696.73	12393.14
696.87	12437.61
697.00	12311.22
697.14	12276.11
697.27	12107.59
697.40	12238.66
697.54	12056.10
697.67	12147.38
697.80	12133.34
697.94	11810.34
698.07	12002.27
698.21	11850.13
698.34	11875.88
698.47	11815.02
698.61	11630.12
698.74	11955.46
698.87	11880.56
699.01	11669.91
699.14	11616.08
699.27	11716.72
699.40	11630.12
699.54	11566.93
699.67	11653.53
699.80	11241.59
699.94	11307.13
700.07	11335.21
700.20	11140.95
700.34	11419.47
700.47	11040.31
700.60	11103.50
700.73	11232.23
700.87	11115.20
701.00	10895.19
701.13	10972.43
701.26	11012.22
701.40	10904.56
701.53	10836.68
701.66	10897.53
701.79	10604.97
701.93	10487.94
702.06	10677.52
702.19	10761.78
702.32	10581.56
702.46	10363.89
702.59	10249.21
702.72	10331.12
702.85	10373.25
702.99	10235.16
703.12	10211.76
703.25	10242.18
703.38	10118.14
703.51	9884.08
703.65	10218.78
703.78	9991.75
703.91	10253.89
704.04	10118.14
704.17	10127.50
704.31	10104.09
704.44	9844.29
704.57	9731.95
704.70	9605.56
704.83	9607.90
704.96	9488.53
705.10	9338.74
705.23	9334.06
>>>>>End Processed Spectral Data<<<<<
