SpectraSuite Data File
++++++++++++++++++++++++++++++++++++
Date: Fri Oct 18 13:58:26 GMT-05:00 2013
User: bianchi
Dark Spectrum Present: No
Reference Spectrum Present: No
Number of Sampled Component Spectra: 1
Spectrometers: USB2+H05261
Integration Time (usec): 50000 (USB2+H05261)
Spectra Averaged: 1 (USB2+H05261)
Boxcar Smoothing: 0 (USB2+H05261)
Correct for Electrical Dark: No (USB2+H05261)
Strobe/Lamp Enabled: No (USB2+H05261)
Correct for Detector Non-linearity: No (USB2+H05261)
Correct for Stray Light: No (USB2+H05261)
Number of Pixels in Processed Spectrum: 2048
>>>>>Begin Processed Spectral Data<<<<<
365.73	0.00
365.92	0.00
366.12	0.00
366.32	0.00
366.52	0.00
366.72	0.00
366.91	0.00
367.11	0.00
367.31	0.00
367.51	0.00
367.70	0.00
367.90	0.00
368.10	0.00
368.30	0.00
368.49	0.00
368.69	0.00
368.89	0.00
369.09	0.00
369.28	0.00
369.48	0.00
369.68	0.00
369.87	0.00
370.07	0.00
370.27	0.00
370.47	0.00
370.66	74.90
370.86	91.28
371.06	114.69
371.25	37.45
371.45	156.82
371.65	180.22
371.84	152.13
372.04	149.79
372.24	220.01
372.44	229.37
372.63	175.54
372.83	133.41
373.03	140.43
373.22	208.31
373.42	168.52
373.62	191.92
373.81	257.46
374.01	154.48
374.21	252.78
374.40	212.99
374.60	217.67
374.79	210.65
374.99	287.89
375.19	294.91
375.38	269.16
375.58	271.50
375.78	229.37
375.97	283.20
376.17	299.59
376.37	238.73
376.56	297.25
376.76	283.20
376.95	124.05
377.15	304.27
377.35	299.59
377.54	278.52
377.74	278.52
377.93	227.03
378.13	273.84
378.33	290.23
378.52	255.12
378.72	243.42
378.91	322.99
379.11	264.48
379.31	301.93
379.50	217.67
379.70	283.20
379.89	299.59
380.09	243.42
380.28	308.95
380.48	250.44
380.68	313.63
380.87	360.44
381.07	280.86
381.26	287.89
381.46	339.38
381.65	355.76
381.85	351.08
382.04	367.46
382.24	376.83
382.43	360.44
382.63	339.38
382.83	304.27
383.02	313.63
383.22	404.91
383.41	337.04
383.61	416.62
383.80	402.57
384.00	381.51
384.19	325.33
384.39	325.33
384.58	344.06
384.78	252.78
384.97	353.42
385.17	367.46
385.36	358.10
385.56	416.62
385.75	346.40
385.95	362.78
386.14	423.64
386.34	407.25
386.53	369.80
386.72	386.19
386.92	393.21
387.11	400.23
387.31	421.30
387.50	444.70
387.70	428.32
387.89	325.33
388.09	435.34
388.28	475.13
388.48	449.38
388.67	489.17
388.86	423.64
389.06	414.27
389.25	521.94
389.45	428.32
389.64	414.27
389.84	500.87
390.03	468.11
390.22	498.53
390.42	383.85
390.61	470.45
390.81	411.93
391.00	514.92
391.19	566.41
391.39	491.51
391.58	564.07
391.78	458.74
391.97	444.70
392.16	564.07
392.36	526.62
392.55	543.00
392.75	472.79
392.94	472.79
393.13	554.71
393.33	475.13
393.52	660.03
393.71	587.47
393.91	573.43
394.10	550.03
394.29	479.81
394.49	517.26
394.68	596.84
394.88	622.58
395.07	564.07
395.26	578.11
395.46	592.16
395.65	657.69
395.84	683.44
396.04	678.76
396.23	667.05
396.42	631.94
396.62	587.47
396.81	571.09
397.00	615.56
397.19	589.82
397.39	709.18
397.58	770.04
397.77	667.05
397.97	748.97
398.16	674.07
398.35	653.01
398.55	657.69
398.74	753.65
398.93	732.59
399.12	763.01
399.32	713.86
399.51	662.37
399.70	737.27
399.90	795.78
400.09	695.14
400.28	688.12
400.47	786.42
400.67	744.29
400.86	784.08
401.05	770.04
401.24	840.25
401.44	772.38
401.63	856.64
401.82	807.48
402.01	833.23
402.21	758.33
402.40	781.74
402.59	777.06
402.78	793.44
402.97	919.83
403.17	828.55
403.36	884.72
403.55	924.51
403.74	924.51
403.93	863.66
404.13	910.47
404.32	912.81
404.51	873.02
404.70	1034.52
404.89	887.06
405.09	971.32
405.28	947.92
405.47	842.59
405.66	922.17
405.85	863.66
406.05	905.79
406.24	1020.47
406.43	983.02
406.62	968.98
406.81	1064.94
407.00	1064.94
407.20	1022.81
407.39	1046.22
407.58	1046.22
407.77	1067.28
407.96	1048.56
408.15	1081.33
408.34	1046.22
408.54	1128.14
408.73	1067.28
408.92	1083.67
409.11	1149.20
409.30	1177.29
409.49	1067.28
409.68	1186.65
409.87	1102.39
410.07	1149.20
410.26	1238.14
410.45	1214.74
410.64	1146.86
410.83	1217.08
411.02	1121.12
411.21	1228.78
411.40	1224.10
411.59	1352.83
411.78	1188.99
411.98	1327.08
412.17	1263.89
412.36	1364.53
412.55	1348.15
412.74	1385.60
412.93	1277.93
413.12	1364.53
413.31	1313.04
413.50	1324.74
413.69	1409.00
413.88	1418.36
414.07	1425.39
414.26	1488.58
414.45	1507.30
414.64	1497.94
414.83	1430.07
415.02	1530.71
415.22	1476.88
415.41	1535.39
415.60	1446.45
415.79	1547.09
415.98	1612.63
416.17	1650.08
416.36	1519.01
416.55	1521.35
416.74	1600.93
416.93	1652.42
417.12	1647.74
417.31	1654.76
417.50	1673.48
417.69	1755.40
417.88	1825.62
418.07	1755.40
418.26	1715.61
418.45	1741.36
418.64	1872.43
418.83	1706.25
419.02	1825.62
419.21	1837.32
419.39	1865.41
419.58	1680.50
419.77	1736.68
419.96	1942.64
420.15	1900.52
420.34	1923.92
420.53	1799.87
420.72	1900.52
420.91	1921.58
421.10	1940.30
421.29	1942.64
421.48	1959.03
421.67	1900.52
421.86	1902.86
422.05	1996.48
422.24	1933.28
422.43	1949.67
422.61	1891.15
422.80	2069.03
422.99	1991.80
423.18	1959.03
423.37	1987.11
423.56	2005.84
423.75	1968.39
423.94	1952.01
424.13	1909.88
424.32	1886.47
424.50	2017.54
424.69	2136.91
424.88	2160.31
425.07	1968.39
425.26	2001.16
425.45	2036.27
425.64	2019.88
425.83	2003.50
426.01	2066.69
426.20	2073.71
426.39	2204.78
426.58	2054.99
426.77	2047.97
426.96	2094.78
427.15	2186.06
427.33	2001.16
427.52	2122.87
427.71	2195.42
427.90	2129.89
428.09	2209.47
428.28	2211.81
428.46	2253.94
428.65	2197.76
428.84	2277.34
429.03	2218.83
429.22	2282.02
429.40	2146.27
429.59	2225.85
429.78	2122.87
429.97	2221.17
430.16	2242.23
430.34	2235.21
430.53	2312.45
430.72	2445.86
430.91	2340.54
431.10	2279.68
431.28	2328.83
431.47	2324.15
431.66	2275.00
431.85	2368.62
432.03	2450.54
432.22	2455.22
432.41	2436.50
432.60	2387.35
432.79	2363.94
432.97	2326.49
433.16	2473.95
433.35	2408.41
433.54	2424.80
433.72	2462.24
433.91	2499.69
434.10	2546.50
434.28	2581.61
434.47	2565.23
434.66	2401.39
434.85	2588.63
435.03	2609.70
435.22	2626.08
435.41	2710.34
435.59	2731.41
435.78	2635.44
435.97	2612.04
436.16	2670.55
436.34	2560.55
436.53	2722.04
436.72	2726.72
436.90	2588.63
437.09	2616.72
437.28	2649.49
437.46	2780.56
437.65	2771.19
437.84	2904.60
438.02	2672.89
438.21	2808.64
438.40	2801.62
438.58	2839.07
438.77	2761.83
438.96	2939.71
439.14	2857.79
439.33	2937.37
439.52	2871.84
439.70	2970.14
439.89	3038.02
440.08	3016.95
440.26	2979.50
440.45	3030.99
440.63	3138.66
440.82	3119.93
441.01	2986.52
441.19	3131.64
441.38	3318.88
441.57	3302.50
441.75	3213.56
441.94	3185.47
442.12	3251.00
442.31	3274.41
442.50	3136.32
442.68	3236.96
442.87	3260.37
443.05	3307.18
443.24	3501.44
443.43	3351.65
443.61	3447.61
443.80	3421.86
443.98	3295.47
444.17	3232.28
444.35	3517.83
444.54	3424.20
444.73	3332.92
444.91	3368.03
445.10	3475.70
445.28	3375.05
445.47	3426.54
445.65	3384.41
445.84	3449.95
446.02	3414.84
446.21	3393.78
446.39	3396.12
446.58	3459.31
446.77	3508.46
446.95	3410.16
447.14	3534.21
447.32	3543.57
447.51	3386.76
447.69	3475.70
447.88	3452.29
448.06	3482.72
448.25	3485.06
448.43	3520.17
448.62	3445.27
448.80	3536.55
448.99	3543.57
449.17	3595.06
449.36	3494.42
449.54	3714.43
449.73	3609.11
449.91	3691.02
450.10	3588.04
450.28	3625.49
450.46	3646.55
450.65	3688.68
450.83	3733.15
451.02	3660.60
451.20	3737.84
451.39	3662.94
451.57	3810.39
451.76	3843.16
451.94	3700.39
452.13	3894.65
452.31	3906.35
452.49	3765.92
452.68	3885.29
452.86	3866.56
453.05	3934.44
453.23	4002.32
453.42	3904.01
453.60	3817.41
453.78	3889.97
453.97	3843.16
454.15	4018.70
454.34	3861.88
454.52	3941.46
454.70	3983.59
454.89	3988.27
455.07	3995.29
455.26	3983.59
455.44	4112.32
455.62	4051.47
455.81	3896.99
455.99	4058.49
456.17	4135.73
456.36	4121.68
456.54	4423.61
456.73	4299.56
456.91	4250.41
457.09	4184.88
457.28	4341.69
457.46	4229.35
457.64	4203.60
457.83	4334.67
458.01	4327.65
458.19	4418.93
458.38	4259.78
458.56	4465.74
458.74	4435.32
458.93	4503.19
459.11	4458.72
459.29	4428.29
459.48	4386.16
459.66	4470.42
459.84	4585.11
460.03	4538.30
460.21	4547.66
460.39	4547.66
460.57	4486.81
460.76	4559.36
460.94	4601.49
461.12	4624.90
461.31	4519.57
461.49	4615.54
461.67	4620.22
461.85	4718.52
462.04	4615.54
462.22	4709.16
462.40	4589.79
462.59	4774.69
462.77	4545.32
462.95	4683.41
463.13	4858.95
463.32	4774.69
463.50	4734.90
463.68	4877.68
463.86	4730.22
464.05	4786.40
464.23	4800.44
464.41	4947.89
464.59	4671.71
464.78	4924.49
464.96	4788.74
465.14	4880.02
465.32	4959.60
465.50	5036.83
465.69	4971.30
465.87	4961.94
466.05	4992.36
466.23	5083.64
466.41	5121.09
466.60	5177.26
466.78	4992.36
466.96	4908.10
467.14	4966.62
467.32	5090.67
467.51	5158.54
467.69	4933.85
467.87	5193.65
468.05	5055.56
468.23	5331.74
468.41	5078.96
468.60	5062.58
468.78	5181.95
468.96	5132.79
469.14	5184.29
469.32	5252.16
469.50	5128.11
469.69	5224.08
469.87	5479.19
470.05	5551.75
470.23	5320.04
470.41	5275.57
470.59	5448.77
470.77	5352.81
470.95	5427.70
471.14	5352.81
471.32	5479.19
471.50	5628.99
471.68	5570.48
471.86	5586.86
472.04	5591.54
472.22	5675.80
472.40	5626.65
472.58	5706.23
472.77	5624.31
472.95	5816.23
473.13	5886.45
473.31	5844.32
473.49	5809.21
473.67	5863.04
473.85	5898.15
474.03	6008.16
474.21	5865.38
474.39	5886.45
474.57	6050.28
474.75	5900.49
474.93	6228.17
475.12	6108.80
475.30	6113.48
475.48	6101.78
475.66	6286.68
475.84	6251.57
476.02	6265.61
476.20	6251.57
476.38	6396.68
476.56	6476.26
476.74	6581.59
476.92	6546.48
477.10	6445.84
477.28	6661.16
477.46	6834.36
477.64	6630.74
477.82	6733.72
478.00	6892.88
478.18	6892.88
478.36	7049.69
478.54	6916.28
478.72	7152.68
478.90	7126.93
479.08	7133.95
479.26	7227.57
479.44	7229.91
479.62	7276.73
479.80	7496.74
479.98	7433.54
480.16	7606.74
480.34	7461.63
480.52	7662.91
480.70	7463.97
480.88	7648.87
481.06	7854.84
481.24	7712.07
481.41	7864.20
481.59	7943.78
481.77	7784.62
481.95	7845.48
482.13	8035.06
482.31	8189.53
482.49	8177.83
482.67	8046.76
482.85	8215.28
483.03	8386.14
483.21	8573.38
483.39	8620.19
483.57	8542.96
483.74	8788.71
483.92	8711.47
484.10	8744.24
484.28	8844.88
484.46	9041.49
484.64	9221.71
484.82	8875.31
485.00	9053.19
485.18	9282.56
485.35	9467.47
485.53	9348.10
485.71	9357.46
485.89	9727.27
486.07	9439.38
486.25	9549.39
486.43	9635.99
486.61	9785.78
486.78	9895.78
486.96	9879.40
487.14	10068.98
487.32	10047.92
487.50	10174.31
487.68	10064.30
487.85	10380.28
488.03	10319.42
488.21	10541.77
488.39	10532.41
488.57	10597.95
488.75	10843.70
488.92	11176.06
489.10	10736.04
489.28	11037.97
489.46	10883.49
489.64	11040.31
489.81	11183.08
489.99	11272.02
490.17	11272.02
490.35	11260.32
490.53	11393.73
490.70	11396.07
490.88	11700.34
491.06	11950.78
491.24	11812.68
491.41	11922.69
491.59	11899.28
491.77	11857.15
491.95	12035.03
492.13	12011.63
492.30	12196.53
492.48	12276.11
492.66	12451.65
492.84	12304.20
493.01	12601.44
493.19	12437.61
493.37	12833.16
493.54	12601.44
493.72	12961.89
493.90	12879.97
494.08	12732.51
494.25	13069.55
494.43	13259.13
494.61	13233.39
494.79	13275.52
494.96	13280.20
495.14	13371.48
495.32	13467.44
495.49	13528.30
495.67	13722.56
495.85	13865.33
496.02	13930.87
496.20	13825.54
496.38	13708.52
496.55	13664.05
496.73	14207.05
496.91	14207.05
497.09	14265.57
497.26	14281.95
497.44	14314.72
497.62	14279.61
497.79	14408.34
497.97	14604.94
498.14	14588.56
498.32	14885.81
498.50	14600.26
498.67	15028.58
498.85	14635.37
499.03	14916.23
499.20	15061.35
499.38	14857.72
499.56	15248.59
499.73	15056.67
499.91	15360.94
500.08	15318.81
500.26	15325.83
500.44	15482.64
500.61	15421.79
500.79	15503.71
500.97	15590.31
501.14	15779.89
501.32	15789.25
501.49	15609.03
501.67	15550.52
501.84	15662.86
502.02	15920.32
502.20	15892.24
502.37	15992.88
502.55	16074.80
502.72	16175.44
502.90	16002.24
503.07	16142.67
503.25	16156.72
503.43	16191.83
503.60	16599.08
503.78	16671.64
503.95	16212.89
504.13	16594.40
504.30	16767.60
504.48	16781.64
504.65	16627.17
504.83	16903.35
505.01	16954.84
505.18	17034.42
505.36	17099.95
505.53	16755.90
505.71	17125.70
505.88	17149.11
506.06	17097.61
506.23	17275.49
506.41	17181.87
506.58	17348.05
506.76	17188.89
506.93	17385.50
507.11	17289.54
507.28	17554.02
507.46	17474.44
507.63	17561.04
507.81	17832.54
507.98	17830.20
508.16	17734.24
508.33	17675.73
508.50	17802.11
508.68	17846.58
508.85	18061.91
509.03	18141.49
509.20	18256.18
509.38	18265.54
509.55	18363.84
509.73	18633.00
509.90	18394.27
510.08	18246.82
510.25	18317.03
510.42	18354.48
510.60	18675.13
510.77	18731.31
510.95	18515.98
511.12	18534.70
511.30	18771.10
511.47	18789.82
511.64	18869.40
511.82	19000.47
511.99	18986.43
512.17	19054.30
512.34	19005.15
512.51	19040.26
512.69	19122.18
512.86	19325.80
513.04	19269.63
513.21	19414.74
513.38	19466.24
513.56	19283.67
513.73	19239.20
513.90	19466.24
514.08	19812.63
514.25	19503.68
514.43	19590.28
514.60	19716.67
514.77	20056.05
514.95	20013.92
515.12	19683.91
515.29	19831.36
515.47	19976.47
515.64	20194.14
515.81	19953.07
515.99	19948.39
516.16	19932.00
516.33	20009.24
516.51	20210.53
516.68	20074.77
516.85	20582.67
517.03	20194.14
517.20	20507.77
517.37	20374.36
517.54	20439.90
517.72	20521.82
517.89	20460.96
518.06	20446.92
518.24	20765.23
518.41	20547.56
518.58	20575.65
518.75	20992.26
518.93	20545.22
519.10	20779.28
519.27	20840.13
519.45	20936.09
519.62	21020.35
519.79	21034.39
519.96	21104.61
520.14	21212.28
520.31	20889.28
520.48	21343.35
520.65	21289.51
520.83	21205.25
521.00	21252.06
521.17	21568.04
521.34	21610.17
521.52	21401.86
521.69	21549.31
521.86	21727.19
522.03	21923.80
522.20	21839.54
522.38	21729.53
522.55	21696.77
522.72	21912.10
522.89	21986.99
523.07	22419.99
523.24	21888.69
523.41	22139.13
523.58	21923.80
523.75	22293.60
523.92	21888.69
524.10	21858.26
524.27	22281.90
524.44	22682.13
524.61	22326.37
524.78	22300.62
524.96	22075.93
525.13	22771.07
525.30	22405.95
525.47	22768.73
525.64	22494.89
525.81	22441.06
525.98	22642.34
526.16	22632.98
526.33	22796.82
526.50	22902.14
526.67	22848.31
526.84	22640.00
527.01	22640.00
527.18	22679.79
527.36	22965.34
527.53	23103.43
527.70	23108.11
527.87	23590.26
528.04	23330.46
528.21	23077.68
528.38	23133.86
528.55	23213.43
528.72	23307.05
528.89	23637.07
529.07	23285.99
529.24	23524.72
529.41	23239.18
529.58	23323.44
529.75	23271.95
529.92	23520.04
530.09	23403.02
530.26	23332.80
530.43	23531.75
530.60	23831.33
530.77	23606.64
530.94	23768.14
531.11	23744.73
531.28	23484.94
531.46	23800.91
531.63	23838.36
531.80	23871.12
531.97	24140.29
532.14	23967.09
532.31	23992.83
532.48	24100.50
532.65	24020.92
532.82	23983.47
532.99	24201.14
533.16	23791.55
533.33	24357.96
533.50	24467.96
533.67	24573.28
533.84	23700.26
534.01	24180.07
534.18	24341.57
534.35	24510.09
534.52	24034.96
534.69	24526.47
534.86	24678.61
535.03	24849.47
535.20	24706.70
535.37	24627.12
535.54	24589.67
535.71	24472.64
535.88	24765.21
536.05	24514.77
536.22	24851.81
536.38	25111.61
536.55	24748.82
536.72	24809.68
536.89	24716.06
537.06	24856.49
537.23	24980.54
537.40	24694.99
537.57	25022.67
537.74	25090.54
537.91	25453.33
538.08	25228.63
538.25	24936.07
538.42	25383.11
538.59	24933.73
538.75	24746.48
538.92	25242.68
539.09	25282.47
539.26	25312.89
539.43	25495.46
539.60	25610.14
539.77	25310.55
539.94	25373.75
540.11	25631.21
540.28	25577.37
540.44	25366.73
540.61	25516.52
540.78	25399.49
540.95	25450.99
541.12	25518.86
541.29	25720.15
541.46	25710.78
541.62	25535.24
541.79	25607.80
541.96	25467.37
542.13	25771.64
542.30	25776.32
542.47	25820.79
542.63	26169.53
542.80	26288.90
542.97	26078.25
543.14	26366.13
543.31	26277.19
543.48	26359.11
543.64	26424.65
543.81	26260.81
543.98	26639.98
544.15	26415.29
544.32	26593.17
544.48	26359.11
544.65	26354.43
544.82	26134.42
544.99	26684.45
545.16	26415.29
545.32	26410.60
545.49	26717.22
545.66	26766.37
545.83	26778.07
546.00	26761.69
546.16	26630.62
546.33	26548.70
546.50	26417.63
546.67	26679.77
546.83	26415.29
547.00	27080.00
547.17	27199.37
547.34	26967.65
547.50	27080.00
547.67	27049.57
547.84	26984.04
548.00	27105.74
548.17	27288.31
548.34	27229.79
548.51	26941.91
548.67	27491.93
548.84	27049.57
549.01	27180.64
549.18	26895.10
549.34	27248.52
549.51	26852.97
549.68	27199.37
549.84	27089.36
550.01	27541.08
550.18	27171.28
550.34	27218.09
550.51	27548.11
550.68	27786.84
550.84	27302.35
551.01	27201.71
551.18	26974.67
551.34	27346.82
551.51	27372.57
551.68	27765.78
551.84	27632.36
552.01	27473.21
552.18	27669.81
552.34	27625.34
552.51	27716.62
552.68	27381.93
552.84	27623.00
553.01	27955.36
553.18	27676.83
553.34	28121.54
553.51	27824.29
553.67	27718.96
553.84	28201.11
554.01	28032.60
554.17	27665.13
554.34	27723.65
554.51	27838.33
554.67	28088.77
554.84	28105.15
555.00	28243.24
555.17	27807.90
555.33	28079.41
555.50	28212.82
555.67	27969.40
555.83	27711.94
556.00	28023.23
556.16	28041.96
556.33	28198.77
556.50	28449.21
556.66	28407.08
556.83	28236.22
556.99	28474.96
557.16	28119.20
557.32	28093.45
557.49	28781.57
557.65	28439.85
557.82	28112.17
557.98	28095.79
558.15	27800.88
558.32	28381.34
558.48	28524.11
558.65	28198.77
558.81	28350.91
558.98	28599.01
559.14	28627.09
559.31	28474.96
559.47	28308.78
559.64	28767.52
559.80	28575.60
559.97	28783.91
560.13	28673.90
560.30	28512.41
560.46	28912.64
560.63	28540.49
560.79	28720.71
560.96	28943.06
561.12	28491.34
561.29	28741.78
561.45	28767.52
561.61	28697.31
561.78	28498.36
561.94	29064.77
562.11	28982.85
562.27	28573.26
562.44	28861.15
562.60	28769.86
562.77	28704.33
562.93	28458.57
563.10	29226.27
563.26	28730.08
563.42	29287.12
563.59	29057.75
563.75	28713.69
563.92	29376.06
564.08	29020.30
564.24	28936.04
564.41	28849.44
564.57	29188.82
564.74	28931.36
564.90	29432.24
565.07	29282.44
565.23	29158.39
565.39	28975.83
565.56	29242.65
565.72	28968.81
565.88	29179.46
566.05	28987.53
566.21	29001.58
566.38	28884.55
566.54	28922.00
566.70	29252.02
566.87	29490.75
567.03	29090.52
567.19	29551.60
567.36	29483.73
567.52	28975.83
567.68	29179.46
567.85	29020.30
568.01	29453.30
568.17	29233.29
568.34	29411.17
568.50	29546.92
568.66	28964.13
568.83	29254.36
568.99	29200.52
569.15	29284.78
569.32	29359.68
569.48	29050.73
569.64	29422.87
569.81	29525.86
569.97	29544.58
570.13	29694.38
570.30	28975.83
570.46	29663.95
570.62	29221.59
570.78	29380.74
570.95	29113.92
571.11	29366.70
571.27	29198.18
571.43	29057.75
571.60	29418.19
571.76	29481.39
571.92	29455.64
572.09	29380.74
572.25	29535.22
572.41	29586.71
572.57	29287.12
572.74	29764.59
572.90	29322.23
573.06	28947.75
573.22	28917.32
573.38	29434.58
573.55	29219.25
573.71	29860.55
573.87	29514.16
574.03	29432.24
574.20	29673.31
574.36	29195.84
574.52	29294.14
574.68	29411.17
574.84	29394.79
575.01	29455.64
575.17	29729.48
575.33	29759.91
575.49	29223.93
575.65	29771.61
575.82	29755.23
575.98	29642.88
576.14	29443.94
576.30	29558.63
576.46	29635.86
576.62	29883.96
576.79	29663.95
576.95	29635.86
577.11	29453.30
577.27	29806.72
577.43	29509.47
577.59	29832.47
577.75	29783.32
577.92	29436.92
578.08	29493.09
578.24	29230.95
578.40	29439.26
578.56	29589.05
578.72	29799.70
578.88	30073.54
579.04	29940.13
579.21	29713.10
579.37	29652.25
579.53	29677.99
579.69	29600.76
579.85	29633.52
580.01	29472.03
580.17	29450.96
580.33	29701.40
580.49	29500.11
580.65	29797.36
580.82	30288.87
580.98	29764.59
581.14	29720.12
581.30	29633.52
581.46	29593.73
581.62	29675.65
581.78	29446.28
581.94	29762.25
582.10	29479.05
582.26	29811.40
582.42	29965.88
582.58	30031.41
582.74	29984.60
582.90	29802.04
583.06	29738.85
583.22	29738.85
583.38	29692.04
583.54	29486.07
583.70	29579.69
583.86	29696.72
584.02	30003.33
584.18	30008.01
584.34	30127.38
584.50	29979.92
584.66	29598.41
584.82	29736.51
584.98	29745.87
585.14	29788.00
585.30	29467.34
585.46	29256.70
585.62	29619.48
585.78	29905.02
585.94	29708.42
586.10	29722.46
586.26	30024.39
586.42	30010.35
586.58	29474.37
586.74	30174.19
586.90	29600.76
587.06	29675.65
587.22	29699.06
587.38	29350.32
587.54	29972.90
587.70	30148.44
587.86	29862.90
588.02	29677.99
588.18	30263.13
588.34	30228.02
588.49	29832.47
588.65	29853.53
588.81	30017.37
588.97	30050.14
589.13	29844.17
589.29	29890.98
589.45	29949.50
589.61	29991.62
589.77	30405.90
589.93	30529.95
590.08	30274.83
590.24	30213.98
590.40	29989.28
590.56	30057.16
590.72	30211.64
590.88	29914.39
591.04	29855.87
591.20	30174.19
591.35	30759.32
591.51	30412.92
591.67	30110.99
591.83	30675.06
591.99	30424.62
592.15	30033.75
592.31	29984.60
592.46	29968.22
592.62	30256.11
592.78	30242.06
592.94	30043.12
593.10	30136.74
593.26	30389.52
593.41	30532.29
593.57	30239.72
593.73	30209.29
593.89	30157.80
594.05	30192.91
594.20	30260.79
594.36	30309.94
594.52	29975.24
594.68	30171.85
594.84	29886.30
594.99	30579.10
595.15	30239.72
595.31	30302.92
595.47	30534.63
595.62	30295.89
595.78	30319.30
595.94	29930.77
596.10	29907.37
596.25	29991.62
596.41	29909.71
596.57	29961.20
596.73	30485.48
596.88	30228.02
597.04	30665.70
597.20	30480.80
597.36	30438.67
597.51	30789.75
597.67	30094.61
597.83	30192.91
597.99	30600.16
598.14	30202.27
598.30	30595.48
598.46	30366.11
598.61	30323.98
598.77	30249.08
598.93	30497.18
599.09	30499.52
599.24	30607.19
599.40	30707.83
599.56	30548.67
599.71	30178.87
599.87	29949.50
600.03	30141.42
600.18	30068.86
600.34	30356.75
600.50	30511.22
600.65	30305.26
600.81	30684.42
600.97	30991.03
601.12	30625.91
601.28	30679.74
601.44	30485.48
601.59	30778.04
601.75	30661.02
601.91	30169.51
602.06	30508.88
602.22	30415.26
602.37	30499.52
602.53	30384.83
602.69	30244.40
602.84	30625.91
603.00	30646.97
603.16	30632.93
603.31	30396.54
603.47	30424.62
603.62	30342.70
603.78	30389.52
603.94	30199.93
604.09	30284.19
604.25	30424.62
604.40	30103.97
604.56	30307.60
604.71	30462.07
604.87	30618.89
605.03	30281.85
605.18	30506.54
605.34	29958.86
605.49	30352.07
605.65	30134.40
605.80	30038.44
605.96	30043.12
606.12	30298.23
606.27	30462.07
606.43	30331.00
606.58	30501.86
606.74	30492.50
606.89	30192.91
607.05	30602.50
607.20	30567.40
607.36	30209.29
607.51	30230.36
607.67	30008.01
607.82	30017.37
607.98	30373.13
608.13	30101.63
608.29	30181.21
608.44	30150.78
608.60	30150.78
608.75	30611.87
608.91	30169.51
609.06	30352.07
609.22	30183.55
609.37	29893.32
609.53	30038.44
609.68	30008.01
609.84	30260.79
609.99	30155.46
610.15	29853.53
610.30	30249.08
610.46	30164.82
610.61	29921.41
610.76	29951.84
610.92	30375.47
611.07	29804.38
611.23	30036.09
611.38	30312.28
611.54	29724.80
611.69	29806.72
611.84	29727.14
612.00	29385.43
612.15	29762.25
612.31	29982.26
612.46	29905.02
612.62	29720.12
612.77	29949.50
612.92	30242.06
613.08	30110.99
613.23	30108.65
613.39	29778.64
613.54	29635.86
613.69	29996.31
613.85	29469.69
614.00	29940.13
614.15	30195.25
614.31	29556.28
614.46	29830.13
614.62	29567.99
614.77	30050.14
614.92	29729.48
615.08	29759.91
615.23	29591.39
615.38	29439.26
615.54	29764.59
615.69	29649.91
615.84	29687.36
616.00	29649.91
616.15	29579.69
616.30	30031.41
616.46	29490.75
616.61	29937.79
616.76	29942.47
616.92	29434.58
617.07	29708.42
617.22	29291.80
617.37	29420.53
617.53	29802.04
617.68	29462.66
617.83	29364.36
617.99	29333.93
618.14	29432.24
618.29	29214.57
618.45	29294.14
618.60	29708.42
618.75	29572.67
618.90	29523.52
619.06	29034.35
619.21	29090.52
619.36	29462.66
619.51	29467.34
619.67	29170.10
619.82	29158.39
619.97	29181.80
620.12	29291.80
620.28	28870.51
620.43	29434.58
620.58	29392.45
620.73	29333.93
620.89	29191.16
621.04	29439.26
621.19	29153.71
621.34	29003.92
621.49	29057.75
621.65	28903.28
621.80	29013.28
621.95	29123.29
622.10	29144.35
622.25	28739.44
622.41	28732.42
622.56	28905.62
622.71	29425.22
622.86	28865.83
623.01	28856.46
623.16	28877.53
623.32	28828.38
623.47	29177.12
623.62	28809.65
623.77	28985.19
623.92	29153.71
624.07	28517.09
624.23	28556.88
624.38	28797.95
624.53	28790.93
624.68	28720.71
624.83	28856.46
624.98	28772.21
625.13	28559.22
625.29	28999.24
625.44	28826.04
625.59	28610.71
625.74	28395.38
625.89	28769.86
626.04	28254.95
626.19	28325.16
626.34	27974.08
626.49	28287.71
626.65	28659.86
626.80	28634.11
626.95	28657.52
627.10	28477.30
627.25	28467.94
627.40	28374.31
627.55	28336.87
627.70	28299.42
627.85	27725.99
628.00	28486.66
628.15	28428.15
628.30	28203.46
628.45	28346.23
628.60	28112.17
628.76	28318.14
628.91	28339.21
629.06	28631.77
629.21	28086.43
629.36	28699.65
629.51	28294.74
629.66	28041.96
629.81	27510.66
629.96	28058.34
630.11	27908.55
630.26	28074.73
630.41	28020.89
630.56	28091.11
630.71	28018.55
630.86	28133.24
631.01	28009.19
631.16	28154.30
631.31	28158.99
631.46	27866.42
631.61	28056.00
631.76	28135.58
631.91	27630.02
632.06	28109.83
632.21	27859.40
632.36	27711.94
632.51	27592.58
632.66	27775.14
632.81	27461.51
632.96	28006.85
633.10	27948.34
633.25	28283.03
633.40	27651.09
633.55	27824.29
633.70	27395.97
633.85	27953.02
634.00	27400.65
634.15	27384.27
634.30	27520.02
634.45	27468.53
634.60	27702.58
634.75	27711.94
634.90	27412.35
635.05	27742.37
635.19	27466.19
635.34	27725.99
635.49	27697.90
635.64	27814.93
635.79	27845.35
635.94	27524.70
636.09	27857.06
636.24	26937.23
636.39	26977.01
636.53	27583.21
636.68	26810.84
636.83	27419.38
636.98	27557.47
637.13	27360.86
637.28	27168.94
637.43	27410.01
637.57	27180.64
637.72	27168.94
637.87	26974.67
638.02	27061.27
638.17	27094.04
638.32	27016.80
638.46	27215.75
638.61	27138.51
638.76	26820.20
638.91	26876.37
639.06	27108.08
639.20	27072.98
639.35	27269.58
639.50	27307.03
639.65	26979.36
639.80	27288.31
639.94	27154.90
640.09	27058.93
640.24	26927.86
640.39	27014.46
640.54	26838.92
640.68	26998.08
640.83	27089.36
640.98	26686.79
641.13	26478.48
641.27	26595.51
641.42	26703.17
641.57	26532.31
641.72	26742.96
641.86	26459.76
642.01	26614.23
642.16	26529.97
642.31	26742.96
642.45	26815.52
642.60	26401.24
642.75	26253.79
642.90	26242.09
643.04	26501.89
643.19	26686.79
643.34	26607.21
643.48	26698.49
643.63	26436.35
643.78	26813.18
643.93	26441.03
644.07	26560.40
644.22	26717.22
644.37	26717.22
644.51	26546.36
644.66	26572.10
644.81	26410.60
644.95	26356.77
645.10	26677.43
645.25	26279.54
645.39	26480.82
645.54	26614.23
645.69	26239.75
645.83	26221.02
645.98	26434.01
646.13	26494.86
646.27	26597.85
646.42	26174.21
646.57	26710.19
646.71	26408.26
646.86	25998.67
647.00	26256.13
647.15	25940.16
647.30	26403.58
647.44	26033.78
647.59	25996.33
647.74	26270.17
647.88	25958.88
648.03	25975.27
648.17	26408.26
648.32	26230.38
648.47	26031.44
648.61	26059.52
648.76	25872.28
648.90	25879.30
649.05	26078.25
649.20	26195.28
649.34	26125.06
649.49	25371.41
649.63	25869.94
649.78	26008.03
649.92	25832.49
650.07	25944.84
650.21	25902.71
650.36	25881.64
650.51	25898.03
650.65	25933.14
650.80	25989.31
650.94	25741.21
651.09	25638.23
651.23	25640.57
651.38	25727.17
651.52	25598.44
651.67	25619.50
651.81	25607.80
651.96	25621.84
652.10	25799.73
652.25	25504.82
652.39	25860.58
652.54	25432.26
652.68	25874.62
652.83	25743.55
652.97	26106.34
653.12	25523.54
653.26	25245.02
653.41	25406.52
653.55	25509.50
653.70	25523.54
653.84	25462.69
653.99	25069.48
654.13	25371.41
654.27	25493.12
654.42	25493.12
654.56	25109.27
654.71	25427.58
654.85	25549.29
655.00	25097.56
655.14	25277.79
655.29	25366.73
655.43	25127.99
655.57	25455.67
655.72	25179.48
655.86	25020.33
656.01	25191.19
656.15	24797.98
656.30	25474.39
656.44	24957.13
656.58	25099.90
656.73	25027.35
656.87	25085.86
657.01	25113.95
657.16	25076.50
657.30	25326.94
657.45	25212.25
657.59	25560.99
657.73	25106.93
657.88	24924.36
658.02	24484.34
658.16	24933.73
658.31	24938.41
658.45	24659.88
658.60	24566.26
658.74	24510.09
658.88	24837.76
659.03	24711.38
659.17	24844.79
659.31	24652.86
659.46	24734.78
659.60	24814.36
659.74	24622.44
659.89	24746.48
660.03	24484.34
660.17	24137.94
660.32	24372.00
660.46	24746.48
660.60	24079.43
660.74	24341.57
660.89	24259.65
661.03	24175.39
661.17	24257.31
661.32	24353.27
661.46	24287.74
661.60	23997.51
661.74	24290.08
661.89	24041.98
662.03	24123.90
662.17	24063.05
662.31	23981.13
662.46	24243.27
662.60	24217.52
662.74	23845.38
662.88	23878.15
663.03	23978.79
663.17	24041.98
663.31	23449.83
663.45	23910.91
663.60	24151.99
663.74	23510.68
663.88	23751.76
664.02	23814.95
664.17	23576.22
664.31	23627.71
664.45	23328.12
664.59	23522.38
664.73	23536.43
664.88	23524.72
665.02	23197.05
665.16	23424.08
665.30	23470.89
665.44	23337.48
665.59	22991.08
665.73	23421.74
665.87	23288.33
666.01	23246.20
666.15	23225.14
666.29	23459.19
666.44	23496.64
666.58	22963.00
666.72	23016.83
666.86	23098.75
667.00	23325.78
667.14	22923.21
667.28	22911.50
667.43	23056.62
667.57	23077.68
667.71	22986.40
667.85	22771.07
667.99	22731.28
668.13	22843.63
668.27	22766.39
668.41	22827.24
668.56	22876.40
668.70	22642.34
668.84	22867.03
668.98	22679.79
669.12	22677.45
669.26	22642.34
669.40	22635.32
669.54	22270.20
669.68	22525.32
669.82	22494.89
669.96	22270.20
670.10	21921.46
670.25	22471.48
670.39	22401.27
670.53	21991.67
670.67	21891.03
670.81	22073.59
670.95	22108.70
671.09	22246.79
671.23	22352.12
671.37	22029.12
671.51	22071.25
671.65	22043.17
671.79	21872.31
671.93	21869.97
672.07	21781.03
672.21	21750.60
672.35	21619.53
672.49	21383.13
672.63	21308.24
672.77	21420.58
672.91	21874.65
673.05	21441.65
673.19	21647.61
673.33	21453.35
673.47	21303.56
673.61	21516.54
673.75	21275.47
673.89	21191.21
674.03	21289.51
674.17	21268.45
674.31	20877.58
674.45	21001.63
674.59	21142.06
674.73	21275.47
674.87	21235.68
675.01	20554.58
675.15	20966.52
675.29	20826.09
675.43	20861.19
675.56	20936.09
675.70	20556.93
675.84	20372.02
675.98	20290.10
676.12	20699.70
676.26	20863.54
676.40	20498.41
676.54	20568.63
676.68	20395.43
676.82	20205.84
676.96	20180.10
677.10	20250.32
677.23	20098.18
677.37	20027.96
677.51	20032.65
677.65	20018.60
677.79	19613.69
677.93	19723.69
678.07	19702.63
678.21	19749.44
678.34	19679.22
678.48	19709.65
678.62	19524.75
678.76	19702.63
678.90	19154.94
679.04	19190.05
679.18	19424.11
679.31	19133.88
679.45	19124.52
679.59	19403.04
679.73	19316.44
679.87	19157.28
680.00	19119.84
680.14	18696.20
680.28	18644.71
680.42	19180.69
680.56	18843.65
680.70	18761.73
680.83	18782.80
680.97	18576.83
681.11	18735.99
681.25	18808.54
681.39	18644.71
681.52	18396.61
681.66	18534.70
681.80	18644.71
681.94	18054.89
682.07	18232.77
682.21	18267.88
682.35	17940.21
682.49	18036.17
682.62	18108.72
682.76	18202.35
682.90	17853.61
683.04	17900.42
683.17	17439.33
683.31	18155.54
683.45	17561.04
683.59	17682.75
683.72	17645.30
683.86	17731.90
684.00	17434.65
684.13	17441.67
684.27	17467.42
684.41	17078.89
684.55	17092.93
684.68	17184.21
684.82	17104.64
684.96	17249.75
685.09	17254.43
685.23	16575.67
685.37	16772.28
685.50	17088.25
685.64	16872.92
685.78	17020.38
685.91	16912.71
686.05	17118.68
686.19	16664.61
686.32	16901.01
686.46	16496.10
686.60	16306.51
686.73	16320.56
686.87	16578.01
687.01	16196.51
687.14	16491.41
687.28	16025.65
687.42	16184.80
687.55	15948.41
687.69	16098.20
687.82	15962.45
687.96	16042.03
688.10	15878.19
688.23	16018.63
688.37	15850.11
688.50	15723.72
688.64	15522.43
688.78	15733.08
688.91	15398.38
689.05	15583.29
689.18	15489.67
689.32	15112.84
689.46	15269.66
689.59	15449.88
689.73	15332.85
689.86	15323.49
690.00	15138.58
690.13	15084.75
690.27	14909.21
690.41	15293.06
690.54	15066.03
690.68	15108.16
690.81	14984.11
690.95	14728.99
691.08	14897.51
691.22	14927.94
691.35	14820.27
691.49	14616.65
691.62	14398.98
691.76	14480.89
691.89	14459.83
692.03	14307.69
692.16	14202.37
692.30	14029.17
692.43	14244.50
692.57	14134.50
692.70	14153.22
692.84	13989.38
692.97	14090.02
693.11	14281.95
693.24	13947.25
693.38	13989.38
693.51	13944.91
693.65	13909.80
693.78	13666.39
693.92	13678.09
694.05	13654.69
694.19	13483.83
694.32	13465.10
694.45	13638.30
694.59	13322.33
694.72	13617.24
694.86	13261.48
694.99	13280.20
695.13	13273.18
695.26	13099.98
695.39	12933.80
695.53	13088.28
695.66	13144.45
695.80	12936.14
695.93	12950.18
696.07	12966.57
696.20	13004.02
696.33	12872.95
696.47	12643.57
696.60	12711.45
696.73	12505.48
696.87	12765.28
697.00	12552.29
697.14	12390.80
697.27	12170.79
697.40	12292.49
697.54	12273.77
697.67	11988.22
697.80	12208.23
697.94	12114.61
698.07	12074.82
698.21	11925.03
698.34	12053.76
698.47	11920.35
698.61	11927.37
698.74	12042.06
698.87	11889.92
699.01	11906.31
699.14	11889.92
699.27	11695.66
699.40	11683.95
699.54	11566.93
699.67	11548.20
699.80	11492.03
699.94	11375.00
700.07	11269.68
700.20	11276.70
700.34	11126.91
700.47	11279.04
700.60	11225.21
700.73	11178.40
700.87	11323.51
701.00	10979.45
701.13	11042.65
701.26	11047.33
701.40	11140.95
701.53	10780.51
701.66	10991.16
701.79	10562.84
701.93	10820.30
702.06	10614.33
702.19	10569.86
702.32	10740.72
702.46	10586.24
702.59	10317.08
702.72	10345.17
702.85	10326.44
702.99	10509.01
703.12	10274.95
703.25	10263.25
703.38	10162.61
703.51	10181.33
703.65	10239.84
703.78	10267.93
703.91	10106.43
704.04	10272.61
704.17	10099.41
704.31	10010.47
704.44	10010.47
704.57	9891.10
704.70	9771.74
704.83	9540.02
704.96	9444.06
705.10	9757.69
705.23	9610.24
>>>>>End Processed Spectral Data<<<<<
