SpectraSuite Data File
++++++++++++++++++++++++++++++++++++
Date: Fri Oct 18 13:57:54 GMT-05:00 2013
User: bianchi
Dark Spectrum Present: No
Reference Spectrum Present: No
Number of Sampled Component Spectra: 1
Spectrometers: USB2+H05261
Integration Time (usec): 50000 (USB2+H05261)
Spectra Averaged: 1 (USB2+H05261)
Boxcar Smoothing: 0 (USB2+H05261)
Correct for Electrical Dark: No (USB2+H05261)
Strobe/Lamp Enabled: No (USB2+H05261)
Correct for Detector Non-linearity: No (USB2+H05261)
Correct for Stray Light: No (USB2+H05261)
Number of Pixels in Processed Spectrum: 2048
>>>>>Begin Processed Spectral Data<<<<<
365.73	0.00
365.92	0.00
366.12	0.00
366.32	0.00
366.52	0.00
366.72	0.00
366.91	0.00
367.11	0.00
367.31	0.00
367.51	0.00
367.70	0.00
367.90	0.00
368.10	0.00
368.30	0.00
368.49	0.00
368.69	0.00
368.89	0.00
369.09	0.00
369.28	0.00
369.48	0.00
369.68	0.00
369.87	0.00
370.07	0.00
370.27	0.00
370.47	0.00
370.66	49.15
370.86	131.07
371.06	117.03
371.25	107.66
371.45	102.98
371.65	145.11
371.84	161.50
372.04	210.65
372.24	102.98
372.44	131.07
372.63	133.41
372.83	196.60
373.03	264.48
373.22	248.10
373.42	191.92
373.62	208.31
373.81	217.67
374.01	248.10
374.21	308.95
374.40	229.37
374.60	208.31
374.79	280.86
374.99	229.37
375.19	229.37
375.38	285.55
375.58	248.10
375.78	236.39
375.97	227.03
376.17	222.35
376.37	234.05
376.56	245.76
376.76	238.73
376.95	292.57
377.15	257.46
377.35	292.57
377.54	248.10
377.74	259.80
377.93	341.72
378.13	327.68
378.33	205.97
378.52	283.20
378.72	269.16
378.91	315.97
379.11	241.08
379.31	271.50
379.50	322.99
379.70	250.44
379.89	355.76
380.09	372.15
380.28	304.27
380.48	292.57
380.68	341.72
380.87	313.63
381.07	416.62
381.26	285.55
381.46	308.95
381.65	358.10
381.85	318.31
382.04	409.59
382.24	337.04
382.43	383.85
382.63	292.57
382.83	376.83
383.02	404.91
383.22	409.59
383.41	393.21
383.61	346.40
383.80	367.46
384.00	341.72
384.19	341.72
384.39	379.17
384.58	381.51
384.78	430.66
384.97	395.55
385.17	330.02
385.36	477.47
385.56	390.87
385.75	383.85
385.95	442.36
386.14	379.17
386.34	376.83
386.53	376.83
386.72	348.74
386.92	365.12
387.11	386.19
387.31	521.94
387.50	425.98
387.70	414.27
387.89	440.02
388.09	407.25
388.28	458.74
388.48	433.00
388.67	521.94
388.86	519.60
389.06	440.02
389.25	440.02
389.45	465.77
389.64	477.47
389.84	510.24
390.03	484.49
390.22	451.72
390.42	498.53
390.61	456.40
390.81	440.02
391.00	500.87
391.19	486.83
391.39	545.34
391.58	479.81
391.78	519.60
391.97	519.60
392.16	524.28
392.36	554.71
392.55	526.62
392.75	465.77
392.94	557.05
393.13	573.43
393.33	589.82
393.52	596.84
393.71	550.03
393.91	638.97
394.10	596.84
394.29	699.82
394.49	627.26
394.68	608.54
394.88	603.86
395.07	631.94
395.26	608.54
395.46	608.54
395.65	636.63
395.84	606.20
396.04	671.73
396.23	653.01
396.42	667.05
396.62	620.24
396.81	660.03
397.00	697.48
397.19	732.59
397.39	716.20
397.58	713.86
397.77	692.80
397.97	737.27
398.16	697.48
398.35	746.63
398.55	727.91
398.74	763.01
398.93	727.91
399.12	667.05
399.32	692.80
399.51	695.14
399.70	725.57
399.90	744.29
400.09	758.33
400.28	788.76
400.47	772.38
400.67	793.44
400.86	732.59
401.05	809.83
401.24	798.12
401.44	924.51
401.63	826.21
401.82	847.27
402.01	844.93
402.21	854.30
402.40	833.23
402.59	873.02
402.78	774.72
402.97	858.98
403.17	880.04
403.36	912.81
403.55	786.42
403.74	978.34
403.93	905.79
404.13	875.36
404.32	875.36
404.51	798.12
404.70	1015.79
404.89	847.27
405.09	985.37
405.28	912.81
405.47	1069.62
405.66	1020.47
405.85	976.00
406.05	861.32
406.24	985.37
406.43	1020.47
406.62	1008.77
406.81	1086.01
407.00	1029.84
407.20	1057.92
407.39	992.39
407.58	1011.11
407.77	1043.88
407.96	1158.57
408.15	1172.61
408.34	1090.69
408.54	1137.50
408.73	1172.61
408.92	1160.91
409.11	1163.25
409.30	1235.80
409.49	1076.65
409.68	1132.82
409.87	1210.06
410.07	1174.95
410.26	1268.57
410.45	1219.42
410.64	1247.51
410.83	1275.59
411.02	1219.42
411.21	1217.08
411.40	1273.25
411.59	1289.64
411.78	1303.68
411.98	1256.87
412.17	1336.45
412.36	1268.57
412.55	1378.58
412.74	1324.74
412.93	1439.43
413.12	1444.11
413.31	1448.79
413.50	1476.88
413.69	1373.89
413.88	1458.15
414.07	1380.92
414.26	1493.26
414.45	1469.86
414.64	1476.88
414.83	1507.30
415.02	1535.39
415.22	1584.54
415.41	1610.29
415.60	1476.88
415.79	1598.59
415.98	1556.46
416.17	1689.87
416.36	1657.10
416.55	1650.08
416.74	1666.46
416.93	1640.72
417.12	1598.59
417.31	1729.66
417.50	1727.32
417.69	1762.42
417.88	1856.04
418.07	1823.28
418.26	1771.79
418.45	1820.94
418.64	1863.07
418.83	1750.72
419.02	1865.41
419.21	1790.51
419.39	1900.52
419.58	1867.75
419.77	1863.07
419.96	1942.64
420.15	1872.43
420.34	1912.22
420.53	1884.13
420.72	1994.14
420.91	1980.09
421.10	1987.11
421.29	2012.86
421.48	2031.58
421.67	2026.90
421.86	2033.93
422.05	1961.37
422.24	2052.65
422.43	2038.61
422.61	1968.39
422.80	2197.76
422.99	2115.84
423.18	2029.24
423.37	2064.35
423.56	1977.75
423.75	2019.88
423.94	2080.74
424.13	1909.88
424.32	2022.22
424.50	2148.61
424.69	2125.21
424.88	2188.40
425.07	2029.24
425.26	2129.89
425.45	2003.50
425.64	2101.80
425.83	2078.40
426.01	2108.82
426.20	2094.78
426.39	2223.51
426.58	1987.11
426.77	2214.15
426.96	2083.08
427.15	2069.03
427.33	2129.89
427.52	2127.55
427.71	2172.02
427.90	2132.23
428.09	2094.78
428.28	2221.17
428.46	2286.70
428.65	2335.85
428.84	2305.43
429.03	2328.83
429.22	2270.32
429.40	2216.49
429.59	2270.32
429.78	2186.06
429.97	2282.02
430.16	2218.83
430.34	2392.03
430.53	2335.85
430.72	2310.11
430.91	2354.58
431.10	2471.61
431.28	2392.03
431.47	2420.11
431.66	2469.27
431.85	2518.42
432.03	2502.03
432.22	2586.29
432.41	2452.88
432.60	2502.03
432.79	2331.17
432.97	2541.82
433.16	2476.29
433.35	2483.31
433.54	2696.30
433.72	2539.48
433.91	2647.15
434.10	2574.59
434.28	2506.71
434.47	2724.38
434.66	2621.40
434.85	2698.64
435.03	2654.17
435.22	2572.25
435.41	2806.30
435.59	2712.68
435.78	2738.43
435.97	2689.28
436.16	2785.24
436.34	2722.04
436.53	2780.56
436.72	2829.71
436.90	2773.53
437.09	2855.45
437.28	2630.76
437.46	2782.90
437.65	2864.82
437.84	2871.84
438.02	2860.13
438.21	2888.22
438.40	2792.26
438.58	3009.93
438.77	2878.86
438.96	2951.42
439.14	3012.27
439.33	2963.12
439.52	2977.16
439.70	3014.61
439.89	3056.74
440.08	3075.46
440.26	3049.72
440.45	3258.03
440.63	3194.83
440.82	3267.39
441.01	3190.15
441.19	3084.83
441.38	3220.58
441.57	3201.85
441.75	3353.99
441.94	3351.65
442.12	3344.63
442.31	3398.46
442.50	3449.95
442.68	3351.65
442.87	3435.91
443.05	3426.54
443.24	3424.20
443.43	3489.74
443.61	3487.40
443.80	3499.10
443.98	3405.48
444.17	3337.60
444.35	3449.95
444.54	3590.38
444.73	3473.36
444.91	3536.55
445.10	3585.70
445.28	3463.99
445.47	3442.93
445.65	3492.08
445.84	3585.70
446.02	3602.08
446.21	3510.80
446.39	3414.84
446.58	3466.33
446.77	3686.34
446.95	3613.79
447.14	3492.08
447.32	3616.13
447.51	3641.87
447.69	3686.34
447.88	3662.94
448.06	3581.02
448.25	3606.77
448.43	3566.98
448.62	3548.25
448.80	3599.74
448.99	3559.95
449.17	3679.32
449.36	3569.32
449.54	3763.58
449.73	3775.28
449.91	3763.58
450.10	3880.61
450.28	3824.44
450.46	3786.99
450.65	3878.27
450.83	3885.29
451.02	3662.94
451.20	3904.01
451.39	3794.01
451.57	3857.20
451.76	3859.54
451.94	4035.08
452.13	4035.08
452.31	3882.95
452.49	3915.72
452.68	3920.40
452.86	3939.12
453.05	3920.40
453.23	4119.34
453.42	3955.51
453.60	4023.38
453.78	3943.80
453.97	3971.89
454.15	4025.72
454.34	4053.81
454.52	4098.28
454.70	4227.01
454.89	4180.20
455.07	4025.72
455.26	3957.85
455.44	4194.24
455.62	4039.76
455.81	4248.07
455.99	4278.50
456.17	4166.15
456.36	4175.52
456.54	4325.31
456.73	4308.93
456.91	4496.17
457.09	4430.63
457.28	4423.61
457.46	4423.61
457.64	4615.54
457.83	4353.40
458.01	4458.72
458.19	4393.19
458.38	4538.30
458.56	4620.22
458.74	4503.19
458.93	4660.01
459.11	4566.39
459.29	4660.01
459.48	4587.45
459.66	4505.53
459.84	4798.10
460.03	4671.71
460.21	4601.49
460.39	4727.88
460.57	4713.84
460.76	4645.96
460.94	4830.87
461.12	4697.46
461.31	4704.48
461.49	4770.01
461.67	4617.88
461.85	4770.01
462.04	4734.90
462.22	5039.17
462.40	4765.33
462.59	4877.68
462.77	4957.25
462.95	4753.63
463.13	4819.16
463.32	4943.21
463.50	4957.25
463.68	4865.97
463.86	5006.41
464.05	4887.04
464.23	4784.06
464.41	4980.66
464.59	4877.68
464.78	5118.75
464.96	5027.47
465.14	5085.98
465.32	5032.15
465.50	5214.71
465.69	5062.58
465.87	5228.76
466.05	5069.60
466.23	5078.96
466.41	5263.86
466.60	5308.34
466.78	5025.13
466.96	5144.50
467.14	5179.61
467.32	5331.74
467.51	5380.89
467.69	5041.51
467.87	5301.31
468.05	5198.33
468.23	5186.63
468.41	5170.24
468.60	5338.76
468.78	5401.96
468.96	5298.97
469.14	5427.70
469.32	5509.62
469.50	5413.66
469.69	5528.35
469.87	5535.37
470.05	5678.14
470.23	5687.50
470.41	5600.90
470.59	5528.35
470.77	5551.75
470.95	5879.43
471.14	5586.86
471.32	5535.37
471.50	5626.65
471.68	5696.86
471.86	5743.67
472.04	5841.98
472.22	5788.14
472.40	5703.89
472.58	5870.06
472.77	5823.25
472.95	5856.02
473.13	6057.31
473.31	5870.06
473.49	6193.06
473.67	6073.69
473.85	6132.20
474.03	6179.01
474.21	6052.63
474.39	6246.89
474.57	6307.74
474.75	6235.19
474.93	6471.58
475.12	6293.70
475.30	6462.22
475.48	6375.62
475.66	6345.19
475.84	6354.55
476.02	6558.18
476.20	6612.01
476.38	6609.67
476.56	6626.06
476.74	6665.85
476.92	6693.93
477.10	6586.27
477.28	6740.74
477.46	6920.96
477.64	6949.05
477.82	6932.67
478.00	7206.51
478.18	7126.93
478.36	7054.37
478.54	7021.61
478.72	7295.45
478.90	7286.09
479.08	7349.28
479.26	7536.52
479.44	7707.38
479.62	7620.78
479.80	7705.04
479.98	7527.16
480.16	7744.83
480.34	7707.38
480.52	7887.61
480.70	7815.05
480.88	7751.85
481.06	7969.52
481.24	7751.85
481.41	8147.40
481.59	8229.32
481.77	8189.53
481.95	8266.77
482.13	8271.45
482.31	8210.60
482.49	8456.36
482.67	8493.80
482.85	8564.02
483.03	8669.34
483.21	8767.65
483.39	8894.04
483.57	8887.01
483.74	9004.04
483.92	8910.42
484.10	8947.87
484.28	9217.03
484.46	9275.54
484.64	9500.23
484.82	9172.56
485.00	9341.08
485.18	9528.32
485.35	9628.96
485.53	9633.64
485.71	9874.72
485.89	9769.40
486.07	9783.44
486.25	9762.37
486.43	9848.97
486.61	9968.34
486.78	10078.35
486.96	10263.25
487.14	10181.33
487.32	10146.22
487.50	10375.59
487.68	10469.22
487.85	10497.30
488.03	10647.10
488.21	10782.85
488.39	10808.59
488.57	10752.42
488.75	10979.45
488.92	11154.99
489.10	11131.59
489.28	11274.36
489.46	11543.52
489.64	11428.84
489.81	11625.44
489.99	11791.62
490.17	11496.71
490.35	11889.92
490.53	11590.33
490.70	11990.56
490.88	11929.71
491.06	12105.25
491.24	11974.18
491.41	12175.47
491.59	12271.43
491.77	12231.64
491.95	12507.82
492.13	12552.29
492.30	12606.13
492.48	12461.01
492.66	12751.24
492.84	12751.24
493.01	12877.63
493.19	13170.19
493.37	13219.35
493.54	13132.75
493.72	13151.47
493.90	13453.40
494.08	13095.30
494.25	13289.56
494.43	13474.46
494.61	13668.73
494.79	13474.46
494.96	13722.56
495.14	13727.24
495.32	14153.22
495.49	13914.48
495.67	14022.15
495.85	14061.94
496.02	14363.87
496.20	14633.03
496.38	14286.63
496.55	14443.45
496.73	14752.40
496.91	14534.73
497.09	14443.45
497.26	14698.56
497.44	14698.56
497.62	14909.21
497.79	14963.04
497.97	15019.22
498.14	15218.16
498.32	15243.91
498.50	15180.71
498.67	15386.68
498.85	15407.75
499.03	15580.95
499.20	15524.77
499.38	15639.46
499.56	15639.46
499.73	15784.57
499.91	15742.44
500.08	16145.02
500.26	15742.44
500.44	15676.91
500.61	16049.05
500.79	15913.30
500.97	15901.60
501.14	16341.62
501.32	16716.11
501.49	16266.72
501.67	16325.24
501.84	16376.73
502.02	16273.74
502.20	16688.02
502.37	16589.72
502.55	16397.79
502.72	16538.23
502.90	16947.82
503.07	16833.13
503.25	16762.92
503.43	16781.64
503.60	17146.76
503.78	17055.48
503.95	16854.20
504.13	17214.64
504.30	17275.49
504.48	17181.87
504.65	17184.21
504.83	17357.41
505.01	17444.01
505.18	17568.06
505.36	17635.94
505.53	17563.38
505.71	17411.25
505.88	17591.47
506.06	17451.03
506.23	17961.27
506.41	18001.06
506.58	17841.90
506.76	18101.70
506.93	18321.71
507.11	17862.97
507.28	17954.25
507.46	17914.46
507.63	18305.33
507.81	18703.22
507.98	18162.56
508.16	18272.56
508.33	18403.63
508.50	18412.99
508.68	18644.71
508.85	18600.24
509.03	18499.59
509.20	18705.56
509.38	18984.09
509.55	18651.73
509.73	18986.43
509.90	19028.56
510.08	19014.51
510.25	18853.02
510.42	19019.19
510.60	19028.56
510.77	19161.97
510.95	19164.31
511.12	19194.73
511.30	19215.80
511.47	19302.40
511.64	19477.94
511.82	19557.52
511.99	19288.35
512.17	19655.82
512.34	19686.25
512.51	19599.65
512.69	19627.73
512.86	20006.90
513.04	20128.61
513.21	20400.11
513.38	19742.42
513.56	20184.78
513.73	19941.36
513.90	20194.14
514.08	19932.00
514.25	20245.63
514.43	20154.35
514.60	20369.68
514.77	20350.96
514.95	20128.61
515.12	20428.20
515.29	20411.81
515.47	20723.10
515.64	20456.28
515.81	20453.94
515.99	20809.70
516.16	20954.82
516.33	20776.94
516.51	20975.88
516.68	20755.87
516.85	21090.57
517.03	21219.30
517.20	21252.06
517.37	21462.71
517.54	21111.63
517.72	21216.96
517.89	21062.48
518.06	21380.79
518.24	21142.06
518.41	21397.18
518.58	21207.59
518.75	21465.05
518.93	21584.42
519.10	21603.14
519.27	21771.66
519.45	21799.75
519.62	21479.10
519.79	21869.97
519.96	21823.16
520.14	22143.81
520.31	21874.65
520.48	22326.37
520.65	21891.03
520.83	22022.10
521.00	22139.13
521.17	22075.93
521.34	22195.30
521.52	22286.58
521.69	22466.80
521.86	22464.46
522.03	22443.40
522.20	22457.44
522.38	22497.23
522.55	22625.96
522.72	22647.02
522.89	22473.82
523.07	22850.65
523.24	22661.07
523.41	22656.39
523.58	22541.70
523.75	22445.74
523.92	22682.13
524.10	22799.16
524.27	22740.64
524.44	23019.17
524.61	23199.39
524.78	23250.88
524.96	22958.31
525.13	23211.09
525.30	23070.66
525.47	23236.84
525.64	23110.45
525.81	23400.68
525.98	23634.73
526.16	23491.96
526.33	23583.24
526.50	23470.89
526.67	23356.21
526.84	23531.75
527.01	23274.29
527.18	23770.48
527.36	23845.38
527.53	23477.91
527.70	23941.34
527.87	24245.61
528.04	23901.55
528.21	23906.23
528.38	24053.69
528.55	24156.67
528.72	24070.07
528.89	24107.52
529.07	24173.05
529.24	24320.51
529.41	24208.16
529.58	24086.45
529.75	23943.68
529.92	24301.78
530.09	24140.29
530.26	24411.79
530.43	24549.88
530.60	24428.17
530.77	24372.00
530.94	24465.62
531.11	24528.81
531.28	24329.87
531.46	24367.32
531.63	24411.79
531.80	24596.69
531.97	24638.82
532.14	24886.92
532.31	24772.23
532.48	24865.85
532.65	24854.15
532.82	24664.57
532.99	25223.95
533.16	24879.89
533.33	25221.61
533.50	25383.11
533.67	25060.12
533.84	25252.04
534.01	25383.11
534.18	25282.47
534.35	25071.82
534.52	25266.08
534.69	25404.17
534.86	25692.06
535.03	25324.60
535.20	25432.26
535.37	25429.92
535.54	25795.04
535.71	25359.70
535.88	25404.17
536.05	25429.92
536.22	25759.94
536.38	25362.04
536.55	25907.39
536.72	25949.52
536.89	25579.71
537.06	26038.46
537.23	26324.01
537.40	25914.41
537.57	25853.56
537.74	25804.41
537.91	26045.48
538.08	26012.71
538.25	25792.70
538.42	25984.63
538.59	26483.16
538.75	26101.65
538.92	25757.60
539.09	26326.35
539.26	26429.33
539.43	26333.37
539.60	26129.74
539.77	26155.49
539.94	26249.11
540.11	26560.40
540.28	26686.79
540.44	26239.75
540.61	26661.04
540.78	26403.58
540.95	26536.99
541.12	26490.18
541.29	26553.38
541.46	26684.45
541.62	26635.30
541.79	26714.87
541.96	26377.84
542.13	26529.97
542.30	26752.32
542.47	26925.52
542.63	27021.48
542.80	26859.99
542.97	27285.97
543.14	27328.10
543.31	26927.86
543.48	27009.78
543.64	27419.38
543.81	27625.34
543.98	27456.82
544.15	27522.36
544.32	27398.31
544.48	27733.01
544.65	27065.96
544.82	27314.05
544.99	27288.31
545.16	27597.26
545.32	27225.11
545.49	27789.18
545.66	27700.24
545.83	27665.13
546.00	27871.10
546.16	28060.68
546.33	27498.95
546.50	27101.06
546.67	27592.58
546.83	27660.45
547.00	27651.09
547.17	27714.28
547.34	27946.00
547.50	28231.54
547.67	27765.78
547.84	27786.84
548.00	27950.68
548.17	27941.32
548.34	28175.37
548.51	28149.62
548.67	28418.78
548.84	28561.56
549.01	28184.73
549.18	28135.58
549.34	28435.17
549.51	28140.26
549.68	28402.40
549.84	28175.37
550.01	28184.73
550.18	28128.56
550.34	27889.82
550.51	28451.55
550.68	28493.68
550.84	28112.17
551.01	28353.25
551.18	28599.01
551.34	28411.76
551.51	28362.61
551.68	28404.74
551.84	28671.56
552.01	28367.29
552.18	28891.57
552.34	28624.75
552.51	28819.02
552.68	28638.80
552.84	28613.05
553.01	28542.83
553.18	28687.95
553.34	28961.79
553.51	28940.72
553.67	28779.23
553.84	29008.60
554.01	29104.56
554.17	28889.23
554.34	28922.00
554.51	28819.02
554.67	29172.44
554.84	29305.85
555.00	29219.25
555.17	28830.72
555.33	28936.04
555.50	29408.83
555.67	29289.46
555.83	28992.22
556.00	29104.56
556.16	29516.50
556.33	28900.94
556.50	29530.54
556.66	29399.47
556.83	29158.39
556.99	29607.78
557.16	29769.27
557.32	29364.36
557.49	29294.14
557.65	29132.65
557.82	29493.09
557.98	29483.73
558.15	29441.60
558.32	29053.07
558.48	29624.16
558.65	29598.41
558.81	29605.44
558.98	29577.35
559.14	29799.70
559.31	29642.88
559.47	29670.97
559.64	29762.25
559.80	29895.66
559.97	30078.22
560.13	29652.25
560.30	30059.50
560.46	30143.76
560.63	29631.18
560.79	29841.83
560.96	29876.94
561.12	29832.47
561.29	29476.71
561.45	29832.47
561.61	30108.65
561.78	29883.96
561.94	29680.33
562.11	29846.51
562.27	29942.47
562.44	30108.65
562.60	29727.14
562.77	30017.37
562.93	30162.48
563.10	30546.33
563.26	29869.92
563.42	30085.25
563.59	30279.51
563.75	29982.26
563.92	30125.04
564.08	30242.06
564.24	29881.62
564.41	30155.46
564.57	29926.09
564.74	29986.94
564.90	30450.37
565.07	30321.64
565.23	30316.96
565.39	30445.69
565.56	30464.41
565.72	30183.55
565.88	30300.58
566.05	30464.41
566.21	30139.08
566.38	30146.10
566.54	30298.23
566.70	30441.01
566.87	30522.93
567.03	30480.80
567.19	30408.24
567.36	30618.89
567.52	30169.51
567.68	30366.11
567.85	30174.19
568.01	30368.45
568.17	29942.47
568.34	30646.97
568.50	30354.41
568.66	30717.19
568.83	30955.93
568.99	30607.19
569.15	30668.04
569.32	30494.84
569.48	29977.58
569.64	30651.66
569.81	30265.47
569.97	30368.45
570.13	30876.35
570.30	30347.39
570.46	30689.10
570.62	30562.72
570.78	30476.12
570.95	30143.76
571.11	30803.79
571.27	30122.69
571.43	30108.65
571.60	30389.52
571.76	30857.62
571.92	30295.89
572.09	30630.59
572.25	30658.68
572.41	30749.96
572.57	30518.25
572.74	30824.86
572.90	30366.11
573.06	30937.20
573.22	30359.09
573.38	30724.21
573.55	30384.83
573.71	30801.45
573.87	30754.64
574.03	30738.26
574.20	30866.98
574.36	30338.02
574.52	30756.98
574.68	30859.96
574.84	30661.02
575.01	30773.36
575.17	30684.42
575.33	30623.57
575.49	30450.37
575.65	30831.88
575.82	31014.44
575.98	30965.29
576.14	31274.24
576.30	30562.72
576.46	30511.22
576.62	30850.60
576.79	31126.78
576.95	30508.88
577.11	30754.64
577.27	30766.34
577.43	30925.50
577.59	31187.64
577.75	30984.01
577.92	30614.21
578.08	30719.53
578.24	30522.93
578.40	30742.94
578.56	31234.45
578.72	30878.69
578.88	30904.43
579.04	31330.41
579.21	30829.54
579.37	30984.01
579.53	31302.32
579.69	30948.90
579.85	31051.89
580.01	30967.63
580.17	30476.12
580.33	31047.21
580.49	30810.81
580.65	30902.09
580.82	31087.00
580.98	31133.81
581.14	30431.65
581.30	31246.15
581.46	30946.56
581.62	30892.73
581.78	30616.55
581.94	31126.78
582.10	30726.55
582.26	31154.87
582.42	31054.23
582.58	31016.78
582.74	31622.98
582.90	31229.77
583.06	30904.43
583.22	30719.53
583.38	31051.89
583.54	31220.41
583.70	30972.31
583.86	30595.48
584.02	30731.23
584.18	31133.81
584.34	31143.17
584.50	31058.91
584.66	31005.08
584.82	31005.08
584.98	31016.78
585.14	30881.03
585.30	30661.02
585.46	30731.23
585.62	31002.74
585.78	31330.41
585.94	30569.74
586.10	30934.86
586.26	31016.78
586.42	31433.39
586.58	31487.23
586.74	30965.29
586.90	30595.48
587.06	31281.26
587.22	31040.18
587.38	30829.54
587.54	30822.51
587.70	31421.69
587.86	31241.47
588.02	31007.42
588.18	31557.44
588.34	31468.50
588.49	31211.04
588.65	31187.64
588.81	30813.15
588.97	31079.97
589.13	31178.28
589.29	30958.27
589.45	30981.67
589.61	31253.17
589.77	31494.25
589.93	31438.08
590.08	31363.18
590.24	31494.25
590.40	31468.50
590.56	31527.02
590.72	31079.97
590.88	31159.55
591.04	31529.36
591.20	31211.04
591.35	31489.57
591.51	31772.77
591.67	31519.99
591.83	31564.46
591.99	31395.95
592.15	31199.34
592.31	31452.12
592.46	31026.14
592.62	31522.34
592.78	31222.75
592.94	31206.36
593.10	31473.18
593.26	31253.17
593.41	31227.43
593.57	31704.90
593.73	31779.79
593.89	31548.08
594.05	31644.04
594.20	31697.88
594.36	31494.25
594.52	31346.79
594.68	31395.95
594.84	31639.36
594.99	31435.74
595.15	31253.17
595.31	31896.82
595.47	31793.84
595.62	31674.47
595.78	31307.01
595.94	31346.79
596.10	31550.42
596.25	31676.81
596.41	31517.65
596.57	31454.46
596.73	31325.73
596.88	31386.58
597.04	31707.24
597.20	31459.14
597.36	31941.29
597.51	31672.13
597.67	31676.81
597.83	31583.19
597.99	31402.97
598.14	31674.47
598.30	31409.99
598.46	31374.88
598.61	31725.96
598.77	31381.90
598.93	31810.22
599.09	31770.43
599.24	32016.19
599.40	31845.33
599.56	31491.91
599.71	31709.58
599.87	31854.69
600.03	31798.52
600.18	31861.71
600.34	31564.46
600.50	31391.26
600.65	31812.56
600.81	31725.96
600.97	31896.82
601.12	32006.83
601.28	31985.76
601.44	31854.69
601.59	31583.19
601.75	31920.23
601.91	31658.09
602.06	31599.57
602.22	31796.18
602.37	31634.68
602.53	31630.00
602.69	31754.05
602.84	31828.95
603.00	32065.34
603.16	31810.22
603.31	31938.95
603.47	31545.74
603.62	31508.29
603.78	31686.17
603.94	31833.63
604.09	31512.97
604.25	31543.40
604.40	31302.32
604.56	31494.25
604.71	32063.00
604.87	31798.52
605.03	31501.27
605.18	31880.44
605.34	31878.10
605.49	31318.71
605.65	31524.68
605.80	31686.17
605.96	31569.15
606.12	31302.32
606.27	31197.00
606.43	31594.89
606.58	31763.41
606.74	31688.51
606.89	31676.81
607.05	31770.43
607.20	32032.57
607.36	31796.18
607.51	31957.67
607.67	31522.34
607.82	31501.27
607.98	31477.86
608.13	31337.43
608.29	31562.12
608.44	31627.66
608.60	31215.72
608.75	31885.12
608.91	31550.42
609.06	31452.12
609.22	31353.82
609.37	31288.28
609.53	31136.15
609.68	31711.92
609.84	31564.46
609.99	31494.25
610.15	31208.70
610.30	31505.95
610.46	31262.54
610.61	31967.04
610.76	31646.38
610.92	31365.52
611.07	31386.58
611.23	31402.97
611.38	31297.64
611.54	31330.41
611.69	31117.42
611.84	31475.52
612.00	31014.44
612.15	31028.48
612.31	31782.13
612.46	31283.60
612.62	31468.50
612.77	31360.84
612.92	31501.27
613.08	31552.76
613.23	31351.48
613.39	30876.35
613.54	30958.27
613.69	31288.28
613.85	31094.02
614.00	31108.06
614.15	31171.25
614.31	30991.03
614.46	30998.06
614.62	31281.26
614.77	31098.70
614.92	31192.32
615.08	31101.04
615.23	31035.50
615.38	30976.99
615.54	30707.83
615.69	31009.76
615.84	30878.69
616.00	31222.75
616.15	30955.93
616.30	31072.95
616.46	31035.50
616.61	30827.20
616.76	31143.17
616.92	30932.52
617.07	31199.34
617.22	30590.80
617.37	30841.24
617.53	30717.19
617.68	30525.27
617.83	30534.63
617.99	30635.27
618.14	30686.76
618.29	30600.16
618.45	30677.40
618.60	30796.77
618.75	30611.87
618.90	30850.60
619.06	30707.83
619.21	30820.17
619.36	30534.63
619.51	30401.22
619.67	30621.23
619.82	30354.41
619.97	30555.69
620.12	30389.52
620.28	30441.01
620.43	30281.85
620.58	30611.87
620.73	30457.39
620.89	30534.63
621.04	30574.42
621.19	30759.32
621.34	30459.73
621.49	30494.84
621.65	29996.31
621.80	30684.42
621.95	30506.54
622.10	30113.33
622.25	30654.00
622.41	30256.11
622.56	30256.11
622.71	30452.71
622.86	30635.27
623.01	30546.33
623.16	30412.92
623.32	30356.75
623.47	30373.13
623.62	30160.14
623.77	29996.31
623.92	29998.65
624.07	30260.79
624.23	30118.01
624.38	30136.74
624.53	30068.86
624.68	29975.24
624.83	30403.56
624.98	29916.73
625.13	30078.22
625.29	30181.21
625.44	30096.95
625.59	29879.28
625.74	30143.76
625.89	29668.63
626.04	30038.44
626.19	29883.96
626.34	29872.26
626.49	29577.35
626.65	29844.17
626.80	30141.42
626.95	30038.44
627.10	29738.85
627.25	29729.48
627.40	29883.96
627.55	29687.36
627.70	29633.52
627.85	29589.05
628.00	29422.87
628.15	29413.51
628.30	29404.15
628.45	29593.73
628.60	29460.32
628.76	29869.92
628.91	29813.74
629.06	29572.67
629.21	29708.42
629.36	29905.02
629.51	29617.14
629.66	29570.33
629.81	29493.09
629.96	29195.84
630.11	29961.20
630.26	29413.51
630.41	29024.98
630.56	29188.82
630.71	29223.93
630.86	29399.47
631.01	29273.08
631.16	29329.25
631.31	29565.65
631.46	29137.33
631.61	29289.46
631.76	29371.38
631.91	29315.21
632.06	29312.87
632.21	29111.58
632.36	29373.72
632.51	28982.85
632.66	29017.96
632.81	29043.71
632.96	29317.55
633.10	28926.68
633.25	28851.78
633.40	29153.71
633.55	29254.36
633.70	28978.17
633.85	28711.35
634.00	28905.62
634.15	28877.53
634.30	28751.14
634.45	29053.07
634.60	28758.16
634.75	28945.41
634.90	28517.09
635.05	28720.71
635.19	28978.17
635.34	29041.37
635.49	29083.50
635.64	28713.69
635.79	28992.22
635.94	28889.23
636.09	28463.25
636.24	28744.12
636.39	28531.13
636.53	28711.35
636.68	28538.15
636.83	28774.55
636.98	28767.52
637.13	28706.67
637.28	28797.95
637.43	28919.66
637.57	29020.30
637.72	28519.43
637.87	28540.49
638.02	28709.01
638.17	28669.22
638.32	28400.06
638.46	28254.95
638.61	28329.84
638.76	28020.89
638.91	28460.91
639.06	28100.47
639.20	28540.49
639.35	28863.49
639.50	28449.21
639.65	28350.91
639.80	28467.94
639.94	28315.80
640.09	28224.52
640.24	28107.49
640.39	28081.75
640.54	27931.95
640.68	28093.45
640.83	28299.42
640.98	28259.63
641.13	27871.10
641.27	28439.85
641.42	28336.87
641.57	28212.82
641.72	28219.84
641.86	27634.71
642.01	27838.33
642.16	27920.25
642.31	27756.41
642.45	28004.51
642.60	27723.65
642.75	27573.85
642.90	27669.81
643.04	27487.25
643.19	27875.78
643.34	27976.42
643.48	27798.54
643.63	27807.90
643.78	27683.86
643.93	28102.81
644.07	27819.61
644.22	27913.23
644.37	27791.52
644.51	27828.97
644.66	27910.89
644.81	27566.83
644.95	27522.36
645.10	27651.09
645.25	27520.02
645.39	27321.07
645.54	27658.11
645.69	27204.05
645.83	27475.55
645.98	27922.59
646.13	27585.55
646.27	27625.34
646.42	27590.24
646.57	27302.35
646.71	27681.52
646.86	27599.60
647.00	27398.31
647.15	27377.25
647.30	27402.99
647.44	26967.65
647.59	27426.40
647.74	27173.62
647.88	27290.65
648.03	27274.26
648.17	27477.89
648.32	27688.54
648.47	27543.42
648.61	27129.15
648.76	27730.67
648.90	27257.88
649.05	27225.11
649.20	27260.22
649.34	27117.45
649.49	26878.71
649.63	27068.30
649.78	26876.37
649.92	27126.81
650.07	27419.38
650.21	26927.86
650.36	27133.83
650.51	26974.67
650.65	27173.62
650.80	27178.30
650.94	27061.27
651.09	26899.78
651.23	26766.37
651.38	26881.05
651.52	26902.12
651.67	26899.78
651.81	27229.79
651.96	26792.11
652.10	26696.15
652.25	27222.77
652.39	27007.44
652.54	26696.15
652.68	27042.55
652.83	26387.20
652.97	26764.03
653.12	26838.92
653.26	26824.88
653.41	26923.18
653.55	26696.15
653.70	26518.27
653.84	27026.17
653.99	26668.06
654.13	26712.53
654.27	26707.85
654.42	26635.30
654.56	26153.15
654.71	26969.99
654.85	26522.95
655.00	26759.34
655.14	26637.64
655.29	26490.18
655.43	26934.88
655.57	26438.69
655.72	26529.97
655.86	26345.07
656.01	26288.90
656.15	26228.04
656.30	26237.41
656.44	26316.98
656.58	26408.26
656.73	26043.14
656.87	26235.06
657.01	25900.37
657.16	26349.75
657.30	26511.25
657.45	26457.42
657.59	26614.23
657.73	26029.10
657.88	25916.75
658.02	25848.88
658.16	26347.41
658.31	26022.08
658.45	26164.85
658.60	26043.14
658.74	25902.71
658.88	25991.65
659.03	25692.06
659.17	26192.94
659.31	25996.33
659.46	25724.83
659.60	26045.48
659.74	25776.32
659.89	25956.54
660.03	25862.92
660.17	25563.33
660.32	25600.78
660.46	25532.90
660.60	25549.29
660.74	25303.53
660.89	25635.89
661.03	25340.98
661.17	25731.85
661.32	25544.61
661.46	25860.58
661.60	25542.27
661.74	25610.14
661.89	25626.53
662.03	25399.49
662.17	25460.35
662.31	25013.31
662.46	25607.80
662.60	25415.88
662.74	25404.17
662.88	25221.61
663.03	24945.43
663.17	25193.53
663.31	24439.87
663.45	24875.21
663.60	24744.14
663.74	24828.40
663.88	24968.84
664.02	24985.22
664.17	25270.76
664.31	24713.72
664.45	24795.64
664.59	24524.13
664.73	25043.73
664.88	24697.33
665.02	24435.19
665.16	24542.86
665.30	24580.31
665.44	24439.87
665.59	24505.41
665.73	24500.73
665.87	24285.40
666.01	24435.19
666.15	24503.07
666.29	24505.41
666.44	24119.22
666.58	24493.71
666.72	23962.40
666.86	24631.80
667.00	24175.39
667.14	24299.44
667.28	23852.40
667.43	23953.04
667.57	24400.08
667.71	24046.66
667.85	24147.31
667.99	23655.79
668.13	23836.02
668.27	23501.32
668.41	23988.15
668.56	23704.95
668.70	24070.07
668.84	23707.29
668.98	24044.32
669.12	24142.63
669.26	23896.87
669.40	23772.82
669.54	23843.04
669.68	23824.31
669.82	23365.57
669.96	23335.14
670.10	23028.53
670.25	23728.35
670.39	23459.19
670.53	23531.75
670.67	23187.69
670.81	23246.20
670.95	23452.17
671.09	23042.57
671.23	23094.07
671.37	23278.97
671.51	23147.90
671.65	23241.52
671.79	23096.41
671.93	22970.02
672.07	23061.30
672.21	22714.90
672.35	22494.89
672.49	22686.81
672.63	22560.42
672.77	22473.82
672.91	22668.09
673.05	22789.80
673.19	22462.12
673.33	22522.98
673.47	22583.83
673.61	22675.11
673.75	22405.95
673.89	22125.08
674.03	22265.52
674.17	21979.97
674.31	22345.09
674.45	22120.40
674.59	22169.55
674.73	22183.60
674.87	22174.24
675.01	22101.68
675.15	22033.80
675.29	21937.84
675.43	21963.59
675.56	22104.02
675.70	21687.40
675.84	21762.30
675.98	21226.32
676.12	22071.25
676.26	21851.24
676.40	21523.57
676.54	21813.79
676.68	21907.41
676.82	21326.96
676.96	21245.04
677.10	21333.98
677.23	21130.36
677.37	20805.02
677.51	20945.45
677.65	20980.56
677.79	20893.96
677.93	20938.43
678.07	20964.18
678.21	20608.42
678.34	20774.60
678.48	20725.44
678.62	20257.34
678.76	20526.50
678.90	20379.04
679.04	20505.43
679.18	20318.19
679.31	20362.66
679.45	20154.35
679.59	20325.21
679.73	20049.03
679.87	20144.99
680.00	20020.94
680.14	19871.15
680.28	19868.81
680.42	20058.39
680.56	19932.00
680.70	19791.57
680.83	20093.50
680.97	19587.94
681.11	19545.81
681.25	19342.19
681.39	19447.51
681.52	19302.40
681.66	19370.27
681.80	19381.98
681.94	19363.25
682.07	19346.87
682.21	19316.44
682.35	19094.09
682.49	19047.28
682.62	18890.46
682.76	19103.45
682.90	18944.30
683.04	18904.51
683.17	18991.11
683.31	18817.91
683.45	18960.68
683.59	18689.18
683.72	18658.75
683.86	18813.23
684.00	18518.32
684.13	18551.09
684.27	18242.14
684.41	18066.60
684.55	18068.94
684.68	18001.06
684.82	17909.78
684.96	17994.04
685.09	17764.67
685.23	18150.85
685.37	17759.98
685.50	17806.80
685.64	18082.98
685.78	17804.46
685.91	18108.72
686.05	18061.91
686.19	17488.48
686.32	17776.37
686.46	17406.56
686.60	17495.50
686.73	17371.46
686.87	16971.22
687.01	17390.18
687.14	17139.74
687.28	16945.48
687.42	16695.04
687.55	17018.04
687.69	16989.95
687.82	17027.40
687.96	16774.62
688.10	16760.58
688.23	16783.98
688.37	16692.70
688.50	16950.16
688.64	16538.23
688.78	16507.80
688.91	16292.47
689.05	16236.30
689.18	16624.83
689.32	16196.51
689.46	15800.96
689.59	16196.51
689.73	16236.30
689.86	15887.56
690.00	15815.00
690.13	15976.50
690.27	15983.52
690.41	15932.03
690.54	15730.74
690.68	15971.82
690.81	15950.75
690.95	15665.21
691.08	15843.09
691.22	15419.45
691.35	15580.95
691.49	15578.61
691.62	15510.73
691.76	15365.62
691.89	15288.38
692.03	14892.83
692.16	14991.13
692.30	14977.09
692.43	14885.81
692.57	14892.83
692.70	15089.43
692.84	14958.36
692.97	14745.38
693.11	14853.04
693.24	14899.85
693.38	14675.16
693.51	14595.58
693.65	14583.88
693.78	14663.46
693.92	14333.44
694.05	14471.53
694.19	14370.89
694.32	14171.94
694.45	14092.37
694.59	13921.51
694.72	13837.25
694.86	14148.54
694.99	13661.71
695.13	13755.33
695.26	13755.33
695.39	13664.05
695.53	13797.46
695.66	13825.54
695.80	13678.09
695.93	13692.13
696.07	13689.79
696.20	13699.16
696.33	13565.74
696.47	13542.34
696.60	13366.80
696.73	13289.56
696.87	13144.45
697.00	13345.73
697.14	13198.28
697.27	12819.11
697.40	12940.82
697.54	13378.50
697.67	12730.17
697.80	12706.77
697.94	12624.85
698.07	12575.70
698.21	12519.53
698.34	12519.53
698.47	12945.50
698.61	12748.90
698.74	12706.77
698.87	12308.88
699.01	12456.33
699.14	12315.90
699.27	12423.56
699.40	12482.08
699.54	12241.00
699.67	12077.16
699.80	12063.12
699.94	11983.54
700.07	11927.37
700.20	11726.08
700.34	11786.94
700.47	11595.01
700.60	11829.07
700.73	11789.28
700.87	11730.76
701.00	11784.60
701.13	11548.20
701.26	11651.19
701.40	11690.98
701.53	11613.74
701.66	11384.37
701.79	11510.75
701.93	11257.98
702.06	11332.87
702.19	11138.61
702.32	11187.76
702.46	11117.54
702.59	11140.95
702.72	10946.69
702.85	10824.98
702.99	10909.24
703.12	10679.86
703.25	10619.01
703.38	10761.78
703.51	10693.91
703.65	10530.07
703.78	10588.58
703.91	10478.58
704.04	10487.94
704.17	10799.23
704.31	10574.54
704.44	10497.30
704.57	10483.26
704.70	10478.58
704.83	10296.02
704.96	10178.99
705.10	10391.98
705.23	9984.73
>>>>>End Processed Spectral Data<<<<<
