SpectraSuite Data File
++++++++++++++++++++++++++++++++++++
Date: Fri Oct 18 13:58:04 GMT-05:00 2013
User: bianchi
Dark Spectrum Present: No
Reference Spectrum Present: No
Number of Sampled Component Spectra: 1
Spectrometers: USB2+H05261
Integration Time (usec): 50000 (USB2+H05261)
Spectra Averaged: 1 (USB2+H05261)
Boxcar Smoothing: 0 (USB2+H05261)
Correct for Electrical Dark: No (USB2+H05261)
Strobe/Lamp Enabled: No (USB2+H05261)
Correct for Detector Non-linearity: No (USB2+H05261)
Correct for Stray Light: No (USB2+H05261)
Number of Pixels in Processed Spectrum: 2048
>>>>>Begin Processed Spectral Data<<<<<
365.73	0.00
365.92	0.00
366.12	0.00
366.32	0.00
366.52	0.00
366.72	0.00
366.91	0.00
367.11	0.00
367.31	0.00
367.51	0.00
367.70	0.00
367.90	0.00
368.10	0.00
368.30	0.00
368.49	0.00
368.69	0.00
368.89	0.00
369.09	0.00
369.28	0.00
369.48	0.00
369.68	0.00
369.87	0.00
370.07	0.00
370.27	0.00
370.47	0.00
370.66	63.19
370.86	67.88
371.06	170.86
371.25	128.73
371.45	35.11
371.65	159.16
371.84	170.86
372.04	119.37
372.24	184.90
372.44	175.54
372.63	166.18
372.83	273.84
373.03	152.13
373.22	154.48
373.42	205.97
373.62	215.33
373.81	269.16
374.01	241.08
374.21	262.14
374.40	264.48
374.60	255.12
374.79	222.35
374.99	299.59
375.19	243.42
375.38	234.05
375.58	234.05
375.78	184.90
375.97	245.76
376.17	266.82
376.37	238.73
376.56	224.69
376.76	243.42
376.95	276.18
377.15	259.80
377.35	266.82
377.54	182.56
377.74	252.78
377.93	283.20
378.13	252.78
378.33	332.36
378.52	297.25
378.72	283.20
378.91	248.10
379.11	290.23
379.31	229.37
379.50	234.05
379.70	344.06
379.89	388.53
380.09	339.38
380.28	273.84
380.48	341.72
380.68	264.48
380.87	325.33
381.07	346.40
381.26	290.23
381.46	348.74
381.65	341.72
381.85	376.83
382.04	369.80
382.24	322.99
382.43	334.70
382.63	304.27
382.83	327.68
383.02	322.99
383.22	355.76
383.41	294.91
383.61	433.00
383.80	407.25
384.00	423.64
384.19	409.59
384.39	374.49
384.58	355.76
384.78	395.55
384.97	353.42
385.17	346.40
385.36	402.57
385.56	393.21
385.75	383.85
385.95	388.53
386.14	451.72
386.34	353.42
386.53	454.06
386.72	372.15
386.92	395.55
387.11	407.25
387.31	428.32
387.50	397.89
387.70	470.45
387.89	425.98
388.09	407.25
388.28	437.68
388.48	421.30
388.67	423.64
388.86	465.77
389.06	489.17
389.25	521.94
389.45	425.98
389.64	465.77
389.84	528.96
390.03	475.13
390.22	573.43
390.42	519.60
390.61	482.15
390.81	547.69
391.00	468.11
391.19	568.75
391.39	547.69
391.58	596.84
391.78	479.81
391.97	582.79
392.16	589.82
392.36	528.96
392.55	559.39
392.75	543.00
392.94	514.92
393.13	514.92
393.33	582.79
393.52	620.24
393.71	664.71
393.91	557.05
394.10	603.86
394.29	592.16
394.49	566.41
394.68	613.22
394.88	477.47
395.07	477.47
395.26	578.11
395.46	566.41
395.65	660.03
395.84	582.79
396.04	678.76
396.23	566.41
396.42	592.16
396.62	660.03
396.81	704.50
397.00	615.56
397.19	695.14
397.39	678.76
397.58	664.71
397.77	727.91
397.97	676.41
398.16	617.90
398.35	692.80
398.55	641.31
398.74	734.93
398.93	674.07
399.12	791.10
399.32	653.01
399.51	770.04
399.70	690.46
399.90	816.85
400.09	739.61
400.28	758.33
400.47	751.31
400.67	812.17
400.86	774.72
401.05	781.74
401.24	692.80
401.44	774.72
401.63	835.57
401.82	770.04
402.01	847.27
402.21	849.61
402.40	795.78
402.59	903.45
402.78	851.96
402.97	959.62
403.17	866.00
403.36	968.98
403.55	931.53
403.74	980.68
403.93	863.66
404.13	931.53
404.32	835.57
404.51	929.19
404.70	971.32
404.89	947.92
405.09	945.58
405.28	973.66
405.47	938.55
405.66	999.41
405.85	1088.35
406.05	978.34
406.24	894.08
406.43	964.30
406.62	1027.50
406.81	1057.92
407.00	990.05
407.20	1001.75
407.39	1008.77
407.58	1078.99
407.77	1074.31
407.96	1125.80
408.15	1004.09
408.34	1125.80
408.54	1184.31
408.73	1128.14
408.92	1057.92
409.11	1188.99
409.30	1217.08
409.49	1100.05
409.68	1163.25
409.87	1088.35
410.07	1165.59
410.26	1116.44
410.45	1069.62
410.64	1263.89
410.83	1287.29
411.02	1249.85
411.21	1287.29
411.40	1200.69
411.59	1282.61
411.78	1315.38
411.98	1268.57
412.17	1348.15
412.36	1376.24
412.55	1378.58
412.74	1378.58
412.93	1378.58
413.12	1263.89
413.31	1460.49
413.50	1387.94
413.69	1474.54
413.88	1483.90
414.07	1483.90
414.26	1420.71
414.45	1427.73
414.64	1516.67
414.83	1570.50
415.02	1589.22
415.22	1533.05
415.41	1561.14
415.60	1563.48
415.79	1554.12
415.98	1614.97
416.17	1579.86
416.36	1621.99
416.55	1591.56
416.74	1717.95
416.93	1638.38
417.12	1675.82
417.31	1657.10
417.50	1732.00
417.69	1837.32
417.88	1776.47
418.07	1692.21
418.26	1696.89
418.45	1715.61
418.64	1790.51
418.83	1804.55
419.02	1816.26
419.21	1813.92
419.39	1837.32
419.58	1750.72
419.77	1839.66
419.96	1825.62
420.15	1898.17
420.34	1872.43
420.53	1987.11
420.72	1947.33
420.91	1891.15
421.10	1849.02
421.29	1944.99
421.48	1832.64
421.67	1944.99
421.86	1844.34
422.05	1998.82
422.24	1963.71
422.43	1994.14
422.61	2066.69
422.80	2012.86
422.99	1963.71
423.18	1984.77
423.37	1994.14
423.56	2062.01
423.75	1921.58
423.94	1966.05
424.13	1937.96
424.32	1961.37
424.50	2146.27
424.69	2036.27
424.88	2120.53
425.07	2073.71
425.26	2087.76
425.45	2001.16
425.64	1994.14
425.83	1977.75
426.01	2127.55
426.20	2120.53
426.39	2066.69
426.58	2057.33
426.77	2052.65
426.96	2097.12
427.15	2036.27
427.33	2129.89
427.52	2090.10
427.71	2090.10
427.90	2097.12
428.09	2186.06
428.28	2221.17
428.46	2317.13
428.65	2267.98
428.84	2296.07
429.03	2253.94
429.22	2146.27
429.40	2167.34
429.59	2256.28
429.78	2211.81
429.97	2188.40
430.16	2207.13
430.34	2370.96
430.53	2413.09
430.72	2270.32
430.91	2284.36
431.10	2291.38
431.28	2298.41
431.47	2282.02
431.66	2518.42
431.85	2476.29
432.03	2506.71
432.22	2509.05
432.41	2572.25
432.60	2497.35
432.79	2445.86
432.97	2516.08
433.16	2506.71
433.35	2504.37
433.54	2555.86
433.72	2560.55
433.91	2502.03
434.10	2612.04
434.28	2541.82
434.47	2504.37
434.66	2586.29
434.85	2572.25
435.03	2696.30
435.22	2548.84
435.41	2700.98
435.59	2635.44
435.78	2757.15
435.97	2628.42
436.16	2794.60
436.34	2738.43
436.53	2623.74
436.72	2712.68
436.90	2668.21
437.09	2736.09
437.28	2679.91
437.46	2745.45
437.65	2656.51
437.84	2722.04
438.02	2771.19
438.21	2820.35
438.40	2649.49
438.58	2890.56
438.77	2958.44
438.96	2911.63
439.14	3000.57
439.33	3084.83
439.52	2949.08
439.70	2928.01
439.89	3052.06
440.08	3059.08
440.26	3073.12
440.45	3131.64
440.63	3145.68
440.82	3197.17
441.01	3166.74
441.19	3138.66
441.38	3358.67
441.57	3166.74
441.75	3295.47
441.94	3269.73
442.12	3225.26
442.31	3318.88
442.50	3391.44
442.68	3398.46
442.87	3375.05
443.05	3494.42
443.24	3471.01
443.43	3426.54
443.61	3300.16
443.80	3475.70
443.98	3412.50
444.17	3358.67
444.35	3527.19
444.54	3499.10
444.73	3393.78
444.91	3386.76
445.10	3456.97
445.28	3651.24
445.47	3349.31
445.65	3426.54
445.84	3524.85
446.02	3588.04
446.21	3442.93
446.39	3485.06
446.58	3410.16
446.77	3562.30
446.95	3368.03
447.14	3396.12
447.32	3524.85
447.51	3487.40
447.69	3590.38
447.88	3447.61
448.06	3529.53
448.25	3520.17
448.43	3611.45
448.62	3616.13
448.80	3604.42
448.99	3559.95
449.17	3662.94
449.36	3688.68
449.54	3599.74
449.73	3688.68
449.91	3782.31
450.10	3768.26
450.28	3829.12
450.46	3801.03
450.65	3695.71
450.83	3749.54
451.02	3810.39
451.20	3852.52
451.39	3859.54
451.57	3791.67
451.76	3744.86
451.94	3726.13
452.13	3843.16
452.31	3962.53
452.49	3915.72
452.68	3929.76
452.86	3878.27
453.05	3992.95
453.23	4028.06
453.42	3831.46
453.60	3922.74
453.78	3957.85
453.97	3988.27
454.15	4023.38
454.34	4007.00
454.52	4077.21
454.70	4042.11
454.89	4084.23
455.07	4037.42
455.26	4184.88
455.44	4091.26
455.62	4149.77
455.81	4018.70
455.99	4271.48
456.17	4215.30
456.36	4217.65
456.54	4173.18
456.73	4173.18
456.91	4414.25
457.09	4383.82
457.28	4290.20
457.46	4402.55
457.64	4461.06
457.83	4304.25
458.01	4458.72
458.19	4360.42
458.38	4346.37
458.56	4550.00
458.74	4400.21
458.93	4374.46
459.11	4482.13
459.29	4465.74
459.48	4498.51
459.66	4575.75
459.84	4458.72
460.03	4695.11
460.21	4519.57
460.39	4854.27
460.57	4638.94
460.76	4645.96
460.94	4667.03
461.12	4830.87
461.31	4887.04
461.49	4840.23
461.67	4704.48
461.85	4849.59
462.04	4840.23
462.22	4912.78
462.40	4795.76
462.59	4896.40
462.77	4863.63
462.95	4746.61
463.13	4887.04
463.32	4964.28
463.50	5011.09
463.68	4854.27
463.86	4919.81
464.05	4755.97
464.23	4842.57
464.41	5013.43
464.59	4842.57
464.78	4983.00
464.96	4947.89
465.14	4983.00
465.32	4816.82
465.50	5053.22
465.69	5116.41
465.87	4983.00
466.05	5193.65
466.23	5060.24
466.41	5153.86
466.60	5261.52
466.78	5013.43
466.96	5057.90
467.14	5008.75
467.32	5210.03
467.51	5170.24
467.69	5043.85
467.87	5078.96
468.05	5240.46
468.23	5135.14
468.41	5165.56
468.60	5254.50
468.78	5317.70
468.96	5074.28
469.14	5289.61
469.32	5408.98
469.50	5226.42
469.69	5465.15
469.87	5338.76
470.05	5465.15
470.23	5530.69
470.41	5483.88
470.59	5458.13
470.77	5561.11
470.95	5577.50
471.14	5694.52
471.32	5547.07
471.50	5685.16
471.68	5647.71
471.86	5701.54
472.04	5668.78
472.22	5912.19
472.40	5724.95
472.58	5717.93
472.77	5734.31
472.95	5867.72
473.13	6153.27
473.31	5841.98
473.49	5973.05
473.67	5781.12
473.85	5809.21
474.03	6010.50
474.21	5930.92
474.39	5973.05
474.57	6155.61
474.75	6115.82
474.93	6532.44
475.12	6274.98
475.30	6225.82
475.48	6249.23
475.66	6214.12
475.84	6548.82
476.02	6600.31
476.20	6494.99
476.38	6434.13
476.56	6600.31
476.74	6548.82
476.92	6483.28
477.10	6480.94
477.28	6822.66
477.46	6483.28
477.64	6707.98
477.82	6766.49
478.00	6834.36
478.18	6920.96
478.36	7080.12
478.54	7236.94
478.72	7318.86
478.90	7187.79
479.08	7171.40
479.26	7459.29
479.44	7478.01
479.62	7445.24
479.80	7456.95
479.98	7513.12
480.16	7754.19
480.34	7728.45
480.52	7772.92
480.70	7674.62
480.88	7658.23
481.06	7985.91
481.24	7798.66
481.41	7793.98
481.59	7976.55
481.77	7934.42
481.95	8131.02
482.13	8234.00
482.31	8168.47
482.49	8198.90
482.67	8215.28
482.85	8397.84
483.03	8667.00
483.21	8833.18
483.39	8793.39
483.57	8681.05
483.74	8744.24
483.92	8905.74
484.10	8575.72
484.28	9050.85
484.46	9266.18
484.64	9174.90
484.82	9160.86
485.00	9039.15
485.18	9418.32
485.35	9535.34
485.53	9376.19
485.71	9448.74
485.89	9748.33
486.07	9568.11
486.25	9856.00
486.43	9767.06
486.61	9813.87
486.78	9771.74
486.96	10209.42
487.14	10284.31
487.32	10225.80
487.50	10303.04
487.68	10391.98
487.85	10429.43
488.03	10759.44
488.21	10724.33
488.39	10597.95
488.57	10885.83
488.75	10885.83
488.92	11037.97
489.10	11169.04
489.28	11232.23
489.46	11213.51
489.64	11091.80
489.81	11414.79
489.99	11501.39
490.17	11611.40
490.35	11466.28
490.53	11761.19
490.70	11758.85
490.88	11618.42
491.06	11864.18
491.24	11929.71
491.41	12018.65
491.59	12072.48
491.77	12030.35
491.95	12091.21
492.13	12336.96
492.30	12683.36
492.48	12568.68
492.66	12458.67
492.84	12620.17
493.01	12430.59
493.19	12549.95
493.37	12980.61
493.54	12833.16
493.72	13137.43
493.90	12982.95
494.08	13043.81
494.25	13273.18
494.43	13221.69
494.61	13373.82
494.79	13558.72
494.96	13612.56
495.14	13568.09
495.32	13881.72
495.49	13783.41
495.67	13905.12
495.85	13675.75
496.02	14258.54
496.20	14178.97
496.38	14010.45
496.55	13987.04
496.73	14398.98
496.91	14324.08
497.09	14356.85
497.26	14303.01
497.44	14553.45
497.62	14633.03
497.79	14899.85
497.97	14752.40
498.14	15126.88
498.32	14916.23
498.50	15030.92
498.67	15269.66
498.85	15164.33
499.03	15386.68
499.20	15154.97
499.38	15164.33
499.56	15295.40
499.73	15508.39
499.91	15508.39
500.08	15772.87
500.26	15410.09
500.44	15719.04
500.61	15716.70
500.79	15747.12
500.97	16119.27
501.14	16046.71
501.32	16432.90
501.49	16205.87
501.67	16006.92
501.84	15953.09
502.02	16175.44
502.20	16102.89
502.37	16374.39
502.55	16386.09
502.72	16559.29
502.90	16599.08
503.07	16222.25
503.25	16262.04
503.43	16339.28
503.60	16748.87
503.78	16779.30
503.95	16617.80
504.13	16975.91
504.30	16854.20
504.48	16662.27
504.65	17341.03
504.83	17092.93
505.01	17596.15
505.18	17294.22
505.36	17418.27
505.53	17256.77
505.71	17137.40
505.88	17387.84
506.06	17298.90
506.23	17392.52
506.41	17619.55
506.58	17713.17
506.76	17776.37
506.93	17968.29
507.11	17579.76
507.28	17844.24
507.46	17778.71
507.63	17923.82
507.81	18237.45
507.98	17860.63
508.16	18068.94
508.33	18085.32
508.50	18176.60
508.68	18132.13
508.85	18361.50
509.03	18443.42
509.20	18403.63
509.38	18485.55
509.55	18623.64
509.73	18750.03
509.90	18317.03
510.08	18750.03
510.25	18771.10
510.42	18869.40
510.60	19194.73
510.77	19225.16
510.95	18677.48
511.12	19054.30
511.30	18897.49
511.47	19325.80
511.64	18923.23
511.82	19307.08
511.99	19042.60
512.17	19807.95
512.34	19267.29
512.51	19515.39
512.69	19508.37
512.86	19253.25
513.04	19695.61
513.21	19868.81
513.38	19620.71
513.56	19648.80
513.73	19749.44
513.90	19803.27
514.08	19711.99
514.25	19864.13
514.43	20053.71
514.60	20042.01
514.77	20201.16
514.95	20056.05
515.12	20233.93
515.29	20189.46
515.47	20226.91
515.64	20208.19
515.81	20383.73
515.99	20723.10
516.16	20851.83
516.33	20753.53
516.51	20994.61
516.68	20545.22
516.85	20783.96
517.03	20896.30
517.20	20889.28
517.37	20772.25
517.54	20737.15
517.72	21043.76
517.89	20940.77
518.06	20938.43
518.24	21092.91
518.41	21088.23
518.58	21378.45
518.75	21355.05
518.93	21439.31
519.10	21371.43
519.27	21387.82
519.45	21415.90
519.62	21394.84
519.79	21336.32
519.96	21355.05
520.14	21696.77
520.31	21460.37
520.48	21820.81
520.65	21366.75
520.83	21598.46
521.00	21673.36
521.17	21532.93
521.34	21741.24
521.52	21738.90
521.69	21710.81
521.86	22068.91
522.03	22319.35
522.20	21935.50
522.38	22228.07
522.55	22118.06
522.72	22277.22
522.89	22218.71
523.07	22441.06
523.24	22113.38
523.41	23073.00
523.58	22293.60
523.75	22586.17
523.92	22625.96
524.10	22389.56
524.27	22567.45
524.44	22860.01
524.61	23002.78
524.78	22998.10
524.96	22785.12
525.13	22764.05
525.30	22970.02
525.47	22838.95
525.64	22792.14
525.81	23033.21
525.98	23269.61
526.16	23339.82
526.33	23332.80
526.50	23304.71
526.67	23094.07
526.84	23321.10
527.01	23236.84
527.18	23297.69
527.36	23583.24
527.53	23545.79
527.70	23747.08
527.87	23723.67
528.04	23658.14
528.21	23449.83
528.38	23587.92
528.55	23349.18
528.72	23836.02
528.89	23875.80
529.07	23821.97
529.24	23737.71
529.41	24004.53
529.58	23976.45
529.75	23768.14
529.92	23859.42
530.09	23969.43
530.26	24163.69
530.43	24121.56
530.60	24128.58
530.77	24168.37
530.94	24259.65
531.11	24334.55
531.28	23931.98
531.46	24217.52
531.63	24432.85
531.80	24409.45
531.97	24489.03
532.14	24290.08
532.31	24372.00
532.48	24479.66
532.65	24542.86
532.82	24393.06
532.99	24650.52
533.16	24978.20
533.33	24680.95
533.50	25050.75
533.67	24425.83
533.84	24664.57
534.01	24360.30
534.18	24505.41
534.35	25158.42
534.52	24816.70
534.69	25352.68
534.86	25097.56
535.03	24989.90
535.20	24947.77
535.37	25017.99
535.54	25247.36
535.71	24879.89
535.88	25027.35
536.05	25235.66
536.22	25261.40
536.38	25546.95
536.55	25422.90
536.72	25177.14
536.89	25359.70
537.06	25296.51
537.23	25582.06
537.40	25165.44
537.57	25818.45
537.74	25556.31
537.91	25635.89
538.08	25579.71
538.25	25764.62
538.42	26052.50
538.59	25947.18
538.75	25612.48
538.92	25425.24
539.09	25883.98
539.26	25523.54
539.43	25844.20
539.60	26022.08
539.77	26235.06
539.94	26052.50
540.11	25764.62
540.28	25993.99
540.44	25839.51
540.61	26031.44
540.78	25848.88
540.95	26024.42
541.12	26050.16
541.29	25907.39
541.46	26118.04
541.62	25818.45
541.79	26338.05
541.96	25582.06
542.13	26321.66
542.30	26134.42
542.47	26647.00
542.63	26469.12
542.80	26536.99
542.97	26703.17
543.14	27222.77
543.31	26448.05
543.48	26686.79
543.64	26965.31
543.81	26731.26
543.98	26946.59
544.15	26850.63
544.32	27339.80
544.48	27239.15
544.65	27222.77
544.82	26972.33
544.99	26607.21
545.16	26927.86
545.32	26955.95
545.49	27545.76
545.66	27197.02
545.83	27138.51
546.00	27608.96
546.16	26937.23
546.33	27154.90
546.50	26857.65
546.67	27274.26
546.83	27026.17
547.00	27459.16
547.17	27468.53
547.34	27246.18
547.50	27367.88
547.67	27253.20
547.84	27566.83
548.00	27405.33
548.17	27747.05
548.34	27496.61
548.51	27777.48
548.67	27988.13
548.84	27775.14
549.01	27768.12
549.18	27655.77
549.34	27599.60
549.51	27632.36
549.68	27297.67
549.84	27606.62
550.01	28268.99
550.18	27793.86
550.34	27908.55
550.51	27833.65
550.68	28121.54
550.84	28011.53
551.01	28147.28
551.18	27761.09
551.34	27889.82
551.51	28140.26
551.68	28563.90
551.84	28318.14
552.01	27885.14
552.18	28093.45
552.34	28259.63
552.51	28173.03
552.68	28187.07
552.84	28245.58
553.01	28596.67
553.18	28133.24
553.34	28535.81
553.51	28252.61
553.67	28465.60
553.84	28865.83
554.01	28664.54
554.17	28601.35
554.34	28533.47
554.51	28496.02
554.67	28676.24
554.84	28460.91
555.00	28559.22
555.17	28673.90
555.33	28779.23
555.50	28374.31
555.67	28540.49
555.83	28582.62
556.00	28409.42
556.16	28875.19
556.33	28683.27
556.50	28769.86
556.66	28809.65
556.83	28999.24
556.99	29275.42
557.16	29008.60
557.32	29046.05
557.49	28992.22
557.65	28844.76
557.82	28987.53
557.98	28767.52
558.15	28912.64
558.32	28856.46
558.48	29153.71
558.65	29298.83
558.81	29095.20
558.98	29181.80
559.14	29242.65
559.31	29530.54
559.47	28802.63
559.64	29132.65
559.80	29226.27
559.97	29305.85
560.13	29546.92
560.30	29380.74
560.46	28875.19
560.63	29067.11
560.79	29186.48
560.96	29635.86
561.12	29296.49
561.29	29200.52
561.45	29607.78
561.61	29666.29
561.78	29305.85
561.94	29465.00
562.11	29230.95
562.27	29488.41
562.44	29090.52
562.60	29216.91
562.77	29230.95
562.93	29198.18
563.10	29593.73
563.26	29521.18
563.42	29979.92
563.59	29535.22
563.75	29706.08
563.92	29439.26
564.08	29521.18
564.24	29345.64
564.41	29472.03
564.57	29319.89
564.74	29687.36
564.90	29472.03
565.07	29666.29
565.23	29937.79
565.39	29244.99
565.56	29912.05
565.72	29830.13
565.88	29713.10
566.05	29624.16
566.21	29575.01
566.38	29914.39
566.54	29820.77
566.70	30157.80
566.87	29993.97
567.03	29872.26
567.19	29993.97
567.36	29722.46
567.52	29914.39
567.68	30085.25
567.85	29839.49
568.01	29851.19
568.17	29542.24
568.34	30073.54
568.50	29902.68
568.66	29631.18
568.83	30235.04
568.99	29984.60
569.15	29804.38
569.32	29867.58
569.48	29912.05
569.64	30150.78
569.81	29942.47
569.97	29788.00
570.13	30263.13
570.30	30106.31
570.46	30356.75
570.62	29872.26
570.78	30209.29
570.95	29771.61
571.11	30036.09
571.27	30003.33
571.43	29642.88
571.60	30178.87
571.76	30110.99
571.92	30558.03
572.09	30646.97
572.25	30155.46
572.41	30061.84
572.57	30302.92
572.74	30672.72
572.90	30071.20
573.06	29783.32
573.22	29577.35
573.38	30068.86
573.55	29771.61
573.71	30197.59
573.87	30246.74
574.03	30005.67
574.20	30068.86
574.36	29607.78
574.52	30206.95
574.68	30106.31
574.84	30436.33
575.01	30476.12
575.17	30153.12
575.33	30188.23
575.49	30155.46
575.65	30103.97
575.82	30335.68
575.98	29998.65
576.14	30513.56
576.30	30270.15
576.46	29912.05
576.62	30279.51
576.79	30457.39
576.95	30185.89
577.11	30286.53
577.27	30387.18
577.43	30377.81
577.59	30370.79
577.75	30506.54
577.92	30527.61
578.08	30118.01
578.24	30134.40
578.40	30036.09
578.56	30345.05
578.72	30181.21
578.88	30408.24
579.04	30508.88
579.21	30438.67
579.37	30321.64
579.53	30394.20
579.69	30080.56
579.85	30668.04
580.01	30323.98
580.17	30415.26
580.33	30270.15
580.49	30129.72
580.65	30265.47
580.82	30223.34
580.98	30328.66
581.14	30693.79
581.30	30457.39
581.46	30417.60
581.62	30822.51
581.78	30118.01
581.94	30309.94
582.10	30377.81
582.26	30696.13
582.42	30221.00
582.58	30534.63
582.74	30855.28
582.90	30473.78
583.06	30553.35
583.22	30464.41
583.38	30499.52
583.54	30139.08
583.70	30506.54
583.86	30749.96
584.02	30558.03
584.18	30433.99
584.34	30586.12
584.50	30768.68
584.66	30286.53
584.82	30342.70
584.98	30396.54
585.14	30103.97
585.30	30431.65
585.46	30576.76
585.62	30331.00
585.78	30668.04
585.94	30590.80
586.10	30202.27
586.26	30529.95
586.42	30923.16
586.58	30836.56
586.74	30726.55
586.90	30689.10
587.06	30565.06
587.22	30944.22
587.38	30476.12
587.54	30635.27
587.70	30696.13
587.86	30670.38
588.02	30576.76
588.18	30852.94
588.34	30771.02
588.49	30993.37
588.65	30302.92
588.81	30808.47
588.97	30789.75
589.13	30679.74
589.29	30522.93
589.45	30808.47
589.61	30864.64
589.77	30817.83
589.93	31229.77
590.08	30637.61
590.24	30878.69
590.40	30822.51
590.56	30986.35
590.72	30775.70
590.88	30597.82
591.04	30824.86
591.20	31108.06
591.35	30824.86
591.51	31192.32
591.67	30960.61
591.83	31115.08
591.99	31075.29
592.15	31178.28
592.31	30930.18
592.46	30782.73
592.62	30539.31
592.78	30590.80
592.94	31019.12
593.10	30693.79
593.26	30857.62
593.41	31255.51
593.57	30745.28
593.73	31164.23
593.89	31222.75
594.05	30785.07
594.20	31182.96
594.36	30874.01
594.52	30551.01
594.68	30852.94
594.84	30806.13
594.99	31159.55
595.15	31087.00
595.31	30958.27
595.47	31323.39
595.62	31019.12
595.78	31201.68
595.94	30836.56
596.10	31370.20
596.25	31026.14
596.41	30583.78
596.57	30747.62
596.73	31019.12
596.88	30836.56
597.04	31143.17
597.20	31236.79
597.36	31124.44
597.51	31274.24
597.67	31349.14
597.83	30953.58
597.99	31044.87
598.14	31253.17
598.30	30843.58
598.46	30866.98
598.61	31358.50
598.77	30773.36
598.93	31257.85
599.09	30986.35
599.24	31637.02
599.40	31136.15
599.56	31323.39
599.71	31377.22
599.87	31180.62
600.03	31316.37
600.18	31033.16
600.34	30955.93
600.50	31117.42
600.65	30838.90
600.81	31690.85
600.97	31161.89
601.12	31283.60
601.28	31332.75
601.44	30953.58
601.59	31204.02
601.75	31222.75
601.91	31517.65
602.06	30953.58
602.22	31384.24
602.37	30946.56
602.53	30836.56
602.69	31405.31
602.84	31208.70
603.00	31206.36
603.16	31307.01
603.31	31173.60
603.47	31192.32
603.62	30955.93
603.78	31438.08
603.94	31192.32
604.09	31002.74
604.25	31105.72
604.40	31206.36
604.56	31480.21
604.71	31601.91
604.87	30745.28
605.03	31058.91
605.18	31536.38
605.34	31103.38
605.49	31063.59
605.65	31676.81
605.80	30728.89
605.96	30871.67
606.12	30955.93
606.27	31246.15
606.43	30859.96
606.58	31159.55
606.74	31133.81
606.89	30670.38
607.05	31168.91
607.20	31325.73
607.36	30792.09
607.51	31274.24
607.67	30731.23
607.82	30780.39
607.98	30782.73
608.13	31126.78
608.29	31129.12
608.44	30761.66
608.60	31175.94
608.75	30792.09
608.91	31393.61
609.06	31133.81
609.22	31079.97
609.37	30749.96
609.53	30703.15
609.68	30597.82
609.84	30593.14
609.99	30738.26
610.15	30419.94
610.30	30815.49
610.46	31063.59
610.61	30888.05
610.76	30972.31
610.92	31091.68
611.07	31342.11
611.23	30962.95
611.38	30747.62
611.54	30630.59
611.69	30288.87
611.84	30536.97
612.00	30621.23
612.15	30323.98
612.31	31164.23
612.46	30583.78
612.62	30771.02
612.77	30600.16
612.92	30651.66
613.08	30864.64
613.23	30944.22
613.39	30602.50
613.54	30448.03
613.69	30410.58
613.85	30466.75
614.00	30623.57
614.15	30621.23
614.31	30546.33
614.46	30520.59
614.62	30920.82
614.77	30852.94
614.92	30473.78
615.08	30387.18
615.23	30756.98
615.38	30438.67
615.54	30256.11
615.69	30466.75
615.84	30478.46
616.00	30022.05
616.15	30206.95
616.30	30707.83
616.46	30366.11
616.61	30263.13
616.76	30604.84
616.92	30213.98
617.07	30323.98
617.22	30043.12
617.37	30242.06
617.53	30110.99
617.68	30167.16
617.83	30431.65
617.99	30125.04
618.14	29766.93
618.29	30082.91
618.45	30295.89
618.60	30298.23
618.75	29839.49
618.90	30125.04
619.06	30342.70
619.21	30099.29
619.36	29933.11
619.51	29851.19
619.67	29734.17
619.82	29958.86
619.97	29832.47
620.12	29961.20
620.28	29890.98
620.43	30274.83
620.58	30033.75
620.73	29949.50
620.89	30253.76
621.04	29944.81
621.19	29984.60
621.34	30103.97
621.49	29624.16
621.65	29954.18
621.80	29699.06
621.95	29888.64
622.10	30033.75
622.25	29476.71
622.41	29844.17
622.56	30162.48
622.71	30047.80
622.86	29701.40
623.01	30045.46
623.16	29769.27
623.32	29450.96
623.47	29685.01
623.62	29734.17
623.77	29759.91
623.92	29301.17
624.07	29425.22
624.23	29785.66
624.38	29841.83
624.53	29696.72
624.68	30029.07
624.83	29846.51
624.98	29666.29
625.13	29537.56
625.29	29963.54
625.44	29804.38
625.59	29422.87
625.74	29317.55
625.89	29530.54
626.04	29200.52
626.19	29359.68
626.34	29343.30
626.49	29041.37
626.65	29680.33
626.80	29336.27
626.95	29338.62
627.10	29270.74
627.25	29289.46
627.40	28940.72
627.55	29481.39
627.70	28987.53
627.85	29184.14
628.00	28748.80
628.15	29113.92
628.30	29006.26
628.45	29036.69
628.60	29209.89
628.76	29127.97
628.91	29055.41
629.06	28828.38
629.21	29118.60
629.36	29184.14
629.51	28868.17
629.66	29310.53
629.81	29024.98
629.96	28774.55
630.11	28638.80
630.26	28655.18
630.41	28943.06
630.56	28603.69
630.71	29085.84
630.86	28566.24
631.01	28554.54
631.16	29039.03
631.31	28671.56
631.46	29085.84
631.61	28512.41
631.76	28676.24
631.91	28886.89
632.06	28486.66
632.21	28437.51
632.36	28961.79
632.51	28285.37
632.66	28456.23
632.81	28301.76
632.96	28659.86
633.10	28573.26
633.25	28762.84
633.40	28271.33
633.55	28503.04
633.70	28690.29
633.85	28226.86
634.00	28079.41
634.15	28669.22
634.30	28156.64
634.45	28341.55
634.60	28397.72
634.75	28606.03
634.90	27693.22
635.05	28854.12
635.19	28596.67
635.34	28411.76
635.49	28095.79
635.64	28531.13
635.79	28524.11
635.94	28318.14
636.09	28442.19
636.24	28243.24
636.39	27880.46
636.53	28304.10
636.68	28224.52
636.83	27920.25
636.98	27910.89
637.13	28435.17
637.28	27763.43
637.43	28123.88
637.57	28013.87
637.72	28034.94
637.87	28016.21
638.02	27812.59
638.17	27805.56
638.32	27707.26
638.46	27927.27
638.61	27793.86
638.76	27608.96
638.91	27845.35
639.06	27428.74
639.20	27463.85
639.35	28128.56
639.50	27529.38
639.65	28196.43
639.80	27737.69
639.94	28053.66
640.09	27828.97
640.24	27777.48
640.39	27569.17
640.54	27529.38
640.68	27775.14
640.83	28051.32
640.98	27192.34
641.13	27695.56
641.27	27817.27
641.42	27674.49
641.57	27587.89
641.72	27398.31
641.86	27716.62
642.01	27473.21
642.16	27250.86
642.31	27262.56
642.45	27197.02
642.60	27035.53
642.75	27466.19
642.90	27253.20
643.04	27695.56
643.19	26946.59
643.34	27370.22
643.48	27271.92
643.63	27452.14
643.78	27300.01
643.93	27424.06
644.07	27318.73
644.22	27248.52
644.37	27314.05
644.51	27344.48
644.66	27433.42
644.81	26948.93
644.95	27211.07
645.10	26995.74
645.25	27136.17
645.39	27211.07
645.54	27227.45
645.69	26874.03
645.83	27307.03
645.98	27211.07
646.13	26897.44
646.27	27124.47
646.42	26941.91
646.57	26962.97
646.71	27087.02
646.86	27405.33
647.00	26988.72
647.15	26792.11
647.30	26909.14
647.44	26721.90
647.59	26644.66
647.74	26841.26
647.88	26808.50
648.03	26906.80
648.17	27110.43
648.32	26888.07
648.47	27016.80
648.61	26721.90
648.76	27051.91
648.90	27016.80
649.05	26572.10
649.20	26267.83
649.34	26448.05
649.49	26309.96
649.63	26057.18
649.78	26609.55
649.92	26403.58
650.07	26471.46
650.21	26693.81
650.36	26775.73
650.51	26534.65
650.65	26565.08
650.80	26349.75
650.94	26553.38
651.09	26506.57
651.23	26328.69
651.38	26445.71
651.52	26717.22
651.67	26562.74
651.81	26260.81
651.96	26490.18
652.10	26471.46
652.25	26450.39
652.39	26476.14
652.54	26546.36
652.68	26806.16
652.83	26288.90
652.97	26527.63
653.12	26419.97
653.26	26459.76
653.41	26040.80
653.55	26263.15
653.70	26036.12
653.84	26122.72
653.99	26103.99
654.13	25958.88
654.27	25855.90
654.42	26141.44
654.56	25968.24
654.71	25886.32
654.85	26118.04
655.00	26328.69
655.14	26305.28
655.29	26185.91
655.43	26169.53
655.57	26176.55
655.72	26033.78
655.86	26125.06
656.01	26251.45
656.15	25834.83
656.30	25612.48
656.44	25935.48
656.58	25741.21
656.73	25750.57
656.87	26057.18
657.01	25450.99
657.16	25734.19
657.30	25649.93
657.45	25954.20
657.59	25951.86
657.73	25539.93
657.88	25282.47
658.02	25460.35
658.16	25612.48
658.31	25266.08
658.45	25465.03
658.60	25207.57
658.74	25446.30
658.88	25373.75
659.03	25373.75
659.17	25525.88
659.31	25488.43
659.46	25450.99
659.60	25446.30
659.74	25460.35
659.89	25151.40
660.03	25511.84
660.17	25099.90
660.32	25048.41
660.46	25034.37
660.60	25181.82
660.74	25069.48
660.89	24812.02
661.03	24531.15
661.17	25242.68
661.32	24971.18
661.46	24851.81
661.60	24987.56
661.74	24790.95
661.89	25160.76
662.03	24833.08
662.17	24774.57
662.31	24636.48
662.46	25069.48
662.60	25027.35
662.74	24629.46
662.88	24460.94
663.03	24786.27
663.17	24304.12
663.31	24173.05
663.45	24758.19
663.60	24285.40
663.74	24514.77
663.88	24711.38
664.02	24205.82
664.17	24821.38
664.31	24491.37
664.45	24212.84
664.59	24077.09
664.73	24676.27
664.88	24093.47
665.02	24004.53
665.16	24009.22
665.30	24114.54
665.44	24224.54
665.59	23761.12
665.73	23838.36
665.87	23501.32
666.01	24107.52
666.15	23948.36
666.29	24044.32
666.44	23814.95
666.58	23768.14
666.72	23864.10
666.86	23789.20
667.00	23974.11
667.14	23454.51
667.28	24004.53
667.43	23644.09
667.57	23466.21
667.71	23278.97
667.85	23618.35
667.99	23321.10
668.13	23449.83
668.27	23201.73
668.41	23648.77
668.56	23297.69
668.70	23295.35
668.84	23658.14
668.98	23393.65
669.12	23243.86
669.26	23012.15
669.40	23269.61
669.54	22981.72
669.68	23073.00
669.82	22892.78
669.96	22972.36
670.10	23267.27
670.25	23037.89
670.39	22913.84
670.53	23080.02
670.67	22649.36
670.81	22955.97
670.95	22883.42
671.09	22778.09
671.23	22733.62
671.37	22852.99
671.51	22611.92
671.65	22522.98
671.79	22689.15
671.93	22658.73
672.07	22256.15
672.21	22405.95
672.35	22080.61
672.49	22157.85
672.63	22223.39
672.77	22389.56
672.91	22050.19
673.05	22097.00
673.19	22157.85
673.33	22066.57
673.47	21790.39
673.61	22143.81
673.75	22171.89
673.89	22061.89
674.03	21614.85
674.17	22139.13
674.31	22029.12
674.45	21596.12
674.59	21645.27
674.73	21855.92
674.87	21621.87
675.01	21469.73
675.15	21184.19
675.29	21198.23
675.43	21415.90
675.56	21804.43
675.70	21661.66
675.84	21032.05
675.98	20809.70
676.12	21425.26
676.26	21394.84
676.40	21151.42
676.54	21240.36
676.68	21280.15
676.82	20648.21
676.96	20994.61
677.10	21022.69
677.23	21015.67
677.37	20418.83
677.51	20470.33
677.65	20482.03
677.79	20386.07
677.93	20271.38
678.07	20222.23
678.21	20002.22
678.34	20273.72
678.48	20194.14
678.62	20348.62
678.76	20121.59
678.90	20016.26
679.04	20166.06
679.18	19950.73
679.31	19770.51
679.45	19988.18
679.59	19866.47
679.73	19740.08
679.87	19515.39
680.00	19414.74
680.14	19454.53
680.28	19370.27
680.42	19566.88
680.56	19372.61
680.70	19459.21
680.83	19278.99
680.97	19463.90
681.11	19204.10
681.25	19143.24
681.39	18920.89
681.52	19171.33
681.66	19115.16
681.80	19157.28
681.94	19007.49
682.07	18869.40
682.21	18728.97
682.35	18808.54
682.49	18469.17
682.62	18368.52
682.76	18405.97
682.90	18541.72
683.04	18310.01
683.17	18401.29
683.31	18553.43
683.45	18431.72
683.59	18368.52
683.72	18232.77
683.86	18235.11
684.00	18265.54
684.13	17884.03
684.27	18155.54
684.41	18223.41
684.55	17984.68
684.68	17568.06
684.82	17734.24
684.96	17334.01
685.09	17532.95
685.23	17465.08
685.37	17373.80
685.50	17525.93
685.64	17516.57
685.78	17605.51
685.91	17610.19
686.05	17509.55
686.19	17273.15
686.32	17359.75
686.46	17043.78
686.60	17018.04
686.73	17013.35
686.87	16905.69
687.01	16966.54
687.14	16758.24
687.28	16484.39
687.42	16664.61
687.55	16470.35
687.69	16615.46
687.82	16725.47
687.96	16453.97
688.10	16367.37
688.23	16655.25
688.37	16526.52
688.50	16343.96
688.64	16065.44
688.78	16388.43
688.91	16065.44
689.05	16177.78
689.18	16147.36
689.32	15550.52
689.46	15819.68
689.59	16037.35
689.73	15803.30
689.86	15815.00
690.00	15634.78
690.13	15728.40
690.27	15686.27
690.41	15569.24
690.54	15632.44
690.68	15159.65
690.81	15426.47
690.95	15393.70
691.08	15391.36
691.22	15250.93
691.35	15211.14
691.49	15344.55
691.62	14979.43
691.76	14970.07
691.89	15009.86
692.03	14946.66
692.16	14621.33
692.30	14855.38
692.43	14679.84
692.57	14499.62
692.70	14663.46
692.84	14635.37
692.97	14462.17
693.11	14511.32
693.24	14164.92
693.38	14494.94
693.51	14249.18
693.65	14225.78
693.78	13921.51
693.92	14253.86
694.05	13996.40
694.19	14185.99
694.32	13895.76
694.45	13949.59
694.59	13727.24
694.72	13806.82
694.86	13481.49
694.99	13804.48
695.13	13497.87
695.26	13406.59
695.39	13254.45
695.53	13554.04
695.66	13282.54
695.80	13495.53
695.93	13458.08
696.07	13532.98
696.20	13483.83
696.33	13107.00
696.47	13130.41
696.60	13109.34
696.73	13139.77
696.87	13013.38
697.00	13083.59
697.14	12929.12
697.27	12528.89
697.40	12456.33
697.54	12482.08
697.67	12336.96
697.80	12659.96
697.94	12430.59
698.07	12332.28
698.21	12355.69
698.34	12571.02
698.47	12451.65
698.61	12233.98
698.74	12290.15
698.87	12475.06
699.01	12184.83
699.14	11988.22
699.27	12032.69
699.40	12011.63
699.54	11854.81
699.67	11854.81
699.80	11894.60
699.94	12009.29
700.07	12004.61
700.20	11428.84
700.34	11501.39
700.47	11632.46
700.60	11751.83
700.73	11737.79
700.87	11377.34
701.00	11325.85
701.13	11543.52
701.26	11513.10
701.40	11389.05
701.53	11206.48
701.66	11447.56
701.79	11311.81
701.93	11105.84
702.06	11007.54
702.19	10960.73
702.32	11199.46
702.46	10787.53
702.59	10712.63
702.72	10726.68
702.85	10839.02
702.99	10787.53
703.12	10710.29
703.25	10499.64
703.38	10494.96
703.51	10691.57
703.65	10406.02
703.78	10406.02
703.91	10209.42
704.04	10431.77
704.17	10532.41
704.31	10382.62
704.44	10319.42
704.57	10251.55
704.70	10157.92
704.83	10094.73
704.96	10157.92
705.10	9738.97
705.23	9769.40
>>>>>End Processed Spectral Data<<<<<
