SpectraSuite Data File
++++++++++++++++++++++++++++++++++++
Date: Fri Oct 18 13:58:10 GMT-05:00 2013
User: bianchi
Dark Spectrum Present: No
Reference Spectrum Present: No
Number of Sampled Component Spectra: 1
Spectrometers: USB2+H05261
Integration Time (usec): 50000 (USB2+H05261)
Spectra Averaged: 1 (USB2+H05261)
Boxcar Smoothing: 0 (USB2+H05261)
Correct for Electrical Dark: No (USB2+H05261)
Strobe/Lamp Enabled: No (USB2+H05261)
Correct for Detector Non-linearity: No (USB2+H05261)
Correct for Stray Light: No (USB2+H05261)
Number of Pixels in Processed Spectrum: 2048
>>>>>Begin Processed Spectral Data<<<<<
365.73	0.00
365.92	0.00
366.12	0.00
366.32	0.00
366.52	0.00
366.72	0.00
366.91	0.00
367.11	0.00
367.31	0.00
367.51	0.00
367.70	0.00
367.90	0.00
368.10	0.00
368.30	0.00
368.49	0.00
368.69	0.00
368.89	0.00
369.09	0.00
369.28	0.00
369.48	0.00
369.68	0.00
369.87	0.00
370.07	0.00
370.27	0.00
370.47	28.09
370.66	65.54
370.86	107.66
371.06	131.07
371.25	159.16
371.45	126.39
371.65	196.60
371.84	114.69
372.04	119.37
372.24	170.86
372.44	231.71
372.63	194.26
372.83	252.78
373.03	154.48
373.22	241.08
373.42	212.99
373.62	250.44
373.81	212.99
374.01	236.39
374.21	205.97
374.40	299.59
374.60	252.78
374.79	238.73
374.99	257.46
375.19	205.97
375.38	304.27
375.58	313.63
375.78	315.97
375.97	227.03
376.17	266.82
376.37	133.41
376.56	273.84
376.76	203.63
376.95	285.55
377.15	255.12
377.35	318.31
377.54	332.36
377.74	285.55
377.93	292.57
378.13	299.59
378.33	266.82
378.52	252.78
378.72	283.20
378.91	259.80
379.11	346.40
379.31	241.08
379.50	287.89
379.70	325.33
379.89	210.65
380.09	252.78
380.28	421.30
380.48	344.06
380.68	348.74
380.87	280.86
381.07	306.61
381.26	269.16
381.46	301.93
381.65	386.19
381.85	322.99
382.04	311.29
382.24	278.52
382.43	299.59
382.63	344.06
382.83	348.74
383.02	472.79
383.22	334.70
383.41	404.91
383.61	397.89
383.80	369.80
384.00	367.46
384.19	346.40
384.39	322.99
384.58	346.40
384.78	400.23
384.97	397.89
385.17	369.80
385.36	313.63
385.56	407.25
385.75	348.74
385.95	430.66
386.14	381.51
386.34	358.10
386.53	447.04
386.72	390.87
386.92	449.38
387.11	475.13
387.31	503.22
387.50	440.02
387.70	461.09
387.89	360.44
388.09	369.80
388.28	531.30
388.48	416.62
388.67	463.43
388.86	554.71
389.06	475.13
389.25	395.55
389.45	547.69
389.64	458.74
389.84	435.34
390.03	416.62
390.22	472.79
390.42	430.66
390.61	425.98
390.81	533.64
391.00	507.90
391.19	578.11
391.39	519.60
391.58	514.92
391.78	435.34
391.97	510.24
392.16	514.92
392.36	573.43
392.55	610.88
392.75	524.28
392.94	510.24
393.13	482.15
393.33	535.98
393.52	603.86
393.71	580.45
393.91	610.88
394.10	615.56
394.29	533.64
394.49	573.43
394.68	613.22
394.88	657.69
395.07	704.50
395.26	622.58
395.46	664.71
395.65	667.05
395.84	631.94
396.04	660.03
396.23	641.31
396.42	690.46
396.62	657.69
396.81	706.84
397.00	648.33
397.19	711.52
397.39	650.67
397.58	727.91
397.77	748.97
397.97	739.61
398.16	711.52
398.35	734.93
398.55	683.44
398.74	699.82
398.93	809.83
399.12	664.71
399.32	678.76
399.51	695.14
399.70	770.04
399.90	828.55
400.09	781.74
400.28	774.72
400.47	793.44
400.67	739.61
400.86	786.42
401.05	791.10
401.24	809.83
401.44	809.83
401.63	840.25
401.82	767.70
402.01	826.21
402.21	788.76
402.40	854.30
402.59	854.30
402.78	873.02
402.97	842.59
403.17	905.79
403.36	844.93
403.55	851.96
403.74	950.26
403.93	936.21
404.13	931.53
404.32	875.36
404.51	912.81
404.70	922.17
404.89	833.23
405.09	959.62
405.28	1015.79
405.47	875.36
405.66	976.00
405.85	997.07
406.05	966.64
406.24	1071.97
406.43	1006.43
406.62	1062.60
406.81	1053.24
407.00	1057.92
407.20	1086.01
407.39	1109.41
407.58	1102.39
407.77	1048.56
407.96	1142.18
408.15	1081.33
408.34	1086.01
408.54	1142.18
408.73	1146.86
408.92	1249.85
409.11	1247.51
409.30	1158.57
409.49	1114.10
409.68	1273.25
409.87	1146.86
410.07	1306.02
410.26	1181.97
410.45	1263.89
410.64	1158.57
410.83	1247.51
411.02	1252.19
411.21	1277.93
411.40	1289.64
411.59	1303.68
411.78	1249.85
411.98	1196.01
412.17	1233.46
412.36	1280.27
412.55	1266.23
412.74	1411.34
412.93	1399.64
413.12	1331.76
413.31	1413.68
413.50	1385.60
413.69	1509.65
413.88	1390.28
414.07	1423.05
414.26	1472.20
414.45	1460.49
414.64	1451.13
414.83	1542.41
415.02	1481.56
415.22	1511.99
415.41	1614.97
415.60	1554.12
415.79	1598.59
415.98	1666.46
416.17	1650.08
416.36	1668.80
416.55	1636.03
416.74	1682.85
416.93	1703.91
417.12	1647.74
417.31	1774.13
417.50	1781.15
417.69	1811.57
417.88	1778.81
418.07	1727.32
418.26	1692.21
418.45	1778.81
418.64	1865.41
418.83	1788.17
419.02	1820.94
419.21	1746.04
419.39	1877.11
419.58	1884.13
419.77	1874.77
419.96	1877.11
420.15	1947.33
420.34	1849.02
420.53	1961.37
420.72	2008.18
420.91	1966.05
421.10	1998.82
421.29	2015.20
421.48	1893.49
421.67	2040.95
421.86	1905.20
422.05	2050.31
422.24	1930.94
422.43	2057.33
422.61	1980.09
422.80	2097.12
422.99	2062.01
423.18	2017.54
423.37	2118.18
423.56	2099.46
423.75	2047.97
423.94	2017.54
424.13	1912.22
424.32	1984.77
424.50	2090.10
424.69	2104.14
424.88	2174.36
425.07	1998.82
425.26	2057.33
425.45	2111.16
425.64	2008.18
425.83	2188.40
426.01	2127.55
426.20	2101.80
426.39	2038.61
426.58	2076.06
426.77	2139.25
426.96	2139.25
427.15	2153.29
427.33	2165.00
427.52	2022.22
427.71	2218.83
427.90	2160.31
428.09	2239.89
428.28	2232.87
428.46	2225.85
428.65	2265.64
428.84	2368.62
429.03	2237.55
429.22	2216.49
429.40	2256.28
429.59	2361.60
429.78	2284.36
429.97	2111.16
430.16	2197.76
430.34	2314.79
430.53	2431.82
430.72	2221.17
430.91	2272.66
431.10	2370.96
431.28	2408.41
431.47	2385.01
431.66	2469.27
431.85	2385.01
432.03	2476.29
432.22	2560.55
432.41	2427.14
432.60	2457.56
432.79	2476.29
432.97	2572.25
433.16	2614.38
433.35	2471.61
433.54	2593.31
433.72	2459.90
433.91	2527.78
434.10	2682.25
434.28	2492.67
434.47	2541.82
434.66	2530.12
434.85	2682.25
435.03	2689.28
435.22	2541.82
435.41	2754.81
435.59	2665.87
435.78	2663.53
435.97	2820.35
436.16	2693.96
436.34	2752.47
436.53	2602.68
436.72	2773.53
436.90	2775.88
437.09	2693.96
437.28	2738.43
437.46	2757.15
437.65	2796.94
437.84	2953.76
438.02	2895.24
438.21	2867.16
438.40	2836.73
438.58	2796.94
438.77	2979.50
438.96	2916.31
439.14	2932.69
439.33	2972.48
439.52	2988.86
439.70	3084.83
439.89	3063.76
440.08	3040.36
440.26	3005.25
440.45	3126.96
440.63	3110.57
440.82	3084.83
441.01	3129.30
441.19	3171.43
441.38	3353.99
441.57	3211.22
441.75	3323.56
441.94	3267.39
442.12	3262.71
442.31	3405.48
442.50	3274.41
442.68	3304.84
442.87	3403.14
443.05	3529.53
443.24	3370.37
443.43	3393.78
443.61	3454.63
443.80	3543.57
443.98	3382.07
444.17	3267.39
444.35	3442.93
444.54	3501.44
444.73	3611.45
444.91	3421.86
445.10	3548.25
445.28	3475.70
445.47	3578.68
445.65	3522.51
445.84	3552.93
446.02	3637.19
446.21	3393.78
446.39	3485.06
446.58	3606.77
446.77	3590.38
446.95	3461.65
447.14	3487.40
447.32	3623.15
447.51	3576.34
447.69	3562.30
447.88	3531.87
448.06	3595.06
448.25	3588.04
448.43	3545.91
448.62	3578.68
448.80	3595.06
448.99	3585.70
449.17	3667.62
449.36	3665.28
449.54	3794.01
449.73	3908.69
449.91	3714.43
450.10	3777.62
450.28	3782.31
450.46	3925.08
450.65	3826.78
450.83	3794.01
451.02	3808.05
451.20	3887.63
451.39	3885.29
451.57	3925.08
451.76	3754.22
451.94	3871.25
452.13	3950.82
452.31	3861.88
452.49	3960.19
452.68	3995.29
452.86	4016.36
453.05	4002.32
453.23	4053.81
453.42	3985.93
453.60	3913.38
453.78	4049.13
453.97	4009.34
454.15	3985.93
454.34	4030.40
454.52	4227.01
454.70	4149.77
454.89	4011.68
455.07	4088.92
455.26	4142.75
455.44	4175.52
455.62	4149.77
455.81	4147.43
455.99	4081.89
456.17	4161.47
456.36	4161.47
456.54	4346.37
456.73	4217.65
456.91	4369.78
457.09	4512.55
457.28	4540.64
457.46	4440.00
457.64	4519.57
457.83	4409.57
458.01	4456.38
458.19	4603.83
458.38	4428.29
458.56	4425.95
458.74	4402.55
458.93	4503.19
459.11	4339.35
459.29	4470.42
459.48	4484.47
459.66	4578.09
459.84	4561.70
460.03	4521.92
460.21	4681.07
460.39	4631.92
460.57	4702.14
460.76	4578.09
460.94	4821.50
461.12	4678.73
461.31	4702.14
461.49	4791.08
461.67	4786.40
461.85	4760.65
462.04	4788.74
462.22	4945.55
462.40	4973.64
462.59	4856.61
462.77	4748.95
462.95	4854.27
463.13	4755.97
463.32	4851.93
463.50	4980.66
463.68	4919.81
463.86	4840.23
464.05	4744.27
464.23	4947.89
464.41	4975.98
464.59	4851.93
464.78	5090.67
464.96	4999.38
465.14	5032.15
465.32	5167.90
465.50	5158.54
465.69	5083.64
465.87	5057.90
466.05	4961.94
466.23	5170.24
466.41	5341.10
466.60	5254.50
466.78	5081.30
466.96	5184.29
467.14	5050.88
467.32	5165.56
467.51	5252.16
467.69	5076.62
467.87	5177.26
468.05	5313.02
468.23	5104.71
468.41	5062.58
468.60	5156.20
468.78	5483.88
468.96	5263.86
469.14	5376.21
469.32	5338.76
469.50	5217.05
469.69	5427.70
469.87	5486.22
470.05	5490.90
470.23	5617.29
470.41	5537.71
470.59	5565.79
470.77	5357.49
470.95	5738.99
471.14	5666.44
471.32	5715.59
471.50	5849.00
471.68	5736.65
471.86	5713.25
472.04	5746.02
472.22	6076.03
472.40	5626.65
472.58	5874.74
472.77	5741.33
472.95	5907.51
473.13	6164.97
473.31	5942.62
473.49	6031.56
473.67	6003.47
473.85	6118.16
474.03	6228.17
474.21	6195.40
474.39	6218.80
474.57	6244.55
474.75	6384.98
474.93	6263.27
475.12	6286.68
475.30	6366.26
475.48	6312.42
475.66	6455.20
475.84	6399.02
476.02	6490.31
476.20	6363.92
476.38	6462.22
476.56	6581.59
476.74	6616.69
476.92	6780.53
477.10	6494.99
477.28	6825.00
477.46	6820.32
477.64	6834.36
477.82	6923.30
478.00	7108.21
478.18	7080.12
478.36	7112.89
478.54	7246.30
478.72	7110.55
478.90	7248.64
479.08	7279.07
479.26	7391.41
479.44	7513.12
479.62	7445.24
479.80	7489.71
479.98	7793.98
480.16	7889.95
480.34	7517.80
480.52	7831.43
480.70	7850.16
480.88	7726.11
481.06	7606.74
481.24	7920.37
481.41	8011.65
481.59	8243.37
481.77	8161.45
481.95	8252.73
482.13	8194.22
482.31	8369.76
482.49	8505.51
482.67	8304.22
482.85	8667.00
483.03	8669.34
483.21	8830.84
483.39	8884.67
483.57	8910.42
483.74	8973.61
483.92	8896.38
484.10	8725.52
484.28	9128.09
484.46	9252.14
484.64	9188.94
484.82	9067.24
485.00	9380.87
485.18	9366.82
485.35	9544.70
485.53	9607.90
485.71	9549.39
485.89	9694.50
486.07	9694.50
486.25	9966.00
486.43	9888.76
486.61	10122.82
486.78	10017.49
486.96	10195.37
487.14	10246.87
487.32	10169.63
487.50	10375.59
487.68	10480.92
487.85	10602.63
488.03	10661.14
488.21	10853.06
488.39	10775.83
488.57	10820.30
488.75	11009.88
488.92	11021.58
489.10	11110.52
489.28	11300.11
489.46	11494.37
489.64	11246.27
489.81	11564.59
489.99	11304.79
490.17	11555.22
490.35	11733.11
490.53	11749.49
490.70	11688.64
490.88	11740.13
491.06	12332.28
491.24	11992.90
491.41	12060.78
491.59	12177.81
491.77	12367.39
491.95	12571.02
492.13	12549.95
492.30	12549.95
492.48	12603.78
492.66	12706.77
492.84	12458.67
493.01	12643.57
493.19	12805.07
493.37	12758.26
493.54	13027.42
493.72	12980.61
493.90	13163.17
494.08	13334.03
494.25	13317.65
494.43	13397.23
494.61	13734.26
494.79	13570.43
494.96	13664.05
495.14	13572.77
495.32	13888.74
495.49	13647.66
495.67	13781.07
495.85	14085.34
496.02	14061.94
496.20	13973.00
496.38	14321.74
496.55	14333.44
496.73	14754.74
496.91	14445.79
497.09	14551.11
497.26	14827.29
497.44	14597.92
497.62	14532.39
497.79	14738.35
497.97	14731.33
498.14	14897.51
498.32	15154.97
498.50	15005.17
498.67	15159.65
498.85	14934.96
499.03	15363.28
499.20	15510.73
499.38	15482.64
499.56	15180.71
499.73	15414.77
499.91	15550.52
500.08	16035.01
500.26	15707.34
500.44	15894.58
500.61	16027.99
500.79	15597.33
500.97	15990.54
501.14	16271.40
501.32	15953.09
501.49	15878.19
501.67	16123.95
501.84	16297.15
502.02	16205.87
502.20	16699.72
502.37	16498.44
502.55	16458.65
502.72	16369.71
502.90	16807.39
503.07	16428.22
503.25	16774.62
503.43	16683.34
503.60	17027.40
503.78	16973.56
503.95	17099.95
504.13	16826.11
504.30	16992.29
504.48	17062.51
504.65	17085.91
504.83	17188.89
505.01	17224.00
505.18	17441.67
505.36	17446.35
505.53	17270.81
505.71	17518.91
505.88	17914.46
506.06	17635.94
506.23	17561.04
506.41	17657.00
506.58	17902.76
506.76	17916.80
506.93	17783.39
507.11	17642.96
507.28	17909.78
507.46	17914.46
507.63	18104.04
507.81	18291.29
507.98	18340.44
508.16	18354.48
508.33	18324.05
508.50	18436.40
508.68	18441.08
508.85	18387.25
509.03	18457.46
509.20	18707.90
509.38	18600.24
509.55	18651.73
509.73	18590.88
509.90	18937.27
510.08	18728.97
510.25	18544.06
510.42	18902.17
510.60	18761.73
510.77	19227.50
510.95	19255.59
511.12	18834.29
511.30	18925.57
511.47	19080.05
511.64	19637.09
511.82	19611.35
511.99	19576.24
512.17	19538.79
512.34	19559.86
512.51	19695.61
512.69	19536.45
512.86	19482.62
513.04	20051.37
513.21	19737.74
513.38	19761.14
513.56	19934.34
513.73	19662.84
513.90	20409.47
514.08	19756.46
514.25	20219.89
514.43	20451.60
514.60	20140.31
514.77	20154.35
514.95	20606.08
515.12	20360.32
515.29	20416.49
515.47	20187.12
515.64	20269.04
515.81	20425.86
515.99	20629.48
516.16	20641.18
516.33	20940.77
516.51	20856.51
516.68	20774.60
516.85	20758.21
517.03	20725.44
517.20	20996.95
517.37	20999.29
517.54	21291.85
517.72	21050.78
517.89	20891.62
518.06	21153.76
518.24	21132.70
518.41	21191.21
518.58	21455.69
518.75	21198.23
518.93	21472.07
519.10	21422.92
519.27	21369.09
519.45	21411.22
519.62	21762.30
519.79	21521.23
519.96	21603.14
520.14	21481.44
520.31	21635.91
520.48	21729.53
520.65	22008.06
520.83	21724.85
521.00	21682.72
521.17	22045.51
521.34	22120.40
521.52	21898.05
521.69	22094.66
521.86	22422.33
522.03	22171.89
522.20	22347.44
522.38	22279.56
522.55	22181.26
522.72	22270.20
522.89	22490.21
523.07	23091.73
523.24	22696.17
523.41	22600.21
523.58	22623.62
523.75	22890.44
523.92	22703.20
524.10	22408.29
524.27	22827.24
524.44	22874.06
524.61	23192.37
524.78	23131.51
524.96	23096.41
525.13	23101.09
525.30	23138.54
525.47	23386.63
525.64	22934.91
525.81	22953.63
525.98	23096.41
526.16	23550.47
526.33	23489.62
526.50	23498.98
526.67	23300.03
526.84	23344.50
527.01	23367.91
527.18	23452.17
527.36	23768.14
527.53	23634.73
527.70	23784.52
527.87	23873.46
528.04	23929.64
528.21	23807.93
528.38	23730.69
528.55	23740.05
528.72	23810.27
528.89	23943.68
529.07	23854.74
529.24	24261.99
529.41	24226.89
529.58	24006.87
529.75	23828.99
529.92	24102.84
530.09	24105.18
530.26	24421.15
530.43	24196.46
530.60	24081.77
530.77	24486.68
530.94	24673.93
531.11	24493.71
531.28	24306.46
531.46	24229.23
531.63	24456.26
531.80	24601.37
531.97	24809.68
532.14	24872.87
532.31	24751.17
532.48	24318.17
532.65	24451.58
532.82	24606.05
532.99	24924.36
533.16	24781.59
533.33	25074.16
533.50	25397.15
533.67	25120.97
533.84	24730.10
534.01	24767.55
534.18	24659.88
534.35	24828.40
534.52	25001.60
534.69	25001.60
534.86	25303.53
535.03	25090.54
535.20	25118.63
535.37	25348.00
535.54	25268.42
535.71	24896.28
535.88	25556.31
536.05	25106.93
536.22	25790.36
536.38	25535.24
536.55	26036.12
536.72	25900.37
536.89	25390.13
537.06	25493.12
537.23	25631.21
537.40	25806.75
537.57	25839.51
537.74	25867.60
537.91	25560.99
538.08	25736.53
538.25	25862.92
538.42	26188.25
538.59	26132.08
538.75	25678.02
538.92	25781.00
539.09	25968.24
539.26	25937.82
539.43	26214.00
539.60	25949.52
539.77	26466.78
539.94	26572.10
540.11	26267.83
540.28	26260.81
540.44	25858.24
540.61	26120.38
540.78	26281.88
540.95	26099.31
541.12	26558.06
541.29	26541.68
541.46	26373.16
541.62	26319.32
541.79	26473.80
541.96	26073.57
542.13	26380.18
542.30	26300.60
542.47	26597.85
542.63	26904.46
542.80	26831.90
542.97	27112.77
543.14	26813.18
543.31	26988.72
543.48	26932.54
543.64	27204.05
543.81	27227.45
543.98	27087.02
544.15	27044.89
544.32	27105.74
544.48	26986.38
544.65	27023.83
544.82	27190.00
544.99	27147.87
545.16	27248.52
545.32	27122.13
545.49	27190.00
545.66	27452.14
545.83	27555.13
546.00	27634.71
546.16	27253.20
546.33	27220.43
546.50	27442.78
546.67	27309.37
546.83	27143.19
547.00	27220.43
547.17	27456.82
547.34	27473.21
547.50	27681.52
547.67	27974.08
547.84	27407.67
548.00	27812.59
548.17	28325.16
548.34	27997.49
548.51	28121.54
548.67	27927.27
548.84	28013.87
549.01	27522.36
549.18	28133.24
549.34	28346.23
549.51	28081.75
549.68	28023.23
549.84	27880.46
550.01	28589.64
550.18	28156.64
550.34	27910.89
550.51	28713.69
550.68	28053.66
550.84	28133.24
551.01	28273.67
551.18	28290.06
551.34	28011.53
551.51	28549.85
551.68	28149.62
551.84	28362.61
552.01	28807.31
552.18	28140.26
552.34	28320.48
552.51	28336.87
552.68	28105.15
552.84	28379.00
553.01	28545.17
553.18	28526.45
553.34	28739.44
553.51	28968.81
553.67	28945.41
553.84	28996.90
554.01	28662.20
554.17	29020.30
554.34	28617.73
554.51	28669.22
554.67	28947.75
554.84	29085.84
555.00	28755.82
555.17	28858.81
555.33	28748.80
555.50	28870.51
555.67	28690.29
555.83	28989.88
556.00	29158.39
556.16	29193.50
556.33	28999.24
556.50	28980.51
556.66	29530.54
556.83	29008.60
556.99	29233.29
557.16	29064.77
557.32	29418.19
557.49	29399.47
557.65	28776.89
557.82	28783.91
557.98	29024.98
558.15	29153.71
558.32	29523.52
558.48	29170.10
558.65	29441.60
558.81	29535.22
558.98	29097.54
559.14	29635.86
559.31	29294.14
559.47	29022.64
559.64	29406.49
559.80	29633.52
559.97	29467.34
560.13	29305.85
560.30	29582.03
560.46	29731.83
560.63	29820.77
560.79	29399.47
560.96	30019.71
561.12	29813.74
561.29	29708.42
561.45	29310.53
561.61	29521.18
561.78	29935.45
561.94	29563.31
562.11	29846.51
562.27	29584.37
562.44	29685.01
562.60	29647.57
562.77	30047.80
562.93	29708.42
563.10	29853.53
563.26	29640.54
563.42	30036.09
563.59	29825.45
563.75	29912.05
563.92	29916.73
564.08	29699.06
564.24	29907.37
564.41	29825.45
564.57	29668.63
564.74	29919.07
564.90	30047.80
565.07	29720.12
565.23	30045.46
565.39	29893.32
565.56	30082.91
565.72	29816.08
565.88	30127.38
566.05	29867.58
566.21	29582.03
566.38	29848.85
566.54	30064.18
566.70	30284.19
566.87	30476.12
567.03	30281.85
567.19	30441.01
567.36	30169.51
567.52	30150.78
567.68	29893.32
567.85	29979.92
568.01	30085.25
568.17	30080.56
568.34	30251.42
568.50	30274.83
568.66	30270.15
568.83	30146.10
568.99	30422.28
569.15	30068.86
569.32	30417.60
569.48	30176.53
569.64	30426.96
569.81	30092.27
569.97	30216.32
570.13	30221.00
570.30	30078.22
570.46	29977.58
570.62	29699.06
570.78	30029.07
570.95	29823.11
571.11	30478.46
571.27	30010.35
571.43	30401.22
571.60	30235.04
571.76	30298.23
571.92	30532.29
572.09	30260.79
572.25	30632.93
572.41	30473.78
572.57	30464.41
572.74	30520.59
572.90	30136.74
573.06	30359.09
573.22	30476.12
573.38	30293.55
573.55	30370.79
573.71	30705.49
573.87	30333.34
574.03	30405.90
574.20	30700.81
574.36	30209.29
574.52	30710.17
574.68	30087.59
574.84	30738.26
575.01	30534.63
575.17	30555.69
575.33	30382.49
575.49	30567.40
575.65	30600.16
575.82	30717.19
575.98	30607.19
576.14	30618.89
576.30	30525.27
576.46	30122.69
576.62	30415.26
576.79	30726.55
576.95	30181.21
577.11	30384.83
577.27	30623.57
577.43	30878.69
577.59	30588.46
577.75	30679.74
577.92	30213.98
578.08	30560.37
578.24	30541.65
578.40	30810.81
578.56	30756.98
578.72	30766.34
578.88	31356.16
579.04	30852.94
579.21	30604.84
579.37	30801.45
579.53	30323.98
579.69	30185.89
579.85	30555.69
580.01	30628.25
580.17	30204.61
580.33	30754.64
580.49	30630.59
580.65	30829.54
580.82	30855.28
580.98	30827.20
581.14	30398.88
581.30	30693.79
581.46	30609.53
581.62	30473.78
581.78	30087.59
581.94	30838.90
582.10	30604.84
582.26	30558.03
582.42	30586.12
582.58	30904.43
582.74	30740.60
582.90	30649.32
583.06	30988.69
583.22	30686.76
583.38	30644.63
583.54	30752.30
583.70	30799.11
583.86	31218.07
584.02	30675.06
584.18	30597.82
584.34	31101.04
584.50	31072.95
584.66	30768.68
584.82	30738.26
584.98	30405.90
585.14	30806.13
585.30	30539.31
585.46	30799.11
585.62	30768.68
585.78	30899.75
585.94	30527.61
586.10	30806.13
586.26	31302.32
586.42	31166.57
586.58	31220.41
586.74	30939.54
586.90	30644.63
587.06	30642.29
587.22	30733.57
587.38	30569.74
587.54	30991.03
587.70	30864.64
587.86	30778.04
588.02	31337.43
588.18	31548.08
588.34	31037.84
588.49	30852.94
588.65	30703.15
588.81	30885.71
588.97	31030.82
589.13	30766.34
589.29	31012.10
589.45	31079.97
589.61	31103.38
589.77	30972.31
589.93	31112.74
590.08	31260.20
590.24	31363.18
590.40	31323.39
590.56	31119.76
590.72	30988.69
590.88	30881.03
591.04	31091.68
591.20	31452.12
591.35	31133.81
591.51	31480.21
591.67	31590.21
591.83	31271.90
591.99	31452.12
592.15	31194.66
592.31	31051.89
592.46	31292.96
592.62	30984.01
592.78	31187.64
592.94	31002.74
593.10	31519.99
593.26	31328.07
593.41	31545.74
593.57	31264.88
593.73	31159.55
593.89	31309.35
594.05	31424.03
594.20	30991.03
594.36	31136.15
594.52	31005.08
594.68	31161.89
594.84	31077.63
594.99	31510.63
595.15	30937.20
595.31	31704.90
595.47	31503.61
595.62	31225.09
595.78	31229.77
595.94	31541.06
596.10	31290.62
596.25	31140.83
596.41	31243.81
596.57	31557.44
596.73	31225.09
596.88	31108.06
597.04	31524.68
597.20	31400.63
597.36	31536.38
597.51	31449.78
597.67	31241.47
597.83	31267.22
597.99	31372.54
598.14	31159.55
598.30	31197.00
598.46	31213.38
598.61	31527.02
598.77	31138.49
598.93	31489.57
599.09	31550.42
599.24	31957.67
599.40	31225.09
599.56	31484.89
599.71	31299.98
599.87	31665.11
600.03	31138.49
600.18	31314.03
600.34	31030.82
600.50	31648.72
600.65	31330.41
600.81	31426.37
600.97	31611.28
601.12	31859.37
601.28	31405.31
601.44	31786.82
601.59	31709.58
601.75	31178.28
601.91	31847.67
602.06	31587.87
602.22	31339.77
602.37	31405.31
602.53	31718.94
602.69	31384.24
602.84	31496.59
603.00	31356.16
603.16	31676.81
603.31	31721.28
603.47	31585.53
603.62	31056.57
603.78	31641.70
603.94	31531.70
604.09	31454.46
604.25	31152.53
604.40	31096.36
604.56	31566.81
604.71	31700.22
604.87	31693.19
605.03	31742.35
605.18	31716.60
605.34	31323.39
605.49	31433.39
605.65	31426.37
605.80	31068.27
605.96	31505.95
606.12	31152.53
606.27	31578.51
606.43	31519.99
606.58	31087.00
606.74	31452.12
606.89	31136.15
607.05	31625.32
607.20	31611.28
607.36	31557.44
607.51	31730.64
607.67	31337.43
607.82	31395.95
607.98	31311.69
608.13	31587.87
608.29	30995.71
608.44	31505.95
608.60	31197.00
608.75	31136.15
608.91	31274.24
609.06	31257.85
609.22	31255.51
609.37	30766.34
609.53	31180.62
609.68	30995.71
609.84	31037.84
609.99	31051.89
610.15	30946.56
610.30	30899.75
610.46	30817.83
610.61	31108.06
610.76	31335.09
610.92	30906.77
611.07	31087.00
611.23	31096.36
611.38	31096.36
611.54	30843.58
611.69	31124.44
611.84	30756.98
612.00	30941.88
612.15	30787.41
612.31	31218.07
612.46	31051.89
612.62	31182.96
612.77	31061.25
612.92	31185.30
613.08	30995.71
613.23	31002.74
613.39	30630.59
613.54	30789.75
613.69	30904.43
613.85	30976.99
614.00	30995.71
614.15	31096.36
614.31	30955.93
614.46	30838.90
614.62	30511.22
614.77	30995.71
614.92	30827.20
615.08	30639.95
615.23	30778.04
615.38	30583.78
615.54	30459.73
615.69	30689.10
615.84	30646.97
616.00	30539.31
616.15	30745.28
616.30	30909.11
616.46	30773.36
616.61	30672.72
616.76	30747.62
616.92	30817.83
617.07	30742.94
617.22	30735.92
617.37	30637.61
617.53	30359.09
617.68	30527.61
617.83	30312.28
617.99	30307.60
618.14	30356.75
618.29	30675.06
618.45	30595.48
618.60	30466.75
618.75	30368.45
618.90	30724.21
619.06	30810.81
619.21	30305.26
619.36	30644.63
619.51	30300.58
619.67	29855.87
619.82	30307.60
619.97	30270.15
620.12	30010.35
620.28	30094.61
620.43	30419.94
620.58	30349.73
620.73	30216.32
620.89	30756.98
621.04	30565.06
621.19	30387.18
621.34	30012.69
621.49	29755.23
621.65	30195.25
621.80	30281.85
621.95	29984.60
622.10	30251.42
622.25	30061.84
622.41	29993.97
622.56	30113.33
622.71	30356.75
622.86	30401.22
623.01	29869.92
623.16	30031.41
623.32	29670.97
623.47	29872.26
623.62	29584.37
623.77	29947.15
623.92	30129.72
624.07	29752.89
624.23	29830.13
624.38	30115.67
624.53	29502.45
624.68	30185.89
624.83	29970.56
624.98	29848.85
625.13	29727.14
625.29	29942.47
625.44	29855.87
625.59	29539.90
625.74	29385.43
625.89	29598.41
626.04	29617.14
626.19	29362.02
626.34	29692.04
626.49	29282.44
626.65	29729.48
626.80	29612.46
626.95	29366.70
627.10	29429.90
627.25	29352.66
627.40	29432.24
627.55	29502.45
627.70	29434.58
627.85	29116.26
628.00	28863.49
628.15	29291.80
628.30	29083.50
628.45	29247.33
628.60	29113.92
628.76	29443.94
628.91	29418.19
629.06	29244.99
629.21	29755.23
629.36	29163.08
629.51	29109.24
629.66	29165.42
629.81	29390.11
629.96	29333.93
630.11	29006.26
630.26	28931.36
630.41	29048.39
630.56	28685.61
630.71	29179.46
630.86	29149.03
631.01	29053.07
631.16	29638.20
631.31	29125.63
631.46	28725.39
631.61	28790.93
631.76	28762.84
631.91	28811.99
632.06	28671.56
632.21	28896.25
632.36	28690.29
632.51	28613.05
632.66	28531.13
632.81	28685.61
632.96	28819.02
633.10	29034.35
633.25	28662.20
633.40	28952.43
633.55	28840.08
633.70	28629.43
633.85	28407.08
634.00	28477.30
634.15	28872.85
634.30	28772.21
634.45	28519.43
634.60	28807.31
634.75	28828.38
634.90	28638.80
635.05	28856.46
635.19	28741.78
635.34	28584.96
635.49	28510.07
635.64	28599.01
635.79	28819.02
635.94	28479.64
636.09	28484.32
636.24	28311.12
636.39	28063.02
636.53	28266.65
636.68	28034.94
636.83	28444.53
636.98	28664.54
637.13	28250.27
637.28	28680.92
637.43	28617.73
637.57	28231.54
637.72	28301.76
637.87	28226.86
638.02	28379.00
638.17	28301.76
638.32	28009.19
638.46	28048.98
638.61	27573.85
638.76	28231.54
638.91	27999.83
639.06	27964.72
639.20	28278.35
639.35	28339.21
639.50	27800.88
639.65	28107.49
639.80	27997.49
639.94	28102.81
640.09	28112.17
640.24	28362.61
640.39	27866.42
640.54	27854.72
640.68	27690.88
640.83	28259.63
640.98	27981.10
641.13	27819.61
641.27	27758.75
641.42	27903.87
641.57	28130.90
641.72	27971.74
641.86	27498.95
642.01	27534.06
642.16	27840.67
642.31	27410.01
642.45	27349.16
642.60	27346.82
642.75	27498.95
642.90	27594.92
643.04	27606.62
643.19	27449.80
643.34	27779.82
643.48	27278.94
643.63	27606.62
643.78	27875.78
643.93	27828.97
644.07	27531.72
644.22	27634.71
644.37	27316.39
644.51	27197.02
644.66	27438.10
644.81	27438.10
644.95	27360.86
645.10	27529.38
645.25	27611.30
645.39	27538.74
645.54	26995.74
645.69	27548.11
645.83	27166.60
645.98	26962.97
646.13	27321.07
646.27	27321.07
646.42	27395.97
646.57	27304.69
646.71	27257.88
646.86	27002.76
647.00	27187.66
647.15	26911.48
647.30	27321.07
647.44	26984.04
647.59	26845.94
647.74	26810.84
647.88	27026.17
648.03	26892.76
648.17	27044.89
648.32	26972.33
648.47	27178.30
648.61	27009.78
648.76	27145.53
648.90	27302.35
649.05	27028.51
649.20	27157.24
649.34	26768.71
649.49	26579.12
649.63	26934.88
649.78	26654.02
649.92	26817.86
650.07	26916.16
650.21	26768.71
650.36	27016.80
650.51	26883.39
650.65	26930.20
650.80	26644.66
650.94	26792.11
651.09	26473.80
651.23	26230.38
651.38	26595.51
651.52	26373.16
651.67	26644.66
651.81	26625.93
651.96	26480.82
652.10	26560.40
652.25	26902.12
652.39	26630.62
652.54	26625.93
652.68	26813.18
652.83	26473.80
652.97	27009.78
653.12	26658.70
653.26	26345.07
653.41	26478.48
653.55	26459.76
653.70	26398.90
653.84	26462.10
653.99	26497.20
654.13	26518.27
654.27	26349.75
654.42	26345.07
654.56	26008.03
654.71	26614.23
654.85	26452.73
655.00	26684.45
655.14	26342.73
655.29	25862.92
655.43	26302.94
655.57	26281.88
655.72	25844.20
655.86	26448.05
656.01	25860.58
656.15	25977.61
656.30	26450.39
656.44	25942.50
656.58	25736.53
656.73	26134.42
656.87	25891.01
657.01	25928.45
657.16	26033.78
657.30	25996.33
657.45	26221.02
657.59	26040.80
657.73	25963.56
657.88	25785.68
658.02	25773.98
658.16	25984.63
658.31	25481.41
658.45	25612.48
658.60	25565.67
658.74	25752.91
658.88	25509.50
659.03	25614.82
659.17	25614.82
659.31	25776.32
659.46	25738.87
659.60	25949.52
659.74	25345.66
659.89	25642.91
660.03	25441.62
660.17	25090.54
660.32	25156.08
660.46	25345.66
660.60	25212.25
660.74	25256.72
660.89	25216.93
661.03	25123.31
661.17	25041.39
661.32	25130.33
661.46	25116.29
661.60	25043.73
661.74	25404.17
661.89	25448.64
662.03	25238.00
662.17	24978.20
662.31	25137.35
662.46	25289.49
662.60	25202.89
662.74	25235.66
662.88	25010.96
663.03	24786.27
663.17	24905.64
663.31	24372.00
663.45	24570.94
663.60	24542.86
663.74	24886.92
663.88	24482.00
664.02	24816.70
664.17	24781.59
664.31	24697.33
664.45	24596.69
664.59	24765.21
664.73	24624.78
664.88	24580.31
665.02	24353.27
665.16	24187.10
665.30	24273.70
665.44	24257.31
665.59	24203.48
665.73	23978.79
665.87	24107.52
666.01	23836.02
666.15	24154.33
666.29	24004.53
666.44	24203.48
666.58	24112.20
666.72	23821.97
666.86	23896.87
667.00	24046.66
667.14	23541.11
667.28	23772.82
667.43	24065.39
667.57	23929.64
667.71	23543.45
667.85	23786.86
667.99	23339.82
668.13	23655.79
668.27	23501.32
668.41	23592.60
668.56	23630.05
668.70	23632.39
668.84	23828.99
668.98	23866.44
669.12	23707.29
669.26	23307.05
669.40	23096.41
669.54	23314.08
669.68	23248.54
669.82	23028.53
669.96	23253.22
670.10	22955.97
670.25	23344.50
670.39	22967.68
670.53	23154.92
670.67	22764.05
670.81	22930.23
670.95	22888.10
671.09	22953.63
671.23	22787.46
671.37	23129.17
671.51	22740.64
671.65	23009.81
671.79	22724.26
671.93	22951.29
672.07	22618.94
672.21	22937.25
672.35	22410.63
672.49	22256.15
672.63	22562.76
672.77	22742.99
672.91	22104.02
673.05	22450.42
673.19	22382.54
673.33	22312.33
673.47	22115.72
673.61	22326.37
673.75	22576.81
673.89	22167.21
674.03	22143.81
674.17	21944.86
674.31	21834.86
674.45	21947.20
674.59	21823.16
674.73	21839.54
674.87	21914.44
675.01	21949.54
675.15	21958.91
675.29	21642.93
675.43	21511.86
675.56	21722.51
675.70	21305.90
675.84	21312.92
675.98	20854.17
676.12	21771.66
676.26	21862.94
676.40	21296.53
676.54	21261.43
676.68	21357.39
676.82	20926.73
676.96	20865.88
677.10	21008.65
677.23	20582.67
677.37	20835.45
677.51	20767.57
677.65	20992.26
677.79	20526.50
677.93	20725.44
678.07	20362.66
678.21	20357.98
678.34	20386.07
678.48	20255.00
678.62	20451.60
678.76	20372.02
678.90	20177.76
679.04	20528.84
679.18	20266.70
679.31	20240.95
679.45	19814.98
679.59	19964.77
679.73	19716.67
679.87	19803.27
680.00	19438.15
680.14	19641.78
680.28	19597.31
680.42	19538.79
680.56	19501.34
680.70	19389.00
680.83	19772.85
680.97	19538.79
681.11	19506.02
681.25	19344.53
681.39	19400.70
681.52	19304.74
681.66	19470.92
681.80	18820.25
681.94	18874.08
682.07	18920.89
682.21	19166.65
682.35	18693.86
682.49	18558.11
682.62	18714.92
682.76	18782.80
682.90	18963.02
683.04	18616.62
683.17	18651.73
683.31	18670.45
683.45	18675.13
683.59	18574.49
683.72	18427.04
683.86	18127.45
684.00	18403.63
684.13	17968.29
684.27	18061.91
684.41	17958.93
684.55	17741.26
684.68	17722.54
684.82	17703.81
684.96	18008.08
685.09	17795.09
685.23	17811.48
685.37	17741.26
685.50	17912.12
685.64	17563.38
685.78	17858.29
685.91	17586.79
686.05	17834.88
686.19	17315.28
686.32	17547.00
686.46	16940.80
686.60	17095.27
686.73	17057.82
686.87	17083.57
687.01	16950.16
687.14	16545.25
687.28	16868.24
687.42	16666.95
687.55	16402.47
687.69	16648.23
687.82	16634.19
687.96	16592.06
688.10	16795.68
688.23	16648.23
688.37	16891.65
688.50	16376.73
688.64	16582.70
688.78	16240.98
688.91	16053.73
689.05	16269.06
689.18	16229.27
689.32	15770.53
689.46	15880.53
689.59	15913.30
689.73	15906.28
689.86	15817.34
690.00	15819.68
690.13	15887.56
690.27	15594.99
690.41	15786.91
690.54	15576.27
690.68	15449.88
690.81	15470.94
690.95	15578.61
691.08	15667.55
691.22	15557.54
691.35	15194.76
691.49	15337.53
691.62	15356.25
691.76	15047.30
691.89	14998.15
692.03	14892.83
692.16	14771.12
692.30	14960.70
692.43	14930.28
692.57	14890.49
692.70	14787.50
692.84	14462.17
692.97	14534.73
693.11	14551.11
693.24	14590.90
693.38	14654.09
693.51	14579.20
693.65	14462.17
693.78	14295.99
693.92	14342.80
694.05	14155.56
694.19	14001.08
694.32	13940.23
694.45	14052.58
694.59	13921.51
694.72	13846.61
694.86	13752.99
694.99	13748.31
695.13	13727.24
695.26	13888.74
695.39	13341.05
695.53	13902.78
695.66	13544.68
695.80	13666.39
695.93	13727.24
696.07	13521.27
696.20	13472.12
696.33	13282.54
696.47	13107.00
696.60	13308.29
696.73	13413.61
696.87	13224.03
697.00	13046.15
697.14	13055.51
697.27	12683.36
697.40	12896.35
697.54	12706.77
697.67	12549.95
697.80	12571.02
697.94	12599.10
698.07	12278.45
698.21	12528.89
698.34	12542.93
698.47	12311.22
698.61	12332.28
698.74	12461.01
698.87	12168.45
699.01	12180.15
699.14	12203.55
699.27	12088.87
699.40	12140.36
699.54	12217.60
699.67	11953.12
699.80	11758.85
699.94	11887.58
700.07	11847.79
700.20	11583.31
700.34	11604.38
700.47	11459.26
700.60	11854.81
700.73	11543.52
700.87	11463.94
701.00	11531.82
701.13	11520.12
701.26	11758.85
701.40	11817.36
701.53	11386.71
701.66	11555.22
701.79	11136.27
701.93	11166.70
702.06	10937.32
702.19	10993.50
702.32	10761.78
702.46	10904.56
702.59	10963.07
702.72	10794.55
702.85	10857.75
702.99	10611.99
703.12	10480.92
703.25	10548.79
703.38	10537.09
703.51	10733.70
703.65	10799.23
703.78	10672.84
703.91	10452.83
704.04	10782.85
704.17	10415.38
704.31	10501.98
704.44	10176.65
704.57	10382.62
704.70	10033.88
704.83	9968.34
704.96	10097.07
705.10	10326.44
705.23	10066.64
>>>>>End Processed Spectral Data<<<<<
