SpectraSuite Data File
++++++++++++++++++++++++++++++++++++
Date: Fri Oct 18 13:58:02 GMT-05:00 2013
User: bianchi
Dark Spectrum Present: No
Reference Spectrum Present: No
Number of Sampled Component Spectra: 1
Spectrometers: USB2+H05261
Integration Time (usec): 50000 (USB2+H05261)
Spectra Averaged: 1 (USB2+H05261)
Boxcar Smoothing: 0 (USB2+H05261)
Correct for Electrical Dark: No (USB2+H05261)
Strobe/Lamp Enabled: No (USB2+H05261)
Correct for Detector Non-linearity: No (USB2+H05261)
Correct for Stray Light: No (USB2+H05261)
Number of Pixels in Processed Spectrum: 2048
>>>>>Begin Processed Spectral Data<<<<<
365.73	0.00
365.92	0.00
366.12	0.00
366.32	0.00
366.52	0.00
366.72	0.00
366.91	0.00
367.11	0.00
367.31	0.00
367.51	0.00
367.70	0.00
367.90	0.00
368.10	0.00
368.30	0.00
368.49	0.00
368.69	0.00
368.89	0.00
369.09	0.00
369.28	0.00
369.48	0.00
369.68	0.00
369.87	0.00
370.07	0.00
370.27	0.00
370.47	0.00
370.66	79.58
370.86	98.30
371.06	81.92
371.25	191.92
371.45	117.03
371.65	117.03
371.84	198.95
372.04	145.11
372.24	201.29
372.44	170.86
372.63	222.35
372.83	290.23
373.03	250.44
373.22	170.86
373.42	229.37
373.62	105.32
373.81	241.08
374.01	252.78
374.21	250.44
374.40	210.65
374.60	238.73
374.79	280.86
374.99	215.33
375.19	250.44
375.38	227.03
375.58	184.90
375.78	306.61
375.97	234.05
376.17	196.60
376.37	290.23
376.56	285.55
376.76	229.37
376.95	224.69
377.15	243.42
377.35	313.63
377.54	290.23
377.74	297.25
377.93	217.67
378.13	236.39
378.33	306.61
378.52	276.18
378.72	311.29
378.91	290.23
379.11	224.69
379.31	327.68
379.50	250.44
379.70	283.20
379.89	346.40
380.09	255.12
380.28	297.25
380.48	311.29
380.68	320.65
380.87	339.38
381.07	351.08
381.26	355.76
381.46	360.44
381.65	358.10
381.85	334.70
382.04	311.29
382.24	367.46
382.43	327.68
382.63	381.51
382.83	353.42
383.02	360.44
383.22	395.55
383.41	383.85
383.61	334.70
383.80	346.40
384.00	367.46
384.19	369.80
384.39	344.06
384.58	407.25
384.78	376.83
384.97	390.87
385.17	339.38
385.36	362.78
385.56	423.64
385.75	407.25
385.95	402.57
386.14	477.47
386.34	351.08
386.53	454.06
386.72	360.44
386.92	390.87
387.11	369.80
387.31	383.85
387.50	400.23
387.70	477.47
387.89	425.98
388.09	430.66
388.28	383.85
388.48	442.36
388.67	372.15
388.86	411.93
389.06	400.23
389.25	561.73
389.45	456.40
389.64	442.36
389.84	440.02
390.03	407.25
390.22	517.26
390.42	447.04
390.61	500.87
390.81	423.64
391.00	414.27
391.19	486.83
391.39	510.24
391.58	507.90
391.78	514.92
391.97	524.28
392.16	517.26
392.36	531.30
392.55	545.34
392.75	599.18
392.94	498.53
393.13	568.75
393.33	582.79
393.52	482.15
393.71	552.37
393.91	608.54
394.10	564.07
394.29	636.63
394.49	547.69
394.68	627.26
394.88	601.52
395.07	641.31
395.26	587.47
395.46	627.26
395.65	697.48
395.84	653.01
396.04	622.58
396.23	655.35
396.42	688.12
396.62	655.35
396.81	592.16
397.00	692.80
397.19	655.35
397.39	732.59
397.58	734.93
397.77	648.33
397.97	713.86
398.16	767.70
398.35	678.76
398.55	734.93
398.74	744.29
398.93	795.78
399.12	704.50
399.32	765.36
399.51	774.72
399.70	793.44
399.90	727.91
400.09	676.41
400.28	840.25
400.47	800.46
400.67	788.76
400.86	760.67
401.05	720.88
401.24	779.40
401.44	781.74
401.63	765.36
401.82	840.25
402.01	774.72
402.21	821.53
402.40	779.40
402.59	863.66
402.78	908.13
402.97	847.27
403.17	912.81
403.36	894.08
403.55	856.64
403.74	880.04
403.93	910.47
404.13	940.90
404.32	940.90
404.51	978.34
404.70	966.64
404.89	915.15
405.09	940.90
405.28	912.81
405.47	898.77
405.66	1050.90
405.85	1039.20
406.05	1013.45
406.24	968.98
406.43	945.58
406.62	987.71
406.81	973.66
407.00	938.55
407.20	1001.75
407.39	1093.03
407.58	1083.67
407.77	1107.07
407.96	990.05
408.15	1121.12
408.34	1137.50
408.54	1083.67
408.73	1081.33
408.92	1041.54
409.11	1088.35
409.30	1104.73
409.49	1177.29
409.68	1165.59
409.87	1137.50
410.07	1107.07
410.26	1111.75
410.45	1149.20
410.64	1226.44
410.83	1217.08
411.02	1203.04
411.21	1238.14
411.40	1207.72
411.59	1303.68
411.78	1299.00
411.98	1252.19
412.17	1362.19
412.36	1322.40
412.55	1324.74
412.74	1310.70
412.93	1329.42
413.12	1184.31
413.31	1392.62
413.50	1306.02
413.69	1397.30
413.88	1444.11
414.07	1371.55
414.26	1455.81
414.45	1528.37
414.64	1551.78
414.83	1509.65
415.02	1500.28
415.22	1612.63
415.41	1591.56
415.60	1614.97
415.79	1577.52
415.98	1563.48
416.17	1657.10
416.36	1537.73
416.55	1626.67
416.74	1558.80
416.93	1614.97
417.12	1638.38
417.31	1643.06
417.50	1746.04
417.69	1748.38
417.88	1748.38
418.07	1809.23
418.26	1757.74
418.45	1762.42
418.64	1785.83
418.83	1809.23
419.02	1788.17
419.21	1701.57
419.39	1802.21
419.58	1732.00
419.77	1757.74
419.96	1863.07
420.15	1839.66
420.34	1851.36
420.53	1830.30
420.72	1909.88
420.91	1973.07
421.10	1937.96
421.29	1989.46
421.48	1968.39
421.67	2064.35
421.86	1914.56
422.05	2019.88
422.24	1900.52
422.43	1912.22
422.61	1937.96
422.80	2036.27
422.99	1982.43
423.18	1902.86
423.37	2090.10
423.56	2104.14
423.75	1989.46
423.94	2036.27
424.13	1830.30
424.32	1914.56
424.50	2104.14
424.69	2071.37
424.88	2033.93
425.07	2012.86
425.26	2127.55
425.45	2080.74
425.64	2031.58
425.83	2033.93
426.01	2085.42
426.20	2083.08
426.39	2150.95
426.58	1982.43
426.77	2026.90
426.96	2108.82
427.15	2118.18
427.33	2197.76
427.52	2160.31
427.71	2216.49
427.90	2169.68
428.09	2120.53
428.28	2223.51
428.46	2244.57
428.65	2157.97
428.84	2256.28
429.03	2321.81
429.22	2183.72
429.40	2265.64
429.59	2160.31
429.78	2155.63
429.97	2172.02
430.16	2267.98
430.34	2275.00
430.53	2326.49
430.72	2230.53
430.91	2260.96
431.10	2296.07
431.28	2333.51
431.47	2349.90
431.66	2389.69
431.85	2251.60
432.03	2448.20
432.22	2499.69
432.41	2497.35
432.60	2560.55
432.79	2525.44
432.97	2579.27
433.16	2462.24
433.35	2459.90
433.54	2473.95
433.72	2513.74
433.91	2473.95
434.10	2525.44
434.28	2511.39
434.47	2499.69
434.66	2614.38
434.85	2595.65
435.03	2672.89
435.22	2633.10
435.41	2715.02
435.59	2630.76
435.78	2682.25
435.97	2724.38
436.16	2698.64
436.34	2752.47
436.53	2675.23
436.72	2789.92
436.90	2558.21
437.09	2738.43
437.28	2815.66
437.46	2829.71
437.65	2712.68
437.84	2792.26
438.02	2848.43
438.21	2869.50
438.40	2813.32
438.58	2944.39
438.77	2899.92
438.96	3047.38
439.14	2913.97
439.33	2932.69
439.52	2970.14
439.70	2930.35
439.89	3016.95
440.08	3049.72
440.26	3077.80
440.45	3021.63
440.63	2991.20
440.82	3096.53
441.01	3091.85
441.19	3215.90
441.38	3262.71
441.57	3187.81
441.75	3190.15
441.94	3211.22
442.12	3414.84
442.31	3389.10
442.50	3286.11
442.68	3295.47
442.87	3304.84
443.05	3253.34
443.24	3346.97
443.43	3288.45
443.61	3351.65
443.80	3386.76
443.98	3382.07
444.17	3265.05
444.35	3356.33
444.54	3431.23
444.73	3410.16
444.91	3403.14
445.10	3459.31
445.28	3492.08
445.47	3440.59
445.65	3492.08
445.84	3510.80
446.02	3400.80
446.21	3478.04
446.39	3447.61
446.58	3503.78
446.77	3660.60
446.95	3508.46
447.14	3543.57
447.32	3684.00
447.51	3545.91
447.69	3398.46
447.88	3536.55
448.06	3574.00
448.25	3473.36
448.43	3618.47
448.62	3604.42
448.80	3438.25
448.99	3482.72
449.17	3548.25
449.36	3669.96
449.54	3665.28
449.73	3616.13
449.91	3742.52
450.10	3747.20
450.28	3662.94
450.46	3712.09
450.65	3829.12
450.83	3803.37
451.02	3810.39
451.20	3829.12
451.39	3791.67
451.57	3995.29
451.76	3737.84
451.94	3913.38
452.13	3911.04
452.31	3822.09
452.49	3772.94
452.68	3901.67
452.86	3904.01
453.05	3817.41
453.23	3943.80
453.42	3819.75
453.60	3871.25
453.78	3964.87
453.97	3976.57
454.15	3868.91
454.34	3904.01
454.52	4063.17
454.70	3976.57
454.89	4074.87
455.07	4030.40
455.26	4140.41
455.44	4105.30
455.62	4007.00
455.81	4168.49
455.99	4046.79
456.17	4091.26
456.36	4163.81
456.54	4276.16
456.73	4161.47
456.91	4465.74
457.09	4311.27
457.28	4372.12
457.46	4170.83
457.64	4280.84
457.83	4159.13
458.01	4332.33
458.19	4475.10
458.38	4411.91
458.56	4428.29
458.74	4503.19
458.93	4507.87
459.11	4437.66
459.29	4514.89
459.48	4517.23
459.66	4547.66
459.84	4610.86
460.03	4468.08
460.21	4425.95
460.39	4447.02
460.57	4472.76
460.76	4627.24
460.94	4699.80
461.12	4645.96
461.31	4723.20
461.49	4608.51
461.67	4585.11
461.85	4760.65
462.04	4671.71
462.22	5006.41
462.40	4723.20
462.59	4772.35
462.77	4669.37
462.95	4889.38
463.13	4744.27
463.32	4692.77
463.50	4880.02
463.68	5050.88
463.86	4781.71
464.05	4952.57
464.23	4744.27
464.41	4908.10
464.59	4751.29
464.78	5015.77
464.96	4983.00
465.14	4943.21
465.32	5036.83
465.50	4973.64
465.69	5011.09
465.87	5027.47
466.05	4889.38
466.23	5095.35
466.41	5207.69
466.60	5200.67
466.78	5055.56
466.96	5043.85
467.14	5085.98
467.32	5172.58
467.51	5310.68
467.69	5078.96
467.87	5144.50
468.05	5008.75
468.23	5181.95
468.41	5217.05
468.60	5252.16
468.78	5256.84
468.96	5193.65
469.14	5268.55
469.32	5226.42
469.50	5303.65
469.69	5453.45
469.87	5504.94
470.05	5577.50
470.23	5507.28
470.41	5490.90
470.59	5277.91
470.77	5455.79
470.95	5603.24
471.14	5535.37
471.32	5486.22
471.50	5792.83
471.68	5603.24
471.86	5678.14
472.04	5708.57
472.22	5804.53
472.40	5547.07
472.58	5788.14
472.77	5741.33
472.95	5664.10
473.13	5991.77
473.31	5771.76
473.49	5795.17
473.67	5921.56
473.85	5959.00
474.03	6099.44
474.21	5940.28
474.39	6040.92
474.57	5994.11
474.75	6162.63
474.93	6099.44
475.12	6085.39
475.30	6160.29
475.48	6202.42
475.66	6139.23
475.84	6211.78
476.02	6436.47
476.20	6361.58
476.38	6499.67
476.56	6600.31
476.74	6464.56
476.92	6422.43
477.10	6656.48
477.28	6745.42
477.46	6675.21
477.64	6590.95
477.82	6871.81
478.00	6939.69
478.18	6977.14
478.36	7082.46
478.54	7005.22
478.72	6932.67
478.90	7091.82
479.08	7035.65
479.26	7283.75
479.44	7438.22
479.62	7316.51
479.80	7435.88
479.98	7431.20
480.16	7644.19
480.34	7588.02
480.52	7723.77
480.70	7791.64
480.88	7681.64
481.06	7777.60
481.24	7887.61
481.41	7927.39
481.59	7929.74
481.77	7943.78
481.95	7978.89
482.13	8194.22
482.31	8191.88
482.49	8287.84
482.67	8201.24
482.85	8381.46
483.03	8505.51
483.21	8704.45
483.39	8552.32
483.57	8435.29
483.74	8716.16
483.92	8856.59
484.10	8760.63
484.28	8922.12
484.46	8872.97
484.64	9142.13
484.82	9062.55
485.00	9043.83
485.18	9329.38
485.35	9469.81
485.53	9390.23
485.71	9432.36
485.89	9706.20
486.07	9596.20
486.25	9729.61
486.43	9643.01
486.61	9753.01
486.78	9874.72
486.96	9858.34
487.14	10019.83
487.32	10097.07
487.50	10127.50
487.68	10249.21
487.85	10214.10
488.03	10530.07
488.21	10656.46
488.39	10572.20
488.57	10785.19
488.75	10780.51
488.92	10792.21
489.10	10827.32
489.28	11056.69
489.46	11344.58
489.64	11246.27
489.81	11267.34
489.99	11477.99
490.17	11548.20
490.35	11836.09
490.53	11541.18
490.70	11730.76
490.88	11578.63
491.06	11859.49
491.24	11688.64
491.41	11887.58
491.59	11756.51
491.77	12114.61
491.95	12343.99
492.13	12156.74
492.30	12086.53
492.48	12453.99
492.66	12435.27
492.84	12400.16
493.01	12549.95
493.19	12594.42
493.37	12856.56
493.54	12720.81
493.72	12938.48
493.90	12891.67
494.08	13151.47
494.25	13104.66
494.43	13060.19
494.61	13181.90
494.79	13266.16
494.96	13345.73
495.14	13563.40
495.32	13511.91
495.49	13521.27
495.67	13640.64
495.85	13692.13
496.02	13752.99
496.20	13825.54
496.38	14054.92
496.55	14120.45
496.73	14090.02
496.91	14345.14
497.09	14349.82
497.26	14375.57
497.44	14216.41
497.62	14434.08
497.79	14750.06
497.97	14340.46
498.14	14960.70
498.32	14867.08
498.50	14944.32
498.67	15084.75
498.85	14899.85
499.03	15101.14
499.20	15007.52
499.38	15187.74
499.56	15384.34
499.73	15318.81
499.91	15351.57
500.08	15243.91
500.26	15438.17
500.44	15234.55
500.61	15571.58
500.79	15557.54
500.97	15737.76
501.14	15936.71
501.32	15796.28
501.49	15758.83
501.67	16208.21
501.84	16018.63
502.02	15915.64
502.20	16290.13
502.37	16266.72
502.55	16184.80
502.72	16411.84
502.90	16191.83
503.07	16051.39
503.25	16343.96
503.43	16496.10
503.60	16510.14
503.78	16692.70
503.95	16428.22
504.13	16716.11
504.30	16760.58
504.48	16830.79
504.65	16753.55
504.83	17003.99
505.01	17268.47
505.18	16987.61
505.36	17195.92
505.53	17039.10
505.71	16898.67
505.88	17174.85
506.06	17106.98
506.23	17415.93
506.41	17689.77
506.58	17415.93
506.76	17516.57
506.93	17628.92
507.11	17500.19
507.28	17731.90
507.46	17633.60
507.63	17797.43
507.81	17657.00
507.98	18017.44
508.16	17757.64
508.33	17736.58
508.50	17965.95
508.68	17905.10
508.85	18022.12
509.03	18221.07
509.20	18125.11
509.38	18431.72
509.55	18743.01
509.73	18544.06
509.90	18284.26
510.08	18623.64
510.25	18534.70
510.42	18733.65
510.60	18789.82
510.77	18853.02
510.95	18937.27
511.12	18677.48
511.30	18455.12
511.47	18724.29
511.64	18696.20
511.82	19171.33
511.99	19105.79
512.17	19278.99
512.34	19091.75
512.51	19489.64
512.69	19152.60
512.86	19522.41
513.04	19611.35
513.21	19356.23
513.38	19779.87
513.56	19431.13
513.73	19711.99
513.90	19470.92
514.08	19442.83
514.25	19688.59
514.43	19936.68
514.60	19978.81
514.77	20250.32
514.95	20060.73
515.12	19800.93
515.29	20023.28
515.47	20252.66
515.64	20510.11
515.81	20027.96
515.99	20180.10
516.16	20514.80
516.33	20175.42
516.51	20624.80
516.68	20367.34
516.85	20301.81
517.03	20589.69
517.20	20318.19
517.37	20676.29
517.54	20924.39
517.72	20615.44
517.89	21069.50
518.06	20767.57
518.24	20540.54
518.41	20814.38
518.58	20695.02
518.75	20446.92
518.93	21214.62
519.10	20875.24
519.27	20950.14
519.45	20814.38
519.62	20989.92
519.79	21146.74
519.96	20933.75
520.14	21287.17
520.31	21120.99
520.48	21476.76
520.65	21329.30
520.83	21472.07
521.00	21441.65
521.17	21418.24
521.34	21769.32
521.52	21551.65
521.69	21671.02
521.86	22054.87
522.03	21806.77
522.20	21914.44
522.38	22281.90
522.55	21937.84
522.72	21905.07
522.89	21766.98
523.07	22148.49
523.24	21928.48
523.41	22511.27
523.58	22099.34
523.75	22024.44
523.92	22574.47
524.10	22148.49
524.27	22738.30
524.44	22693.83
524.61	22602.55
524.78	22576.81
524.96	22888.10
525.13	22675.11
525.30	22876.40
525.47	23051.94
525.64	22515.95
525.81	22941.93
525.98	23028.53
526.16	22761.71
526.33	23065.98
526.50	22918.53
526.67	22867.03
526.84	22672.77
527.01	23044.91
527.18	23049.60
527.36	23449.83
527.53	23307.05
527.70	23381.95
527.87	23360.89
528.04	23307.05
528.21	23218.11
528.38	23531.75
528.55	23311.74
528.72	23442.81
528.89	23377.27
529.07	23576.22
529.24	23524.72
529.41	23651.11
529.58	23889.85
529.75	23632.39
529.92	23707.29
530.09	23775.16
530.26	23662.82
530.43	23896.87
530.60	23903.89
530.77	23683.88
530.94	23847.72
531.11	23812.61
531.28	23882.83
531.46	23889.85
531.63	24130.92
531.80	24304.12
531.97	24343.91
532.14	24294.76
532.31	24334.55
532.48	24482.00
532.65	24229.23
532.82	23887.51
532.99	24388.38
533.16	24271.36
533.33	24350.93
533.50	24746.48
533.67	24702.01
533.84	24470.30
534.01	24528.81
534.18	24240.93
534.35	24805.00
534.52	24627.12
534.69	24840.11
534.86	24882.24
535.03	24751.17
535.20	25060.12
535.37	24826.06
535.54	24994.58
535.71	24912.66
535.88	24730.10
536.05	25078.84
536.22	25055.43
536.38	25219.27
536.55	25266.08
536.72	25242.68
536.89	25097.56
537.06	25205.23
537.23	25078.84
537.40	25228.63
537.57	25254.38
537.74	25202.89
537.91	25490.77
538.08	25551.63
538.25	25560.99
538.42	25600.78
538.59	25404.17
538.75	25317.57
538.92	25647.59
539.09	25640.57
539.26	25748.23
539.43	25469.71
539.60	25598.44
539.77	25582.06
539.94	26171.87
540.11	25326.94
540.28	25799.73
540.44	25689.72
540.61	25762.28
540.78	25614.82
540.95	25713.13
541.12	25923.77
541.29	25855.90
541.46	25823.13
541.62	25996.33
541.79	25778.66
541.96	26008.03
542.13	25792.70
542.30	25844.20
542.47	26405.92
542.63	26281.88
542.80	26410.60
542.97	26541.68
543.14	26431.67
543.31	26352.09
543.48	26466.78
543.64	26721.90
543.81	26654.02
543.98	26366.13
544.15	26895.10
544.32	26850.63
544.48	26955.95
544.65	26913.82
544.82	26455.08
544.99	26373.16
545.16	26909.14
545.32	26696.15
545.49	26635.30
545.66	27309.37
545.83	26934.88
546.00	26881.05
546.16	26689.13
546.33	27126.81
546.50	26857.65
546.67	27028.51
546.83	26740.62
547.00	26925.52
547.17	27178.30
547.34	27136.17
547.50	27358.52
547.67	27587.89
547.84	27498.95
548.00	27332.78
548.17	27480.23
548.34	27501.29
548.51	27405.33
548.67	27484.91
548.84	27208.73
549.01	27599.60
549.18	27122.13
549.34	27372.57
549.51	27845.35
549.68	27182.98
549.84	27594.92
550.01	27892.16
550.18	27466.19
550.34	27646.41
550.51	27927.27
550.68	27618.32
550.84	27625.34
551.01	27590.24
551.18	27445.12
551.34	27215.75
551.51	27311.71
551.68	27658.11
551.84	27740.03
552.01	27908.55
552.18	27990.47
552.34	27810.25
552.51	28091.11
552.68	27903.87
552.84	28205.80
553.01	28283.03
553.18	27796.20
553.34	28357.93
553.51	28273.67
553.67	28261.97
553.84	28266.65
554.01	28414.10
554.17	28238.56
554.34	28283.03
554.51	28086.43
554.67	28343.89
554.84	28348.57
555.00	28346.23
555.17	28290.06
555.33	28283.03
555.50	28123.88
555.67	28500.70
555.83	28404.74
556.00	28240.90
556.16	28514.75
556.33	28652.84
556.50	28554.54
556.66	28386.02
556.83	28765.18
556.99	28641.14
557.16	28926.68
557.32	28484.32
557.49	28554.54
557.65	28524.11
557.82	28570.92
557.98	28437.51
558.15	28907.96
558.32	28837.74
558.48	28844.76
558.65	28830.72
558.81	28793.27
558.98	28580.28
559.14	28547.51
559.31	28339.21
559.47	28692.63
559.64	29006.26
559.80	28772.21
559.97	29095.20
560.13	28648.16
560.30	28875.19
560.46	28966.47
560.63	29064.77
560.79	29413.51
560.96	29027.32
561.12	29259.04
561.29	28811.99
561.45	28554.54
561.61	28786.25
561.78	28931.36
561.94	29411.17
562.11	29109.24
562.27	28828.38
562.44	28847.10
562.60	29057.75
562.77	29434.58
562.93	29193.50
563.10	29212.23
563.26	29170.10
563.42	29722.46
563.59	29507.13
563.75	29427.56
563.92	29783.32
564.08	29193.50
564.24	29074.13
564.41	29415.85
564.57	29085.84
564.74	29488.41
564.90	29106.90
565.07	29336.27
565.23	29322.23
565.39	29237.97
565.56	29280.10
565.72	29322.23
565.88	29198.18
566.05	29380.74
566.21	29118.60
566.38	29591.39
566.54	29895.66
566.70	29284.78
566.87	29670.97
567.03	29680.33
567.19	29752.89
567.36	29741.19
567.52	29504.79
567.68	29610.12
567.85	29589.05
568.01	29694.38
568.17	29434.58
568.34	29883.96
568.50	29806.72
568.66	29624.16
568.83	29687.36
568.99	29668.63
569.15	29546.92
569.32	29221.59
569.48	29701.40
569.64	29921.41
569.81	29483.73
569.97	29530.54
570.13	29790.34
570.30	29898.00
570.46	29598.41
570.62	29832.47
570.78	29591.39
570.95	29235.63
571.11	29776.30
571.27	29408.83
571.43	29692.04
571.60	29560.97
571.76	29628.84
571.92	29692.04
572.09	29914.39
572.25	29928.43
572.41	29465.00
572.57	29853.53
572.74	29872.26
572.90	29467.34
573.06	30036.09
573.22	29717.78
573.38	29888.64
573.55	29944.81
573.71	30052.48
573.87	30513.56
574.03	30019.71
574.20	30005.67
574.36	29816.08
574.52	29617.14
574.68	29589.05
574.84	29876.94
575.01	30225.68
575.17	30082.91
575.33	29715.44
575.49	29582.03
575.65	30340.36
575.82	30160.14
575.98	29844.17
576.14	30054.82
576.30	29862.90
576.46	29694.38
576.62	29818.42
576.79	29895.66
576.95	29755.23
577.11	29853.53
577.27	29734.17
577.43	30342.70
577.59	29837.15
577.75	30239.72
577.92	29986.94
578.08	30022.05
578.24	30015.03
578.40	30080.56
578.56	30277.17
578.72	29928.43
578.88	29951.84
579.04	30298.23
579.21	30160.14
579.37	30127.38
579.53	30059.50
579.69	29802.04
579.85	29757.57
580.01	30101.63
580.17	29837.15
580.33	29851.19
580.49	30333.34
580.65	30059.50
580.82	30068.86
580.98	30178.87
581.14	30118.01
581.30	30321.64
581.46	30155.46
581.62	30108.65
581.78	29762.25
581.94	30115.67
582.10	30015.03
582.26	29839.49
582.42	30164.82
582.58	30101.63
582.74	29989.28
582.90	30211.64
583.06	30178.87
583.22	30305.26
583.38	29930.77
583.54	30038.44
583.70	30199.93
583.86	30235.04
584.02	30103.97
584.18	30043.12
584.34	30445.69
584.50	30347.39
584.66	30494.84
584.82	30141.42
584.98	30188.23
585.14	30167.16
585.30	30148.44
585.46	30136.74
585.62	29923.75
585.78	30277.17
585.94	29853.53
586.10	29989.28
586.26	30066.52
586.42	30501.86
586.58	30209.29
586.74	30040.78
586.90	29668.63
587.06	30015.03
587.22	30164.82
587.38	29965.88
587.54	30244.40
587.70	30771.02
587.86	30150.78
588.02	30817.83
588.18	30520.59
588.34	30478.46
588.49	30054.82
588.65	30361.43
588.81	30354.41
588.97	30291.21
589.13	30279.51
589.29	30307.60
589.45	30115.67
589.61	30555.69
589.77	30691.44
589.93	30588.46
590.08	30459.73
590.24	30756.98
590.40	30518.25
590.56	30719.53
590.72	30740.60
590.88	30136.74
591.04	30553.35
591.20	31028.48
591.35	30518.25
591.51	30780.39
591.67	30586.12
591.83	30623.57
591.99	30553.35
592.15	30934.86
592.31	30939.54
592.46	30558.03
592.62	30649.32
592.78	30410.58
592.94	30787.41
593.10	30441.01
593.26	30747.62
593.41	30768.68
593.57	30499.52
593.73	30874.01
593.89	30930.18
594.05	30661.02
594.20	30305.26
594.36	30679.74
594.52	30171.85
594.68	30579.10
594.84	30548.67
594.99	31112.74
595.15	30981.67
595.31	31065.93
595.47	30721.87
595.62	31016.78
595.78	30675.06
595.94	30859.96
596.10	30778.04
596.25	30621.23
596.41	30632.93
596.57	30331.00
596.73	30771.02
596.88	30672.72
597.04	30815.49
597.20	30937.20
597.36	30892.73
597.51	30848.26
597.67	30850.60
597.83	30602.50
597.99	30588.46
598.14	31094.02
598.30	30728.89
598.46	30649.32
598.61	30682.08
598.77	30576.76
598.93	30548.67
599.09	30642.29
599.24	31061.25
599.40	31007.42
599.56	30642.29
599.71	30543.99
599.87	31012.10
600.03	30803.79
600.18	30754.64
600.34	30543.99
600.50	30448.03
600.65	30857.62
600.81	30925.50
600.97	30852.94
601.12	31096.36
601.28	31276.58
601.44	31302.32
601.59	30836.56
601.75	31016.78
601.91	31054.23
602.06	30403.56
602.22	30822.51
602.37	30429.30
602.53	30742.94
602.69	30651.66
602.84	30878.69
603.00	31171.25
603.16	30759.32
603.31	30820.17
603.47	31000.40
603.62	30771.02
603.78	30899.75
603.94	30539.31
604.09	30789.75
604.25	30780.39
604.40	30850.60
604.56	30602.50
604.71	30841.24
604.87	30600.16
605.03	30888.05
605.18	30881.03
605.34	30932.52
605.49	30829.54
605.65	30761.66
605.80	30092.27
605.96	30494.84
606.12	30724.21
606.27	31133.81
606.43	30548.67
606.58	30984.01
606.74	31000.40
606.89	30944.22
607.05	30782.73
607.20	31023.80
607.36	30590.80
607.51	30361.43
607.67	30216.32
607.82	30139.08
607.98	30658.68
608.13	30656.34
608.29	30705.49
608.44	30661.02
608.60	30808.47
608.75	30600.16
608.91	30829.54
609.06	30623.57
609.22	30948.90
609.37	30499.52
609.53	30541.65
609.68	30199.93
609.84	30455.05
609.99	30820.17
610.15	30242.06
610.30	30541.65
610.46	30679.74
610.61	30380.15
610.76	30768.68
610.92	30298.23
611.07	30228.02
611.23	30352.07
611.38	30094.61
611.54	30410.58
611.69	30284.19
611.84	30221.00
612.00	30422.28
612.15	30305.26
612.31	30663.36
612.46	30363.77
612.62	30216.32
612.77	30424.62
612.92	30410.58
613.08	30398.88
613.23	30405.90
613.39	30415.26
613.54	30499.52
613.69	30080.56
613.85	30094.61
614.00	30335.68
614.15	30375.47
614.31	30707.83
614.46	30338.02
614.62	30125.04
614.77	30403.56
614.92	30340.36
615.08	29921.41
615.23	30202.27
615.38	30031.41
615.54	29830.13
615.69	30347.39
615.84	29591.39
616.00	30061.84
616.15	29776.30
616.30	30279.51
616.46	30066.52
616.61	30071.20
616.76	29949.50
616.92	29876.94
617.07	30174.19
617.22	29748.21
617.37	29926.09
617.53	30539.31
617.68	30036.09
617.83	29619.48
617.99	29926.09
618.14	29926.09
618.29	29703.74
618.45	30008.01
618.60	30064.18
618.75	29874.60
618.90	29635.86
619.06	29738.85
619.21	29755.23
619.36	29886.30
619.51	29488.41
619.67	29645.23
619.82	29165.42
619.97	29223.93
620.12	29387.77
620.28	29757.57
620.43	30127.38
620.58	30110.99
620.73	29661.61
620.89	29916.73
621.04	29736.51
621.19	29769.27
621.34	29603.10
621.49	29518.84
621.65	29214.57
621.80	29635.86
621.95	29212.23
622.10	29322.23
622.25	29263.72
622.41	29797.36
622.56	29586.71
622.71	29692.04
622.86	29736.51
623.01	29450.96
623.16	29193.50
623.32	29317.55
623.47	29120.95
623.62	29357.34
623.77	29153.71
623.92	29280.10
624.07	29584.37
624.23	29170.10
624.38	28919.66
624.53	29525.86
624.68	29305.85
624.83	29614.80
624.98	29628.84
625.13	28830.72
625.29	29294.14
625.44	28744.12
625.59	28889.23
625.74	29235.63
625.89	29104.56
626.04	29118.60
626.19	29120.95
626.34	29095.20
626.49	28893.91
626.65	28971.15
626.80	28973.49
626.95	28896.25
627.10	28985.19
627.25	28985.19
627.40	29153.71
627.55	28926.68
627.70	28526.45
627.85	28676.24
628.00	28357.93
628.15	28577.94
628.30	28627.09
628.45	28734.76
628.60	28746.46
628.76	28709.01
628.91	28746.46
629.06	28512.41
629.21	28826.04
629.36	28343.89
629.51	28386.02
629.66	28582.62
629.81	28573.26
629.96	28774.55
630.11	28301.76
630.26	28528.79
630.41	28070.04
630.56	28343.89
630.71	28067.70
630.86	28350.91
631.01	28947.75
631.16	28444.53
631.31	28166.01
631.46	28034.94
631.61	28615.39
631.76	28299.42
631.91	28170.69
632.06	28524.11
632.21	28320.48
632.36	28084.09
632.51	28184.73
632.66	28105.15
632.81	27976.42
632.96	28254.95
633.10	28201.11
633.25	28261.97
633.40	28133.24
633.55	28261.97
633.70	27950.68
633.85	28112.17
634.00	27826.63
634.15	28065.36
634.30	27936.63
634.45	28254.95
634.60	27725.99
634.75	27957.70
634.90	27929.61
635.05	28364.95
635.19	28191.75
635.34	28491.34
635.49	27859.40
635.64	28364.95
635.79	27892.16
635.94	27658.11
636.09	27676.83
636.24	27796.20
636.39	27573.85
636.53	27978.76
636.68	28011.53
636.83	27644.07
636.98	27828.97
637.13	27882.80
637.28	28114.52
637.43	27833.65
637.57	28121.54
637.72	27819.61
637.87	27725.99
638.02	27861.74
638.17	27534.06
638.32	27594.92
638.46	27536.40
638.61	26941.91
638.76	27248.52
638.91	27349.16
639.06	27398.31
639.20	27885.14
639.35	27852.38
639.50	27653.43
639.65	28018.55
639.80	27623.00
639.94	27243.84
640.09	27824.29
640.24	27314.05
640.39	27250.86
640.54	27058.93
640.68	27370.22
640.83	27054.25
640.98	27063.61
641.13	26972.33
641.27	27171.28
641.42	27211.07
641.57	27051.91
641.72	27321.07
641.86	26888.07
642.01	26780.41
642.16	27044.89
642.31	27040.21
642.45	27246.18
642.60	26864.67
642.75	26799.13
642.90	26792.11
643.04	26609.55
643.19	26834.24
643.34	27517.68
643.48	26857.65
643.63	26806.16
643.78	27007.44
643.93	27080.00
644.07	26965.31
644.22	27129.15
644.37	27098.72
644.51	26862.33
644.66	26888.07
644.81	26567.42
644.95	26532.31
645.10	26412.95
645.25	26759.34
645.39	27072.98
645.54	26752.32
645.69	26712.53
645.83	26492.52
645.98	26536.99
646.13	26892.76
646.27	27269.58
646.42	26710.19
646.57	26398.90
646.71	26581.46
646.86	26691.47
647.00	26895.10
647.15	26642.32
647.30	26703.17
647.44	26415.29
647.59	26501.89
647.74	26391.88
647.88	26651.68
648.03	26436.35
648.17	26693.81
648.32	26595.51
648.47	26869.35
648.61	26691.47
648.76	26630.62
648.90	26314.64
649.05	26864.67
649.20	26450.39
649.34	26331.03
649.49	25926.11
649.63	25991.65
649.78	26508.91
649.92	26019.74
650.07	26286.56
650.21	26111.02
650.36	26616.57
650.51	25954.20
650.65	26328.69
650.80	26235.06
650.94	26010.37
651.09	26412.95
651.23	25811.43
651.38	26157.83
651.52	26377.84
651.67	26256.13
651.81	26424.65
651.96	26389.54
652.10	25972.92
652.25	26160.17
652.39	26188.25
652.54	26309.96
652.68	25879.30
652.83	26286.56
652.97	26242.09
653.12	26101.65
653.26	25879.30
653.41	26101.65
653.55	25881.64
653.70	25745.89
653.84	26026.76
653.99	25731.85
654.13	25706.10
654.27	25752.91
654.42	25647.59
654.56	25759.94
654.71	25881.64
654.85	25956.54
655.00	25858.24
655.14	26111.02
655.29	26075.91
655.43	25759.94
655.57	25675.68
655.72	25558.65
655.86	25535.24
656.01	25495.46
656.15	25537.59
656.30	25844.20
656.44	25481.41
656.58	25640.57
656.73	25689.72
656.87	25891.01
657.01	25539.93
657.16	25165.44
657.30	25837.17
657.45	25289.49
657.59	25614.82
657.73	25167.78
657.88	25137.35
658.02	25193.53
658.16	25450.99
658.31	25333.96
658.45	25193.53
658.60	25125.65
658.74	25200.55
658.88	25195.87
659.03	24940.75
659.17	25142.03
659.31	25345.66
659.46	24865.85
659.60	25120.97
659.74	25135.01
659.89	25113.95
660.03	24769.89
660.17	25252.04
660.32	24929.05
660.46	24505.41
660.60	24622.44
660.74	24776.91
660.89	24577.97
661.03	24390.72
661.17	24762.87
661.32	24435.19
661.46	24898.62
661.60	24519.45
661.74	24622.44
661.89	24779.25
662.03	24842.45
662.17	24989.90
662.31	24437.53
662.46	24636.48
662.60	24460.94
662.74	24465.62
662.88	24510.09
663.03	24570.94
663.17	23988.15
663.31	24259.65
663.45	24205.82
663.60	24182.42
663.74	24084.11
663.88	24400.08
664.02	23988.15
664.17	24205.82
664.31	24133.26
664.45	23887.51
664.59	23913.25
664.73	23948.36
664.88	23878.15
665.02	23885.17
665.16	23901.55
665.30	23803.25
665.44	24137.94
665.59	23627.71
665.73	23655.79
665.87	23344.50
666.01	23627.71
666.15	23648.77
666.29	23365.57
666.44	23585.58
666.58	23466.21
666.72	23407.70
666.86	23578.56
667.00	23569.19
667.14	23482.59
667.28	23297.69
667.43	22988.74
667.57	23445.15
667.71	23431.10
667.85	23513.02
667.99	23002.78
668.13	22860.01
668.27	23019.17
668.41	23187.69
668.56	23201.73
668.70	22951.29
668.84	23126.83
668.98	23208.75
669.12	23285.99
669.26	23089.38
669.40	22782.77
669.54	23009.81
669.68	22871.72
669.82	22689.15
669.96	22401.27
670.10	22492.55
670.25	22663.41
670.39	22562.76
670.53	22796.82
670.67	22384.88
670.81	22705.54
670.95	22478.50
671.09	22691.49
671.23	22321.69
671.37	22565.10
671.51	22647.02
671.65	22462.12
671.79	22251.47
671.93	22759.37
672.07	22221.05
672.21	21874.65
672.35	21869.97
672.49	21940.18
672.63	22291.26
672.77	21923.80
672.91	21949.54
673.05	21912.10
673.19	22075.93
673.33	21879.33
673.47	22087.64
673.61	21804.43
673.75	21467.39
673.89	21834.86
674.03	21589.10
674.17	21207.59
674.31	21598.46
674.45	21766.98
674.59	21366.75
674.73	21731.87
674.87	21233.34
675.01	21380.79
675.15	21216.96
675.29	21350.37
675.43	20968.86
675.56	21027.37
675.70	21153.76
675.84	20945.45
675.98	20580.33
676.12	21177.17
676.26	20957.16
676.40	20938.43
676.54	20809.70
676.68	20720.76
676.82	20266.70
676.96	20669.27
677.10	20592.03
677.23	20456.28
677.37	20533.52
677.51	20414.15
677.65	20224.57
677.79	20166.06
677.93	20163.72
678.07	20128.61
678.21	20025.62
678.34	19908.60
678.48	20042.01
678.62	19669.86
678.76	19927.32
678.90	19379.64
679.04	19655.82
679.18	19782.21
679.31	19672.20
679.45	19576.24
679.59	19477.94
679.73	19414.74
679.87	19337.51
680.00	19648.80
680.14	19150.26
680.28	19058.98
680.42	19185.37
680.56	19349.21
680.70	19133.88
680.83	19328.14
680.97	18965.36
681.11	18934.93
681.25	19154.94
681.39	18974.72
681.52	19054.30
681.66	18923.23
681.80	18621.30
681.94	18906.85
682.07	18817.91
682.21	18654.07
682.35	18441.08
682.49	18356.82
682.62	18239.79
682.76	18008.08
682.90	18097.02
683.04	18104.04
683.17	18146.17
683.31	18293.63
683.45	18267.88
683.59	17998.72
683.72	17841.90
683.86	17806.80
684.00	17968.29
684.13	17752.96
684.27	17872.33
684.41	17855.95
684.55	17703.81
684.68	17268.47
684.82	17303.58
684.96	17516.57
685.09	17376.14
685.23	17118.68
685.37	17509.55
685.50	17465.08
685.64	17153.79
685.78	17336.35
685.91	17104.64
686.05	17397.20
686.19	16917.39
686.32	16908.03
686.46	16840.15
686.60	16716.11
686.73	17069.53
686.87	16659.93
687.01	16734.83
687.14	16706.74
687.28	16449.28
687.42	16327.58
687.55	16563.97
687.69	16425.88
687.82	16308.85
687.96	16393.11
688.10	16397.79
688.23	16170.76
688.37	16046.71
688.50	16109.91
688.64	16149.70
688.78	15920.32
688.91	15906.28
689.05	15932.03
689.18	15719.04
689.32	15630.10
689.46	15494.35
689.59	15499.03
689.73	15566.90
689.86	15475.62
690.00	15473.28
690.13	15697.97
690.27	15569.24
690.41	15459.24
690.54	15211.14
690.68	15323.49
690.81	15215.82
690.95	15288.38
691.08	15241.57
691.22	15087.09
691.35	15145.61
691.49	14958.36
691.62	15105.82
691.76	14618.99
691.89	14885.81
692.03	14703.25
692.16	14520.68
692.30	14588.56
692.43	14314.72
692.57	14651.75
692.70	14342.80
692.84	14366.21
692.97	14438.76
693.11	14537.07
693.24	14193.01
693.38	14253.86
693.51	13825.54
693.65	14146.20
693.78	13841.93
693.92	14162.58
694.05	14223.44
694.19	13675.75
694.32	13846.61
694.45	13565.74
694.59	13500.21
694.72	13504.89
694.86	13469.78
694.99	13137.43
695.13	13425.31
695.26	13413.61
695.39	13287.22
695.53	13411.27
695.66	13441.70
695.80	13263.82
695.93	13071.89
696.07	13270.84
696.20	13427.65
696.33	13020.40
696.47	12851.88
696.60	12933.80
696.73	12947.84
696.87	12992.31
697.00	12575.70
697.14	12786.35
697.27	12503.14
697.40	12643.57
697.54	12393.14
697.67	12404.84
697.80	12343.99
697.94	12531.23
698.07	12198.87
698.21	12318.24
698.34	12299.52
698.47	12306.54
698.61	12353.35
698.74	12177.81
698.87	12287.81
699.01	12152.06
699.14	12105.25
699.27	11852.47
699.40	12100.57
699.54	11833.75
699.67	11896.94
699.80	11896.94
699.94	11655.87
700.07	11384.37
700.20	11541.18
700.34	11417.13
700.47	11407.77
700.60	11440.54
700.73	11307.13
700.87	11433.52
701.00	11080.10
701.13	11288.40
701.26	11515.44
701.40	11208.83
701.53	11449.90
701.66	11143.29
701.79	11129.25
701.93	11023.92
702.06	10958.39
702.19	10626.03
702.32	10836.68
702.46	10747.74
702.59	10572.20
702.72	10410.70
702.85	10651.78
702.99	10609.65
703.12	10576.88
703.25	10497.30
703.38	10420.06
703.51	10441.13
703.65	10401.34
703.78	10298.36
703.91	10087.71
704.04	10431.77
704.17	10340.49
704.31	10204.74
704.44	10085.37
704.57	10106.43
704.70	9853.66
704.83	9825.57
704.96	10029.20
705.10	9771.74
705.23	9809.19
>>>>>End Processed Spectral Data<<<<<
