SpectraSuite Data File
++++++++++++++++++++++++++++++++++++
Date: Fri Oct 18 13:58:10 GMT-05:00 2013
User: bianchi
Dark Spectrum Present: No
Reference Spectrum Present: No
Number of Sampled Component Spectra: 1
Spectrometers: USB2+H05261
Integration Time (usec): 50000 (USB2+H05261)
Spectra Averaged: 1 (USB2+H05261)
Boxcar Smoothing: 0 (USB2+H05261)
Correct for Electrical Dark: No (USB2+H05261)
Strobe/Lamp Enabled: No (USB2+H05261)
Correct for Detector Non-linearity: No (USB2+H05261)
Correct for Stray Light: No (USB2+H05261)
Number of Pixels in Processed Spectrum: 2048
>>>>>Begin Processed Spectral Data<<<<<
365.73	0.00
365.92	0.00
366.12	0.00
366.32	0.00
366.52	0.00
366.72	0.00
366.91	0.00
367.11	0.00
367.31	0.00
367.51	0.00
367.70	0.00
367.90	0.00
368.10	0.00
368.30	0.00
368.49	0.00
368.69	0.00
368.89	0.00
369.09	0.00
369.28	0.00
369.48	0.00
369.68	0.00
369.87	0.00
370.07	0.00
370.27	0.00
370.47	0.00
370.66	95.96
370.86	145.11
371.06	84.26
371.25	191.92
371.45	166.18
371.65	215.33
371.84	170.86
372.04	161.50
372.24	217.67
372.44	105.32
372.63	140.43
372.83	170.86
373.03	170.86
373.22	255.12
373.42	196.60
373.62	220.01
373.81	252.78
374.01	259.80
374.21	304.27
374.40	262.14
374.60	290.23
374.79	266.82
374.99	241.08
375.19	184.90
375.38	273.84
375.58	184.90
375.78	273.84
375.97	292.57
376.17	313.63
376.37	313.63
376.56	283.20
376.76	241.08
376.95	280.86
377.15	297.25
377.35	227.03
377.54	224.69
377.74	234.05
377.93	320.65
378.13	334.70
378.33	231.71
378.52	330.02
378.72	271.50
378.91	266.82
379.11	271.50
379.31	280.86
379.50	236.39
379.70	365.12
379.89	360.44
380.09	269.16
380.28	297.25
380.48	374.49
380.68	292.57
380.87	241.08
381.07	308.95
381.26	353.42
381.46	262.14
381.65	360.44
381.85	395.55
382.04	353.42
382.24	346.40
382.43	365.12
382.63	388.53
382.83	383.85
383.02	374.49
383.22	379.17
383.41	362.78
383.61	369.80
383.80	369.80
384.00	301.93
384.19	374.49
384.39	381.51
384.58	355.76
384.78	449.38
384.97	379.17
385.17	330.02
385.36	381.51
385.56	409.59
385.75	395.55
385.95	435.34
386.14	411.93
386.34	372.15
386.53	454.06
386.72	454.06
386.92	390.87
387.11	418.96
387.31	423.64
387.50	400.23
387.70	402.57
387.89	425.98
388.09	397.89
388.28	379.17
388.48	519.60
388.67	528.96
388.86	472.79
389.06	503.22
389.25	454.06
389.45	540.66
389.64	566.41
389.84	540.66
390.03	517.26
390.22	475.13
390.42	528.96
390.61	505.56
390.81	433.00
391.00	507.90
391.19	559.39
391.39	552.37
391.58	543.00
391.78	503.22
391.97	615.56
392.16	543.00
392.36	599.18
392.55	533.64
392.75	514.92
392.94	554.71
393.13	582.79
393.33	533.64
393.52	571.09
393.71	571.09
393.91	547.69
394.10	517.26
394.29	559.39
394.49	622.58
394.68	538.32
394.88	559.39
395.07	596.84
395.26	648.33
395.46	547.69
395.65	608.54
395.84	585.13
396.04	739.61
396.23	645.99
396.42	671.73
396.62	655.35
396.81	622.58
397.00	653.01
397.19	603.86
397.39	653.01
397.58	741.95
397.77	683.44
397.97	699.82
398.16	791.10
398.35	751.31
398.55	737.27
398.74	676.41
398.93	732.59
399.12	746.63
399.32	748.97
399.51	718.54
399.70	807.48
399.90	770.04
400.09	763.01
400.28	741.95
400.47	770.04
400.67	777.06
400.86	880.04
401.05	830.89
401.24	784.08
401.44	727.91
401.63	847.27
401.82	755.99
402.01	823.87
402.21	788.76
402.40	842.59
402.59	809.83
402.78	861.32
402.97	912.81
403.17	861.32
403.36	812.17
403.55	809.83
403.74	917.49
403.93	877.70
404.13	976.00
404.32	915.15
404.51	854.30
404.70	905.79
404.89	880.04
405.09	1039.20
405.28	875.36
405.47	957.28
405.66	959.62
405.85	945.58
406.05	973.66
406.24	1022.81
406.43	1128.14
406.62	1086.01
406.81	1062.60
407.00	983.02
407.20	964.30
407.39	945.58
407.58	1060.26
407.77	1102.39
407.96	1142.18
408.15	1144.52
408.34	1043.88
408.54	1074.31
408.73	1116.44
408.92	1104.73
409.11	1165.59
409.30	1160.91
409.49	1217.08
409.68	1055.58
409.87	1104.73
410.07	1146.86
410.26	1203.04
410.45	1184.31
410.64	1203.04
410.83	1287.29
411.02	1188.99
411.21	1341.13
411.40	1263.89
411.59	1306.02
411.78	1259.21
411.98	1289.64
412.17	1270.91
412.36	1280.27
412.55	1282.61
412.74	1341.13
412.93	1324.74
413.12	1371.55
413.31	1420.71
413.50	1362.19
413.69	1411.34
413.88	1380.92
414.07	1453.47
414.26	1369.21
414.45	1427.73
414.64	1476.88
414.83	1500.28
415.02	1488.58
415.22	1502.62
415.41	1558.80
415.60	1650.08
415.79	1694.55
415.98	1652.42
416.17	1621.99
416.36	1598.59
416.55	1643.06
416.74	1668.80
416.93	1575.18
417.12	1699.23
417.31	1755.40
417.50	1797.53
417.69	1732.00
417.88	1767.10
418.07	1724.97
418.26	1804.55
418.45	1935.62
418.64	1816.26
418.83	1926.26
419.02	1743.70
419.21	1870.09
419.39	1820.94
419.58	1825.62
419.77	1830.30
419.96	1914.56
420.15	1870.09
420.34	1816.26
420.53	1994.14
420.72	2078.40
420.91	1909.88
421.10	2015.20
421.29	2078.40
421.48	1933.28
421.67	1926.26
421.86	1966.05
422.05	1949.67
422.24	1933.28
422.43	2069.03
422.61	2043.29
422.80	2078.40
422.99	2003.50
423.18	2043.29
423.37	2148.61
423.56	2113.50
423.75	2003.50
423.94	1994.14
424.13	1842.00
424.32	1839.66
424.50	1998.82
424.69	2101.80
424.88	2129.89
425.07	2097.12
425.26	2047.97
425.45	2076.06
425.64	2033.93
425.83	2012.86
426.01	2083.08
426.20	2190.74
426.39	2087.76
426.58	2064.35
426.77	2111.16
426.96	2015.20
427.15	2115.84
427.33	1984.77
427.52	2132.23
427.71	2176.70
427.90	2232.87
428.09	2223.51
428.28	2186.06
428.46	2097.12
428.65	2314.79
428.84	2366.28
429.03	2270.32
429.22	2148.61
429.40	2340.54
429.59	2193.08
429.78	2338.20
429.97	2228.19
430.16	2225.85
430.34	2349.90
430.53	2333.51
430.72	2307.77
430.91	2321.81
431.10	2399.05
431.28	2342.88
431.47	2408.41
431.66	2495.01
431.85	2319.47
432.03	2410.75
432.22	2605.02
432.41	2478.63
432.60	2525.44
432.79	2509.05
432.97	2490.33
433.16	2497.35
433.35	2541.82
433.54	2612.04
433.72	2567.57
433.91	2590.97
434.10	2658.85
434.28	2597.99
434.47	2520.76
434.66	2581.61
434.85	2520.76
435.03	2672.89
435.22	2682.25
435.41	2726.72
435.59	2630.76
435.78	2675.23
435.97	2686.94
436.16	2647.15
436.34	2672.89
436.53	2715.02
436.72	2766.51
436.90	2724.38
437.09	2712.68
437.28	2745.45
437.46	2731.41
437.65	2787.58
437.84	2878.86
438.02	2909.29
438.21	2897.58
438.40	2897.58
438.58	2904.60
438.77	2899.92
438.96	2876.52
439.14	2883.54
439.33	3009.93
439.52	3019.29
439.70	2960.78
439.89	2995.89
440.08	3070.78
440.26	3052.06
440.45	3150.36
440.63	3204.19
440.82	3148.02
441.01	3201.85
441.19	3042.70
441.38	3124.62
441.57	3309.52
441.75	3246.32
441.94	3316.54
442.12	3335.26
442.31	3311.86
442.50	3363.35
442.68	3353.99
442.87	3384.41
443.05	3337.60
443.24	3295.47
443.43	3368.03
443.61	3405.48
443.80	3487.40
443.98	3475.70
444.17	3316.54
444.35	3503.78
444.54	3578.68
444.73	3595.06
444.91	3566.98
445.10	3616.13
445.28	3639.53
445.47	3499.10
445.65	3478.04
445.84	3515.48
446.02	3592.72
446.21	3662.94
446.39	3513.14
446.58	3503.78
446.77	3597.40
446.95	3452.29
447.14	3536.55
447.32	3576.34
447.51	3517.83
447.69	3517.83
447.88	3552.93
448.06	3562.30
448.25	3538.89
448.43	3632.51
448.62	3414.84
448.80	3478.04
448.99	3665.28
449.17	3662.94
449.36	3529.53
449.54	3810.39
449.73	3669.96
449.91	3688.68
450.10	3611.45
450.28	3922.74
450.46	3918.06
450.65	3726.13
450.83	3756.56
451.02	3747.20
451.20	3922.74
451.39	3751.88
451.57	3740.18
451.76	3955.51
451.94	3826.78
452.13	3983.59
452.31	4074.87
452.49	3913.38
452.68	3913.38
452.86	3950.82
453.05	3925.08
453.23	4067.85
453.42	3866.56
453.60	3988.27
453.78	4056.15
453.97	3882.95
454.15	3875.93
454.34	4030.40
454.52	4065.51
454.70	4009.34
454.89	4086.58
455.07	4084.23
455.26	4121.68
455.44	4145.09
455.62	4238.71
455.81	4124.02
455.99	4163.81
456.17	4196.58
456.36	4222.33
456.54	4306.59
456.73	4128.70
456.91	4421.27
457.09	4416.59
457.28	4479.79
457.46	4320.63
457.64	4395.53
457.83	4400.21
458.01	4250.41
458.19	4461.06
458.38	4355.74
458.56	4601.49
458.74	4559.36
458.93	4594.47
459.11	4535.96
459.29	4423.61
459.48	4451.70
459.66	4402.55
459.84	4510.21
460.03	4617.88
460.21	4622.56
460.39	4622.56
460.57	4643.62
460.76	4667.03
460.94	4786.40
461.12	4671.71
461.31	4545.32
461.49	4833.21
461.67	4650.64
461.85	4781.71
462.04	4814.48
462.22	5132.79
462.40	4812.14
462.59	4858.95
462.77	4933.85
462.95	4856.61
463.13	4912.78
463.32	4816.82
463.50	5088.32
463.68	4917.47
463.86	4931.51
464.05	5004.07
464.23	4903.42
464.41	4884.70
464.59	4898.74
464.78	5057.90
464.96	5085.98
465.14	4926.83
465.32	5062.58
465.50	5074.28
465.69	5207.69
465.87	5025.13
466.05	5193.65
466.23	4999.38
466.41	5034.49
466.60	5193.65
466.78	5083.64
466.96	5153.86
467.14	5170.24
467.32	5109.39
467.51	5334.08
467.69	5109.39
467.87	5352.81
468.05	5261.52
468.23	5184.29
468.41	5303.65
468.60	5177.26
468.78	5371.53
468.96	5289.61
469.14	5465.15
469.32	5408.98
469.50	5329.40
469.69	5434.72
469.87	5504.94
470.05	5523.66
470.23	5444.09
470.41	5483.88
470.59	5561.11
470.77	5427.70
470.95	5589.20
471.14	5673.46
471.32	5481.53
471.50	5692.18
471.68	5841.98
471.86	5603.24
472.04	5624.31
472.22	5893.47
472.40	5724.95
472.58	5738.99
472.77	5916.87
472.95	5816.23
473.13	6019.86
473.31	5898.15
473.49	5959.00
473.67	6001.13
473.85	6174.33
474.03	6143.91
474.21	6136.88
474.39	6094.76
474.57	6179.01
474.75	6298.38
474.93	6466.90
475.12	6207.10
475.30	6312.42
475.48	6300.72
475.66	6459.88
475.84	6352.21
476.02	6326.47
476.20	6530.09
476.38	6588.61
476.56	6806.28
476.74	6724.36
476.92	6537.12
477.10	6619.04
477.28	6888.20
477.46	7033.31
477.64	6780.53
477.82	6785.21
478.00	7082.46
478.18	6988.84
478.36	6993.52
478.54	7199.49
478.72	7096.50
478.90	7330.56
479.08	7447.58
479.26	7300.13
479.44	7346.94
479.62	7325.88
479.80	7384.39
479.98	7452.27
480.16	7758.88
480.34	7632.49
480.52	7915.69
480.70	7826.75
480.88	7588.02
481.06	7836.11
481.24	7751.85
481.41	7983.57
481.59	7934.42
481.77	8236.35
481.95	8248.05
482.13	8166.13
482.31	8255.07
482.49	8493.80
482.67	8430.61
482.85	8421.25
483.03	8531.25
483.21	8655.30
483.39	8898.72
483.57	8592.11
483.74	8683.39
483.92	9170.22
484.10	8938.51
484.28	9111.71
484.46	9032.13
484.64	9294.27
484.82	8966.59
485.00	9137.45
485.18	9530.66
485.35	9497.89
485.53	9701.52
485.71	9650.03
485.89	9748.33
486.07	9813.87
486.25	10033.88
486.43	9987.07
486.61	9832.59
486.78	9991.75
486.96	10286.65
487.14	10246.87
487.32	10361.55
487.50	10420.06
487.68	10485.60
487.85	10520.71
488.03	10822.64
488.21	10560.50
488.39	10869.45
488.57	10810.93
488.75	10824.98
488.92	10979.45
489.10	11257.98
489.28	11246.27
489.46	11311.81
489.64	11452.24
489.81	11506.07
489.99	11517.78
490.17	11503.73
490.35	11716.72
490.53	11740.13
490.70	11840.77
490.88	11962.48
491.06	11939.07
491.24	11866.52
491.41	12002.27
491.59	12318.24
491.77	12292.49
491.95	12339.30
492.13	12451.65
492.30	12683.36
492.48	12559.31
492.66	12484.42
492.84	12657.62
493.01	12650.60
493.19	12886.99
493.37	13069.55
493.54	12950.18
493.72	13027.42
493.90	12926.78
494.08	13263.82
494.25	13479.15
494.43	13116.36
494.61	13366.80
494.79	13511.91
494.96	13708.52
495.14	13804.48
495.32	13689.79
495.49	13851.29
495.67	13839.59
495.85	13923.85
496.02	13940.23
496.20	14174.28
496.38	14274.93
496.55	14221.10
496.73	14445.79
496.91	14368.55
497.09	14583.88
497.26	14768.78
497.44	14602.60
497.62	14712.61
497.79	14714.95
497.97	14806.23
498.14	15000.49
498.32	15159.65
498.50	15023.90
498.67	15176.03
498.85	15089.43
499.03	15585.63
499.20	15208.80
499.38	15403.07
499.56	15742.44
499.73	15791.59
499.91	15960.11
500.08	15742.44
500.26	15672.23
500.44	15632.44
500.61	15985.86
500.79	15873.51
500.97	15948.41
501.14	16210.55
501.32	16182.46
501.49	16299.49
501.67	16320.56
501.84	16219.91
502.02	16219.91
502.20	16297.15
502.37	16374.39
502.55	16306.51
502.72	16498.44
502.90	16599.08
503.07	16556.95
503.25	16620.14
503.43	16669.30
503.60	16929.09
503.78	16908.03
503.95	16788.66
504.13	16915.05
504.30	17191.23
504.48	17149.11
504.65	17057.82
504.83	17315.28
505.01	17355.07
505.18	17427.63
505.36	17642.96
505.53	17350.39
505.71	17476.78
505.88	17523.59
506.06	17486.14
506.23	17446.35
506.41	17858.29
506.58	17738.92
506.76	17682.75
506.93	17902.76
507.11	17860.63
507.28	17820.84
507.46	17954.25
507.63	17774.03
507.81	18253.84
507.98	18192.98
508.16	18218.73
508.33	18237.45
508.50	18504.28
508.68	18204.69
508.85	18530.02
509.03	18506.62
509.20	18593.22
509.38	18827.27
509.55	18686.84
509.73	18326.39
509.90	19023.87
510.08	18670.45
510.25	18600.24
510.42	18855.36
510.60	18750.03
510.77	19208.78
510.95	19215.80
511.12	18988.77
511.30	19124.52
511.47	19161.97
511.64	19433.47
511.82	19599.65
511.99	19527.09
512.17	19360.91
512.34	19648.80
512.51	19527.09
512.69	19442.83
512.86	19768.16
513.04	19503.68
513.21	19730.72
513.38	19810.29
513.56	19936.68
513.73	19810.29
513.90	20093.50
514.08	19786.89
514.25	19908.60
514.43	20067.75
514.60	20226.91
514.77	19999.88
514.95	20266.70
515.12	19988.18
515.29	20304.15
515.47	20182.44
515.64	20517.14
515.81	20482.03
515.99	20449.26
516.16	21046.10
516.33	20542.88
516.51	20772.25
516.68	20688.00
516.85	21003.97
517.03	20908.01
517.20	20884.60
517.37	20996.95
517.54	21118.65
517.72	21179.51
517.89	21097.59
518.06	21149.08
518.24	21090.57
518.41	20795.66
518.58	21242.70
518.75	20945.45
518.93	20982.90
519.10	21198.23
519.27	21465.05
519.45	21263.77
519.62	21310.58
519.79	21504.84
519.96	21488.46
520.14	21600.80
520.31	21685.06
520.48	21823.16
520.65	21839.54
520.83	21703.79
521.00	22040.82
521.17	22045.51
521.34	21965.93
521.52	22022.10
521.69	21979.97
521.86	22019.76
522.03	22204.66
522.20	22015.08
522.38	22518.29
522.55	22270.20
522.72	22342.75
522.89	22216.36
523.07	22883.42
523.24	22618.94
523.41	22527.66
523.58	22190.62
523.75	22871.72
523.92	22576.81
524.10	22902.14
524.27	22630.64
524.44	22862.35
524.61	22663.41
524.78	23075.34
524.96	22801.50
525.13	22944.27
525.30	23246.20
525.47	22841.29
525.64	22918.53
525.81	23094.07
525.98	23112.79
526.16	23131.51
526.33	23498.98
526.50	23531.75
526.67	23194.71
526.84	23358.55
527.01	23178.33
527.18	23335.14
527.36	23608.98
527.53	23559.83
527.70	23847.72
527.87	23868.78
528.04	23655.79
528.21	23405.36
528.38	23683.88
528.55	23412.38
528.72	23711.97
528.89	23999.85
529.07	23931.98
529.24	23538.77
529.41	24079.43
529.58	24187.10
529.75	23866.44
529.92	24037.30
530.09	24233.91
530.26	24023.26
530.43	24114.54
530.60	24002.19
530.77	24470.30
530.94	24137.94
531.11	24229.23
531.28	24144.97
531.46	24367.32
531.63	24451.58
531.80	24734.78
531.97	24379.02
532.14	24779.25
532.31	24608.39
532.48	24755.85
532.65	24748.82
532.82	24519.45
532.99	24870.53
533.16	24898.62
533.33	24837.76
533.50	25254.38
533.67	25027.35
533.84	24774.57
534.01	24664.57
534.18	24425.83
534.35	25151.40
534.52	25221.61
534.69	25006.28
534.86	25268.42
535.03	25067.14
535.20	25254.38
535.37	25336.30
535.54	25113.95
535.71	24947.77
535.88	25118.63
536.05	25275.45
536.22	25460.35
536.38	25570.35
536.55	25436.94
536.72	25287.15
536.89	25287.15
537.06	25378.43
537.23	25853.56
537.40	25710.78
537.57	25235.66
537.74	25984.63
537.91	26019.74
538.08	25666.31
538.25	25762.28
538.42	25869.94
538.59	25759.94
538.75	25731.85
538.92	25905.05
539.09	26122.72
539.26	25848.88
539.43	25914.41
539.60	26106.34
539.77	26052.50
539.94	26466.78
540.11	25935.48
540.28	25907.39
540.44	26312.30
540.61	26235.06
540.78	26204.64
540.95	26279.54
541.12	26057.18
541.29	26368.48
541.46	26436.35
541.62	26291.24
541.79	26366.13
541.96	26101.65
542.13	26431.67
542.30	26295.92
542.47	26735.94
542.63	26841.26
542.80	26522.95
542.97	26855.31
543.14	26771.05
543.31	26675.09
543.48	26672.74
543.64	27159.58
543.81	27267.24
543.98	26946.59
544.15	26988.72
544.32	27288.31
544.48	27218.09
544.65	27178.30
544.82	26925.52
544.99	26969.99
545.16	27152.55
545.32	27091.70
545.49	27201.71
545.66	27644.07
545.83	27468.53
546.00	27330.44
546.16	27491.93
546.33	27391.29
546.50	27108.08
546.67	27358.52
546.83	27227.45
547.00	27536.40
547.17	27414.69
547.34	27494.27
547.50	27803.22
547.67	28023.23
547.84	27246.18
548.00	27744.71
548.17	28011.53
548.34	27718.96
548.51	27845.35
548.67	27835.99
548.84	27545.76
549.01	27906.21
549.18	27754.07
549.34	27721.30
549.51	27615.98
549.68	28079.41
549.84	27812.59
550.01	27962.38
550.18	28060.68
550.34	28013.87
550.51	28264.31
550.68	28556.88
550.84	27899.19
551.01	28477.30
551.18	28170.69
551.34	27976.42
551.51	28187.07
551.68	28584.96
551.84	28290.06
552.01	28496.02
552.18	28397.72
552.34	28240.90
552.51	28388.36
552.68	28437.51
552.84	28243.24
553.01	28643.48
553.18	28477.30
553.34	28701.99
553.51	28446.87
553.67	28994.56
553.84	28659.86
554.01	28542.83
554.17	28512.41
554.34	28645.82
554.51	28596.67
554.67	28802.63
554.84	28938.38
555.00	28650.50
555.17	28816.68
555.33	28947.75
555.50	28608.37
555.67	28889.23
555.83	28734.76
556.00	28783.91
556.16	29331.59
556.33	28870.51
556.50	28819.02
556.66	28767.52
556.83	29039.03
556.99	29200.52
557.16	29270.74
557.32	29036.69
557.49	29106.90
557.65	29127.97
557.82	29181.80
557.98	29280.10
558.15	29167.76
558.32	29420.53
558.48	29415.85
558.65	29340.96
558.81	29322.23
558.98	29315.21
559.14	29069.45
559.31	29090.52
559.47	29425.22
559.64	29385.43
559.80	29443.94
559.97	29237.97
560.13	29378.40
560.30	29434.58
560.46	29558.63
560.63	29488.41
560.79	29619.48
560.96	29553.94
561.12	29371.38
561.29	29668.63
561.45	29340.96
561.61	29642.88
561.78	30024.39
561.94	29984.60
562.11	30148.44
562.27	29565.65
562.44	29439.26
562.60	29600.76
562.77	29537.56
562.93	29228.61
563.10	29930.77
563.26	29666.29
563.42	30033.75
563.59	29832.47
563.75	29713.10
563.92	29876.94
564.08	29762.25
564.24	29516.50
564.41	29811.40
564.57	29748.21
564.74	29972.90
564.90	29776.30
565.07	29525.86
565.23	30141.42
565.39	29827.79
565.56	30099.29
565.72	29949.50
565.88	29872.26
566.05	30033.75
566.21	29436.92
566.38	30127.38
566.54	29853.53
566.70	30235.04
566.87	30031.41
567.03	30408.24
567.19	30270.15
567.36	30260.79
567.52	29933.11
567.68	30155.46
567.85	30073.54
568.01	30604.84
568.17	30017.37
568.34	30153.12
568.50	30342.70
568.66	30611.87
568.83	30363.77
568.99	30335.68
569.15	30087.59
569.32	29977.58
569.48	29780.98
569.64	30176.53
569.81	30396.54
569.97	30558.03
570.13	30600.16
570.30	30188.23
570.46	30169.51
570.62	30181.21
570.78	29818.42
570.95	29771.61
571.11	30206.95
571.27	29986.94
571.43	30022.05
571.60	30237.38
571.76	29858.21
571.92	30302.92
572.09	30195.25
572.25	30199.93
572.41	30551.01
572.57	30153.12
572.74	30623.57
572.90	30293.55
573.06	29951.84
573.22	30155.46
573.38	30398.88
573.55	30146.10
573.71	30609.53
573.87	30515.90
574.03	30672.72
574.20	30298.23
574.36	30000.99
574.52	30499.52
574.68	30230.36
574.84	30307.60
575.01	30377.81
575.17	30513.56
575.33	30174.19
575.49	30059.50
575.65	30705.49
575.82	30497.18
575.98	30625.91
576.14	30464.41
576.30	30410.58
576.46	30270.15
576.62	30328.66
576.79	30412.92
576.95	30321.64
577.11	30644.63
577.27	30508.88
577.43	30881.03
577.59	30906.77
577.75	30038.44
577.92	30192.91
578.08	30609.53
578.24	30309.94
578.40	30218.66
578.56	30541.65
578.72	30293.55
578.88	30888.05
579.04	30824.86
579.21	30361.43
579.37	30380.15
579.53	30710.17
579.69	30300.58
579.85	30384.83
580.01	30625.91
580.17	30405.90
580.33	30515.90
580.49	30602.50
580.65	30710.17
580.82	30859.96
580.98	30785.07
581.14	30508.88
581.30	30771.02
581.46	30455.05
581.62	30775.70
581.78	30272.49
581.94	30663.36
582.10	30354.41
582.26	30569.74
582.42	30508.88
582.58	30843.58
582.74	30689.10
582.90	30684.42
583.06	30815.49
583.22	30450.37
583.38	30707.83
583.54	30775.70
583.70	30752.30
583.86	30625.91
584.02	30321.64
584.18	30749.96
584.34	30808.47
584.50	31105.72
584.66	30803.79
584.82	30719.53
584.98	30618.89
585.14	30527.61
585.30	30529.95
585.46	30820.17
585.62	30260.79
585.78	30462.07
585.94	30277.17
586.10	30815.49
586.26	30370.79
586.42	31211.04
586.58	30869.33
586.74	30703.15
586.90	30515.90
587.06	30377.81
587.22	30595.48
587.38	30527.61
587.54	30778.04
587.70	30572.08
587.86	30941.88
588.02	30876.35
588.18	31105.72
588.34	30764.00
588.49	30773.36
588.65	30717.19
588.81	30333.34
588.97	30883.37
589.13	30731.23
589.29	30698.47
589.45	31005.08
589.61	31110.40
589.77	31253.17
589.93	31222.75
590.08	31248.49
590.24	31278.92
590.40	30974.65
590.56	31044.87
590.72	31522.34
590.88	30836.56
591.04	30639.95
591.20	31117.42
591.35	31173.60
591.51	31447.44
591.67	31056.57
591.83	31126.78
591.99	31377.22
592.15	30965.29
592.31	31283.60
592.46	31068.27
592.62	31402.97
592.78	30838.90
592.94	30883.37
593.10	31012.10
593.26	31131.47
593.41	31407.65
593.57	31321.05
593.73	31079.97
593.89	31136.15
594.05	30932.52
594.20	31370.20
594.36	31386.58
594.52	31159.55
594.68	31248.49
594.84	30799.11
594.99	31381.90
595.15	31129.12
595.31	31449.78
595.47	31180.62
595.62	31393.61
595.78	31353.82
595.94	31051.89
596.10	31454.46
596.25	30920.82
596.41	30883.37
596.57	30780.39
596.73	31323.39
596.88	31115.08
597.04	31585.53
597.20	31421.69
597.36	31248.49
597.51	31655.75
597.67	30918.48
597.83	31424.03
597.99	31304.67
598.14	30944.22
598.30	31103.38
598.46	31016.78
598.61	31566.81
598.77	31311.69
598.93	31281.26
599.09	31580.85
599.24	31597.23
599.40	31398.29
599.56	31241.47
599.71	31758.73
599.87	31419.35
600.03	31077.63
600.18	31204.02
600.34	31372.54
600.50	31236.79
600.65	31068.27
600.81	31821.92
600.97	31407.65
601.12	31578.51
601.28	31339.77
601.44	31454.46
601.59	31260.20
601.75	31283.60
601.91	31421.69
602.06	31370.20
602.22	30974.65
602.37	31253.17
602.53	31386.58
602.69	31197.00
602.84	31351.48
603.00	31491.91
603.16	31718.94
603.31	31524.68
603.47	31192.32
603.62	31047.21
603.78	31115.08
603.94	31145.51
604.09	31440.42
604.25	30969.97
604.40	31482.55
604.56	31372.54
604.71	31545.74
604.87	31592.55
605.03	31484.89
605.18	31171.25
605.34	31094.02
605.49	31021.46
605.65	31267.22
605.80	30909.11
605.96	31510.63
606.12	31138.49
606.27	31538.72
606.43	31285.94
606.58	31391.26
606.74	31285.94
606.89	31201.68
607.05	31662.77
607.20	31536.38
607.36	31192.32
607.51	31311.69
607.67	31166.57
607.82	30864.64
607.98	31166.57
608.13	31372.54
608.29	31377.22
608.44	31227.43
608.60	31056.57
608.75	31206.36
608.91	31065.93
609.06	31342.11
609.22	31630.00
609.37	30824.86
609.53	31042.53
609.68	31051.89
609.84	30761.66
609.99	30930.18
610.15	31316.37
610.30	31070.61
610.46	31077.63
610.61	31215.72
610.76	31236.79
610.92	31007.42
611.07	30771.02
611.23	30859.96
611.38	30955.93
611.54	30934.86
611.69	30749.96
611.84	30347.39
612.00	30536.97
612.15	30593.14
612.31	31229.77
612.46	30864.64
612.62	31353.82
612.77	31082.31
612.92	30822.51
613.08	31070.61
613.23	30899.75
613.39	30735.92
613.54	30726.55
613.69	30768.68
613.85	30740.60
614.00	30937.20
614.15	30710.17
614.31	30703.15
614.46	30958.27
614.62	30756.98
614.77	31037.84
614.92	30927.84
615.08	30756.98
615.23	30494.84
615.38	30323.98
615.54	30293.55
615.69	30728.89
615.84	30455.05
616.00	30808.47
616.15	30490.16
616.30	30836.56
616.46	30480.80
616.61	30345.05
616.76	30815.49
616.92	30724.21
617.07	30913.80
617.22	30590.80
617.37	30239.72
617.53	30965.29
617.68	30176.53
617.83	30506.54
617.99	30270.15
618.14	30246.74
618.29	30349.73
618.45	30319.30
618.60	30050.14
618.75	30101.63
618.90	30277.17
619.06	30429.30
619.21	30202.27
619.36	30307.60
619.51	30071.20
619.67	29876.94
619.82	30150.78
619.97	30326.32
620.12	30206.95
620.28	29984.60
620.43	30270.15
620.58	30211.64
620.73	30298.23
620.89	29921.41
621.04	30590.80
621.19	30218.66
621.34	29989.28
621.49	30202.27
621.65	30352.07
621.80	30412.92
621.95	30061.84
622.10	29926.09
622.25	30150.78
622.41	30003.33
622.56	30277.17
622.71	30295.89
622.86	29788.00
623.01	30068.86
623.16	30096.95
623.32	29898.00
623.47	29963.54
623.62	29846.51
623.77	29954.18
623.92	29792.68
624.07	29647.57
624.23	29834.81
624.38	29652.25
624.53	29710.76
624.68	29937.79
624.83	29968.22
624.98	29701.40
625.13	29795.02
625.29	29696.72
625.44	29607.78
625.59	29270.74
625.74	29488.41
625.89	29647.57
626.04	29160.73
626.19	29591.39
626.34	29862.90
626.49	29343.30
626.65	29413.51
626.80	29472.03
626.95	29640.54
627.10	29188.82
627.25	29280.10
627.40	28924.34
627.55	29193.50
627.70	29338.62
627.85	29153.71
628.00	29319.89
628.15	29273.08
628.30	28882.21
628.45	29085.84
628.60	29188.82
628.76	29092.86
628.91	29102.22
629.06	29593.73
629.21	29280.10
629.36	29151.37
629.51	28938.38
629.66	28802.63
629.81	28772.21
629.96	28907.96
630.11	28980.51
630.26	29104.56
630.41	29102.22
630.56	28664.54
630.71	28900.94
630.86	28814.34
631.01	28982.85
631.16	28840.08
631.31	28886.89
631.46	28865.83
631.61	28929.02
631.76	28828.38
631.91	28992.22
632.06	28774.55
632.21	28926.68
632.36	28952.43
632.51	28786.25
632.66	28912.64
632.81	28739.44
632.96	28900.94
633.10	28538.15
633.25	28596.67
633.40	28610.71
633.55	28891.57
633.70	28231.54
633.85	28381.34
634.00	28847.10
634.15	28432.83
634.30	28552.20
634.45	28437.51
634.60	28147.28
634.75	28725.39
634.90	28460.91
635.05	29024.98
635.19	28498.36
635.34	28755.82
635.49	28936.04
635.64	28755.82
635.79	28547.51
635.94	28636.45
636.09	28493.68
636.24	28400.06
636.39	27931.95
636.53	28273.67
636.68	28280.69
636.83	28023.23
636.98	28201.11
637.13	28311.12
637.28	28257.29
637.43	28416.44
637.57	28257.29
637.72	27789.18
637.87	27992.81
638.02	28208.14
638.17	28261.97
638.32	27821.95
638.46	27821.95
638.61	27608.96
638.76	28261.97
638.91	28018.55
639.06	27875.78
639.20	27807.90
639.35	28109.83
639.50	28039.62
639.65	28449.21
639.80	28180.05
639.94	28032.60
640.09	27988.13
640.24	28304.10
640.39	27934.29
640.54	27651.09
640.68	27466.19
640.83	28046.64
640.98	27742.37
641.13	27974.08
641.27	27747.05
641.42	27648.75
641.57	27765.78
641.72	27517.68
641.86	27597.26
642.01	27620.66
642.16	27784.50
642.31	27538.74
642.45	27559.81
642.60	27503.64
642.75	27190.00
642.90	27353.84
643.04	27641.73
643.19	27428.74
643.34	27339.80
643.48	27742.37
643.63	27723.65
643.78	27215.75
643.93	27688.54
644.07	27473.21
644.22	27630.02
644.37	27548.11
644.51	27653.43
644.66	27461.51
644.81	27005.10
644.95	27119.79
645.10	27208.73
645.25	27232.13
645.39	27395.97
645.54	27241.50
645.69	27080.00
645.83	27030.85
645.98	26984.04
646.13	27307.03
646.27	27257.88
646.42	27264.90
646.57	27255.54
646.71	27243.84
646.86	26962.97
647.00	27108.08
647.15	26920.84
647.30	26902.12
647.44	27037.87
647.59	26897.44
647.74	27080.00
647.88	26684.45
648.03	27040.21
648.17	26897.44
648.32	27119.79
648.47	27201.71
648.61	26958.29
648.76	27260.22
648.90	27131.49
649.05	27019.14
649.20	26775.73
649.34	26473.80
649.49	26719.56
649.63	26780.41
649.78	26778.07
649.92	26579.12
650.07	27000.42
650.21	26986.38
650.36	26766.37
650.51	26377.84
650.65	26595.51
650.80	26775.73
650.94	26469.12
651.09	26494.86
651.23	26506.57
651.38	26192.94
651.52	26658.70
651.67	26546.36
651.81	26309.96
651.96	26450.39
652.10	26621.25
652.25	26609.55
652.39	26757.00
652.54	26703.17
652.68	26829.56
652.83	26761.69
652.97	26602.53
653.12	26616.57
653.26	26356.77
653.41	26506.57
653.55	26246.77
653.70	26253.79
653.84	26382.52
653.99	26267.83
654.13	26291.24
654.27	26094.63
654.42	25958.88
654.56	26157.83
654.71	25958.88
654.85	26108.68
655.00	26647.00
655.14	26216.34
655.29	26085.27
655.43	26001.01
655.57	26155.49
655.72	25991.65
655.86	25947.18
656.01	26169.53
656.15	25926.11
656.30	25860.58
656.44	25846.54
656.58	26197.62
656.73	25888.67
656.87	26012.71
657.01	26459.76
657.16	26228.04
657.30	25865.26
657.45	26249.11
657.59	25806.75
657.73	25638.23
657.88	25921.43
658.02	25422.90
658.16	25790.36
658.31	25872.28
658.45	25722.49
658.60	25404.17
658.74	25605.46
658.88	25446.30
659.03	25694.40
659.17	25755.26
659.31	25666.31
659.46	25675.68
659.60	25806.75
659.74	25568.01
659.89	25549.29
660.03	25378.43
660.17	25317.57
660.32	25092.88
660.46	24973.52
660.60	25256.72
660.74	25291.83
660.89	25116.29
661.03	24812.02
661.17	25111.61
661.32	25221.61
661.46	25120.97
661.60	25120.97
661.74	25401.83
661.89	25270.76
662.03	25013.31
662.17	24830.74
662.31	25053.09
662.46	25020.33
662.60	25083.52
662.74	24767.55
662.88	24718.40
663.03	24690.31
663.17	24755.85
663.31	24545.20
663.45	24404.77
663.60	24678.61
663.74	24383.70
663.88	24596.69
664.02	24367.32
664.17	24898.62
664.31	24783.93
664.45	24313.48
664.59	24355.61
664.73	24982.88
664.88	24369.66
665.02	24276.04
665.16	23854.74
665.30	24063.05
665.44	24030.28
665.59	24301.78
665.73	24098.16
665.87	24151.99
666.01	24149.65
666.15	24219.86
666.29	23850.06
666.44	24056.03
666.58	23723.67
666.72	24037.30
666.86	24208.16
667.00	24236.25
667.14	23971.77
667.28	23733.03
667.43	23428.76
667.57	23929.64
667.71	23688.56
667.85	23683.88
667.99	23632.39
668.13	23772.82
668.27	23573.88
668.41	23716.65
668.56	23426.42
668.70	23716.65
668.84	23711.97
668.98	23447.49
669.12	23318.76
669.26	23875.80
669.40	23213.43
669.54	23396.00
669.68	23288.33
669.82	23157.26
669.96	23124.49
670.10	22874.06
670.25	23056.62
670.39	22923.21
670.53	22855.33
670.67	22450.42
670.81	23133.86
670.95	23122.15
671.09	22923.21
671.23	22562.76
671.37	23089.38
671.51	23503.66
671.65	22806.18
671.79	22499.57
671.93	22934.91
672.07	22677.45
672.21	22616.60
672.35	22209.34
672.49	22253.81
672.63	22457.44
672.77	22082.95
672.91	22267.86
673.05	22216.36
673.19	22537.02
673.33	21998.70
673.47	22232.75
673.61	22555.74
673.75	22082.95
673.89	22211.68
674.03	22167.21
674.17	21750.60
674.31	22015.08
674.45	21776.34
674.59	22026.78
674.73	22012.74
674.87	22015.08
675.01	21827.84
675.15	21439.31
675.29	21401.86
675.43	21341.00
675.56	21406.54
675.70	21708.47
675.84	21401.86
675.98	20936.09
676.12	21486.12
676.26	21537.61
676.40	21668.68
676.54	21195.89
676.68	21406.54
676.82	20828.43
676.96	20968.86
677.10	20896.30
677.23	20751.19
677.37	20833.11
677.51	20673.95
677.65	20348.62
677.79	20458.62
677.93	20545.22
678.07	20505.43
678.21	20648.21
678.34	20439.90
678.48	20512.46
678.62	20732.47
678.76	20407.13
678.90	20332.23
679.04	20414.15
679.18	20313.51
679.31	19988.18
679.45	19810.29
679.59	19826.68
679.73	19887.53
679.87	19810.29
680.00	19620.71
680.14	19491.98
680.28	19318.78
680.42	19632.41
680.56	19805.61
680.70	19447.51
680.83	19587.94
680.97	19428.79
681.11	19491.98
681.25	18934.93
681.39	19531.77
681.52	19218.14
681.66	19197.07
681.80	18822.59
681.94	18860.04
682.07	18897.49
682.21	18782.80
682.35	18492.57
682.49	18841.31
682.62	18494.91
682.76	18494.91
682.90	18663.43
683.04	18354.48
683.17	18768.76
683.31	18752.37
683.45	18663.43
683.59	18705.56
683.72	18221.07
683.86	18043.19
684.00	18054.89
684.13	17916.80
684.27	18129.79
684.41	17914.46
684.55	17893.40
684.68	17834.88
684.82	17500.19
684.96	17568.06
685.09	17652.32
685.23	17731.90
685.37	17593.81
685.50	17827.86
685.64	17846.58
685.78	17462.74
685.91	17593.81
686.05	17771.69
686.19	17167.83
686.32	17500.19
686.46	17041.44
686.60	16849.52
686.73	17085.91
686.87	17027.40
687.01	16933.78
687.14	16886.97
687.28	16655.25
687.42	16739.51
687.55	16730.15
687.69	16386.09
687.82	16259.70
687.96	16606.10
688.10	16526.52
688.23	16641.21
688.37	16341.62
688.50	16636.53
688.64	16418.86
688.78	16163.74
688.91	16236.30
689.05	16128.63
689.18	16219.91
689.32	15946.07
689.46	15707.34
689.59	16121.61
689.73	15875.85
689.86	15915.64
690.00	15683.93
690.13	15634.78
690.27	15964.79
690.41	15611.37
690.54	15772.87
690.68	15489.67
690.81	15440.51
690.95	15470.94
691.08	15410.09
691.22	15536.48
691.35	15489.67
691.49	15424.13
691.62	15295.40
691.76	15166.67
691.89	14714.95
692.03	14916.23
692.16	14951.34
692.30	14906.87
692.43	14597.92
692.57	14457.49
692.70	14705.59
692.84	14867.08
692.97	14382.59
693.11	14361.53
693.24	14398.98
693.38	14359.19
693.51	14499.62
693.65	14373.23
693.78	14305.35
693.92	14171.94
694.05	14164.92
694.19	14207.05
694.32	13937.89
694.45	13820.86
694.59	13839.59
694.72	13949.59
694.86	13640.64
694.99	13551.70
695.13	13743.63
695.26	13603.19
695.39	13556.38
695.53	13446.38
695.66	13591.49
695.80	13657.03
695.93	13565.74
696.07	13664.05
696.20	13378.50
696.33	13336.37
696.47	13338.71
696.60	13165.51
696.73	13284.88
696.87	13107.00
697.00	12947.84
697.14	13039.12
697.27	12662.30
697.40	12807.41
697.54	12786.35
697.67	12695.07
697.80	12751.24
697.94	12535.91
698.07	12573.36
698.21	12358.03
698.34	12720.81
698.47	12695.07
698.61	12716.13
698.74	12615.49
698.87	12472.71
699.01	12276.11
699.14	12318.24
699.27	12009.29
699.40	12266.75
699.54	12006.95
699.67	11906.31
699.80	11967.16
699.94	11880.56
700.07	11889.92
700.20	11700.34
700.34	11386.71
700.47	11477.99
700.60	11620.76
700.73	11356.28
700.87	11555.22
701.00	11541.18
701.13	11550.54
701.26	11571.61
701.40	11461.60
701.53	11307.13
701.66	11489.69
701.79	11063.71
701.93	11349.26
702.06	11002.86
702.19	11047.33
702.32	11091.80
702.46	10850.72
702.59	10794.55
702.72	10883.49
702.85	10841.36
702.99	10661.14
703.12	10977.11
703.25	10429.43
703.38	10501.98
703.51	10726.68
703.65	10420.06
703.78	10595.61
703.91	10464.54
704.04	10427.09
704.17	10684.55
704.31	10572.20
704.44	10370.91
704.57	10113.45
704.70	10162.61
704.83	10076.01
704.96	9996.43
705.10	9951.96
705.23	9860.68
>>>>>End Processed Spectral Data<<<<<
