SpectraSuite Data File
++++++++++++++++++++++++++++++++++++
Date: Fri Oct 18 13:58:35 GMT-05:00 2013
User: bianchi
Dark Spectrum Present: No
Reference Spectrum Present: No
Number of Sampled Component Spectra: 1
Spectrometers: USB2+H05261
Integration Time (usec): 50000 (USB2+H05261)
Spectra Averaged: 1 (USB2+H05261)
Boxcar Smoothing: 0 (USB2+H05261)
Correct for Electrical Dark: No (USB2+H05261)
Strobe/Lamp Enabled: No (USB2+H05261)
Correct for Detector Non-linearity: No (USB2+H05261)
Correct for Stray Light: No (USB2+H05261)
Number of Pixels in Processed Spectrum: 2048
>>>>>Begin Processed Spectral Data<<<<<
365.73	0.00
365.92	0.00
366.12	0.00
366.32	0.00
366.52	0.00
366.72	0.00
366.91	0.00
367.11	0.00
367.31	0.00
367.51	0.00
367.70	0.00
367.90	0.00
368.10	0.00
368.30	0.00
368.49	0.00
368.69	0.00
368.89	0.00
369.09	0.00
369.28	0.00
369.48	0.00
369.68	0.00
369.87	0.00
370.07	0.00
370.27	0.00
370.47	0.00
370.66	95.96
370.86	56.17
371.06	133.41
371.25	142.77
371.45	173.20
371.65	128.73
371.84	119.37
372.04	191.92
372.24	105.32
372.44	117.03
372.63	152.13
372.83	227.03
373.03	191.92
373.22	156.82
373.42	220.01
373.62	159.16
373.81	163.84
374.01	208.31
374.21	215.33
374.40	248.10
374.60	222.35
374.79	287.89
374.99	250.44
375.19	152.13
375.38	269.16
375.58	308.95
375.78	250.44
375.97	285.55
376.17	248.10
376.37	351.08
376.56	292.57
376.76	248.10
376.95	255.12
377.15	227.03
377.35	297.25
377.54	341.72
377.74	304.27
377.93	203.63
378.13	325.33
378.33	220.01
378.52	220.01
378.72	308.95
378.91	313.63
379.11	266.82
379.31	327.68
379.50	320.65
379.70	259.80
379.89	287.89
380.09	315.97
380.28	259.80
380.48	320.65
380.68	273.84
380.87	362.78
381.07	255.12
381.26	297.25
381.46	315.97
381.65	287.89
381.85	330.02
382.04	257.46
382.24	313.63
382.43	348.74
382.63	299.59
382.83	362.78
383.02	348.74
383.22	346.40
383.41	367.46
383.61	341.72
383.80	374.49
384.00	365.12
384.19	381.51
384.39	360.44
384.58	362.78
384.78	341.72
384.97	421.30
385.17	292.57
385.36	418.96
385.56	372.15
385.75	386.19
385.95	341.72
386.14	416.62
386.34	369.80
386.53	330.02
386.72	421.30
386.92	498.53
387.11	367.46
387.31	433.00
387.50	395.55
387.70	409.59
387.89	479.81
388.09	337.04
388.28	435.34
388.48	435.34
388.67	433.00
388.86	416.62
389.06	517.26
389.25	524.28
389.45	444.70
389.64	393.21
389.84	470.45
390.03	395.55
390.22	454.06
390.42	390.87
390.61	547.69
390.81	458.74
391.00	484.49
391.19	479.81
391.39	484.49
391.58	528.96
391.78	477.47
391.97	454.06
392.16	498.53
392.36	498.53
392.55	540.66
392.75	582.79
392.94	571.09
393.13	538.32
393.33	514.92
393.52	496.19
393.71	610.88
393.91	566.41
394.10	580.45
394.29	594.50
394.49	531.30
394.68	554.71
394.88	578.11
395.07	540.66
395.26	629.60
395.46	634.29
395.65	538.32
395.84	660.03
396.04	655.35
396.23	706.84
396.42	643.65
396.62	622.58
396.81	627.26
397.00	589.82
397.19	648.33
397.39	660.03
397.58	615.56
397.77	641.31
397.97	732.59
398.16	566.41
398.35	716.20
398.55	688.12
398.74	617.90
398.93	713.86
399.12	720.88
399.32	688.12
399.51	739.61
399.70	685.78
399.90	713.86
400.09	688.12
400.28	765.36
400.47	751.31
400.67	800.46
400.86	753.65
401.05	770.04
401.24	856.64
401.44	788.76
401.63	770.04
401.82	882.38
402.01	830.89
402.21	784.08
402.40	842.59
402.59	837.91
402.78	833.23
402.97	802.80
403.17	821.53
403.36	842.59
403.55	896.43
403.74	877.70
403.93	910.47
404.13	964.30
404.32	938.55
404.51	938.55
404.70	957.28
404.89	926.85
405.09	966.64
405.28	980.68
405.47	1013.45
405.66	957.28
405.85	994.73
406.05	1039.20
406.24	973.66
406.43	990.05
406.62	1053.24
406.81	1043.88
407.00	983.02
407.20	994.73
407.39	1008.77
407.58	1064.94
407.77	1015.79
407.96	1050.90
408.15	1104.73
408.34	1076.65
408.54	1090.69
408.73	1071.97
408.92	1071.97
409.11	1114.10
409.30	1123.46
409.49	1032.18
409.68	1100.05
409.87	1191.33
410.07	1144.52
410.26	1111.75
410.45	1116.44
410.64	1137.50
410.83	1273.25
411.02	1238.14
411.21	1296.66
411.40	1263.89
411.59	1249.85
411.78	1174.95
411.98	1235.80
412.17	1228.78
412.36	1247.51
412.55	1348.15
412.74	1277.93
412.93	1350.49
413.12	1345.81
413.31	1362.19
413.50	1420.71
413.69	1366.87
413.88	1467.52
414.07	1460.49
414.26	1519.01
414.45	1371.55
414.64	1425.39
414.83	1521.35
415.02	1476.88
415.22	1460.49
415.41	1621.99
415.60	1451.13
415.79	1462.83
415.98	1502.62
416.17	1577.52
416.36	1434.75
416.55	1631.35
416.74	1659.44
416.93	1610.29
417.12	1671.14
417.31	1619.65
417.50	1650.08
417.69	1755.40
417.88	1713.27
418.07	1694.55
418.26	1746.04
418.45	1795.19
418.64	1886.47
418.83	1818.60
419.02	1839.66
419.21	1806.89
419.39	1792.85
419.58	1825.62
419.77	1802.21
419.96	1856.04
420.15	1923.92
420.34	1895.83
420.53	1839.66
420.72	1898.17
420.91	2003.50
421.10	1912.22
421.29	1867.75
421.48	1884.13
421.67	1973.07
421.86	1940.30
422.05	2017.54
422.24	1832.64
422.43	1895.83
422.61	1905.20
422.80	1963.71
422.99	1980.09
423.18	2019.88
423.37	2078.40
423.56	2026.90
423.75	2031.58
423.94	2062.01
424.13	1783.49
424.32	1881.79
424.50	2031.58
424.69	2094.78
424.88	2122.87
425.07	2092.44
425.26	1940.30
425.45	2005.84
425.64	2150.95
425.83	1987.11
426.01	2122.87
426.20	1966.05
426.39	2172.02
426.58	2062.01
426.77	2040.95
426.96	2146.27
427.15	2129.89
427.33	2122.87
427.52	2036.27
427.71	1968.39
427.90	2190.74
428.09	2160.31
428.28	2169.68
428.46	2155.63
428.65	2256.28
428.84	2279.68
429.03	2244.57
429.22	2195.42
429.40	2277.34
429.59	2253.94
429.78	2207.13
429.97	2125.21
430.16	2153.29
430.34	2228.19
430.53	2223.51
430.72	2361.60
430.91	2223.51
431.10	2361.60
431.28	2422.45
431.47	2408.41
431.66	2422.45
431.85	2361.60
432.03	2403.73
432.22	2359.26
432.41	2396.71
432.60	2349.90
432.79	2415.43
432.97	2438.84
433.16	2483.31
433.35	2513.74
433.54	2555.86
433.72	2586.29
433.91	2548.84
434.10	2511.39
434.28	2511.39
434.47	2612.04
434.66	2576.93
434.85	2647.15
435.03	2651.83
435.22	2518.42
435.41	2686.94
435.59	2654.17
435.78	2661.19
435.97	2597.99
436.16	2544.16
436.34	2516.08
436.53	2675.23
436.72	2661.19
436.90	2633.10
437.09	2740.77
437.28	2691.62
437.46	2750.13
437.65	2717.36
437.84	2862.48
438.02	2747.79
438.21	2881.20
438.40	2715.02
438.58	2878.86
438.77	2904.60
438.96	2775.88
439.14	2794.60
439.33	2878.86
439.52	2920.99
439.70	2911.63
439.89	3066.10
440.08	3012.27
440.26	2993.55
440.45	3089.51
440.63	2946.73
440.82	3082.49
441.01	3096.53
441.19	3063.76
441.38	3199.51
441.57	3133.98
441.75	3248.66
441.94	3227.60
442.12	3199.51
442.31	3290.79
442.50	3265.05
442.68	3251.00
442.87	3407.82
443.05	3372.71
443.24	3433.57
443.43	3318.88
443.61	3400.80
443.80	3452.29
443.98	3325.90
444.17	3349.31
444.35	3454.63
444.54	3478.04
444.73	3527.19
444.91	3356.33
445.10	3487.40
445.28	3337.60
445.47	3321.22
445.65	3522.51
445.84	3557.61
446.02	3417.18
446.21	3386.76
446.39	3440.59
446.58	3412.50
446.77	3496.76
446.95	3368.03
447.14	3379.73
447.32	3562.30
447.51	3543.57
447.69	3534.21
447.88	3396.12
448.06	3424.20
448.25	3428.88
448.43	3384.41
448.62	3492.08
448.80	3475.70
448.99	3468.67
449.17	3602.08
449.36	3489.74
449.54	3655.92
449.73	3651.24
449.91	3693.37
450.10	3758.90
450.28	3777.62
450.46	3878.27
450.65	3721.45
450.83	3815.07
451.02	3653.58
451.20	3824.44
451.39	3761.24
451.57	3875.93
451.76	3751.88
451.94	3716.77
452.13	3737.84
452.31	3873.59
452.49	3674.64
452.68	3922.74
452.86	3817.41
453.05	3936.78
453.23	3971.89
453.42	3854.86
453.60	3913.38
453.78	4053.81
453.97	3866.56
454.15	3943.80
454.34	3899.33
454.52	3913.38
454.70	4004.66
454.89	3978.91
455.07	3999.98
455.26	4053.81
455.44	4065.51
455.62	4004.66
455.81	4112.32
455.99	4053.81
456.17	4025.72
456.36	4203.60
456.54	4112.32
456.73	4196.58
456.91	4208.28
457.09	4287.86
457.28	4196.58
457.46	4299.56
457.64	4510.21
457.83	4315.95
458.01	4283.18
458.19	4308.93
458.38	4496.17
458.56	4409.57
458.74	4337.01
458.93	4334.67
459.11	4456.38
459.29	4484.47
459.48	4348.72
459.66	4493.83
459.84	4444.68
460.03	4432.97
460.21	4493.83
460.39	4606.17
460.57	4416.59
460.76	4454.04
460.94	4610.86
461.12	4533.62
461.31	4463.40
461.49	4629.58
461.67	4655.33
461.85	4718.52
462.04	4613.20
462.22	4868.31
462.40	4678.73
462.59	4638.94
462.77	4615.54
462.95	4695.11
463.13	4610.86
463.32	4711.50
463.50	4800.44
463.68	4830.87
463.86	4863.63
464.05	4751.29
464.23	5013.43
464.41	4854.27
464.59	4765.33
464.78	5041.51
464.96	4959.60
465.14	4753.63
465.32	5057.90
465.50	4975.98
465.69	5048.54
465.87	4901.08
466.05	4978.32
466.23	4973.64
466.41	5041.51
466.60	5132.79
466.78	4966.62
466.96	5078.96
467.14	4943.21
467.32	5083.64
467.51	5203.01
467.69	4950.23
467.87	5062.58
468.05	5179.61
468.23	5097.69
468.41	5093.01
468.60	5195.99
468.78	5163.22
468.96	5195.99
469.14	5301.31
469.32	5430.04
469.50	5149.18
469.69	5198.33
469.87	5369.19
470.05	5509.62
470.23	5327.06
470.41	5408.98
470.59	5547.07
470.77	5284.93
470.95	5425.36
471.14	5530.69
471.32	5455.79
471.50	5570.48
471.68	5430.04
471.86	5575.16
472.04	5673.46
472.22	5914.53
472.40	5636.01
472.58	5643.03
472.77	5579.84
472.95	5841.98
473.13	5907.51
473.31	5834.96
473.49	5799.85
473.67	5832.62
473.85	5659.42
474.03	5916.87
474.21	6097.10
474.39	6106.46
474.57	5949.64
474.75	6258.59
474.93	6389.66
475.12	6005.81
475.30	6162.63
475.48	6202.42
475.66	6277.32
475.84	6284.34
476.02	6431.79
476.20	6204.76
476.38	6326.47
476.56	6483.28
476.74	6462.22
476.92	6527.75
477.10	6216.46
477.28	6527.75
477.46	6682.23
477.64	6789.89
477.82	6930.33
478.00	6899.90
478.18	6834.36
478.36	7183.10
478.54	6951.39
478.72	6942.03
478.90	7068.42
479.08	7225.23
479.26	7199.49
479.44	7365.67
479.62	7368.01
479.80	7194.81
479.98	7508.44
480.16	7461.63
480.34	7400.77
480.52	7756.54
480.70	7524.82
480.88	7665.25
481.06	7695.68
481.24	7740.15
481.41	7793.98
481.59	7913.35
481.77	8091.23
481.95	7887.61
482.13	7985.91
482.31	8039.74
482.49	8287.84
482.67	8217.62
482.85	8379.12
483.03	8353.37
483.21	8428.27
483.39	8601.47
483.57	8695.09
483.74	8547.64
483.92	8709.13
484.10	8491.46
484.28	8713.81
484.46	8968.93
484.64	9109.36
484.82	8889.35
485.00	9085.96
485.18	9130.43
485.35	9462.79
485.53	9376.19
485.71	9301.29
485.89	9645.35
486.07	9750.67
486.25	9467.47
486.43	9738.97
486.61	9790.46
486.78	9881.74
486.96	9872.38
487.14	9989.41
487.32	9977.70
487.50	9914.51
487.68	10303.04
487.85	10281.97
488.03	10394.32
488.21	10546.45
488.39	10588.58
488.57	10602.63
488.75	10644.76
488.92	10712.63
489.10	10937.32
489.28	10970.09
489.46	11117.54
489.64	11145.63
489.81	11166.70
489.99	11290.74
490.17	11119.89
490.35	11515.44
490.53	11419.47
490.70	11482.67
490.88	11552.88
491.06	11676.93
491.24	11442.88
491.41	11852.47
491.59	12044.40
491.77	11978.86
491.95	11833.75
492.13	12037.38
492.30	12430.59
492.48	12131.00
492.66	12306.54
492.84	12397.82
493.01	12416.54
493.19	12496.12
493.37	12479.74
493.54	12648.26
493.72	12922.10
493.90	12659.96
494.08	12915.08
494.25	13060.19
494.43	13006.36
494.61	13090.62
494.79	13303.60
494.96	13308.29
495.14	13233.39
495.32	13486.17
495.49	13331.69
495.67	13584.47
495.85	13743.63
496.02	13792.78
496.20	13846.61
496.38	13954.27
496.55	13994.06
496.73	14207.05
496.91	13965.98
497.09	14471.53
497.26	14270.25
497.44	14415.36
497.62	14518.34
497.79	14408.34
497.97	14396.64
498.14	14682.18
498.32	14637.71
498.50	14724.31
498.67	14944.32
498.85	14827.29
499.03	15009.86
499.20	14902.19
499.38	15066.03
499.56	15089.43
499.73	15173.69
499.91	15262.63
500.08	15307.10
500.26	15047.30
500.44	15281.36
500.61	15611.37
500.79	15328.17
500.97	15461.58
501.14	15716.70
501.32	15740.10
501.49	15735.42
501.67	15672.23
501.84	15868.83
502.02	15892.24
502.20	16290.13
502.37	15943.73
502.55	16013.95
502.72	16105.23
502.90	16187.14
503.07	16166.08
503.25	16341.62
503.43	16060.76
503.60	16723.13
503.78	16458.65
503.95	16503.12
504.13	16453.97
504.30	16458.65
504.48	16308.85
504.65	16751.21
504.83	16765.26
505.01	17043.78
505.18	16842.50
505.36	17324.65
505.53	16659.93
505.71	16854.20
505.88	17195.92
506.06	16861.22
506.23	17490.82
506.41	17238.05
506.58	17462.74
506.76	17055.48
506.93	17184.21
507.11	17434.65
507.28	17591.47
507.46	17413.59
507.63	17535.29
507.81	17661.68
507.98	17631.26
508.16	17699.13
508.33	17848.93
508.50	18010.42
508.68	17834.88
508.85	18204.69
509.03	17919.14
509.20	17848.93
509.38	18328.74
509.55	18279.58
509.73	18253.84
509.90	18033.83
510.08	18171.92
510.25	18228.09
510.42	18249.16
510.60	18586.19
510.77	18469.17
510.95	18834.29
511.12	18775.78
511.30	18469.17
511.47	18897.49
511.64	18478.53
511.82	18712.58
511.99	19030.90
512.17	19035.58
512.34	18970.04
512.51	19112.81
512.69	19164.31
512.86	19248.57
513.04	19316.44
513.21	19051.96
513.38	19639.44
513.56	19410.06
513.73	19360.91
513.90	19316.44
514.08	19583.26
514.25	19637.09
514.43	19889.87
514.60	19721.35
514.77	19754.12
514.95	19915.62
515.12	19814.98
515.29	19499.00
515.47	20011.58
515.64	19920.30
515.81	19861.79
515.99	20102.86
516.16	20196.48
516.33	20402.45
516.51	20056.05
516.68	19955.41
516.85	20173.08
517.03	20224.57
517.20	20442.24
517.37	20603.74
517.54	20524.16
517.72	20524.16
517.89	20549.90
518.06	20292.44
518.24	20704.38
518.41	20814.38
518.58	20713.74
518.75	20732.47
518.93	20868.22
519.10	20805.02
519.27	20933.75
519.45	20844.81
519.62	20966.52
519.79	20783.96
519.96	20933.75
520.14	21341.00
520.31	20919.71
520.48	21046.10
520.65	21240.36
520.83	21301.22
521.00	21376.11
521.17	21521.23
521.34	21291.85
521.52	21453.35
521.69	21591.44
521.86	21631.23
522.03	21673.36
522.20	21998.70
522.38	21589.10
522.55	21570.38
522.72	21703.79
522.89	22059.55
523.07	22202.32
523.24	21710.81
523.41	21729.53
523.58	21668.68
523.75	21853.58
523.92	21898.05
524.10	21809.11
524.27	22462.12
524.44	22260.84
524.61	22583.83
524.78	22368.50
524.96	22232.75
525.13	22431.69
525.30	22356.80
525.47	22448.08
525.64	22520.63
525.81	22874.06
525.98	22860.01
526.16	22544.04
526.33	22572.13
526.50	22693.83
526.67	22824.90
526.84	22527.66
527.01	22787.46
527.18	22862.35
527.36	22881.08
527.53	22981.72
527.70	23428.76
527.87	23225.14
528.04	23271.95
528.21	23234.50
528.38	23307.05
528.55	23019.17
528.72	23054.28
528.89	23522.38
529.07	23531.75
529.24	23229.82
529.41	23452.17
529.58	23220.45
529.75	23412.38
529.92	23428.76
530.09	23463.87
530.26	23522.38
530.43	23447.49
530.60	23611.32
530.77	23491.96
530.94	23819.63
531.11	23353.87
531.28	23943.68
531.46	23758.78
531.63	23772.82
531.80	23864.10
531.97	23997.51
532.14	23520.04
532.31	23924.96
532.48	24063.05
532.65	24147.31
532.82	23805.59
532.99	23847.72
533.16	24320.51
533.33	24283.06
533.50	24510.09
533.67	24224.54
533.84	24067.73
534.01	24060.71
534.18	24313.48
534.35	24477.32
534.52	24320.51
534.69	24613.07
534.86	24652.86
535.03	24397.74
535.20	24535.84
535.37	24381.36
535.54	24376.68
535.71	24432.85
535.88	24414.13
536.05	24622.44
536.22	24943.09
536.38	24748.82
536.55	25081.18
536.72	25268.42
536.89	24641.16
537.06	24889.26
537.23	24814.36
537.40	24915.00
537.57	24879.89
537.74	25198.21
537.91	25221.61
538.08	25291.83
538.25	25113.95
538.42	25062.46
538.59	25312.89
538.75	25046.07
538.92	25235.66
539.09	25521.20
539.26	25050.75
539.43	25312.89
539.60	25476.73
539.77	25324.60
539.94	25450.99
540.11	25245.02
540.28	25383.11
540.44	25434.60
540.61	25441.62
540.78	25373.75
540.95	25560.99
541.12	25837.17
541.29	25853.56
541.46	25720.15
541.62	25799.73
541.79	25495.46
541.96	25649.93
542.13	25586.74
542.30	25607.80
542.47	26068.89
542.63	26335.71
542.80	26214.00
542.97	26005.69
543.14	26181.23
543.31	26178.89
543.48	26387.20
543.64	26726.58
543.81	26714.87
543.98	26204.64
544.15	26377.84
544.32	26333.37
544.48	26780.41
544.65	26375.50
544.82	26604.87
544.99	26340.39
545.16	26251.45
545.32	26347.41
545.49	26597.85
545.66	26616.57
545.83	26691.47
546.00	26993.40
546.16	26930.20
546.33	26630.62
546.50	26422.31
546.67	26843.60
546.83	26618.91
547.00	26810.84
547.17	26810.84
547.34	26717.22
547.50	26864.67
547.67	27077.66
547.84	26930.20
548.00	26944.25
548.17	27206.39
548.34	26714.87
548.51	27026.17
548.67	27524.70
548.84	26991.06
549.01	26948.93
549.18	27042.55
549.34	26855.31
549.51	27154.90
549.68	27241.50
549.84	27344.48
550.01	27211.07
550.18	27274.26
550.34	27178.30
550.51	27363.20
550.68	27391.29
550.84	27035.53
551.01	27828.97
551.18	27576.19
551.34	27087.02
551.51	27426.40
551.68	27538.74
551.84	27758.75
552.01	27601.94
552.18	27417.04
552.34	27613.64
552.51	27950.68
552.68	27480.23
552.84	27730.67
553.01	27679.18
553.18	27520.02
553.34	27386.61
553.51	27894.50
553.67	27960.04
553.84	28308.78
554.01	27915.57
554.17	27950.68
554.34	28105.15
554.51	28013.87
554.67	27772.80
554.84	27957.70
555.00	27683.86
555.17	27695.56
555.33	27672.15
555.50	27990.47
555.67	28226.86
555.83	28140.26
556.00	27924.93
556.16	28271.33
556.33	28243.24
556.50	28388.36
556.66	28215.16
556.83	28243.24
556.99	28114.52
557.16	28493.68
557.32	28460.91
557.49	28369.63
557.65	28039.62
557.82	27728.33
557.98	28479.64
558.15	28662.20
558.32	28264.31
558.48	28292.40
558.65	28758.16
558.81	28760.50
558.98	28629.43
559.14	28453.89
559.31	28561.56
559.47	28430.49
559.64	28439.85
559.80	28606.03
559.97	28898.59
560.13	28056.00
560.30	28744.12
560.46	28613.05
560.63	28847.10
560.79	28776.89
560.96	28678.58
561.12	28594.32
561.29	28479.64
561.45	28849.44
561.61	28627.09
561.78	29057.75
561.94	28978.17
562.11	29022.64
562.27	28577.94
562.44	28636.45
562.60	28657.52
562.77	29048.39
562.93	28463.25
563.10	28802.63
563.26	28739.44
563.42	29256.70
563.59	29340.96
563.75	29425.22
563.92	28957.11
564.08	28844.76
564.24	29181.80
564.41	28690.29
564.57	28643.48
564.74	28830.72
564.90	29237.97
565.07	29076.48
565.23	29195.84
565.39	29146.69
565.56	29322.23
565.72	28961.79
565.88	29029.66
566.05	29259.04
566.21	28914.98
566.38	29055.41
566.54	28954.77
566.70	29188.82
566.87	29392.45
567.03	29237.97
567.19	29642.88
567.36	29214.57
567.52	29308.19
567.68	29280.10
567.85	29027.32
568.01	28980.51
568.17	29057.75
568.34	29380.74
568.50	29567.99
568.66	29656.93
568.83	29120.95
568.99	29270.74
569.15	29418.19
569.32	29214.57
569.48	29226.27
569.64	29205.20
569.81	29467.34
569.97	29160.73
570.13	29675.65
570.30	29645.23
570.46	29476.71
570.62	29432.24
570.78	29006.26
570.95	29280.10
571.11	28922.00
571.27	29385.43
571.43	29483.73
571.60	29153.71
571.76	29500.11
571.92	29656.93
572.09	29584.37
572.25	29598.41
572.41	29350.32
572.57	29378.40
572.74	29525.86
572.90	29362.02
573.06	29364.36
573.22	29553.94
573.38	29462.66
573.55	29216.91
573.71	29528.20
573.87	30029.07
574.03	29546.92
574.20	29584.37
574.36	29617.14
574.52	29551.60
574.68	29715.44
574.84	29383.09
575.01	29469.69
575.17	29853.53
575.33	29462.66
575.49	29497.77
575.65	29523.52
575.82	30022.05
575.98	29605.44
576.14	29937.79
576.30	29565.65
576.46	29785.66
576.62	29125.63
576.79	29436.92
576.95	29249.67
577.11	29813.74
577.27	29874.60
577.43	29720.12
577.59	29668.63
577.75	29748.21
577.92	29130.31
578.08	29345.64
578.24	29310.53
578.40	29591.39
578.56	29598.41
578.72	29766.93
578.88	29799.70
579.04	29907.37
579.21	29500.11
579.37	29617.14
579.53	29797.36
579.69	29476.71
579.85	29694.38
580.01	29633.52
580.17	29542.24
580.33	29942.47
580.49	29883.96
580.65	29914.39
580.82	29720.12
580.98	29811.40
581.14	29556.28
581.30	29951.84
581.46	30047.80
581.62	29404.15
581.78	29703.74
581.94	29680.33
582.10	30061.84
582.26	29727.14
582.42	29738.85
582.58	29806.72
582.74	29647.57
582.90	29757.57
583.06	30195.25
583.22	29853.53
583.38	29628.84
583.54	29624.16
583.70	29553.94
583.86	29633.52
584.02	29635.86
584.18	29647.57
584.34	29607.78
584.50	29937.79
584.66	29795.02
584.82	29907.37
584.98	29802.04
585.14	30078.22
585.30	29851.19
585.46	29504.79
585.62	29390.11
585.78	29647.57
585.94	29577.35
586.10	30036.09
586.26	29848.85
586.42	30022.05
586.58	30377.81
586.74	30288.87
586.90	29715.44
587.06	29577.35
587.22	29649.91
587.38	29617.14
587.54	30075.88
587.70	30092.27
587.86	29858.21
588.02	30061.84
588.18	29809.06
588.34	29841.83
588.49	30108.65
588.65	29839.49
588.81	29745.87
588.97	30368.45
589.13	29928.43
589.29	30101.63
589.45	30008.01
589.61	30132.06
589.77	30082.91
589.93	30483.14
590.08	30146.10
590.24	30171.85
590.40	30331.00
590.56	30045.46
590.72	30094.61
590.88	29841.83
591.04	29998.65
591.20	30150.78
591.35	30206.95
591.51	30108.65
591.67	30087.59
591.83	30618.89
591.99	30260.79
592.15	30300.58
592.31	30749.96
592.46	29834.81
592.62	30256.11
592.78	30321.64
592.94	29900.34
593.10	30125.04
593.26	30307.60
593.41	30305.26
593.57	30043.12
593.73	30099.29
593.89	30340.36
594.05	30492.50
594.20	30232.70
594.36	30412.92
594.52	29970.56
594.68	30022.05
594.84	30143.76
594.99	29874.60
595.15	30726.55
595.31	30375.47
595.47	30480.80
595.62	30408.24
595.78	30108.65
595.94	29970.56
596.10	30185.89
596.25	30253.76
596.41	30319.30
596.57	30134.40
596.73	30422.28
596.88	29811.40
597.04	30398.88
597.20	30658.68
597.36	30375.47
597.51	30478.46
597.67	30288.87
597.83	30366.11
597.99	30347.39
598.14	30082.91
598.30	30228.02
598.46	30321.64
598.61	30675.06
598.77	30455.05
598.93	30298.23
599.09	30597.82
599.24	30431.65
599.40	30675.06
599.56	30611.87
599.71	30316.96
599.87	30581.44
600.03	30459.73
600.18	30331.00
600.34	30370.79
600.50	30228.02
600.65	30178.87
600.81	30443.35
600.97	30497.18
601.12	30277.17
601.28	30574.42
601.44	30593.14
601.59	30679.74
601.75	30295.89
601.91	30478.46
602.06	30405.90
602.22	30267.81
602.37	30267.81
602.53	30293.55
602.69	30363.77
602.84	30377.81
603.00	30326.32
603.16	30410.58
603.31	30441.01
603.47	30485.48
603.62	30433.99
603.78	30176.53
603.94	30267.81
604.09	30445.69
604.25	30199.93
604.40	30532.29
604.56	30326.32
604.71	31075.29
604.87	30143.76
605.03	30405.90
605.18	30618.89
605.34	30265.47
605.49	30277.17
605.65	30323.98
605.80	29827.79
605.96	30284.19
606.12	30316.96
606.27	30300.58
606.43	29933.11
606.58	30209.29
606.74	30469.09
606.89	30473.78
607.05	30705.49
607.20	30480.80
607.36	30382.49
607.51	30045.46
607.67	30164.82
607.82	30167.16
607.98	30319.30
608.13	30223.34
608.29	30237.38
608.44	29935.45
608.60	29902.68
608.75	30361.43
608.91	30501.86
609.06	30064.18
609.22	29989.28
609.37	30284.19
609.53	30197.59
609.68	30047.80
609.84	30319.30
609.99	30457.39
610.15	30146.10
610.30	29792.68
610.46	30202.27
610.61	30225.68
610.76	30043.12
610.92	30164.82
611.07	30087.59
611.23	30103.97
611.38	29926.09
611.54	29867.58
611.69	29900.34
611.84	29825.45
612.00	29851.19
612.15	29729.48
612.31	30160.14
612.46	29982.26
612.62	30197.59
612.77	29926.09
612.92	30204.61
613.08	30150.78
613.23	30040.78
613.39	30071.20
613.54	29621.82
613.69	29598.41
613.85	29656.93
614.00	30213.98
614.15	29596.07
614.31	29837.15
614.46	29607.78
614.62	29530.54
614.77	29802.04
614.92	30246.74
615.08	29851.19
615.23	29968.22
615.38	29745.87
615.54	29593.73
615.69	29530.54
615.84	29172.44
616.00	29340.96
616.15	29439.26
616.30	29792.68
616.46	30162.48
616.61	29809.06
616.76	29560.97
616.92	29741.19
617.07	29462.66
617.22	29331.59
617.37	29465.00
617.53	29427.56
617.68	29069.45
617.83	29455.64
617.99	29436.92
618.14	29579.69
618.29	29411.17
618.45	29305.85
618.60	29619.48
618.75	29062.43
618.90	29799.70
619.06	29422.87
619.21	29104.56
619.36	29584.37
619.51	29146.69
619.67	29362.02
619.82	29149.03
619.97	29301.17
620.12	28891.57
620.28	29282.44
620.43	29336.27
620.58	29462.66
620.73	29212.23
620.89	29221.59
621.04	29455.64
621.19	29259.04
621.34	29001.58
621.49	28713.69
621.65	29083.50
621.80	29177.12
621.95	28891.57
622.10	29565.65
622.25	29177.12
622.41	28751.14
622.56	28978.17
622.71	29296.49
622.86	28877.53
623.01	29392.45
623.16	28987.53
623.32	28800.29
623.47	28929.02
623.62	28917.32
623.77	28526.45
623.92	28673.90
624.07	28884.55
624.23	28470.28
624.38	28514.75
624.53	28453.89
624.68	28952.43
624.83	28795.61
624.98	29013.28
625.13	28587.30
625.29	29048.39
625.44	28697.31
625.59	28753.48
625.74	28711.35
625.89	28240.90
626.04	28603.69
626.19	28568.58
626.34	28610.71
626.49	28381.34
626.65	28587.30
626.80	28828.38
626.95	28603.69
627.10	28496.02
627.25	28428.15
627.40	28236.22
627.55	28371.97
627.70	28613.05
627.85	28109.83
628.00	28063.02
628.15	28496.02
628.30	28222.18
628.45	28056.00
628.60	28114.52
628.76	28369.63
628.91	28243.24
629.06	28507.72
629.21	28353.25
629.36	28147.28
629.51	27943.66
629.66	28257.29
629.81	27936.63
629.96	27906.21
630.11	28210.48
630.26	28025.57
630.41	28027.92
630.56	27716.62
630.71	28166.01
630.86	28182.39
631.01	28182.39
631.16	28463.25
631.31	28240.90
631.46	27875.78
631.61	27833.65
631.76	28056.00
631.91	27669.81
632.06	28013.87
632.21	27941.32
632.36	28128.56
632.51	27826.63
632.66	27683.86
632.81	27859.40
632.96	27707.26
633.10	27882.80
633.25	27695.56
633.40	27878.12
633.55	27344.48
633.70	27620.66
633.85	27351.50
634.00	27749.39
634.15	27541.08
634.30	27721.30
634.45	27484.91
634.60	27592.58
634.75	27417.04
634.90	27513.00
635.05	27875.78
635.19	27793.86
635.34	27620.66
635.49	27482.57
635.64	27690.88
635.79	27793.86
635.94	27335.12
636.09	27292.99
636.24	27515.34
636.39	27414.69
636.53	27337.46
636.68	27281.28
636.83	27321.07
636.98	27487.25
637.13	27267.24
637.28	27594.92
637.43	27552.79
637.57	27332.78
637.72	26874.03
637.87	27342.14
638.02	27072.98
638.17	27332.78
638.32	27351.50
638.46	27047.23
638.61	26878.71
638.76	27182.98
638.91	27204.05
639.06	27035.53
639.20	27091.70
639.35	27491.93
639.50	27082.34
639.65	27342.14
639.80	27363.20
639.94	26948.93
640.09	27199.37
640.24	27250.86
640.39	26916.16
640.54	26747.64
640.68	26675.09
640.83	27047.23
640.98	26906.80
641.13	26686.79
641.27	26700.83
641.42	26675.09
641.57	27115.11
641.72	26913.82
641.86	26984.04
642.01	26345.07
642.16	26518.27
642.31	26478.48
642.45	26909.14
642.60	26639.98
642.75	26476.14
642.90	26305.28
643.04	26459.76
643.19	26485.50
643.34	26740.62
643.48	26656.36
643.63	26595.51
643.78	26445.71
643.93	26387.20
644.07	26726.58
644.22	26647.00
644.37	26665.72
644.51	26600.19
644.66	26541.68
644.81	26642.32
644.95	26136.76
645.10	26504.23
645.25	26480.82
645.39	26349.75
645.54	26078.25
645.69	26094.63
645.83	26726.58
645.98	26625.93
646.13	26106.34
646.27	26279.54
646.42	26607.21
646.57	26394.22
646.71	26068.89
646.86	25926.11
647.00	26199.96
647.15	26010.37
647.30	25720.15
647.44	25928.45
647.59	26139.10
647.74	26094.63
647.88	25965.90
648.03	26450.39
648.17	25972.92
648.32	26230.38
648.47	26127.40
648.61	25888.67
648.76	26155.49
648.90	26405.92
649.05	26111.02
649.20	25982.29
649.34	26033.78
649.49	25563.33
649.63	25839.51
649.78	25930.80
649.92	25928.45
650.07	25912.07
650.21	25673.34
650.36	26148.46
650.51	26015.05
650.65	26005.69
650.80	25797.38
650.94	25359.70
651.09	25930.80
651.23	25930.80
651.38	25528.22
651.52	25291.83
651.67	25259.06
651.81	25729.51
651.96	25568.01
652.10	25626.53
652.25	26045.48
652.39	25717.81
652.54	25809.09
652.68	25635.89
652.83	25764.62
652.97	26066.55
653.12	25722.49
653.26	25378.43
653.41	25888.67
653.55	25486.09
653.70	25443.96
653.84	25263.74
653.99	25610.14
654.13	25455.67
654.27	25383.11
654.42	25446.30
654.56	25785.68
654.71	25415.88
654.85	25284.81
655.00	25371.41
655.14	25546.95
655.29	25036.71
655.43	25455.67
655.57	25186.50
655.72	25408.86
655.86	25322.26
656.01	25219.27
656.15	24919.68
656.30	25036.71
656.44	25228.63
656.58	25357.36
656.73	24737.12
656.87	25083.52
657.01	25099.90
657.16	25060.12
657.30	25078.84
657.45	25076.50
657.59	25010.96
657.73	24947.77
657.88	25200.55
658.02	24765.21
658.16	25006.28
658.31	24666.91
658.45	24589.67
658.60	24386.04
658.74	24877.55
658.88	24566.26
659.03	24961.81
659.17	24725.42
659.31	24891.60
659.46	24936.07
659.60	24954.79
659.74	24814.36
659.89	24498.39
660.03	24734.78
660.17	24596.69
660.32	24278.38
660.46	24276.04
660.60	24091.13
660.74	24151.99
660.89	24627.12
661.03	24423.49
661.17	24313.48
661.32	24269.01
661.46	23995.17
661.60	24219.86
661.74	24446.90
661.89	24081.77
662.03	24315.83
662.17	24034.96
662.31	24339.23
662.46	24315.83
662.60	23833.68
662.74	23812.61
662.88	23934.32
663.03	24088.79
663.17	24049.00
663.31	23758.78
663.45	23428.76
663.60	23627.71
663.74	23714.31
663.88	23611.32
664.02	23721.33
664.17	24041.98
664.31	23529.41
664.45	23466.21
664.59	23800.91
664.73	23538.77
664.88	23632.39
665.02	23412.38
665.16	23487.28
665.30	23269.61
665.44	23473.23
665.59	23309.40
665.73	23260.24
665.87	23260.24
666.01	23227.48
666.15	23536.43
666.29	23410.04
666.44	23456.85
666.58	23087.04
666.72	23016.83
666.86	23122.15
667.00	23119.81
667.14	23028.53
667.28	23150.24
667.43	23037.89
667.57	22845.97
667.71	23112.79
667.85	23143.22
667.99	22965.34
668.13	22710.22
668.27	22747.67
668.41	23133.86
668.56	22331.05
668.70	23108.11
668.84	22728.94
668.98	22775.75
669.12	22740.64
669.26	22518.29
669.40	22555.74
669.54	22647.02
669.68	22497.23
669.82	22560.42
669.96	22361.48
670.10	22038.48
670.25	22415.31
670.39	22499.57
670.53	22256.15
670.67	21963.59
670.81	22288.92
670.95	22443.40
671.09	22136.79
671.23	22314.67
671.37	22286.58
671.51	22129.77
671.65	22359.14
671.79	21958.91
671.93	21778.68
672.07	21734.21
672.21	21919.12
672.35	21455.69
672.49	21914.44
672.63	21727.19
672.77	21530.59
672.91	21778.68
673.05	21481.44
673.19	21357.39
673.33	21551.65
673.47	21425.26
673.61	21659.32
673.75	21619.53
673.89	21310.58
674.03	21261.43
674.17	21261.43
674.31	20994.61
674.45	21214.62
674.59	21315.26
674.73	21067.16
674.87	21238.02
675.01	20788.64
675.15	20947.79
675.29	20891.62
675.43	21001.63
675.56	20798.00
675.70	20620.12
675.84	20798.00
675.98	20072.43
676.12	20521.82
676.26	21172.49
676.40	20882.26
676.54	20926.73
676.68	20762.89
676.82	20116.90
676.96	20095.84
677.10	20098.18
677.23	20175.42
677.37	20280.74
677.51	19999.88
677.65	19892.21
677.79	19831.36
677.93	20020.94
678.07	20023.28
678.21	19786.89
678.34	19988.18
678.48	19667.52
678.62	19506.02
678.76	19557.52
678.90	19611.35
679.04	19496.66
679.18	19503.68
679.31	19253.25
679.45	19321.12
679.59	19058.98
679.73	19150.26
679.87	19187.71
680.00	19096.43
680.14	19218.14
680.28	18897.49
680.42	18820.25
680.56	19227.50
680.70	19173.67
680.83	18941.96
680.97	18403.63
681.11	18721.95
681.25	18485.55
681.39	18541.72
681.52	18623.64
681.66	18726.63
681.80	18087.66
681.94	18157.88
682.07	18223.41
682.21	18068.94
682.35	18335.76
682.49	17675.73
682.62	18265.54
682.76	18106.38
682.90	17987.02
683.04	17736.58
683.17	17912.12
683.31	17970.63
683.45	17755.30
683.59	17813.82
683.72	17392.52
683.86	17769.35
684.00	17895.74
684.13	17664.02
684.27	17570.40
684.41	17371.46
684.55	17212.30
684.68	17209.96
684.82	17214.64
684.96	17167.83
685.09	16980.59
685.23	16594.40
685.37	17015.69
685.50	17207.62
685.64	16961.86
685.78	17121.02
685.91	17015.69
686.05	16772.28
686.19	16685.68
686.32	16851.86
686.46	16196.51
686.60	16594.40
686.73	16435.24
686.87	16369.71
687.01	16100.55
687.14	16578.01
687.28	16198.85
687.42	16280.77
687.55	16156.72
687.69	16030.33
687.82	15789.25
687.96	16063.10
688.10	15967.13
688.23	16182.46
688.37	16042.03
688.50	15971.82
688.64	15983.52
688.78	15669.89
688.91	15555.20
689.05	15424.13
689.18	15555.20
689.32	15197.10
689.46	15372.64
689.59	15428.81
689.73	15470.94
689.86	15220.50
690.00	15068.37
690.13	14869.42
690.27	14958.36
690.41	15147.95
690.54	14869.42
690.68	15126.88
690.81	15014.54
690.95	14806.23
691.08	14796.87
691.22	14696.22
691.35	14911.55
691.49	15087.09
691.62	14618.99
691.76	14721.97
691.89	14490.26
692.03	14153.22
692.16	14111.09
692.30	14342.80
692.43	14396.64
692.57	14431.74
692.70	14183.65
692.84	14429.40
692.97	14001.08
693.11	14167.26
693.24	13928.53
693.38	13631.28
693.51	13907.46
693.65	13963.64
693.78	13776.39
693.92	13813.84
694.05	13671.07
694.19	13888.74
694.32	13528.30
694.45	13659.37
694.59	13282.54
694.72	13289.56
694.86	13334.03
694.99	12947.84
695.13	13188.92
695.26	13289.56
695.39	12994.65
695.53	13036.78
695.66	13273.18
695.80	13102.32
695.93	13011.04
696.07	13200.62
696.20	12833.16
696.33	12943.16
696.47	12828.48
696.60	12823.80
696.73	12311.22
696.87	12872.95
697.00	12512.50
697.14	12416.54
697.27	12133.34
697.40	12269.09
697.54	12299.52
697.67	12341.64
697.80	12210.57
697.94	11978.86
698.07	12044.40
698.21	12116.95
698.34	12135.68
698.47	12105.25
698.61	11969.50
698.74	11939.07
698.87	11775.24
699.01	11932.05
699.14	11934.39
699.27	11850.13
699.40	11653.53
699.54	11515.44
699.67	11351.60
699.80	11183.08
699.94	11482.67
700.07	11283.72
700.20	11246.27
700.34	11302.45
700.47	11094.14
700.60	11213.51
700.73	11194.78
700.87	11309.47
701.00	11047.33
701.13	11276.70
701.26	11176.06
701.40	11140.95
701.53	11028.60
701.66	10850.72
701.79	10841.36
701.93	10717.31
702.06	10682.20
702.19	10703.27
702.32	10518.37
702.46	10574.54
702.59	10258.57
702.72	10590.92
702.85	10464.54
702.99	10202.40
703.12	10298.36
703.25	10291.34
703.38	10338.15
703.51	10342.83
703.65	10228.14
703.78	10209.42
703.91	9968.34
704.04	10202.40
704.17	10286.65
704.31	9973.02
704.44	10132.18
704.57	9823.23
704.70	9757.69
704.83	9778.76
704.96	9645.35
705.10	9465.13
705.23	9619.60
>>>>>End Processed Spectral Data<<<<<
