SpectraSuite Data File
++++++++++++++++++++++++++++++++++++
Date: Fri Oct 18 13:58:30 GMT-05:00 2013
User: bianchi
Dark Spectrum Present: No
Reference Spectrum Present: No
Number of Sampled Component Spectra: 1
Spectrometers: USB2+H05261
Integration Time (usec): 50000 (USB2+H05261)
Spectra Averaged: 1 (USB2+H05261)
Boxcar Smoothing: 0 (USB2+H05261)
Correct for Electrical Dark: No (USB2+H05261)
Strobe/Lamp Enabled: No (USB2+H05261)
Correct for Detector Non-linearity: No (USB2+H05261)
Correct for Stray Light: No (USB2+H05261)
Number of Pixels in Processed Spectrum: 2048
>>>>>Begin Processed Spectral Data<<<<<
365.73	0.00
365.92	0.00
366.12	0.00
366.32	0.00
366.52	0.00
366.72	0.00
366.91	0.00
367.11	0.00
367.31	0.00
367.51	0.00
367.70	0.00
367.90	0.00
368.10	0.00
368.30	0.00
368.49	0.00
368.69	0.00
368.89	0.00
369.09	0.00
369.28	0.00
369.48	0.00
369.68	0.00
369.87	0.00
370.07	0.00
370.27	11.70
370.47	0.00
370.66	46.81
370.86	77.24
371.06	91.28
371.25	128.73
371.45	147.45
371.65	147.45
371.84	86.60
372.04	168.52
372.24	194.26
372.44	212.99
372.63	243.42
372.83	234.05
373.03	208.31
373.22	259.80
373.42	149.79
373.62	189.58
373.81	175.54
374.01	283.20
374.21	180.22
374.40	227.03
374.60	264.48
374.79	194.26
374.99	222.35
375.19	236.39
375.38	231.71
375.58	304.27
375.78	217.67
375.97	250.44
376.17	236.39
376.37	243.42
376.56	330.02
376.76	175.54
376.95	278.52
377.15	304.27
377.35	360.44
377.54	245.76
377.74	330.02
377.93	290.23
378.13	315.97
378.33	252.78
378.52	266.82
378.72	280.86
378.91	287.89
379.11	290.23
379.31	280.86
379.50	287.89
379.70	278.52
379.89	273.84
380.09	358.10
380.28	325.33
380.48	220.01
380.68	241.08
380.87	280.86
381.07	341.72
381.26	306.61
381.46	292.57
381.65	315.97
381.85	315.97
382.04	332.36
382.24	372.15
382.43	318.31
382.63	332.36
382.83	341.72
383.02	332.36
383.22	322.99
383.41	376.83
383.61	383.85
383.80	351.08
384.00	341.72
384.19	344.06
384.39	353.42
384.58	337.04
384.78	337.04
384.97	400.23
385.17	397.89
385.36	315.97
385.56	367.46
385.75	414.27
385.95	407.25
386.14	306.61
386.34	423.64
386.53	402.57
386.72	393.21
386.92	454.06
387.11	472.79
387.31	388.53
387.50	454.06
387.70	374.49
387.89	463.43
388.09	358.10
388.28	409.59
388.48	449.38
388.67	421.30
388.86	416.62
389.06	444.70
389.25	547.69
389.45	451.72
389.64	442.36
389.84	496.19
390.03	514.92
390.22	477.47
390.42	510.24
390.61	528.96
390.81	486.83
391.00	472.79
391.19	468.11
391.39	425.98
391.58	463.43
391.78	472.79
391.97	517.26
392.16	468.11
392.36	477.47
392.55	449.38
392.75	519.60
392.94	554.71
393.13	491.51
393.33	559.39
393.52	599.18
393.71	568.75
393.91	524.28
394.10	533.64
394.29	599.18
394.49	575.77
394.68	641.31
394.88	603.86
395.07	585.13
395.26	643.65
395.46	566.41
395.65	709.18
395.84	587.47
396.04	727.91
396.23	510.24
396.42	578.11
396.62	653.01
396.81	650.67
397.00	638.97
397.19	587.47
397.39	622.58
397.58	662.37
397.77	676.41
397.97	613.22
398.16	688.12
398.35	692.80
398.55	688.12
398.74	730.25
398.93	664.71
399.12	664.71
399.32	667.05
399.51	704.50
399.70	739.61
399.90	697.48
400.09	674.07
400.28	744.29
400.47	753.65
400.67	744.29
400.86	805.14
401.05	709.18
401.24	849.61
401.44	732.59
401.63	816.85
401.82	823.87
402.01	858.98
402.21	734.93
402.40	877.70
402.59	823.87
402.78	882.38
402.97	842.59
403.17	856.64
403.36	877.70
403.55	826.21
403.74	842.59
403.93	854.30
404.13	849.61
404.32	835.57
404.51	873.02
404.70	858.98
404.89	1020.47
405.09	901.11
405.28	929.19
405.47	952.60
405.66	908.13
405.85	966.64
406.05	1032.18
406.24	1013.45
406.43	833.23
406.62	1069.62
406.81	973.66
407.00	887.06
407.20	976.00
407.39	1029.84
407.58	1041.54
407.77	971.32
407.96	964.30
408.15	1109.41
408.34	1015.79
408.54	1086.01
408.73	1078.99
408.92	1088.35
409.11	1074.31
409.30	1088.35
409.49	1036.86
409.68	1039.20
409.87	1118.78
410.07	1217.08
410.26	1200.69
410.45	1149.20
410.64	1217.08
410.83	1174.95
411.02	1188.99
411.21	1228.78
411.40	1210.06
411.59	1170.27
411.78	1177.29
411.98	1198.35
412.17	1242.82
412.36	1203.04
412.55	1294.32
412.74	1310.70
412.93	1282.61
413.12	1254.53
413.31	1411.34
413.50	1380.92
413.69	1404.32
413.88	1334.11
414.07	1329.42
414.26	1441.77
414.45	1380.92
414.64	1411.34
414.83	1500.28
415.02	1570.50
415.22	1629.01
415.41	1516.67
415.60	1481.56
415.79	1516.67
415.98	1612.63
416.17	1568.16
416.36	1493.26
416.55	1514.33
416.74	1556.46
416.93	1675.82
417.12	1685.19
417.31	1605.61
417.50	1600.93
417.69	1746.04
417.88	1734.34
418.07	1647.74
418.26	1736.68
418.45	1678.16
418.64	1846.68
418.83	1720.29
419.02	1696.89
419.21	1741.36
419.39	1832.64
419.58	1764.76
419.77	1762.42
419.96	1788.17
420.15	1909.88
420.34	1849.02
420.53	1867.75
420.72	1792.85
420.91	1849.02
421.10	1916.90
421.29	1942.64
421.48	1902.86
421.67	1907.54
421.86	1879.45
422.05	1898.17
422.24	1954.35
422.43	1863.07
422.61	2036.27
422.80	1952.01
422.99	1973.07
423.18	1886.47
423.37	2169.68
423.56	2005.84
423.75	1886.47
423.94	2057.33
424.13	1895.83
424.32	1949.67
424.50	1987.11
424.69	1970.73
424.88	2022.22
425.07	1989.46
425.26	1914.56
425.45	2043.29
425.64	2080.74
425.83	1947.33
426.01	2036.27
426.20	2080.74
426.39	2003.50
426.58	2045.63
426.77	2012.86
426.96	2036.27
427.15	1998.82
427.33	2115.84
427.52	2062.01
427.71	2069.03
427.90	2036.27
428.09	2195.42
428.28	2204.78
428.46	2186.06
428.65	2160.31
428.84	2218.83
429.03	2338.20
429.22	2176.70
429.40	2270.32
429.59	2260.96
429.78	2078.40
429.97	2099.46
430.16	2076.06
430.34	2253.94
430.53	2455.22
430.72	2340.54
430.91	2230.53
431.10	2270.32
431.28	2265.64
431.47	2300.75
431.66	2413.09
431.85	2338.20
432.03	2347.56
432.22	2424.80
432.41	2338.20
432.60	2303.09
432.79	2452.88
432.97	2392.03
433.16	2466.92
433.35	2340.54
433.54	2457.56
433.72	2443.52
433.91	2387.35
434.10	2647.15
434.28	2509.05
434.47	2487.99
434.66	2387.35
434.85	2480.97
435.03	2609.70
435.22	2436.50
435.41	2705.66
435.59	2597.99
435.78	2525.44
435.97	2532.46
436.16	2649.49
436.34	2597.99
436.53	2628.42
436.72	2768.85
436.90	2523.10
437.09	2803.96
437.28	2621.40
437.46	2679.91
437.65	2628.42
437.84	2712.68
438.02	2846.09
438.21	2642.46
438.40	2668.21
438.58	2754.81
438.77	2850.77
438.96	2871.84
439.14	2871.84
439.33	2899.92
439.52	2808.64
439.70	2864.82
439.89	2899.92
440.08	2995.89
440.26	2986.52
440.45	3073.12
440.63	3068.44
440.82	3035.67
441.01	3002.91
441.19	3080.14
441.38	3098.87
441.57	3122.27
441.75	3068.44
441.94	3222.92
442.12	3269.73
442.31	3176.11
442.50	3236.96
442.68	3176.11
442.87	3159.72
443.05	3368.03
443.24	3339.94
443.43	3281.43
443.61	3269.73
443.80	3339.94
443.98	3391.44
444.17	3211.22
444.35	3412.50
444.54	3510.80
444.73	3337.60
444.91	3290.79
445.10	3485.06
445.28	3311.86
445.47	3353.99
445.65	3459.31
445.84	3346.97
446.02	3501.44
446.21	3426.54
446.39	3412.50
446.58	3365.69
446.77	3449.95
446.95	3400.80
447.14	3449.95
447.32	3339.94
447.51	3419.52
447.69	3485.06
447.88	3576.34
448.06	3473.36
448.25	3358.67
448.43	3440.59
448.62	3496.76
448.80	3435.91
448.99	3466.33
449.17	3501.44
449.36	3506.12
449.54	3625.49
449.73	3618.47
449.91	3646.55
450.10	3548.25
450.28	3667.62
450.46	3639.53
450.65	3653.58
450.83	3595.06
451.02	3569.32
451.20	3655.92
451.39	3803.37
451.57	3817.41
451.76	3658.26
451.94	3843.16
452.13	3864.22
452.31	3754.22
452.49	3854.86
452.68	3920.40
452.86	3763.58
453.05	3918.06
453.23	3803.37
453.42	3646.55
453.60	3861.88
453.78	3819.75
453.97	3852.52
454.15	3964.87
454.34	3861.88
454.52	3953.16
454.70	4021.04
454.89	3992.95
455.07	3873.59
455.26	4046.79
455.44	3957.85
455.62	3922.74
455.81	4196.58
455.99	4117.00
456.17	4201.26
456.36	4117.00
456.54	4215.30
456.73	4301.90
456.91	4292.54
457.09	4224.67
457.28	4138.07
457.46	4306.59
457.64	4229.35
457.83	4390.84
458.01	4234.03
458.19	4311.27
458.38	4154.45
458.56	4219.99
458.74	4332.33
458.93	4241.05
459.11	4187.22
459.29	4222.33
459.48	4440.00
459.66	4435.32
459.84	4512.55
460.03	4524.26
460.21	4388.50
460.39	4594.47
460.57	4468.08
460.76	4491.49
460.94	4631.92
461.12	4484.47
461.31	4477.44
461.49	4526.60
461.67	4606.17
461.85	4524.26
462.04	4774.69
462.22	4751.29
462.40	4697.46
462.59	4561.70
462.77	4603.83
462.95	4685.75
463.13	4615.54
463.32	4652.98
463.50	4667.03
463.68	4671.71
463.86	4772.35
464.05	4739.58
464.23	4779.37
464.41	4760.65
464.59	4681.07
464.78	4844.91
464.96	4784.06
465.14	4964.28
465.32	4851.93
465.50	4957.25
465.69	5046.20
465.87	4856.61
466.05	4830.87
466.23	4908.10
466.41	4964.28
466.60	4964.28
466.78	4912.78
466.96	5027.47
467.14	4961.94
467.32	4954.91
467.51	5034.49
467.69	5135.14
467.87	5085.98
468.05	5097.69
468.23	5256.84
468.41	4968.96
468.60	5039.17
468.78	5142.16
468.96	5217.05
469.14	5078.96
469.32	5104.71
469.50	5071.94
469.69	5352.81
469.87	5486.22
470.05	5266.21
470.23	5373.87
470.41	5348.12
470.59	5387.91
470.77	5238.12
470.95	5413.66
471.14	5523.66
471.32	5310.68
471.50	5724.95
471.68	5600.90
471.86	5521.32
472.04	5488.56
472.22	5673.46
472.40	5598.56
472.58	5647.71
472.77	5626.65
472.95	5570.48
473.13	5825.59
473.31	5710.91
473.49	5790.49
473.67	5823.25
473.85	5783.46
474.03	5755.38
474.21	5708.57
474.39	5849.00
474.57	5984.75
474.75	6045.60
474.93	6080.71
475.12	6160.29
475.30	5996.45
475.48	6099.44
475.66	6179.01
475.84	6061.99
476.02	6197.74
476.20	6209.44
476.38	6396.68
476.56	6387.32
476.74	6363.92
476.92	6277.32
477.10	6307.74
477.28	6604.99
477.46	6410.73
477.64	6452.86
477.82	6661.16
478.00	6810.96
478.18	6609.67
478.36	6782.87
478.54	6897.56
478.72	7023.95
478.90	7026.29
479.08	7045.01
479.26	7030.97
479.44	7321.20
479.62	7218.21
479.80	7279.07
479.98	7360.98
480.16	7337.58
480.34	7384.39
480.52	7501.42
480.70	7541.21
480.88	7494.40
481.06	7396.09
481.24	7550.57
481.41	7749.51
481.59	7845.48
481.77	7765.90
481.95	8046.76
482.13	8032.72
482.31	7899.31
482.49	8243.37
482.67	8086.55
482.85	8053.78
483.03	8234.00
483.21	8383.80
483.39	8355.71
483.57	8355.71
483.74	8524.23
483.92	8468.06
484.10	8404.86
484.28	8557.00
484.46	8877.65
484.64	8903.40
484.82	8868.29
485.00	8905.74
485.18	9291.93
485.35	9348.10
485.53	9364.48
485.71	9469.81
485.89	9584.49
486.07	9380.87
486.25	9394.91
486.43	9214.69
486.61	9544.70
486.78	9572.79
486.96	9858.34
487.14	9804.50
487.32	9902.81
487.50	9832.59
487.68	9916.85
487.85	10108.77
488.03	10303.04
488.21	10312.40
488.39	10246.87
488.57	10387.30
488.75	10523.05
488.92	10649.44
489.10	10738.38
489.28	10532.41
489.46	10829.66
489.64	10824.98
489.81	11171.38
489.99	11470.97
490.17	11136.27
490.35	11318.83
490.53	11140.95
490.70	11489.69
490.88	11344.58
491.06	11419.47
491.24	11721.40
491.41	11503.73
491.59	11627.78
491.77	11515.44
491.95	11957.80
492.13	11721.40
492.30	12123.98
492.48	11880.56
492.66	11985.88
492.84	11925.03
493.01	12152.06
493.19	12262.07
493.37	12395.48
493.54	12425.90
493.72	12453.99
493.90	12585.06
494.08	12863.58
494.25	12872.95
494.43	12959.55
494.61	12886.99
494.79	13207.64
494.96	13184.24
495.14	13233.39
495.32	13277.86
495.49	13476.80
495.67	13502.55
495.85	13586.81
496.02	13855.97
496.20	13633.62
496.38	13647.66
496.55	13722.56
496.73	13942.57
496.91	13689.79
497.09	13762.35
497.26	14064.28
497.44	13760.01
497.62	13933.21
497.79	14274.93
497.97	14239.82
498.14	14523.02
498.32	14642.39
498.50	14457.49
498.67	14600.26
498.85	14780.48
499.03	14747.72
499.20	14829.63
499.38	14616.65
499.56	14731.33
499.73	14775.80
499.91	15112.84
500.08	15257.95
500.26	15122.20
500.44	15140.93
500.61	15183.06
500.79	15264.97
500.97	15257.95
501.14	15611.37
501.32	15503.71
501.49	15831.38
501.67	15611.37
501.84	15653.50
502.02	15737.76
502.20	15606.69
502.37	15927.35
502.55	16046.71
502.72	15803.30
502.90	15775.21
503.07	16011.60
503.25	16011.60
503.43	16035.01
503.60	16205.87
503.78	16271.40
503.95	16346.30
504.13	16011.60
504.30	15906.28
504.48	16315.87
504.65	16262.04
504.83	16482.05
505.01	16505.46
505.18	16573.33
505.36	16901.01
505.53	16711.42
505.71	16865.90
505.88	16807.39
506.06	16603.76
506.23	16950.16
506.41	17055.48
506.58	16971.22
506.76	16938.46
506.93	17111.66
507.11	17181.87
507.28	16978.25
507.46	17345.71
507.63	17315.28
507.81	17568.06
507.98	17324.65
508.16	17493.16
508.33	17348.05
508.50	17528.27
508.68	17399.54
508.85	17692.11
509.03	17771.69
509.20	18005.74
509.38	18001.06
509.55	18012.76
509.73	18094.68
509.90	18094.68
510.08	18008.08
510.25	17900.42
510.42	17949.57
510.60	18258.52
510.77	18232.77
510.95	18291.29
511.12	18415.34
511.30	18455.12
511.47	18462.15
511.64	18483.21
511.82	18597.90
511.99	18810.89
512.17	18822.59
512.34	18506.62
512.51	18853.02
512.69	18948.98
512.86	18864.72
513.04	18895.14
513.21	19094.09
513.38	19433.47
513.56	18960.68
513.73	18970.04
513.90	19126.86
514.08	18845.99
514.25	19346.87
514.43	19197.07
514.60	19435.81
514.77	19400.70
514.95	19349.21
515.12	19260.27
515.29	19449.85
515.47	19468.58
515.64	19669.86
515.81	19487.30
515.99	19711.99
516.16	19913.28
516.33	19845.40
516.51	19775.19
516.68	19779.87
516.85	19939.02
517.03	19754.12
517.20	20077.12
517.37	20247.97
517.54	20292.44
517.72	20189.46
517.89	20163.72
518.06	20449.26
518.24	20056.05
518.41	20325.21
518.58	20123.93
518.75	20484.37
518.93	20463.30
519.10	20563.95
519.27	20688.00
519.45	20589.69
519.62	20449.26
519.79	20713.74
519.96	20790.98
520.14	20695.02
520.31	20594.37
520.48	20905.66
520.65	21137.38
520.83	21076.52
521.00	20790.98
521.17	20898.64
521.34	20982.90
521.52	21123.33
521.69	21092.91
521.86	21352.71
522.03	21341.00
522.20	21600.80
522.38	20908.01
522.55	21235.68
522.72	21228.66
522.89	21528.25
523.07	21479.10
523.24	21635.91
523.41	21745.92
523.58	21514.20
523.75	21820.81
523.92	21642.93
524.10	21593.78
524.27	21584.42
524.44	21956.57
524.61	22366.16
524.78	21975.29
524.96	22242.11
525.13	21816.13
525.30	21977.63
525.47	22078.27
525.64	22230.41
525.81	22349.78
525.98	22017.42
526.16	22162.53
526.33	22300.62
526.50	22490.21
526.67	21909.75
526.84	22349.78
527.01	22314.67
527.18	22408.29
527.36	22501.91
527.53	22796.82
527.70	23000.44
527.87	22750.01
528.04	22939.59
528.21	22614.26
528.38	22630.64
528.55	22750.01
528.72	22890.44
528.89	23183.01
529.07	22977.04
529.24	22593.19
529.41	23227.48
529.58	23061.30
529.75	22796.82
529.92	23119.81
530.09	23056.62
530.26	23318.76
530.43	23154.92
530.60	23110.45
530.77	23318.76
530.94	23606.64
531.11	23250.88
531.28	22864.69
531.46	23325.78
531.63	23480.25
531.80	23562.17
531.97	23962.40
532.14	23623.03
532.31	23456.85
532.48	23831.33
532.65	23866.44
532.82	23756.44
532.99	23660.48
533.16	23377.27
533.33	23967.09
533.50	24067.73
533.67	24100.50
533.84	23901.55
534.01	24217.52
534.18	23456.85
534.35	24004.53
534.52	24009.22
534.69	24212.84
534.86	24210.50
535.03	24032.62
535.20	23943.68
535.37	24341.57
535.54	24402.43
535.71	23983.47
535.88	24367.32
536.05	23924.96
536.22	24416.47
536.38	24566.26
536.55	24215.18
536.72	24386.04
536.89	24280.72
537.06	24215.18
537.23	24163.69
537.40	24393.06
537.57	24638.82
537.74	24769.89
537.91	24769.89
538.08	24655.20
538.25	24603.71
538.42	24627.12
538.59	24716.06
538.75	24975.86
538.92	24669.25
539.09	24702.01
539.26	24816.70
539.43	25034.37
539.60	24805.00
539.77	25198.21
539.94	25006.28
540.11	24823.72
540.28	24943.09
540.44	25212.25
540.61	25102.25
540.78	24900.96
540.95	25399.49
541.12	25120.97
541.29	25242.68
541.46	25439.28
541.62	24957.13
541.79	25245.02
541.96	24790.95
542.13	25359.70
542.30	25528.22
542.47	25507.16
542.63	25553.97
542.80	25701.42
542.97	25575.03
543.14	25869.94
543.31	25788.02
543.48	25645.25
543.64	25916.75
543.81	26038.46
543.98	25921.43
544.15	25741.21
544.32	25977.61
544.48	26071.23
544.65	25839.51
544.82	25909.73
544.99	25755.26
545.16	26015.05
545.32	25977.61
545.49	26487.84
545.66	25881.64
545.83	26391.88
546.00	26684.45
546.16	26246.77
546.33	26176.55
546.50	26029.10
546.67	26270.17
546.83	25874.62
547.00	26206.98
547.17	26108.68
547.34	26012.71
547.50	26436.35
547.67	26977.01
547.84	26576.78
548.00	26410.60
548.17	26782.75
548.34	26312.30
548.51	26256.13
548.67	26775.73
548.84	26480.82
549.01	26600.19
549.18	26501.89
549.34	26778.07
549.51	26916.16
549.68	26616.57
549.84	26581.46
550.01	26782.75
550.18	26473.80
550.34	26993.40
550.51	26654.02
550.68	26757.00
550.84	26705.51
551.01	26909.14
551.18	26787.43
551.34	26759.34
551.51	26810.84
551.68	26883.39
551.84	27000.42
552.01	26930.20
552.18	27168.94
552.34	27639.39
552.51	27182.98
552.68	26820.20
552.84	27330.44
553.01	27623.00
553.18	27381.93
553.34	27372.57
553.51	27447.46
553.67	27262.56
553.84	27370.22
554.01	27349.16
554.17	27410.01
554.34	27288.31
554.51	27639.39
554.67	27267.24
554.84	27807.90
555.00	27321.07
555.17	27232.13
555.33	27718.96
555.50	27290.65
555.67	27405.33
555.83	27545.76
556.00	27405.33
556.16	27576.19
556.33	27672.15
556.50	27700.24
556.66	27702.58
556.83	27922.59
556.99	27915.57
557.16	28297.08
557.32	28151.96
557.49	27889.82
557.65	27325.75
557.82	27648.75
557.98	27946.00
558.15	27819.61
558.32	27868.76
558.48	27510.66
558.65	28013.87
558.81	28011.53
558.98	28081.75
559.14	27938.97
559.31	27941.32
559.47	28041.96
559.64	28147.28
559.80	28098.13
559.97	28238.56
560.13	28168.35
560.30	28233.88
560.46	27742.37
560.63	28102.81
560.79	28245.58
560.96	27667.47
561.12	28170.69
561.29	28154.30
561.45	28472.62
561.61	28107.49
561.78	28245.58
561.94	28093.45
562.11	28409.42
562.27	28238.56
562.44	28088.77
562.60	27924.93
562.77	28449.21
562.93	28191.75
563.10	28568.58
563.26	27957.70
563.42	28285.37
563.59	28067.70
563.75	28301.76
563.92	28458.57
564.08	28067.70
564.24	28407.08
564.41	28121.54
564.57	28505.38
564.74	28158.99
564.90	28629.43
565.07	28545.17
565.23	28514.75
565.39	28589.64
565.56	28257.29
565.72	28481.98
565.88	28226.86
566.05	28276.01
566.21	28369.63
566.38	28456.23
566.54	28594.32
566.70	28641.14
566.87	28783.91
567.03	28374.31
567.19	28400.06
567.36	28929.02
567.52	28552.20
567.68	28989.88
567.85	28641.14
568.01	28547.51
568.17	28615.39
568.34	28360.27
568.50	29134.99
568.66	28811.99
568.83	28477.30
568.99	28723.05
569.15	28734.76
569.32	28517.09
569.48	28486.66
569.64	28606.03
569.81	28940.72
569.97	28643.48
570.13	28622.41
570.30	28781.57
570.46	29137.33
570.62	28741.78
570.78	28500.70
570.95	28320.48
571.11	28683.27
571.27	28369.63
571.43	28657.52
571.60	28814.34
571.76	28254.95
571.92	28739.44
572.09	29123.29
572.25	29003.92
572.41	28655.18
572.57	28844.76
572.74	29160.73
572.90	28474.96
573.06	28680.92
573.22	28386.02
573.38	28758.16
573.55	29249.67
573.71	28905.62
573.87	29123.29
574.03	28643.48
574.20	29039.03
574.36	28922.00
574.52	28723.05
574.68	28762.84
574.84	28973.49
575.01	29099.88
575.17	29050.73
575.33	28985.19
575.49	28945.41
575.65	28788.59
575.82	29123.29
575.98	28608.37
576.14	28877.53
576.30	28748.80
576.46	28662.20
576.62	28982.85
576.79	29069.45
576.95	29092.86
577.11	28559.22
577.27	28711.35
577.43	29050.73
577.59	28741.78
577.75	28936.04
577.92	28900.94
578.08	29167.76
578.24	28968.81
578.40	28423.47
578.56	29092.86
578.72	28882.21
578.88	29565.65
579.04	29221.59
579.21	29474.37
579.37	29013.28
579.53	29460.32
579.69	28678.58
579.85	28875.19
580.01	29099.88
580.17	28922.00
580.33	28826.04
580.49	29085.84
580.65	29270.74
580.82	29390.11
580.98	29055.41
581.14	29219.25
581.30	29259.04
581.46	28910.30
581.62	29289.46
581.78	28842.42
581.94	28807.31
582.10	28807.31
582.26	29074.13
582.42	29109.24
582.58	29338.62
582.74	29441.60
582.90	29244.99
583.06	29537.56
583.22	29429.90
583.38	29125.63
583.54	28835.40
583.70	29359.68
583.86	29008.60
584.02	28919.66
584.18	29465.00
584.34	29443.94
584.50	29371.38
584.66	29048.39
584.82	28936.04
584.98	29095.20
585.14	29106.90
585.30	29088.18
585.46	28945.41
585.62	28783.91
585.78	28985.19
585.94	29020.30
586.10	28968.81
586.26	29172.44
586.42	29418.19
586.58	29200.52
586.74	29567.99
586.90	29078.82
587.06	29104.56
587.22	29427.56
587.38	29158.39
587.54	29340.96
587.70	29212.23
587.86	29319.89
588.02	29624.16
588.18	29467.34
588.34	29642.88
588.49	29539.90
588.65	29202.86
588.81	29429.90
588.97	28978.17
589.13	29216.91
589.29	29331.59
589.45	29558.63
589.61	29340.96
589.77	29682.67
589.93	29673.31
590.08	29649.91
590.24	29504.79
590.40	29544.58
590.56	29399.47
590.72	29270.74
590.88	29186.48
591.04	29219.25
591.20	29879.28
591.35	29546.92
591.51	29982.26
591.67	29699.06
591.83	30003.33
591.99	29771.61
592.15	29572.67
592.31	29310.53
592.46	29149.03
592.62	29345.64
592.78	29287.12
592.94	29415.85
593.10	29593.73
593.26	29530.54
593.41	29600.76
593.57	29523.52
593.73	29680.33
593.89	29780.98
594.05	29687.36
594.20	29303.51
594.36	29481.39
594.52	29792.68
594.68	29984.60
594.84	29095.20
594.99	29710.76
595.15	29715.44
595.31	29778.64
595.47	29900.34
595.62	29795.02
595.78	29633.52
595.94	29708.42
596.10	29656.93
596.25	29661.61
596.41	29359.68
596.57	29757.57
596.73	29694.38
596.88	29792.68
597.04	29876.94
597.20	29991.62
597.36	29516.50
597.51	29816.08
597.67	29804.38
597.83	29446.28
597.99	29692.04
598.14	29490.75
598.30	29703.74
598.46	29888.64
598.61	29956.52
598.77	29472.03
598.93	30054.82
599.09	29624.16
599.24	29886.30
599.40	29816.08
599.56	30188.23
599.71	29848.85
599.87	29610.12
600.03	29972.90
600.18	29446.28
600.34	29553.94
600.50	29720.12
600.65	29883.96
600.81	29907.37
600.97	30073.54
601.12	30036.09
601.28	29523.52
601.44	29991.62
601.59	30087.59
601.75	29603.10
601.91	29654.59
602.06	29553.94
602.22	29411.17
602.37	29383.09
602.53	29944.81
602.69	29956.52
602.84	29633.52
603.00	29933.11
603.16	29687.36
603.31	29879.28
603.47	29795.02
603.62	29516.50
603.78	29670.97
603.94	29610.12
604.09	29942.47
604.25	29785.66
604.40	29570.33
604.56	30000.99
604.71	30150.78
604.87	29855.87
605.03	29844.17
605.18	29614.80
605.34	29895.66
605.49	29434.58
605.65	29670.97
605.80	29202.86
605.96	29769.27
606.12	29551.60
606.27	29872.26
606.43	29680.33
606.58	29694.38
606.74	29530.54
606.89	29790.34
607.05	29951.84
607.20	29642.88
607.36	29804.38
607.51	29404.15
607.67	29490.75
607.82	29558.63
607.98	29626.50
608.13	29495.43
608.29	29612.46
608.44	29715.44
608.60	29385.43
608.75	29694.38
608.91	29502.45
609.06	29525.86
609.22	30169.51
609.37	29235.63
609.53	29149.03
609.68	29385.43
609.84	29528.20
609.99	29750.55
610.15	29530.54
610.30	29237.97
610.46	29617.14
610.61	29776.30
610.76	29937.79
610.92	29289.46
611.07	29455.64
611.23	29467.34
611.38	29710.76
611.54	29015.62
611.69	28961.79
611.84	29549.26
612.00	29137.33
612.15	29205.20
612.31	29127.97
612.46	28989.88
612.62	29479.05
612.77	29106.90
612.92	29282.44
613.08	29340.96
613.23	29188.82
613.39	29039.03
613.54	28980.51
613.69	29003.92
613.85	29200.52
614.00	29347.98
614.15	29401.81
614.31	28847.10
614.46	29362.02
614.62	28886.89
614.77	29415.85
614.92	29137.33
615.08	29015.62
615.23	28900.94
615.38	29500.11
615.54	28725.39
615.69	28879.87
615.84	28671.56
616.00	28767.52
616.15	28978.17
616.30	29252.02
616.46	29223.93
616.61	28992.22
616.76	28978.17
616.92	28629.43
617.07	29060.09
617.22	28746.46
617.37	28397.72
617.53	29067.11
617.68	28776.89
617.83	28563.90
617.99	28830.72
618.14	28783.91
618.29	29053.07
618.45	28694.97
618.60	29221.59
618.75	28737.10
618.90	28943.06
619.06	28652.84
619.21	28837.74
619.36	28641.14
619.51	28573.26
619.67	28458.57
619.82	28636.45
619.97	28659.86
620.12	28339.21
620.28	28613.05
620.43	28636.45
620.58	28826.04
620.73	28301.76
620.89	28804.97
621.04	28980.51
621.19	28215.16
621.34	28428.15
621.49	28077.07
621.65	28594.32
621.80	28634.11
621.95	28311.12
622.10	28479.64
622.25	28428.15
622.41	28774.55
622.56	28418.78
622.71	28510.07
622.86	28414.10
623.01	28510.07
623.16	28554.54
623.32	28503.04
623.47	28072.39
623.62	28266.65
623.77	28034.94
623.92	28322.82
624.07	28194.09
624.23	28163.67
624.38	28313.46
624.53	28301.76
624.68	28348.57
624.83	28332.18
624.98	28215.16
625.13	28161.33
625.29	27948.34
625.44	28364.95
625.59	28098.13
625.74	27461.51
625.89	27761.09
626.04	27733.01
626.19	27845.35
626.34	28018.55
626.49	27725.99
626.65	27920.25
626.80	27934.29
626.95	27740.03
627.10	27920.25
627.25	27960.04
627.40	27601.94
627.55	27573.85
627.70	27590.24
627.85	27768.12
628.00	27620.66
628.15	27892.16
628.30	27484.91
628.45	27496.61
628.60	27899.19
628.76	27557.47
628.91	27578.53
629.06	27222.77
629.21	28041.96
629.36	27274.26
629.51	27637.05
629.66	27515.34
629.81	27250.86
629.96	27168.94
630.11	27639.39
630.26	27082.34
630.41	27522.36
630.56	27440.44
630.71	27466.19
630.86	27428.74
631.01	27505.98
631.16	27262.56
631.31	27110.43
631.46	27358.52
631.61	27840.67
631.76	27564.49
631.91	27211.07
632.06	27402.99
632.21	27407.67
632.36	27168.94
632.51	26686.79
632.66	27033.19
632.81	26829.56
632.96	26946.59
633.10	27173.62
633.25	27199.37
633.40	27454.48
633.55	27054.25
633.70	27283.62
633.85	27030.85
634.00	26972.33
634.15	27047.23
634.30	27000.42
634.45	26948.93
634.60	26808.50
634.75	26951.27
634.90	26731.26
635.05	27016.80
635.19	26867.01
635.34	26876.37
635.49	26974.67
635.64	26829.56
635.79	26717.22
635.94	26888.07
636.09	27012.12
636.24	26616.57
636.39	26595.51
636.53	26515.93
636.68	26403.58
636.83	26874.03
636.98	26642.32
637.13	26721.90
637.28	26965.31
637.43	26855.31
637.57	27012.12
637.72	26965.31
637.87	26843.60
638.02	26614.23
638.17	26747.64
638.32	26752.32
638.46	26455.08
638.61	26434.01
638.76	26284.22
638.91	26441.03
639.06	26597.85
639.20	26815.52
639.35	26368.48
639.50	26726.58
639.65	26492.52
639.80	26689.13
639.94	26230.38
640.09	26249.11
640.24	26270.17
640.39	26192.94
640.54	25935.48
640.68	26382.52
640.83	26225.70
640.98	26349.75
641.13	25900.37
641.27	26277.19
641.42	26316.98
641.57	26324.01
641.72	26316.98
641.86	25902.71
642.01	25738.87
642.16	26029.10
642.31	25975.27
642.45	26061.87
642.60	25862.92
642.75	26050.16
642.90	25982.29
643.04	25886.32
643.19	25687.38
643.34	26026.76
643.48	25799.73
643.63	25710.78
643.78	25663.97
643.93	25989.31
644.07	26302.94
644.22	25912.07
644.37	25853.56
644.51	25993.99
644.66	25764.62
644.81	25706.10
644.95	25727.17
645.10	25521.20
645.25	25537.59
645.39	25659.29
645.54	25912.07
645.69	25795.04
645.83	25624.18
645.98	25617.16
646.13	25706.10
646.27	25766.96
646.42	25539.93
646.57	25626.53
646.71	25675.68
646.86	25408.86
647.00	25490.77
647.15	25553.97
647.30	25642.91
647.44	25401.83
647.59	25516.52
647.74	25186.50
647.88	25544.61
648.03	25490.77
648.17	25553.97
648.32	25673.34
648.47	25242.68
648.61	25844.20
648.76	25582.06
648.90	25710.78
649.05	25455.67
649.20	25280.13
649.34	25319.92
649.49	25228.63
649.63	25535.24
649.78	25376.09
649.92	24872.87
650.07	25249.70
650.21	25135.01
650.36	25245.02
650.51	25387.79
650.65	25219.27
650.80	25076.50
650.94	25202.89
651.09	24762.87
651.23	25158.42
651.38	25324.60
651.52	25261.40
651.67	25170.12
651.81	24849.47
651.96	25071.82
652.10	25223.95
652.25	24828.40
652.39	25036.71
652.54	25144.38
652.68	24779.25
652.83	25099.90
652.97	25020.33
653.12	25069.48
653.26	25099.90
653.41	24863.51
653.55	24805.00
653.70	24486.68
653.84	24664.57
653.99	24793.29
654.13	24821.38
654.27	24636.48
654.42	24671.59
654.56	24685.63
654.71	24861.17
654.85	24491.37
655.00	24985.22
655.14	24652.86
655.29	24453.92
655.43	24924.36
655.57	24702.01
655.72	24652.86
655.86	24655.20
656.01	24882.24
656.15	24514.77
656.30	24407.11
656.44	24404.77
656.58	24559.24
656.73	24458.60
656.87	24830.74
657.01	24882.24
657.16	24582.65
657.30	24514.77
657.45	24467.96
657.59	24339.23
657.73	24240.93
657.88	24238.59
658.02	24411.79
658.16	24245.61
658.31	24212.84
658.45	24182.42
658.60	24334.55
658.74	23964.75
658.88	24306.46
659.03	23878.15
659.17	24074.75
659.31	24254.97
659.46	24074.75
659.60	24182.42
659.74	23981.13
659.89	24023.26
660.03	24102.84
660.17	23854.74
660.32	23892.19
660.46	23737.71
660.60	23810.27
660.74	23264.92
660.89	23857.08
661.03	23431.10
661.17	23700.26
661.32	23700.26
661.46	23735.37
661.60	23356.21
661.74	23733.03
661.89	23784.52
662.03	23566.85
662.17	23726.01
662.31	23875.80
662.46	23576.22
662.60	23606.64
662.74	23435.78
662.88	23082.36
663.03	22944.27
663.17	23323.44
663.31	23225.14
663.45	23211.09
663.60	22972.36
663.74	22937.25
663.88	23152.58
664.02	23124.49
664.17	23484.94
664.31	23234.50
664.45	23260.24
664.59	23005.13
664.73	23267.27
664.88	23080.02
665.02	22806.18
665.16	23014.49
665.30	22501.91
665.44	23082.36
665.59	22665.75
665.73	22841.29
665.87	22719.58
666.01	22717.24
666.15	22593.19
666.29	22836.61
666.44	22726.60
666.58	22412.97
666.72	22663.41
666.86	22555.74
667.00	22581.49
667.14	22546.38
667.28	22326.37
667.43	22244.45
667.57	22181.26
667.71	22391.91
667.85	22457.44
667.99	22127.42
668.13	22244.45
668.27	22202.32
668.41	22689.15
668.56	22061.89
668.70	22403.61
668.84	22054.87
668.98	22141.47
669.12	22122.74
669.26	21984.65
669.40	21750.60
669.54	21968.27
669.68	22003.38
669.82	21666.34
669.96	21631.23
670.10	21614.85
670.25	21783.37
670.39	21816.13
670.53	21610.17
670.67	21561.02
670.81	21565.70
670.95	21724.85
671.09	21813.79
671.23	21584.42
671.37	21692.08
671.51	21586.76
671.65	21689.74
671.79	21343.35
671.93	21160.78
672.07	21748.26
672.21	21130.36
672.35	21156.10
672.49	20889.28
672.63	21010.99
672.77	21092.91
672.91	21174.83
673.05	21317.60
673.19	20922.05
673.33	20884.60
673.47	20865.88
673.61	20945.45
673.75	20783.96
673.89	20847.15
674.03	20669.27
674.17	21003.97
674.31	20292.44
674.45	20741.83
674.59	20713.74
674.73	20725.44
674.87	20489.05
675.01	20549.90
675.15	20489.05
675.29	20381.38
675.43	20397.77
675.56	20287.76
675.70	20510.11
675.84	19962.43
675.98	19620.71
676.12	20271.38
676.26	20266.70
676.40	20360.32
676.54	20215.21
676.68	19822.00
676.82	19517.73
676.96	19667.52
677.10	19740.08
677.23	19571.56
677.37	19707.31
677.51	19552.84
677.65	19606.67
677.79	19360.91
677.93	19393.68
678.07	19335.17
678.21	19154.94
678.34	19096.43
678.48	19414.74
678.62	19138.56
678.76	19138.56
678.90	18958.34
679.04	19159.63
679.18	19117.50
679.31	18991.11
679.45	18757.05
679.59	18300.65
679.73	18754.71
679.87	18384.91
680.00	18438.74
680.14	18258.52
680.28	18415.34
680.42	18618.96
680.56	18520.66
680.70	18136.81
680.83	18476.19
680.97	18139.15
681.11	18607.26
681.25	17961.27
681.39	18050.21
681.52	18160.22
681.66	17809.14
681.80	17869.99
681.94	17696.79
682.07	17980.00
682.21	17996.38
682.35	17635.94
682.49	17652.32
682.62	17474.44
682.76	17745.94
682.90	17387.84
683.04	17680.41
683.17	17401.88
683.31	17369.12
683.45	17383.16
683.59	17343.37
683.72	17474.44
683.86	17174.85
684.00	16886.97
684.13	17451.03
684.27	17055.48
684.41	16926.75
684.55	16870.58
684.68	16662.27
684.82	16758.24
684.96	16524.18
685.09	16563.97
685.23	16465.67
685.37	16512.48
685.50	16793.34
685.64	16468.01
685.78	16446.94
685.91	16648.23
686.05	16313.53
686.19	16233.96
686.32	16498.44
686.46	16240.98
686.60	15651.16
686.73	16046.71
686.87	16032.67
687.01	15803.30
687.14	15939.05
687.28	15985.86
687.42	15770.53
687.55	15697.97
687.69	15632.44
687.82	15611.37
687.96	15557.54
688.10	15520.09
688.23	15899.26
688.37	15679.25
688.50	15164.33
688.64	15660.52
688.78	15484.98
688.91	15290.72
689.05	15190.08
689.18	15169.01
689.32	14899.85
689.46	14780.48
689.59	15082.41
689.73	15112.84
689.86	14796.87
690.00	14677.50
690.13	14883.47
690.27	14740.69
690.41	14867.08
690.54	14551.11
690.68	14675.16
690.81	14237.48
690.95	14406.00
691.08	14513.66
691.22	14506.64
691.35	14516.00
691.49	14672.82
691.62	14387.27
691.76	14221.10
691.89	13965.98
692.03	14085.34
692.16	14003.43
692.30	13879.38
692.43	13991.72
692.57	13528.30
692.70	13762.35
692.84	13752.99
692.97	13582.13
693.11	13582.13
693.24	13671.07
693.38	13650.00
693.51	13682.77
693.65	13584.47
693.78	13422.97
693.92	13607.87
694.05	13273.18
694.19	13345.73
694.32	13137.43
694.45	13053.17
694.59	13018.06
694.72	12870.61
694.86	13074.23
694.99	12917.42
695.13	12718.47
695.26	13008.70
695.39	12688.04
695.53	12681.02
695.66	12830.82
695.80	12636.55
695.93	12601.44
696.07	12674.00
696.20	12776.98
696.33	12484.42
696.47	12556.97
696.60	12470.37
696.73	12320.58
696.87	12292.49
697.00	12418.88
697.14	11927.37
697.27	11824.39
697.40	11976.52
697.54	11812.68
697.67	11866.52
697.80	11754.17
697.94	11887.58
698.07	11831.41
698.21	11770.55
698.34	11925.03
698.47	11906.31
698.61	11698.00
698.74	11442.88
698.87	11662.89
699.01	11609.06
699.14	11433.52
699.27	11503.73
699.40	11424.15
699.54	11405.43
699.67	11091.80
699.80	11250.96
699.94	10995.84
700.07	11049.67
700.20	11033.29
700.34	10794.55
700.47	10853.06
700.60	10700.93
700.73	10902.22
700.87	11019.24
701.00	10925.62
701.13	10897.53
701.26	10714.97
701.40	10986.47
701.53	10644.76
701.66	10860.09
701.79	10693.91
701.93	10523.05
702.06	10427.09
702.19	10281.97
702.32	10153.24
702.46	10300.70
702.59	10019.83
702.72	10293.68
702.85	10122.82
702.99	10015.15
703.12	10178.99
703.25	10193.03
703.38	10106.43
703.51	10090.05
703.65	9813.87
703.78	9956.64
703.91	9944.94
704.04	9764.72
704.17	9813.87
704.31	9764.72
704.44	9781.10
704.57	9584.49
704.70	9614.92
704.83	9205.33
704.96	9291.93
705.10	9224.05
705.23	9139.79
>>>>>End Processed Spectral Data<<<<<
