SpectraSuite Data File
++++++++++++++++++++++++++++++++++++
Date: Fri Oct 18 13:58:30 GMT-05:00 2013
User: bianchi
Dark Spectrum Present: No
Reference Spectrum Present: No
Number of Sampled Component Spectra: 1
Spectrometers: USB2+H05261
Integration Time (usec): 50000 (USB2+H05261)
Spectra Averaged: 1 (USB2+H05261)
Boxcar Smoothing: 0 (USB2+H05261)
Correct for Electrical Dark: No (USB2+H05261)
Strobe/Lamp Enabled: No (USB2+H05261)
Correct for Detector Non-linearity: No (USB2+H05261)
Correct for Stray Light: No (USB2+H05261)
Number of Pixels in Processed Spectrum: 2048
>>>>>Begin Processed Spectral Data<<<<<
365.73	0.00
365.92	0.00
366.12	0.00
366.32	0.00
366.52	0.00
366.72	0.00
366.91	0.00
367.11	0.00
367.31	0.00
367.51	0.00
367.70	0.00
367.90	0.00
368.10	0.00
368.30	0.00
368.49	0.00
368.69	0.00
368.89	0.00
369.09	0.00
369.28	0.00
369.48	0.00
369.68	0.00
369.87	0.00
370.07	0.00
370.27	0.00
370.47	0.00
370.66	105.32
370.86	72.56
371.06	86.60
371.25	114.69
371.45	119.37
371.65	149.79
371.84	156.82
372.04	95.96
372.24	177.88
372.44	170.86
372.63	124.05
372.83	203.63
373.03	168.52
373.22	142.77
373.42	198.95
373.62	168.52
373.81	257.46
374.01	217.67
374.21	259.80
374.40	283.20
374.60	250.44
374.79	276.18
374.99	196.60
375.19	191.92
375.38	215.33
375.58	257.46
375.78	280.86
375.97	217.67
376.17	285.55
376.37	205.97
376.56	252.78
376.76	203.63
376.95	198.95
377.15	210.65
377.35	212.99
377.54	248.10
377.74	217.67
377.93	229.37
378.13	248.10
378.33	313.63
378.52	229.37
378.72	196.60
378.91	353.42
379.11	220.01
379.31	222.35
379.50	269.16
379.70	355.76
379.89	217.67
380.09	269.16
380.28	294.91
380.48	278.52
380.68	341.72
380.87	269.16
381.07	334.70
381.26	386.19
381.46	334.70
381.65	273.84
381.85	362.78
382.04	304.27
382.24	355.76
382.43	229.37
382.63	290.23
382.83	325.33
383.02	285.55
383.22	325.33
383.41	304.27
383.61	348.74
383.80	355.76
384.00	325.33
384.19	397.89
384.39	407.25
384.58	437.68
384.78	376.83
384.97	327.68
385.17	327.68
385.36	358.10
385.56	332.36
385.75	320.65
385.95	486.83
386.14	353.42
386.34	353.42
386.53	404.91
386.72	332.36
386.92	440.02
387.11	442.36
387.31	430.66
387.50	383.85
387.70	355.76
387.89	400.23
388.09	402.57
388.28	456.40
388.48	491.51
388.67	461.09
388.86	404.91
389.06	465.77
389.25	477.47
389.45	463.43
389.64	430.66
389.84	468.11
390.03	470.45
390.22	472.79
390.42	353.42
390.61	447.04
390.81	472.79
391.00	442.36
391.19	486.83
391.39	454.06
391.58	526.62
391.78	411.93
391.97	538.32
392.16	407.25
392.36	535.98
392.55	521.94
392.75	482.15
392.94	498.53
393.13	510.24
393.33	552.37
393.52	547.69
393.71	559.39
393.91	564.07
394.10	496.19
394.29	503.22
394.49	519.60
394.68	552.37
394.88	599.18
395.07	538.32
395.26	540.66
395.46	564.07
395.65	615.56
395.84	557.05
396.04	638.97
396.23	601.52
396.42	564.07
396.62	641.31
396.81	615.56
397.00	723.23
397.19	638.97
397.39	620.24
397.58	662.37
397.77	690.46
397.97	683.44
398.16	634.29
398.35	706.84
398.55	660.03
398.74	592.16
398.93	603.86
399.12	674.07
399.32	716.20
399.51	617.90
399.70	807.48
399.90	685.78
400.09	676.41
400.28	734.93
400.47	734.93
400.67	671.73
400.86	732.59
401.05	744.29
401.24	793.44
401.44	777.06
401.63	821.53
401.82	903.45
402.01	788.76
402.21	821.53
402.40	802.80
402.59	786.42
402.78	807.48
402.97	786.42
403.17	868.34
403.36	889.40
403.55	922.17
403.74	812.17
403.93	940.90
404.13	950.26
404.32	826.21
404.51	856.64
404.70	830.89
404.89	889.40
405.09	985.37
405.28	912.81
405.47	945.58
405.66	877.70
405.85	994.73
406.05	1029.84
406.24	1022.81
406.43	1015.79
406.62	980.68
406.81	973.66
407.00	999.41
407.20	1034.52
407.39	1015.79
407.58	1036.86
407.77	1055.58
407.96	1043.88
408.15	929.19
408.34	1083.67
408.54	1118.78
408.73	1069.62
408.92	1116.44
409.11	1064.94
409.30	1100.05
409.49	1060.26
409.68	1050.90
409.87	1048.56
410.07	1142.18
410.26	1231.12
410.45	1088.35
410.64	1254.53
410.83	1231.12
411.02	1177.29
411.21	1245.16
411.40	1184.31
411.59	1240.48
411.78	1198.35
411.98	1224.10
412.17	1256.87
412.36	1383.26
412.55	1221.76
412.74	1219.42
412.93	1200.69
413.12	1245.16
413.31	1334.11
413.50	1413.68
413.69	1366.87
413.88	1341.13
414.07	1341.13
414.26	1451.13
414.45	1413.68
414.64	1401.98
414.83	1430.07
415.02	1444.11
415.22	1439.43
415.41	1509.65
415.60	1523.69
415.79	1519.01
415.98	1533.05
416.17	1589.22
416.36	1551.78
416.55	1519.01
416.74	1640.72
416.93	1556.46
417.12	1509.65
417.31	1558.80
417.50	1722.63
417.69	1636.03
417.88	1764.76
418.07	1706.25
418.26	1633.69
418.45	1703.91
418.64	1760.08
418.83	1806.89
419.02	1811.57
419.21	1874.77
419.39	1806.89
419.58	1767.10
419.77	1762.42
419.96	1811.57
420.15	1856.04
420.34	1746.04
420.53	1722.63
420.72	1870.09
420.91	1825.62
421.10	1914.56
421.29	2008.18
421.48	1818.60
421.67	1846.68
421.86	1881.79
422.05	1884.13
422.24	1872.43
422.43	1856.04
422.61	1916.90
422.80	1989.46
422.99	1982.43
423.18	1928.60
423.37	1996.48
423.56	1884.13
423.75	1905.20
423.94	2017.54
424.13	1837.32
424.32	1893.49
424.50	1912.22
424.69	1928.60
424.88	1937.96
425.07	2001.16
425.26	2019.88
425.45	2045.63
425.64	1928.60
425.83	1987.11
426.01	2076.06
426.20	1975.41
426.39	2150.95
426.58	2040.95
426.77	1947.33
426.96	2040.95
427.15	1975.41
427.33	2193.08
427.52	2019.88
427.71	2108.82
427.90	2026.90
428.09	2024.56
428.28	2036.27
428.46	2085.42
428.65	2148.61
428.84	2162.66
429.03	2246.91
429.22	2101.80
429.40	2176.70
429.59	2111.16
429.78	2069.03
429.97	2134.57
430.16	2176.70
430.34	2132.23
430.53	2270.32
430.72	2345.22
430.91	2214.15
431.10	2155.63
431.28	2354.58
431.47	2399.05
431.66	2427.14
431.85	2279.68
432.03	2230.53
432.22	2368.62
432.41	2382.67
432.60	2525.44
432.79	2389.69
432.97	2499.69
433.16	2293.72
433.35	2513.74
433.54	2375.64
433.72	2429.48
433.91	2483.31
434.10	2523.10
434.28	2471.61
434.47	2509.05
434.66	2448.20
434.85	2483.31
435.03	2569.91
435.22	2567.57
435.41	2686.94
435.59	2628.42
435.78	2661.19
435.97	2560.55
436.16	2523.10
436.34	2487.99
436.53	2602.68
436.72	2691.62
436.90	2612.04
437.09	2712.68
437.28	2609.70
437.46	2553.52
437.65	2675.23
437.84	2630.76
438.02	2677.57
438.21	2738.43
438.40	2712.68
438.58	2813.32
438.77	2827.37
438.96	2832.05
439.14	2832.05
439.33	2904.60
439.52	2953.76
439.70	2928.01
439.89	3002.91
440.08	2972.48
440.26	3019.29
440.45	3009.93
440.63	3035.67
440.82	3012.27
441.01	3068.44
441.19	3038.02
441.38	3052.06
441.57	3141.00
441.75	3159.72
441.94	3129.30
442.12	3241.64
442.31	3265.05
442.50	3227.60
442.68	3229.94
442.87	3243.98
443.05	3293.13
443.24	3260.37
443.43	3241.64
443.61	3400.80
443.80	3377.39
443.98	3302.50
444.17	3164.40
444.35	3293.13
444.54	3351.65
444.73	3361.01
444.91	3365.69
445.10	3272.07
445.28	3389.10
445.47	3232.28
445.65	3328.24
445.84	3220.58
446.02	3253.34
446.21	3393.78
446.39	3424.20
446.58	3480.38
446.77	3590.38
446.95	3431.23
447.14	3328.24
447.32	3372.71
447.51	3435.91
447.69	3386.76
447.88	3480.38
448.06	3496.76
448.25	3412.50
448.43	3524.85
448.62	3440.59
448.80	3382.07
448.99	3426.54
449.17	3435.91
449.36	3510.80
449.54	3550.59
449.73	3639.53
449.91	3674.64
450.10	3758.90
450.28	3585.70
450.46	3655.92
450.65	3578.68
450.83	3557.61
451.02	3651.24
451.20	3662.94
451.39	3691.02
451.57	3775.28
451.76	3534.21
451.94	3569.32
452.13	3712.09
452.31	3742.52
452.49	3751.88
452.68	3719.11
452.86	3805.71
453.05	3728.47
453.23	3927.42
453.42	3798.69
453.60	3730.81
453.78	3728.47
453.97	3693.37
454.15	3789.33
454.34	3840.82
454.52	3747.20
454.70	3845.50
454.89	3889.97
455.07	3836.14
455.26	3969.55
455.44	4032.74
455.62	3955.51
455.81	4081.89
455.99	4004.66
456.17	4021.04
456.36	4187.22
456.54	4091.26
456.73	4149.77
456.91	4140.41
457.09	4065.51
457.28	4227.01
457.46	4166.15
457.64	4301.90
457.83	4248.07
458.01	4250.41
458.19	4166.15
458.38	4355.74
458.56	4320.63
458.74	4266.80
458.93	4355.74
459.11	4477.44
459.29	4447.02
459.48	4322.97
459.66	4348.72
459.84	4395.53
460.03	4432.97
460.21	4461.06
460.39	4353.40
460.57	4491.49
460.76	4538.30
460.94	4580.43
461.12	4620.22
461.31	4535.96
461.49	4430.63
461.67	4472.76
461.85	4578.09
462.04	4589.79
462.22	4709.16
462.40	4629.58
462.59	4599.15
462.77	4655.33
462.95	4610.86
463.13	4535.96
463.32	4709.16
463.50	4725.54
463.68	4655.33
463.86	4718.52
464.05	4683.41
464.23	4667.03
464.41	4774.69
464.59	4727.88
464.78	4894.06
464.96	4809.80
465.14	4772.35
465.32	4968.96
465.50	4887.04
465.69	4968.96
465.87	4814.48
466.05	4910.44
466.23	5018.11
466.41	4957.25
466.60	4833.21
466.78	4828.53
466.96	4933.85
467.14	4887.04
467.32	5041.51
467.51	5118.75
467.69	4784.06
467.87	4971.30
468.05	5104.71
468.23	5055.56
468.41	5046.20
468.60	5004.07
468.78	5041.51
468.96	5102.37
469.14	5252.16
469.32	5062.58
469.50	4983.00
469.69	5235.78
469.87	5156.20
470.05	5289.61
470.23	5329.40
470.41	5320.04
470.59	5399.62
470.77	5310.68
470.95	5404.30
471.14	5413.66
471.32	5160.88
471.50	5502.60
471.68	5411.32
471.86	5554.09
472.04	5516.64
472.22	5734.31
472.40	5504.94
472.58	5561.11
472.77	5621.97
472.95	5624.31
473.13	5738.99
473.31	5720.27
473.49	5621.97
473.67	5689.84
473.85	5867.72
474.03	5856.02
474.21	5886.45
474.39	5834.96
474.57	5982.41
474.75	5935.60
474.93	6153.27
475.12	5837.30
475.30	6108.80
475.48	5949.64
475.66	6129.86
475.84	5949.64
476.02	6214.12
476.20	6141.57
476.38	6176.67
476.56	6366.26
476.74	6193.06
476.92	6403.71
477.10	6232.85
477.28	6525.41
477.46	6427.11
477.64	6558.18
477.82	6766.49
478.00	6663.51
478.18	6789.89
478.36	6665.85
478.54	6958.41
478.72	6939.69
478.90	6918.62
479.08	7169.06
479.26	6920.96
479.44	7054.37
479.62	7066.08
479.80	7080.12
479.98	7314.17
480.16	7241.62
480.34	7190.13
480.52	7478.01
480.70	7590.36
480.88	7463.97
481.06	7475.67
481.24	7522.48
481.41	7445.24
481.59	7810.37
481.77	7808.03
481.95	7681.64
482.13	7868.88
482.31	7960.16
482.49	8079.53
482.67	8006.97
482.85	8203.58
483.03	8154.43
483.21	8175.49
483.39	8336.99
483.57	8290.18
483.74	8245.71
483.92	8482.10
484.10	8336.99
484.28	8629.56
484.46	8725.52
484.64	8767.65
484.82	8650.62
485.00	8826.16
485.18	9095.32
485.35	8978.30
485.53	9224.05
485.71	9207.67
485.89	9362.14
486.07	9254.48
486.25	9387.89
486.43	9408.95
486.61	9427.68
486.78	9570.45
486.96	9650.03
487.14	9788.12
487.32	9795.14
487.50	9844.29
487.68	9870.04
487.85	10136.86
488.03	10148.56
488.21	10195.37
488.39	10148.56
488.57	10415.38
488.75	10663.48
488.92	10621.35
489.10	10689.23
489.28	10396.66
489.46	10726.68
489.64	10654.12
489.81	10934.98
489.99	10998.18
490.17	11047.33
490.35	11052.01
490.53	11304.79
490.70	11143.29
490.88	11194.78
491.06	11517.78
491.24	11482.67
491.41	11503.73
491.59	11634.80
491.77	11686.29
491.95	11775.24
492.13	12154.40
492.30	11822.05
492.48	11655.87
492.66	11817.36
492.84	12004.61
493.01	12411.86
493.19	12400.16
493.37	12425.90
493.54	12643.57
493.72	12336.96
493.90	12648.26
494.08	12664.64
494.25	12547.61
494.43	12739.54
494.61	12594.42
494.79	12905.71
494.96	12872.95
495.14	12931.46
495.32	13214.66
495.49	13107.00
495.67	13558.72
495.85	13448.72
496.02	13259.13
496.20	13453.40
496.38	13591.49
496.55	13872.36
496.73	13792.78
496.91	13715.54
497.09	13792.78
497.26	14005.77
497.44	13998.74
497.62	14120.45
497.79	14153.22
497.97	14059.60
498.14	14265.57
498.32	14572.18
498.50	14490.26
498.67	14583.88
498.85	14513.66
499.03	14347.48
499.20	14431.74
499.38	14846.02
499.56	14717.29
499.73	15197.10
499.91	14796.87
500.08	15002.83
500.26	14963.04
500.44	14932.62
500.61	14885.81
500.79	15117.52
500.97	15382.00
501.14	15281.36
501.32	15293.06
501.49	15489.67
501.67	15470.94
501.84	15297.74
502.02	15513.07
502.20	15634.78
502.37	15695.63
502.55	15803.30
502.72	15798.62
502.90	15866.49
503.07	15723.72
503.25	15346.89
503.43	16140.33
503.60	15999.90
503.78	15990.54
503.95	16056.08
504.13	16453.97
504.30	16194.17
504.48	16112.25
504.65	16336.94
504.83	16524.18
505.01	16704.40
505.18	16334.60
505.36	16643.55
505.53	16650.57
505.71	16575.67
505.88	16442.26
506.06	16601.42
506.23	17097.61
506.41	17013.35
506.58	16947.82
506.76	16781.64
506.93	16868.24
507.11	17057.82
507.28	16975.91
507.46	17001.65
507.63	17572.74
507.81	17334.01
507.98	17240.39
508.16	17266.13
508.33	17528.27
508.50	17329.33
508.68	17539.97
508.85	17476.78
509.03	17422.95
509.20	17720.20
509.38	17568.06
509.55	17848.93
509.73	17818.50
509.90	17858.29
510.08	17715.51
510.25	18085.32
510.42	18354.48
510.60	18073.62
510.77	18448.10
510.95	18415.34
511.12	18113.41
511.30	18235.11
511.47	18375.55
511.64	18260.86
511.82	18640.03
511.99	18553.43
512.17	18616.62
512.34	18452.78
512.51	18693.86
512.69	18625.98
512.86	18817.91
513.04	19005.15
513.21	18920.89
513.38	18794.50
513.56	18974.72
513.73	18963.02
513.90	18979.40
514.08	19012.17
514.25	18834.29
514.43	19044.94
514.60	19344.53
514.77	19381.98
514.95	19484.96
515.12	19381.98
515.29	19131.54
515.47	19606.67
515.64	19349.21
515.81	19503.68
515.99	19470.92
516.16	20079.46
516.33	19674.54
516.51	19826.68
516.68	19426.45
516.85	19819.66
517.03	19910.94
517.20	19950.73
517.37	20271.38
517.54	19950.73
517.72	20304.15
517.89	20084.14
518.06	20365.00
518.24	20177.76
518.41	20063.07
518.58	20196.48
518.75	20432.88
518.93	20388.41
519.10	20627.14
519.27	20790.98
519.45	20449.26
519.62	20484.37
519.79	20435.22
519.96	20486.71
520.14	20884.60
520.31	20500.75
520.48	20561.61
520.65	20861.19
520.83	20964.18
521.00	20629.48
521.17	20886.94
521.34	20964.18
521.52	21137.38
521.69	21067.16
521.86	21160.78
522.03	21043.76
522.20	21032.05
522.38	21284.83
522.55	21153.76
522.72	21479.10
522.89	21266.11
523.07	21593.78
523.24	21511.86
523.41	21607.83
523.58	21488.46
523.75	21881.67
523.92	21324.62
524.10	21462.71
524.27	21582.08
524.44	21837.20
524.61	22171.89
524.78	22127.42
524.96	21748.26
525.13	21788.05
525.30	22043.17
525.47	21825.50
525.64	21865.28
525.81	22146.15
525.98	22197.64
526.16	22324.03
526.33	22256.15
526.50	22319.35
526.67	22309.99
526.84	22064.23
527.01	22157.85
527.18	22010.40
527.36	22487.87
527.53	22408.29
527.70	22621.28
527.87	22253.81
528.04	22768.73
528.21	22572.13
528.38	22530.00
528.55	22747.67
528.72	22836.61
528.89	22504.25
529.07	22836.61
529.24	22817.88
529.41	22834.27
529.58	22703.20
529.75	22803.84
529.92	23005.13
530.09	22955.97
530.26	23042.57
530.43	23129.17
530.60	22960.66
530.77	23070.66
530.94	23342.16
531.11	23012.15
531.28	23257.90
531.46	22899.80
531.63	23150.24
531.80	23372.59
531.97	23367.91
532.14	23793.89
532.31	23756.44
532.48	23548.13
532.65	23370.25
532.82	23302.37
532.99	23571.54
533.16	23285.99
533.33	23480.25
533.50	24006.87
533.67	23704.95
533.84	23424.08
534.01	23735.37
534.18	23468.55
534.35	24070.07
534.52	23686.22
534.69	23908.57
534.86	24137.94
535.03	23704.95
535.20	24107.52
535.37	23974.11
535.54	24039.64
535.71	23999.85
535.88	24095.82
536.05	24383.70
536.22	24261.99
536.38	24477.32
536.55	24364.98
536.72	24182.42
536.89	23978.79
537.06	24130.92
537.23	24177.73
537.40	24360.30
537.57	24439.87
537.74	24510.09
537.91	24699.67
538.08	25001.60
538.25	24395.40
538.42	24673.93
538.59	24861.17
538.75	24486.68
538.92	24753.51
539.09	24755.85
539.26	24603.71
539.43	24369.66
539.60	24762.87
539.77	24755.85
539.94	25099.90
540.11	24945.43
540.28	24748.82
540.44	24994.58
540.61	24893.94
540.78	24741.80
540.95	25069.48
541.12	24835.42
541.29	24968.84
541.46	24980.54
541.62	25127.99
541.79	25261.40
541.96	24924.36
542.13	25010.96
542.30	24926.71
542.47	25359.70
542.63	25333.96
542.80	25184.16
542.97	25661.63
543.14	25656.95
543.31	25631.21
543.48	25221.61
543.64	25535.24
543.81	25605.46
543.98	25736.53
544.15	25682.70
544.32	25851.22
544.48	26279.54
544.65	25348.00
544.82	25785.68
544.99	25818.45
545.16	25853.56
545.32	25977.61
545.49	26277.19
545.66	26087.61
545.83	26185.91
546.00	25855.90
546.16	26309.96
546.33	25876.96
546.50	25598.44
546.67	26106.34
546.83	25745.89
547.00	26366.13
547.17	26249.11
547.34	26176.55
547.50	26251.45
547.67	26473.80
547.84	25525.88
548.00	26078.25
548.17	26541.68
548.34	26176.55
548.51	26141.44
548.67	26597.85
548.84	26476.14
549.01	26324.01
549.18	26656.36
549.34	26506.57
549.51	26539.33
549.68	26483.16
549.84	26309.96
550.01	26515.93
550.18	26520.61
550.34	26876.37
550.51	26539.33
550.68	26572.10
550.84	26551.04
551.01	26789.77
551.18	26984.04
551.34	26558.06
551.51	26859.99
551.68	26892.76
551.84	27126.81
552.01	26991.06
552.18	26740.62
552.34	26764.03
552.51	27307.03
552.68	26679.77
552.84	26948.93
553.01	27157.24
553.18	27360.86
553.34	27182.98
553.51	27138.51
553.67	27211.07
553.84	27089.36
554.01	27173.62
554.17	27349.16
554.34	27065.96
554.51	26939.57
554.67	27400.65
554.84	27150.21
555.00	27016.80
555.17	27391.29
555.33	27674.49
555.50	26888.07
555.67	27201.71
555.83	27414.69
556.00	27466.19
556.16	27517.68
556.33	27438.10
556.50	27648.75
556.66	27688.54
556.83	27721.30
556.99	27751.73
557.16	27737.69
557.32	27749.39
557.49	27625.34
557.65	27702.58
557.82	27414.69
557.98	27772.80
558.15	27805.56
558.32	27812.59
558.48	27894.50
558.65	27821.95
558.81	27646.41
558.98	27903.87
559.14	27606.62
559.31	27761.09
559.47	28056.00
559.64	27887.48
559.80	28114.52
559.97	28116.86
560.13	27740.03
560.30	27868.76
560.46	27913.23
560.63	28149.62
560.79	27969.40
560.96	28048.98
561.12	27723.65
561.29	27903.87
561.45	28123.88
561.61	28053.66
561.78	28077.07
561.94	27882.80
562.11	28217.50
562.27	27903.87
562.44	28397.72
562.60	28107.49
562.77	28116.86
562.93	28126.22
563.10	28219.84
563.26	28423.47
563.42	28203.46
563.59	28573.26
563.75	28297.08
563.92	28226.86
564.08	28063.02
564.24	28250.27
564.41	28210.48
564.57	28336.87
564.74	28144.94
564.90	27948.34
565.07	28292.40
565.23	28240.90
565.39	28390.70
565.56	28357.93
565.72	28458.57
565.88	28018.55
566.05	27985.79
566.21	27903.87
566.38	28170.69
566.54	28348.57
566.70	28797.95
566.87	28481.98
567.03	28732.42
567.19	28943.06
567.36	28465.60
567.52	28453.89
567.68	28547.51
567.85	28285.37
568.01	28322.82
568.17	28542.83
568.34	28657.52
568.50	28730.08
568.66	28395.38
568.83	28549.85
568.99	28432.83
569.15	28652.84
569.32	28699.65
569.48	28203.46
569.64	28545.17
569.81	28290.06
569.97	28613.05
570.13	28568.58
570.30	28631.77
570.46	28334.53
570.62	28503.04
570.78	28407.08
570.95	27999.83
571.11	28606.03
571.27	28947.75
571.43	28395.38
571.60	28788.59
571.76	28641.14
571.92	28954.77
572.09	28753.48
572.25	28606.03
572.41	29160.73
572.57	28903.28
572.74	28854.12
572.90	28442.19
573.06	28395.38
573.22	28325.16
573.38	28776.89
573.55	28587.30
573.71	29032.00
573.87	28814.34
574.03	28631.77
574.20	28582.62
574.36	28463.25
574.52	28613.05
574.68	28709.01
574.84	28584.96
575.01	28535.81
575.17	28870.51
575.33	28390.70
575.49	28692.63
575.65	28973.49
575.82	29252.02
575.98	28807.31
576.14	28987.53
576.30	28594.32
576.46	28793.27
576.62	28364.95
576.79	28964.13
576.95	28664.54
577.11	28730.08
577.27	28844.76
577.43	28952.43
577.59	28606.03
577.75	28716.03
577.92	28985.19
578.08	28687.95
578.24	28627.09
578.40	28802.63
578.56	28800.29
578.72	28889.23
578.88	28720.71
579.04	29252.02
579.21	29163.08
579.37	28774.55
579.53	28957.11
579.69	28528.79
579.85	29055.41
580.01	29404.15
580.17	28870.51
580.33	29006.26
580.49	29230.95
580.65	28790.93
580.82	29003.92
580.98	29081.16
581.14	28870.51
581.30	28954.77
581.46	28755.82
581.62	28615.39
581.78	28503.04
581.94	29074.13
582.10	28875.19
582.26	28816.68
582.42	29067.11
582.58	29006.26
582.74	28933.70
582.90	29034.35
583.06	29303.51
583.22	28877.53
583.38	29205.20
583.54	28666.88
583.70	28994.56
583.86	29013.28
584.02	28919.66
584.18	28858.81
584.34	29191.16
584.50	29235.63
584.66	28924.34
584.82	28746.46
584.98	29385.43
585.14	28971.15
585.30	28701.99
585.46	28788.59
585.62	28723.05
585.78	28989.88
585.94	28931.36
586.10	29235.63
586.26	29247.33
586.42	29380.74
586.58	29401.81
586.74	28907.96
586.90	28917.32
587.06	28973.49
587.22	29284.78
587.38	29188.82
587.54	29376.06
587.70	29036.69
587.86	29263.72
588.02	29198.18
588.18	29518.84
588.34	29371.38
588.49	29149.03
588.65	29090.52
588.81	28964.13
588.97	29090.52
589.13	28701.99
589.29	29181.80
589.45	29144.35
589.61	29193.50
589.77	29289.46
589.93	29369.04
590.08	29539.90
590.24	29244.99
590.40	29563.31
590.56	29413.51
590.72	29507.13
590.88	29013.28
591.04	29326.91
591.20	29797.36
591.35	29802.04
591.51	29729.48
591.67	29553.94
591.83	30012.69
591.99	29832.47
592.15	29373.72
592.31	29392.45
592.46	29628.84
592.62	28959.45
592.78	29390.11
592.94	29095.20
593.10	29443.94
593.26	29605.44
593.41	29493.09
593.57	29362.02
593.73	29177.12
593.89	29612.46
594.05	29015.62
594.20	29364.36
594.36	29741.19
594.52	29387.77
594.68	29355.00
594.84	29104.56
594.99	29673.31
595.15	29556.28
595.31	29771.61
595.47	29443.94
595.62	29404.15
595.78	29490.75
595.94	29488.41
596.10	29736.51
596.25	29521.18
596.41	29207.55
596.57	29546.92
596.73	29544.58
596.88	29738.85
597.04	29530.54
597.20	29394.79
597.36	29677.99
597.51	29654.59
597.67	29654.59
597.83	29378.40
597.99	29558.63
598.14	29436.92
598.30	29436.92
598.46	29589.05
598.61	29764.59
598.77	29392.45
598.93	29738.85
599.09	29500.11
599.24	29785.66
599.40	30305.26
599.56	29790.34
599.71	29654.59
599.87	29600.76
600.03	29874.60
600.18	29551.60
600.34	29413.51
600.50	29645.23
600.65	29628.84
600.81	29516.50
600.97	29827.79
601.12	29766.93
601.28	29558.63
601.44	29495.43
601.59	29785.66
601.75	29390.11
601.91	29905.02
602.06	29544.58
602.22	29788.00
602.37	29593.73
602.53	29621.82
602.69	29893.32
602.84	29628.84
603.00	29869.92
603.16	29898.00
603.31	29659.27
603.47	29832.47
603.62	29956.52
603.78	29729.48
603.94	29631.18
604.09	29804.38
604.25	29579.69
604.40	29673.31
604.56	29631.18
604.71	29799.70
604.87	29612.46
605.03	29862.90
605.18	29530.54
605.34	29682.67
605.49	29703.74
605.65	29511.81
605.80	29064.77
605.96	29345.64
606.12	29560.97
606.27	29436.92
606.43	29254.36
606.58	29362.02
606.74	29745.87
606.89	29486.07
607.05	29553.94
607.20	29488.41
607.36	29771.61
607.51	29933.11
607.67	29233.29
607.82	29088.18
607.98	29776.30
608.13	29362.02
608.29	29411.17
608.44	29677.99
608.60	29153.71
608.75	29841.83
608.91	29481.39
609.06	29282.44
609.22	29493.09
609.37	29261.38
609.53	29570.33
609.68	29153.71
609.84	29303.51
609.99	29060.09
610.15	29167.76
610.30	29387.77
610.46	29427.56
610.61	29387.77
610.76	29275.42
610.92	29383.09
611.07	29460.32
611.23	29125.63
611.38	29010.94
611.54	29104.56
611.69	29170.10
611.84	29174.78
612.00	29184.14
612.15	28945.41
612.31	29355.00
612.46	29331.59
612.62	29228.61
612.77	29067.11
612.92	29191.16
613.08	29132.65
613.23	29352.66
613.39	28945.41
613.54	29015.62
613.69	28898.59
613.85	28713.69
614.00	28739.44
614.15	29198.18
614.31	28884.55
614.46	28868.17
614.62	29163.08
614.77	28819.02
614.92	29357.34
615.08	28662.20
615.23	29067.11
615.38	29032.00
615.54	28833.06
615.69	28886.89
615.84	28849.44
616.00	28851.78
616.15	28776.89
616.30	28954.77
616.46	28552.20
616.61	28673.90
616.76	28842.42
616.92	28868.17
617.07	28779.23
617.22	28912.64
617.37	28725.39
617.53	29032.00
617.68	28196.43
617.83	28650.50
617.99	28835.40
618.14	28664.54
618.29	28641.14
618.45	28765.18
618.60	28608.37
618.75	28741.78
618.90	28774.55
619.06	28910.30
619.21	28493.68
619.36	28463.25
619.51	28149.62
619.67	28254.95
619.82	28727.74
619.97	28713.69
620.12	28477.30
620.28	28327.50
620.43	28299.42
620.58	28201.11
620.73	28498.36
620.89	28624.75
621.04	28701.99
621.19	28491.34
621.34	28507.72
621.49	28156.64
621.65	28425.81
621.80	28177.71
621.95	28599.01
622.10	28311.12
622.25	28135.58
622.41	28484.32
622.56	28308.78
622.71	28357.93
622.86	28027.92
623.01	28556.88
623.16	28435.17
623.32	28119.20
623.47	28184.73
623.62	27779.82
623.77	27777.48
623.92	28393.04
624.07	27971.74
624.23	27878.12
624.38	27725.99
624.53	28374.31
624.68	28287.71
624.83	28346.23
624.98	27992.81
625.13	28329.84
625.29	28121.54
625.44	28393.04
625.59	27922.59
625.74	27704.92
625.89	27735.35
626.04	27548.11
626.19	28128.56
626.34	28025.57
626.49	27569.17
626.65	27665.13
626.80	27754.07
626.95	27468.53
627.10	27882.80
627.25	28109.83
627.40	27660.45
627.55	27365.54
627.70	27475.55
627.85	27660.45
628.00	27058.93
628.15	27632.36
628.30	27201.71
628.45	27833.65
628.60	27023.83
628.76	27442.78
628.91	27337.46
629.06	27442.78
629.21	27447.46
629.36	27660.45
629.51	27307.03
629.66	27262.56
629.81	27129.15
629.96	26944.25
630.11	27285.97
630.26	27428.74
630.41	27381.93
630.56	27119.79
630.71	27414.69
630.86	27447.46
631.01	27534.06
631.16	27529.38
631.31	27168.94
631.46	27042.55
631.61	27080.00
631.76	27072.98
631.91	27332.78
632.06	27190.00
632.21	26848.29
632.36	27185.32
632.51	27042.55
632.66	27105.74
632.81	27161.92
632.96	27314.05
633.10	27164.26
633.25	27152.55
633.40	27087.02
633.55	26829.56
633.70	26852.97
633.85	26649.34
634.00	26647.00
634.15	26836.58
634.30	27115.11
634.45	26768.71
634.60	26754.66
634.75	26977.01
634.90	26668.06
635.05	26937.23
635.19	26597.85
635.34	26752.32
635.49	26855.31
635.64	26724.24
635.79	26937.23
635.94	26953.61
636.09	26721.90
636.24	26522.95
636.39	26703.17
636.53	26654.02
636.68	26595.51
636.83	26597.85
636.98	26824.88
637.13	26780.41
637.28	26410.60
637.43	26794.45
637.57	26904.46
637.72	26574.44
637.87	26459.76
638.02	26864.67
638.17	26677.43
638.32	26466.78
638.46	26412.95
638.61	26448.05
638.76	26354.43
638.91	26588.49
639.06	26324.01
639.20	26338.05
639.35	26146.12
639.50	26410.60
639.65	26548.70
639.80	26195.28
639.94	26143.78
640.09	26436.35
640.24	26426.99
640.39	26113.36
640.54	25961.22
640.68	26082.93
640.83	25944.84
640.98	25759.94
641.13	25972.92
641.27	26178.89
641.42	25989.31
641.57	26178.89
641.72	26001.01
641.86	25816.11
642.01	26064.21
642.16	26214.00
642.31	25654.61
642.45	25827.81
642.60	25706.10
642.75	25862.92
642.90	25619.50
643.04	25907.39
643.19	25708.44
643.34	26033.78
643.48	25678.02
643.63	25998.67
643.78	25497.80
643.93	26197.62
644.07	25933.14
644.22	26134.42
644.37	25781.00
644.51	25626.53
644.66	25771.64
644.81	25834.83
644.95	25369.07
645.10	25532.90
645.25	25521.20
645.39	25436.94
645.54	25558.65
645.69	25490.77
645.83	25844.20
645.98	25369.07
646.13	25720.15
646.27	25965.90
646.42	25841.85
646.57	25706.10
646.71	25443.96
646.86	25277.79
647.00	25659.29
647.15	25568.01
647.30	25612.48
647.44	25628.87
647.59	25525.88
647.74	25301.19
647.88	25565.67
648.03	25359.70
648.17	25607.80
648.32	25656.95
648.47	25626.53
648.61	25219.27
648.76	25476.73
648.90	25607.80
649.05	25448.64
649.20	25406.52
649.34	25429.92
649.49	24922.02
649.63	25298.85
649.78	25053.09
649.92	25153.74
650.07	25345.66
650.21	25364.39
650.36	25383.11
650.51	25135.01
650.65	25418.22
650.80	25376.09
650.94	25357.36
651.09	24414.13
651.23	25020.33
651.38	24847.13
651.52	24835.42
651.67	24517.11
651.81	25039.05
651.96	24924.36
652.10	25074.16
652.25	24931.39
652.39	24877.55
652.54	25418.22
652.68	24868.19
652.83	24819.04
652.97	25006.28
653.12	24774.57
653.26	24931.39
653.41	24905.64
653.55	24966.49
653.70	24774.57
653.84	24781.59
653.99	24599.03
654.13	24739.46
654.27	24676.27
654.42	24893.94
654.56	24603.71
654.71	24889.26
654.85	24776.91
655.00	24915.00
655.14	24643.50
655.29	24561.58
655.43	24531.15
655.57	24521.79
655.72	24877.55
655.86	24070.07
656.01	24503.07
656.15	24364.98
656.30	24851.81
656.44	24477.32
656.58	24187.10
656.73	24339.23
656.87	24444.56
657.01	24517.11
657.16	24472.64
657.30	24540.52
657.45	24456.26
657.59	24421.15
657.73	24084.11
657.88	24163.69
658.02	24477.32
658.16	24287.74
658.31	24170.71
658.45	24102.84
658.60	23814.95
658.74	23934.32
658.88	23707.29
659.03	24327.53
659.17	23983.47
659.31	24166.03
659.46	24147.31
659.60	24245.61
659.74	23639.41
659.89	23828.99
660.03	23941.34
660.17	23997.51
660.32	23735.37
660.46	23634.73
660.60	23557.49
660.74	23576.22
660.89	23763.46
661.03	23449.83
661.17	23489.62
661.32	23641.75
661.46	23850.06
661.60	23941.34
661.74	23695.58
661.89	23730.69
662.03	23810.27
662.17	23527.06
662.31	23452.17
662.46	23793.89
662.60	23405.36
662.74	23318.76
662.88	23274.29
663.03	23023.85
663.17	22742.99
663.31	22890.44
663.45	22843.63
663.60	23204.07
663.74	23040.23
663.88	23513.02
664.02	23047.26
664.17	23367.91
664.31	23014.49
664.45	23129.17
664.59	22951.29
664.73	22953.63
664.88	23084.70
665.02	22600.21
665.16	22682.13
665.30	22679.79
665.44	22644.68
665.59	22574.47
665.73	22684.47
665.87	22724.26
666.01	22806.18
666.15	22647.02
666.29	22707.88
666.44	22806.18
666.58	22314.67
666.72	22747.67
666.86	22658.73
667.00	22754.69
667.14	22164.87
667.28	21961.25
667.43	22153.17
667.57	22541.70
667.71	22214.02
667.85	21989.33
667.99	22459.78
668.13	22363.82
668.27	22162.53
668.41	22129.77
668.56	21930.82
668.70	22141.47
668.84	22022.10
668.98	22185.94
669.12	22043.17
669.26	21982.31
669.40	21909.75
669.54	21727.19
669.68	21577.40
669.82	21642.93
669.96	21640.59
670.10	21338.66
670.25	21600.80
670.39	21523.57
670.53	21455.69
670.67	21296.53
670.81	21511.86
670.95	21656.98
671.09	21441.65
671.23	21385.47
671.37	21546.97
671.51	21451.01
671.65	21411.22
671.79	21310.58
671.93	21427.60
672.07	21231.00
672.21	21034.39
672.35	20975.88
672.49	20844.81
672.63	21132.70
672.77	20858.85
672.91	20898.64
673.05	21041.42
673.19	21032.05
673.33	20903.32
673.47	20767.57
673.61	20908.01
673.75	20868.22
673.89	20844.81
674.03	20798.00
674.17	20968.86
674.31	20615.44
674.45	20482.03
674.59	20561.61
674.73	20456.28
674.87	20182.44
675.01	20212.87
675.15	20346.28
675.29	19976.47
675.43	20517.14
675.56	20226.91
675.70	20524.16
675.84	20313.51
675.98	19962.43
676.12	20060.73
676.26	20210.53
676.40	20114.56
676.54	19770.51
676.68	19990.52
676.82	19353.89
676.96	19630.07
677.10	19726.04
677.23	19576.24
677.37	19445.17
677.51	19791.57
677.65	19316.44
677.79	19318.78
677.93	19311.76
678.07	19262.61
678.21	18927.91
678.34	19438.15
678.48	19026.21
678.62	18913.87
678.76	18897.49
678.90	18881.10
679.04	18735.99
679.18	18759.39
679.31	18628.32
679.45	18527.68
679.59	18593.22
679.73	18581.51
679.87	18490.23
680.00	18391.93
680.14	18267.88
680.28	18551.09
680.42	18377.89
680.56	18518.32
680.70	18232.77
680.83	18417.68
680.97	18274.90
681.11	18015.10
681.25	18284.26
681.39	18157.88
681.52	17989.36
681.66	17781.05
681.80	17865.31
681.94	17956.59
682.07	17827.86
682.21	17893.40
682.35	17490.82
682.49	17518.91
682.62	17448.69
682.76	17521.25
682.90	17804.46
683.04	17561.04
683.17	17284.86
683.31	17198.26
683.45	17263.79
683.59	17446.35
683.72	17074.21
683.86	17137.40
684.00	17488.48
684.13	17317.62
684.27	16919.73
684.41	17111.66
684.55	16610.78
684.68	16531.20
684.82	16706.74
684.96	16372.05
685.09	16397.79
685.23	16060.76
685.37	16435.24
685.50	16828.45
685.64	16484.39
685.78	16355.66
685.91	16505.46
686.05	16578.01
686.19	16259.70
686.32	16451.63
686.46	16016.29
686.60	16093.52
686.73	15896.92
686.87	16011.60
687.01	15779.89
687.14	15988.20
687.28	15604.35
687.42	15662.86
687.55	15744.78
687.69	15889.90
687.82	15819.68
687.96	15445.20
688.10	15536.48
688.23	15318.81
688.37	15599.67
688.50	15522.43
688.64	15330.51
688.78	15351.57
688.91	15323.49
689.05	15066.03
689.18	15208.80
689.32	14878.79
689.46	14876.44
689.59	14649.41
689.73	14801.55
689.86	14647.07
690.00	14927.94
690.13	14974.75
690.27	14677.50
690.41	15019.22
690.54	14485.58
690.68	14534.73
690.81	14738.35
690.95	14759.42
691.08	14630.69
691.22	14728.99
691.35	14387.27
691.49	14642.39
691.62	14368.55
691.76	13944.91
691.89	13811.50
692.03	14167.26
692.16	13912.14
692.30	14012.79
692.43	13652.34
692.57	13699.16
692.70	13642.98
692.84	13687.45
692.97	13624.26
693.11	13865.33
693.24	13582.13
693.38	13577.45
693.51	13558.72
693.65	13488.51
693.78	13497.87
693.92	13298.92
694.05	13245.09
694.19	13198.28
694.32	13149.13
694.45	13062.53
694.59	12716.13
694.72	12940.82
694.86	12947.84
694.99	12943.16
695.13	12641.23
695.26	12837.84
695.39	12519.53
695.53	12699.75
695.66	12800.39
695.80	12587.40
695.93	12568.68
696.07	12372.07
696.20	12681.02
696.33	12229.30
696.47	12372.07
696.60	12360.37
696.73	12514.84
696.87	12161.42
697.00	12315.90
697.14	12060.78
697.27	12018.65
697.40	12049.08
697.54	12126.32
697.67	11793.96
697.80	11824.39
697.94	11709.70
698.07	11709.70
698.21	11686.29
698.34	11765.87
698.47	11592.67
698.61	11520.12
698.74	11529.48
698.87	11768.21
699.01	11660.55
699.14	11522.46
699.27	11571.61
699.40	11351.60
699.54	11197.12
699.67	11461.60
699.80	10988.82
699.94	10895.19
700.07	11105.84
700.20	10848.38
700.34	10998.18
700.47	10874.13
700.60	10834.34
700.73	10860.09
700.87	11082.44
701.00	10714.97
701.13	10693.91
701.26	10654.12
701.40	10780.51
701.53	10799.23
701.66	10696.25
701.79	10408.36
701.93	10459.85
702.06	10703.27
702.19	10211.76
702.32	10354.53
702.46	10120.48
702.59	10129.84
702.72	9944.94
702.85	10115.80
702.99	10001.11
703.12	10024.51
703.25	10097.07
703.38	9877.06
703.51	9825.57
703.65	9980.04
703.78	9736.63
703.91	9722.59
704.04	9823.23
704.17	9879.40
704.31	9722.59
704.44	9823.23
704.57	9720.24
704.70	9579.81
704.83	9650.03
704.96	9472.15
705.10	9392.57
705.23	9224.05
>>>>>End Processed Spectral Data<<<<<
