SpectraSuite Data File
++++++++++++++++++++++++++++++++++++
Date: Fri Oct 18 13:58:22 GMT-05:00 2013
User: bianchi
Dark Spectrum Present: No
Reference Spectrum Present: No
Number of Sampled Component Spectra: 1
Spectrometers: USB2+H05261
Integration Time (usec): 50000 (USB2+H05261)
Spectra Averaged: 1 (USB2+H05261)
Boxcar Smoothing: 0 (USB2+H05261)
Correct for Electrical Dark: No (USB2+H05261)
Strobe/Lamp Enabled: No (USB2+H05261)
Correct for Detector Non-linearity: No (USB2+H05261)
Correct for Stray Light: No (USB2+H05261)
Number of Pixels in Processed Spectrum: 2048
>>>>>Begin Processed Spectral Data<<<<<
365.73	0.00
365.92	0.00
366.12	0.00
366.32	0.00
366.52	0.00
366.72	0.00
366.91	0.00
367.11	0.00
367.31	0.00
367.51	0.00
367.70	0.00
367.90	0.00
368.10	0.00
368.30	0.00
368.49	0.00
368.69	0.00
368.89	0.00
369.09	0.00
369.28	0.00
369.48	0.00
369.68	0.00
369.87	0.00
370.07	0.00
370.27	0.00
370.47	0.00
370.66	58.51
370.86	70.22
371.06	138.09
371.25	135.75
371.45	159.16
371.65	119.37
371.84	205.97
372.04	124.05
372.24	182.56
372.44	227.03
372.63	217.67
372.83	208.31
373.03	255.12
373.22	222.35
373.42	210.65
373.62	231.71
373.81	220.01
374.01	248.10
374.21	222.35
374.40	243.42
374.60	238.73
374.79	217.67
374.99	276.18
375.19	194.26
375.38	283.20
375.58	245.76
375.78	278.52
375.97	243.42
376.17	308.95
376.37	266.82
376.56	255.12
376.76	259.80
376.95	234.05
377.15	276.18
377.35	252.78
377.54	259.80
377.74	311.29
377.93	276.18
378.13	341.72
378.33	292.57
378.52	299.59
378.72	299.59
378.91	278.52
379.11	313.63
379.31	304.27
379.50	250.44
379.70	297.25
379.89	339.38
380.09	250.44
380.28	353.42
380.48	278.52
380.68	351.08
380.87	332.36
381.07	304.27
381.26	313.63
381.46	304.27
381.65	372.15
381.85	292.57
382.04	292.57
382.24	283.20
382.43	353.42
382.63	341.72
382.83	414.27
383.02	393.21
383.22	285.55
383.41	269.16
383.61	407.25
383.80	390.87
384.00	348.74
384.19	379.17
384.39	318.31
384.58	320.65
384.78	315.97
384.97	334.70
385.17	395.55
385.36	325.33
385.56	386.19
385.75	447.04
385.95	348.74
386.14	379.17
386.34	369.80
386.53	390.87
386.72	400.23
386.92	388.53
387.11	421.30
387.31	409.59
387.50	400.23
387.70	416.62
387.89	418.96
388.09	416.62
388.28	425.98
388.48	379.17
388.67	475.13
388.86	421.30
389.06	409.59
389.25	535.98
389.45	437.68
389.64	388.53
389.84	435.34
390.03	477.47
390.22	475.13
390.42	423.64
390.61	437.68
390.81	456.40
391.00	526.62
391.19	594.50
391.39	458.74
391.58	477.47
391.78	500.87
391.97	592.16
392.16	528.96
392.36	622.58
392.55	521.94
392.75	517.26
392.94	566.41
393.13	514.92
393.33	582.79
393.52	589.82
393.71	505.56
393.91	601.52
394.10	613.22
394.29	634.29
394.49	538.32
394.68	606.20
394.88	624.92
395.07	660.03
395.26	624.92
395.46	575.77
395.65	566.41
395.84	744.29
396.04	690.46
396.23	641.31
396.42	624.92
396.62	638.97
396.81	716.20
397.00	629.60
397.19	674.07
397.39	685.78
397.58	702.16
397.77	641.31
397.97	681.10
398.16	706.84
398.35	716.20
398.55	674.07
398.74	723.23
398.93	788.76
399.12	685.78
399.32	718.54
399.51	704.50
399.70	669.39
399.90	671.73
400.09	725.57
400.28	788.76
400.47	676.41
400.67	702.16
400.86	828.55
401.05	812.17
401.24	774.72
401.44	763.01
401.63	821.53
401.82	837.91
402.01	777.06
402.21	753.65
402.40	861.32
402.59	880.04
402.78	814.51
402.97	903.45
403.17	840.25
403.36	887.06
403.55	875.36
403.74	823.87
403.93	882.38
404.13	901.11
404.32	873.02
404.51	947.92
404.70	924.51
404.89	861.32
405.09	957.28
405.28	957.28
405.47	922.17
405.66	983.02
405.85	1008.77
406.05	903.45
406.24	828.55
406.43	999.41
406.62	1032.18
406.81	1057.92
407.00	987.71
407.20	1020.47
407.39	1060.26
407.58	1008.77
407.77	887.06
407.96	1006.43
408.15	1025.15
408.34	1086.01
408.54	983.02
408.73	1111.75
408.92	1086.01
409.11	1121.12
409.30	1074.31
409.49	1097.71
409.68	1057.92
409.87	1160.91
410.07	1160.91
410.26	1095.37
410.45	1198.35
410.64	1249.85
410.83	1205.38
411.02	1170.27
411.21	1177.29
411.40	1191.33
411.59	1165.59
411.78	1275.59
411.98	1268.57
412.17	1249.85
412.36	1324.74
412.55	1299.00
412.74	1252.19
412.93	1376.24
413.12	1343.47
413.31	1366.87
413.50	1310.70
413.69	1392.62
413.88	1369.21
414.07	1519.01
414.26	1430.07
414.45	1369.21
414.64	1467.52
414.83	1511.99
415.02	1511.99
415.22	1549.43
415.41	1551.78
415.60	1500.28
415.79	1514.33
415.98	1554.12
416.17	1582.20
416.36	1577.52
416.55	1582.20
416.74	1715.61
416.93	1640.72
417.12	1582.20
417.31	1713.27
417.50	1820.94
417.69	1750.72
417.88	1631.35
418.07	1746.04
418.26	1666.46
418.45	1781.15
418.64	1734.34
418.83	1729.66
419.02	1720.29
419.21	1729.66
419.39	1785.83
419.58	1774.13
419.77	1757.74
419.96	1783.49
420.15	1792.85
420.34	1846.68
420.53	1834.98
420.72	1834.98
420.91	1844.34
421.10	2017.54
421.29	1954.35
421.48	2029.24
421.67	1877.11
421.86	1898.17
422.05	1907.54
422.24	1952.01
422.43	2036.27
422.61	2054.99
422.80	2029.24
422.99	2031.58
423.18	1870.09
423.37	2036.27
423.56	1998.82
423.75	1970.73
423.94	2080.74
424.13	1802.21
424.32	1895.83
424.50	1947.33
424.69	2073.71
424.88	2052.65
425.07	2097.12
425.26	2003.50
425.45	2057.33
425.64	1940.30
425.83	1959.03
426.01	2005.84
426.20	1944.99
426.39	2129.89
426.58	2066.69
426.77	2127.55
426.96	2022.22
427.15	2113.50
427.33	2122.87
427.52	2080.74
427.71	2181.38
427.90	2122.87
428.09	2195.42
428.28	2228.19
428.46	2200.10
428.65	2246.91
428.84	2221.17
429.03	2249.25
429.22	2235.21
429.40	2186.06
429.59	2193.08
429.78	2155.63
429.97	2069.03
430.16	2312.45
430.34	2232.87
430.53	2331.17
430.72	2197.76
430.91	2277.34
431.10	2277.34
431.28	2340.54
431.47	2373.30
431.66	2338.20
431.85	2303.09
432.03	2356.92
432.22	2480.97
432.41	2417.77
432.60	2415.43
432.79	2328.83
432.97	2438.84
433.16	2450.54
433.35	2459.90
433.54	2380.32
433.72	2502.03
433.91	2597.99
434.10	2530.12
434.28	2340.54
434.47	2555.86
434.66	2588.63
434.85	2490.33
435.03	2548.84
435.22	2560.55
435.41	2677.57
435.59	2663.53
435.78	2534.80
435.97	2633.10
436.16	2574.59
436.34	2576.93
436.53	2647.15
436.72	2656.51
436.90	2581.61
437.09	2623.74
437.28	2658.85
437.46	2705.66
437.65	2658.85
437.84	2665.87
438.02	2733.75
438.21	2862.48
438.40	2658.85
438.58	2857.79
438.77	2850.77
438.96	2829.71
439.14	2892.90
439.33	2881.20
439.52	3052.06
439.70	2918.65
439.89	3014.61
440.08	2895.24
440.26	3054.40
440.45	2935.03
440.63	3190.15
440.82	3030.99
441.01	3190.15
441.19	3007.59
441.38	3164.40
441.57	3204.19
441.75	3073.12
441.94	3248.66
442.12	3169.09
442.31	3300.16
442.50	3206.53
442.68	3314.20
442.87	3288.45
443.05	3288.45
443.24	3328.24
443.43	3365.69
443.61	3321.22
443.80	3524.85
443.98	3379.73
444.17	3283.77
444.35	3351.65
444.54	3426.54
444.73	3311.86
444.91	3393.78
445.10	3323.56
445.28	3297.81
445.47	3314.20
445.65	3412.50
445.84	3426.54
446.02	3412.50
446.21	3323.56
446.39	3258.03
446.58	3473.36
446.77	3536.55
446.95	3410.16
447.14	3520.17
447.32	3555.27
447.51	3555.27
447.69	3407.82
447.88	3543.57
448.06	3548.25
448.25	3487.40
448.43	3625.49
448.62	3499.10
448.80	3417.18
448.99	3475.70
449.17	3578.68
449.36	3496.76
449.54	3616.13
449.73	3637.19
449.91	3782.31
450.10	3669.96
450.28	3737.84
450.46	3744.86
450.65	3651.24
450.83	3599.74
451.02	3749.54
451.20	3709.75
451.39	3805.71
451.57	3730.81
451.76	3786.99
451.94	3693.37
452.13	3829.12
452.31	3866.56
452.49	3784.65
452.68	3782.31
452.86	3660.60
453.05	3908.69
453.23	3911.04
453.42	3726.13
453.60	3896.99
453.78	3852.52
453.97	3990.61
454.15	3885.29
454.34	4009.34
454.52	4084.23
454.70	3953.16
454.89	3939.12
455.07	4114.66
455.26	4060.83
455.44	4093.60
455.62	4077.21
455.81	4098.28
455.99	4107.64
456.17	4105.30
456.36	4196.58
456.54	4163.81
456.73	4208.28
456.91	4070.19
457.09	4292.54
457.28	4393.19
457.46	4175.52
457.64	4430.63
457.83	4454.04
458.01	4337.01
458.19	4430.63
458.38	4341.69
458.56	4414.25
458.74	4421.27
458.93	4531.28
459.11	4409.57
459.29	4409.57
459.48	4477.44
459.66	4484.47
459.84	4381.48
460.03	4442.34
460.21	4456.38
460.39	4498.51
460.57	4512.55
460.76	4564.04
460.94	4636.60
461.12	4594.47
461.31	4627.24
461.49	4561.70
461.67	4423.61
461.85	4615.54
462.04	4685.75
462.22	4849.59
462.40	4669.37
462.59	4858.95
462.77	4608.51
462.95	4648.30
463.13	4765.33
463.32	4807.46
463.50	4741.93
463.68	4755.97
463.86	4767.67
464.05	4877.68
464.23	4744.27
464.41	4889.38
464.59	4767.67
464.78	4882.36
464.96	4992.36
465.14	4802.78
465.32	4873.00
465.50	4868.31
465.69	4968.96
465.87	4919.81
466.05	4816.82
466.23	4968.96
466.41	4992.36
466.60	5142.16
466.78	4994.70
466.96	4964.28
467.14	4922.15
467.32	5331.74
467.51	5186.63
467.69	5029.81
467.87	5107.05
468.05	5221.74
468.23	5170.24
468.41	5004.07
468.60	5256.84
468.78	5277.91
468.96	5170.24
469.14	5102.37
469.32	5226.42
469.50	5207.69
469.69	5322.38
469.87	5256.84
470.05	5317.70
470.23	5380.89
470.41	5439.40
470.59	5563.45
470.77	5418.34
470.95	5376.21
471.14	5603.24
471.32	5355.15
471.50	5598.56
471.68	5481.53
471.86	5661.76
472.04	5668.78
472.22	5715.59
472.40	5689.84
472.58	5802.19
472.77	5750.70
472.95	5715.59
473.13	6047.94
473.31	5673.46
473.49	5736.65
473.67	5767.08
473.85	5598.56
474.03	5841.98
474.21	6104.12
474.39	6174.33
474.57	6024.54
474.75	6073.69
474.93	6200.08
475.12	6045.60
475.30	6221.14
475.48	6169.65
475.66	6033.90
475.84	6157.95
476.02	6195.40
476.20	6424.77
476.38	6413.07
476.56	6413.07
476.74	6633.08
476.92	6448.18
477.10	6509.03
477.28	6588.61
477.46	6651.80
477.64	6558.18
477.82	6600.31
478.00	6775.85
478.18	6869.47
478.36	6836.70
478.54	6899.90
478.72	6993.52
478.90	6965.43
479.08	7094.16
479.26	7131.61
479.44	7349.28
479.62	7370.35
479.80	7349.28
479.98	7276.73
480.16	7611.42
480.34	7435.88
480.52	7522.48
480.70	7590.36
480.88	7447.58
481.06	7506.10
481.24	7756.54
481.41	7524.82
481.59	7918.03
481.77	7899.31
481.95	7953.14
482.13	7978.89
482.31	8023.36
482.49	8271.45
482.67	7981.23
482.85	8327.63
483.03	8444.65
483.21	8374.44
483.39	8386.14
483.57	8552.32
483.74	8514.87
483.92	8608.49
484.10	8395.50
484.28	8896.38
484.46	9210.01
484.64	9043.83
484.82	8748.92
485.00	9149.15
485.18	9060.21
485.35	9153.84
485.53	9214.69
485.71	9390.23
485.89	9542.36
486.07	9570.45
486.25	9376.19
486.43	9551.73
486.61	9589.17
486.78	9722.59
486.96	9685.14
487.14	9919.19
487.32	10010.47
487.50	9879.40
487.68	10253.89
487.85	10193.03
488.03	10544.11
488.21	10335.81
488.39	10588.58
488.57	10679.86
488.75	10609.65
488.92	10668.16
489.10	10867.11
489.28	10846.04
489.46	11042.65
489.64	10822.64
489.81	11101.16
489.99	11119.89
490.17	11059.03
490.35	11328.19
490.53	11351.60
490.70	11492.03
490.88	11527.14
491.06	11765.87
491.24	11562.25
491.41	11763.53
491.59	11714.38
491.77	11953.12
491.95	12049.08
492.13	11857.15
492.30	11906.31
492.48	12114.61
492.66	12018.65
492.84	12315.90
493.01	12395.48
493.19	12435.27
493.37	12418.88
493.54	12685.70
493.72	12540.59
493.90	12748.90
494.08	12762.94
494.25	12875.29
494.43	13006.36
494.61	13053.17
494.79	13336.37
494.96	13149.13
495.14	13352.76
495.32	13523.62
495.49	13645.32
495.67	13399.57
495.85	13521.27
496.02	13844.27
496.20	13881.72
496.38	13830.23
496.55	13860.65
496.73	14146.20
496.91	13956.61
497.09	14207.05
497.26	14242.16
497.44	14068.96
497.62	14195.35
497.79	14431.74
497.97	14338.12
498.14	14768.78
498.32	14471.53
498.50	14806.23
498.67	14817.93
498.85	14740.69
499.03	14773.46
499.20	14967.73
499.38	14834.32
499.56	15059.01
499.73	15110.50
499.91	15122.20
500.08	15407.75
500.26	15000.49
500.44	15164.33
500.61	15431.15
500.79	15206.46
500.97	15587.97
501.14	15791.59
501.32	15623.08
501.49	15585.63
501.67	15499.03
501.84	15604.35
502.02	15700.31
502.20	15903.94
502.37	16262.04
502.55	15932.03
502.72	15824.36
502.90	16063.10
503.07	15934.37
503.25	16170.76
503.43	16175.44
503.60	16430.56
503.78	16231.62
503.95	16280.77
504.13	16788.66
504.30	16549.93
504.48	16240.98
504.65	16643.55
504.83	16601.42
505.01	16849.52
505.18	16741.85
505.36	16877.60
505.53	17032.08
505.71	17198.26
505.88	17020.38
506.06	17097.61
506.23	17502.53
506.41	17130.38
506.58	17357.41
506.76	17132.72
506.93	17090.59
507.11	17240.39
507.28	17212.30
507.46	17315.28
507.63	17504.87
507.81	17579.76
507.98	17589.13
508.16	17605.51
508.33	17696.79
508.50	17930.84
508.68	17916.80
508.85	18150.85
509.03	17977.65
509.20	18251.50
509.38	18200.01
509.55	18338.10
509.73	18200.01
509.90	17893.40
510.08	18200.01
510.25	18230.43
510.42	18455.12
510.60	18331.08
510.77	18396.61
510.95	18546.40
511.12	18609.60
511.30	18623.64
511.47	18855.36
511.64	18946.64
511.82	19276.65
511.99	18803.86
512.17	18455.12
512.34	18822.59
512.51	18815.57
512.69	18993.45
512.86	18710.24
513.04	19241.54
513.21	19159.63
513.38	19033.24
513.56	19225.16
513.73	19358.57
513.90	18993.45
514.08	19318.78
514.25	19187.71
514.43	19625.39
514.60	19644.12
514.77	19791.57
514.95	19747.10
515.12	19524.75
515.29	19637.09
515.47	19555.18
515.64	19971.79
515.81	19800.93
515.99	20102.86
516.16	20156.69
516.33	20184.78
516.51	20215.21
516.68	19880.51
516.85	19924.98
517.03	20409.47
517.20	20435.22
517.37	20212.87
517.54	20203.50
517.72	20421.17
517.89	20278.40
518.06	20561.61
518.24	20615.44
518.41	20283.08
518.58	20477.35
518.75	20718.42
518.93	20851.83
519.10	20842.47
519.27	20863.54
519.45	20753.53
519.62	20517.14
519.79	20872.90
519.96	20917.37
520.14	21116.31
520.31	21125.68
520.48	21163.12
520.65	21092.91
520.83	21357.39
521.00	21202.91
521.17	21408.88
521.34	21207.59
521.52	21310.58
521.69	21530.59
521.86	21462.71
522.03	21469.73
522.20	21671.02
522.38	21944.86
522.55	21579.74
522.72	21673.36
522.89	21832.52
523.07	22029.12
523.24	21846.56
523.41	21820.81
523.58	22106.36
523.75	21825.50
523.92	21617.19
524.10	21729.53
524.27	22143.81
524.44	22197.64
524.61	22274.88
524.78	22228.07
524.96	22005.72
525.13	22260.84
525.30	22314.67
525.47	22530.00
525.64	22221.05
525.81	22492.55
525.98	22640.00
526.16	22553.40
526.33	22567.45
526.50	22806.18
526.67	22782.77
526.84	22560.42
527.01	22782.77
527.18	22651.70
527.36	22899.80
527.53	22927.89
527.70	22874.06
527.87	23206.41
528.04	22752.35
528.21	22864.69
528.38	22857.67
528.55	23175.98
528.72	23150.24
528.89	23042.57
529.07	23229.82
529.24	22995.76
529.41	23517.70
529.58	23260.24
529.75	23515.36
529.92	23445.15
530.09	23367.91
530.26	23592.60
530.43	23459.19
530.60	23211.09
530.77	23051.94
530.94	23580.90
531.11	23482.59
531.28	23765.80
531.46	23496.64
531.63	23779.84
531.80	23702.61
531.97	23931.98
532.14	23885.17
532.31	23796.23
532.48	24156.67
532.65	24025.60
532.82	23716.65
532.99	23857.08
533.16	23674.52
533.33	23997.51
533.50	23924.96
533.67	24233.91
533.84	23854.74
534.01	23901.55
534.18	24051.34
534.35	24577.97
534.52	24203.48
534.69	24711.38
534.86	24655.20
535.03	24336.89
535.20	24325.19
535.37	24577.97
535.54	24599.03
535.71	24285.40
535.88	24374.34
536.05	24493.71
536.22	24678.61
536.38	24793.29
536.55	24966.49
536.72	24812.02
536.89	24561.58
537.06	24631.80
537.23	25001.60
537.40	24788.61
537.57	24797.98
537.74	24863.51
537.91	24938.41
538.08	25195.87
538.25	25111.61
538.42	25053.09
538.59	24996.92
538.75	25048.41
538.92	24910.32
539.09	25385.45
539.26	25352.68
539.43	25331.62
539.60	25017.99
539.77	25348.00
539.94	25626.53
540.11	25333.96
540.28	25221.61
540.44	25050.75
540.61	25174.80
540.78	25331.62
540.95	25338.64
541.12	25724.83
541.29	25706.10
541.46	25528.22
541.62	25619.50
541.79	25682.70
541.96	25455.67
542.13	25940.16
542.30	25984.63
542.47	25879.30
542.63	25895.69
542.80	25640.57
542.97	26096.97
543.14	26174.21
543.31	25991.65
543.48	26033.78
543.64	26249.11
543.81	26354.43
543.98	26529.97
544.15	26513.59
544.32	26637.64
544.48	26307.62
544.65	26022.08
544.82	26321.66
544.99	25891.01
545.16	26153.15
545.32	26326.35
545.49	26864.67
545.66	26548.70
545.83	26368.48
546.00	26806.16
546.16	26354.43
546.33	26164.85
546.50	26101.65
546.67	26272.51
546.83	26565.08
547.00	26789.77
547.17	26607.21
547.34	26654.02
547.50	26988.72
547.67	27094.04
547.84	26808.50
548.00	26548.70
548.17	27037.87
548.34	26536.99
548.51	26878.71
548.67	26925.52
548.84	26848.29
549.01	27049.57
549.18	26916.16
549.34	26920.84
549.51	27110.43
549.68	26995.74
549.84	27058.93
550.01	26855.31
550.18	26740.62
550.34	26960.63
550.51	27222.77
550.68	27030.85
550.84	27084.68
551.01	27489.59
551.18	27152.55
551.34	27124.47
551.51	27056.59
551.68	27204.05
551.84	27688.54
552.01	27697.90
552.18	27520.02
552.34	27531.72
552.51	27604.28
552.68	27318.73
552.84	27084.68
553.01	27728.33
553.18	27611.30
553.34	28030.26
553.51	27601.94
553.67	27716.62
553.84	27793.86
554.01	27662.79
554.17	27765.78
554.34	27573.85
554.51	27873.44
554.67	27758.75
554.84	28048.98
555.00	27440.44
555.17	27704.92
555.33	27793.86
555.50	27681.52
555.67	27896.85
555.83	28236.22
556.00	27711.94
556.16	27901.53
556.33	28018.55
556.50	27889.82
556.66	27807.90
556.83	28016.21
556.99	28100.47
557.16	28261.97
557.32	27962.38
557.49	28474.96
557.65	27782.16
557.82	27864.08
557.98	28238.56
558.15	28599.01
558.32	28343.89
558.48	28287.71
558.65	28435.17
558.81	27992.81
558.98	28371.97
559.14	28128.56
559.31	28039.62
559.47	27847.69
559.64	28329.84
559.80	28393.04
559.97	28334.53
560.13	28486.66
560.30	28432.83
560.46	28746.46
560.63	28435.17
560.79	28313.46
560.96	28926.68
561.12	28472.62
561.29	28327.50
561.45	28559.22
561.61	28596.67
561.78	28699.65
561.94	28437.51
562.11	28762.84
562.27	28711.35
562.44	28563.90
562.60	28512.41
562.77	28650.50
562.93	28034.94
563.10	28917.32
563.26	28519.43
563.42	28978.17
563.59	28666.88
563.75	28615.39
563.92	28744.12
564.08	28608.37
564.24	28865.83
564.41	28912.64
564.57	28690.29
564.74	28790.93
564.90	28816.68
565.07	28922.00
565.23	29137.33
565.39	29165.42
565.56	29315.21
565.72	28865.83
565.88	28786.25
566.05	28589.64
566.21	28898.59
566.38	28823.70
566.54	28627.09
566.70	29088.18
566.87	29322.23
567.03	29039.03
567.19	29446.28
567.36	29198.18
567.52	28699.65
567.68	29191.16
567.85	28929.02
568.01	28723.05
568.17	29003.92
568.34	29261.38
568.50	28723.05
568.66	28725.39
568.83	29535.22
568.99	29366.70
569.15	29287.12
569.32	28924.34
569.48	28692.63
569.64	29249.67
569.81	28875.19
569.97	28987.53
570.13	29776.30
570.30	29212.23
570.46	29076.48
570.62	29460.32
570.78	28994.56
570.95	28980.51
571.11	29427.56
571.27	28549.85
571.43	29069.45
571.60	29488.41
571.76	29448.62
571.92	29392.45
572.09	29443.94
572.25	29228.61
572.41	29333.93
572.57	29385.43
572.74	29352.66
572.90	28844.76
573.06	29195.84
573.22	29762.25
573.38	29392.45
573.55	29586.71
573.71	29340.96
573.87	29413.51
574.03	29493.09
574.20	29324.57
574.36	29149.03
574.52	29376.06
574.68	29490.75
574.84	29352.66
575.01	29390.11
575.17	29226.27
575.33	29163.08
575.49	29729.48
575.65	29551.60
575.82	29422.87
575.98	29631.18
576.14	29219.25
576.30	29476.71
576.46	29666.29
576.62	29235.63
576.79	29593.73
576.95	29476.71
577.11	29766.93
577.27	29734.17
577.43	29542.24
577.59	29523.52
577.75	29362.02
577.92	29319.89
578.08	29457.98
578.24	29294.14
578.40	29371.38
578.56	29610.12
578.72	29848.85
578.88	30022.05
579.04	29750.55
579.21	29467.34
579.37	29694.38
579.53	29748.21
579.69	29188.82
579.85	29111.58
580.01	29614.80
580.17	29380.74
580.33	29352.66
580.49	29619.48
580.65	29184.14
580.82	29717.78
580.98	29762.25
581.14	29858.21
581.30	29577.35
581.46	29434.58
581.62	29500.11
581.78	29235.63
581.94	29324.57
582.10	29303.51
582.26	29839.49
582.42	29621.82
582.58	29167.76
582.74	29228.61
582.90	29855.87
583.06	29830.13
583.22	29525.86
583.38	29628.84
583.54	29724.80
583.70	29572.67
583.86	29900.34
584.02	29308.19
584.18	29766.93
584.34	29912.05
584.50	29640.54
584.66	29951.84
584.82	29425.22
584.98	29610.12
585.14	29347.98
585.30	29448.62
585.46	29731.83
585.62	29539.90
585.78	29603.10
585.94	29282.44
586.10	29647.57
586.26	29717.78
586.42	29900.34
586.58	29638.20
586.74	29507.13
586.90	29230.95
587.06	29385.43
587.22	29645.23
587.38	29577.35
587.54	29467.34
587.70	29701.40
587.86	29879.28
588.02	29881.62
588.18	29975.24
588.34	29628.84
588.49	29961.20
588.65	29465.00
588.81	29537.56
588.97	29745.87
589.13	29867.58
589.29	29413.51
589.45	29888.64
589.61	29912.05
589.77	30050.14
589.93	30008.01
590.08	30129.72
590.24	29970.56
590.40	30295.89
590.56	29516.50
590.72	30132.06
590.88	29759.91
591.04	29652.25
591.20	30436.33
591.35	30162.48
591.51	30223.34
591.67	30190.57
591.83	30380.15
591.99	29780.98
592.15	30012.69
592.31	30075.88
592.46	29724.80
592.62	29628.84
592.78	29685.01
592.94	29780.98
593.10	29930.77
593.26	29670.97
593.41	30157.80
593.57	30221.00
593.73	30171.85
593.89	30265.47
594.05	29928.43
594.20	30045.46
594.36	29949.50
594.52	29778.64
594.68	29989.28
594.84	29846.51
594.99	29659.27
595.15	30132.06
595.31	30244.40
595.47	29914.39
595.62	30232.70
595.78	30071.20
595.94	30068.86
596.10	30047.80
596.25	29951.84
596.41	30059.50
596.57	29830.13
596.73	30127.38
596.88	29633.52
597.04	29998.65
597.20	30274.83
597.36	29909.71
597.51	30433.99
597.67	30401.22
597.83	29886.30
597.99	30127.38
598.14	30272.49
598.30	30279.51
598.46	29825.45
598.61	30031.41
598.77	30118.01
598.93	30190.57
599.09	29858.21
599.24	30239.72
599.40	30717.19
599.56	30150.78
599.71	30068.86
599.87	30412.92
600.03	30192.91
600.18	30405.90
600.34	29886.30
600.50	30265.47
600.65	30249.08
600.81	30375.47
600.97	30272.49
601.12	30562.72
601.28	30476.12
601.44	30251.42
601.59	30298.23
601.75	30136.74
601.91	30389.52
602.06	30244.40
602.22	30586.12
602.37	29844.17
602.53	30113.33
602.69	30389.52
602.84	30068.86
603.00	30176.53
603.16	29984.60
603.31	30328.66
603.47	30232.70
603.62	30197.59
603.78	30085.25
603.94	30057.16
604.09	29898.00
604.25	30050.14
604.40	30277.17
604.56	30064.18
604.71	30501.86
604.87	29914.39
605.03	30235.04
605.18	30199.93
605.34	30307.60
605.49	30029.07
605.65	30251.42
605.80	30075.88
605.96	30073.54
606.12	29757.57
606.27	30096.95
606.43	29961.20
606.58	30258.45
606.74	30176.53
606.89	30536.97
607.05	30298.23
607.20	30125.04
607.36	29961.20
607.51	30162.48
607.67	29783.32
607.82	30078.22
607.98	29956.52
608.13	29645.23
608.29	30134.40
608.44	30120.35
608.60	30010.35
608.75	30115.67
608.91	30096.95
609.06	29680.33
609.22	29968.22
609.37	29528.20
609.53	29699.06
609.68	30188.23
609.84	29780.98
609.99	29830.13
610.15	29661.61
610.30	29509.47
610.46	29867.58
610.61	29984.60
610.76	30024.39
610.92	30050.14
611.07	29738.85
611.23	29755.23
611.38	29762.25
611.54	29720.12
611.69	30078.22
611.84	29560.97
612.00	29642.88
612.15	29804.38
612.31	29914.39
612.46	29788.00
612.62	29867.58
612.77	30031.41
612.92	30263.13
613.08	29502.45
613.23	29963.54
613.39	29628.84
613.54	29607.78
613.69	29654.59
613.85	29226.27
614.00	29472.03
614.15	29900.34
614.31	29717.78
614.46	29858.21
614.62	29902.68
614.77	29883.96
614.92	30050.14
615.08	29703.74
615.23	29439.26
615.38	29460.32
615.54	29289.46
615.69	29127.97
615.84	29383.09
616.00	29591.39
616.15	29448.62
616.30	29432.24
616.46	29214.57
616.61	28886.89
616.76	29450.96
616.92	29097.54
617.07	29539.90
617.22	29088.18
617.37	29090.52
617.53	29542.24
617.68	29193.50
617.83	29235.63
617.99	28952.43
618.14	29216.91
618.29	29118.60
618.45	29619.48
618.60	29244.99
618.75	29525.86
618.90	29467.34
619.06	29336.27
619.21	29359.68
619.36	29420.53
619.51	28929.02
619.67	28905.62
619.82	28842.42
619.97	29106.90
620.12	28964.13
620.28	28854.12
620.43	29404.15
620.58	29280.10
620.73	29172.44
620.89	28943.06
621.04	29177.12
621.19	29378.40
621.34	28701.99
621.49	28760.50
621.65	28503.04
621.80	28858.81
621.95	28531.13
622.10	28861.15
622.25	28865.83
622.41	28622.41
622.56	29034.35
622.71	29160.73
622.86	28973.49
623.01	28713.69
623.16	28439.85
623.32	28442.19
623.47	28477.30
623.62	28584.96
623.77	28636.45
623.92	28254.95
624.07	28580.28
624.23	28891.57
624.38	28559.22
624.53	29090.52
624.68	28737.10
624.83	28877.53
624.98	28758.16
625.13	28290.06
625.29	28938.38
625.44	28575.60
625.59	28180.05
625.74	28439.85
625.89	28425.81
626.04	28449.21
626.19	28243.24
626.34	28591.98
626.49	28297.08
626.65	28100.47
626.80	28320.48
626.95	28374.31
627.10	28245.58
627.25	28584.96
627.40	28109.83
627.55	27868.76
627.70	28226.86
627.85	28006.85
628.00	28304.10
628.15	27988.13
628.30	28467.94
628.45	28177.71
628.60	28086.43
628.76	28374.31
628.91	27861.74
629.06	28173.03
629.21	27702.58
629.36	28107.49
629.51	27838.33
629.66	27852.38
629.81	27491.93
629.96	28048.98
630.11	27683.86
630.26	28217.50
630.41	27714.28
630.56	27529.38
630.71	27978.76
630.86	27974.08
631.01	27908.55
631.16	27948.34
631.31	27962.38
631.46	27569.17
631.61	27817.27
631.76	27931.95
631.91	27810.25
632.06	27765.78
632.21	27751.73
632.36	27573.85
632.51	27632.36
632.66	27529.38
632.81	27513.00
632.96	27529.38
633.10	27379.59
633.25	27772.80
633.40	27828.97
633.55	27555.13
633.70	27461.51
633.85	27445.12
634.00	27314.05
634.15	27529.38
634.30	27475.55
634.45	27473.21
634.60	27541.08
634.75	27461.51
634.90	27550.45
635.05	27117.45
635.19	27531.72
635.34	27597.26
635.49	27878.12
635.64	27276.60
635.79	27428.74
635.94	27292.99
636.09	27290.65
636.24	27180.64
636.39	27145.53
636.53	27241.50
636.68	27143.19
636.83	26759.34
636.98	27115.11
637.13	27321.07
637.28	26874.03
637.43	27091.70
637.57	27089.36
637.72	26757.00
637.87	27213.41
638.02	26941.91
638.17	27168.94
638.32	27271.92
638.46	27075.32
638.61	26918.50
638.76	27035.53
638.91	26752.32
639.06	26787.43
639.20	27222.77
639.35	26817.86
639.50	26740.62
639.65	27002.76
639.80	27108.08
639.94	26944.25
640.09	27115.11
640.24	27005.10
640.39	26541.68
640.54	26429.33
640.68	26745.30
640.83	26218.68
640.98	26724.24
641.13	26312.30
641.27	27014.46
641.42	26647.00
641.57	26862.33
641.72	26792.11
641.86	26361.45
642.01	26286.56
642.16	26176.55
642.31	26050.16
642.45	26490.18
642.60	26455.08
642.75	25804.41
642.90	26071.23
643.04	26544.02
643.19	26586.15
643.34	26183.57
643.48	26316.98
643.63	26644.66
643.78	26483.16
643.93	26588.49
644.07	26466.78
644.22	26878.71
644.37	26417.63
644.51	26567.42
644.66	26356.77
644.81	26214.00
644.95	26218.68
645.10	26206.98
645.25	26162.51
645.39	25834.83
645.54	26412.95
645.69	26122.72
645.83	26022.08
645.98	26443.37
646.13	26565.08
646.27	25937.82
646.42	26029.10
646.57	25797.38
646.71	25954.20
646.86	26082.93
647.00	25539.93
647.15	25991.65
647.30	26132.08
647.44	25687.38
647.59	25591.42
647.74	25919.09
647.88	25984.63
648.03	26153.15
648.17	26066.55
648.32	26073.57
648.47	25745.89
648.61	25942.50
648.76	26031.44
648.90	26047.82
649.05	26183.57
649.20	25553.97
649.34	25638.23
649.49	25446.30
649.63	25593.76
649.78	25680.36
649.92	25422.90
650.07	25759.94
650.21	25357.36
650.36	25682.70
650.51	25301.19
650.65	25759.94
650.80	25872.28
650.94	25399.49
651.09	25490.77
651.23	25537.59
651.38	25378.43
651.52	25387.79
651.67	25343.32
651.81	25530.56
651.96	25340.98
652.10	25582.06
652.25	25329.28
652.39	25364.39
652.54	25883.98
652.68	25441.62
652.83	25902.71
652.97	25631.21
653.12	25617.16
653.26	25654.61
653.41	25436.94
653.55	25200.55
653.70	25214.59
653.84	25408.86
653.99	24842.45
654.13	25111.61
654.27	25043.73
654.42	25216.93
654.56	25296.51
654.71	25385.45
654.85	25411.20
655.00	25397.15
655.14	24950.11
655.29	25127.99
655.43	25268.42
655.57	25167.78
655.72	24592.01
655.86	25174.80
656.01	24900.96
656.15	25139.69
656.30	25041.39
656.44	24996.92
656.58	24767.55
656.73	24261.99
656.87	24657.54
657.01	24678.61
657.16	24844.79
657.30	24702.01
657.45	25088.20
657.59	24694.99
657.73	24617.75
657.88	24486.68
658.02	24486.68
658.16	24680.95
658.31	24589.67
658.45	24692.65
658.60	24219.86
658.74	24477.32
658.88	24416.47
659.03	24374.34
659.17	24734.78
659.31	24732.44
659.46	24645.84
659.60	24601.37
659.74	24650.52
659.89	24414.13
660.03	24472.64
660.17	24348.59
660.32	24549.88
660.46	24261.99
660.60	24273.70
660.74	24339.23
660.89	24219.86
661.03	24261.99
661.17	24121.56
661.32	24105.18
661.46	24402.43
661.60	24088.79
661.74	24442.21
661.89	24151.99
662.03	23922.62
662.17	24182.42
662.31	23758.78
662.46	23903.89
662.60	23803.25
662.74	24074.75
662.88	23852.40
663.03	23831.33
663.17	23632.39
663.31	23304.71
663.45	24084.11
663.60	23559.83
663.74	23381.95
663.88	23740.05
664.02	23541.11
664.17	23786.86
664.31	23594.94
664.45	23159.60
664.59	23751.76
664.73	23321.10
664.88	23459.19
665.02	22815.54
665.16	23105.77
665.30	23475.57
665.44	23103.43
665.59	22970.02
665.73	23365.57
665.87	23068.32
666.01	22810.86
666.15	22958.31
666.29	23321.10
666.44	22916.19
666.58	23068.32
666.72	23016.83
666.86	22740.64
667.00	23243.86
667.14	23040.23
667.28	22820.22
667.43	22785.12
667.57	22876.40
667.71	22670.43
667.85	22635.32
667.99	22801.50
668.13	22698.52
668.27	22398.93
668.41	22412.97
668.56	22600.21
668.70	22548.72
668.84	22415.31
668.98	22684.47
669.12	22602.55
669.26	22628.30
669.40	22223.39
669.54	22377.86
669.68	22080.61
669.82	22153.17
669.96	22239.77
670.10	22059.55
670.25	22363.82
670.39	21986.99
670.53	22249.13
670.67	21769.32
670.81	22214.02
670.95	21844.22
671.09	21762.30
671.23	21972.95
671.37	21905.07
671.51	21654.64
671.65	21879.33
671.79	22017.42
671.93	21832.52
672.07	21685.06
672.21	21582.08
672.35	21551.65
672.49	21223.98
672.63	21411.22
672.77	21593.78
672.91	21369.09
673.05	21235.68
673.19	21415.90
673.33	21287.17
673.47	21289.51
673.61	21277.81
673.75	21530.59
673.89	21523.57
674.03	21167.80
674.17	21200.57
674.31	21333.98
674.45	21235.68
674.59	21008.65
674.73	21202.91
674.87	20868.22
675.01	20713.74
675.15	20507.77
675.29	20657.57
675.43	20589.69
675.56	21008.65
675.70	20753.53
675.84	20800.34
675.98	19992.86
676.12	20613.10
676.26	20458.62
676.40	20374.36
676.54	20231.59
676.68	20070.09
676.82	19924.98
676.96	20278.40
677.10	19892.21
677.23	20053.71
677.37	19906.26
677.51	19934.34
677.65	19955.41
677.79	20154.35
677.93	19744.76
678.07	19704.97
678.21	19536.45
678.34	19686.25
678.48	19264.95
678.62	19721.35
678.76	19286.01
678.90	19344.53
679.04	19302.40
679.18	19176.01
679.31	19255.59
679.45	19194.73
679.59	18911.53
679.73	19051.96
679.87	19262.61
680.00	19063.66
680.14	19075.37
680.28	18965.36
680.42	18953.66
680.56	18906.85
680.70	18560.45
680.83	18628.32
680.97	18523.00
681.11	18420.02
681.25	18382.57
681.39	18551.09
681.52	18295.97
681.66	18429.38
681.80	18288.95
681.94	18148.51
682.07	18401.29
682.21	18127.45
682.35	18012.76
682.49	17802.11
682.62	17900.42
682.76	17687.43
682.90	17795.09
683.04	17816.16
683.17	17671.04
683.31	17727.22
683.45	17980.00
683.59	17621.89
683.72	17577.42
683.86	17455.72
684.00	17497.84
684.13	17497.84
684.27	17350.39
684.41	17224.00
684.55	17053.14
684.68	17022.72
684.82	17053.14
684.96	17039.10
685.09	16872.92
685.23	17013.35
685.37	16650.57
685.50	17172.51
685.64	16725.47
685.78	16802.71
685.91	16884.62
686.05	16849.52
686.19	16437.58
686.32	16781.64
686.46	16156.72
686.60	16187.14
686.73	16130.97
686.87	16112.25
687.01	16166.08
687.14	15913.30
687.28	16030.33
687.42	16184.80
687.55	15999.90
687.69	15765.85
687.82	15899.26
687.96	15875.85
688.10	15955.43
688.23	15950.75
688.37	15789.25
688.50	15779.89
688.64	15658.18
688.78	15667.55
688.91	15515.41
689.05	15562.22
689.18	15197.10
689.32	15009.86
689.46	15019.22
689.59	15367.96
689.73	15005.17
689.86	14810.91
690.00	14857.72
690.13	15250.93
690.27	15080.07
690.41	15281.36
690.54	14656.43
690.68	15096.46
690.81	15117.52
690.95	14771.12
691.08	14913.89
691.22	14712.61
691.35	14773.46
691.49	14803.89
691.62	14574.52
691.76	14520.68
691.89	14401.32
692.03	14214.07
692.16	14061.94
692.30	14319.40
692.43	13853.63
692.57	13692.13
692.70	14193.01
692.84	13755.33
692.97	14085.34
693.11	13909.80
693.24	13715.54
693.38	13921.51
693.51	13970.66
693.65	13781.07
693.78	13933.21
693.92	13757.67
694.05	13537.66
694.19	13731.92
694.32	13097.64
694.45	13125.72
694.59	13067.21
694.72	13198.28
694.86	13158.49
694.99	12954.87
695.13	13184.24
695.26	12968.91
695.39	12875.29
695.53	12809.75
695.66	13011.04
695.80	13050.83
695.93	12821.45
696.07	12894.01
696.20	13011.04
696.33	12849.54
696.47	12383.77
696.60	12491.44
696.73	12449.31
696.87	12535.91
697.00	12423.56
697.14	12533.57
697.27	12294.83
697.40	12116.95
697.54	12009.29
697.67	11988.22
697.80	11903.96
697.94	11960.14
698.07	11967.16
698.21	11967.16
698.34	11906.31
698.47	11747.15
698.61	11854.81
698.74	12013.97
698.87	11943.75
699.01	11669.91
699.14	11775.24
699.27	11847.79
699.40	11545.86
699.54	11648.85
699.67	11470.97
699.80	11431.18
699.94	11396.07
700.07	11243.93
700.20	11220.53
700.34	11084.78
700.47	11056.69
700.60	11066.05
700.73	11091.80
700.87	10949.03
701.00	10970.09
701.13	11070.73
701.26	11044.99
701.40	11012.22
701.53	10892.85
701.66	10806.25
701.79	10729.02
701.93	10572.20
702.06	10443.47
702.19	10424.75
702.32	10438.79
702.46	10586.24
702.59	10466.88
702.72	10277.29
702.85	10061.96
702.99	10326.44
703.12	10183.67
703.25	10171.97
703.38	10024.51
703.51	10141.54
703.65	10178.99
703.78	10169.63
703.91	9942.60
704.04	10045.58
704.17	9926.21
704.31	10061.96
704.44	9802.16
704.57	9619.60
704.70	9572.79
704.83	9675.77
704.96	9614.92
705.10	9582.15
705.23	9423.00
>>>>>End Processed Spectral Data<<<<<
