SpectraSuite Data File
++++++++++++++++++++++++++++++++++++
Date: Fri Oct 18 13:58:24 GMT-05:00 2013
User: bianchi
Dark Spectrum Present: No
Reference Spectrum Present: No
Number of Sampled Component Spectra: 1
Spectrometers: USB2+H05261
Integration Time (usec): 50000 (USB2+H05261)
Spectra Averaged: 1 (USB2+H05261)
Boxcar Smoothing: 0 (USB2+H05261)
Correct for Electrical Dark: No (USB2+H05261)
Strobe/Lamp Enabled: No (USB2+H05261)
Correct for Detector Non-linearity: No (USB2+H05261)
Correct for Stray Light: No (USB2+H05261)
Number of Pixels in Processed Spectrum: 2048
>>>>>Begin Processed Spectral Data<<<<<
365.73	0.00
365.92	0.00
366.12	0.00
366.32	0.00
366.52	0.00
366.72	0.00
366.91	0.00
367.11	0.00
367.31	0.00
367.51	0.00
367.70	0.00
367.90	0.00
368.10	0.00
368.30	0.00
368.49	0.00
368.69	0.00
368.89	0.00
369.09	0.00
369.28	0.00
369.48	0.00
369.68	0.00
369.87	0.00
370.07	0.00
370.27	0.00
370.47	18.72
370.66	56.17
370.86	138.09
371.06	126.39
371.25	177.88
371.45	191.92
371.65	168.52
371.84	163.84
372.04	145.11
372.24	147.45
372.44	184.90
372.63	156.82
372.83	210.65
373.03	257.46
373.22	161.50
373.42	203.63
373.62	238.73
373.81	245.76
374.01	245.76
374.21	259.80
374.40	205.97
374.60	280.86
374.79	229.37
374.99	231.71
375.19	278.52
375.38	252.78
375.58	315.97
375.78	236.39
375.97	276.18
376.17	255.12
376.37	110.01
376.56	283.20
376.76	294.91
376.95	250.44
377.15	238.73
377.35	339.38
377.54	222.35
377.74	259.80
377.93	257.46
378.13	348.74
378.33	344.06
378.52	358.10
378.72	271.50
378.91	266.82
379.11	241.08
379.31	322.99
379.50	276.18
379.70	358.10
379.89	376.83
380.09	285.55
380.28	322.99
380.48	266.82
380.68	308.95
380.87	269.16
381.07	365.12
381.26	287.89
381.46	346.40
381.65	360.44
381.85	250.44
382.04	348.74
382.24	442.36
382.43	297.25
382.63	330.02
382.83	287.89
383.02	353.42
383.22	304.27
383.41	334.70
383.61	341.72
383.80	390.87
384.00	304.27
384.19	353.42
384.39	400.23
384.58	341.72
384.78	379.17
384.97	344.06
385.17	379.17
385.36	402.57
385.56	381.51
385.75	409.59
385.95	400.23
386.14	414.27
386.34	404.91
386.53	411.93
386.72	372.15
386.92	465.77
387.11	449.38
387.31	435.34
387.50	456.40
387.70	409.59
387.89	442.36
388.09	475.13
388.28	461.09
388.48	376.83
388.67	479.81
388.86	407.25
389.06	526.62
389.25	507.90
389.45	470.45
389.64	468.11
389.84	465.77
390.03	440.02
390.22	425.98
390.42	400.23
390.61	521.94
390.81	486.83
391.00	482.15
391.19	585.13
391.39	550.03
391.58	514.92
391.78	538.32
391.97	507.90
392.16	456.40
392.36	496.19
392.55	571.09
392.75	596.84
392.94	489.17
393.13	547.69
393.33	547.69
393.52	566.41
393.71	634.29
393.91	580.45
394.10	554.71
394.29	531.30
394.49	594.50
394.68	594.50
394.88	540.66
395.07	657.69
395.26	622.58
395.46	571.09
395.65	599.18
395.84	582.79
396.04	629.60
396.23	636.63
396.42	683.44
396.62	634.29
396.81	648.33
397.00	660.03
397.19	638.97
397.39	667.05
397.58	709.18
397.77	681.10
397.97	627.26
398.16	695.14
398.35	669.39
398.55	613.22
398.74	655.35
398.93	676.41
399.12	737.27
399.32	674.07
399.51	793.44
399.70	711.52
399.90	725.57
400.09	781.74
400.28	823.87
400.47	863.66
400.67	800.46
400.86	770.04
401.05	744.29
401.24	744.29
401.44	709.18
401.63	863.66
401.82	870.68
402.01	833.23
402.21	833.23
402.40	814.51
402.59	748.97
402.78	926.85
402.97	809.83
403.17	882.38
403.36	889.40
403.55	889.40
403.74	952.60
403.93	961.96
404.13	929.19
404.32	903.45
404.51	903.45
404.70	1039.20
404.89	933.87
405.09	1008.77
405.28	894.08
405.47	987.71
405.66	968.98
405.85	1025.15
406.05	1001.75
406.24	978.34
406.43	983.02
406.62	1025.15
406.81	1057.92
407.00	959.62
407.20	1029.84
407.39	1027.50
407.58	1121.12
407.77	1142.18
407.96	1048.56
408.15	1102.39
408.34	1121.12
408.54	1095.37
408.73	1104.73
408.92	1128.14
409.11	1076.65
409.30	1139.84
409.49	1139.84
409.68	1142.18
409.87	1151.54
410.07	1177.29
410.26	1198.35
410.45	1203.04
410.64	1233.46
410.83	1266.23
411.02	1247.51
411.21	1254.53
411.40	1254.53
411.59	1245.16
411.78	1212.40
411.98	1322.40
412.17	1256.87
412.36	1247.51
412.55	1284.95
412.74	1460.49
412.93	1359.85
413.12	1376.24
413.31	1380.92
413.50	1390.28
413.69	1362.19
413.88	1432.41
414.07	1416.02
414.26	1418.36
414.45	1462.83
414.64	1519.01
414.83	1502.62
415.02	1488.58
415.22	1617.31
415.41	1565.82
415.60	1490.92
415.79	1633.69
415.98	1533.05
416.17	1593.90
416.36	1636.03
416.55	1605.61
416.74	1717.95
416.93	1769.44
417.12	1720.29
417.31	1802.21
417.50	1692.21
417.69	1734.34
417.88	1713.27
418.07	1701.57
418.26	1710.93
418.45	1802.21
418.64	1909.88
418.83	1771.79
419.02	1900.52
419.21	1832.64
419.39	1846.68
419.58	1739.02
419.77	1776.47
419.96	1837.32
420.15	1944.99
420.34	1818.60
420.53	1923.92
420.72	1919.24
420.91	1935.62
421.10	1912.22
421.29	1989.46
421.48	1891.15
421.67	2001.16
421.86	1893.49
422.05	2045.63
422.24	1902.86
422.43	1937.96
422.61	2022.22
422.80	1963.71
422.99	2015.20
423.18	2052.65
423.37	2026.90
423.56	2071.37
423.75	2057.33
423.94	2022.22
424.13	1797.53
424.32	1975.41
424.50	2066.69
424.69	2045.63
424.88	2085.42
425.07	2038.61
425.26	2094.78
425.45	2047.97
425.64	2038.61
425.83	2146.27
426.01	2172.02
426.20	2104.14
426.39	2078.40
426.58	2076.06
426.77	2043.29
426.96	2157.97
427.15	2106.48
427.33	2174.36
427.52	2059.67
427.71	2150.95
427.90	2160.31
428.09	2214.15
428.28	2115.84
428.46	2209.47
428.65	2242.23
428.84	2340.54
429.03	2289.04
429.22	2228.19
429.40	2232.87
429.59	2284.36
429.78	2195.42
429.97	2094.78
430.16	2260.96
430.34	2263.30
430.53	2246.91
430.72	2284.36
430.91	2377.98
431.10	2249.25
431.28	2235.21
431.47	2436.50
431.66	2431.82
431.85	2459.90
432.03	2443.52
432.22	2619.06
432.41	2473.95
432.60	2380.32
432.79	2509.05
432.97	2427.14
433.16	2502.03
433.35	2464.58
433.54	2614.38
433.72	2464.58
433.91	2553.52
434.10	2562.89
434.28	2387.35
434.47	2541.82
434.66	2574.59
434.85	2588.63
435.03	2600.34
435.22	2668.21
435.41	2698.64
435.59	2724.38
435.78	2740.77
435.97	2719.70
436.16	2649.49
436.34	2665.87
436.53	2614.38
436.72	2787.58
436.90	2583.95
437.09	2780.56
437.28	2574.59
437.46	2722.04
437.65	2778.22
437.84	2846.09
438.02	2750.13
438.21	2810.98
438.40	2822.69
438.58	2843.75
438.77	2925.67
438.96	2888.22
439.14	2906.95
439.33	3105.89
439.52	3033.33
439.70	3063.76
439.89	2960.78
440.08	2951.42
440.26	3030.99
440.45	3173.77
440.63	3119.93
440.82	3084.83
441.01	3103.55
441.19	3096.53
441.38	3133.98
441.57	3218.24
441.75	3283.77
441.94	3253.34
442.12	3276.75
442.31	3335.26
442.50	3307.18
442.68	3335.26
442.87	3344.63
443.05	3316.54
443.24	3471.01
443.43	3356.33
443.61	3400.80
443.80	3559.95
443.98	3382.07
444.17	3199.51
444.35	3508.46
444.54	3421.86
444.73	3288.45
444.91	3431.23
445.10	3377.39
445.28	3471.01
445.47	3424.20
445.65	3517.83
445.84	3389.10
446.02	3489.74
446.21	3407.82
446.39	3463.99
446.58	3494.42
446.77	3569.32
446.95	3356.33
447.14	3496.76
447.32	3641.87
447.51	3562.30
447.69	3442.93
447.88	3562.30
448.06	3597.40
448.25	3517.83
448.43	3452.29
448.62	3337.60
448.80	3538.89
448.99	3543.57
449.17	3653.58
449.36	3597.40
449.54	3641.87
449.73	3892.31
449.91	3700.39
450.10	3693.37
450.28	3887.63
450.46	3630.17
450.65	3719.11
450.83	3730.81
451.02	3817.41
451.20	3843.16
451.39	3836.14
451.57	3878.27
451.76	3768.26
451.94	3803.37
452.13	3819.75
452.31	3925.08
452.49	3763.58
452.68	3887.63
452.86	3955.51
453.05	4018.70
453.23	3726.13
453.42	3833.80
453.60	3941.46
453.78	3922.74
453.97	3918.06
454.15	4044.45
454.34	3920.40
454.52	3997.64
454.70	3967.21
454.89	3985.93
455.07	3964.87
455.26	4084.23
455.44	4196.58
455.62	4124.02
455.81	3957.85
455.99	4121.68
456.17	4053.81
456.36	4198.92
456.54	4205.94
456.73	4379.14
456.91	4308.93
457.09	4376.80
457.28	4271.48
457.46	4273.82
457.64	4430.63
457.83	4168.49
458.01	4435.32
458.19	4498.51
458.38	4538.30
458.56	4489.15
458.74	4430.63
458.93	4393.19
459.11	4369.78
459.29	4568.73
459.48	4421.27
459.66	4470.42
459.84	4636.60
460.03	4613.20
460.21	4695.11
460.39	4547.66
460.57	4379.14
460.76	4482.13
460.94	4667.03
461.12	4594.47
461.31	4678.73
461.49	4631.92
461.67	4690.43
461.85	4737.24
462.04	4636.60
462.22	4667.03
462.40	4723.20
462.59	4840.23
462.77	4812.14
462.95	4807.46
463.13	4915.12
463.32	4833.21
463.50	4807.46
463.68	4891.72
463.86	4945.55
464.05	5020.45
464.23	4858.95
464.41	5193.65
464.59	4765.33
464.78	5032.15
464.96	4922.15
465.14	4978.32
465.32	4922.15
465.50	5076.62
465.69	5167.90
465.87	4964.28
466.05	5060.24
466.23	5025.13
466.41	5104.71
466.60	5263.86
466.78	5156.20
466.96	5067.26
467.14	4971.30
467.32	4966.62
467.51	5128.11
467.69	5064.92
467.87	5284.93
468.05	5198.33
468.23	5193.65
468.41	5078.96
468.60	5252.16
468.78	5378.55
468.96	5191.31
469.14	5261.52
469.32	5397.28
469.50	5160.88
469.69	5371.53
469.87	5462.81
470.05	5521.32
470.23	5589.20
470.41	5413.66
470.59	5446.43
470.77	5551.75
470.95	5479.19
471.14	5685.16
471.32	5406.64
471.50	5668.78
471.68	5664.10
471.86	5636.01
472.04	5748.36
472.22	5795.17
472.40	5621.97
472.58	5701.54
472.77	5750.70
472.95	5701.54
473.13	6029.22
473.31	5860.70
473.49	5825.59
473.67	5778.78
473.85	5797.51
474.03	5940.28
474.21	6104.12
474.39	6164.97
474.57	6143.91
474.75	6195.40
474.93	6115.82
475.12	6132.20
475.30	6195.40
475.48	6136.88
475.66	6363.92
475.84	6303.06
476.02	6258.59
476.20	6270.30
476.38	6335.83
476.56	6642.44
476.74	6609.67
476.92	6726.70
477.10	6567.54
477.28	6740.74
477.46	6612.01
477.64	6794.58
477.82	6899.90
478.00	6869.47
478.18	6984.16
478.36	7047.35
478.54	7021.61
478.72	7124.59
478.90	7260.34
479.08	7187.79
479.26	7260.34
479.44	7243.96
479.62	7339.92
479.80	7363.33
479.98	7555.25
480.16	7751.85
480.34	7583.34
480.52	7508.44
480.70	7784.62
480.88	7536.52
481.06	7859.52
481.24	7840.79
481.41	7981.23
481.59	8032.72
481.77	8074.85
481.95	7903.99
482.13	8163.79
482.31	8100.59
482.49	8091.23
482.67	8273.79
482.85	8315.92
483.03	8351.03
483.21	8346.35
483.39	8594.45
483.57	8432.95
483.74	8830.84
483.92	8819.14
484.10	8954.89
484.28	9036.81
484.46	8774.67
484.64	9383.21
484.82	9179.58
485.00	9081.28
485.18	9263.84
485.35	9411.29
485.53	9411.29
485.71	9205.33
485.89	9554.07
486.07	9451.08
486.25	9755.35
486.43	9563.43
486.61	9811.53
486.78	9884.08
486.96	10036.22
487.14	10270.27
487.32	10176.65
487.50	10209.42
487.68	10267.93
487.85	10253.89
488.03	10441.13
488.21	10640.08
488.39	10668.16
488.57	10677.52
488.75	10684.55
488.92	10883.49
489.10	10867.11
489.28	10810.93
489.46	11066.05
489.64	11154.99
489.81	11346.92
489.99	11239.25
490.17	11349.26
490.35	11288.40
490.53	11569.27
490.70	11620.76
490.88	11604.38
491.06	11737.79
491.24	11850.13
491.41	11927.37
491.59	11950.78
491.77	12086.53
491.95	12306.54
492.13	12339.30
492.30	12475.06
492.48	12269.09
492.66	12498.46
492.84	12453.99
493.01	12610.81
493.19	12507.82
493.37	12716.13
493.54	12772.30
493.72	12978.27
493.90	12753.58
494.08	13004.02
494.25	13275.52
494.43	13226.37
494.61	13312.97
494.79	13273.18
494.96	13415.95
495.14	13467.44
495.32	13434.68
495.49	13549.36
495.67	13575.11
495.85	13792.78
496.02	13968.32
496.20	13884.06
496.38	14197.69
496.55	13998.74
496.73	14293.65
496.91	14083.00
497.09	14214.07
497.26	14370.89
497.44	14457.49
497.62	14494.94
497.79	14651.75
497.97	14516.00
498.14	14785.16
498.32	14860.06
498.50	14806.23
498.67	15005.17
498.85	14902.19
499.03	15082.41
499.20	14904.53
499.38	15070.71
499.56	15154.97
499.73	15321.15
499.91	15279.02
500.08	15770.53
500.26	15325.83
500.44	15786.91
500.61	15590.31
500.79	15442.85
500.97	15976.50
501.14	15964.79
501.32	15995.22
501.49	15878.19
501.67	15957.77
501.84	16240.98
502.02	16168.42
502.20	16414.18
502.37	16273.74
502.55	16222.25
502.72	16123.95
502.90	16184.80
503.07	16308.85
503.25	16690.36
503.43	16423.54
503.60	16561.63
503.78	16891.65
503.95	16582.70
504.13	16652.91
504.30	16718.45
504.48	16704.40
504.65	16655.25
504.83	16891.65
505.01	17034.42
505.18	17427.63
505.36	17341.03
505.53	17200.60
505.71	17118.68
505.88	17146.76
506.06	17165.49
506.23	17455.72
506.41	17483.80
506.58	17226.34
506.76	17617.21
506.93	17537.63
507.11	17514.23
507.28	17642.96
507.46	17776.37
507.63	17752.96
507.81	17710.83
507.98	17666.36
508.16	17898.08
508.33	17886.37
508.50	18010.42
508.68	17942.55
508.85	18211.71
509.03	17989.36
509.20	18672.79
509.38	18480.87
509.55	18148.51
509.73	18738.33
509.90	18518.32
510.08	18466.83
510.25	18380.23
510.42	18869.40
510.60	18443.42
510.77	18792.16
510.95	18960.68
511.12	18728.97
511.30	18834.29
511.47	18768.76
511.64	18806.20
511.82	19077.71
511.99	18948.98
512.17	19276.65
512.34	19239.20
512.51	19449.85
512.69	19229.84
512.86	19257.93
513.04	19719.01
513.21	19601.99
513.38	19311.76
513.56	19484.96
513.73	19564.54
513.90	19754.12
514.08	19585.60
514.25	19653.48
514.43	19690.93
514.60	19948.39
514.77	19990.52
514.95	20046.69
515.12	19721.35
515.29	19826.68
515.47	20011.58
515.64	20439.90
515.81	20545.22
515.99	20123.93
516.16	20355.64
516.33	20510.11
516.51	20547.56
516.68	20121.59
516.85	20332.23
517.03	20690.34
517.20	20863.54
517.37	20800.34
517.54	20538.20
517.72	20746.51
517.89	20830.77
518.06	20767.57
518.24	20702.04
518.41	20680.97
518.58	20816.72
518.75	20940.77
518.93	21043.76
519.10	21366.75
519.27	20931.41
519.45	21088.23
519.62	21509.52
519.79	21109.29
519.96	21130.36
520.14	21284.83
520.31	21083.55
520.48	21322.28
520.65	21343.35
520.83	21343.35
521.00	21429.94
521.17	21371.43
521.34	21460.37
521.52	21783.37
521.69	21582.08
521.86	21703.79
522.03	21799.75
522.20	22036.14
522.38	21638.25
522.55	22017.42
522.72	21851.24
522.89	21762.30
523.07	22043.17
523.24	22338.07
523.41	22492.55
523.58	21937.84
523.75	22225.73
523.92	22272.54
524.10	22321.69
524.27	22202.32
524.44	22497.23
524.61	22642.34
524.78	22888.10
524.96	22490.21
525.13	22398.93
525.30	22698.52
525.47	22499.57
525.64	22537.02
525.81	22719.58
525.98	22782.77
526.16	22860.01
526.33	23028.53
526.50	23166.62
526.67	23112.79
526.84	22911.50
527.01	22977.04
527.18	23108.11
527.36	23290.67
527.53	23101.09
527.70	23276.63
527.87	23534.09
528.04	23042.57
528.21	23075.34
528.38	23562.17
528.55	23496.64
528.72	23381.95
528.89	23351.52
529.07	23295.35
529.24	23726.01
529.41	23878.15
529.58	23716.65
529.75	23517.70
529.92	23667.50
530.09	23566.85
530.26	23630.05
530.43	24046.66
530.60	23761.12
530.77	23814.95
530.94	23857.08
531.11	23768.14
531.28	24027.94
531.46	24100.50
531.63	23761.12
531.80	24283.06
531.97	24388.38
532.14	24130.92
532.31	24243.27
532.48	24201.14
532.65	24332.21
532.82	23997.51
532.99	24065.39
533.16	24203.48
533.33	24599.03
533.50	24577.97
533.67	24446.90
533.84	24416.47
534.01	24465.62
534.18	24280.72
534.35	24638.82
534.52	24622.44
534.69	24870.53
534.86	25135.01
535.03	24584.99
535.20	24849.47
535.37	24662.22
535.54	24809.68
535.71	24807.34
535.88	24945.43
536.05	24627.12
536.22	25350.34
536.38	25397.15
536.55	25319.92
536.72	25076.50
536.89	25111.61
537.06	25123.31
537.23	25008.62
537.40	24865.85
537.57	25174.80
537.74	25397.15
537.91	25523.54
538.08	25378.43
538.25	25310.55
538.42	25401.83
538.59	25207.57
538.75	25163.10
538.92	25668.66
539.09	25287.15
539.26	25575.03
539.43	25270.76
539.60	25778.66
539.77	25448.64
539.94	25799.73
540.11	25476.73
540.28	25586.74
540.44	25916.75
540.61	25378.43
540.78	25745.89
540.95	25858.24
541.12	25427.58
541.29	25649.93
541.46	25907.39
541.62	25593.76
541.79	25696.74
541.96	25371.41
542.13	25912.07
542.30	25905.05
542.47	26192.94
542.63	26185.91
542.80	26445.71
542.97	26382.52
543.14	26394.22
543.31	26401.24
543.48	26429.33
543.64	26644.66
543.81	26656.36
543.98	26553.38
544.15	26707.85
544.32	26583.80
544.48	27063.61
544.65	26693.81
544.82	26782.75
544.99	26431.67
545.16	26588.49
545.32	26497.20
545.49	26731.26
545.66	27035.53
545.83	26829.56
546.00	26888.07
546.16	26855.31
546.33	26632.96
546.50	26670.40
546.67	26705.51
546.83	26661.04
547.00	27101.06
547.17	27040.21
547.34	27143.19
547.50	26883.39
547.67	27297.67
547.84	27051.91
548.00	26941.91
548.17	27161.92
548.34	27119.79
548.51	27332.78
548.67	27627.68
548.84	27573.85
549.01	27300.01
549.18	27379.59
549.34	27658.11
549.51	27517.68
549.68	27587.89
549.84	27484.91
550.01	27412.35
550.18	27632.36
550.34	27737.69
550.51	27826.63
550.68	27592.58
550.84	27335.12
551.01	27840.67
551.18	27505.98
551.34	27740.03
551.51	27992.81
551.68	27873.44
551.84	27718.96
552.01	27765.78
552.18	27941.32
552.34	28107.49
552.51	27866.42
552.68	27885.14
552.84	28088.77
553.01	28166.01
553.18	27981.10
553.34	28107.49
553.51	28273.67
553.67	28051.32
553.84	28390.70
554.01	28259.63
554.17	28304.10
554.34	28098.13
554.51	28051.32
554.67	27969.40
554.84	28599.01
555.00	28105.15
555.17	28016.21
555.33	28334.53
555.50	28591.98
555.67	28081.75
555.83	28273.67
556.00	28280.69
556.16	28194.09
556.33	28325.16
556.50	28624.75
556.66	28861.15
556.83	28484.32
556.99	28893.91
557.16	28952.43
557.32	28659.86
557.49	28601.35
557.65	28601.35
557.82	28371.97
557.98	28407.08
558.15	28678.58
558.32	29034.35
558.48	28624.75
558.65	29055.41
558.81	28821.36
558.98	28879.87
559.14	28549.85
559.31	28664.54
559.47	28709.01
559.64	28891.57
559.80	29116.26
559.97	28917.32
560.13	28889.23
560.30	29043.71
560.46	28872.85
560.63	28795.61
560.79	28678.58
560.96	28898.59
561.12	29432.24
561.29	29055.41
561.45	28439.85
561.61	28980.51
561.78	29268.40
561.94	29102.22
562.11	29163.08
562.27	29228.61
562.44	29060.09
562.60	29046.05
562.77	29226.27
562.93	28884.55
563.10	29132.65
563.26	29139.67
563.42	29284.78
563.59	28985.19
563.75	29118.60
563.92	29078.82
564.08	29390.11
564.24	28957.11
564.41	29177.12
564.57	28954.77
564.74	29338.62
564.90	29390.11
565.07	29099.88
565.23	29347.98
565.39	29202.86
565.56	29788.00
565.72	29102.22
565.88	29338.62
566.05	29394.79
566.21	29324.57
566.38	28924.34
566.54	29397.13
566.70	29453.30
566.87	30132.06
567.03	29582.03
567.19	30103.97
567.36	29432.24
567.52	29207.55
567.68	29483.73
567.85	29586.71
568.01	29539.90
568.17	29181.80
568.34	29748.21
568.50	29708.42
568.66	29567.99
568.83	29673.31
568.99	29600.76
569.15	29479.05
569.32	29544.58
569.48	29202.86
569.64	29631.18
569.81	29820.77
569.97	29640.54
570.13	29649.91
570.30	29593.73
570.46	29715.44
570.62	29479.05
570.78	29692.04
570.95	29404.15
571.11	29930.77
571.27	29001.58
571.43	29252.02
571.60	29628.84
571.76	29640.54
571.92	29802.04
572.09	29631.18
572.25	29722.46
572.41	29874.60
572.57	29446.28
572.74	29804.38
572.90	29788.00
573.06	29413.51
573.22	29589.05
573.38	29914.39
573.55	29818.42
573.71	30169.51
573.87	30000.99
574.03	29750.55
574.20	29720.12
574.36	29921.41
574.52	29589.05
574.68	29673.31
574.84	29502.45
575.01	29869.92
575.17	29750.55
575.33	29612.46
575.49	29771.61
575.65	30216.32
575.82	29958.86
575.98	30092.27
576.14	29792.68
576.30	30054.82
576.46	29956.52
576.62	29846.51
576.79	29888.64
576.95	29579.69
577.11	29858.21
577.27	29890.98
577.43	30085.25
577.59	29879.28
577.75	30059.50
577.92	29958.86
578.08	29670.97
578.24	29972.90
578.40	29490.75
578.56	30155.46
578.72	30178.87
578.88	30066.52
579.04	30026.73
579.21	29916.73
579.37	30078.22
579.53	30167.16
579.69	29617.14
579.85	29811.40
580.01	29771.61
580.17	29844.17
580.33	29930.77
580.49	29773.95
580.65	30125.04
580.82	29788.00
580.98	30019.71
581.14	29731.83
581.30	30232.70
581.46	29607.78
581.62	29457.98
581.78	29677.99
581.94	29640.54
582.10	30391.86
582.26	29837.15
582.42	30340.36
582.58	29944.81
582.74	30094.61
582.90	30029.07
583.06	29926.09
583.22	29933.11
583.38	30017.37
583.54	30036.09
583.70	29919.07
583.86	30031.41
584.02	29668.63
584.18	30047.80
584.34	30029.07
584.50	30272.49
584.66	29919.07
584.82	29874.60
584.98	29926.09
585.14	29855.87
585.30	30185.89
585.46	30394.20
585.62	29972.90
585.78	30349.73
585.94	29923.75
586.10	29991.62
586.26	30347.39
586.42	30389.52
586.58	30590.80
586.74	29823.11
586.90	30008.01
587.06	29647.57
587.22	29621.82
587.38	29942.47
587.54	30249.08
587.70	30574.42
587.86	30433.99
588.02	30300.58
588.18	30354.41
588.34	30300.58
588.49	30122.69
588.65	30092.27
588.81	30326.32
588.97	30455.05
589.13	30092.27
589.29	30410.58
589.45	30199.93
589.61	30632.93
589.77	30396.54
589.93	30441.01
590.08	30354.41
590.24	30466.75
590.40	30260.79
590.56	30483.14
590.72	30424.62
590.88	30160.14
591.04	30307.60
591.20	30909.11
591.35	30773.36
591.51	30705.49
591.67	30668.04
591.83	30567.40
591.99	30614.21
592.15	30731.23
592.31	30373.13
592.46	30651.66
592.62	30010.35
592.78	30361.43
592.94	30244.40
593.10	30382.49
593.26	30707.83
593.41	30415.26
593.57	30462.07
593.73	30745.28
593.89	30775.70
594.05	30490.16
594.20	30513.56
594.36	30682.08
594.52	30483.14
594.68	30258.45
594.84	30256.11
594.99	30525.27
595.15	30944.22
595.31	30792.09
595.47	30714.85
595.62	31257.85
595.78	30426.96
595.94	30373.13
596.10	30646.97
596.25	30548.67
596.41	30429.30
596.57	29993.97
596.73	30855.28
596.88	30387.18
597.04	30911.46
597.20	30794.43
597.36	30717.19
597.51	30906.77
597.67	30937.20
597.83	30698.47
597.99	30775.70
598.14	30775.70
598.30	30312.28
598.46	30794.43
598.61	30366.11
598.77	30597.82
598.93	30892.73
599.09	30618.89
599.24	30866.98
599.40	31084.65
599.56	30675.06
599.71	31063.59
599.87	30937.20
600.03	30686.76
600.18	30609.53
600.34	30698.47
600.50	30780.39
600.65	30827.20
600.81	31365.52
600.97	30941.88
601.12	31215.72
601.28	30588.46
601.44	30883.37
601.59	30726.55
601.75	31098.70
601.91	30883.37
602.06	30696.13
602.22	30768.68
602.37	30553.35
602.53	30817.83
602.69	31108.06
602.84	30817.83
603.00	30974.65
603.16	30581.44
603.31	30972.31
603.47	30806.13
603.62	30338.02
603.78	30642.29
603.94	30515.90
604.09	30614.21
604.25	30483.14
604.40	30607.19
604.56	30771.02
604.71	30518.25
604.87	30735.92
605.03	30866.98
605.18	30782.73
605.34	30726.55
605.49	30658.68
605.65	30433.99
605.80	30450.37
605.96	30345.05
606.12	30504.20
606.27	30649.32
606.43	30473.78
606.58	30918.48
606.74	30691.44
606.89	30998.06
607.05	30457.39
607.20	30586.12
607.36	30632.93
607.51	30438.67
607.67	30689.10
607.82	30628.25
607.98	29972.90
608.13	30380.15
608.29	30841.24
608.44	30359.09
608.60	30478.46
608.75	30576.76
608.91	30855.28
609.06	30656.34
609.22	30553.35
609.37	30375.47
609.53	30251.42
609.68	30436.33
609.84	30539.31
609.99	30251.42
610.15	30579.10
610.30	30274.83
610.46	30309.94
610.61	30534.63
610.76	30323.98
610.92	30380.15
611.07	30642.29
611.23	30579.10
611.38	30492.50
611.54	30684.42
611.69	29715.44
611.84	30169.51
612.00	30373.13
612.15	30164.82
612.31	30569.74
612.46	30223.34
612.62	30590.80
612.77	30141.42
612.92	30263.13
613.08	30513.56
613.23	30022.05
613.39	29926.09
613.54	30192.91
613.69	30136.74
613.85	30230.36
614.00	29883.96
614.15	30312.28
614.31	30073.54
614.46	30120.35
614.62	29820.77
614.77	30328.66
614.92	29666.29
615.08	30232.70
615.23	30188.23
615.38	30036.09
615.54	29495.43
615.69	29809.06
615.84	29881.62
616.00	30099.29
616.15	29448.62
616.30	30267.81
616.46	30267.81
616.61	29846.51
616.76	29890.98
616.92	30047.80
617.07	30099.29
617.22	29425.22
617.37	29837.15
617.53	29909.71
617.68	29687.36
617.83	29816.08
617.99	29865.24
618.14	29773.95
618.29	29900.34
618.45	29528.20
618.60	29685.01
618.75	29673.31
618.90	29701.40
619.06	29766.93
619.21	29591.39
619.36	29724.80
619.51	29790.34
619.67	29659.27
619.82	29139.67
619.97	29305.85
620.12	29553.94
620.28	29188.82
620.43	29876.94
620.58	29249.67
620.73	29507.13
620.89	29762.25
621.04	29893.32
621.19	29883.96
621.34	29207.55
621.49	29359.68
621.65	29514.16
621.80	29071.79
621.95	29069.45
622.10	29118.60
622.25	29331.59
622.41	29144.35
622.56	29350.32
622.71	29338.62
622.86	28886.89
623.01	29743.53
623.16	29289.46
623.32	29186.48
623.47	28938.38
623.62	29441.60
623.77	28957.11
623.92	29163.08
624.07	28807.31
624.23	29151.37
624.38	29577.35
624.53	29642.88
624.68	29448.62
624.83	29392.45
624.98	29560.97
625.13	28982.85
625.29	29266.06
625.44	28982.85
625.59	28706.67
625.74	29247.33
625.89	28554.54
626.04	28751.14
626.19	28552.20
626.34	28765.18
626.49	28697.31
626.65	28861.15
626.80	28725.39
626.95	28797.95
627.10	28898.59
627.25	28573.26
627.40	28517.09
627.55	28648.16
627.70	28547.51
627.85	28739.44
628.00	28622.41
628.15	28671.56
628.30	28128.56
628.45	28463.25
628.60	28414.10
628.76	28739.44
628.91	28463.25
629.06	28554.54
629.21	28685.61
629.36	28671.56
629.51	28383.68
629.66	28327.50
629.81	28481.98
629.96	28360.27
630.11	28423.47
630.26	28479.64
630.41	28357.93
630.56	28603.69
630.71	28196.43
630.86	28409.42
631.01	28273.67
631.16	28388.36
631.31	28336.87
631.46	27929.61
631.61	28631.77
631.76	27955.36
631.91	28084.09
632.06	28037.28
632.21	28119.20
632.36	28135.58
632.51	27885.14
632.66	28126.22
632.81	28217.50
632.96	28463.25
633.10	28222.18
633.25	28390.70
633.40	27960.04
633.55	28100.47
633.70	27819.61
633.85	28360.27
634.00	28053.66
634.15	27655.77
634.30	27660.45
634.45	28123.88
634.60	28177.71
634.75	27725.99
634.90	27901.53
635.05	28013.87
635.19	28030.26
635.34	28184.73
635.49	28006.85
635.64	27800.88
635.79	27915.57
635.94	27859.40
636.09	27824.29
636.24	27854.72
636.39	27505.98
636.53	27934.29
636.68	27536.40
636.83	27491.93
636.98	27843.01
637.13	27805.56
637.28	27597.26
637.43	27938.97
637.57	27325.75
637.72	27826.63
637.87	27700.24
638.02	27606.62
638.17	27545.76
638.32	27463.85
638.46	27536.40
638.61	27267.24
638.76	27222.77
638.91	27108.08
639.06	27517.68
639.20	27475.55
639.35	27372.57
639.50	27023.83
639.65	27480.23
639.80	27346.82
639.94	27538.74
640.09	27271.92
640.24	27199.37
640.39	27239.15
640.54	26965.31
640.68	27040.21
640.83	27447.46
640.98	27082.34
641.13	26955.95
641.27	27246.18
641.42	27026.17
641.57	27051.91
641.72	27236.81
641.86	27009.78
642.01	26815.52
642.16	27250.86
642.31	26700.83
642.45	27440.44
642.60	26796.79
642.75	26698.49
642.90	26600.19
643.04	26651.68
643.19	26752.32
643.34	27054.25
643.48	26859.99
643.63	26820.20
643.78	27070.64
643.93	26792.11
644.07	27051.91
644.22	26918.50
644.37	26757.00
644.51	27173.62
644.66	27201.71
644.81	26466.78
644.95	26429.33
645.10	26256.13
645.25	26553.38
645.39	26714.87
645.54	26948.93
645.69	26377.84
645.83	26529.97
645.98	26902.12
646.13	26794.45
646.27	26867.01
646.42	26426.99
646.57	26558.06
646.71	26586.15
646.86	26380.18
647.00	26548.70
647.15	26396.56
647.30	26204.64
647.44	26455.08
647.59	26356.77
647.74	26583.80
647.88	26480.82
648.03	26780.41
648.17	26588.49
648.32	26609.55
648.47	26689.13
648.61	26197.62
648.76	26312.30
648.90	26529.97
649.05	26256.13
649.20	26302.94
649.34	26377.84
649.49	26017.40
649.63	26281.88
649.78	26036.12
649.92	25722.49
650.07	26162.51
650.21	26092.29
650.36	26092.29
650.51	26405.92
650.65	26363.79
650.80	26096.97
650.94	25846.54
651.09	25919.09
651.23	26118.04
651.38	25741.21
651.52	26010.37
651.67	25764.62
651.81	25809.09
651.96	25954.20
652.10	26071.23
652.25	26029.10
652.39	26071.23
652.54	26143.78
652.68	26029.10
652.83	25839.51
652.97	25951.86
653.12	25781.00
653.26	25565.67
653.41	25876.96
653.55	25734.19
653.70	25596.10
653.84	26127.40
653.99	25766.96
654.13	25469.71
654.27	25429.92
654.42	25507.16
654.56	25558.65
654.71	25586.74
654.85	25317.57
655.00	26127.40
655.14	25813.77
655.29	25720.15
655.43	25668.66
655.57	25799.73
655.72	25429.92
655.86	25074.16
656.01	25736.53
656.15	25095.22
656.30	25441.62
656.44	25338.64
656.58	25284.81
656.73	25331.62
656.87	25458.01
657.01	25235.66
657.16	25221.61
657.30	25544.61
657.45	25390.13
657.59	25193.53
657.73	25284.81
657.88	25479.07
658.02	25610.14
658.16	25212.25
658.31	25490.77
658.45	25083.52
658.60	25214.59
658.74	24915.00
658.88	24767.55
659.03	24980.54
659.17	25193.53
659.31	25043.73
659.46	24950.11
659.60	25158.42
659.74	25074.16
659.89	24978.20
660.03	24823.72
660.17	25050.75
660.32	24657.54
660.46	25003.94
660.60	24638.82
660.74	24524.13
660.89	24276.04
661.03	24503.07
661.17	24339.23
661.32	24601.37
661.46	24982.88
661.60	24741.80
661.74	24870.53
661.89	24709.04
662.03	24809.68
662.17	24343.91
662.31	24161.35
662.46	24877.55
662.60	24592.01
662.74	23908.57
662.88	24353.27
663.03	24140.29
663.17	23887.51
663.31	24053.69
663.45	23995.17
663.60	23901.55
663.74	23817.29
663.88	23831.33
664.02	24102.84
664.17	24320.51
664.31	23908.57
664.45	24041.98
664.59	24151.99
664.73	23651.11
664.88	23758.78
665.02	23419.40
665.16	23660.48
665.30	23800.91
665.44	23892.19
665.59	23400.68
665.73	23562.17
665.87	23641.75
666.01	23623.03
666.15	23557.49
666.29	23370.25
666.44	23536.43
666.58	23243.86
666.72	23166.62
666.86	23367.91
667.00	23578.56
667.14	23080.02
667.28	23297.69
667.43	23285.99
667.57	23264.92
667.71	23232.16
667.85	23145.56
667.99	22930.23
668.13	22960.66
668.27	23283.65
668.41	22955.97
668.56	22792.14
668.70	23166.62
668.84	23178.33
668.98	23051.94
669.12	22841.29
669.26	23065.98
669.40	22476.16
669.54	22813.20
669.68	22829.59
669.82	22506.59
669.96	22623.62
670.10	22632.98
670.25	22759.37
670.39	22403.61
670.53	22345.09
670.67	22321.69
670.81	22366.16
670.95	22511.27
671.09	22860.01
671.23	22307.65
671.37	22534.68
671.51	22520.63
671.65	22717.24
671.79	22274.88
671.93	22223.39
672.07	22078.27
672.21	22019.76
672.35	21722.51
672.49	21895.71
672.63	22029.12
672.77	21806.77
672.91	21902.73
673.05	21771.66
673.19	21722.51
673.33	21951.88
673.47	21855.92
673.61	21591.44
673.75	21668.68
673.89	21439.31
674.03	21535.27
674.17	21778.68
674.31	21549.31
674.45	21443.99
674.59	21324.62
674.73	21266.11
674.87	21308.24
675.01	21338.66
675.15	21083.55
675.29	21144.40
675.43	20872.90
675.56	21235.68
675.70	21298.88
675.84	21128.02
675.98	20486.71
676.12	21102.27
676.26	21139.72
676.40	20886.94
676.54	20762.89
676.68	20601.40
676.82	20421.17
676.96	20585.01
677.10	20833.11
677.23	20187.12
677.37	20477.35
677.51	20144.99
677.65	20238.61
677.79	19974.13
677.93	20205.84
678.07	20051.37
678.21	19983.49
678.34	19948.39
678.48	20027.96
678.62	20051.37
678.76	19967.11
678.90	19641.78
679.04	19840.72
679.18	19639.44
679.31	19403.04
679.45	19082.39
679.59	19426.45
679.73	19293.04
679.87	19414.74
680.00	19475.60
680.14	18916.21
680.28	18995.79
680.42	19201.76
680.56	18831.95
680.70	19002.81
680.83	19190.05
680.97	19201.76
681.11	19021.53
681.25	18874.08
681.39	18721.95
681.52	18906.85
681.66	18834.29
681.80	18782.80
681.94	18799.18
682.07	18478.53
682.21	18417.68
682.35	18403.63
682.49	18118.09
682.62	17907.44
682.76	18129.79
682.90	18181.28
683.04	18164.90
683.17	17994.04
683.31	18178.94
683.45	18078.30
683.59	17844.24
683.72	17837.22
683.86	17727.22
684.00	18026.81
684.13	17542.32
684.27	17635.94
684.41	17638.28
684.55	17334.01
684.68	17547.00
684.82	17319.96
684.96	17345.71
685.09	17441.67
685.23	17160.81
685.37	17029.74
685.50	17245.07
685.64	17228.68
685.78	17039.10
685.91	17104.64
686.05	17186.55
686.19	16854.20
686.32	16933.78
686.46	17034.42
686.60	16596.74
686.73	16559.29
686.87	16847.18
687.01	16594.40
687.14	16720.79
687.28	16187.14
687.42	16175.44
687.55	16444.60
687.69	16212.89
687.82	16128.63
687.96	15981.18
688.10	16182.46
688.23	16327.58
688.37	16114.59
688.50	16140.33
688.64	15995.22
688.78	15927.35
688.91	15990.54
689.05	15850.11
689.18	15592.65
689.32	15517.75
689.46	15709.68
689.59	15613.71
689.73	15414.77
689.86	15297.74
690.00	15360.94
690.13	15405.41
690.27	15454.56
690.41	15400.72
690.54	15206.46
690.68	15087.09
690.81	15410.09
690.95	15103.48
691.08	15042.62
691.22	15098.80
691.35	14689.20
691.49	14930.28
691.62	15103.48
691.76	14616.65
691.89	14728.99
692.03	14490.26
692.16	14567.49
692.30	14214.07
692.43	14420.04
692.57	14656.43
692.70	14511.32
692.84	14083.00
692.97	14129.81
693.11	14363.87
693.24	14193.01
693.38	13973.00
693.51	13998.74
693.65	13781.07
693.78	13872.36
693.92	13767.03
694.05	13661.71
694.19	13792.78
694.32	13806.82
694.45	13820.86
694.59	13638.30
694.72	13612.56
694.86	13404.25
694.99	13259.13
695.13	13366.80
695.26	13334.03
695.39	13357.44
695.53	13401.91
695.66	13294.24
695.80	13495.53
695.93	13217.01
696.07	12926.78
696.20	13128.06
696.33	12961.89
696.47	12943.16
696.60	12720.81
696.73	12800.39
696.87	13160.83
697.00	13043.81
697.14	12659.96
697.27	12603.78
697.40	12613.15
697.54	12610.81
697.67	12301.86
697.80	12123.98
697.94	12255.04
698.07	12138.02
698.21	12217.60
698.34	11962.48
698.47	12145.04
698.61	12109.93
698.74	12042.06
698.87	12107.59
699.01	11901.62
699.14	11934.39
699.27	12035.03
699.40	11969.50
699.54	11901.62
699.67	11948.43
699.80	11709.70
699.94	11707.36
700.07	11777.58
700.20	11508.41
700.34	11506.07
700.47	11143.29
700.60	11358.62
700.73	11295.43
700.87	11379.68
701.00	11101.16
701.13	11183.08
701.26	11257.98
701.40	11204.14
701.53	11138.61
701.66	11047.33
701.79	10843.70
701.93	11042.65
702.06	10792.21
702.19	10717.31
702.32	10792.21
702.46	10691.57
702.59	10588.58
702.72	10504.32
702.85	10483.26
702.99	10544.11
703.12	10476.24
703.25	10464.54
703.38	10296.02
703.51	10415.38
703.65	10361.55
703.78	10277.29
703.91	10403.68
704.04	10455.17
704.17	10235.16
704.31	10118.14
704.44	10286.65
704.57	9966.00
704.70	10017.49
704.83	9902.81
704.96	9956.64
705.10	9687.48
705.23	9652.37
>>>>>End Processed Spectral Data<<<<<
