SpectraSuite Data File
++++++++++++++++++++++++++++++++++++
Date: Fri Oct 18 13:58:00 GMT-05:00 2013
User: bianchi
Dark Spectrum Present: No
Reference Spectrum Present: No
Number of Sampled Component Spectra: 1
Spectrometers: USB2+H05261
Integration Time (usec): 50000 (USB2+H05261)
Spectra Averaged: 1 (USB2+H05261)
Boxcar Smoothing: 0 (USB2+H05261)
Correct for Electrical Dark: No (USB2+H05261)
Strobe/Lamp Enabled: No (USB2+H05261)
Correct for Detector Non-linearity: No (USB2+H05261)
Correct for Stray Light: No (USB2+H05261)
Number of Pixels in Processed Spectrum: 2048
>>>>>Begin Processed Spectral Data<<<<<
365.73	0.00
365.92	0.00
366.12	0.00
366.32	0.00
366.52	0.00
366.72	0.00
366.91	0.00
367.11	0.00
367.31	0.00
367.51	0.00
367.70	0.00
367.90	0.00
368.10	0.00
368.30	0.00
368.49	0.00
368.69	0.00
368.89	0.00
369.09	0.00
369.28	0.00
369.48	0.00
369.68	0.00
369.87	0.00
370.07	0.00
370.27	0.00
370.47	0.00
370.66	84.26
370.86	105.32
371.06	128.73
371.25	182.56
371.45	84.26
371.65	212.99
371.84	149.79
372.04	107.66
372.24	215.33
372.44	231.71
372.63	194.26
372.83	238.73
373.03	217.67
373.22	187.24
373.42	177.88
373.62	255.12
373.81	196.60
374.01	250.44
374.21	243.42
374.40	159.16
374.60	217.67
374.79	208.31
374.99	322.99
375.19	234.05
375.38	278.52
375.58	259.80
375.78	273.84
375.97	290.23
376.17	327.68
376.37	264.48
376.56	285.55
376.76	198.95
376.95	299.59
377.15	306.61
377.35	297.25
377.54	304.27
377.74	304.27
377.93	273.84
378.13	334.70
378.33	220.01
378.52	292.57
378.72	280.86
378.91	362.78
379.11	241.08
379.31	273.84
379.50	283.20
379.70	292.57
379.89	334.70
380.09	299.59
380.28	330.02
380.48	273.84
380.68	332.36
380.87	205.97
381.07	283.20
381.26	304.27
381.46	243.42
381.65	290.23
381.85	297.25
382.04	381.51
382.24	304.27
382.43	372.15
382.63	325.33
382.83	344.06
383.02	423.64
383.22	437.68
383.41	381.51
383.61	388.53
383.80	341.72
384.00	327.68
384.19	418.96
384.39	327.68
384.58	383.85
384.78	374.49
384.97	418.96
385.17	402.57
385.36	315.97
385.56	341.72
385.75	379.17
385.95	393.21
386.14	348.74
386.34	442.36
386.53	351.08
386.72	437.68
386.92	344.06
387.11	418.96
387.31	440.02
387.50	442.36
387.70	421.30
387.89	404.91
388.09	493.85
388.28	395.55
388.48	367.46
388.67	383.85
388.86	390.87
389.06	440.02
389.25	402.57
389.45	404.91
389.64	477.47
389.84	528.96
390.03	491.51
390.22	489.17
390.42	463.43
390.61	500.87
390.81	575.77
391.00	393.21
391.19	547.69
391.39	524.28
391.58	496.19
391.78	500.87
391.97	468.11
392.16	486.83
392.36	582.79
392.55	524.28
392.75	566.41
392.94	533.64
393.13	528.96
393.33	561.73
393.52	517.26
393.71	545.34
393.91	566.41
394.10	559.39
394.29	517.26
394.49	545.34
394.68	561.73
394.88	617.90
395.07	685.78
395.26	624.92
395.46	657.69
395.65	681.10
395.84	650.67
396.04	615.56
396.23	587.47
396.42	704.50
396.62	631.94
396.81	622.58
397.00	669.39
397.19	653.01
397.39	688.12
397.58	725.57
397.77	645.99
397.97	643.65
398.16	631.94
398.35	800.46
398.55	730.25
398.74	648.33
398.93	734.93
399.12	711.52
399.32	631.94
399.51	711.52
399.70	725.57
399.90	716.20
400.09	798.12
400.28	809.83
400.47	763.01
400.67	767.70
400.86	744.29
401.05	685.78
401.24	758.33
401.44	812.17
401.63	884.72
401.82	863.66
402.01	718.54
402.21	767.70
402.40	870.68
402.59	849.61
402.78	877.70
402.97	912.81
403.17	880.04
403.36	833.23
403.55	755.99
403.74	947.92
403.93	926.85
404.13	971.32
404.32	917.49
404.51	898.77
404.70	978.34
404.89	915.15
405.09	903.45
405.28	851.96
405.47	978.34
405.66	952.60
405.85	929.19
406.05	985.37
406.24	1036.86
406.43	1018.13
406.62	917.49
406.81	976.00
407.00	1018.13
407.20	968.98
407.39	1048.56
407.58	1036.86
407.77	1111.75
407.96	1027.50
408.15	1055.58
408.34	1093.03
408.54	1128.14
408.73	1043.88
408.92	1057.92
409.11	1053.24
409.30	1135.16
409.49	1179.63
409.68	1130.48
409.87	1146.86
410.07	1102.39
410.26	1184.31
410.45	1200.69
410.64	1160.91
410.83	1170.27
411.02	1205.38
411.21	1284.95
411.40	1224.10
411.59	1299.00
411.78	1200.69
411.98	1193.67
412.17	1266.23
412.36	1301.34
412.55	1322.40
412.74	1469.86
412.93	1350.49
413.12	1338.79
413.31	1472.20
413.50	1432.41
413.69	1385.60
413.88	1427.73
414.07	1401.98
414.26	1432.41
414.45	1406.66
414.64	1537.73
414.83	1511.99
415.02	1542.41
415.22	1521.35
415.41	1509.65
415.60	1591.56
415.79	1558.80
415.98	1607.95
416.17	1661.78
416.36	1598.59
416.55	1647.74
416.74	1591.56
416.93	1645.40
417.12	1736.68
417.31	1626.67
417.50	1619.65
417.69	1699.23
417.88	1671.14
418.07	1696.89
418.26	1776.47
418.45	1802.21
418.64	1694.55
418.83	1799.87
419.02	1778.81
419.21	1668.80
419.39	1874.77
419.58	1839.66
419.77	1823.28
419.96	1842.00
420.15	1888.81
420.34	1806.89
420.53	1813.92
420.72	1874.77
420.91	1893.49
421.10	1874.77
421.29	1947.33
421.48	1989.46
421.67	1930.94
421.86	2047.97
422.05	1912.22
422.24	1961.37
422.43	2001.16
422.61	2022.22
422.80	2127.55
422.99	1949.67
423.18	2043.29
423.37	2012.86
423.56	2087.76
423.75	2090.10
423.94	2052.65
424.13	1823.28
424.32	1944.99
424.50	2036.27
424.69	2003.50
424.88	2064.35
425.07	1921.58
425.26	1940.30
425.45	2054.99
425.64	2022.22
425.83	1954.35
426.01	1989.46
426.20	2001.16
426.39	2101.80
426.58	2153.29
426.77	2155.63
426.96	2125.21
427.15	1963.71
427.33	2083.08
427.52	2015.20
427.71	2153.29
427.90	2057.33
428.09	2188.40
428.28	2118.18
428.46	2230.53
428.65	2186.06
428.84	2209.47
429.03	2317.13
429.22	2108.82
429.40	2272.66
429.59	2232.87
429.78	2160.31
429.97	2193.08
430.16	2139.25
430.34	2179.04
430.53	2326.49
430.72	2385.01
430.91	2279.68
431.10	2324.15
431.28	2335.85
431.47	2373.30
431.66	2457.56
431.85	2333.51
432.03	2572.25
432.22	2473.95
432.41	2560.55
432.60	2499.69
432.79	2448.20
432.97	2565.23
433.16	2588.63
433.35	2448.20
433.54	2471.61
433.72	2583.95
433.91	2436.50
434.10	2539.48
434.28	2530.12
434.47	2548.84
434.66	2448.20
434.85	2572.25
435.03	2558.21
435.22	2546.50
435.41	2686.94
435.59	2637.78
435.78	2614.38
435.97	2651.83
436.16	2642.46
436.34	2698.64
436.53	2759.49
436.72	2822.69
436.90	2670.55
437.09	2792.26
437.28	2703.32
437.46	2630.76
437.65	2637.78
437.84	2743.11
438.02	2703.32
438.21	2829.71
438.40	2658.85
438.58	2904.60
438.77	2932.69
438.96	2733.75
439.14	3070.78
439.33	2960.78
439.52	2984.18
439.70	2874.18
439.89	2986.52
440.08	3047.38
440.26	3016.95
440.45	2977.16
440.63	3122.27
440.82	3084.83
441.01	3164.40
441.19	3194.83
441.38	3229.94
441.57	3190.15
441.75	3258.03
441.94	3098.87
442.12	3183.13
442.31	3222.92
442.50	3293.13
442.68	3236.96
442.87	3222.92
443.05	3382.07
443.24	3307.18
443.43	3323.56
443.61	3295.47
443.80	3325.90
443.98	3431.23
444.17	3236.96
444.35	3461.65
444.54	3618.47
444.73	3473.36
444.91	3426.54
445.10	3405.48
445.28	3447.61
445.47	3442.93
445.65	3501.44
445.84	3578.68
446.02	3419.52
446.21	3365.69
446.39	3480.38
446.58	3480.38
446.77	3438.25
446.95	3459.31
447.14	3496.76
447.32	3452.29
447.51	3337.60
447.69	3456.97
447.88	3592.72
448.06	3463.99
448.25	3435.91
448.43	3468.67
448.62	3489.74
448.80	3585.70
448.99	3576.34
449.17	3644.21
449.36	3578.68
449.54	3698.05
449.73	3590.38
449.91	3786.99
450.10	3637.19
450.28	3679.32
450.46	3714.43
450.65	3641.87
450.83	3758.90
451.02	3723.79
451.20	3765.92
451.39	3723.79
451.57	3707.41
451.76	3784.65
451.94	3826.78
452.13	3824.44
452.31	3756.56
452.49	3779.97
452.68	3796.35
452.86	3932.10
453.05	3981.25
453.23	3946.14
453.42	3904.01
453.60	3920.40
453.78	3971.89
453.97	3749.54
454.15	3950.82
454.34	3852.52
454.52	4009.34
454.70	3957.85
454.89	3829.12
455.07	4161.47
455.26	4007.00
455.44	4121.68
455.62	4002.32
455.81	4056.15
455.99	4117.00
456.17	4126.36
456.36	4217.65
456.54	4236.37
456.73	4152.11
456.91	4234.03
457.09	4287.86
457.28	4390.84
457.46	4306.59
457.64	4337.01
457.83	4332.33
458.01	4421.27
458.19	4381.48
458.38	4442.34
458.56	4409.57
458.74	4346.37
458.93	4606.17
459.11	4397.87
459.29	4454.04
459.48	4629.58
459.66	4489.15
459.84	4535.96
460.03	4652.98
460.21	4465.74
460.39	4442.34
460.57	4339.35
460.76	4603.83
460.94	4442.34
461.12	4858.95
461.31	4627.24
461.49	4542.98
461.67	4699.80
461.85	4685.75
462.04	4585.11
462.22	4947.89
462.40	4802.78
462.59	4685.75
462.77	4669.37
462.95	4812.14
463.13	4744.27
463.32	4943.21
463.50	4847.25
463.68	4964.28
463.86	4697.46
464.05	4870.65
464.23	4767.67
464.41	4802.78
464.59	4873.00
464.78	4950.23
464.96	4933.85
465.14	4922.15
465.32	4992.36
465.50	5053.22
465.69	5043.85
465.87	4943.21
466.05	5025.13
466.23	4964.28
466.41	5254.50
466.60	5093.01
466.78	5069.60
466.96	5041.51
467.14	4978.32
467.32	5137.48
467.51	5195.99
467.69	5032.15
467.87	5135.14
468.05	5107.05
468.23	5048.54
468.41	5153.86
468.60	5111.73
468.78	5434.72
468.96	5219.39
469.14	5345.78
469.32	5411.32
469.50	5214.71
469.69	5352.81
469.87	5523.66
470.05	5469.83
470.23	5540.05
470.41	5636.01
470.59	5394.93
470.77	5462.81
470.95	5486.22
471.14	5610.26
471.32	5544.73
471.50	5521.32
471.68	5568.13
471.86	5610.26
472.04	5664.10
472.22	5603.24
472.40	5767.08
472.58	5872.40
472.77	5750.70
472.95	5776.44
473.13	6071.35
473.31	5771.76
473.49	5853.68
473.67	5774.10
473.85	5949.64
474.03	5975.39
474.21	6008.16
474.39	6047.94
474.57	6036.24
474.75	6012.84
474.93	6249.23
475.12	6101.78
475.30	6188.38
475.48	6207.10
475.66	6148.59
475.84	6354.55
476.02	6389.66
476.20	6265.61
476.38	6464.56
476.56	6511.37
476.74	6450.52
476.92	6384.98
477.10	6459.88
477.28	6569.88
477.46	6651.80
477.64	6862.45
477.82	6899.90
478.00	7091.82
478.18	7068.42
478.36	7040.33
478.54	7026.29
478.72	6963.09
478.90	7068.42
479.08	7145.66
479.26	7417.16
479.44	7260.34
479.62	7267.36
479.80	7283.75
479.98	7344.60
480.16	7597.38
480.34	7578.65
480.52	7480.35
480.70	7623.12
480.88	7550.57
481.06	7700.36
481.24	7812.71
481.41	7824.41
481.59	7960.16
481.77	7908.67
481.95	7887.61
482.13	8105.28
482.31	8046.76
482.49	8292.52
482.67	8329.97
482.85	8402.52
483.03	8514.87
483.21	8369.76
483.39	8599.13
483.57	8486.78
483.74	8542.96
483.92	8617.85
484.10	8664.66
484.28	8973.61
484.46	9050.85
484.64	9121.07
484.82	9067.24
485.00	9156.18
485.18	9247.46
485.35	9352.78
485.53	9350.44
485.71	9509.60
485.89	9582.15
486.07	9607.90
486.25	9549.39
486.43	9921.53
486.61	9865.36
486.78	9940.26
486.96	10047.92
487.14	10129.84
487.32	9994.09
487.50	10200.05
487.68	10197.71
487.85	10143.88
488.03	10249.21
488.21	10530.07
488.39	10635.39
488.57	10569.86
488.75	10579.22
488.92	11009.88
489.10	10902.22
489.28	11047.33
489.46	10981.79
489.64	10761.78
489.81	11215.85
489.99	11283.72
490.17	11370.32
490.35	11435.86
490.53	11475.65
490.70	11644.17
490.88	11803.32
491.06	11749.49
491.24	11789.28
491.41	11889.92
491.59	11789.28
491.77	11803.32
491.95	12020.99
492.13	12229.30
492.30	12292.49
492.48	11971.84
492.66	12219.94
492.84	12236.32
493.01	12559.31
493.19	12491.44
493.37	12959.55
493.54	12802.73
493.72	12959.55
493.90	12917.42
494.08	12854.22
494.25	13099.98
494.43	13312.97
494.61	13121.04
494.79	13060.19
494.96	13195.94
495.14	13446.38
495.32	13795.12
495.49	13422.97
495.67	13575.11
495.85	13802.14
496.02	13989.38
496.20	13912.14
496.38	13898.10
496.55	14015.13
496.73	14202.37
496.91	14347.48
497.09	14347.48
497.26	14300.67
497.44	14071.30
497.62	14401.32
497.79	14579.20
497.97	14759.42
498.14	14611.96
498.32	14860.06
498.50	14925.60
498.67	15007.52
498.85	14618.99
499.03	14757.08
499.20	15021.56
499.38	15164.33
499.56	15309.44
499.73	15477.96
499.91	15349.23
500.08	15564.56
500.26	15253.27
500.44	15566.90
500.61	15480.30
500.79	15552.86
500.97	15861.81
501.14	15943.73
501.32	15840.75
501.49	15850.11
501.67	15831.38
501.84	16091.18
502.02	15953.09
502.20	16128.63
502.37	16187.14
502.55	16011.60
502.72	15985.86
502.90	16201.19
503.07	16306.51
503.25	16271.40
503.43	16381.41
503.60	16552.27
503.78	16608.44
503.95	16575.67
504.13	16769.94
504.30	16594.40
504.48	16826.11
504.65	16783.98
504.83	17315.28
505.01	16879.94
505.18	17060.16
505.36	17158.47
505.53	16865.90
505.71	16910.37
505.88	17015.69
506.06	17348.05
506.23	17202.94
506.41	17247.41
506.58	17638.28
506.76	17731.90
506.93	17277.83
507.11	17125.70
507.28	17444.01
507.46	17509.55
507.63	17708.49
507.81	18057.23
507.98	17593.81
508.16	17865.31
508.33	17884.03
508.50	17657.00
508.68	18092.34
508.85	18118.09
509.03	18122.77
509.20	18333.42
509.38	18195.32
509.55	18085.32
509.73	18443.42
509.90	18457.46
510.08	18581.51
510.25	18546.40
510.42	18443.42
510.60	19094.09
510.77	18904.51
510.95	18834.29
511.12	18483.21
511.30	19047.28
511.47	18939.62
511.64	19005.15
511.82	19007.49
511.99	19295.38
512.17	19119.84
512.34	19178.35
512.51	19016.85
512.69	19204.10
512.86	18925.57
513.04	19449.85
513.21	19398.36
513.38	19552.84
513.56	19658.16
513.73	19110.47
513.90	19531.77
514.08	19482.62
514.25	19896.89
514.43	19803.27
514.60	19688.59
514.77	19594.96
514.95	20170.74
515.12	19892.21
515.29	19688.59
515.47	20067.75
515.64	20229.25
515.81	20142.65
515.99	20156.69
516.16	20147.33
516.33	20360.32
516.51	20360.32
516.68	20439.90
516.85	20367.34
517.03	20318.19
517.20	20477.35
517.37	20594.37
517.54	20533.52
517.72	20737.15
517.89	20659.91
518.06	20489.05
518.24	20910.35
518.41	20828.43
518.58	21146.74
518.75	20840.13
518.93	21055.46
519.10	20968.86
519.27	21018.01
519.45	20884.60
519.62	20952.48
519.79	21008.65
519.96	20933.75
520.14	21378.45
520.31	21254.40
520.48	21516.54
520.65	21422.92
520.83	21451.01
521.00	21647.61
521.17	21619.53
521.34	21406.54
521.52	21593.78
521.69	21436.97
521.86	21745.92
522.03	21961.25
522.20	21935.50
522.38	21994.01
522.55	21612.51
522.72	21848.90
522.89	22075.93
523.07	22106.36
523.24	21802.09
523.41	22190.62
523.58	22274.88
523.75	22583.83
523.92	21933.16
524.10	22178.92
524.27	22389.56
524.44	22534.68
524.61	22642.34
524.78	22443.40
524.96	22469.14
525.13	22178.92
525.30	22614.26
525.47	22855.33
525.64	22593.19
525.81	23019.17
525.98	22710.22
526.16	22785.12
526.33	22707.88
526.50	23297.69
526.67	22752.35
526.84	22808.52
527.01	22874.06
527.18	23054.28
527.36	23175.98
527.53	23115.13
527.70	23468.55
527.87	23452.17
528.04	23122.15
528.21	23276.63
528.38	23197.05
528.55	23599.62
528.72	23374.93
528.89	23503.66
529.07	23321.10
529.24	23419.40
529.41	23929.64
529.58	23674.52
529.75	23611.32
529.92	23693.24
530.09	23585.58
530.26	23625.37
530.43	23864.10
530.60	23697.92
530.77	23672.18
530.94	24100.50
531.11	23796.23
531.28	23683.88
531.46	23616.01
531.63	24006.87
531.80	23964.75
531.97	24308.80
532.14	24023.26
532.31	24093.47
532.48	24372.00
532.65	24353.27
532.82	24065.39
532.99	24393.06
533.16	24156.67
533.33	24217.52
533.50	24861.17
533.67	24507.75
533.84	24297.10
534.01	24299.44
534.18	24217.52
534.35	24456.26
534.52	24627.12
534.69	24884.58
534.86	24779.25
535.03	24472.64
535.20	24882.24
535.37	24730.10
535.54	24702.01
535.71	24856.49
535.88	24765.21
536.05	24863.51
536.22	24982.88
536.38	25289.49
536.55	25186.50
536.72	24889.26
536.89	25223.95
537.06	25081.18
537.23	25106.93
537.40	24943.09
537.57	25090.54
537.74	25568.01
537.91	25167.78
538.08	25132.67
538.25	25390.13
538.42	25455.67
538.59	25081.18
538.75	24982.88
538.92	25207.57
539.09	25394.81
539.26	25736.53
539.43	25490.77
539.60	25525.88
539.77	25458.01
539.94	25869.94
540.11	25635.89
540.28	25830.15
540.44	25724.83
540.61	25628.87
540.78	25734.19
540.95	25689.72
541.12	25757.60
541.29	26120.38
541.46	25816.11
541.62	25626.53
541.79	26019.74
541.96	25703.76
542.13	25764.62
542.30	25947.18
542.47	26017.40
542.63	26352.09
542.80	26228.04
542.97	26656.36
543.14	26256.13
543.31	26354.43
543.48	26490.18
543.64	26778.07
543.81	26883.39
543.98	26972.33
544.15	26555.72
544.32	26476.14
544.48	26953.61
544.65	26448.05
544.82	26389.54
544.99	26377.84
545.16	26380.18
545.32	26333.37
545.49	26637.64
545.66	27122.13
545.83	26705.51
546.00	26986.38
546.16	26991.06
546.33	26745.30
546.50	26497.20
546.67	27124.47
546.83	26569.76
547.00	27016.80
547.17	26986.38
547.34	27098.72
547.50	26850.63
547.67	27536.40
547.84	27562.15
548.00	27161.92
548.17	27243.84
548.34	27297.67
548.51	27435.76
548.67	27339.80
548.84	27412.35
549.01	27115.11
549.18	27402.99
549.34	27510.66
549.51	26998.08
549.68	27379.59
549.84	27882.80
550.01	27660.45
550.18	27365.54
550.34	27520.02
550.51	27672.15
550.68	27655.77
550.84	27257.88
551.01	27756.41
551.18	27700.24
551.34	27538.74
551.51	27199.37
551.68	27772.80
551.84	27623.00
552.01	27623.00
552.18	27955.36
552.34	27402.99
552.51	27576.19
552.68	28142.60
552.84	27948.34
553.01	27817.27
553.18	27620.66
553.34	28119.20
553.51	27826.63
553.67	28027.92
553.84	28570.92
554.01	28233.88
554.17	28397.72
554.34	28205.80
554.51	28135.58
554.67	28048.98
554.84	28264.31
555.00	27983.44
555.17	27903.87
555.33	28053.66
555.50	28060.68
555.67	28301.76
555.83	28149.62
556.00	28467.94
556.16	28868.17
556.33	28327.50
556.50	28346.23
556.66	28477.30
556.83	28727.74
556.99	29092.86
557.16	28809.65
557.32	28685.61
557.49	28584.96
557.65	28208.14
557.82	28285.37
557.98	28556.88
558.15	28411.76
558.32	28907.96
558.48	28519.43
558.65	28851.78
558.81	28538.15
558.98	28847.10
559.14	29036.69
559.31	28531.13
559.47	28690.29
559.64	28573.26
559.80	28772.21
559.97	29252.02
560.13	28889.23
560.30	29205.20
560.46	28872.85
560.63	28912.64
560.79	29034.35
560.96	28947.75
561.12	28924.34
561.29	28622.41
561.45	28709.01
561.61	29294.14
561.78	29195.84
561.94	28594.32
562.11	29055.41
562.27	28744.12
562.44	29160.73
562.60	29001.58
562.77	29020.30
562.93	29053.07
563.10	28966.47
563.26	28865.83
563.42	29326.91
563.59	29039.03
563.75	29172.44
563.92	29111.58
564.08	29050.73
564.24	29046.05
564.41	29099.88
564.57	28900.94
564.74	29254.36
564.90	29474.37
565.07	29263.72
565.23	29493.09
565.39	29399.47
565.56	29289.46
565.72	29418.19
565.88	29015.62
566.05	29057.75
566.21	29287.12
566.38	29195.84
566.54	29298.83
566.70	29603.10
566.87	29710.76
567.03	29340.96
567.19	29373.72
567.36	29544.58
567.52	29586.71
567.68	29525.86
567.85	29312.87
568.01	29881.62
568.17	29404.15
568.34	29118.60
568.50	29441.60
568.66	29598.41
568.83	29383.09
568.99	29500.11
569.15	29048.39
569.32	29535.22
569.48	29200.52
569.64	29799.70
569.81	29593.73
569.97	29560.97
570.13	29773.95
570.30	29619.48
570.46	29699.06
570.62	29970.56
570.78	29408.83
570.95	29408.83
571.11	29706.08
571.27	29502.45
571.43	29624.16
571.60	29631.18
571.76	29624.16
571.92	29411.17
572.09	29872.26
572.25	30080.56
572.41	29624.16
572.57	29525.86
572.74	29598.41
572.90	29385.43
573.06	29649.91
573.22	29294.14
573.38	29706.08
573.55	29776.30
573.71	30050.14
573.87	30113.33
574.03	29661.61
574.20	30323.98
574.36	29553.94
574.52	29872.26
574.68	29680.33
574.84	29818.42
575.01	29780.98
575.17	29820.77
575.33	29982.26
575.49	29483.73
575.65	30139.08
575.82	29858.21
575.98	29696.72
576.14	29979.92
576.30	29972.90
576.46	29830.13
576.62	29696.72
576.79	29556.28
576.95	29799.70
577.11	29694.38
577.27	29979.92
577.43	30258.45
577.59	29612.46
577.75	29741.19
577.92	29603.10
578.08	29612.46
578.24	29549.26
578.40	29771.61
578.56	29619.48
578.72	30288.87
578.88	30281.85
579.04	30019.71
579.21	29895.66
579.37	30190.57
579.53	29979.92
579.69	29965.88
579.85	29788.00
580.01	29785.66
580.17	29724.80
580.33	29872.26
580.49	29961.20
580.65	30590.80
580.82	29813.74
580.98	30417.60
581.14	30029.07
581.30	30164.82
581.46	29567.99
581.62	29654.59
581.78	29926.09
581.94	29958.86
582.10	29890.98
582.26	29907.37
582.42	30206.95
582.58	30029.07
582.74	30401.22
582.90	30221.00
583.06	30110.99
583.22	29701.40
583.38	30150.78
583.54	30073.54
583.70	30010.35
583.86	29738.85
584.02	29970.56
584.18	30237.38
584.34	30176.53
584.50	29958.86
584.66	29879.28
584.82	29972.90
584.98	30274.83
585.14	30043.12
585.30	29661.61
585.46	30089.93
585.62	30129.72
585.78	30003.33
585.94	29696.72
586.10	29991.62
586.26	30183.55
586.42	30419.94
586.58	30342.70
586.74	30508.88
586.90	29724.80
587.06	29802.04
587.22	29942.47
587.38	30277.17
587.54	30426.96
587.70	30504.20
587.86	30331.00
588.02	30504.20
588.18	30338.02
588.34	30326.32
588.49	30581.44
588.65	30057.16
588.81	30263.13
588.97	30286.53
589.13	29963.54
589.29	30047.80
589.45	29935.45
589.61	30445.69
589.77	30316.96
589.93	30096.95
590.08	30572.08
590.24	30361.43
590.40	30693.79
590.56	30600.16
590.72	30295.89
590.88	30029.07
591.04	30150.78
591.20	30848.26
591.35	30637.61
591.51	30466.75
591.67	30204.61
591.83	30630.59
591.99	30204.61
592.15	30494.84
592.31	30284.19
592.46	30162.48
592.62	30333.34
592.78	30527.61
592.94	30448.03
593.10	30256.11
593.26	30576.76
593.41	30394.20
593.57	30380.15
593.73	30356.75
593.89	30749.96
594.05	30621.23
594.20	30323.98
594.36	30354.41
594.52	30438.67
594.68	30340.36
594.84	30387.18
594.99	30361.43
595.15	30661.02
595.31	30806.13
595.47	30871.67
595.62	30995.71
595.78	30536.97
595.94	30464.41
596.10	30792.09
596.25	30747.62
596.41	30618.89
596.57	30216.32
596.73	30686.76
596.88	30541.65
597.04	30668.04
597.20	30443.35
597.36	30618.89
597.51	30796.77
597.67	30539.31
597.83	30141.42
597.99	30979.33
598.14	30242.06
598.30	30415.26
598.46	30721.87
598.61	30361.43
598.77	30623.57
598.93	30588.46
599.09	30614.21
599.24	31094.02
599.40	30778.04
599.56	30941.88
599.71	30576.76
599.87	30433.99
600.03	30717.19
600.18	30405.90
600.34	30410.58
600.50	30728.89
600.65	30817.83
600.81	30487.82
600.97	30672.72
601.12	30670.38
601.28	30874.01
601.44	30487.82
601.59	30749.96
601.75	30801.45
601.91	30661.02
602.06	30412.92
602.22	30738.26
602.37	30476.12
602.53	31009.76
602.69	30939.54
602.84	31133.81
603.00	30340.36
603.16	30829.54
603.31	30607.19
603.47	30698.47
603.62	30874.01
603.78	30520.59
603.94	30445.69
604.09	30094.61
604.25	30464.41
604.40	30639.95
604.56	30934.86
604.71	31061.25
604.87	30693.79
605.03	30679.74
605.18	31211.04
605.34	30749.96
605.49	30572.08
605.65	30506.54
605.80	30335.68
605.96	30747.62
606.12	30064.18
606.27	30799.11
606.43	30726.55
606.58	30735.92
606.74	30775.70
606.89	30944.22
607.05	30651.66
607.20	30703.15
607.36	30375.47
607.51	30724.21
607.67	30305.26
607.82	30609.53
607.98	30302.92
608.13	30270.15
608.29	30455.05
608.44	30345.05
608.60	30366.11
608.75	31194.66
608.91	30639.95
609.06	30235.04
609.22	30319.30
609.37	30363.77
609.53	30321.64
609.68	30103.97
609.84	30059.50
609.99	30342.70
610.15	30008.01
610.30	30036.09
610.46	30675.06
610.61	30445.69
610.76	30431.65
610.92	30424.62
611.07	30068.86
611.23	30352.07
611.38	30066.52
611.54	30225.68
611.69	29926.09
611.84	30143.76
612.00	30106.31
612.15	30272.49
612.31	30216.32
612.46	30593.14
612.62	30309.94
612.77	29511.81
612.92	30394.20
613.08	30366.11
613.23	30242.06
613.39	30057.16
613.54	30010.35
613.69	29937.79
613.85	30108.65
614.00	30480.80
614.15	30518.25
614.31	30361.43
614.46	30370.79
614.62	30043.12
614.77	29869.92
614.92	30335.68
615.08	30218.66
615.23	29949.50
615.38	30164.82
615.54	29785.66
615.69	29783.32
615.84	29933.11
616.00	29479.05
616.15	29706.08
616.30	30221.00
616.46	29668.63
616.61	29575.01
616.76	29912.05
616.92	29926.09
617.07	29865.24
617.22	29647.57
617.37	29785.66
617.53	29694.38
617.68	29596.07
617.83	29642.88
617.99	29661.61
618.14	29802.04
618.29	29553.94
618.45	29722.46
618.60	29944.81
618.75	29605.44
618.90	29619.48
619.06	29755.23
619.21	29259.04
619.36	29591.39
619.51	29610.12
619.67	29401.81
619.82	29111.58
619.97	29654.59
620.12	29259.04
620.28	28957.11
620.43	29457.98
620.58	29687.36
620.73	29509.47
620.89	29713.10
621.04	29961.20
621.19	29804.38
621.34	29570.33
621.49	29043.71
621.65	29090.52
621.80	29752.89
621.95	29355.00
622.10	29252.02
622.25	29310.53
622.41	29301.17
622.56	29420.53
622.71	29551.60
622.86	29277.76
623.01	29385.43
623.16	29060.09
623.32	29106.90
623.47	29165.42
623.62	29102.22
623.77	29242.65
623.92	29439.26
624.07	29055.41
624.23	28807.31
624.38	29467.34
624.53	29043.71
624.68	29329.25
624.83	28966.47
624.98	29057.75
625.13	28673.90
625.29	29127.97
625.44	29277.76
625.59	28907.96
625.74	28582.62
625.89	29249.67
626.04	28601.35
626.19	28945.41
626.34	28919.66
626.49	28556.88
626.65	28800.29
626.80	28772.21
626.95	29036.69
627.10	28580.28
627.25	28678.58
627.40	28442.19
627.55	28950.09
627.70	28421.13
627.85	28545.17
628.00	28481.98
628.15	28568.58
628.30	28685.61
628.45	28173.03
628.60	28662.20
628.76	28381.34
628.91	28610.71
629.06	28739.44
629.21	28549.85
629.36	28383.68
629.51	28290.06
629.66	28411.76
629.81	28077.07
629.96	28016.21
630.11	28407.08
630.26	28577.94
630.41	28439.85
630.56	28327.50
630.71	28224.52
630.86	28243.24
631.01	28166.01
631.16	28439.85
631.31	28264.31
631.46	28119.20
631.61	28240.90
631.76	28238.56
631.91	28053.66
632.06	27786.84
632.21	28158.99
632.36	27936.63
632.51	27812.59
632.66	28180.05
632.81	27798.54
632.96	27817.27
633.10	28135.58
633.25	28163.67
633.40	28128.56
633.55	28250.27
633.70	27639.39
633.85	27159.58
634.00	27716.62
634.15	27641.73
634.30	27660.45
634.45	28065.36
634.60	27566.83
634.75	27938.97
634.90	27510.66
635.05	27950.68
635.19	28259.63
635.34	28177.71
635.49	27688.54
635.64	27800.88
635.79	27716.62
635.94	27580.87
636.09	27749.39
636.24	27901.53
636.39	27641.73
636.53	27878.12
636.68	27814.93
636.83	27541.08
636.98	27840.67
637.13	27637.05
637.28	27262.56
637.43	27850.03
637.57	27707.26
637.72	27484.91
637.87	27871.10
638.02	27688.54
638.17	27400.65
638.32	27501.29
638.46	27166.60
638.61	27213.41
638.76	27246.18
638.91	27496.61
639.06	27513.00
639.20	27445.12
639.35	27730.67
639.50	27845.35
639.65	27449.80
639.80	27473.21
639.94	27255.54
640.09	27424.06
640.24	27342.14
640.39	27159.58
640.54	27112.77
640.68	27213.41
640.83	26881.05
640.98	26953.61
641.13	26904.46
641.27	27276.60
641.42	27295.33
641.57	26808.50
641.72	27110.43
641.86	27068.30
642.01	27152.55
642.16	26787.43
642.31	26876.37
642.45	26939.57
642.60	26850.63
642.75	27058.93
642.90	26909.14
643.04	26583.80
643.19	26895.10
643.34	27019.14
643.48	26761.69
643.63	26972.33
643.78	27028.51
643.93	26775.73
644.07	26792.11
644.22	27154.90
644.37	26796.79
644.51	26628.27
644.66	26909.14
644.81	26134.42
644.95	26747.64
645.10	26190.59
645.25	26148.46
645.39	26658.70
645.54	26757.00
645.69	26176.55
645.83	26864.67
645.98	26459.76
646.13	26867.01
646.27	26586.15
646.42	26490.18
646.57	26801.47
646.71	26721.90
646.86	26415.29
647.00	26291.24
647.15	26480.82
647.30	26288.90
647.44	26015.05
647.59	26359.11
647.74	26443.37
647.88	26443.37
648.03	26059.52
648.17	26518.27
648.32	26600.19
648.47	26738.28
648.61	26185.91
648.76	26525.29
648.90	26167.19
649.05	26101.65
649.20	26111.02
649.34	26209.32
649.49	26188.25
649.63	26410.60
649.78	25968.24
649.92	25649.93
650.07	26134.42
650.21	25769.30
650.36	25914.41
650.51	25806.75
650.65	26120.38
650.80	25956.54
650.94	26071.23
651.09	25909.73
651.23	25867.60
651.38	25816.11
651.52	25759.94
651.67	25991.65
651.81	26040.80
651.96	25855.90
652.10	25905.05
652.25	25916.75
652.39	26185.91
652.54	25907.39
652.68	25972.92
652.83	25975.27
652.97	26078.25
653.12	25773.98
653.26	25661.63
653.41	25736.53
653.55	25972.92
653.70	25427.58
653.84	25916.75
653.99	25579.71
654.13	25277.79
654.27	25708.44
654.42	25642.91
654.56	25472.05
654.71	25706.10
654.85	25486.09
655.00	25614.82
655.14	26164.85
655.29	25418.22
655.43	25993.99
655.57	25532.90
655.72	25324.60
655.86	25458.01
656.01	25752.91
656.15	25156.08
656.30	25172.46
656.44	25245.02
656.58	25310.55
656.73	25322.26
656.87	25280.13
657.01	25238.00
657.16	25544.61
657.30	25312.89
657.45	25694.40
657.59	25628.87
657.73	25039.05
657.88	25106.93
658.02	25078.84
658.16	24905.64
658.31	25135.01
658.45	25139.69
658.60	24957.13
658.74	24762.87
658.88	25120.97
659.03	24711.38
659.17	25226.29
659.31	25167.78
659.46	24893.94
659.60	25233.32
659.74	24779.25
659.89	24751.17
660.03	24952.45
660.17	24589.67
660.32	24545.20
660.46	24814.36
660.60	24690.31
660.74	24074.75
660.89	24496.05
661.03	24376.68
661.17	24514.77
661.32	24563.92
661.46	24709.04
661.60	24386.04
661.74	24332.21
661.89	24699.67
662.03	24898.62
662.17	24388.38
662.31	24198.80
662.46	24470.30
662.60	24002.19
662.74	24339.23
662.88	24409.45
663.03	23676.86
663.17	23899.21
663.31	23637.07
663.45	24292.42
663.60	23857.08
663.74	23990.49
663.88	23885.17
664.02	23953.04
664.17	24041.98
664.31	24196.46
664.45	23676.86
664.59	23901.55
664.73	24156.67
664.88	24016.24
665.02	23506.00
665.16	23564.51
665.30	23730.69
665.44	23573.88
665.59	23428.76
665.73	23690.90
665.87	23482.59
666.01	23522.38
666.15	23545.79
666.29	23548.13
666.44	23288.33
666.58	23063.64
666.72	23498.98
666.86	23620.69
667.00	23293.01
667.14	23178.33
667.28	23028.53
667.43	23227.48
667.57	23253.22
667.71	22977.04
667.85	23288.33
667.99	23129.17
668.13	22899.80
668.27	23328.12
668.41	22934.91
668.56	22782.77
668.70	22892.78
668.84	22897.46
668.98	22913.84
669.12	22787.46
669.26	22747.67
669.40	22899.80
669.54	22876.40
669.68	23033.21
669.82	22703.20
669.96	22747.67
670.10	22324.03
670.25	22717.24
670.39	22789.80
670.53	22377.86
670.67	22317.01
670.81	22328.71
670.95	22167.21
671.09	22504.25
671.23	22616.60
671.37	22111.04
671.51	22136.79
671.65	22607.23
671.79	22214.02
671.93	22071.25
672.07	22143.81
672.21	21989.33
672.35	21722.51
672.49	21715.49
672.63	21902.73
672.77	21673.36
672.91	21891.03
673.05	21654.64
673.19	21661.66
673.33	21591.44
673.47	21710.81
673.61	21874.65
673.75	21673.36
673.89	21837.20
674.03	21591.44
674.17	21443.99
674.31	21699.11
674.45	21394.84
674.59	21298.88
674.73	21163.12
674.87	21214.62
675.01	21516.54
675.15	21228.66
675.29	20950.14
675.43	21050.78
675.56	20898.64
675.70	21097.59
675.84	21010.99
675.98	20355.64
676.12	20900.98
676.26	20950.14
676.40	20856.51
676.54	20716.08
676.68	20760.55
676.82	20463.30
676.96	20526.50
677.10	20191.80
677.23	20414.15
677.37	20379.04
677.51	20430.54
677.65	20152.01
677.79	20002.22
677.93	20205.84
678.07	20442.24
678.21	19784.55
678.34	19906.26
678.48	19756.46
678.62	19800.93
678.76	20018.60
678.90	19381.98
679.04	19756.46
679.18	20032.65
679.31	19154.94
679.45	19580.92
679.59	19349.21
679.73	19171.33
679.87	19068.34
680.00	18906.85
680.14	19190.05
680.28	18981.74
680.42	19075.37
680.56	19154.94
680.70	19147.92
680.83	19278.99
680.97	18602.58
681.11	18911.53
681.25	18754.71
681.39	18724.29
681.52	18523.00
681.66	18803.86
681.80	18324.05
681.94	18394.27
682.07	18216.39
682.21	18471.51
682.35	18302.99
682.49	18286.61
682.62	18228.09
682.76	18122.77
682.90	18188.30
683.04	17926.16
683.17	18221.07
683.31	17783.39
683.45	18078.30
683.59	17947.23
683.72	17561.04
683.86	17900.42
684.00	17865.31
684.13	17769.35
684.27	17502.53
684.41	17460.40
684.55	17369.12
684.68	17413.59
684.82	17334.01
684.96	17572.74
685.09	17336.35
685.23	16798.02
685.37	17053.14
685.50	17060.16
685.64	17282.52
685.78	17193.58
685.91	17376.14
686.05	17095.27
686.19	16879.94
686.32	17137.40
686.46	16683.34
686.60	16711.42
686.73	16636.53
686.87	16498.44
687.01	16592.06
687.14	16383.75
687.28	16304.17
687.42	16020.97
687.55	16493.76
687.69	16313.53
687.82	16306.51
687.96	16152.04
688.10	16175.44
688.23	16137.99
688.37	15962.45
688.50	15946.07
688.64	15967.13
688.78	16072.46
688.91	15840.75
689.05	15819.68
689.18	15772.87
689.32	15300.08
689.46	15447.54
689.59	15590.31
689.73	15693.29
689.86	15321.15
690.00	15367.96
690.13	15236.89
690.27	15440.51
690.41	15227.53
690.54	15035.60
690.68	15145.61
690.81	15096.46
690.95	14965.39
691.08	15262.63
691.22	15087.09
691.35	15044.96
691.49	14913.89
691.62	14668.14
691.76	14518.34
691.89	14867.08
692.03	14583.88
692.16	14157.90
692.30	14492.60
692.43	14342.80
692.57	14389.61
692.70	14092.37
692.84	14274.93
692.97	13820.86
693.11	14150.88
693.24	13996.40
693.38	14204.71
693.51	13940.23
693.65	14143.86
693.78	14295.99
693.92	13996.40
694.05	13713.20
694.19	13764.69
694.32	13724.90
694.45	13678.09
694.59	13547.02
694.72	13327.01
694.86	13462.76
694.99	13596.17
695.13	13355.10
695.26	13413.61
695.39	13160.83
695.53	13188.92
695.66	13202.96
695.80	13029.76
695.93	13331.69
696.07	13195.94
696.20	13114.02
696.33	13034.44
696.47	12882.31
696.60	12716.13
696.73	12762.94
696.87	12996.99
697.00	12734.85
697.14	12456.33
697.27	12334.62
697.40	12479.74
697.54	12198.87
697.67	12315.90
697.80	12259.73
697.94	12222.28
698.07	12217.60
698.21	12226.96
698.34	12269.09
698.47	12201.21
698.61	12121.63
698.74	12053.76
698.87	12044.40
699.01	11927.37
699.14	11866.52
699.27	11885.24
699.40	11768.21
699.54	11613.74
699.67	11524.80
699.80	11508.41
699.94	11440.54
700.07	11386.71
700.20	11358.62
700.34	11190.10
700.47	11389.05
700.60	11353.94
700.73	11295.43
700.87	11220.53
701.00	11382.03
701.13	11272.02
701.26	11239.25
701.40	11276.70
701.53	11030.94
701.66	11178.40
701.79	11089.46
701.93	11023.92
702.06	10890.51
702.19	10642.42
702.32	10752.42
702.46	10389.64
702.59	10485.60
702.72	10560.50
702.85	10471.56
702.99	10494.96
703.12	10422.41
703.25	10274.95
703.38	10333.47
703.51	10410.70
703.65	10015.15
703.78	10195.37
703.91	10281.97
704.04	10237.50
704.17	10228.14
704.31	10218.78
704.44	9963.66
704.57	9863.02
704.70	9951.96
704.83	9781.10
704.96	9844.29
705.10	9774.08
705.23	9415.98
>>>>>End Processed Spectral Data<<<<<
