SpectraSuite Data File
++++++++++++++++++++++++++++++++++++
Date: Fri Oct 18 13:58:31 GMT-05:00 2013
User: bianchi
Dark Spectrum Present: No
Reference Spectrum Present: No
Number of Sampled Component Spectra: 1
Spectrometers: USB2+H05261
Integration Time (usec): 50000 (USB2+H05261)
Spectra Averaged: 1 (USB2+H05261)
Boxcar Smoothing: 0 (USB2+H05261)
Correct for Electrical Dark: No (USB2+H05261)
Strobe/Lamp Enabled: No (USB2+H05261)
Correct for Detector Non-linearity: No (USB2+H05261)
Correct for Stray Light: No (USB2+H05261)
Number of Pixels in Processed Spectrum: 2048
>>>>>Begin Processed Spectral Data<<<<<
365.73	0.00
365.92	0.00
366.12	0.00
366.32	0.00
366.52	0.00
366.72	0.00
366.91	0.00
367.11	0.00
367.31	0.00
367.51	0.00
367.70	0.00
367.90	0.00
368.10	0.00
368.30	0.00
368.49	0.00
368.69	0.00
368.89	0.00
369.09	0.00
369.28	0.00
369.48	0.00
369.68	0.00
369.87	0.00
370.07	0.00
370.27	0.00
370.47	0.00
370.66	56.17
370.86	133.41
371.06	117.03
371.25	142.77
371.45	163.84
371.65	86.60
371.84	166.18
372.04	273.84
372.24	205.97
372.44	229.37
372.63	131.07
372.83	229.37
373.03	203.63
373.22	140.43
373.42	227.03
373.62	205.97
373.81	220.01
374.01	250.44
374.21	259.80
374.40	243.42
374.60	210.65
374.79	224.69
374.99	245.76
375.19	203.63
375.38	184.90
375.58	278.52
375.78	269.16
375.97	266.82
376.17	266.82
376.37	224.69
376.56	266.82
376.76	301.93
376.95	259.80
377.15	269.16
377.35	306.61
377.54	290.23
377.74	299.59
377.93	227.03
378.13	198.95
378.33	292.57
378.52	292.57
378.72	330.02
378.91	287.89
379.11	283.20
379.31	224.69
379.50	210.65
379.70	318.31
379.89	306.61
380.09	255.12
380.28	348.74
380.48	252.78
380.68	311.29
380.87	320.65
381.07	278.52
381.26	341.72
381.46	266.82
381.65	409.59
381.85	294.91
382.04	339.38
382.24	266.82
382.43	241.08
382.63	273.84
382.83	290.23
383.02	388.53
383.22	383.85
383.41	325.33
383.61	383.85
383.80	351.08
384.00	402.57
384.19	355.76
384.39	383.85
384.58	369.80
384.78	388.53
384.97	358.10
385.17	348.74
385.36	428.32
385.56	465.77
385.75	367.46
385.95	376.83
386.14	344.06
386.34	353.42
386.53	369.80
386.72	416.62
386.92	407.25
387.11	308.95
387.31	409.59
387.50	376.83
387.70	449.38
387.89	489.17
388.09	430.66
388.28	416.62
388.48	447.04
388.67	435.34
388.86	449.38
389.06	421.30
389.25	393.21
389.45	554.71
389.64	435.34
389.84	444.70
390.03	451.72
390.22	500.87
390.42	414.27
390.61	451.72
390.81	531.30
391.00	540.66
391.19	507.90
391.39	484.49
391.58	498.53
391.78	547.69
391.97	440.02
392.16	418.96
392.36	557.05
392.55	587.47
392.75	550.03
392.94	489.17
393.13	587.47
393.33	524.28
393.52	526.62
393.71	566.41
393.91	463.43
394.10	552.37
394.29	575.77
394.49	599.18
394.68	606.20
394.88	613.22
395.07	543.00
395.26	500.87
395.46	564.07
395.65	603.86
395.84	669.39
396.04	678.76
396.23	613.22
396.42	603.86
396.62	601.52
396.81	678.76
397.00	610.88
397.19	697.48
397.39	627.26
397.58	664.71
397.77	648.33
397.97	655.35
398.16	645.99
398.35	697.48
398.55	758.33
398.74	695.14
398.93	765.36
399.12	704.50
399.32	713.86
399.51	634.29
399.70	676.41
399.90	631.94
400.09	718.54
400.28	772.38
400.47	763.01
400.67	849.61
400.86	695.14
401.05	784.08
401.24	784.08
401.44	755.99
401.63	727.91
401.82	866.00
402.01	791.10
402.21	807.48
402.40	781.74
402.59	807.48
402.78	823.87
402.97	725.57
403.17	931.53
403.36	940.90
403.55	940.90
403.74	851.96
403.93	922.17
404.13	933.87
404.32	931.53
404.51	854.30
404.70	912.81
404.89	887.06
405.09	924.51
405.28	887.06
405.47	983.02
405.66	910.47
405.85	964.30
406.05	966.64
406.24	910.47
406.43	1004.09
406.62	1008.77
406.81	1109.41
407.00	1055.58
407.20	1013.45
407.39	922.17
407.58	1107.07
407.77	1008.77
407.96	1025.15
408.15	999.41
408.34	1011.11
408.54	1097.71
408.73	1093.03
408.92	1086.01
409.11	1100.05
409.30	1118.78
409.49	1128.14
409.68	1111.75
409.87	1081.33
410.07	1217.08
410.26	1259.21
410.45	1167.93
410.64	1170.27
410.83	1186.65
411.02	1308.36
411.21	1228.78
411.40	1210.06
411.59	1224.10
411.78	1273.25
411.98	1240.48
412.17	1205.38
412.36	1273.25
412.55	1275.59
412.74	1390.28
412.93	1366.87
413.12	1263.89
413.31	1397.30
413.50	1303.68
413.69	1378.58
413.88	1385.60
414.07	1432.41
414.26	1430.07
414.45	1432.41
414.64	1448.79
414.83	1509.65
415.02	1558.80
415.22	1603.27
415.41	1530.71
415.60	1476.88
415.79	1589.22
415.98	1563.48
416.17	1584.54
416.36	1500.28
416.55	1519.01
416.74	1500.28
416.93	1626.67
417.12	1652.42
417.31	1666.46
417.50	1568.16
417.69	1720.29
417.88	1750.72
418.07	1699.23
418.26	1769.44
418.45	1760.08
418.64	1802.21
418.83	1729.66
419.02	1757.74
419.21	1809.23
419.39	1760.08
419.58	1724.97
419.77	1802.21
419.96	1851.36
420.15	1842.00
420.34	1750.72
420.53	1823.28
420.72	1851.36
420.91	1818.60
421.10	1867.75
421.29	1970.73
421.48	1926.26
421.67	1895.83
421.86	1996.48
422.05	1935.62
422.24	1921.58
422.43	1923.92
422.61	1935.62
422.80	1952.01
422.99	1919.24
423.18	1893.49
423.37	1914.56
423.56	1870.09
423.75	1942.64
423.94	1984.77
424.13	1830.30
424.32	1919.24
424.50	1977.75
424.69	2054.99
424.88	2092.44
425.07	1919.24
425.26	1827.96
425.45	1970.73
425.64	2085.42
425.83	1994.14
426.01	2040.95
426.20	2031.58
426.39	2012.86
426.58	1996.48
426.77	2001.16
426.96	2057.33
427.15	2003.50
427.33	1963.71
427.52	2050.31
427.71	2101.80
427.90	2092.44
428.09	2127.55
428.28	2146.27
428.46	2099.46
428.65	2176.70
428.84	2169.68
429.03	2218.83
429.22	2169.68
429.40	2310.11
429.59	2256.28
429.78	2153.29
429.97	2209.47
430.16	2272.66
430.34	2193.08
430.53	2359.26
430.72	2296.07
430.91	2286.70
431.10	2307.77
431.28	2406.07
431.47	2354.58
431.66	2399.05
431.85	2340.54
432.03	2399.05
432.22	2380.32
432.41	2380.32
432.60	2342.88
432.79	2469.27
432.97	2443.52
433.16	2441.18
433.35	2434.16
433.54	2462.24
433.72	2574.59
433.91	2502.03
434.10	2487.99
434.28	2459.90
434.47	2487.99
434.66	2616.72
434.85	2583.95
435.03	2413.09
435.22	2574.59
435.41	2607.36
435.59	2509.05
435.78	2502.03
435.97	2668.21
436.16	2555.86
436.34	2602.68
436.53	2534.80
436.72	2670.55
436.90	2609.70
437.09	2595.65
437.28	2656.51
437.46	2693.96
437.65	2745.45
437.84	2726.72
438.02	2733.75
438.21	2775.88
438.40	2621.40
438.58	2890.56
438.77	2813.32
438.96	2888.22
439.14	2916.31
439.33	2867.16
439.52	2963.12
439.70	3002.91
439.89	2991.20
440.08	2930.35
440.26	3066.10
440.45	3059.08
440.63	3096.53
440.82	3068.44
441.01	3054.40
441.19	3066.10
441.38	3190.15
441.57	3143.34
441.75	3234.62
441.94	3283.77
442.12	3288.45
442.31	3262.71
442.50	3169.09
442.68	3166.74
442.87	3393.78
443.05	3164.40
443.24	3370.37
443.43	3375.05
443.61	3389.10
443.80	3506.12
443.98	3241.64
444.17	3239.30
444.35	3424.20
444.54	3419.52
444.73	3403.14
444.91	3398.46
445.10	3389.10
445.28	3328.24
445.47	3405.48
445.65	3290.79
445.84	3384.41
446.02	3559.95
446.21	3363.35
446.39	3400.80
446.58	3538.89
446.77	3461.65
446.95	3286.11
447.14	3335.26
447.32	3475.70
447.51	3595.06
447.69	3384.41
447.88	3346.97
448.06	3405.48
448.25	3440.59
448.43	3428.88
448.62	3445.27
448.80	3435.91
448.99	3330.58
449.17	3461.65
449.36	3449.95
449.54	3585.70
449.73	3538.89
449.91	3684.00
450.10	3667.62
450.28	3758.90
450.46	3693.37
450.65	3782.31
450.83	3665.28
451.02	3698.05
451.20	3712.09
451.39	3735.50
451.57	3623.15
451.76	3552.93
451.94	3754.22
452.13	3845.50
452.31	3714.43
452.49	3889.97
452.68	3808.05
452.86	3688.68
453.05	4009.34
453.23	3779.97
453.42	3852.52
453.60	3899.33
453.78	3857.20
453.97	3929.76
454.15	3852.52
454.34	3810.39
454.52	4058.49
454.70	3791.67
454.89	3836.14
455.07	3859.54
455.26	3946.14
455.44	4074.87
455.62	4002.32
455.81	3927.42
455.99	4081.89
456.17	3983.59
456.36	4114.66
456.54	4175.52
456.73	4035.08
456.91	4278.50
457.09	4224.67
457.28	4386.16
457.46	4215.30
457.64	4299.56
457.83	4367.44
458.01	4339.35
458.19	4355.74
458.38	4318.29
458.56	4351.06
458.74	4554.68
458.93	4367.44
459.11	4362.76
459.29	4362.76
459.48	4566.39
459.66	4510.21
459.84	4386.16
460.03	4596.81
460.21	4594.47
460.39	4393.19
460.57	4329.99
460.76	4603.83
460.94	4428.29
461.12	4627.24
461.31	4470.42
461.49	4561.70
461.67	4610.86
461.85	4650.64
462.04	4636.60
462.22	4585.11
462.40	4744.27
462.59	4620.22
462.77	4734.90
462.95	4758.31
463.13	4706.82
463.32	4751.29
463.50	4681.07
463.68	4758.31
463.86	4781.71
464.05	4706.82
464.23	4713.84
464.41	4889.38
464.59	4648.30
464.78	4828.53
464.96	4795.76
465.14	4840.23
465.32	4870.65
465.50	4889.38
465.69	4854.27
465.87	4950.23
466.05	4908.10
466.23	4889.38
466.41	5008.75
466.60	5043.85
466.78	4849.59
466.96	4863.63
467.14	4968.96
467.32	5118.75
467.51	5027.47
467.69	4929.17
467.87	5064.92
468.05	5032.15
468.23	4994.70
468.41	5034.49
468.60	5085.98
468.78	5153.86
468.96	5179.61
469.14	5158.54
469.32	5114.07
469.50	4966.62
469.69	5149.18
469.87	5334.08
470.05	5331.74
470.23	5380.89
470.41	5277.91
470.59	5481.53
470.77	5282.59
470.95	5263.86
471.14	5448.77
471.32	5516.64
471.50	5521.32
471.68	5518.98
471.86	5455.79
472.04	5584.52
472.22	5743.67
472.40	5523.66
472.58	5804.53
472.77	5799.85
472.95	5593.88
473.13	5881.77
473.31	5612.60
473.49	5710.91
473.67	5774.10
473.85	5785.80
474.03	5874.74
474.21	5778.78
474.39	5870.06
474.57	5909.85
474.75	6061.99
474.93	6129.86
475.12	6232.85
475.30	6132.20
475.48	6162.63
475.66	6188.38
475.84	6118.16
476.02	6286.68
476.20	6284.34
476.38	6429.45
476.56	6424.77
476.74	6366.26
476.92	6314.77
477.10	6384.98
477.28	6478.60
477.46	6644.78
477.64	6567.54
477.82	6579.25
478.00	6752.45
478.18	6810.96
478.36	6825.00
478.54	6918.62
478.72	7007.56
478.90	6946.71
479.08	7150.34
479.26	7075.44
479.44	7183.10
479.62	7314.17
479.80	7332.90
479.98	7246.30
480.16	7412.48
480.34	7351.62
480.52	7524.82
480.70	7503.76
480.88	7489.71
481.06	7475.67
481.24	7506.10
481.41	7555.25
481.59	7803.35
481.77	8006.97
481.95	7864.20
482.13	8180.17
482.31	7875.90
482.49	8194.22
482.67	7971.86
482.85	8205.92
483.03	8332.31
483.21	8444.65
483.39	8496.14
483.57	8418.91
483.74	8329.97
483.92	8542.96
484.10	8439.97
484.28	8720.84
484.46	9032.13
484.64	8931.48
484.82	8931.48
485.00	8915.10
485.18	9078.94
485.35	9121.07
485.53	9291.93
485.71	9200.65
485.89	9530.66
486.07	9451.08
486.25	9547.05
486.43	9427.68
486.61	9537.68
486.78	9699.18
486.96	9706.20
487.14	10068.98
487.32	10064.30
487.50	10134.52
487.68	10092.39
487.85	10125.16
488.03	10289.00
488.21	10349.85
488.39	10537.09
488.57	10424.75
488.75	10431.77
488.92	10712.63
489.10	10686.89
489.28	10902.22
489.46	10829.66
489.64	10930.30
489.81	10984.13
489.99	11253.30
490.17	11129.25
490.35	11316.49
490.53	11353.94
490.70	11225.21
490.88	11290.74
491.06	11583.31
491.24	11396.07
491.41	11595.01
491.59	11953.12
491.77	11857.15
491.95	11791.62
492.13	12278.45
492.30	12030.35
492.48	12250.36
492.66	12255.04
492.84	12215.26
493.01	12320.58
493.19	12456.33
493.37	12400.16
493.54	12589.74
493.72	12423.56
493.90	12491.44
494.08	12793.37
494.25	12828.48
494.43	12915.08
494.61	12910.40
494.79	13085.94
494.96	13001.68
495.14	13324.67
495.32	13151.47
495.49	13275.52
495.67	13504.89
495.85	13558.72
496.02	13795.12
496.20	13778.73
496.38	13834.91
496.55	13762.35
496.73	14057.26
496.91	13755.33
497.09	14232.80
497.26	13907.46
497.44	13860.65
497.62	14052.58
497.79	14478.55
497.97	14193.01
498.14	14565.15
498.32	14647.07
498.50	14394.29
498.67	14714.95
498.85	14710.27
499.03	14562.81
499.20	14918.57
499.38	14855.38
499.56	15105.82
499.73	14963.04
499.91	15400.72
500.08	15241.57
500.26	15021.56
500.44	14967.73
500.61	15133.90
500.79	15115.18
500.97	15712.02
501.14	15810.32
501.32	15740.10
501.49	15454.56
501.67	15723.72
501.84	15576.27
502.02	15634.78
502.20	15737.76
502.37	15639.46
502.55	15929.69
502.72	15953.09
502.90	16046.71
503.07	15749.46
503.25	15999.90
503.43	15997.56
503.60	16201.19
503.78	16266.72
503.95	16407.16
504.13	16116.93
504.30	16149.70
504.48	16484.39
504.65	16313.53
504.83	16702.06
505.01	16929.09
505.18	16688.02
505.36	16711.42
505.53	16627.17
505.71	16685.68
505.88	16961.86
506.06	17062.51
506.23	17032.08
506.41	17132.72
506.58	17165.49
506.76	16940.80
506.93	17413.59
507.11	17046.12
507.28	17102.29
507.46	17343.37
507.63	17439.33
507.81	17584.44
507.98	17427.63
508.16	17263.79
508.33	17472.10
508.50	17610.19
508.68	17308.26
508.85	17905.10
509.03	17827.86
509.20	17778.71
509.38	18050.21
509.55	17898.08
509.73	18054.89
509.90	17841.90
510.08	17694.45
510.25	17577.42
510.42	18312.35
510.60	18405.97
510.77	18644.71
510.95	18150.85
511.12	18171.92
511.30	18230.43
511.47	18485.55
511.64	18576.83
511.82	18705.56
511.99	18792.16
512.17	18747.69
512.34	18773.44
512.51	18892.80
512.69	18808.54
512.86	18710.24
513.04	19101.11
513.21	19108.13
513.38	19073.03
513.56	19080.05
513.73	19342.19
513.90	19325.80
514.08	19330.48
514.25	19112.81
514.43	19384.32
514.60	19391.34
514.77	19307.08
514.95	19786.89
515.12	19880.51
515.29	19580.92
515.47	19779.87
515.64	19506.02
515.81	19777.53
515.99	19676.88
516.16	20203.50
516.33	19995.20
516.51	19922.64
516.68	19969.45
516.85	19861.79
517.03	20114.56
517.20	20051.37
517.37	19957.75
517.54	20126.27
517.72	20395.43
517.89	20236.27
518.06	20301.81
518.24	20383.73
518.41	20601.40
518.58	20463.30
518.75	20723.10
518.93	20496.07
519.10	20781.62
519.27	20573.31
519.45	20538.20
519.62	21029.71
519.79	20519.48
519.96	20357.98
520.14	21050.78
520.31	20709.06
520.48	20809.70
520.65	20809.70
520.83	21060.14
521.00	21034.39
521.17	20783.96
521.34	21048.44
521.52	21652.30
521.69	21303.56
521.86	21343.35
522.03	21113.97
522.20	21240.36
522.38	21441.65
522.55	21598.46
522.72	21458.03
522.89	21507.18
523.07	21671.02
523.24	21603.14
523.41	21998.70
523.58	21582.08
523.75	21729.53
523.92	21570.38
524.10	21418.24
524.27	21685.06
524.44	21811.45
524.61	22178.92
524.78	21706.13
524.96	22054.87
525.13	22204.66
525.30	22382.54
525.47	22448.08
525.64	22031.46
525.81	22560.42
525.98	22515.95
526.16	22565.10
526.33	22768.73
526.50	23101.09
526.67	22340.41
526.84	22787.46
527.01	22377.86
527.18	22431.69
527.36	22434.03
527.53	22939.59
527.70	22923.21
527.87	22817.88
528.04	22768.73
528.21	22745.33
528.38	22855.33
528.55	22595.53
528.72	23087.04
528.89	23204.07
529.07	22955.97
529.24	22785.12
529.41	23110.45
529.58	23077.68
529.75	23180.67
529.92	22958.31
530.09	23021.51
530.26	23346.84
530.43	23300.03
530.60	23379.61
530.77	23185.35
530.94	23517.70
531.11	23356.21
531.28	22836.61
531.46	23377.27
531.63	23040.23
531.80	23583.24
531.97	23484.94
532.14	23931.98
532.31	23548.13
532.48	23782.18
532.65	23463.87
532.82	23269.61
532.99	24081.77
533.16	23515.36
533.33	24144.97
533.50	23847.72
533.67	23749.42
533.84	23730.69
534.01	24063.05
534.18	23796.23
534.35	23964.75
534.52	23983.47
534.69	24641.16
534.86	24175.39
535.03	24287.74
535.20	24182.42
535.37	24315.83
535.54	24437.53
535.71	24133.26
535.88	24013.90
536.05	24470.30
536.22	24505.41
536.38	24547.54
536.55	24044.32
536.72	24687.97
536.89	24126.24
537.06	24575.62
537.23	24615.41
537.40	24051.34
537.57	24685.63
537.74	25050.75
537.91	25212.25
538.08	24959.47
538.25	24367.32
538.42	24767.55
538.59	24720.74
538.75	24760.53
538.92	24947.77
539.09	24854.15
539.26	24851.81
539.43	25088.20
539.60	25015.65
539.77	24994.58
539.94	25366.73
540.11	24964.15
540.28	25071.82
540.44	25230.98
540.61	25095.22
540.78	25188.85
540.95	25207.57
541.12	24971.18
541.29	25394.81
541.46	24900.96
541.62	25359.70
541.79	25544.61
541.96	25294.17
542.13	25125.65
542.30	25296.51
542.47	25488.43
542.63	25357.36
542.80	25612.48
542.97	25951.86
543.14	25816.11
543.31	25624.18
543.48	25757.60
543.64	26026.76
543.81	26195.28
543.98	25862.92
544.15	26218.68
544.32	26202.30
544.48	26375.50
544.65	26005.69
544.82	25989.31
544.99	26040.80
545.16	26008.03
545.32	25979.95
545.49	26167.19
545.66	26232.72
545.83	26239.75
546.00	26223.36
546.16	26408.26
546.33	25991.65
546.50	25879.30
546.67	26150.81
546.83	26209.32
547.00	26429.33
547.17	26422.31
547.34	26792.11
547.50	26551.04
547.67	26471.46
547.84	26913.82
548.00	26539.33
548.17	26656.36
548.34	26417.63
548.51	26658.70
548.67	26712.53
548.84	26810.84
549.01	26789.77
549.18	26771.05
549.34	26864.67
549.51	26602.53
549.68	26771.05
549.84	26492.52
550.01	26693.81
550.18	26778.07
550.34	26867.01
550.51	27410.01
550.68	27124.47
550.84	26705.51
551.01	27030.85
551.18	26679.77
551.34	26787.43
551.51	27227.45
551.68	27545.76
551.84	27222.77
552.01	27199.37
552.18	27559.81
552.34	27201.71
552.51	27232.13
552.68	27185.32
552.84	27370.22
553.01	27440.44
553.18	26918.50
553.34	27414.69
553.51	27108.08
553.67	27545.76
553.84	27784.50
554.01	27615.98
554.17	27674.49
554.34	27573.85
554.51	27395.97
554.67	27679.18
554.84	27515.34
555.00	27697.90
555.17	27578.53
555.33	27613.64
555.50	27660.45
555.67	27185.32
555.83	27379.59
556.00	27363.20
556.16	27775.14
556.33	27819.61
556.50	27964.72
556.66	27969.40
556.83	27733.01
556.99	27871.10
557.16	27974.08
557.32	28077.07
557.49	27772.80
557.65	27903.87
557.82	27758.75
557.98	27882.80
558.15	27913.23
558.32	28011.53
558.48	27995.15
558.65	27960.04
558.81	27990.47
558.98	28107.49
559.14	27882.80
559.31	28245.58
559.47	27704.92
559.64	28151.96
559.80	28173.03
559.97	28238.56
560.13	27955.36
560.30	27971.74
560.46	28027.92
560.63	28280.69
560.79	28100.47
560.96	28004.51
561.12	28388.36
561.29	28322.82
561.45	28283.03
561.61	28329.84
561.78	28357.93
561.94	28393.04
562.11	28233.88
562.27	28287.71
562.44	28664.54
562.60	28627.09
562.77	28327.50
562.93	28287.71
563.10	28662.20
563.26	28184.73
563.42	28549.85
563.59	28437.51
563.75	28727.74
563.92	28479.64
564.08	28292.40
564.24	28439.85
564.41	28414.10
564.57	28765.18
564.74	28505.38
564.90	28634.11
565.07	28540.49
565.23	28449.21
565.39	28510.07
565.56	28879.87
565.72	28517.09
565.88	28596.67
566.05	28669.22
566.21	28517.09
566.38	28395.38
566.54	28470.28
566.70	29008.60
566.87	28877.53
567.03	28889.23
567.19	28748.80
567.36	29062.43
567.52	28673.90
567.68	28811.99
567.85	28685.61
568.01	28788.59
568.17	28383.68
568.34	29252.02
568.50	28917.32
568.66	28580.28
568.83	28645.82
568.99	28566.24
569.15	28783.91
569.32	29029.66
569.48	28402.40
569.64	29039.03
569.81	28671.56
569.97	28767.52
570.13	28795.61
570.30	28666.88
570.46	29146.69
570.62	28884.55
570.78	28889.23
570.95	28905.62
571.11	28699.65
571.27	28659.86
571.43	28765.18
571.60	28795.61
571.76	28826.04
571.92	28727.74
572.09	28821.36
572.25	28973.49
572.41	28889.23
572.57	29010.94
572.74	29390.11
572.90	28849.44
573.06	28849.44
573.22	28999.24
573.38	28992.22
573.55	28966.47
573.71	29226.27
573.87	29331.59
574.03	29244.99
574.20	29188.82
574.36	29130.31
574.52	29214.57
574.68	28882.21
574.84	28933.70
575.01	29326.91
575.17	29282.44
575.33	29160.73
575.49	29296.49
575.65	29041.37
575.82	28882.21
575.98	29345.64
576.14	29383.09
576.30	28912.64
576.46	29188.82
576.62	28989.88
576.79	29085.84
576.95	29326.91
577.11	28989.88
577.27	29099.88
577.43	29420.53
577.59	28863.49
577.75	29137.33
577.92	28922.00
578.08	28800.29
578.24	28671.56
578.40	29212.23
578.56	29277.76
578.72	29116.26
578.88	29439.26
579.04	29476.71
579.21	28912.64
579.37	29247.33
579.53	29308.19
579.69	29127.97
579.85	29441.60
580.01	29436.92
580.17	29081.16
580.33	29118.60
580.49	29244.99
580.65	29275.42
580.82	29230.95
580.98	28985.19
581.14	28968.81
581.30	29350.32
581.46	28978.17
581.62	29195.84
581.78	29312.87
581.94	29617.14
582.10	29174.78
582.26	29319.89
582.42	29275.42
582.58	29188.82
582.74	29156.05
582.90	29347.98
583.06	29184.14
583.22	29174.78
583.38	29223.93
583.54	29525.86
583.70	29425.22
583.86	29151.37
584.02	29104.56
584.18	29605.44
584.34	29502.45
584.50	29490.75
584.66	29689.70
584.82	29174.78
584.98	29244.99
585.14	29024.98
585.30	29343.30
585.46	29406.49
585.62	28954.77
585.78	29535.22
585.94	29319.89
586.10	29280.10
586.26	29404.15
586.42	29408.83
586.58	29532.88
586.74	29125.63
586.90	29401.81
587.06	29317.55
587.22	29308.19
587.38	29619.48
587.54	29570.33
587.70	29425.22
587.86	29656.93
588.02	29905.02
588.18	29649.91
588.34	29401.81
588.49	29273.08
588.65	29336.27
588.81	29123.29
588.97	29259.04
589.13	29472.03
589.29	29525.86
589.45	29790.34
589.61	29699.06
589.77	29982.26
589.93	30047.80
590.08	29280.10
590.24	29661.61
590.40	29560.97
590.56	29680.33
590.72	29682.67
590.88	29839.49
591.04	29263.72
591.20	29923.75
591.35	29795.02
591.51	29862.90
591.67	29773.95
591.83	30045.46
591.99	29771.61
592.15	29635.86
592.31	29776.30
592.46	29926.09
592.62	29734.17
592.78	29827.79
592.94	29825.45
593.10	29631.18
593.26	29867.58
593.41	29757.57
593.57	29839.49
593.73	30127.38
593.89	30087.59
594.05	29785.66
594.20	29560.97
594.36	29617.14
594.52	29411.17
594.68	29858.21
594.84	29443.94
594.99	29799.70
595.15	29642.88
595.31	29977.58
595.47	30129.72
595.62	29975.24
595.78	29855.87
595.94	29982.26
596.10	29848.85
596.25	29659.27
596.41	29879.28
596.57	29614.80
596.73	29795.02
596.88	29649.91
597.04	29834.81
597.20	29898.00
597.36	29965.88
597.51	29874.60
597.67	29612.46
597.83	29921.41
597.99	29869.92
598.14	29486.07
598.30	30122.69
598.46	29839.49
598.61	30029.07
598.77	29371.38
598.93	30047.80
599.09	30221.00
599.24	30146.10
599.40	30354.41
599.56	30087.59
599.71	29998.65
599.87	30082.91
600.03	30267.81
600.18	29865.24
600.34	29780.98
600.50	29565.65
600.65	29713.10
600.81	30110.99
600.97	29830.13
601.12	30244.40
601.28	29970.56
601.44	30139.08
601.59	30054.82
601.75	29879.28
601.91	30043.12
602.06	29804.38
602.22	29869.92
602.37	29930.77
602.53	30036.09
602.69	30270.15
602.84	29759.91
603.00	29961.20
603.16	29968.22
603.31	30511.22
603.47	30204.61
603.62	29729.48
603.78	30005.67
603.94	29792.68
604.09	29659.27
604.25	29682.67
604.40	29598.41
604.56	30213.98
604.71	30038.44
604.87	29879.28
605.03	30143.76
605.18	29986.94
605.34	29729.48
605.49	29827.79
605.65	30043.12
605.80	29373.72
605.96	29525.86
606.12	29785.66
606.27	29518.84
606.43	29675.65
606.58	29900.34
606.74	29762.25
606.89	29710.76
607.05	29699.06
607.20	29670.97
607.36	29434.58
607.51	29495.43
607.67	29539.90
607.82	29584.37
607.98	29429.90
608.13	29649.91
608.29	29778.64
608.44	29731.83
608.60	29706.08
608.75	29778.64
608.91	30059.50
609.06	29776.30
609.22	29696.72
609.37	29319.89
609.53	29628.84
609.68	29675.65
609.84	29441.60
609.99	29986.94
610.15	29677.99
610.30	29392.45
610.46	29546.92
610.61	29532.88
610.76	29378.40
610.92	29874.60
611.07	29647.57
611.23	29654.59
611.38	29172.44
611.54	29284.78
611.69	29514.16
611.84	29177.12
612.00	29017.96
612.15	29556.28
612.31	29427.56
612.46	29441.60
612.62	29598.41
612.77	29645.23
612.92	29305.85
613.08	29315.21
613.23	29046.05
613.39	29240.31
613.54	28868.17
613.69	29125.63
613.85	29427.56
614.00	29418.19
614.15	29273.08
614.31	29081.16
614.46	29261.38
614.62	29095.20
614.77	29401.81
614.92	29029.66
615.08	29266.06
615.23	29523.52
615.38	28975.83
615.54	29153.71
615.69	28999.24
615.84	28978.17
616.00	29001.58
616.15	29221.59
616.30	29160.73
616.46	29493.09
616.61	29046.05
616.76	29757.57
616.92	29214.57
617.07	29181.80
617.22	28783.91
617.37	28872.85
617.53	29057.75
617.68	28987.53
617.83	29123.29
617.99	29071.79
618.14	28744.12
618.29	28943.06
618.45	29397.13
618.60	28961.79
618.75	28992.22
618.90	29048.39
619.06	29015.62
619.21	28980.51
619.36	28912.64
619.51	28788.59
619.67	28154.30
619.82	28622.41
619.97	28687.95
620.12	28166.01
620.28	28819.02
620.43	28821.36
620.58	28842.42
620.73	28725.39
620.89	28823.70
621.04	28755.82
621.19	28730.08
621.34	28458.57
621.49	28205.80
621.65	28648.16
621.80	28414.10
621.95	28456.23
622.10	28666.88
622.25	28479.64
622.41	28247.93
622.56	28409.42
622.71	28470.28
622.86	28400.06
623.01	28449.21
623.16	28238.56
623.32	28343.89
623.47	28395.38
623.62	28259.63
623.77	28147.28
623.92	28287.71
624.07	28198.77
624.23	28573.26
624.38	28334.53
624.53	28463.25
624.68	28458.57
624.83	28517.09
624.98	28575.60
625.13	28622.41
625.29	28170.69
625.44	28397.72
625.59	28229.20
625.74	28135.58
625.89	28041.96
626.04	28095.79
626.19	27866.42
626.34	28009.19
626.49	28116.86
626.65	27929.61
626.80	28149.62
626.95	27910.89
627.10	28060.68
627.25	27892.16
627.40	27931.95
627.55	27489.59
627.70	27592.58
627.85	27604.28
628.00	27786.84
628.15	27805.56
628.30	27744.71
628.45	28168.35
628.60	27899.19
628.76	27894.50
628.91	27735.35
629.06	27821.95
629.21	27709.60
629.36	27545.76
629.51	27789.18
629.66	27623.00
629.81	27278.94
629.96	27428.74
630.11	27592.58
630.26	27445.12
630.41	27353.84
630.56	27283.62
630.71	27405.33
630.86	27587.89
631.01	27524.70
631.16	27356.18
631.31	27442.78
631.46	27014.46
631.61	27548.11
631.76	27812.59
631.91	27330.44
632.06	27325.75
632.21	27529.38
632.36	27524.70
632.51	27061.27
632.66	27208.73
632.81	27211.07
632.96	27461.51
633.10	27349.16
633.25	27381.93
633.40	27248.52
633.55	27421.72
633.70	27269.58
633.85	26993.40
634.00	27016.80
634.15	27070.64
634.30	27192.34
634.45	27190.00
634.60	26848.29
634.75	27002.76
634.90	26845.94
635.05	27346.82
635.19	27239.15
635.34	27143.19
635.49	27016.80
635.64	27417.04
635.79	27075.32
635.94	26965.31
636.09	27040.21
636.24	26918.50
636.39	26946.59
636.53	26829.56
636.68	26459.76
636.83	26998.08
636.98	27012.12
637.13	26614.23
637.28	27044.89
637.43	26803.82
637.57	26639.98
637.72	26712.53
637.87	26661.04
638.02	26733.60
638.17	26831.90
638.32	26616.57
638.46	26647.00
638.61	26536.99
638.76	26249.11
638.91	26628.27
639.06	26731.26
639.20	26902.12
639.35	26307.62
639.50	26462.10
639.65	26703.17
639.80	26780.41
639.94	26551.04
640.09	26569.76
640.24	26265.49
640.39	26335.71
640.54	26160.17
640.68	26239.75
640.83	26305.28
640.98	26019.74
641.13	26363.79
641.27	26768.71
641.42	26211.66
641.57	26473.80
641.72	26197.62
641.86	26724.24
642.01	26326.35
642.16	26284.22
642.31	26174.21
642.45	25879.30
642.60	26235.06
642.75	26094.63
642.90	25881.64
643.04	26195.28
643.19	26319.32
643.34	26167.19
643.48	26223.36
643.63	26066.55
643.78	25844.20
643.93	26129.74
644.07	25961.22
644.22	26031.44
644.37	25881.64
644.51	25867.60
644.66	26080.59
644.81	25692.06
644.95	26089.95
645.10	25741.21
645.25	25792.70
645.39	25818.45
645.54	25937.82
645.69	25764.62
645.83	25617.16
645.98	25848.88
646.13	26026.76
646.27	26108.68
646.42	25769.30
646.57	25453.33
646.71	25722.49
646.86	25755.26
647.00	25825.47
647.15	25509.50
647.30	25813.77
647.44	25642.91
647.59	25769.30
647.74	25785.68
647.88	25479.07
648.03	25366.73
648.17	25472.05
648.32	25668.66
648.47	25942.50
648.61	25497.80
648.76	26038.46
648.90	25706.10
649.05	25769.30
649.20	25544.61
649.34	25708.44
649.49	25497.80
649.63	25125.65
649.78	25652.27
649.92	25413.54
650.07	25727.17
650.21	25446.30
650.36	25504.82
650.51	25483.75
650.65	25481.41
650.80	25132.67
650.94	25490.77
651.09	25233.32
651.23	25242.68
651.38	25111.61
651.52	25142.03
651.67	24802.66
651.81	25546.95
651.96	25076.50
652.10	25476.73
652.25	25214.59
652.39	25254.38
652.54	25436.94
652.68	24964.15
652.83	25348.00
652.97	25455.67
653.12	25296.51
653.26	25095.22
653.41	25027.35
653.55	25010.96
653.70	24975.86
653.84	24797.98
653.99	25025.01
654.13	24952.45
654.27	25067.14
654.42	24767.55
654.56	25165.44
654.71	24898.62
654.85	24896.28
655.00	24849.47
655.14	25151.40
655.29	24369.66
655.43	24744.14
655.57	25170.12
655.72	24676.27
655.86	24819.04
656.01	24542.86
656.15	24460.94
656.30	24367.32
656.44	24758.19
656.58	24664.57
656.73	24474.98
656.87	24624.78
657.01	24484.34
657.16	24622.44
657.30	24762.87
657.45	24725.42
657.59	24584.99
657.73	24493.71
657.88	24395.40
658.02	24797.98
658.16	24465.62
658.31	24217.52
658.45	24236.25
658.60	24327.53
658.74	23983.47
658.88	24339.23
659.03	24044.32
659.17	24245.61
659.31	24269.01
659.46	24025.60
659.60	24423.49
659.74	24421.15
659.89	24144.97
660.03	23934.32
660.17	23892.19
660.32	23826.65
660.46	23770.48
660.60	23941.34
660.74	23704.95
660.89	23964.75
661.03	23721.33
661.17	23967.09
661.32	23929.64
661.46	24002.19
661.60	24142.63
661.74	23452.17
661.89	23934.32
662.03	23648.77
662.17	23571.54
662.31	23744.73
662.46	23840.70
662.60	23688.56
662.74	23697.92
662.88	23447.49
663.03	23269.61
663.17	23267.27
663.31	23227.48
663.45	23421.74
663.60	23089.38
663.74	23295.35
663.88	23288.33
664.02	22981.72
664.17	23412.38
664.31	23236.84
664.45	23185.35
664.59	23293.01
664.73	23040.23
664.88	23239.18
665.02	22890.44
665.16	22951.29
665.30	23051.94
665.44	22852.99
665.59	22487.87
665.73	22841.29
665.87	22726.60
666.01	22644.68
666.15	23206.41
666.29	22710.22
666.44	22270.20
666.58	22810.86
666.72	22822.56
666.86	22888.10
667.00	22918.53
667.14	22621.28
667.28	22717.24
667.43	22391.91
667.57	22742.99
667.71	22511.27
667.85	22499.57
667.99	22225.73
668.13	22464.46
668.27	22401.27
668.41	22403.61
668.56	22462.12
668.70	22204.66
668.84	22462.12
668.98	22277.22
669.12	22270.20
669.26	21902.73
669.40	22153.17
669.54	22185.94
669.68	21991.67
669.82	22097.00
669.96	21898.05
670.10	21633.57
670.25	22054.87
670.39	21958.91
670.53	21956.57
670.67	21647.61
670.81	21837.20
670.95	22127.42
671.09	21586.76
671.23	21947.20
671.37	21869.97
671.51	21678.04
671.65	21673.36
671.79	21371.43
671.93	21640.59
672.07	21572.72
672.21	21205.25
672.35	21212.28
672.49	21039.08
672.63	21191.21
672.77	21064.82
672.91	21397.18
673.05	21387.82
673.19	21085.89
673.33	21280.15
673.47	21106.95
673.61	21113.97
673.75	20680.97
673.89	20943.11
674.03	20987.58
674.17	20638.84
674.31	20908.01
674.45	20744.17
674.59	20407.13
674.73	20922.05
674.87	20634.16
675.01	20524.16
675.15	20397.77
675.29	20273.72
675.43	20453.94
675.56	20475.01
675.70	20170.74
675.84	20381.38
675.98	19665.18
676.12	20224.57
676.26	20336.91
676.40	20056.05
676.54	20182.44
676.68	20360.32
676.82	19630.07
676.96	19850.08
677.10	19751.78
677.23	19674.54
677.37	19506.02
677.51	19854.76
677.65	19674.54
677.79	19351.55
677.93	19536.45
678.07	19417.08
678.21	19349.21
678.34	19527.09
678.48	19274.31
678.62	19325.80
678.76	18909.19
678.90	19023.87
679.04	19089.41
679.18	19227.50
679.31	18766.42
679.45	18946.64
679.59	18630.66
679.73	18806.20
679.87	18441.08
680.00	18860.04
680.14	18642.37
680.28	18527.68
680.42	18398.95
680.56	18780.46
680.70	18616.62
680.83	18656.41
680.97	18420.02
681.11	18387.25
681.25	18377.89
681.39	18298.31
681.52	18115.75
681.66	18312.35
681.80	17839.56
681.94	17975.31
682.07	17982.34
682.21	17874.67
682.35	17668.70
682.49	17893.40
682.62	17668.70
682.76	17612.53
682.90	17507.21
683.04	17619.55
683.17	17738.92
683.31	17476.78
683.45	17612.53
683.59	17259.11
683.72	17270.81
683.86	17226.34
684.00	17167.83
684.13	17298.90
684.27	16968.88
684.41	16835.47
684.55	16905.69
684.68	16566.31
684.82	16437.58
684.96	16992.29
685.09	16821.43
685.23	16472.69
685.37	16690.36
685.50	16891.65
685.64	16636.53
685.78	16636.53
685.91	16521.84
686.05	16339.28
686.19	16423.54
686.32	16287.79
686.46	16320.56
686.60	16119.27
686.73	16060.76
686.87	16025.65
687.01	15817.34
687.14	15950.75
687.28	16032.67
687.42	15887.56
687.55	15812.66
687.69	15726.06
687.82	15868.83
687.96	15637.12
688.10	15742.44
688.23	15517.75
688.37	15688.61
688.50	15653.50
688.64	15442.85
688.78	15374.98
688.91	15414.77
689.05	15477.96
689.18	15260.29
689.32	14941.98
689.46	14986.45
689.59	15173.69
689.73	14967.73
689.86	14796.87
690.00	15082.41
690.13	14953.68
690.27	14642.39
690.41	14899.85
690.54	14724.31
690.68	14672.82
690.81	14611.96
690.95	14611.96
691.08	14857.72
691.22	14604.94
691.35	14429.40
691.49	14548.77
691.62	14122.79
691.76	14326.42
691.89	14310.04
692.03	14101.73
692.16	14143.86
692.30	13937.89
692.43	14188.33
692.57	13720.22
692.70	14031.51
692.84	13799.80
692.97	13605.53
693.11	13701.50
693.24	13722.56
693.38	13661.71
693.51	13752.99
693.65	13764.69
693.78	13598.51
693.92	13378.50
694.05	13221.69
694.19	13355.10
694.32	13284.88
694.45	13167.85
694.59	13111.68
694.72	12847.20
694.86	13041.46
694.99	12964.23
695.13	12842.52
695.26	12823.80
695.39	12695.07
695.53	12957.21
695.66	12692.73
695.80	12779.32
695.93	12636.55
696.07	12692.73
696.20	12760.60
696.33	12608.47
696.47	12631.87
696.60	12365.05
696.73	12353.35
696.87	12512.50
697.00	12336.96
697.14	12203.55
697.27	12016.31
697.40	11885.24
697.54	11969.50
697.67	12002.27
697.80	12173.13
697.94	12035.03
698.07	11653.53
698.21	11775.24
698.34	11707.36
698.47	11707.36
698.61	11714.38
698.74	11800.98
698.87	11728.42
699.01	11510.75
699.14	11651.19
699.27	11321.17
699.40	11480.33
699.54	11496.71
699.67	11126.91
699.80	11435.86
699.94	11166.70
700.07	11250.96
700.20	11021.58
700.34	11014.56
700.47	11080.10
700.60	10942.00
700.73	11028.60
700.87	10874.13
701.00	10714.97
701.13	10944.34
701.26	10647.10
701.40	10855.40
701.53	10712.63
701.66	10787.53
701.79	10499.64
701.93	10686.89
702.06	10483.26
702.19	10438.79
702.32	10148.56
702.46	10438.79
702.59	10377.94
702.72	10235.16
702.85	10345.17
702.99	10127.50
703.12	10413.04
703.25	10076.01
703.38	10228.14
703.51	10160.27
703.65	9923.87
703.78	9982.38
703.91	9937.91
704.04	9921.53
704.17	9930.89
704.31	9743.65
704.44	9954.30
704.57	9619.60
704.70	9603.22
704.83	9736.63
704.96	9425.34
705.10	9558.75
705.23	9343.42
>>>>>End Processed Spectral Data<<<<<
