SpectraSuite Data File
++++++++++++++++++++++++++++++++++++
Date: Fri Oct 18 13:58:37 GMT-05:00 2013
User: bianchi
Dark Spectrum Present: No
Reference Spectrum Present: No
Number of Sampled Component Spectra: 1
Spectrometers: USB2+H05261
Integration Time (usec): 50000 (USB2+H05261)
Spectra Averaged: 1 (USB2+H05261)
Boxcar Smoothing: 0 (USB2+H05261)
Correct for Electrical Dark: No (USB2+H05261)
Strobe/Lamp Enabled: No (USB2+H05261)
Correct for Detector Non-linearity: No (USB2+H05261)
Correct for Stray Light: No (USB2+H05261)
Number of Pixels in Processed Spectrum: 2048
>>>>>Begin Processed Spectral Data<<<<<
365.73	0.00
365.92	0.00
366.12	0.00
366.32	0.00
366.52	0.00
366.72	0.00
366.91	0.00
367.11	0.00
367.31	0.00
367.51	0.00
367.70	0.00
367.90	0.00
368.10	0.00
368.30	0.00
368.49	0.00
368.69	0.00
368.89	0.00
369.09	0.00
369.28	0.00
369.48	0.00
369.68	0.00
369.87	0.00
370.07	0.00
370.27	0.00
370.47	0.00
370.66	79.58
370.86	105.32
371.06	152.13
371.25	152.13
371.45	133.41
371.65	117.03
371.84	124.05
372.04	128.73
372.24	234.05
372.44	175.54
372.63	166.18
372.83	203.63
373.03	135.75
373.22	177.88
373.42	194.26
373.62	266.82
373.81	163.84
374.01	147.45
374.21	245.76
374.40	301.93
374.60	215.33
374.79	170.86
374.99	313.63
375.19	292.57
375.38	234.05
375.58	180.22
375.78	264.48
375.97	269.16
376.17	269.16
376.37	229.37
376.56	320.65
376.76	224.69
376.95	339.38
377.15	208.31
377.35	222.35
377.54	245.76
377.74	208.31
377.93	250.44
378.13	198.95
378.33	327.68
378.52	229.37
378.72	308.95
378.91	299.59
379.11	287.89
379.31	327.68
379.50	238.73
379.70	320.65
379.89	283.20
380.09	341.72
380.28	292.57
380.48	409.59
380.68	344.06
380.87	248.10
381.07	266.82
381.26	313.63
381.46	259.80
381.65	301.93
381.85	360.44
382.04	388.53
382.24	344.06
382.43	360.44
382.63	337.04
382.83	287.89
383.02	292.57
383.22	400.23
383.41	320.65
383.61	372.15
383.80	409.59
384.00	407.25
384.19	341.72
384.39	337.04
384.58	402.57
384.78	362.78
384.97	379.17
385.17	353.42
385.36	402.57
385.56	437.68
385.75	374.49
385.95	341.72
386.14	489.17
386.34	444.70
386.53	393.21
386.72	468.11
386.92	440.02
387.11	360.44
387.31	433.00
387.50	330.02
387.70	449.38
387.89	465.77
388.09	358.10
388.28	491.51
388.48	390.87
388.67	440.02
388.86	383.85
389.06	449.38
389.25	496.19
389.45	463.43
389.64	390.87
389.84	540.66
390.03	472.79
390.22	634.29
390.42	486.83
390.61	430.66
390.81	505.56
391.00	531.30
391.19	552.37
391.39	498.53
391.58	540.66
391.78	411.93
391.97	568.75
392.16	533.64
392.36	519.60
392.55	505.56
392.75	463.43
392.94	554.71
393.13	613.22
393.33	526.62
393.52	507.90
393.71	500.87
393.91	615.56
394.10	568.75
394.29	510.24
394.49	587.47
394.68	631.94
394.88	543.00
395.07	634.29
395.26	627.26
395.46	580.45
395.65	573.43
395.84	608.54
396.04	671.73
396.23	683.44
396.42	683.44
396.62	674.07
396.81	601.52
397.00	678.76
397.19	610.88
397.39	620.24
397.58	678.76
397.77	582.79
397.97	653.01
398.16	650.67
398.35	725.57
398.55	685.78
398.74	704.50
398.93	777.06
399.12	685.78
399.32	676.41
399.51	702.16
399.70	760.67
399.90	748.97
400.09	770.04
400.28	720.88
400.47	765.36
400.67	802.80
400.86	737.27
401.05	685.78
401.24	861.32
401.44	807.48
401.63	788.76
401.82	828.55
402.01	849.61
402.21	758.33
402.40	835.57
402.59	826.21
402.78	784.08
402.97	858.98
403.17	945.58
403.36	931.53
403.55	912.81
403.74	926.85
403.93	896.43
404.13	844.93
404.32	884.72
404.51	901.11
404.70	964.30
404.89	966.64
405.09	1001.75
405.28	901.11
405.47	887.06
405.66	966.64
405.85	931.53
406.05	954.94
406.24	1043.88
406.43	1043.88
406.62	957.28
406.81	966.64
407.00	997.07
407.20	1179.63
407.39	1006.43
407.58	1060.26
407.77	1116.44
407.96	1039.20
408.15	1107.07
408.34	1088.35
408.54	1090.69
408.73	1107.07
408.92	1151.54
409.11	1135.16
409.30	1107.07
409.49	1226.44
409.68	1200.69
409.87	1050.90
410.07	1207.72
410.26	1151.54
410.45	1116.44
410.64	1100.05
410.83	1167.93
411.02	1179.63
411.21	1188.99
411.40	1172.61
411.59	1186.65
411.78	1291.98
411.98	1336.45
412.17	1240.48
412.36	1296.66
412.55	1327.08
412.74	1355.17
412.93	1373.89
413.12	1439.43
413.31	1432.41
413.50	1376.24
413.69	1519.01
413.88	1385.60
414.07	1387.94
414.26	1458.15
414.45	1554.12
414.64	1444.11
414.83	1453.47
415.02	1523.69
415.22	1570.50
415.41	1514.33
415.60	1558.80
415.79	1626.67
415.98	1533.05
416.17	1596.25
416.36	1511.99
416.55	1603.27
416.74	1710.93
416.93	1671.14
417.12	1603.27
417.31	1785.83
417.50	1664.12
417.69	1806.89
417.88	1694.55
418.07	1717.95
418.26	1755.40
418.45	1743.70
418.64	1792.85
418.83	1811.57
419.02	1755.40
419.21	1825.62
419.39	1816.26
419.58	1783.49
419.77	1792.85
419.96	1863.07
420.15	1853.70
420.34	1987.11
420.53	1900.52
420.72	1956.69
420.91	1888.81
421.10	1905.20
421.29	1966.05
421.48	1844.34
421.67	1987.11
421.86	1975.41
422.05	1963.71
422.24	2052.65
422.43	2062.01
422.61	2036.27
422.80	1961.37
422.99	2047.97
423.18	1905.20
423.37	2073.71
423.56	2045.63
423.75	2001.16
423.94	1975.41
424.13	1832.64
424.32	1895.83
424.50	2008.18
424.69	2141.59
424.88	2136.91
425.07	1989.46
425.26	1947.33
425.45	2045.63
425.64	1968.39
425.83	2127.55
426.01	2221.17
426.20	1909.88
426.39	2216.49
426.58	2125.21
426.77	2153.29
426.96	2221.17
427.15	2078.40
427.33	2099.46
427.52	2169.68
427.71	2190.74
427.90	2186.06
428.09	2174.36
428.28	2160.31
428.46	2382.67
428.65	2258.62
428.84	2183.72
429.03	2244.57
429.22	2237.55
429.40	2242.23
429.59	2289.04
429.78	2104.14
429.97	2129.89
430.16	2181.38
430.34	2356.92
430.53	2326.49
430.72	2333.51
430.91	2221.17
431.10	2282.02
431.28	2387.35
431.47	2314.79
431.66	2347.56
431.85	2363.94
432.03	2347.56
432.22	2516.08
432.41	2495.01
432.60	2569.91
432.79	2424.80
432.97	2410.75
433.16	2530.12
433.35	2438.84
433.54	2518.42
433.72	2614.38
433.91	2520.76
434.10	2588.63
434.28	2574.59
434.47	2572.25
434.66	2630.76
434.85	2658.85
435.03	2576.93
435.22	2633.10
435.41	2672.89
435.59	2686.94
435.78	2684.59
435.97	2703.32
436.16	2644.81
436.34	2670.55
436.53	2661.19
436.72	2775.88
436.90	2628.42
437.09	2736.09
437.28	2682.25
437.46	2705.66
437.65	2764.17
437.84	2832.05
438.02	2719.70
438.21	2857.79
438.40	2818.00
438.58	2951.42
438.77	3023.97
438.96	2841.41
439.14	2958.44
439.33	2834.39
439.52	2949.08
439.70	3159.72
439.89	3054.40
440.08	2885.88
440.26	3038.02
440.45	3080.14
440.63	3019.29
440.82	3073.12
441.01	3052.06
441.19	3267.39
441.38	3199.51
441.57	3141.00
441.75	3094.19
441.94	3368.03
442.12	3241.64
442.31	3309.52
442.50	3279.09
442.68	3241.64
442.87	3410.16
443.05	3215.90
443.24	3550.59
443.43	3307.18
443.61	3321.22
443.80	3527.19
443.98	3466.33
444.17	3314.20
444.35	3349.31
444.54	3536.55
444.73	3548.25
444.91	3370.37
445.10	3442.93
445.28	3344.63
445.47	3403.14
445.65	3574.00
445.84	3548.25
446.02	3379.73
446.21	3480.38
446.39	3463.99
446.58	3576.34
446.77	3592.72
446.95	3459.31
447.14	3662.94
447.32	3627.83
447.51	3466.33
447.69	3602.08
447.88	3672.30
448.06	3442.93
448.25	3517.83
448.43	3555.27
448.62	3543.57
448.80	3613.79
448.99	3676.98
449.17	3613.79
449.36	3452.29
449.54	3667.62
449.73	3625.49
449.91	3756.56
450.10	3772.94
450.28	3705.07
450.46	3817.41
450.65	3669.96
450.83	3915.72
451.02	3777.62
451.20	3838.48
451.39	3737.84
451.57	3838.48
451.76	3707.41
451.94	3880.61
452.13	3906.35
452.31	3906.35
452.49	3775.28
452.68	3840.82
452.86	3866.56
453.05	3815.07
453.23	3955.51
453.42	3871.25
453.60	3971.89
453.78	3887.63
453.97	3871.25
454.15	3934.44
454.34	3850.18
454.52	4128.70
454.70	3908.69
454.89	4142.75
455.07	4056.15
455.26	4079.55
455.44	4222.33
455.62	4140.41
455.81	4109.98
455.99	4196.58
456.17	4255.09
456.36	4109.98
456.54	4224.67
456.73	4255.09
456.91	4348.72
457.09	4344.03
457.28	4353.40
457.46	4252.75
457.64	4283.18
457.83	4304.25
458.01	4362.76
458.19	4327.65
458.38	4269.14
458.56	4486.81
458.74	4388.50
458.93	4397.87
459.11	4505.53
459.29	4442.34
459.48	4423.61
459.66	4575.75
459.84	4479.79
460.03	4442.34
460.21	4540.64
460.39	4599.15
460.57	4648.30
460.76	4629.58
460.94	4545.32
461.12	4587.45
461.31	4713.84
461.49	4592.13
461.67	4645.96
461.85	4657.67
462.04	4695.11
462.22	4627.24
462.40	4802.78
462.59	4746.61
462.77	4833.21
462.95	4835.55
463.13	4814.48
463.32	4858.95
463.50	4889.38
463.68	4917.47
463.86	4908.10
464.05	4919.81
464.23	4676.39
464.41	4851.93
464.59	4777.03
464.78	4940.87
464.96	4758.31
465.14	4865.97
465.32	4985.34
465.50	5048.54
465.69	4922.15
465.87	4999.38
466.05	5118.75
466.23	4978.32
466.41	5043.85
466.60	5188.97
466.78	5050.88
466.96	5041.51
467.14	5001.72
467.32	5287.27
467.51	5135.14
467.69	5100.03
467.87	5186.63
468.05	5320.04
468.23	5109.39
468.41	5008.75
468.60	5128.11
468.78	5350.46
468.96	5195.99
469.14	5547.07
469.32	5291.95
469.50	5245.14
469.69	5430.04
469.87	5348.12
470.05	5554.09
470.23	5495.58
470.41	5359.83
470.59	5462.81
470.77	5495.58
470.95	5511.96
471.14	5624.31
471.32	5434.72
471.50	5692.18
471.68	5652.39
471.86	5687.50
472.04	5783.46
472.22	5778.78
472.40	5781.12
472.58	5657.07
472.77	5579.84
472.95	5884.11
473.13	5839.64
473.31	5827.93
473.49	5839.64
473.67	6143.91
473.85	5961.34
474.03	6022.20
474.21	6120.50
474.39	6249.23
474.57	6057.31
474.75	5987.09
474.93	6057.31
475.12	6008.16
475.30	6260.93
475.48	6216.46
475.66	6380.30
475.84	6237.53
476.02	6286.68
476.20	6174.33
476.38	6473.92
476.56	6668.19
476.74	6654.14
476.92	6553.50
477.10	6534.78
477.28	6703.29
477.46	6733.72
477.64	6789.89
477.82	6724.36
478.00	7014.59
478.18	7021.61
478.36	6967.77
478.54	7126.93
478.72	7183.10
478.90	7133.95
479.08	7419.50
479.26	7248.64
479.44	7194.81
479.62	7466.31
479.80	7302.47
479.98	7440.56
480.16	7728.45
480.34	7478.01
480.52	7789.30
480.70	7618.44
480.88	7618.44
481.06	7866.54
481.24	7747.17
481.41	7875.90
481.59	8063.15
481.77	8184.85
481.95	8241.03
482.13	8159.11
482.31	8140.38
482.49	8311.24
482.67	8308.90
482.85	8636.58
483.03	8346.35
483.21	8594.45
483.39	8645.94
483.57	8542.96
483.74	8681.05
483.92	8940.85
484.10	8659.98
484.28	9036.81
484.46	9004.04
484.64	9198.31
484.82	9018.08
485.00	8926.80
485.18	9233.41
485.35	9376.19
485.53	9348.10
485.71	9310.65
485.89	9696.84
486.07	9767.06
486.25	9579.81
486.43	9853.66
486.61	9565.77
486.78	9720.24
486.96	9975.36
487.14	10085.37
487.32	10097.07
487.50	10326.44
487.68	10480.92
487.85	10284.31
488.03	10480.92
488.21	10878.81
488.39	10747.74
488.57	10855.40
488.75	10878.81
488.92	10885.83
489.10	11068.39
489.28	11049.67
489.46	11152.65
489.64	11035.63
489.81	11227.55
489.99	11566.93
490.17	11314.15
490.35	11569.27
490.53	11583.31
490.70	11667.57
490.88	11587.99
491.06	11714.38
491.24	11700.34
491.41	11981.20
491.59	11995.25
491.77	11880.56
491.95	12100.57
492.13	12355.69
492.30	12343.99
492.48	12365.05
492.66	12456.33
492.84	12568.68
493.01	12573.36
493.19	12589.74
493.37	12718.47
493.54	13027.42
493.72	13041.46
493.90	12837.84
494.08	12943.16
494.25	13130.41
494.43	13195.94
494.61	13502.55
494.79	13521.27
494.96	13420.63
495.14	13317.65
495.32	13432.33
495.49	13720.22
495.67	13556.38
495.85	13820.86
496.02	13991.72
496.20	14216.41
496.38	14303.01
496.55	14209.39
496.73	14349.82
496.91	14176.62
497.09	14221.10
497.26	14391.95
497.44	14436.42
497.62	14548.77
497.79	14410.68
497.97	14583.88
498.14	14665.80
498.32	14801.55
498.50	15089.43
498.67	14855.38
498.85	15044.96
499.03	15082.41
499.20	15199.44
499.38	15094.11
499.56	15372.64
499.73	15159.65
499.91	15365.62
500.08	15583.29
500.26	15480.30
500.44	15618.39
500.61	15616.05
500.79	15667.55
500.97	15735.42
501.14	16035.01
501.32	16056.08
501.49	15875.85
501.67	16009.26
501.84	16276.09
502.02	15957.77
502.20	16149.70
502.37	16381.41
502.55	16145.02
502.72	16250.34
502.90	16243.32
503.07	16449.28
503.25	16517.16
503.43	16556.95
503.60	16702.06
503.78	16678.66
503.95	16526.52
504.13	16608.44
504.30	17015.69
504.48	17123.36
504.65	17057.82
504.83	16884.62
505.01	17324.65
505.18	17036.76
505.36	17422.95
505.53	17221.66
505.71	17319.96
505.88	17331.67
506.06	17282.52
506.23	17371.46
506.41	17287.20
506.58	17397.20
506.76	17462.74
506.93	17778.71
507.11	17675.73
507.28	17638.28
507.46	17778.71
507.63	17818.50
507.81	17972.97
507.98	17771.69
508.16	17853.61
508.33	18080.64
508.50	18567.47
508.68	17996.38
508.85	18059.57
509.03	17900.42
509.20	18490.23
509.38	18169.58
509.55	18684.50
509.73	18583.85
509.90	18663.43
510.08	18450.44
510.25	18497.25
510.42	18761.73
510.60	19070.68
510.77	18991.11
510.95	18860.04
511.12	18927.91
511.30	18827.27
511.47	19089.41
511.64	19030.90
511.82	19012.17
511.99	18822.59
512.17	19321.12
512.34	19126.86
512.51	19468.58
512.69	19543.47
512.86	19293.04
513.04	19527.09
513.21	19232.18
513.38	19819.66
513.56	19793.91
513.73	19674.54
513.90	19777.53
514.08	19669.86
514.25	19859.45
514.43	19913.28
514.60	20070.09
514.77	19854.76
514.95	20126.27
515.12	19634.75
515.29	20002.22
515.47	20070.09
515.64	20369.68
515.81	20210.53
515.99	20479.69
516.16	20650.55
516.33	20627.14
516.51	20458.62
516.68	20339.26
516.85	20503.09
517.03	20772.25
517.20	20524.16
517.37	20830.77
517.54	20886.94
517.72	20720.76
517.89	20905.66
518.06	20908.01
518.24	20329.89
518.41	20725.44
518.58	20886.94
518.75	20650.55
518.93	20882.26
519.10	21097.59
519.27	21350.37
519.45	21158.44
519.62	21219.30
519.79	21331.64
519.96	21163.12
520.14	21448.67
520.31	21535.27
520.48	21661.66
520.65	21427.60
520.83	21661.66
521.00	21413.56
521.17	21874.65
521.34	21673.36
521.52	21855.92
521.69	21694.43
521.86	21661.66
522.03	22029.12
522.20	22075.93
522.38	22258.49
522.55	22164.87
522.72	21963.59
522.89	22239.77
523.07	22300.62
523.24	22125.08
523.41	22485.53
523.58	22272.54
523.75	22464.46
523.92	22684.47
524.10	22111.04
524.27	22630.64
524.44	22827.24
524.61	22787.46
524.78	22703.20
524.96	22817.88
525.13	22642.34
525.30	22616.60
525.47	22909.16
525.64	22689.15
525.81	22714.90
525.98	22963.00
526.16	22787.46
526.33	23190.03
526.50	23295.35
526.67	23051.94
526.84	22932.57
527.01	22555.74
527.18	22897.46
527.36	23143.22
527.53	23077.68
527.70	23555.15
527.87	23274.29
528.04	23379.61
528.21	23620.69
528.38	23335.14
528.55	23412.38
528.72	23475.57
528.89	23763.46
529.07	23653.45
529.24	23606.64
529.41	23981.13
529.58	23770.48
529.75	23824.31
529.92	23960.06
530.09	23744.73
530.26	23894.53
530.43	24025.60
530.60	23777.50
530.77	23527.06
530.94	23894.53
531.11	23976.45
531.28	23971.77
531.46	24025.60
531.63	23983.47
531.80	23939.00
531.97	24341.57
532.14	24500.73
532.31	24121.56
532.48	24194.12
532.65	24379.02
532.82	24318.17
532.99	24313.48
533.16	24283.06
533.33	24662.22
533.50	24491.37
533.67	24374.34
533.84	24271.36
534.01	24542.86
534.18	24226.89
534.35	24500.73
534.52	25064.80
534.69	24556.90
534.86	24973.52
535.03	24542.86
535.20	25109.27
535.37	24910.32
535.54	25151.40
535.71	24814.36
535.88	24896.28
536.05	25123.31
536.22	24936.07
536.38	25364.39
536.55	25146.72
536.72	25198.21
536.89	25092.88
537.06	25088.20
537.23	25465.03
537.40	25465.03
537.57	25205.23
537.74	25193.53
537.91	25436.94
538.08	25156.08
538.25	25099.90
538.42	25518.86
538.59	25788.02
538.75	25057.78
538.92	25804.41
539.09	25427.58
539.26	25947.18
539.43	25778.66
539.60	25745.89
539.77	25635.89
539.94	25612.48
540.11	25961.22
540.28	25883.98
540.44	25771.64
540.61	25846.54
540.78	25841.85
540.95	25916.75
541.12	26064.21
541.29	26183.57
541.46	26031.44
541.62	26314.64
541.79	25785.68
541.96	25869.94
542.13	25900.37
542.30	25940.16
542.47	26265.49
542.63	26230.38
542.80	26487.84
542.97	26625.93
543.14	26567.42
543.31	26462.10
543.48	26410.60
543.64	26717.22
543.81	26513.59
543.98	26434.01
544.15	26761.69
544.32	26724.24
544.48	27133.83
544.65	26707.85
544.82	26302.94
544.99	26672.74
545.16	26787.43
545.32	26452.73
545.49	27058.93
545.66	27054.25
545.83	27014.46
546.00	27187.66
546.16	27115.11
546.33	26799.13
546.50	26492.52
546.67	27129.15
546.83	26469.12
547.00	26831.90
547.17	26962.97
547.34	26834.24
547.50	27271.92
547.67	27433.42
547.84	26981.70
548.00	27388.95
548.17	27349.16
548.34	26862.33
548.51	27297.67
548.67	27288.31
548.84	27545.76
549.01	27564.49
549.18	27571.51
549.34	27363.20
549.51	27297.67
549.68	27281.28
549.84	27770.46
550.01	27784.50
550.18	27145.53
550.34	27215.75
550.51	27751.73
550.68	27503.64
550.84	27711.94
551.01	27878.12
551.18	27721.30
551.34	27679.18
551.51	27716.62
551.68	27917.91
551.84	27931.95
552.01	27496.61
552.18	27784.50
552.34	27789.18
552.51	28086.43
552.68	27903.87
552.84	27934.29
553.01	27740.03
553.18	27931.95
553.34	28240.90
553.51	27749.39
553.67	27995.15
553.84	28552.20
554.01	28465.60
554.17	28109.83
554.34	28231.54
554.51	28119.20
554.67	28332.18
554.84	28554.54
555.00	27882.80
555.17	28437.51
555.33	28313.46
555.50	28432.83
555.67	28009.19
555.83	28290.06
556.00	28432.83
556.16	28924.34
556.33	28320.48
556.50	28409.42
556.66	28800.29
556.83	28371.97
556.99	28521.77
557.16	28758.16
557.32	28844.76
557.49	28926.68
557.65	28531.13
557.82	28538.15
557.98	28755.82
558.15	28737.10
558.32	28985.19
558.48	28622.41
558.65	28767.52
558.81	28823.70
558.98	28601.35
559.14	28861.15
559.31	28594.32
559.47	28701.99
559.64	29090.52
559.80	28985.19
559.97	28790.93
560.13	29034.35
560.30	28802.63
560.46	28992.22
560.63	28849.44
560.79	29139.67
560.96	29132.65
561.12	28938.38
561.29	28800.29
561.45	28959.45
561.61	28964.13
561.78	28734.76
561.94	29097.54
562.11	29174.78
562.27	29022.64
562.44	28865.83
562.60	28762.84
562.77	29317.55
562.93	29074.13
563.10	29027.32
563.26	29340.96
563.42	29659.27
563.59	29324.57
563.75	29240.31
563.92	29174.78
564.08	29394.79
564.24	29371.38
564.41	29088.18
564.57	29333.93
564.74	29876.94
564.90	29371.38
565.07	29237.97
565.23	29502.45
565.39	29446.28
565.56	29383.09
565.72	29273.08
565.88	29450.96
566.05	29310.53
566.21	29544.58
566.38	29420.53
566.54	29563.31
566.70	29668.63
566.87	29638.20
567.03	29553.94
567.19	29977.58
567.36	29706.08
567.52	29380.74
567.68	29640.54
567.85	29385.43
568.01	29715.44
568.17	29343.30
568.34	29259.04
568.50	29806.72
568.66	29930.77
568.83	29397.13
568.99	29766.93
569.15	29797.36
569.32	29558.63
569.48	29624.16
569.64	29228.61
569.81	29757.57
569.97	29642.88
570.13	29907.37
570.30	29434.58
570.46	29567.99
570.62	29706.08
570.78	29659.27
570.95	29483.73
571.11	29813.74
571.27	29525.86
571.43	29642.88
571.60	29862.90
571.76	29900.34
571.92	29638.20
572.09	29699.06
572.25	30003.33
572.41	30057.16
572.57	29715.44
572.74	29820.77
572.90	29598.41
573.06	29535.22
573.22	29923.75
573.38	29926.09
573.55	29827.79
573.71	30237.38
573.87	29963.54
574.03	29771.61
574.20	29755.23
574.36	29366.70
574.52	30291.21
574.68	29603.10
574.84	30075.88
575.01	29748.21
575.17	29727.14
575.33	29982.26
575.49	29809.06
575.65	30052.48
575.82	30398.88
575.98	29731.83
576.14	30010.35
576.30	29951.84
576.46	29968.22
576.62	29734.17
576.79	29883.96
576.95	29883.96
577.11	29830.13
577.27	29947.15
577.43	29759.91
577.59	29677.99
577.75	30213.98
577.92	29570.33
578.08	29720.12
578.24	30253.76
578.40	29846.51
578.56	30024.39
578.72	30038.44
578.88	29895.66
579.04	30167.16
579.21	30068.86
579.37	29954.18
579.53	30396.54
579.69	29975.24
579.85	30045.46
580.01	30178.87
580.17	29890.98
580.33	30464.41
580.49	30235.04
580.65	30213.98
580.82	29886.30
580.98	30073.54
581.14	30464.41
581.30	30260.79
581.46	29598.41
581.62	29769.27
581.78	30129.72
581.94	30398.88
582.10	30024.39
582.26	30029.07
582.42	30228.02
582.58	30471.43
582.74	30087.59
582.90	30331.00
583.06	30157.80
583.22	30316.96
583.38	30171.85
583.54	29993.97
583.70	30024.39
583.86	30391.86
584.02	29968.22
584.18	30242.06
584.34	30490.16
584.50	30459.73
584.66	30036.09
584.82	30050.14
584.98	30366.11
585.14	30363.77
585.30	30221.00
585.46	30101.63
585.62	30064.18
585.78	30677.40
585.94	30171.85
586.10	30291.21
586.26	30239.72
586.42	30291.21
586.58	30335.68
586.74	30314.62
586.90	30054.82
587.06	30204.61
587.22	30389.52
587.38	29926.09
587.54	30508.88
587.70	30499.52
587.86	30391.86
588.02	30581.44
588.18	30527.61
588.34	30518.25
588.49	30136.74
588.65	30010.35
588.81	30178.87
588.97	30401.22
589.13	30298.23
589.29	30230.36
589.45	30654.00
589.61	30562.72
589.77	30827.20
589.93	30682.08
590.08	30712.51
590.24	30682.08
590.40	30438.67
590.56	30452.71
590.72	30471.43
590.88	30462.07
591.04	30450.37
591.20	30541.65
591.35	30258.45
591.51	30672.72
591.67	30869.33
591.83	30991.03
591.99	30689.10
592.15	30340.36
592.31	30373.13
592.46	30665.70
592.62	30728.89
592.78	30380.15
592.94	30274.83
593.10	30866.98
593.26	30686.76
593.41	30654.00
593.57	30890.39
593.73	30808.47
593.89	30567.40
594.05	30719.53
594.20	30651.66
594.36	30843.58
594.52	30300.58
594.68	30223.34
594.84	30588.46
594.99	30611.87
595.15	30593.14
595.31	30939.54
595.47	30670.38
595.62	30574.42
595.78	31192.32
595.94	30764.00
596.10	30581.44
596.25	30768.68
596.41	30684.42
596.57	30499.52
596.73	30611.87
596.88	30597.82
597.04	30740.60
597.20	30611.87
597.36	30714.85
597.51	31084.65
597.67	30843.58
597.83	30932.52
597.99	30803.79
598.14	30621.23
598.30	30593.14
598.46	30749.96
598.61	30794.43
598.77	30789.75
598.93	31082.31
599.09	30831.88
599.24	30991.03
599.40	30866.98
599.56	30733.57
599.71	31042.53
599.87	30588.46
600.03	30555.69
600.18	30782.73
600.34	30810.81
600.50	30373.13
600.65	30543.99
600.81	30946.56
600.97	31189.98
601.12	31283.60
601.28	31044.87
601.44	30930.18
601.59	30684.42
601.75	31140.83
601.91	30728.89
602.06	30691.44
602.22	30820.17
602.37	30478.46
602.53	30925.50
602.69	31131.47
602.84	30752.30
603.00	30639.95
603.16	30738.26
603.31	30658.68
603.47	30529.95
603.62	31028.48
603.78	30740.60
603.94	30864.64
604.09	30726.55
604.25	31058.91
604.40	30735.92
604.56	30368.45
604.71	31012.10
604.87	30906.77
605.03	30892.73
605.18	30953.58
605.34	30342.70
605.49	30167.16
605.65	30883.37
605.80	30185.89
605.96	30508.88
606.12	30258.45
606.27	30962.95
606.43	30485.48
606.58	30595.48
606.74	30813.15
606.89	30705.49
607.05	31079.97
607.20	30820.17
607.36	30775.70
607.51	30665.70
607.67	30429.30
607.82	30511.22
607.98	30431.65
608.13	30618.89
608.29	30553.35
608.44	30312.28
608.60	30738.26
608.75	30761.66
608.91	30649.32
609.06	30532.29
609.22	30691.44
609.37	30532.29
609.53	30698.47
609.68	30651.66
609.84	30724.21
609.99	30335.68
610.15	30562.72
610.30	30593.14
610.46	30843.58
610.61	30663.36
610.76	30499.52
610.92	30944.22
611.07	30670.38
611.23	30419.94
611.38	30204.61
611.54	30199.93
611.69	30185.89
611.84	30314.62
612.00	30363.77
612.15	30291.21
612.31	30644.63
612.46	30426.96
612.62	30333.34
612.77	30284.19
612.92	30665.70
613.08	30328.66
613.23	30700.81
613.39	29970.56
613.54	29720.12
613.69	30099.29
613.85	30267.81
614.00	30347.39
614.15	30469.09
614.31	30560.37
614.46	30139.08
614.62	30017.37
614.77	30258.45
614.92	30169.51
615.08	30253.76
615.23	30291.21
615.38	29818.42
615.54	29818.42
615.69	30089.93
615.84	29954.18
616.00	30211.64
616.15	30024.39
616.30	29926.09
616.46	30080.56
616.61	29816.08
616.76	30225.68
616.92	29865.24
617.07	30326.32
617.22	29701.40
617.37	29656.93
617.53	30239.72
617.68	29830.13
617.83	29282.44
617.99	30019.71
618.14	29750.55
618.29	29858.21
618.45	29507.13
618.60	29593.73
618.75	29874.60
618.90	29862.90
619.06	29631.18
619.21	29612.46
619.36	29441.60
619.51	29727.14
619.67	29509.47
619.82	29322.23
619.97	29797.36
620.12	29558.63
620.28	29039.03
620.43	29500.11
620.58	29670.97
620.73	29860.55
620.89	29862.90
621.04	30000.99
621.19	29338.62
621.34	29663.95
621.49	29088.18
621.65	29556.28
621.80	29696.72
621.95	29294.14
622.10	29223.93
622.25	29097.54
622.41	29198.18
622.56	29233.29
622.71	29743.53
622.86	29647.57
623.01	29680.33
623.16	28945.41
623.32	29298.83
623.47	29514.16
623.62	29158.39
623.77	29282.44
623.92	29418.19
624.07	29064.77
624.23	28959.45
624.38	29235.63
624.53	29195.84
624.68	29364.36
624.83	29303.51
624.98	28978.17
625.13	29024.98
625.29	28999.24
625.44	29411.17
625.59	28917.32
625.74	28891.57
625.89	28980.51
626.04	28706.67
626.19	29099.88
626.34	28856.46
626.49	28800.29
626.65	29074.13
626.80	28938.38
626.95	28950.09
627.10	28723.05
627.25	29209.89
627.40	28870.51
627.55	28718.37
627.70	28732.42
627.85	28683.27
628.00	28826.04
628.15	28760.50
628.30	28493.68
628.45	28402.40
628.60	28348.57
628.76	28774.55
628.91	28591.98
629.06	28526.45
629.21	28587.30
629.36	28627.09
629.51	28765.18
629.66	28496.02
629.81	28407.08
629.96	28362.61
630.11	28580.28
630.26	28510.07
630.41	28170.69
630.56	28446.87
630.71	28170.69
630.86	28643.48
631.01	28561.56
631.16	28432.83
631.31	28348.57
631.46	28243.24
631.61	28449.21
631.76	28577.94
631.91	28472.62
632.06	27953.02
632.21	28023.23
632.36	28123.88
632.51	27936.63
632.66	28687.95
632.81	28041.96
632.96	28243.24
633.10	28311.12
633.25	28112.17
633.40	28271.33
633.55	28386.02
633.70	27789.18
633.85	27967.06
634.00	28191.75
634.15	27887.48
634.30	28210.48
634.45	27751.73
634.60	27796.20
634.75	27828.97
634.90	28093.45
635.05	28292.40
635.19	27929.61
635.34	27974.08
635.49	28091.11
635.64	27777.48
635.79	27725.99
635.94	27590.24
636.09	27735.35
636.24	27679.18
636.39	27534.06
636.53	27730.67
636.68	27683.86
636.83	27681.52
636.98	28107.49
637.13	27819.61
637.28	27967.06
637.43	27845.35
637.57	27751.73
637.72	27805.56
637.87	27709.60
638.02	27630.02
638.17	27522.36
638.32	27421.72
638.46	27400.65
638.61	27456.82
638.76	27550.45
638.91	27075.32
639.06	27042.55
639.20	27494.27
639.35	27522.36
639.50	27367.88
639.65	27615.98
639.80	27538.74
639.94	27344.48
640.09	27243.84
640.24	27417.04
640.39	27358.52
640.54	27140.85
640.68	26984.04
640.83	27147.87
640.98	26927.86
641.13	26698.49
641.27	27225.11
641.42	27243.84
641.57	27201.71
641.72	27173.62
641.86	27147.87
642.01	26831.90
642.16	27342.14
642.31	26913.82
642.45	27058.93
642.60	26764.03
642.75	26857.65
642.90	26881.05
643.04	26520.61
643.19	26565.08
643.34	26764.03
643.48	26700.83
643.63	27304.69
643.78	27197.02
643.93	26696.15
644.07	27000.42
644.22	27164.26
644.37	27192.34
644.51	26576.78
644.66	26815.52
644.81	26436.35
644.95	27021.48
645.10	26541.68
645.25	26663.38
645.39	26415.29
645.54	26628.27
645.69	26993.40
645.83	26632.96
645.98	26923.18
646.13	26895.10
646.27	26665.72
646.42	26331.03
646.57	26532.31
646.71	26672.74
646.86	26434.01
647.00	26518.27
647.15	26700.83
647.30	26686.79
647.44	26525.29
647.59	26426.99
647.74	26480.82
647.88	26422.31
648.03	26590.83
648.17	26881.05
648.32	26731.26
648.47	26464.44
648.61	26588.49
648.76	26618.91
648.90	26370.82
649.05	26888.07
649.20	26338.05
649.34	26242.09
649.49	26359.11
649.63	25944.84
649.78	25914.41
649.92	25759.94
650.07	26754.66
650.21	26087.61
650.36	26181.23
650.51	25991.65
650.65	26045.48
650.80	26511.25
650.94	25956.54
651.09	26026.76
651.23	25883.98
651.38	25914.41
651.52	25958.88
651.67	25411.20
651.81	26059.52
651.96	26017.40
652.10	25977.61
652.25	26001.01
652.39	26422.31
652.54	26150.81
652.68	26153.15
652.83	25949.52
652.97	26185.91
653.12	26118.04
653.26	25968.24
653.41	25991.65
653.55	25832.49
653.70	25530.56
653.84	25958.88
653.99	25790.36
654.13	25696.74
654.27	25633.55
654.42	25553.97
654.56	25874.62
654.71	25628.87
654.85	25460.35
655.00	25589.08
655.14	25656.95
655.29	25724.83
655.43	25846.54
655.57	25600.78
655.72	25839.51
655.86	25521.20
656.01	25619.50
656.15	25429.92
656.30	25991.65
656.44	25448.64
656.58	25336.30
656.73	25305.87
656.87	25443.96
657.01	25460.35
657.16	25640.57
657.30	25720.15
657.45	25537.59
657.59	25284.81
657.73	25312.89
657.88	25404.17
658.02	25502.48
658.16	25209.91
658.31	24964.15
658.45	24915.00
658.60	25092.88
658.74	25116.29
658.88	25158.42
659.03	25017.99
659.17	24889.26
659.31	24861.17
659.46	25123.31
659.60	25142.03
659.74	25144.38
659.89	25151.40
660.03	24891.60
660.17	24816.70
660.32	24837.76
660.46	24807.34
660.60	24512.43
660.74	24599.03
660.89	24638.82
661.03	24430.51
661.17	24453.92
661.32	24889.26
661.46	24755.85
661.60	24648.18
661.74	24706.70
661.89	24542.86
662.03	24751.17
662.17	24851.81
662.31	24446.90
662.46	24814.36
662.60	24212.84
662.74	24470.30
662.88	24486.68
663.03	24086.45
663.17	24411.79
663.31	23983.47
663.45	24198.80
663.60	24273.70
663.74	23821.97
663.88	24273.70
664.02	23828.99
664.17	24084.11
664.31	24093.47
664.45	24287.74
664.59	24606.05
664.73	23828.99
664.88	23653.45
665.02	23454.51
665.16	23751.76
665.30	23562.17
665.44	23796.23
665.59	23386.63
665.73	23826.65
665.87	23262.58
666.01	23517.70
666.15	23618.35
666.29	23592.60
666.44	23814.95
666.58	23295.35
666.72	23363.23
666.86	23063.64
667.00	23737.71
667.14	23143.22
667.28	23337.48
667.43	23496.64
667.57	23300.03
667.71	22988.74
667.85	23049.60
667.99	23000.44
668.13	22696.17
668.27	22923.21
668.41	23461.53
668.56	22944.27
668.70	23321.10
668.84	23166.62
668.98	23264.92
669.12	23358.55
669.26	22897.46
669.40	22717.24
669.54	22792.14
669.68	22911.50
669.82	22738.30
669.96	22630.64
670.10	22618.94
670.25	22623.62
670.39	22515.95
670.53	22317.01
670.67	22656.39
670.81	22422.33
670.95	22438.72
671.09	22551.06
671.23	22462.12
671.37	22473.82
671.51	22635.32
671.65	22265.52
671.79	22204.66
671.93	22204.66
672.07	22054.87
672.21	21994.01
672.35	21757.62
672.49	21954.22
672.63	21998.70
672.77	21984.65
672.91	21769.32
673.05	21708.47
673.19	21977.63
673.33	21879.33
673.47	21755.28
673.61	21926.14
673.75	21825.50
673.89	21659.32
674.03	21687.40
674.17	21476.76
674.31	21558.67
674.45	21429.94
674.59	21495.48
674.73	21577.40
674.87	21172.49
675.01	21205.25
675.15	21200.57
675.29	20889.28
675.43	21238.02
675.56	21149.08
675.70	20886.94
675.84	21020.35
675.98	20540.54
676.12	20985.24
676.26	21425.26
676.40	21064.82
676.54	20671.61
676.68	20985.24
676.82	20549.90
676.96	20781.62
677.10	20641.18
677.23	20395.43
677.37	20561.61
677.51	19840.72
677.65	20273.72
677.79	20018.60
677.93	20144.99
678.07	19924.98
678.21	20107.54
678.34	20084.14
678.48	19805.61
678.62	19700.29
678.76	20191.80
678.90	19449.85
679.04	19613.69
679.18	19749.44
679.31	19616.03
679.45	19669.86
679.59	19461.55
679.73	19257.93
679.87	19213.46
680.00	19187.71
680.14	19426.45
680.28	19304.74
680.42	19246.23
680.56	19337.51
680.70	19248.57
680.83	19428.79
680.97	19009.83
681.11	18911.53
681.25	18956.00
681.39	18991.11
681.52	18934.93
681.66	18944.30
681.80	18759.39
681.94	18614.28
682.07	18670.45
682.21	18237.45
682.35	18160.22
682.49	18539.38
682.62	18441.08
682.76	18064.25
682.90	18045.53
683.04	18075.96
683.17	18300.65
683.31	18185.96
683.45	18192.98
683.59	18080.64
683.72	17877.01
683.86	18352.14
684.00	18094.68
684.13	17984.68
684.27	18050.21
684.41	17547.00
684.55	17507.21
684.68	17521.25
684.82	17481.46
684.96	17453.37
685.09	17151.45
685.23	17090.59
685.37	17209.96
685.50	17516.57
685.64	17284.86
685.78	17018.04
685.91	17221.66
686.05	16989.95
686.19	16973.56
686.32	17209.96
686.46	16657.59
686.60	16711.42
686.73	16746.53
686.87	16570.99
687.01	16580.36
687.14	16374.39
687.28	16114.59
687.42	16334.60
687.55	16482.05
687.69	16451.63
687.82	16671.64
687.96	16255.02
688.10	15953.09
688.23	16196.51
688.37	16072.46
688.50	16112.25
688.64	16159.06
688.78	16063.10
688.91	15676.91
689.05	15653.50
689.18	15653.50
689.32	15506.05
689.46	15410.09
689.59	15721.38
689.73	15461.58
689.86	15501.37
690.00	15211.14
690.13	15627.76
690.27	15339.87
690.41	15400.72
690.54	15339.87
690.68	15161.99
690.81	15297.74
690.95	15335.19
691.08	15185.40
691.22	15124.54
691.35	14946.66
691.49	14897.51
691.62	14923.26
691.76	14808.57
691.89	14815.59
692.03	14651.75
692.16	14389.61
692.30	14471.53
692.43	14270.25
692.57	14122.79
692.70	14333.44
692.84	14207.05
692.97	14235.14
693.11	14242.16
693.24	14398.98
693.38	13919.17
693.51	14090.02
693.65	13804.48
693.78	14064.28
693.92	13951.93
694.05	13820.86
694.19	13710.86
694.32	13846.61
694.45	13710.86
694.59	13750.65
694.72	13284.88
694.86	13607.87
694.99	13081.25
695.13	13287.22
695.26	13252.11
695.39	13212.32
695.53	13212.32
695.66	13298.92
695.80	13350.42
695.93	13221.69
696.07	12985.29
696.20	12973.59
696.33	13284.88
696.47	12964.23
696.60	12868.27
696.73	13043.81
696.87	12751.24
697.00	12753.58
697.14	12589.74
697.27	12383.77
697.40	12233.98
697.54	12351.01
697.67	12533.57
697.80	12360.37
697.94	12002.27
698.07	12573.36
698.21	12084.19
698.34	12203.55
698.47	12273.77
698.61	12191.85
698.74	12442.29
698.87	12215.26
699.01	11880.56
699.14	12102.91
699.27	11831.41
699.40	11901.62
699.54	11857.15
699.67	11857.15
699.80	11676.93
699.94	11494.37
700.07	11868.86
700.20	11431.18
700.34	11384.37
700.47	11492.03
700.60	11234.57
700.73	11578.63
700.87	11356.28
701.00	11236.91
701.13	11220.53
701.26	11272.02
701.40	11314.15
701.53	11211.17
701.66	11222.87
701.79	11023.92
701.93	10871.79
702.06	10960.73
702.19	10726.68
702.32	10726.68
702.46	10635.39
702.59	10663.48
702.72	10703.27
702.85	10607.31
702.99	10361.55
703.12	10663.48
703.25	10305.38
703.38	10562.84
703.51	10635.39
703.65	10422.41
703.78	10221.12
703.91	10413.04
704.04	10274.95
704.17	10223.46
704.31	10244.52
704.44	10125.16
704.57	10239.84
704.70	9947.28
704.83	9893.44
704.96	9778.76
705.10	9958.98
705.23	9816.21
>>>>>End Processed Spectral Data<<<<<
