SpectraSuite Data File
++++++++++++++++++++++++++++++++++++
Date: Fri Oct 18 13:57:53 GMT-05:00 2013
User: bianchi
Dark Spectrum Present: No
Reference Spectrum Present: No
Number of Sampled Component Spectra: 1
Spectrometers: USB2+H05261
Integration Time (usec): 50000 (USB2+H05261)
Spectra Averaged: 1 (USB2+H05261)
Boxcar Smoothing: 0 (USB2+H05261)
Correct for Electrical Dark: No (USB2+H05261)
Strobe/Lamp Enabled: No (USB2+H05261)
Correct for Detector Non-linearity: No (USB2+H05261)
Correct for Stray Light: No (USB2+H05261)
Number of Pixels in Processed Spectrum: 2048
>>>>>Begin Processed Spectral Data<<<<<
365.73	0.00
365.92	0.00
366.12	0.00
366.32	0.00
366.52	0.00
366.72	0.00
366.91	0.00
367.11	0.00
367.31	0.00
367.51	0.00
367.70	0.00
367.90	0.00
368.10	0.00
368.30	0.00
368.49	0.00
368.69	0.00
368.89	0.00
369.09	0.00
369.28	0.00
369.48	0.00
369.68	0.00
369.87	0.00
370.07	0.00
370.27	0.00
370.47	0.00
370.66	110.01
370.86	110.01
371.06	145.11
371.25	142.77
371.45	187.24
371.65	147.45
371.84	189.58
372.04	173.20
372.24	124.05
372.44	191.92
372.63	212.99
372.83	205.97
373.03	227.03
373.22	154.48
373.42	187.24
373.62	252.78
373.81	201.29
374.01	280.86
374.21	217.67
374.40	198.95
374.60	198.95
374.79	187.24
374.99	224.69
375.19	273.84
375.38	266.82
375.58	276.18
375.78	283.20
375.97	332.36
376.17	301.93
376.37	313.63
376.56	344.06
376.76	276.18
376.95	224.69
377.15	257.46
377.35	306.61
377.54	212.99
377.74	320.65
377.93	184.90
378.13	294.91
378.33	278.52
378.52	285.55
378.72	306.61
378.91	280.86
379.11	292.57
379.31	379.17
379.50	301.93
379.70	236.39
379.89	278.52
380.09	322.99
380.28	362.78
380.48	264.48
380.68	383.85
380.87	315.97
381.07	337.04
381.26	381.51
381.46	318.31
381.65	330.02
381.85	322.99
382.04	376.83
382.24	360.44
382.43	332.36
382.63	320.65
382.83	358.10
383.02	379.17
383.22	365.12
383.41	421.30
383.61	372.15
383.80	346.40
384.00	414.27
384.19	353.42
384.39	454.06
384.58	330.02
384.78	421.30
384.97	339.38
385.17	315.97
385.36	369.80
385.56	472.79
385.75	461.09
385.95	360.44
386.14	355.76
386.34	325.33
386.53	472.79
386.72	449.38
386.92	500.87
387.11	402.57
387.31	386.19
387.50	400.23
387.70	444.70
387.89	491.51
388.09	510.24
388.28	390.87
388.48	472.79
388.67	461.09
388.86	550.03
389.06	491.51
389.25	416.62
389.45	430.66
389.64	454.06
389.84	603.86
390.03	458.74
390.22	477.47
390.42	486.83
390.61	456.40
390.81	484.49
391.00	496.19
391.19	503.22
391.39	531.30
391.58	472.79
391.78	484.49
391.97	498.53
392.16	557.05
392.36	489.17
392.55	533.64
392.75	568.75
392.94	601.52
393.13	468.11
393.33	557.05
393.52	475.13
393.71	587.47
393.91	660.03
394.10	552.37
394.29	660.03
394.49	620.24
394.68	599.18
394.88	566.41
395.07	571.09
395.26	512.58
395.46	657.69
395.65	613.22
395.84	613.22
396.04	751.31
396.23	608.54
396.42	653.01
396.62	603.86
396.81	615.56
397.00	720.88
397.19	669.39
397.39	718.54
397.58	704.50
397.77	638.97
397.97	685.78
398.16	676.41
398.35	662.37
398.55	662.37
398.74	758.33
398.93	828.55
399.12	681.10
399.32	739.61
399.51	627.26
399.70	795.78
399.90	716.20
400.09	851.96
400.28	760.67
400.47	830.89
400.67	784.08
400.86	784.08
401.05	741.95
401.24	788.76
401.44	802.80
401.63	816.85
401.82	791.10
402.01	805.14
402.21	830.89
402.40	844.93
402.59	812.17
402.78	880.04
402.97	891.74
403.17	908.13
403.36	990.05
403.55	959.62
403.74	889.40
403.93	924.51
404.13	903.45
404.32	875.36
404.51	922.17
404.70	1032.18
404.89	968.98
405.09	999.41
405.28	987.71
405.47	973.66
405.66	957.28
405.85	1022.81
406.05	999.41
406.24	1027.50
406.43	1006.43
406.62	990.05
406.81	1116.44
407.00	1057.92
407.20	1011.11
407.39	1018.13
407.58	1050.90
407.77	964.30
407.96	1086.01
408.15	1114.10
408.34	1125.80
408.54	1139.84
408.73	1111.75
408.92	1114.10
409.11	1177.29
409.30	1078.99
409.49	1130.48
409.68	1210.06
409.87	1235.80
410.07	1081.33
410.26	1188.99
410.45	1235.80
410.64	1235.80
410.83	1226.44
411.02	1135.16
411.21	1266.23
411.40	1291.98
411.59	1158.57
411.78	1254.53
411.98	1252.19
412.17	1301.34
412.36	1329.42
412.55	1345.81
412.74	1451.13
412.93	1348.15
413.12	1357.51
413.31	1446.45
413.50	1401.98
413.69	1411.34
413.88	1439.43
414.07	1437.09
414.26	1535.39
414.45	1420.71
414.64	1444.11
414.83	1507.30
415.02	1502.62
415.22	1607.95
415.41	1596.25
415.60	1589.22
415.79	1610.29
415.98	1542.41
416.17	1610.29
416.36	1607.95
416.55	1624.33
416.74	1605.61
416.93	1626.67
417.12	1586.88
417.31	1689.87
417.50	1710.93
417.69	1755.40
417.88	1806.89
418.07	1774.13
418.26	1776.47
418.45	1661.78
418.64	1790.51
418.83	1781.15
419.02	1837.32
419.21	1870.09
419.39	1949.67
419.58	1893.49
419.77	1853.70
419.96	1928.60
420.15	1926.26
420.34	1860.73
420.53	1865.41
420.72	1849.02
420.91	1959.03
421.10	1991.80
421.29	2010.52
421.48	1949.67
421.67	2017.54
421.86	1919.24
422.05	2047.97
422.24	1996.48
422.43	1921.58
422.61	1968.39
422.80	2143.93
422.99	1966.05
423.18	2054.99
423.37	2174.36
423.56	1937.96
423.75	2139.25
423.94	2019.88
424.13	1842.00
424.32	1909.88
424.50	2040.95
424.69	2104.14
424.88	2111.16
425.07	2057.33
425.26	2052.65
425.45	2069.03
425.64	2003.50
425.83	2111.16
426.01	2076.06
426.20	2066.69
426.39	2090.10
426.58	2122.87
426.77	2143.93
426.96	2087.76
427.15	2200.10
427.33	2071.37
427.52	2160.31
427.71	2223.51
427.90	2148.61
428.09	2174.36
428.28	2118.18
428.46	2277.34
428.65	2239.89
428.84	2265.64
429.03	2413.09
429.22	2216.49
429.40	2296.07
429.59	2249.25
429.78	2237.55
429.97	2188.40
430.16	2293.72
430.34	2406.07
430.53	2345.22
430.72	2413.09
430.91	2361.60
431.10	2366.28
431.28	2305.43
431.47	2377.98
431.66	2443.52
431.85	2480.97
432.03	2497.35
432.22	2523.10
432.41	2480.97
432.60	2445.86
432.79	2441.18
432.97	2410.75
433.16	2476.29
433.35	2579.27
433.54	2644.81
433.72	2396.71
433.91	2523.10
434.10	2719.70
434.28	2560.55
434.47	2513.74
434.66	2633.10
434.85	2567.57
435.03	2567.57
435.22	2619.06
435.41	2696.30
435.59	2649.49
435.78	2825.03
435.97	2818.00
436.16	2679.91
436.34	2715.02
436.53	2743.11
436.72	2740.77
436.90	2712.68
437.09	2832.05
437.28	2726.72
437.46	2768.85
437.65	2733.75
437.84	2888.22
438.02	2785.24
438.21	2834.39
438.40	2668.21
438.58	2888.22
438.77	2750.13
438.96	2925.67
439.14	2942.05
439.33	2822.69
439.52	3066.10
439.70	3009.93
439.89	3126.96
440.08	3040.36
440.26	3033.33
440.45	3143.34
440.63	3119.93
440.82	3204.19
441.01	3169.09
441.19	3234.62
441.38	3332.92
441.57	3119.93
441.75	3150.36
441.94	3321.22
442.12	3300.16
442.31	3485.06
442.50	3267.39
442.68	3370.37
442.87	3295.47
443.05	3499.10
443.24	3398.46
443.43	3337.60
443.61	3463.99
443.80	3637.19
443.98	3309.52
444.17	3283.77
444.35	3419.52
444.54	3534.21
444.73	3588.04
444.91	3515.48
445.10	3485.06
445.28	3471.01
445.47	3599.74
445.65	3463.99
445.84	3590.38
446.02	3466.33
446.21	3478.04
446.39	3478.04
446.58	3566.98
446.77	3693.37
446.95	3489.74
447.14	3597.40
447.32	3534.21
447.51	3459.31
447.69	3513.14
447.88	3583.36
448.06	3681.66
448.25	3592.72
448.43	3543.57
448.62	3564.64
448.80	3564.64
448.99	3641.87
449.17	3627.83
449.36	3777.62
449.54	3644.21
449.73	3833.80
449.91	3833.80
450.10	3681.66
450.28	3796.35
450.46	3737.84
450.65	3889.97
450.83	3915.72
451.02	3904.01
451.20	3960.19
451.39	3899.33
451.57	3859.54
451.76	3829.12
451.94	3885.29
452.13	3901.67
452.31	3880.61
452.49	3873.59
452.68	3887.63
452.86	3922.74
453.05	4030.40
453.23	4060.83
453.42	3857.20
453.60	3880.61
453.78	4002.32
453.97	3960.19
454.15	4028.06
454.34	3992.95
454.52	4046.79
454.70	4100.62
454.89	4065.51
455.07	4023.38
455.26	4140.41
455.44	4133.39
455.62	4142.75
455.81	4334.67
455.99	4100.62
456.17	4285.52
456.36	4219.99
456.54	4458.72
456.73	4278.50
456.91	4444.68
457.09	4280.84
457.28	4526.60
457.46	4273.82
457.64	4400.21
457.83	4470.42
458.01	4285.52
458.19	4535.96
458.38	4435.32
458.56	4561.70
458.74	4465.74
458.93	4491.49
459.11	4538.30
459.29	4519.57
459.48	4557.02
459.66	4655.33
459.84	4575.75
460.03	4734.90
460.21	4655.33
460.39	4777.03
460.57	4617.88
460.76	4645.96
460.94	4896.40
461.12	4725.54
461.31	4662.35
461.49	4812.14
461.67	4676.39
461.85	4858.95
462.04	4847.25
462.22	4922.15
462.40	4802.78
462.59	4741.93
462.77	4844.91
462.95	4802.78
463.13	4725.54
463.32	4990.02
463.50	4931.51
463.68	4894.06
463.86	4999.38
464.05	4905.76
464.23	4973.64
464.41	4940.87
464.59	4903.42
464.78	5074.28
464.96	5043.85
465.14	5008.75
465.32	5025.13
465.50	5221.74
465.69	5078.96
465.87	4903.42
466.05	5020.45
466.23	5167.90
466.41	5118.75
466.60	5469.83
466.78	5139.82
466.96	5036.83
467.14	5081.30
467.32	5212.37
467.51	5294.29
467.69	5109.39
467.87	5277.91
468.05	5228.76
468.23	5163.22
468.41	5315.36
468.60	5217.05
468.78	5376.21
468.96	5144.50
469.14	5453.45
469.32	5392.59
469.50	5205.35
469.69	5528.35
469.87	5441.75
470.05	5533.03
470.23	5558.77
470.41	5619.63
470.59	5406.64
470.77	5582.18
470.95	5654.73
471.14	5598.56
471.32	5336.42
471.50	5872.40
471.68	5645.37
471.86	5586.86
472.04	5837.30
472.22	5975.39
472.40	5809.21
472.58	5661.76
472.77	5895.81
472.95	5959.00
473.13	6106.46
473.31	5809.21
473.49	5935.60
473.67	5841.98
473.85	5980.07
474.03	6171.99
474.21	6033.90
474.39	6141.57
474.57	6319.45
474.75	6078.37
474.93	6258.59
475.12	6087.73
475.30	6242.21
475.48	6242.21
475.66	6497.33
475.84	6356.90
476.02	6347.53
476.20	6576.91
476.38	6494.99
476.56	6703.29
476.74	6642.44
476.92	6581.59
477.10	6612.01
477.28	6885.86
477.46	6909.26
477.64	6768.83
477.82	6883.52
478.00	7054.37
478.18	7150.34
478.36	7143.32
478.54	7316.51
478.72	7332.90
478.90	7166.72
479.08	7307.15
479.26	7412.48
479.44	7485.03
479.62	7435.88
479.80	7543.55
479.98	7529.50
480.16	7702.70
480.34	7714.41
480.52	7740.15
480.70	7831.43
480.88	7761.22
481.06	7754.19
481.24	7915.69
481.41	7866.54
481.59	8229.32
481.77	8133.36
481.95	8035.06
482.13	8147.40
482.31	8119.32
482.49	8465.72
482.67	8425.93
482.85	8482.10
483.03	8861.27
483.21	8671.68
483.39	8767.65
483.57	8732.54
483.74	8997.02
483.92	8683.39
484.10	8870.63
484.28	9114.05
484.46	9320.01
484.64	9441.72
484.82	9156.18
485.00	9308.31
485.18	9521.30
485.35	9680.46
485.53	9549.39
485.71	9666.41
485.89	9881.74
486.07	9851.31
486.25	9675.77
486.43	9830.25
486.61	9846.63
486.78	10164.95
486.96	10101.75
487.14	10359.21
487.32	10157.92
487.50	10314.74
487.68	10298.36
487.85	10717.31
488.03	10483.26
488.21	10726.68
488.39	10782.85
488.57	10724.33
488.75	10839.02
488.92	11082.44
489.10	11159.67
489.28	10974.77
489.46	11424.15
489.64	11314.15
489.81	11508.41
489.99	11545.86
490.17	11569.27
490.35	11541.18
490.53	11707.36
490.70	11749.49
490.88	11602.04
491.06	12159.08
491.24	12046.74
491.41	12255.04
491.59	12091.21
491.77	12187.17
491.95	12353.35
492.13	12374.41
492.30	12648.26
492.48	12489.10
492.66	12622.51
492.84	12713.79
493.01	12884.65
493.19	12725.49
493.37	12985.29
493.54	12931.46
493.72	13001.68
493.90	13181.90
494.08	13238.07
494.25	12877.63
494.43	13495.53
494.61	13834.91
494.79	13846.61
494.96	13558.72
495.14	13607.87
495.32	13661.71
495.49	13781.07
495.67	13926.19
495.85	14038.53
496.02	14029.17
496.20	14087.68
496.38	14017.47
496.55	13912.14
496.73	14562.81
496.91	14317.06
497.09	14581.54
497.26	14651.75
497.44	14600.26
497.62	14410.68
497.79	14787.50
497.97	14874.10
498.14	14988.79
498.32	15154.97
498.50	15215.82
498.67	15101.14
498.85	15201.78
499.03	15445.20
499.20	15218.16
499.38	15496.69
499.56	15672.23
499.73	15557.54
499.91	15880.53
500.08	15674.57
500.26	15709.68
500.44	15768.19
500.61	15721.38
500.79	15929.69
500.97	15840.75
501.14	16039.69
501.32	16116.93
501.49	16100.55
501.67	16053.73
501.84	16070.12
502.02	16348.64
502.20	16416.52
502.37	16489.07
502.55	16549.93
502.72	16493.76
502.90	16629.51
503.07	16568.65
503.25	16673.98
503.43	16479.71
503.60	16788.66
503.78	16886.97
503.95	17081.23
504.13	16800.37
504.30	17153.79
504.48	17029.74
504.65	16917.39
504.83	17135.06
505.01	17315.28
505.18	17128.04
505.36	17467.42
505.53	17305.92
505.71	17268.47
505.88	17523.59
506.06	17247.41
506.23	17696.79
506.41	17736.58
506.58	17586.79
506.76	17664.02
506.93	18010.42
507.11	17724.88
507.28	17832.54
507.46	18106.38
507.63	18167.24
507.81	18363.84
507.98	17954.25
508.16	18146.17
508.33	18293.63
508.50	18139.15
508.68	18317.03
508.85	18600.24
509.03	18450.44
509.20	18574.49
509.38	18745.35
509.55	18670.45
509.73	18743.01
509.90	18333.42
510.08	18703.22
510.25	18728.97
510.42	19091.75
510.60	19002.81
510.77	19473.26
510.95	19419.42
511.12	18897.49
511.30	19157.28
511.47	19129.20
511.64	19548.15
511.82	19819.66
511.99	19271.97
512.17	19431.13
512.34	19520.07
512.51	19531.77
512.69	19480.28
512.86	19817.32
513.04	19667.52
513.21	19868.81
513.38	19819.66
513.56	19857.10
513.73	19807.95
513.90	19763.48
514.08	20194.14
514.25	20341.60
514.43	20027.96
514.60	20159.03
514.77	20201.16
514.95	20276.06
515.12	20432.88
515.29	20325.21
515.47	20402.45
515.64	20744.17
515.81	20723.10
515.99	20374.36
516.16	20765.23
516.33	20835.45
516.51	20643.52
516.68	20467.98
516.85	20755.87
517.03	20819.07
517.20	21076.52
517.37	20938.43
517.54	21275.47
517.72	20996.95
517.89	20886.94
518.06	21277.81
518.24	20896.30
518.41	20945.45
518.58	21287.17
518.75	20847.15
518.93	21462.71
519.10	21446.33
519.27	21352.71
519.45	21443.99
519.62	21392.50
519.79	21783.37
519.96	21415.90
520.14	21766.98
520.31	21528.25
520.48	22125.08
520.65	21914.44
520.83	21970.61
521.00	21884.01
521.17	21633.57
521.34	21881.67
521.52	21951.88
521.69	22132.11
521.86	22052.53
522.03	22136.79
522.20	22333.39
522.38	22293.60
522.55	22387.22
522.72	22232.75
522.89	22539.36
523.07	22445.74
523.24	22700.86
523.41	22693.83
523.58	22511.27
523.75	22640.00
523.92	22609.58
524.10	22834.27
524.27	22803.84
524.44	23157.26
524.61	23304.71
524.78	23016.83
524.96	22806.18
525.13	23283.65
525.30	23096.41
525.47	23161.94
525.64	23152.58
525.81	23183.01
525.98	23180.67
526.16	23037.89
526.33	23173.64
526.50	23447.49
526.67	23173.64
526.84	23384.29
527.01	23304.71
527.18	23672.18
527.36	23531.75
527.53	23693.24
527.70	23704.95
527.87	23927.30
528.04	24004.53
528.21	23775.16
528.38	23824.31
528.55	24144.97
528.72	24013.90
528.89	24053.69
529.07	24159.01
529.24	23688.56
529.41	24205.82
529.58	24210.50
529.75	24046.66
529.92	23880.49
530.09	24360.30
530.26	24318.17
530.43	24027.94
530.60	24430.51
530.77	24418.81
530.94	24285.40
531.11	24184.76
531.28	24411.79
531.46	24484.34
531.63	24341.57
531.80	24458.60
531.97	24772.23
532.14	24580.31
532.31	24547.54
532.48	24737.12
532.65	24409.45
532.82	24343.91
532.99	24666.91
533.16	24493.71
533.33	25069.48
533.50	25207.57
533.67	25102.25
533.84	24659.88
534.01	24945.43
534.18	24915.00
534.35	25266.08
534.52	24957.13
534.69	25355.02
534.86	25680.36
535.03	24769.89
535.20	25137.35
535.37	25207.57
535.54	25453.33
535.71	25118.63
535.88	25198.21
536.05	25467.37
536.22	25640.57
536.38	25511.84
536.55	25303.53
536.72	25802.07
536.89	25654.61
537.06	25404.17
537.23	25551.63
537.40	25359.70
537.57	25626.53
537.74	25741.21
537.91	25893.35
538.08	26134.42
538.25	26019.74
538.42	26214.00
538.59	25956.54
538.75	25626.53
538.92	25792.70
539.09	26120.38
539.26	25895.69
539.43	26122.72
539.60	26195.28
539.77	26309.96
539.94	26094.63
540.11	26237.41
540.28	26167.19
540.44	25930.80
540.61	26272.51
540.78	26258.47
540.95	26368.48
541.12	26029.10
541.29	26038.46
541.46	26305.28
541.62	26150.81
541.79	26565.08
541.96	26127.40
542.13	26359.11
542.30	26335.71
542.47	26590.83
542.63	26775.73
542.80	26930.20
542.97	26988.72
543.14	26906.80
543.31	26738.28
543.48	26820.20
543.64	27154.90
543.81	27213.41
543.98	27358.52
544.15	26953.61
544.32	27218.09
544.48	27543.42
544.65	27002.76
544.82	27002.76
544.99	26979.36
545.16	27058.93
545.32	27115.11
545.49	27243.84
545.66	27615.98
545.83	27405.33
546.00	27309.37
546.16	27105.74
546.33	27274.26
546.50	27026.17
546.67	27381.93
546.83	27117.45
547.00	27459.16
547.17	27704.92
547.34	27527.04
547.50	27440.44
547.67	27920.25
547.84	27365.54
548.00	27538.74
548.17	27721.30
548.34	27555.13
548.51	28048.98
548.67	28147.28
548.84	27889.82
549.01	28240.90
549.18	27992.81
549.34	27791.52
549.51	27658.11
549.68	28077.07
549.84	28004.51
550.01	27896.85
550.18	27592.58
550.34	28025.57
550.51	28357.93
550.68	28224.52
550.84	27803.22
551.01	28215.16
551.18	28261.97
551.34	27950.68
551.51	28020.89
551.68	28397.72
551.84	28250.27
552.01	28435.17
552.18	28559.22
552.34	28273.67
552.51	28273.67
552.68	28252.61
552.84	28641.14
553.01	28514.75
553.18	28386.02
553.34	28491.34
553.51	28723.05
553.67	28868.17
553.84	28730.08
554.01	28379.00
554.17	28779.23
554.34	28755.82
554.51	28781.57
554.67	28610.71
554.84	28706.67
555.00	28905.62
555.17	28652.84
555.33	28641.14
555.50	28807.31
555.67	28706.67
555.83	28453.89
556.00	29048.39
556.16	28802.63
556.33	29120.95
556.50	28959.45
556.66	29202.86
556.83	28933.70
556.99	29254.36
557.16	28779.23
557.32	29247.33
557.49	28959.45
557.65	28835.40
557.82	29261.38
557.98	28922.00
558.15	29357.34
558.32	29230.95
558.48	29090.52
558.65	29610.12
558.81	29371.38
558.98	28931.36
559.14	29315.21
559.31	29284.78
559.47	28975.83
559.64	29338.62
559.80	29509.47
559.97	29479.05
560.13	29383.09
560.30	29488.41
560.46	29556.28
560.63	29256.70
560.79	29589.05
560.96	29722.46
561.12	29694.38
561.29	29376.06
561.45	29261.38
561.61	29830.13
561.78	29720.12
561.94	29675.65
562.11	29680.33
562.27	29453.30
562.44	29565.65
562.60	29385.43
562.77	29617.14
562.93	29591.39
563.10	29792.68
563.26	29598.41
563.42	30012.69
563.59	29706.08
563.75	29715.44
563.92	29516.50
564.08	29752.89
564.24	29701.40
564.41	29642.88
564.57	29799.70
564.74	29434.58
564.90	30228.02
565.07	29975.24
565.23	30305.26
565.39	30057.16
565.56	30164.82
565.72	29844.17
565.88	29846.51
566.05	29722.46
566.21	29890.98
566.38	29790.34
566.54	29827.79
566.70	29963.54
566.87	29972.90
567.03	29937.79
567.19	30483.14
567.36	30342.70
567.52	30106.31
567.68	30345.05
567.85	29851.19
568.01	30209.29
568.17	29797.36
568.34	30188.23
568.50	30295.89
568.66	30085.25
568.83	30235.04
568.99	30101.63
569.15	30008.01
569.32	29600.76
569.48	30169.51
569.64	30270.15
569.81	30293.55
569.97	30347.39
570.13	30206.95
570.30	30597.82
570.46	30225.68
570.62	30279.51
570.78	30300.58
570.95	30221.00
571.11	30291.21
571.27	30026.73
571.43	30256.11
571.60	30110.99
571.76	30506.54
571.92	30417.60
572.09	30380.15
572.25	30263.13
572.41	30391.86
572.57	30092.27
572.74	30469.09
572.90	30555.69
573.06	30071.20
573.22	30059.50
573.38	30473.78
573.55	30387.18
573.71	30639.95
573.87	30614.21
574.03	30590.80
574.20	30684.42
574.36	30490.16
574.52	30836.56
574.68	30312.28
574.84	30520.59
575.01	30328.66
575.17	31005.08
575.33	30375.47
575.49	30314.62
575.65	30558.03
575.82	30810.81
575.98	30216.32
576.14	30260.79
576.30	30747.62
576.46	30352.07
576.62	30623.57
576.79	30511.22
576.95	30738.26
577.11	30721.87
577.27	30981.67
577.43	30698.47
577.59	30096.95
577.75	30206.95
577.92	30452.71
578.08	30600.16
578.24	30534.63
578.40	30331.00
578.56	30712.51
578.72	30576.76
578.88	30834.22
579.04	30754.64
579.21	30649.32
579.37	30721.87
579.53	30459.73
579.69	30340.36
579.85	30714.85
580.01	30562.72
580.17	30721.87
580.33	30565.06
580.49	30754.64
580.65	30635.27
580.82	30874.01
580.98	30747.62
581.14	30590.80
581.30	31012.10
581.46	30794.43
581.62	30422.28
581.78	30221.00
581.94	30792.09
582.10	30410.58
582.26	30429.30
582.42	30796.77
582.58	30916.14
582.74	30813.15
582.90	30845.92
583.06	30792.09
583.22	30864.64
583.38	30480.80
583.54	30962.95
583.70	30780.39
583.86	30918.48
584.02	30581.44
584.18	30855.28
584.34	30817.83
584.50	30792.09
584.66	30579.10
584.82	30478.46
584.98	31236.79
585.14	30836.56
585.30	30281.85
585.46	30560.37
585.62	30665.70
585.78	30539.31
585.94	30536.97
586.10	30677.40
586.26	31012.10
586.42	30740.60
586.58	30766.34
586.74	30408.24
586.90	30438.67
587.06	30808.47
587.22	30932.52
587.38	30782.73
587.54	31005.08
587.70	30764.00
587.86	31138.49
588.02	31077.63
588.18	30843.58
588.34	31047.21
588.49	30724.21
588.65	30902.09
588.81	30934.86
588.97	31028.48
589.13	30883.37
589.29	30707.83
589.45	31161.89
589.61	30881.03
589.77	30909.11
589.93	31304.67
590.08	31126.78
590.24	31014.44
590.40	31211.04
590.56	31281.26
590.72	30852.94
590.88	30885.71
591.04	31456.80
591.20	31094.02
591.35	31391.26
591.51	31735.32
591.67	31164.23
591.83	31545.74
591.99	31239.13
592.15	31117.42
592.31	31365.52
592.46	31199.34
592.62	31288.28
592.78	31393.61
592.94	30822.51
593.10	30850.60
593.26	31077.63
593.41	31454.46
593.57	31601.91
593.73	30967.63
593.89	31330.41
594.05	31131.47
594.20	31110.40
594.36	30972.31
594.52	31274.24
594.68	30834.22
594.84	31470.84
594.99	31412.33
595.15	31166.57
595.31	31512.97
595.47	31253.17
595.62	31676.81
595.78	31325.73
595.94	31189.98
596.10	31339.77
596.25	31543.40
596.41	31072.95
596.57	31255.51
596.73	31271.90
596.88	31185.30
597.04	31262.54
597.20	31009.76
597.36	31314.03
597.51	31817.24
597.67	31515.31
597.83	31384.24
597.99	31487.23
598.14	31274.24
598.30	31718.94
598.46	31681.49
598.61	31707.24
598.77	30976.99
598.93	31428.71
599.09	31475.52
599.24	31648.72
599.40	31800.86
599.56	31754.05
599.71	31189.98
599.87	31182.96
600.03	31482.55
600.18	31545.74
600.34	31197.00
600.50	31077.63
600.65	31189.98
600.81	31761.07
600.97	31625.32
601.12	31803.20
601.28	31140.83
601.44	31608.93
601.59	31332.75
601.75	31674.47
601.91	31459.14
602.06	31124.44
602.22	31449.78
602.37	31442.76
602.53	31384.24
602.69	31632.34
602.84	31585.53
603.00	31274.24
603.16	31187.64
603.31	31622.98
603.47	31838.31
603.62	31248.49
603.78	31330.41
603.94	31075.29
604.09	31241.47
604.25	31278.92
604.40	31358.50
604.56	31384.24
604.71	31625.32
604.87	31243.81
605.03	31395.95
605.18	31740.00
605.34	31667.45
605.49	31206.36
605.65	31152.53
605.80	31201.68
605.96	31246.15
606.12	31400.63
606.27	31674.47
606.43	31353.82
606.58	31395.95
606.74	31232.11
606.89	31615.96
607.05	31470.84
607.20	31754.05
607.36	30925.50
607.51	31508.29
607.67	31550.42
607.82	31112.74
607.98	31173.60
608.13	31475.52
608.29	31166.57
608.44	31374.88
608.60	31138.49
608.75	31466.16
608.91	31199.34
609.06	31206.36
609.22	31405.31
609.37	31089.34
609.53	31084.65
609.68	31367.86
609.84	31136.15
609.99	31012.10
610.15	30728.89
610.30	31098.70
610.46	30890.39
610.61	30883.37
610.76	31154.87
610.92	31379.56
611.07	30747.62
611.23	31419.35
611.38	30988.69
611.54	30869.33
611.69	30808.47
611.84	30944.22
612.00	30689.10
612.15	30986.35
612.31	31400.63
612.46	30843.58
612.62	31454.46
612.77	30981.67
612.92	31185.30
613.08	30754.64
613.23	30518.25
613.39	30939.54
613.54	30855.28
613.69	30897.41
613.85	31042.53
614.00	31140.83
614.15	30813.15
614.31	30567.40
614.46	30682.08
614.62	30712.51
614.77	31068.27
614.92	30719.53
615.08	31007.42
615.23	31091.68
615.38	30476.12
615.54	30597.82
615.69	30590.80
615.84	30499.52
616.00	31021.46
616.15	30859.96
616.30	30728.89
616.46	30464.41
616.61	30712.51
616.76	30904.43
616.92	30581.44
617.07	30827.20
617.22	30581.44
617.37	30354.41
617.53	30522.93
617.68	30487.82
617.83	30438.67
617.99	30260.79
618.14	30658.68
618.29	30567.40
618.45	30242.06
618.60	30892.73
618.75	30143.76
618.90	30295.89
619.06	30654.00
619.21	30260.79
619.36	30340.36
619.51	30169.51
619.67	30103.97
619.82	29916.73
619.97	30256.11
620.12	29790.34
620.28	30057.16
620.43	30071.20
620.58	30642.29
620.73	30445.69
620.89	30424.62
621.04	30178.87
621.19	30064.18
621.34	30005.67
621.49	29858.21
621.65	29998.65
621.80	30291.21
621.95	30008.01
622.10	29888.64
622.25	30029.07
622.41	29984.60
622.56	29624.16
622.71	30202.27
622.86	30258.45
623.01	30010.35
623.16	30082.91
623.32	29802.04
623.47	29762.25
623.62	29792.68
623.77	29624.16
623.92	30178.87
624.07	29949.50
624.23	29560.97
624.38	29816.08
624.53	30101.63
624.68	30157.80
624.83	29869.92
624.98	29715.44
625.13	29823.11
625.29	30146.10
625.44	29710.76
625.59	29181.80
625.74	29539.90
625.89	29237.97
626.04	29537.56
626.19	29385.43
626.34	29771.61
626.49	29202.86
626.65	29565.65
626.80	29532.88
626.95	29736.51
627.10	29591.39
627.25	29851.19
627.40	29305.85
627.55	29537.56
627.70	29530.54
627.85	29432.24
628.00	29149.03
628.15	28741.78
628.30	28769.86
628.45	29415.85
628.60	29247.33
628.76	29624.16
628.91	29446.28
629.06	29422.87
629.21	29317.55
629.36	29060.09
629.51	28804.97
629.66	29291.80
629.81	28755.82
629.96	28987.53
630.11	29172.44
630.26	29064.77
630.41	29193.50
630.56	28947.75
630.71	29060.09
630.86	28837.74
631.01	29097.54
631.16	29312.87
631.31	29083.50
631.46	29053.07
631.61	29254.36
631.76	29062.43
631.91	28840.08
632.06	29015.62
632.21	28819.02
632.36	28673.90
632.51	28367.29
632.66	28727.74
632.81	28388.36
632.96	28781.57
633.10	29024.98
633.25	28987.53
633.40	29209.89
633.55	28893.91
633.70	28500.70
633.85	28287.71
634.00	28678.58
634.15	28362.61
634.30	28208.14
634.45	28552.20
634.60	28652.84
634.75	28606.03
634.90	28601.35
635.05	28676.24
635.19	28683.27
635.34	28709.01
635.49	28549.85
635.64	28854.12
635.79	28362.61
635.94	28580.28
636.09	28451.55
636.24	28067.70
636.39	28163.67
636.53	28390.70
636.68	28187.07
636.83	28236.22
636.98	28407.08
637.13	28379.00
637.28	28711.35
637.43	28510.07
637.57	28685.61
637.72	28257.29
637.87	28346.23
638.02	28252.61
638.17	28203.46
638.32	28046.64
638.46	27768.12
638.61	27990.47
638.76	28168.35
638.91	27850.03
639.06	27885.14
639.20	28393.04
639.35	27866.42
639.50	28023.23
639.65	28013.87
639.80	27943.66
639.94	27826.63
640.09	28175.37
640.24	27988.13
640.39	28009.19
640.54	27672.15
640.68	27950.68
640.83	27704.92
640.98	27625.34
641.13	27714.28
641.27	27908.55
641.42	27969.40
641.57	27796.20
641.72	27922.59
641.86	27569.17
642.01	27302.35
642.16	27623.00
642.31	27271.92
642.45	27707.26
642.60	27606.62
642.75	27541.08
642.90	27463.85
643.04	27433.42
643.19	27386.61
643.34	27555.13
643.48	27639.39
643.63	27740.03
643.78	27417.04
643.93	27307.03
644.07	27480.23
644.22	27513.00
644.37	27529.38
644.51	27681.52
644.66	27676.83
644.81	27342.14
644.95	27241.50
645.10	27463.85
645.25	27260.22
645.39	27063.61
645.54	27517.68
645.69	27335.12
645.83	27250.86
645.98	27695.56
646.13	27402.99
646.27	27288.31
646.42	27227.45
646.57	27161.92
646.71	26881.05
646.86	27206.39
647.00	27262.56
647.15	26845.94
647.30	27047.23
647.44	27070.64
647.59	26726.58
647.74	26941.91
647.88	26782.75
648.03	27285.97
648.17	27417.04
648.32	27232.13
648.47	27292.99
648.61	27040.21
648.76	27168.94
648.90	26841.26
649.05	27208.73
649.20	26672.74
649.34	27103.40
649.49	26698.49
649.63	26967.65
649.78	26944.25
649.92	26401.24
650.07	27075.32
650.21	26771.05
650.36	27033.19
650.51	26595.51
650.65	27215.75
650.80	26808.50
650.94	26815.52
651.09	26410.60
651.23	26422.31
651.38	26546.36
651.52	26541.68
651.67	26539.33
651.81	26719.56
651.96	26597.85
652.10	26384.86
652.25	26710.19
652.39	26654.02
652.54	26471.46
652.68	26614.23
652.83	26726.58
652.97	26672.74
653.12	26719.56
653.26	26476.14
653.41	26562.74
653.55	26499.55
653.70	25968.24
653.84	26251.45
653.99	26302.94
654.13	26410.60
654.27	26532.31
654.42	26279.54
654.56	26384.86
654.71	26410.60
654.85	26328.69
655.00	26134.42
655.14	26108.68
655.29	26359.11
655.43	26572.10
655.57	26253.79
655.72	26171.87
655.86	26382.52
656.01	26335.71
656.15	26277.19
656.30	26345.07
656.44	26431.67
656.58	25605.46
656.73	25951.86
656.87	25872.28
657.01	26038.46
657.16	25958.88
657.30	26333.37
657.45	25846.54
657.59	26050.16
657.73	26066.55
657.88	25788.02
658.02	25668.66
658.16	25727.17
658.31	25617.16
658.45	25813.77
658.60	25481.41
658.74	25722.49
658.88	25855.90
659.03	25411.20
659.17	25369.07
659.31	25483.75
659.46	25504.82
659.60	25647.59
659.74	25656.95
659.89	25549.29
660.03	25708.44
660.17	25123.31
660.32	25270.76
660.46	25617.16
660.60	24975.86
660.74	25188.85
660.89	25252.04
661.03	25095.22
661.17	25261.40
661.32	25039.05
661.46	25188.85
661.60	25142.03
661.74	25207.57
661.89	25214.59
662.03	25525.88
662.17	24907.98
662.31	24868.19
662.46	25142.03
662.60	24741.80
662.74	25076.50
662.88	24912.66
663.03	24584.99
663.17	25081.18
663.31	24694.99
663.45	24835.42
663.60	24395.40
663.74	24599.03
663.88	25017.99
664.02	24678.61
664.17	24793.29
664.31	24826.06
664.45	24570.94
664.59	24524.13
664.73	24823.72
664.88	24484.34
665.02	24182.42
665.16	24276.04
665.30	24528.81
665.44	24414.13
665.59	24306.46
665.73	23976.45
665.87	23899.21
666.01	24341.57
666.15	24034.96
666.29	24603.71
666.44	24053.69
666.58	24376.68
666.72	23861.76
666.86	23763.46
667.00	23967.09
667.14	23936.66
667.28	23637.07
667.43	24269.01
667.57	24051.34
667.71	23796.23
667.85	23625.37
667.99	23524.72
668.13	23662.82
668.27	23372.59
668.41	23800.91
668.56	23541.11
668.70	23737.71
668.84	23733.03
668.98	23470.89
669.12	23346.84
669.26	23475.57
669.40	23021.51
669.54	23594.94
669.68	23377.27
669.82	23283.65
669.96	23115.13
670.10	23201.73
670.25	23103.43
670.39	23103.43
670.53	23049.60
670.67	22838.95
670.81	23353.87
670.95	23068.32
671.09	22974.70
671.23	23161.94
671.37	22764.05
671.51	22864.69
671.65	23049.60
671.79	22986.40
671.93	22534.68
672.07	22656.39
672.21	22508.93
672.35	22441.06
672.49	22490.21
672.63	22506.59
672.77	22312.33
672.91	22459.78
673.05	22277.22
673.19	22541.70
673.33	22246.79
673.47	21994.01
673.61	22499.57
673.75	22263.18
673.89	22422.33
674.03	22047.85
674.17	21837.20
674.31	22010.40
674.45	22073.59
674.59	21851.24
674.73	22075.93
674.87	22010.40
675.01	21830.18
675.15	21736.56
675.29	21455.69
675.43	21619.53
675.56	21495.48
675.70	21399.52
675.84	21553.99
675.98	20987.58
676.12	21919.12
676.26	21633.57
676.40	21544.63
676.54	21343.35
676.68	21256.75
676.82	21202.91
676.96	21099.93
677.10	21151.42
677.23	20795.66
677.37	21003.97
677.51	20807.36
677.65	21097.59
677.79	20680.97
677.93	20732.47
678.07	20854.17
678.21	20472.67
678.34	20514.80
678.48	20535.86
678.62	20610.76
678.76	20266.70
678.90	20135.63
679.04	20313.51
679.18	20215.21
679.31	19576.24
679.45	19953.07
679.59	19880.51
679.73	19648.80
679.87	19957.75
680.00	19676.88
680.14	19529.43
680.28	19351.55
680.42	19742.42
680.56	19585.60
680.70	19482.62
680.83	19627.73
680.97	19442.83
681.11	19742.42
681.25	19302.40
681.39	19225.16
681.52	19328.14
681.66	18927.91
681.80	19201.76
681.94	19070.68
682.07	19161.97
682.21	19140.90
682.35	18918.55
682.49	18738.33
682.62	18743.01
682.76	18705.56
682.90	18588.53
683.04	18747.69
683.17	18345.12
683.31	18375.55
683.45	18661.09
683.59	18642.37
683.72	18532.36
683.86	18242.14
684.00	18518.32
684.13	18340.44
684.27	18272.56
684.41	17907.44
684.55	18003.40
684.68	17844.24
684.82	17874.67
684.96	17914.46
685.09	17806.80
685.23	17980.00
685.37	17589.13
685.50	17652.32
685.64	17631.26
685.78	17860.63
685.91	17664.02
686.05	17769.35
686.19	17394.86
686.32	17385.50
686.46	17118.68
686.60	16994.63
686.73	17179.53
686.87	17345.71
687.01	17099.95
687.14	16795.68
687.28	16805.05
687.42	16702.06
687.55	16774.62
687.69	16704.40
687.82	16554.61
687.96	16568.65
688.10	16563.97
688.23	16737.17
688.37	16620.14
688.50	16662.27
688.64	16535.88
688.78	16470.35
688.91	16369.71
689.05	16203.53
689.18	16079.48
689.32	15616.05
689.46	15976.50
689.59	16032.67
689.73	16051.39
689.86	15960.11
690.00	16086.50
690.13	15990.54
690.27	15627.76
690.41	15833.72
690.54	15655.84
690.68	15679.25
690.81	15779.89
690.95	15690.95
691.08	15639.46
691.22	15293.06
691.35	15330.51
691.49	15456.90
691.62	15117.52
691.76	15047.30
691.89	14953.68
692.03	14787.50
692.16	14675.16
692.30	14817.93
692.43	14829.63
692.57	14551.11
692.70	14956.02
692.84	14506.64
692.97	14780.48
693.11	14967.73
693.24	14569.83
693.38	14548.77
693.51	14473.87
693.65	14438.76
693.78	14450.47
693.92	14363.87
694.05	14260.88
694.19	14281.95
694.32	13989.38
694.45	14022.15
694.59	13783.41
694.72	13774.05
694.86	13870.01
694.99	13558.72
695.13	13692.13
695.26	13811.50
695.39	13488.51
695.53	13488.51
695.66	13652.34
695.80	13359.78
695.93	13425.31
696.07	13469.78
696.20	13441.70
696.33	13336.37
696.47	13357.44
696.60	13004.02
696.73	13069.55
696.87	13268.50
697.00	12879.97
697.14	12905.71
697.27	12952.52
697.40	13107.00
697.54	12872.95
697.67	12692.73
697.80	12449.31
697.94	12814.43
698.07	12355.69
698.21	12470.37
698.34	12496.12
698.47	12615.49
698.61	12407.18
698.74	12624.85
698.87	12332.28
699.01	12182.49
699.14	12358.03
699.27	12039.72
699.40	12294.83
699.54	11988.22
699.67	12208.23
699.80	11946.09
699.94	12009.29
700.07	11782.26
700.20	11662.89
700.34	11749.49
700.47	11618.42
700.60	11566.93
700.73	11623.10
700.87	11529.48
701.00	11318.83
701.13	11393.73
701.26	11400.75
701.40	11410.11
701.53	11658.21
701.66	11358.62
701.79	11372.66
701.93	11400.75
702.06	10977.11
702.19	10813.28
702.32	11075.42
702.46	10960.73
702.59	10752.42
702.72	10895.19
702.85	10881.15
702.99	10949.03
703.12	10794.55
703.25	10689.23
703.38	10597.95
703.51	10630.71
703.65	10576.88
703.78	10387.30
703.91	10377.94
704.04	10541.77
704.17	10661.14
704.31	10380.28
704.44	10450.49
704.57	10476.24
704.70	10284.31
704.83	10209.42
704.96	10162.61
705.10	9886.42
705.23	9940.26
>>>>>End Processed Spectral Data<<<<<
