SpectraSuite Data File
++++++++++++++++++++++++++++++++++++
Date: Fri Oct 18 13:58:19 GMT-05:00 2013
User: bianchi
Dark Spectrum Present: No
Reference Spectrum Present: No
Number of Sampled Component Spectra: 1
Spectrometers: USB2+H05261
Integration Time (usec): 50000 (USB2+H05261)
Spectra Averaged: 1 (USB2+H05261)
Boxcar Smoothing: 0 (USB2+H05261)
Correct for Electrical Dark: No (USB2+H05261)
Strobe/Lamp Enabled: No (USB2+H05261)
Correct for Detector Non-linearity: No (USB2+H05261)
Correct for Stray Light: No (USB2+H05261)
Number of Pixels in Processed Spectrum: 2048
>>>>>Begin Processed Spectral Data<<<<<
365.73	0.00
365.92	0.00
366.12	0.00
366.32	0.00
366.52	0.00
366.72	0.00
366.91	0.00
367.11	0.00
367.31	0.00
367.51	0.00
367.70	0.00
367.90	0.00
368.10	0.00
368.30	0.00
368.49	0.00
368.69	0.00
368.89	0.00
369.09	0.00
369.28	0.00
369.48	0.00
369.68	0.00
369.87	0.00
370.07	0.00
370.27	0.00
370.47	0.00
370.66	84.26
370.86	16.38
371.06	102.98
371.25	131.07
371.45	84.26
371.65	189.58
371.84	86.60
372.04	166.18
372.24	145.11
372.44	184.90
372.63	175.54
372.83	194.26
373.03	290.23
373.22	194.26
373.42	177.88
373.62	198.95
373.81	128.73
374.01	250.44
374.21	344.06
374.40	191.92
374.60	198.95
374.79	248.10
374.99	285.55
375.19	215.33
375.38	212.99
375.58	318.31
375.78	224.69
375.97	273.84
376.17	248.10
376.37	187.24
376.56	252.78
376.76	283.20
376.95	196.60
377.15	243.42
377.35	262.14
377.54	283.20
377.74	250.44
377.93	259.80
378.13	322.99
378.33	264.48
378.52	290.23
378.72	266.82
378.91	236.39
379.11	248.10
379.31	229.37
379.50	243.42
379.70	348.74
379.89	386.19
380.09	327.68
380.28	339.38
380.48	348.74
380.68	215.33
380.87	234.05
381.07	266.82
381.26	355.76
381.46	313.63
381.65	269.16
381.85	315.97
382.04	346.40
382.24	362.78
382.43	404.91
382.63	311.29
382.83	299.59
383.02	306.61
383.22	397.89
383.41	327.68
383.61	292.57
383.80	353.42
384.00	367.46
384.19	400.23
384.39	369.80
384.58	411.93
384.78	362.78
384.97	351.08
385.17	379.17
385.36	358.10
385.56	386.19
385.75	386.19
385.95	379.17
386.14	348.74
386.34	451.72
386.53	395.55
386.72	301.93
386.92	339.38
387.11	407.25
387.31	449.38
387.50	433.00
387.70	442.36
387.89	341.72
388.09	388.53
388.28	411.93
388.48	407.25
388.67	463.43
388.86	477.47
389.06	444.70
389.25	491.51
389.45	442.36
389.64	418.96
389.84	482.15
390.03	447.04
390.22	472.79
390.42	486.83
390.61	442.36
390.81	486.83
391.00	475.13
391.19	503.22
391.39	491.51
391.58	559.39
391.78	510.24
391.97	475.13
392.16	503.22
392.36	524.28
392.55	559.39
392.75	599.18
392.94	514.92
393.13	596.84
393.33	594.50
393.52	503.22
393.71	543.00
393.91	561.73
394.10	622.58
394.29	519.60
394.49	573.43
394.68	613.22
394.88	578.11
395.07	650.67
395.26	601.52
395.46	580.45
395.65	634.29
395.84	734.93
396.04	662.37
396.23	676.41
396.42	638.97
396.62	594.50
396.81	660.03
397.00	678.76
397.19	624.92
397.39	667.05
397.58	763.01
397.77	657.69
397.97	699.82
398.16	739.61
398.35	648.33
398.55	653.01
398.74	690.46
398.93	702.16
399.12	727.91
399.32	671.73
399.51	713.86
399.70	648.33
399.90	751.31
400.09	648.33
400.28	807.48
400.47	755.99
400.67	809.83
400.86	699.82
401.05	788.76
401.24	788.76
401.44	781.74
401.63	781.74
401.82	746.63
402.01	788.76
402.21	734.93
402.40	844.93
402.59	805.14
402.78	814.51
402.97	894.08
403.17	826.21
403.36	809.83
403.55	933.87
403.74	912.81
403.93	880.04
404.13	875.36
404.32	933.87
404.51	915.15
404.70	933.87
404.89	851.96
405.09	861.32
405.28	959.62
405.47	1006.43
405.66	966.64
405.85	1093.03
406.05	983.02
406.24	985.37
406.43	966.64
406.62	1032.18
406.81	1057.92
407.00	1004.09
407.20	903.45
407.39	992.39
407.58	1088.35
407.77	936.21
407.96	1043.88
408.15	1093.03
408.34	1053.24
408.54	1013.45
408.73	1057.92
408.92	1139.84
409.11	1064.94
409.30	1107.07
409.49	1125.80
409.68	1186.65
409.87	1184.31
410.07	1228.78
410.26	1184.31
410.45	1188.99
410.64	1170.27
410.83	1193.67
411.02	1228.78
411.21	1158.57
411.40	1277.93
411.59	1228.78
411.78	1242.82
411.98	1252.19
412.17	1299.00
412.36	1371.55
412.55	1336.45
412.74	1378.58
412.93	1362.19
413.12	1291.98
413.31	1385.60
413.50	1249.85
413.69	1413.68
413.88	1444.11
414.07	1451.13
414.26	1460.49
414.45	1565.82
414.64	1411.34
414.83	1439.43
415.02	1621.99
415.22	1568.16
415.41	1439.43
415.60	1586.88
415.79	1591.56
415.98	1659.44
416.17	1650.08
416.36	1607.95
416.55	1650.08
416.74	1619.65
416.93	1640.72
417.12	1582.20
417.31	1703.91
417.50	1598.59
417.69	1722.63
417.88	1699.23
418.07	1736.68
418.26	1696.89
418.45	1755.40
418.64	1739.02
418.83	1757.74
419.02	1748.38
419.21	1853.70
419.39	1849.02
419.58	1928.60
419.77	1743.70
419.96	1940.30
420.15	1926.26
420.34	1867.75
420.53	1842.00
420.72	1952.01
420.91	1975.41
421.10	1914.56
421.29	2015.20
421.48	1895.83
421.67	1865.41
421.86	1907.54
422.05	1898.17
422.24	1947.33
422.43	1968.39
422.61	2059.67
422.80	2008.18
422.99	1987.11
423.18	2005.84
423.37	2017.54
423.56	1933.28
423.75	1970.73
423.94	2017.54
424.13	1853.70
424.32	1926.26
424.50	2040.95
424.69	2012.86
424.88	2080.74
425.07	1919.24
425.26	2029.24
425.45	1982.43
425.64	2038.61
425.83	2010.52
426.01	2106.48
426.20	2083.08
426.39	2139.25
426.58	2073.71
426.77	2040.95
426.96	2080.74
427.15	2115.84
427.33	2162.66
427.52	2099.46
427.71	2251.60
427.90	2188.40
428.09	2221.17
428.28	2237.55
428.46	2080.74
428.65	2111.16
428.84	2300.75
429.03	2310.11
429.22	2256.28
429.40	2457.56
429.59	2340.54
429.78	2087.76
429.97	2132.23
430.16	2223.51
430.34	2267.98
430.53	2368.62
430.72	2310.11
430.91	2258.62
431.10	2354.58
431.28	2277.34
431.47	2310.11
431.66	2466.92
431.85	2326.49
432.03	2408.41
432.22	2462.24
432.41	2553.52
432.60	2485.65
432.79	2441.18
432.97	2480.97
433.16	2541.82
433.35	2532.46
433.54	2499.69
433.72	2504.37
433.91	2420.11
434.10	2689.28
434.28	2490.33
434.47	2532.46
434.66	2513.74
434.85	2670.55
435.03	2644.81
435.22	2621.40
435.41	2612.04
435.59	2602.68
435.78	2682.25
435.97	2682.25
436.16	2642.46
436.34	2658.85
436.53	2708.00
436.72	2656.51
436.90	2649.49
437.09	2778.22
437.28	2612.04
437.46	2715.02
437.65	2759.49
437.84	2766.51
438.02	2717.36
438.21	2785.24
438.40	2857.79
438.58	2902.26
438.77	2869.50
438.96	2834.39
439.14	2904.60
439.33	2930.35
439.52	3023.97
439.70	3005.25
439.89	3042.70
440.08	3049.72
440.26	3052.06
440.45	2977.16
440.63	3178.45
440.82	3229.94
441.01	3152.70
441.19	3075.46
441.38	3218.24
441.57	3159.72
441.75	3234.62
441.94	3136.32
442.12	3213.56
442.31	3325.90
442.50	3342.28
442.68	3365.69
442.87	3316.54
443.05	3272.07
443.24	3445.27
443.43	3564.64
443.61	3414.84
443.80	3468.67
443.98	3307.18
444.17	3197.17
444.35	3510.80
444.54	3463.99
444.73	3435.91
444.91	3403.14
445.10	3494.42
445.28	3548.25
445.47	3489.74
445.65	3496.76
445.84	3459.31
446.02	3552.93
446.21	3531.87
446.39	3550.59
446.58	3480.38
446.77	3588.04
446.95	3346.97
447.14	3574.00
447.32	3480.38
447.51	3548.25
447.69	3499.10
447.88	3510.80
448.06	3494.42
448.25	3595.06
448.43	3578.68
448.62	3541.23
448.80	3588.04
448.99	3634.85
449.17	3627.83
449.36	3681.66
449.54	3550.59
449.73	3705.07
449.91	3740.18
450.10	3674.64
450.28	3700.39
450.46	3730.81
450.65	3740.18
450.83	3728.47
451.02	3873.59
451.20	3894.65
451.39	3758.90
451.57	3824.44
451.76	3803.37
451.94	3899.33
452.13	3784.65
452.31	3840.82
452.49	3768.26
452.68	3887.63
452.86	3782.31
453.05	3939.12
453.23	4067.85
453.42	3836.14
453.60	3866.56
453.78	3974.23
453.97	3873.59
454.15	3967.21
454.34	3983.59
454.52	3974.23
454.70	4009.34
454.89	4252.75
455.07	3962.53
455.26	3934.44
455.44	4102.96
455.62	4053.81
455.81	4142.75
455.99	4182.54
456.17	4194.24
456.36	4182.54
456.54	4257.43
456.73	4189.56
456.91	4400.21
457.09	4468.08
457.28	4297.22
457.46	4292.54
457.64	4362.76
457.83	4365.10
458.01	4306.59
458.19	4374.46
458.38	4219.99
458.56	4505.53
458.74	4519.57
458.93	4498.51
459.11	4486.81
459.29	4414.25
459.48	4615.54
459.66	4521.92
459.84	4407.23
460.03	4547.66
460.21	4648.30
460.39	4683.41
460.57	4528.94
460.76	4610.86
460.94	4697.46
461.12	4723.20
461.31	4578.09
461.49	4538.30
461.67	4739.58
461.85	4798.10
462.04	4704.48
462.22	5018.11
462.40	4758.31
462.59	4793.42
462.77	4772.35
462.95	4884.70
463.13	4950.23
463.32	4851.93
463.50	4884.70
463.68	4713.84
463.86	4798.10
464.05	4779.37
464.23	4929.17
464.41	4884.70
464.59	4772.35
464.78	4929.17
464.96	4947.89
465.14	4788.74
465.32	4961.94
465.50	5078.96
465.69	5001.72
465.87	4961.94
466.05	5022.79
466.23	4903.42
466.41	5039.17
466.60	5116.41
466.78	5025.13
466.96	5128.11
467.14	5071.94
467.32	5181.95
467.51	5291.95
467.69	5107.05
467.87	5170.24
468.05	5188.97
468.23	5214.71
468.41	5151.52
468.60	5135.14
468.78	5313.02
468.96	5238.12
469.14	5378.55
469.32	5350.46
469.50	4983.00
469.69	5387.91
469.87	5277.91
470.05	5540.05
470.23	5434.72
470.41	5465.15
470.59	5387.91
470.77	5434.72
470.95	5575.16
471.14	5612.60
471.32	5467.49
471.50	5776.44
471.68	5654.73
471.86	5570.48
472.04	5727.29
472.22	5834.96
472.40	5549.41
472.58	5736.65
472.77	5923.90
472.95	5804.53
473.13	6033.90
473.31	5827.93
473.49	5762.40
473.67	5905.17
473.85	5804.53
474.03	6106.46
474.21	5989.43
474.39	6043.26
474.57	6033.90
474.75	6225.82
474.93	6303.06
475.12	6209.44
475.30	6090.07
475.48	6300.72
475.66	6520.73
475.84	6408.39
476.02	6380.30
476.20	6469.24
476.38	6509.03
476.56	6532.44
476.74	6415.41
476.92	6537.12
477.10	6628.40
477.28	6733.72
477.46	6722.02
477.64	6759.47
477.82	6640.10
478.00	7037.99
478.18	7035.65
478.36	7012.24
478.54	7201.83
478.72	6930.33
478.90	7239.28
479.08	7396.09
479.26	7307.15
479.44	7522.48
479.62	7365.67
479.80	7513.12
479.98	7513.12
480.16	7431.20
480.34	7456.95
480.52	7709.72
480.70	7801.01
480.88	7581.00
481.06	7791.64
481.24	7646.53
481.41	7932.08
481.59	7939.10
481.77	7946.12
481.95	7974.21
482.13	8290.18
482.31	8226.98
482.49	8215.28
482.67	8372.10
482.85	8351.03
483.03	8493.80
483.21	8718.50
483.39	8615.51
483.57	8512.53
483.74	8688.07
483.92	8933.82
484.10	8617.85
484.28	8863.61
484.46	9116.39
484.64	9055.53
484.82	9350.44
485.00	9181.92
485.18	9287.25
485.35	9315.33
485.53	9434.70
485.71	9570.45
485.89	9568.11
486.07	9394.91
486.25	9619.60
486.43	9584.49
486.61	9867.70
486.78	9703.86
486.96	10223.46
487.14	10001.11
487.32	9926.21
487.50	10188.35
487.68	10431.77
487.85	10298.36
488.03	10583.90
488.21	10504.32
488.39	10586.24
488.57	10567.52
488.75	10951.37
488.92	11002.86
489.10	10761.78
489.28	11059.03
489.46	11232.23
489.64	11199.46
489.81	11138.61
489.99	11304.79
490.17	11510.75
490.35	11669.91
490.53	11510.75
490.70	11559.91
490.88	12032.69
491.06	11698.00
491.24	11749.49
491.41	11772.89
491.59	12102.91
491.77	12112.27
491.95	12170.79
492.13	12219.94
492.30	12402.50
492.48	12299.52
492.66	12435.27
492.84	12437.61
493.01	12734.85
493.19	12659.96
493.37	13027.42
493.54	12704.43
493.72	12938.48
493.90	13102.32
494.08	13057.85
494.25	13057.85
494.43	13214.66
494.61	13270.84
494.79	13277.86
494.96	13451.06
495.14	13834.91
495.32	13685.11
495.49	13659.37
495.67	13832.57
495.85	13853.63
496.02	13898.10
496.20	13949.59
496.38	13958.96
496.55	13809.16
496.73	14342.80
496.91	14260.88
497.09	14340.46
497.26	14420.04
497.44	14265.57
497.62	14436.42
497.79	14593.24
497.97	14544.09
498.14	14913.89
498.32	14827.29
498.50	14843.68
498.67	15108.16
498.85	15021.56
499.03	15213.48
499.20	14949.00
499.38	15051.99
499.56	15201.78
499.73	15576.27
499.91	15426.47
500.08	15606.69
500.26	15342.21
500.44	15587.97
500.61	15517.75
500.79	15440.51
500.97	15831.38
501.14	15789.25
501.32	16023.31
501.49	16044.37
501.67	15922.66
501.84	16074.80
502.02	16166.08
502.20	16133.31
502.37	16451.63
502.55	16229.27
502.72	16585.04
502.90	16210.55
503.07	16327.58
503.25	16402.47
503.43	16549.93
503.60	16767.60
503.78	16702.06
503.95	16648.23
504.13	16716.11
504.30	16938.46
504.48	16751.21
504.65	16879.94
504.83	16950.16
505.01	17170.17
505.18	17355.07
505.36	17224.00
505.53	16875.26
505.71	17186.55
505.88	17221.66
506.06	17212.30
506.23	17741.26
506.41	17575.08
506.58	17521.25
506.76	17500.19
506.93	17776.37
507.11	17565.72
507.28	17603.17
507.46	17649.98
507.63	17862.97
507.81	17858.29
507.98	17745.94
508.16	17977.65
508.33	17715.51
508.50	17884.03
508.68	18209.37
508.85	18200.01
509.03	18216.39
509.20	18375.55
509.38	18431.72
509.55	18380.23
509.73	18340.44
509.90	18466.83
510.08	18738.33
510.25	18396.61
510.42	18696.20
510.60	18520.66
510.77	18988.77
510.95	18862.38
511.12	18696.20
511.30	18757.05
511.47	19077.71
511.64	19218.14
511.82	19077.71
511.99	19307.08
512.17	19461.55
512.34	19250.91
512.51	19243.88
512.69	19246.23
512.86	19531.77
513.04	19426.45
513.21	19548.15
513.38	19857.10
513.56	19950.73
513.73	19419.42
513.90	19688.59
514.08	19616.03
514.25	20039.67
514.43	20257.34
514.60	19934.34
514.77	19953.07
514.95	19838.38
515.12	19852.42
515.29	19817.32
515.47	19941.36
515.64	20161.37
515.81	19866.47
515.99	20341.60
516.16	20540.54
516.33	20533.52
516.51	20379.04
516.68	20287.76
516.85	20365.00
517.03	20444.58
517.20	20826.09
517.37	20774.60
517.54	20381.38
517.72	20491.39
517.89	20875.24
518.06	20793.32
518.24	20947.79
518.41	20680.97
518.58	21174.83
518.75	20957.16
518.93	21139.72
519.10	21109.29
519.27	20957.16
519.45	21352.71
519.62	21020.35
519.79	21280.15
519.96	20929.07
520.14	21514.20
520.31	21177.17
520.48	21495.48
520.65	21544.63
520.83	21820.81
521.00	21539.95
521.17	21530.59
521.34	21708.47
521.52	21577.40
521.69	21476.76
521.86	21600.80
522.03	22108.70
522.20	21921.46
522.38	22019.76
522.55	21818.47
522.72	21970.61
522.89	21909.75
523.07	21958.91
523.24	22419.99
523.41	22335.73
523.58	22305.31
523.75	22403.61
523.92	22260.84
524.10	22260.84
524.27	22338.07
524.44	22412.97
524.61	22443.40
524.78	22857.67
524.96	22764.05
525.13	22661.07
525.30	22728.94
525.47	22651.70
525.64	22944.27
525.81	22904.48
525.98	23159.60
526.16	22955.97
526.33	22768.73
526.50	23152.58
526.67	23108.11
526.84	23171.30
527.01	23129.17
527.18	23199.39
527.36	23400.68
527.53	23384.29
527.70	23335.14
527.87	23330.46
528.04	23096.41
528.21	23391.31
528.38	23037.89
528.55	23428.76
528.72	23325.78
528.89	23819.63
529.07	23541.11
529.24	23190.03
529.41	23625.37
529.58	23805.59
529.75	23669.84
529.92	23637.07
530.09	23630.05
530.26	24034.96
530.43	23948.36
530.60	23503.66
530.77	24081.77
530.94	23899.21
531.11	23749.42
531.28	23667.50
531.46	24184.76
531.63	23955.38
531.80	24196.46
531.97	24432.85
532.14	24416.47
532.31	24095.82
532.48	24357.96
532.65	24269.01
532.82	24126.24
532.99	24521.79
533.16	24451.58
533.33	24463.28
533.50	24741.80
533.67	24685.63
533.84	24081.77
534.01	24510.09
534.18	24198.80
534.35	24517.11
534.52	24343.91
534.69	24463.28
534.86	24812.02
535.03	24561.58
535.20	24922.02
535.37	24915.00
535.54	24809.68
535.71	24545.20
535.88	25015.65
536.05	25282.47
536.22	24954.79
536.38	25401.83
536.55	25247.36
536.72	25020.33
536.89	24865.85
537.06	25048.41
537.23	25490.77
537.40	25081.18
537.57	25198.21
537.74	25212.25
537.91	25912.07
538.08	25521.20
538.25	25008.62
538.42	25415.88
538.59	25563.33
538.75	25062.46
538.92	25465.03
539.09	25603.12
539.26	25343.32
539.43	25621.84
539.60	25628.87
539.77	25685.04
539.94	25755.26
540.11	25769.30
540.28	25654.61
540.44	25876.96
540.61	25703.76
540.78	25926.11
540.95	26096.97
541.12	25888.67
541.29	25855.90
541.46	25996.33
541.62	26031.44
541.79	25795.04
541.96	25668.66
542.13	26122.72
542.30	26111.02
542.47	26253.79
542.63	26359.11
542.80	26307.62
542.97	26698.49
543.14	26539.33
543.31	26333.37
543.48	26551.04
543.64	26551.04
543.81	26881.05
543.98	26520.61
544.15	26663.38
544.32	26864.67
544.48	26838.92
544.65	26618.91
544.82	26841.26
544.99	26478.48
545.16	27007.44
545.32	26754.66
545.49	27019.14
545.66	26988.72
545.83	27082.34
546.00	27072.98
546.16	26904.46
546.33	26642.32
546.50	26625.93
546.67	27175.96
546.83	26593.17
547.00	26752.32
547.17	26862.33
547.34	27473.21
547.50	27227.45
547.67	27435.76
547.84	26810.84
548.00	27021.48
548.17	27236.81
548.34	27463.85
548.51	27445.12
548.67	27449.80
548.84	27433.42
549.01	27248.52
549.18	27278.94
549.34	27438.10
549.51	27370.22
549.68	27651.09
549.84	27660.45
550.01	27894.50
550.18	27498.95
550.34	27620.66
550.51	27786.84
550.68	27620.66
550.84	27742.37
551.01	27887.48
551.18	27681.52
551.34	27599.60
551.51	27653.43
551.68	27941.32
551.84	27730.67
552.01	27910.89
552.18	28051.32
552.34	28056.00
552.51	28163.67
552.68	27592.58
552.84	27840.67
553.01	27828.97
553.18	28170.69
553.34	27999.83
553.51	27758.75
553.67	28264.31
553.84	28383.68
554.01	28266.65
554.17	28271.33
554.34	28442.19
554.51	28327.50
554.67	28332.18
554.84	28524.11
555.00	28140.26
555.17	28479.64
555.33	28048.98
555.50	28158.99
555.67	28119.20
555.83	28261.97
556.00	28240.90
556.16	28371.97
556.33	28435.17
556.50	28741.78
556.66	28662.20
556.83	28671.56
556.99	28694.97
557.16	29029.66
557.32	28528.79
557.49	28603.69
557.65	28224.52
557.82	28549.85
557.98	28624.75
558.15	28748.80
558.32	28538.15
558.48	28549.85
558.65	28746.46
558.81	28994.56
558.98	28458.57
559.14	29085.84
559.31	28774.55
559.47	28781.57
559.64	28608.37
559.80	28734.76
559.97	29165.42
560.13	29010.94
560.30	28933.70
560.46	29085.84
560.63	29565.65
560.79	29144.35
560.96	29310.53
561.12	29266.06
561.29	28884.55
561.45	28940.72
561.61	29057.75
561.78	29113.92
561.94	28910.30
562.11	29275.42
562.27	29151.37
562.44	29235.63
562.60	28833.06
562.77	29008.60
562.93	28922.00
563.10	29670.97
563.26	29127.97
563.42	29324.57
563.59	29015.62
563.75	29202.86
563.92	29163.08
564.08	29118.60
564.24	29216.91
564.41	29298.83
564.57	29092.86
564.74	29118.60
564.90	29668.63
565.07	29518.84
565.23	29099.88
565.39	29195.84
565.56	29570.33
565.72	29600.76
565.88	29486.07
566.05	29158.39
566.21	29376.06
566.38	29397.13
566.54	29373.72
566.70	29727.14
566.87	29841.83
567.03	29324.57
567.19	29612.46
567.36	29443.94
567.52	29277.76
567.68	29593.73
567.85	29172.44
568.01	29731.83
568.17	29570.33
568.34	29511.81
568.50	29453.30
568.66	29167.76
568.83	29989.28
568.99	29481.39
569.15	29881.62
569.32	29663.95
569.48	29244.99
569.64	29755.23
569.81	29745.87
569.97	29324.57
570.13	29483.73
570.30	29352.66
570.46	29790.34
570.62	29701.40
570.78	29457.98
570.95	29647.57
571.11	29773.95
571.27	29570.33
571.43	29570.33
571.60	29582.03
571.76	29560.97
571.92	29776.30
572.09	29692.04
572.25	29909.71
572.41	29912.05
572.57	29713.10
572.74	29497.77
572.90	29752.89
573.06	29942.47
573.22	29993.97
573.38	29844.17
573.55	30052.48
573.71	29848.85
573.87	29706.08
574.03	30075.88
574.20	29766.93
574.36	29282.44
574.52	29329.25
574.68	29876.94
574.84	30066.52
575.01	29933.11
575.17	29795.02
575.33	29951.84
575.49	30120.35
575.65	29993.97
575.82	30036.09
575.98	30043.12
576.14	29633.52
576.30	29762.25
576.46	29926.09
576.62	29708.42
576.79	29956.52
576.95	29724.80
577.11	30171.85
577.27	29963.54
577.43	30026.73
577.59	30103.97
577.75	29687.36
577.92	29680.33
578.08	29785.66
578.24	29457.98
578.40	30209.29
578.56	30342.70
578.72	29860.55
578.88	30464.41
579.04	30239.72
579.21	30136.74
579.37	30244.40
579.53	30089.93
579.69	29827.79
579.85	30160.14
580.01	29907.37
580.17	30047.80
580.33	29905.02
580.49	30068.86
580.65	30054.82
580.82	30026.73
580.98	29759.91
581.14	30609.53
581.30	30230.36
581.46	30153.12
581.62	29930.77
581.78	29940.13
581.94	29895.66
582.10	29743.53
582.26	29855.87
582.42	29968.22
582.58	30256.11
582.74	30059.50
582.90	30326.32
583.06	30099.29
583.22	29731.83
583.38	30080.56
583.54	30340.36
583.70	30239.72
583.86	30129.72
584.02	30015.03
584.18	30270.15
584.34	30347.39
584.50	30265.47
584.66	30101.63
584.82	29596.07
584.98	29890.98
585.14	29848.85
585.30	29956.52
585.46	29944.81
585.62	30263.13
585.78	30494.84
585.94	29951.84
586.10	30059.50
586.26	30504.20
586.42	30277.17
586.58	30382.49
586.74	30249.08
586.90	29802.04
587.06	30073.54
587.22	30361.43
587.38	29986.94
587.54	30380.15
587.70	30375.47
587.86	30305.26
588.02	30824.86
588.18	30490.16
588.34	30415.26
588.49	29940.13
588.65	29921.41
588.81	30462.07
588.97	30174.19
589.13	30122.69
589.29	30174.19
589.45	30349.73
589.61	30466.75
589.77	30522.93
589.93	30272.49
590.08	30803.79
590.24	30476.12
590.40	30401.22
590.56	30464.41
590.72	30129.72
590.88	30157.80
591.04	30415.26
591.20	30565.06
591.35	30698.47
591.51	30679.74
591.67	30965.29
591.83	30871.67
591.99	30455.05
592.15	30347.39
592.31	30740.60
592.46	30349.73
592.62	30567.40
592.78	30457.39
592.94	30415.26
593.10	30658.68
593.26	30810.81
593.41	30448.03
593.57	30696.13
593.73	30567.40
593.89	30370.79
594.05	30621.23
594.20	30546.33
594.36	30305.26
594.52	30160.14
594.68	30583.78
594.84	30525.27
594.99	30778.04
595.15	30581.44
595.31	30799.11
595.47	30602.50
595.62	30960.61
595.78	30590.80
595.94	30375.47
596.10	30682.08
596.25	30745.28
596.41	30738.26
596.57	30874.01
596.73	30918.48
596.88	30946.56
597.04	30689.10
597.20	31124.44
597.36	30658.68
597.51	30778.04
597.67	30906.77
597.83	30607.19
597.99	30845.92
598.14	30654.00
598.30	30775.70
598.46	30527.61
598.61	30857.62
598.77	30553.35
598.93	30771.02
599.09	30639.95
599.24	30745.28
599.40	30864.64
599.56	30710.17
599.71	30918.48
599.87	30948.90
600.03	30515.90
600.18	30621.23
600.34	30859.96
600.50	30752.30
600.65	30815.49
600.81	30366.11
600.97	30778.04
601.12	31239.13
601.28	31007.42
601.44	30885.71
601.59	30663.36
601.75	30422.28
601.91	30909.11
602.06	30794.43
602.22	30703.15
602.37	30668.04
602.53	30841.24
602.69	30991.03
602.84	30771.02
603.00	30890.39
603.16	30899.75
603.31	30904.43
603.47	31061.25
603.62	30522.93
603.78	30923.16
603.94	30548.67
604.09	30646.97
604.25	30616.55
604.40	30567.40
604.56	30649.32
604.71	31206.36
604.87	30934.86
605.03	31016.78
605.18	30569.74
605.34	30199.93
605.49	30562.72
605.65	30714.85
605.80	30391.86
605.96	30623.57
606.12	30518.25
606.27	30841.24
606.43	30518.25
606.58	30621.23
606.74	30937.20
606.89	30476.12
607.05	31026.14
607.20	30820.17
607.36	30600.16
607.51	30548.67
607.67	30497.18
607.82	30370.79
607.98	30520.59
608.13	30377.81
608.29	30462.07
608.44	30628.25
608.60	30501.86
608.75	30986.35
608.91	30586.12
609.06	30499.52
609.22	30607.19
609.37	30232.70
609.53	30602.50
609.68	30401.22
609.84	30319.30
609.99	30223.34
610.15	30562.72
610.30	30635.27
610.46	30141.42
610.61	30621.23
610.76	30359.09
610.92	30506.54
611.07	30349.73
611.23	30239.72
611.38	30464.41
611.54	29965.88
611.69	30412.92
611.84	30015.03
612.00	30162.48
612.15	30197.59
612.31	30398.88
612.46	30099.29
612.62	30637.61
612.77	30300.58
612.92	30515.90
613.08	30728.89
613.23	30354.41
613.39	30260.79
613.54	30071.20
613.69	30237.38
613.85	30129.72
614.00	30288.87
614.15	30228.02
614.31	30431.65
614.46	30382.49
614.62	30309.94
614.77	30326.32
614.92	30120.35
615.08	30031.41
615.23	29869.92
615.38	30033.75
615.54	29635.86
615.69	30106.31
615.84	29855.87
616.00	29972.90
616.15	29872.26
616.30	30682.08
616.46	30101.63
616.61	29605.44
616.76	30010.35
616.92	30129.72
617.07	29921.41
617.22	29942.47
617.37	29542.24
617.53	29701.40
617.68	30239.72
617.83	29640.54
617.99	29699.06
618.14	29905.02
618.29	29867.58
618.45	29984.60
618.60	29984.60
618.75	29750.55
618.90	29879.28
619.06	29722.46
619.21	29825.45
619.36	29745.87
619.51	29436.92
619.67	29294.14
619.82	28975.83
619.97	29406.49
620.12	29542.24
620.28	29493.09
620.43	29816.08
620.58	29558.63
620.73	29362.02
620.89	29727.14
621.04	29720.12
621.19	29736.51
621.34	29415.85
621.49	29549.26
621.65	29563.31
621.80	29359.68
621.95	29263.72
622.10	29371.38
622.25	29006.26
622.41	29331.59
622.56	29514.16
622.71	29413.51
622.86	29436.92
623.01	29303.51
623.16	29268.40
623.32	29268.40
623.47	29113.92
623.62	29240.31
623.77	29350.32
623.92	29537.56
624.07	29069.45
624.23	29336.27
624.38	29242.65
624.53	29144.35
624.68	29188.82
624.83	29254.36
624.98	29142.01
625.13	29268.40
625.29	28947.75
625.44	29130.31
625.59	28774.55
625.74	28835.40
625.89	29036.69
626.04	29074.13
626.19	28861.15
626.34	28734.76
626.49	28610.71
626.65	28828.38
626.80	28739.44
626.95	28624.75
627.10	28819.02
627.25	28657.52
627.40	28575.60
627.55	28835.40
627.70	28694.97
627.85	28678.58
628.00	28582.62
628.15	28563.90
628.30	28217.50
628.45	28596.67
628.60	28577.94
628.76	28811.99
628.91	28709.01
629.06	28606.03
629.21	28554.54
629.36	28287.71
629.51	28833.06
629.66	28126.22
629.81	28182.39
629.96	28273.67
630.11	28624.75
630.26	28556.88
630.41	28599.01
630.56	28570.92
630.71	28346.23
630.86	28231.54
631.01	28374.31
631.16	28437.51
631.31	28252.61
631.46	27901.53
631.61	28615.39
631.76	28191.75
631.91	28390.70
632.06	28341.55
632.21	28425.81
632.36	27946.00
632.51	27791.52
632.66	28126.22
632.81	28016.21
632.96	28542.83
633.10	28079.41
633.25	28219.84
633.40	28325.16
633.55	28048.98
633.70	27957.70
633.85	27819.61
634.00	27424.06
634.15	27850.03
634.30	28072.39
634.45	28144.94
634.60	27770.46
634.75	27878.12
634.90	27936.63
635.05	27784.50
635.19	27906.21
635.34	28023.23
635.49	28217.50
635.64	28198.77
635.79	28093.45
635.94	27690.88
636.09	27843.01
636.24	27440.44
636.39	27190.00
636.53	27648.75
636.68	27569.17
636.83	27679.18
636.98	27896.85
637.13	27835.99
637.28	27733.01
637.43	27826.63
637.57	27634.71
637.72	27740.03
637.87	27527.04
638.02	27405.33
638.17	27405.33
638.32	27250.86
638.46	27571.51
638.61	27276.60
638.76	27096.38
638.91	27257.88
639.06	27330.44
639.20	27414.69
639.35	27398.31
639.50	27049.57
639.65	27765.78
639.80	27592.58
639.94	27351.50
640.09	27351.50
640.24	27314.05
640.39	27461.51
640.54	27255.54
640.68	27236.81
640.83	27225.11
640.98	27358.52
641.13	26824.88
641.27	27386.61
641.42	26902.12
641.57	27185.32
641.72	27000.42
641.86	26927.86
642.01	26801.47
642.16	27234.47
642.31	26721.90
642.45	27173.62
642.60	26609.55
642.75	27021.48
642.90	26930.20
643.04	27061.27
643.19	26745.30
643.34	26398.90
643.48	27054.25
643.63	27274.26
643.78	27061.27
643.93	26864.67
644.07	26721.90
644.22	26960.63
644.37	27063.61
644.51	26829.56
644.66	26658.70
644.81	26637.64
644.95	26448.05
645.10	26831.90
645.25	26639.98
645.39	26630.62
645.54	26625.93
645.69	26817.86
645.83	26506.57
645.98	26649.34
646.13	26733.60
646.27	26902.12
646.42	26581.46
646.57	27044.89
646.71	26686.79
646.86	26675.09
647.00	26389.54
647.15	26326.35
647.30	26178.89
647.44	26490.18
647.59	26541.68
647.74	26274.85
647.88	26375.50
648.03	26574.44
648.17	26642.32
648.32	26309.96
648.47	26920.84
648.61	26448.05
648.76	26295.92
648.90	26249.11
649.05	26279.54
649.20	26008.03
649.34	26071.23
649.49	26036.12
649.63	26235.06
649.78	26057.18
649.92	25989.31
650.07	26286.56
650.21	26291.24
650.36	26127.40
650.51	25900.37
650.65	25944.84
650.80	26436.35
650.94	26312.30
651.09	26153.15
651.23	25902.71
651.38	26089.95
651.52	26263.15
651.67	25921.43
651.81	26001.01
651.96	26265.49
652.10	25930.80
652.25	26403.58
652.39	26253.79
652.54	26050.16
652.68	25891.01
652.83	25692.06
652.97	25951.86
653.12	26125.06
653.26	25858.24
653.41	25703.76
653.55	25876.96
653.70	25968.24
653.84	25671.00
653.99	25663.97
654.13	25855.90
654.27	25633.55
654.42	25799.73
654.56	26071.23
654.71	26101.65
654.85	25577.37
655.00	25640.57
655.14	25809.09
655.29	25502.48
655.43	25666.31
655.57	25509.50
655.72	25607.80
655.86	25731.85
656.01	25493.12
656.15	25458.01
656.30	25598.44
656.44	25317.57
656.58	25151.40
656.73	25394.81
656.87	25240.34
657.01	25359.70
657.16	25350.34
657.30	25535.24
657.45	25441.62
657.59	25362.04
657.73	25425.24
657.88	25387.79
658.02	25172.46
658.16	25165.44
658.31	25102.25
658.45	25338.64
658.60	24814.36
658.74	24903.30
658.88	24910.32
659.03	24954.79
659.17	25294.17
659.31	24577.97
659.46	25170.12
659.60	25479.07
659.74	25053.09
659.89	24774.57
660.03	24510.09
660.17	24772.23
660.32	24891.60
660.46	24577.97
660.60	24379.02
660.74	24584.99
660.89	24547.54
661.03	24437.53
661.17	24465.62
661.32	24575.62
661.46	24779.25
661.60	24472.64
661.74	24769.89
661.89	24959.47
662.03	24467.96
662.17	24430.51
662.31	24257.31
662.46	24201.14
662.60	24184.76
662.74	24135.60
662.88	24151.99
663.03	23807.93
663.17	24187.10
663.31	24308.80
663.45	23920.28
663.60	24084.11
663.74	23929.64
663.88	24081.77
664.02	23985.81
664.17	24395.40
664.31	24018.58
664.45	24177.73
664.59	24025.60
664.73	24009.22
664.88	23889.85
665.02	23482.59
665.16	23805.59
665.30	23833.68
665.44	23683.88
665.59	23576.22
665.73	23850.06
665.87	23108.11
666.01	23381.95
666.15	23491.96
666.29	23620.69
666.44	23491.96
666.58	23199.39
666.72	23274.29
666.86	23400.68
667.00	23665.16
667.14	23410.04
667.28	23159.60
667.43	23185.35
667.57	23253.22
667.71	23063.64
667.85	22902.14
667.99	23147.90
668.13	23117.47
668.27	22878.74
668.41	23026.19
668.56	22967.68
668.70	23112.79
668.84	23117.47
668.98	23000.44
669.12	23136.20
669.26	22759.37
669.40	22937.25
669.54	22897.46
669.68	22932.57
669.82	22850.65
669.96	22415.31
670.10	22033.80
670.25	22782.77
670.39	22405.95
670.53	22391.91
670.67	22436.38
670.81	22494.89
670.95	22412.97
671.09	22174.24
671.23	22302.96
671.37	22207.00
671.51	22537.02
671.65	22391.91
671.79	22342.75
671.93	22089.98
672.07	22171.89
672.21	21937.84
672.35	21869.97
672.49	21865.28
672.63	21465.05
672.77	21872.31
672.91	21900.39
673.05	21628.89
673.19	22136.79
673.33	21898.05
673.47	21738.90
673.61	21895.71
673.75	21717.83
673.89	21600.80
674.03	21727.19
674.17	21565.70
674.31	21493.14
674.45	21294.19
674.59	21579.74
674.73	21429.94
674.87	21254.40
675.01	20884.60
675.15	21249.72
675.29	21109.29
675.43	21263.77
675.56	21050.78
675.70	21106.95
675.84	20915.03
675.98	20435.22
676.12	20943.11
676.26	21081.21
676.40	20912.69
676.54	20767.57
676.68	20535.86
676.82	20346.28
676.96	20580.33
677.10	20437.56
677.23	20409.47
677.37	20189.46
677.51	20163.72
677.65	20149.67
677.79	20084.14
677.93	20077.12
678.07	19887.53
678.21	19807.95
678.34	20343.94
678.48	19850.08
678.62	19988.18
678.76	19744.76
678.90	19515.39
679.04	19737.74
679.18	19756.46
679.31	19468.58
679.45	19342.19
679.59	19564.54
679.73	19646.46
679.87	19073.03
680.00	19166.65
680.14	19421.77
680.28	19389.00
680.42	19316.44
680.56	19199.41
680.70	19176.01
680.83	19260.27
680.97	19190.05
681.11	18951.32
681.25	18977.06
681.39	18815.57
681.52	18614.28
681.66	18487.89
681.80	18560.45
681.94	18501.93
682.07	18583.85
682.21	18106.38
682.35	18373.21
682.49	17902.76
682.62	18185.96
682.76	17898.08
682.90	18073.62
683.04	18078.30
683.17	18258.52
683.31	18043.19
683.45	18448.10
683.59	18061.91
683.72	17942.55
683.86	17696.79
684.00	17781.05
684.13	17799.77
684.27	17844.24
684.41	17741.26
684.55	17425.29
684.68	17568.06
684.82	17233.36
684.96	17153.79
685.09	17303.58
685.23	17465.08
685.37	17074.21
685.50	17268.47
685.64	17357.41
685.78	17249.75
685.91	17170.17
686.05	17151.45
686.19	17018.04
686.32	16905.69
686.46	16833.13
686.60	16468.01
686.73	16594.40
686.87	16755.90
687.01	16301.83
687.14	16685.68
687.28	16159.06
687.42	16126.29
687.55	16245.66
687.69	16421.20
687.82	16493.76
687.96	16163.74
688.10	16194.17
688.23	16112.25
688.37	15964.79
688.50	16072.46
688.64	16023.31
688.78	16166.08
688.91	15920.32
689.05	15499.03
689.18	15892.24
689.32	15323.49
689.46	15356.25
689.59	15339.87
689.73	15492.01
689.86	15482.64
690.00	15449.88
690.13	15342.21
690.27	15269.66
690.41	15222.84
690.54	15218.16
690.68	15384.34
690.81	15309.44
690.95	15187.74
691.08	15314.13
691.22	14721.97
691.35	14972.41
691.49	15014.54
691.62	14607.28
691.76	14726.65
691.89	14640.05
692.03	14492.60
692.16	14415.36
692.30	14731.33
692.43	14389.61
692.57	14202.37
692.70	14368.55
692.84	14391.95
692.97	14359.19
693.11	14382.59
693.24	13940.23
693.38	14181.31
693.51	14045.55
693.65	13914.48
693.78	14017.47
693.92	13956.61
694.05	13912.14
694.19	13825.54
694.32	13851.29
694.45	13448.72
694.59	13584.47
694.72	13544.68
694.86	13327.01
694.99	13186.58
695.13	13310.63
695.26	13362.12
695.39	13263.82
695.53	13366.80
695.66	13212.32
695.80	13055.51
695.93	13193.60
696.07	13139.77
696.20	13055.51
696.33	13317.65
696.47	13160.83
696.60	12933.80
696.73	12678.68
696.87	12758.26
697.00	12858.90
697.14	12521.87
697.27	12336.96
697.40	12472.71
697.54	12400.16
697.67	12203.55
697.80	12372.07
697.94	12290.15
698.07	12238.66
698.21	12168.45
698.34	12208.23
698.47	12334.62
698.61	12128.66
698.74	12077.16
698.87	11943.75
699.01	11981.20
699.14	11953.12
699.27	12011.63
699.40	11831.41
699.54	11740.13
699.67	11672.25
699.80	11611.40
699.94	11459.26
700.07	11501.39
700.20	11288.40
700.34	11426.50
700.47	11377.34
700.60	11550.54
700.73	11428.84
700.87	11297.77
701.00	11262.66
701.13	11335.21
701.26	11311.81
701.40	11424.15
701.53	10883.49
701.66	11026.26
701.79	10860.09
701.93	10934.98
702.06	10874.13
702.19	10670.50
702.32	10862.43
702.46	10649.44
702.59	10555.82
702.72	10534.75
702.85	10745.40
702.99	10574.54
703.12	10567.52
703.25	10216.44
703.38	10417.72
703.51	10506.66
703.65	10455.17
703.78	10279.63
703.91	10403.68
704.04	10363.89
704.17	10321.76
704.31	10157.92
704.44	10059.62
704.57	9926.21
704.70	9853.66
704.83	9844.29
704.96	9795.14
705.10	9745.99
705.23	9610.24
>>>>>End Processed Spectral Data<<<<<
