SpectraSuite Data File
++++++++++++++++++++++++++++++++++++
Date: Fri Oct 18 13:57:54 GMT-05:00 2013
User: bianchi
Dark Spectrum Present: No
Reference Spectrum Present: No
Number of Sampled Component Spectra: 1
Spectrometers: USB2+H05261
Integration Time (usec): 50000 (USB2+H05261)
Spectra Averaged: 1 (USB2+H05261)
Boxcar Smoothing: 0 (USB2+H05261)
Correct for Electrical Dark: No (USB2+H05261)
Strobe/Lamp Enabled: No (USB2+H05261)
Correct for Detector Non-linearity: No (USB2+H05261)
Correct for Stray Light: No (USB2+H05261)
Number of Pixels in Processed Spectrum: 2048
>>>>>Begin Processed Spectral Data<<<<<
365.73	0.00
365.92	0.00
366.12	0.00
366.32	0.00
366.52	0.00
366.72	0.00
366.91	0.00
367.11	0.00
367.31	0.00
367.51	0.00
367.70	0.00
367.90	0.00
368.10	0.00
368.30	0.00
368.49	0.00
368.69	0.00
368.89	0.00
369.09	0.00
369.28	0.00
369.48	0.00
369.68	0.00
369.87	0.00
370.07	0.00
370.27	0.00
370.47	0.00
370.66	18.72
370.86	154.48
371.06	126.39
371.25	142.77
371.45	215.33
371.65	65.54
371.84	131.07
372.04	152.13
372.24	194.26
372.44	212.99
372.63	112.35
372.83	266.82
373.03	245.76
373.22	229.37
373.42	147.45
373.62	299.59
373.81	245.76
374.01	299.59
374.21	252.78
374.40	245.76
374.60	262.14
374.79	259.80
374.99	259.80
375.19	264.48
375.38	285.55
375.58	245.76
375.78	264.48
375.97	250.44
376.17	313.63
376.37	273.84
376.56	320.65
376.76	163.84
376.95	374.49
377.15	273.84
377.35	313.63
377.54	264.48
377.74	243.42
377.93	280.86
378.13	311.29
378.33	360.44
378.52	278.52
378.72	292.57
378.91	241.08
379.11	341.72
379.31	292.57
379.50	322.99
379.70	245.76
379.89	360.44
380.09	327.68
380.28	341.72
380.48	299.59
380.68	315.97
380.87	299.59
381.07	306.61
381.26	308.95
381.46	299.59
381.65	320.65
381.85	287.89
382.04	322.99
382.24	337.04
382.43	388.53
382.63	278.52
382.83	358.10
383.02	388.53
383.22	430.66
383.41	353.42
383.61	409.59
383.80	411.93
384.00	313.63
384.19	341.72
384.39	360.44
384.58	301.93
384.78	381.51
384.97	440.02
385.17	433.00
385.36	353.42
385.56	435.34
385.75	367.46
385.95	428.32
386.14	442.36
386.34	461.09
386.53	379.17
386.72	428.32
386.92	421.30
387.11	486.83
387.31	430.66
387.50	388.53
387.70	416.62
387.89	454.06
388.09	468.11
388.28	400.23
388.48	514.92
388.67	458.74
388.86	531.30
389.06	475.13
389.25	381.51
389.45	486.83
389.64	442.36
389.84	528.96
390.03	482.15
390.22	421.30
390.42	500.87
390.61	498.53
390.81	454.06
391.00	484.49
391.19	498.53
391.39	521.94
391.58	571.09
391.78	585.13
391.97	533.64
392.16	578.11
392.36	550.03
392.55	613.22
392.75	608.54
392.94	573.43
393.13	507.90
393.33	566.41
393.52	592.16
393.71	620.24
393.91	566.41
394.10	650.67
394.29	599.18
394.49	610.88
394.68	643.65
394.88	603.86
395.07	638.97
395.26	610.88
395.46	624.92
395.65	627.26
395.84	660.03
396.04	603.86
396.23	676.41
396.42	613.22
396.62	702.16
396.81	669.39
397.00	737.27
397.19	653.01
397.39	695.14
397.58	653.01
397.77	596.84
397.97	709.18
398.16	692.80
398.35	744.29
398.55	709.18
398.74	765.36
398.93	732.59
399.12	676.41
399.32	730.25
399.51	739.61
399.70	739.61
399.90	741.95
400.09	760.67
400.28	716.20
400.47	730.25
400.67	826.21
400.86	849.61
401.05	819.19
401.24	868.34
401.44	809.83
401.63	753.65
401.82	751.31
402.01	821.53
402.21	854.30
402.40	823.87
402.59	847.27
402.78	856.64
402.97	957.28
403.17	863.66
403.36	898.77
403.55	931.53
403.74	936.21
403.93	915.15
404.13	891.74
404.32	884.72
404.51	917.49
404.70	1025.15
404.89	997.07
405.09	983.02
405.28	957.28
405.47	938.55
405.66	947.92
405.85	1055.58
406.05	1053.24
406.24	1121.12
406.43	985.37
406.62	1011.11
406.81	1081.33
407.00	1032.18
407.20	1043.88
407.39	1142.18
407.58	1149.20
407.77	1064.94
407.96	1156.22
408.15	1146.86
408.34	1034.52
408.54	1011.11
408.73	1050.90
408.92	1179.63
409.11	1144.52
409.30	1118.78
409.49	1160.91
409.68	1210.06
409.87	1207.72
410.07	1261.55
410.26	1217.08
410.45	1144.52
410.64	1270.91
410.83	1245.16
411.02	1352.83
411.21	1315.38
411.40	1301.34
411.59	1376.24
411.78	1277.93
411.98	1294.32
412.17	1362.19
412.36	1317.72
412.55	1364.53
412.74	1268.57
412.93	1441.77
413.12	1378.58
413.31	1488.58
413.50	1413.68
413.69	1437.09
413.88	1439.43
414.07	1362.19
414.26	1460.49
414.45	1528.37
414.64	1416.02
414.83	1516.67
415.02	1556.46
415.22	1568.16
415.41	1736.68
415.60	1558.80
415.79	1624.33
415.98	1647.74
416.17	1650.08
416.36	1638.38
416.55	1621.99
416.74	1666.46
416.93	1741.36
417.12	1795.19
417.31	1717.95
417.50	1715.61
417.69	1790.51
417.88	1858.39
418.07	1771.79
418.26	1781.15
418.45	1666.46
418.64	1900.52
418.83	1818.60
419.02	1881.79
419.21	1837.32
419.39	1914.56
419.58	1914.56
419.77	1830.30
419.96	1914.56
420.15	1865.41
420.34	1872.43
420.53	1774.13
420.72	2001.16
420.91	2015.20
421.10	1940.30
421.29	2076.06
421.48	1973.07
421.67	2129.89
421.86	1987.11
422.05	2038.61
422.24	2003.50
422.43	2038.61
422.61	2069.03
422.80	2054.99
422.99	2059.67
423.18	2136.91
423.37	2214.15
423.56	2108.82
423.75	2050.31
423.94	2062.01
424.13	1842.00
424.32	1935.62
424.50	2090.10
424.69	2120.53
424.88	2113.50
425.07	2017.54
425.26	2040.95
425.45	2003.50
425.64	2097.12
425.83	2157.97
426.01	2174.36
426.20	2204.78
426.39	2218.83
426.58	2106.48
426.77	2157.97
426.96	2153.29
427.15	2118.18
427.33	2183.72
427.52	2169.68
427.71	2083.08
427.90	2155.63
428.09	2289.04
428.28	2141.59
428.46	2134.57
428.65	2354.58
428.84	2307.77
429.03	2303.09
429.22	2242.23
429.40	2265.64
429.59	2347.56
429.78	2275.00
429.97	2221.17
430.16	2286.70
430.34	2324.15
430.53	2377.98
430.72	2356.92
430.91	2340.54
431.10	2328.83
431.28	2513.74
431.47	2567.57
431.66	2532.46
431.85	2448.20
432.03	2429.48
432.22	2560.55
432.41	2548.84
432.60	2593.31
432.79	2527.78
432.97	2537.14
433.16	2434.16
433.35	2424.80
433.54	2527.78
433.72	2637.78
433.91	2553.52
434.10	2647.15
434.28	2558.21
434.47	2630.76
434.66	2761.83
434.85	2551.18
435.03	2775.88
435.22	2708.00
435.41	2843.75
435.59	2689.28
435.78	2904.60
435.97	2794.60
436.16	2803.96
436.34	2630.76
436.53	2834.39
436.72	2843.75
436.90	2691.62
437.09	2878.86
437.28	2738.43
437.46	2853.11
437.65	2881.20
437.84	2822.69
438.02	2794.60
438.21	2892.90
438.40	2874.18
438.58	2848.43
438.77	3012.27
438.96	2860.13
439.14	3056.74
439.33	3059.08
439.52	3026.31
439.70	3059.08
439.89	3042.70
440.08	3133.98
440.26	3185.47
440.45	3185.47
440.63	3180.79
440.82	3213.56
441.01	3115.25
441.19	3215.90
441.38	3290.79
441.57	3112.91
441.75	3311.86
441.94	3356.33
442.12	3398.46
442.31	3459.31
442.50	3473.36
442.68	3361.01
442.87	3426.54
443.05	3389.10
443.24	3445.27
443.43	3557.61
443.61	3548.25
443.80	3648.90
443.98	3396.12
444.17	3349.31
444.35	3403.14
444.54	3501.44
444.73	3524.85
444.91	3578.68
445.10	3508.46
445.28	3538.89
445.47	3548.25
445.65	3576.34
445.84	3620.81
446.02	3679.32
446.21	3545.91
446.39	3620.81
446.58	3679.32
446.77	3555.27
446.95	3667.62
447.14	3445.27
447.32	3648.90
447.51	3555.27
447.69	3728.47
447.88	3623.15
448.06	3667.62
448.25	3569.32
448.43	3662.94
448.62	3637.19
448.80	3634.85
448.99	3641.87
449.17	3775.28
449.36	3531.87
449.54	3784.65
449.73	3716.77
449.91	3756.56
450.10	3735.50
450.28	3927.42
450.46	3873.59
450.65	3779.97
450.83	3840.82
451.02	3772.94
451.20	3880.61
451.39	3882.95
451.57	3946.14
451.76	3901.67
451.94	4002.32
452.13	3981.25
452.31	3992.95
452.49	3817.41
452.68	3927.42
452.86	4037.42
453.05	4170.83
453.23	4180.20
453.42	3988.27
453.60	3971.89
453.78	4058.49
453.97	3964.87
454.15	4035.08
454.34	3988.27
454.52	4128.70
454.70	4009.34
454.89	4102.96
455.07	4231.69
455.26	4072.53
455.44	4187.22
455.62	4147.43
455.81	4100.62
455.99	4248.07
456.17	4290.20
456.36	4234.03
456.54	4224.67
456.73	4325.31
456.91	4299.56
457.09	4276.16
457.28	4596.81
457.46	4418.93
457.64	4414.25
457.83	4496.17
458.01	4383.82
458.19	4472.76
458.38	4390.84
458.56	4599.15
458.74	4596.81
458.93	4514.89
459.11	4465.74
459.29	4538.30
459.48	4685.75
459.66	4550.00
459.84	4660.01
460.03	4725.54
460.21	4688.09
460.39	4674.05
460.57	4713.84
460.76	4606.17
460.94	4816.82
461.12	4720.86
461.31	4779.37
461.49	4732.56
461.67	4851.93
461.85	4889.38
462.04	4840.23
462.22	5071.94
462.40	4877.68
462.59	4800.44
462.77	4896.40
462.95	4905.76
463.13	4957.25
463.32	4997.04
463.50	5043.85
463.68	5043.85
463.86	5027.47
464.05	4940.87
464.23	4983.00
464.41	5163.22
464.59	4905.76
464.78	5050.88
464.96	5172.58
465.14	4990.02
465.32	5085.98
465.50	5210.03
465.69	5123.43
465.87	4992.36
466.05	5146.84
466.23	5149.18
466.41	5301.31
466.60	5467.49
466.78	5259.18
466.96	5188.97
467.14	5093.01
467.32	5210.03
467.51	5308.34
467.69	5238.12
467.87	5324.72
468.05	5390.25
468.23	5219.39
468.41	5294.29
468.60	5401.96
468.78	5460.47
468.96	5444.09
469.14	5521.32
469.32	5593.88
469.50	5518.98
469.69	5593.88
469.87	5593.88
470.05	5678.14
470.23	5504.94
470.41	5565.79
470.59	5626.65
470.77	5820.91
470.95	5556.43
471.14	5706.23
471.32	5540.05
471.50	5954.32
471.68	5673.46
471.86	5849.00
472.04	5785.80
472.22	6012.84
472.40	5937.94
472.58	5935.60
472.77	5762.40
472.95	6078.37
473.13	6061.99
473.31	6064.33
473.49	6047.94
473.67	5994.11
473.85	6083.05
474.03	6239.87
474.21	6129.86
474.39	6293.70
474.57	6260.93
474.75	6314.77
474.93	6338.17
475.12	6282.00
475.30	6413.07
475.48	6249.23
475.66	6530.09
475.84	6403.71
476.02	6593.29
476.20	6583.93
476.38	6558.18
476.56	6761.81
476.74	6696.27
476.92	6799.26
477.10	6602.65
477.28	6848.41
477.46	6820.32
477.64	6977.14
477.82	7016.93
478.00	7103.53
478.18	7122.25
478.36	7229.91
478.54	7162.04
478.72	7297.79
478.90	7260.34
479.08	7122.25
479.26	7559.93
479.44	7623.12
479.62	7442.90
479.80	7686.32
479.98	7543.55
480.16	7866.54
480.34	7761.22
480.52	8063.15
480.70	7847.82
480.88	7782.28
481.06	7941.44
481.24	7819.73
481.41	7957.82
481.59	8152.09
481.77	8311.24
481.95	8257.41
482.13	8479.76
482.31	8423.59
482.49	8690.41
482.67	8629.56
482.85	8762.97
483.03	8805.10
483.21	8781.69
483.39	8793.39
483.57	8882.33
483.74	8812.12
483.92	8919.78
484.10	8933.82
484.28	9146.81
484.46	9193.62
484.64	9401.93
484.82	9305.97
485.00	9652.37
485.18	9415.98
485.35	9743.65
485.53	9701.52
485.71	9710.88
485.89	9860.68
486.07	9797.48
486.25	10118.14
486.43	9921.53
486.61	10183.67
486.78	10139.20
486.96	10328.78
487.14	10450.49
487.32	10492.62
487.50	10619.01
487.68	10579.22
487.85	10738.38
488.03	10810.93
488.21	11002.86
488.39	10897.53
488.57	11019.24
488.75	11122.23
488.92	11248.61
489.10	11382.03
489.28	11461.60
489.46	11695.66
489.64	11410.11
489.81	11740.13
489.99	11536.50
490.17	11838.43
490.35	12013.97
490.53	11885.24
490.70	12049.08
490.88	11948.43
491.06	11971.84
491.24	12180.15
491.41	12458.67
491.59	12535.91
491.77	12444.63
491.95	12409.52
492.13	12664.64
492.30	12688.04
492.48	12657.62
492.66	12760.60
492.84	12664.64
493.01	13076.57
493.19	13217.01
493.37	13233.39
493.54	13483.83
493.72	13156.15
493.90	13256.79
494.08	13338.71
494.25	13692.13
494.43	13568.09
494.61	13689.79
494.79	13701.50
494.96	13785.76
495.14	14001.08
495.32	13818.52
495.49	14068.96
495.67	14071.30
495.85	14162.58
496.02	14445.79
496.20	14106.41
496.38	14394.29
496.55	14525.36
496.73	14974.75
496.91	14846.02
497.09	14684.52
497.26	14824.95
497.44	14995.81
497.62	14623.67
497.79	15180.71
497.97	15070.71
498.14	15157.31
498.32	15126.88
498.50	15461.58
498.67	15297.74
498.85	15484.98
499.03	15517.75
499.20	15257.95
499.38	15665.21
499.56	15747.12
499.73	15899.26
499.91	16194.17
500.08	15950.75
500.26	15831.38
500.44	15887.56
500.61	16208.21
500.79	16023.31
500.97	16191.83
501.14	16196.51
501.32	16248.00
501.49	16552.27
501.67	16194.17
501.84	16484.39
502.02	16587.38
502.20	16882.28
502.37	16650.57
502.55	16533.54
502.72	16734.83
502.90	16828.45
503.07	16856.54
503.25	17055.48
503.43	16915.05
503.60	17195.92
503.78	17008.67
503.95	17226.34
504.13	17043.78
504.30	17219.32
504.48	17153.79
504.65	17678.07
504.83	17516.57
505.01	17703.81
505.18	17853.61
505.36	17703.81
505.53	17483.80
505.71	17647.64
505.88	17687.43
506.06	17523.59
506.23	18040.85
506.41	18073.62
506.58	18377.89
506.76	18090.00
506.93	17757.64
507.11	18005.74
507.28	18022.12
507.46	18321.71
507.63	18429.38
507.81	18668.11
507.98	18380.23
508.16	18511.30
508.33	18391.93
508.50	18506.62
508.68	18368.52
508.85	18604.92
509.03	18864.72
509.20	18759.39
509.38	18925.57
509.55	19028.56
509.73	18754.71
509.90	19089.41
510.08	18869.40
510.25	18965.36
510.42	19257.93
510.60	19293.04
510.77	19295.38
510.95	19328.14
511.12	19241.54
511.30	19339.85
511.47	19503.68
511.64	19939.02
511.82	19580.92
511.99	19655.82
512.17	19730.72
512.34	19571.56
512.51	19805.61
512.69	19702.63
512.86	19632.41
513.04	20065.41
513.21	20262.02
513.38	20065.41
513.56	20121.59
513.73	20084.14
513.90	20287.76
514.08	20233.93
514.25	20159.03
514.43	20491.39
514.60	20472.67
514.77	20830.77
514.95	20629.48
515.12	20343.94
515.29	20624.80
515.47	20704.38
515.64	20964.18
515.81	20849.49
515.99	21125.68
516.16	21097.59
516.33	21172.49
516.51	20905.66
516.68	20807.36
516.85	21010.99
517.03	21097.59
517.20	21277.81
517.37	21118.65
517.54	21216.96
517.72	21303.56
517.89	21647.61
518.06	21071.84
518.24	21570.38
518.41	21151.42
518.58	21523.57
518.75	21458.03
518.93	22087.64
519.10	21612.51
519.27	21774.00
519.45	21537.61
519.62	21701.45
519.79	21764.64
519.96	21956.57
520.14	21998.70
520.31	21720.17
520.48	22288.92
520.65	21860.60
520.83	22071.25
521.00	22305.31
521.17	22277.22
521.34	22162.53
521.52	22253.81
521.69	22258.49
521.86	22611.92
522.03	22511.27
522.20	22647.02
522.38	22614.26
522.55	22623.62
522.72	22684.47
522.89	22815.54
523.07	22979.38
523.24	22916.19
523.41	23192.37
523.58	22588.51
523.75	22906.82
523.92	22960.66
524.10	23035.55
524.27	23154.92
524.44	23335.14
524.61	23442.81
524.78	23445.15
524.96	23185.35
525.13	23236.84
525.30	23536.43
525.47	23115.13
525.64	23498.98
525.81	23550.47
525.98	23527.06
526.16	23765.80
526.33	23737.71
526.50	23620.69
526.67	23796.23
526.84	23934.32
527.01	23611.32
527.18	23950.70
527.36	24013.90
527.53	23920.28
527.70	24250.29
527.87	23999.85
528.04	23896.87
528.21	24114.54
528.38	23833.68
528.55	24343.91
528.72	23934.32
528.89	24285.40
529.07	24049.00
529.24	24393.06
529.41	24512.43
529.58	24503.07
529.75	24329.87
529.92	24350.93
530.09	24428.17
530.26	24332.21
530.43	24451.58
530.60	24341.57
530.77	24690.31
530.94	24599.03
531.11	24568.60
531.28	24758.19
531.46	24519.45
531.63	24594.35
531.80	24519.45
531.97	25039.05
532.14	25032.03
532.31	24978.20
532.48	25219.27
532.65	25102.25
532.82	25055.43
532.99	25078.84
533.16	25092.88
533.33	25273.10
533.50	25401.83
533.67	25441.62
533.84	24959.47
534.01	25069.48
534.18	25399.49
534.35	25394.81
534.52	25500.14
534.69	25659.29
534.86	25476.73
535.03	25598.44
535.20	25560.99
535.37	25542.27
535.54	25635.89
535.71	25528.22
535.88	25420.56
536.05	25458.01
536.22	26043.14
536.38	25612.48
536.55	26040.80
536.72	25909.73
536.89	25645.25
537.06	25750.57
537.23	25844.20
537.40	25984.63
537.57	26036.12
537.74	25881.64
537.91	26228.04
538.08	26122.72
538.25	26183.57
538.42	26092.29
538.59	26267.83
538.75	25872.28
538.92	26122.72
539.09	26202.30
539.26	26567.42
539.43	26141.44
539.60	26684.45
539.77	26735.94
539.94	26972.33
540.11	26225.70
540.28	26696.15
540.44	26593.17
540.61	26431.67
540.78	26834.24
540.95	26623.59
541.12	26515.93
541.29	26977.01
541.46	26757.00
541.62	26497.20
541.79	26717.22
541.96	26661.04
542.13	26625.93
542.30	27124.47
542.47	27002.76
542.63	26918.50
542.80	27161.92
542.97	27428.74
543.14	27278.94
543.31	27178.30
543.48	27358.52
543.64	27281.28
543.81	27311.71
543.98	27782.16
544.15	27543.42
544.32	28027.92
544.48	27681.52
544.65	27901.53
544.82	27424.06
544.99	27171.28
545.16	27487.25
545.32	27470.87
545.49	28039.62
545.66	27831.31
545.83	27976.42
546.00	27978.76
546.16	27573.85
546.33	27690.88
546.50	27508.32
546.67	27789.18
546.83	27529.38
547.00	28278.35
547.17	27765.78
547.34	28016.21
547.50	27875.78
547.67	28156.64
547.84	27962.38
548.00	28229.20
548.17	28510.07
548.34	27955.36
548.51	28273.67
548.67	28292.40
548.84	28404.74
549.01	28268.99
549.18	28318.14
549.34	28311.12
549.51	28156.64
549.68	28453.89
549.84	28208.14
550.01	28760.50
550.18	28341.55
550.34	28451.55
550.51	28741.78
550.68	28919.66
550.84	28407.08
551.01	28547.51
551.18	28519.43
551.34	28280.69
551.51	28528.79
551.68	28652.84
551.84	29013.28
552.01	28573.26
552.18	28758.16
552.34	28449.21
552.51	29163.08
552.68	28751.14
552.84	28746.46
553.01	29132.65
553.18	28917.32
553.34	28980.51
553.51	29219.25
553.67	29116.26
553.84	29177.12
554.01	29085.84
554.17	29001.58
554.34	28591.98
554.51	29092.86
554.67	29432.24
554.84	29078.82
555.00	29301.17
555.17	29060.09
555.33	29134.99
555.50	29738.85
555.67	29551.60
555.83	29160.73
556.00	29067.11
556.16	29663.95
556.33	29434.58
556.50	29434.58
556.66	29567.99
556.83	29378.40
556.99	29795.02
557.16	29680.33
557.32	29371.38
557.49	29888.64
557.65	29333.93
557.82	29467.34
557.98	29600.76
558.15	29762.25
558.32	29776.30
558.48	30008.01
558.65	29750.55
558.81	29900.34
558.98	29493.09
559.14	29972.90
559.31	29795.02
559.47	29773.95
559.64	29968.22
559.80	29968.22
559.97	29970.56
560.13	29830.13
560.30	29612.46
560.46	29923.75
560.63	29977.58
560.79	29944.81
560.96	29993.97
561.12	30206.95
561.29	29848.85
561.45	30099.29
561.61	30235.04
561.78	30265.47
561.94	29556.28
562.11	30361.43
562.27	29996.31
562.44	30094.61
562.60	30129.72
562.77	30260.79
562.93	29947.15
563.10	30033.75
563.26	30246.74
563.42	30682.08
563.59	30323.98
563.75	29942.47
563.92	30473.78
564.08	29965.88
564.24	30181.21
564.41	30277.17
564.57	30115.67
564.74	30221.00
564.90	30272.49
565.07	30274.83
565.23	30576.76
565.39	30490.16
565.56	30370.79
565.72	30267.81
565.88	30490.16
566.05	30302.92
566.21	30525.27
566.38	30232.70
566.54	30452.71
566.70	30972.31
566.87	30923.16
567.03	30590.80
567.19	30878.69
567.36	30630.59
567.52	30466.75
567.68	30541.65
567.85	30572.08
568.01	30457.39
568.17	30597.82
568.34	30438.67
568.50	30445.69
568.66	30705.49
568.83	30796.77
568.99	31187.64
569.15	30569.74
569.32	30740.60
569.48	30661.02
569.64	30377.81
569.81	30895.07
569.97	30810.81
570.13	30663.36
570.30	30728.89
570.46	30691.44
570.62	30993.37
570.78	30838.90
570.95	30490.16
571.11	30419.94
571.27	30562.72
571.43	30433.99
571.60	30630.59
571.76	30988.69
571.92	30525.27
572.09	30871.67
572.25	30958.27
572.41	30817.83
572.57	30946.56
572.74	30916.14
572.90	30607.19
573.06	30892.73
573.22	30848.26
573.38	30583.78
573.55	30389.52
573.71	31138.49
573.87	31161.89
574.03	30892.73
574.20	30756.98
574.36	30859.96
574.52	30792.09
574.68	30874.01
574.84	30820.17
575.01	31124.44
575.17	31098.70
575.33	30939.54
575.49	31044.87
575.65	31103.38
575.82	31054.23
575.98	30721.87
576.14	30836.56
576.30	31243.81
576.46	31131.47
576.62	31112.74
576.79	30581.44
576.95	31044.87
577.11	31269.56
577.27	30969.97
577.43	31089.34
577.59	31152.53
577.75	30878.69
577.92	30878.69
578.08	30937.20
578.24	30536.97
578.40	31147.85
578.56	30890.39
578.72	31405.31
578.88	31049.55
579.04	30946.56
579.21	30976.99
579.37	31386.58
579.53	31126.78
579.69	30923.16
579.85	30890.39
580.01	31197.00
580.17	30864.64
580.33	31042.53
580.49	31332.75
580.65	31470.84
580.82	31271.90
580.98	31084.65
581.14	31550.42
581.30	31316.37
581.46	30923.16
581.62	31274.24
581.78	30593.14
581.94	30972.31
582.10	30916.14
582.26	31435.74
582.42	30965.29
582.58	31342.11
582.74	31014.44
582.90	31435.74
583.06	31094.02
583.22	31435.74
583.38	31309.35
583.54	31468.50
583.70	31077.63
583.86	31248.49
584.02	31412.33
584.18	31449.78
584.34	30948.90
584.50	31405.31
584.66	31154.87
584.82	30780.39
584.98	31494.25
585.14	31316.37
585.30	30616.55
585.46	31243.81
585.62	30656.34
585.78	31178.28
585.94	30824.86
586.10	31388.92
586.26	31435.74
586.42	31793.84
586.58	31859.37
586.74	31131.47
586.90	30932.52
587.06	31030.82
587.22	31477.86
587.38	31089.34
587.54	31388.92
587.70	31461.48
587.86	31243.81
588.02	31395.95
588.18	31587.87
588.34	31969.38
588.49	31189.98
588.65	31302.32
588.81	31145.51
588.97	31365.52
589.13	31548.08
589.29	31173.60
589.45	31222.75
589.61	31707.24
589.77	31814.90
589.93	31452.12
590.08	31587.87
590.24	31704.90
590.40	31325.73
590.56	31709.58
590.72	31728.30
590.88	31358.50
591.04	31660.43
591.20	31714.26
591.35	31576.17
591.51	32016.19
591.67	32126.19
591.83	31910.86
591.99	31627.66
592.15	31761.07
592.31	31648.72
592.46	31398.29
592.62	31332.75
592.78	31571.49
592.94	31941.29
593.10	31871.07
593.26	31983.42
593.41	31718.94
593.57	31545.74
593.73	31835.97
593.89	31995.12
594.05	31622.98
594.20	31627.66
594.36	31875.76
594.52	31349.14
594.68	31564.46
594.84	31435.74
594.99	31964.70
595.15	31770.43
595.31	32425.78
595.47	31707.24
595.62	31943.63
595.78	31838.31
595.94	32009.17
596.10	31655.75
596.25	31445.10
596.41	31880.44
596.57	31440.42
596.73	31845.33
596.88	31534.04
597.04	31913.20
597.20	32123.85
597.36	31931.93
597.51	32313.44
597.67	31894.48
597.83	31674.47
597.99	31803.20
598.14	31484.89
598.30	31945.97
598.46	31817.24
598.61	32137.90
598.77	31852.35
598.93	32009.17
599.09	32458.55
599.24	32011.51
599.40	32306.41
599.56	32072.36
599.71	31906.18
599.87	32121.51
600.03	31789.16
600.18	31627.66
600.34	31927.25
600.50	31601.91
600.65	31950.65
600.81	31861.71
600.97	32123.85
601.12	32180.03
601.28	32217.47
601.44	31873.42
601.59	31749.37
601.75	31784.48
601.91	32500.68
602.06	32144.92
602.22	31711.92
602.37	31899.16
602.53	31955.33
602.69	32098.11
602.84	32156.62
603.00	32081.72
603.16	32236.20
603.31	32170.66
603.47	31620.64
603.62	31896.82
603.78	31978.74
603.94	31852.35
604.09	31480.21
604.25	32027.89
604.40	31695.53
604.56	31791.50
604.71	32517.06
604.87	32013.85
605.03	31697.88
605.18	31819.58
605.34	32032.57
605.49	31847.67
605.65	31571.49
605.80	31857.03
605.96	31861.71
606.12	31983.42
606.27	31714.26
606.43	31952.99
606.58	31985.76
606.74	31880.44
606.89	31983.42
607.05	32093.43
607.20	31751.71
607.36	31676.81
607.51	31728.30
607.67	31805.54
607.82	31534.04
607.98	31850.01
608.13	31861.71
608.29	31845.33
608.44	31599.57
608.60	31901.50
608.75	31735.32
608.91	31810.22
609.06	31852.35
609.22	31655.75
609.37	31828.95
609.53	31494.25
609.68	31543.40
609.84	31613.62
609.99	31908.52
610.15	31580.85
610.30	31337.43
610.46	31639.36
610.61	32034.91
610.76	31831.29
610.92	31620.64
611.07	31426.37
611.23	31316.37
611.38	31431.05
611.54	31777.45
611.69	31274.24
611.84	31590.21
612.00	31281.26
612.15	31517.65
612.31	31538.72
612.46	31166.57
612.62	31587.87
612.77	31278.92
612.92	31431.05
613.08	31585.53
613.23	31323.39
613.39	31257.85
613.54	31271.90
613.69	31573.83
613.85	31477.86
614.00	31288.28
614.15	31498.93
614.31	31377.22
614.46	31527.02
614.62	31466.16
614.77	31433.39
614.92	31454.46
615.08	31180.62
615.23	31545.74
615.38	31077.63
615.54	31002.74
615.69	30749.96
615.84	30850.60
616.00	31332.75
616.15	30927.84
616.30	31227.43
616.46	30764.00
616.61	31206.36
616.76	31250.83
616.92	30951.24
617.07	31047.21
617.22	31005.08
617.37	31047.21
617.53	30967.63
617.68	31220.41
617.83	31063.59
617.99	30761.66
618.14	30979.33
618.29	30911.46
618.45	31115.08
618.60	31028.48
618.75	30817.83
618.90	30820.17
619.06	31035.50
619.21	30897.41
619.36	30717.19
619.51	30883.37
619.67	30848.26
619.82	30761.66
619.97	30759.32
620.12	30415.26
620.28	30408.24
620.43	30843.58
620.58	30780.39
620.73	30768.68
620.89	30639.95
621.04	31030.82
621.19	30899.75
621.34	31044.87
621.49	30422.28
621.65	30794.43
621.80	30431.65
621.95	30239.72
622.10	30857.62
622.25	30721.87
622.41	30256.11
622.56	30141.42
622.71	30705.49
622.86	30403.56
623.01	30527.61
623.16	30534.63
623.32	30387.18
623.47	30375.47
623.62	30120.35
623.77	30274.83
623.92	30462.07
624.07	30094.61
624.23	30473.78
624.38	30649.32
624.53	30319.30
624.68	30387.18
624.83	30370.79
624.98	30443.35
625.13	30693.79
625.29	30712.51
625.44	30043.12
625.59	30225.68
625.74	30183.55
625.89	30349.73
626.04	29677.99
626.19	29757.57
626.34	30024.39
626.49	29811.40
626.65	29556.28
626.80	30328.66
626.95	30125.04
627.10	30331.00
627.25	29923.75
627.40	29465.00
627.55	29958.86
627.70	29511.81
627.85	29663.95
628.00	30143.76
628.15	29844.17
628.30	29811.40
628.45	29682.67
628.60	29567.99
628.76	29862.90
628.91	29692.04
629.06	29853.53
629.21	30012.69
629.36	29694.38
629.51	29652.25
629.66	29727.14
629.81	29572.67
629.96	29343.30
630.11	29507.13
630.26	29486.07
630.41	29465.00
630.56	28877.53
630.71	29689.70
630.86	29413.51
631.01	29291.80
631.16	29792.68
631.31	29352.66
631.46	29860.55
631.61	29621.82
631.76	29521.18
631.91	29237.97
632.06	29221.59
632.21	29139.67
632.36	29081.16
632.51	29252.02
632.66	29294.14
632.81	29439.26
632.96	29277.76
633.10	29979.92
633.25	29507.13
633.40	29699.06
633.55	29483.73
633.70	29139.67
633.85	29034.35
634.00	28814.34
634.15	29195.84
634.30	29120.95
634.45	29392.45
634.60	29024.98
634.75	29139.67
634.90	29127.97
635.05	29139.67
635.19	28999.24
635.34	28975.83
635.49	29209.89
635.64	29116.26
635.79	28900.94
635.94	29165.42
636.09	29078.82
636.24	28966.47
636.39	28947.75
636.53	29144.35
636.68	28645.82
636.83	28645.82
636.98	28524.11
637.13	29186.48
637.28	28940.72
637.43	28936.04
637.57	28662.20
637.72	28498.36
637.87	28584.96
638.02	28697.31
638.17	28996.90
638.32	28641.14
638.46	28554.54
638.61	28147.28
638.76	28601.35
638.91	28168.35
639.06	28547.51
639.20	28835.40
639.35	28517.09
639.50	28765.18
639.65	28472.62
639.80	28776.89
639.94	28931.36
640.09	28542.83
640.24	28156.64
640.39	28219.84
640.54	28456.23
640.68	28259.63
640.83	28297.08
640.98	28327.50
641.13	28266.65
641.27	28727.74
641.42	27988.13
641.57	28126.22
641.72	28470.28
641.86	27623.00
642.01	28025.57
642.16	27838.33
642.31	28290.06
642.45	27777.48
642.60	27852.38
642.75	28266.65
642.90	28063.02
643.04	27637.05
643.19	27737.69
643.34	27896.85
643.48	28198.77
643.63	27833.65
643.78	28161.33
643.93	28039.62
644.07	28030.26
644.22	28212.82
644.37	28044.30
644.51	27854.72
644.66	27768.12
644.81	27676.83
644.95	27819.61
645.10	27690.88
645.25	27875.78
645.39	28025.57
645.54	27887.48
645.69	27580.87
645.83	27873.44
645.98	27831.31
646.13	27669.81
646.27	27857.06
646.42	27779.82
646.57	28013.87
646.71	27847.69
646.86	27667.47
647.00	27702.58
647.15	27583.21
647.30	27489.59
647.44	27637.05
647.59	27505.98
647.74	27555.13
647.88	27630.02
648.03	27372.57
648.17	27833.65
648.32	27763.43
648.47	27473.21
648.61	27733.01
648.76	27730.67
648.90	27653.43
649.05	27290.65
649.20	27349.16
649.34	27428.74
649.49	27374.91
649.63	27178.30
649.78	27204.05
649.92	27005.10
650.07	27178.30
650.21	27080.00
650.36	27117.45
650.51	27625.34
650.65	27108.08
650.80	27168.94
650.94	27070.64
651.09	27049.57
651.23	26862.33
651.38	26998.08
651.52	27143.19
651.67	27133.83
651.81	27084.68
651.96	26719.56
652.10	26787.43
652.25	27218.09
652.39	27323.41
652.54	26822.54
652.68	26925.52
652.83	27119.79
652.97	27124.47
653.12	27026.17
653.26	27204.05
653.41	27325.75
653.55	26911.48
653.70	27232.13
653.84	26677.43
653.99	26885.73
654.13	26913.82
654.27	26749.98
654.42	26754.66
654.56	26644.66
654.71	26836.58
654.85	26551.04
655.00	26857.65
655.14	26686.79
655.29	26656.36
655.43	26441.03
655.57	26637.64
655.72	26096.97
655.86	26541.68
656.01	26789.77
656.15	26326.35
656.30	26759.34
656.44	26588.49
656.58	26499.55
656.73	26586.15
656.87	26668.06
657.01	26429.33
657.16	26609.55
657.30	26548.70
657.45	26581.46
657.59	26630.62
657.73	25923.77
657.88	26272.51
658.02	25907.39
658.16	26286.56
658.31	26005.69
658.45	26099.31
658.60	26089.95
658.74	26108.68
658.88	26031.44
659.03	25806.75
659.17	26043.14
659.31	26281.88
659.46	26190.59
659.60	26366.13
659.74	26178.89
659.89	26202.30
660.03	25907.39
660.17	25788.02
660.32	26120.38
660.46	26050.16
660.60	25446.30
660.74	25242.68
660.89	25600.78
661.03	25514.18
661.17	25268.42
661.32	25671.00
661.46	25556.31
661.60	25965.90
661.74	25715.47
661.89	25858.24
662.03	25776.32
662.17	25568.01
662.31	25294.17
662.46	25322.26
662.60	25385.45
662.74	25240.34
662.88	25305.87
663.03	24772.23
663.17	25266.08
663.31	24776.91
663.45	25266.08
663.60	24905.64
663.74	24568.60
663.88	25032.03
664.02	25277.79
664.17	25078.84
664.31	24926.71
664.45	24753.51
664.59	24882.24
664.73	25193.53
664.88	25039.05
665.02	24341.57
665.16	24650.52
665.30	25135.01
665.44	24800.32
665.59	24453.92
665.73	24423.49
665.87	24379.02
666.01	24542.86
666.15	24622.44
666.29	24514.77
666.44	24671.59
666.58	24418.81
666.72	24432.85
666.86	24411.79
667.00	24713.72
667.14	24386.04
667.28	24224.54
667.43	24460.94
667.57	24198.80
667.71	23981.13
667.85	24219.86
667.99	23770.48
668.13	23913.25
668.27	24318.17
668.41	23875.80
668.56	23922.62
668.70	24063.05
668.84	24278.38
668.98	23882.83
669.12	24100.50
669.26	24058.37
669.40	23892.19
669.54	23927.30
669.68	23496.64
669.82	23976.45
669.96	23566.85
670.10	23318.76
670.25	23370.25
670.39	23548.13
670.53	23222.80
670.67	23274.29
670.81	23695.58
670.95	23318.76
671.09	23482.59
671.23	23491.96
671.37	23796.23
671.51	23531.75
671.65	23262.58
671.79	23232.16
671.93	23152.58
672.07	23152.58
672.21	23047.26
672.35	22813.20
672.49	22513.61
672.63	22850.65
672.77	22506.59
672.91	22993.42
673.05	22712.56
673.19	22670.43
673.33	22773.41
673.47	22359.14
673.61	22621.28
673.75	22801.50
673.89	22546.38
674.03	22328.71
674.17	22757.03
674.31	22272.54
674.45	22675.11
674.59	22466.80
674.73	22361.48
674.87	22225.73
675.01	22029.12
675.15	22155.51
675.29	22099.34
675.43	21757.62
675.56	21860.60
675.70	22003.38
675.84	22017.42
675.98	21420.58
676.12	21848.90
676.26	22045.51
676.40	22057.21
676.54	21734.21
676.68	21659.32
676.82	21298.88
676.96	21570.38
677.10	21275.47
677.23	21451.01
677.37	21493.14
677.51	21076.52
677.65	20973.54
677.79	20940.77
677.93	21069.50
678.07	21050.78
678.21	20980.56
678.34	20800.34
678.48	20507.77
678.62	20968.86
678.76	20971.20
678.90	20585.01
679.04	20397.77
679.18	20802.68
679.31	20746.51
679.45	20105.20
679.59	19922.64
679.73	20226.91
679.87	20112.22
680.00	20177.76
680.14	20027.96
680.28	20023.28
680.42	20058.39
680.56	19941.36
680.70	20032.65
680.83	20025.62
680.97	19929.66
681.11	19915.62
681.25	19625.39
681.39	19627.73
681.52	19777.53
681.66	19552.84
681.80	19358.57
681.94	19063.66
682.07	19513.05
682.21	19412.40
682.35	19047.28
682.49	18768.76
682.62	18892.80
682.76	19108.13
682.90	19115.16
683.04	18965.36
683.17	19098.77
683.31	18878.76
683.45	19054.30
683.59	18843.65
683.72	18391.93
683.86	18773.44
684.00	18499.59
684.13	18618.96
684.27	18630.66
684.41	18113.41
684.55	18225.75
684.68	18064.25
684.82	17958.93
684.96	18429.38
685.09	18071.28
685.23	17935.53
685.37	17888.71
685.50	17984.68
685.64	18195.32
685.78	17813.82
685.91	17855.95
686.05	18038.51
686.19	17703.81
686.32	17954.25
686.46	17483.80
686.60	17305.92
686.73	17509.55
686.87	17642.96
687.01	17247.41
687.14	17235.70
687.28	17114.00
687.42	17219.32
687.55	16943.14
687.69	17289.54
687.82	17181.87
687.96	16865.90
688.10	16748.87
688.23	16753.55
688.37	17029.74
688.50	16648.23
688.64	16486.73
688.78	16535.88
688.91	16690.36
689.05	16720.79
689.18	16493.76
689.32	16109.91
689.46	16353.32
689.59	16173.10
689.73	15927.35
689.86	16035.01
690.00	16046.71
690.13	16065.44
690.27	15939.05
690.41	16053.73
690.54	15999.90
690.68	15974.16
690.81	16091.18
690.95	15878.19
691.08	15859.47
691.22	15737.76
691.35	15679.25
691.49	15763.51
691.62	15840.75
691.76	15400.72
691.89	15255.61
692.03	15159.65
692.16	15094.11
692.30	15030.92
692.43	14953.68
692.57	15166.67
692.70	15122.20
692.84	14885.81
692.97	14977.09
693.11	14970.07
693.24	14782.82
693.38	14794.53
693.51	14342.80
693.65	14661.12
693.78	14324.08
693.92	14626.01
694.05	14565.15
694.19	14455.15
694.32	14464.51
694.45	14183.65
694.59	14356.85
694.72	14410.68
694.86	13879.38
694.99	14097.05
695.13	14054.92
695.26	13811.50
695.39	13816.18
695.53	13743.63
695.66	13706.18
695.80	13685.11
695.93	13954.27
696.07	13926.19
696.20	13593.83
696.33	13593.83
696.47	13399.57
696.60	13483.83
696.73	13525.96
696.87	13261.48
697.00	13270.84
697.14	13240.41
697.27	13064.87
697.40	12856.56
697.54	13128.06
697.67	12814.43
697.80	12959.55
697.94	12697.41
698.07	12704.43
698.21	12833.16
698.34	12559.31
698.47	12882.31
698.61	12556.97
698.74	12709.11
698.87	12669.32
699.01	12453.99
699.14	12397.82
699.27	12409.52
699.40	12362.71
699.54	12248.02
699.67	12418.88
699.80	12215.26
699.94	12032.69
700.07	12140.36
700.20	11861.84
700.34	11761.19
700.47	11845.45
700.60	12002.27
700.73	11892.26
700.87	11971.84
701.00	12044.40
701.13	11492.03
701.26	11723.74
701.40	11866.52
701.53	11688.64
701.66	11562.25
701.79	11206.48
701.93	11410.11
702.06	11260.32
702.19	11353.94
702.32	11190.10
702.46	11337.56
702.59	11005.20
702.72	10995.84
702.85	11016.90
702.99	11014.56
703.12	10864.77
703.25	10747.74
703.38	10963.07
703.51	10827.32
703.65	10885.83
703.78	10658.80
703.91	10651.78
704.04	10729.02
704.17	10621.35
704.31	10607.31
704.44	10394.32
704.57	10291.34
704.70	10326.44
704.83	10279.63
704.96	10214.10
705.10	10181.33
705.23	10129.84
>>>>>End Processed Spectral Data<<<<<
