SpectraSuite Data File
++++++++++++++++++++++++++++++++++++
Date: Fri Oct 18 13:58:26 GMT-05:00 2013
User: bianchi
Dark Spectrum Present: No
Reference Spectrum Present: No
Number of Sampled Component Spectra: 1
Spectrometers: USB2+H05261
Integration Time (usec): 50000 (USB2+H05261)
Spectra Averaged: 1 (USB2+H05261)
Boxcar Smoothing: 0 (USB2+H05261)
Correct for Electrical Dark: No (USB2+H05261)
Strobe/Lamp Enabled: No (USB2+H05261)
Correct for Detector Non-linearity: No (USB2+H05261)
Correct for Stray Light: No (USB2+H05261)
Number of Pixels in Processed Spectrum: 2048
>>>>>Begin Processed Spectral Data<<<<<
365.73	0.00
365.92	0.00
366.12	0.00
366.32	0.00
366.52	0.00
366.72	0.00
366.91	0.00
367.11	0.00
367.31	0.00
367.51	0.00
367.70	0.00
367.90	0.00
368.10	0.00
368.30	0.00
368.49	0.00
368.69	0.00
368.89	0.00
369.09	0.00
369.28	0.00
369.48	0.00
369.68	0.00
369.87	0.00
370.07	0.00
370.27	0.00
370.47	0.00
370.66	93.62
370.86	114.69
371.06	140.43
371.25	163.84
371.45	147.45
371.65	112.35
371.84	117.03
372.04	163.84
372.24	149.79
372.44	156.82
372.63	128.73
372.83	210.65
373.03	149.79
373.22	229.37
373.42	182.56
373.62	140.43
373.81	105.32
374.01	220.01
374.21	198.95
374.40	297.25
374.60	170.86
374.79	210.65
374.99	224.69
375.19	222.35
375.38	283.20
375.58	299.59
375.78	285.55
375.97	229.37
376.17	297.25
376.37	337.04
376.56	231.71
376.76	278.52
376.95	308.95
377.15	266.82
377.35	201.29
377.54	229.37
377.74	252.78
377.93	313.63
378.13	273.84
378.33	243.42
378.52	287.89
378.72	294.91
378.91	205.97
379.11	238.73
379.31	224.69
379.50	292.57
379.70	266.82
379.89	311.29
380.09	362.78
380.28	294.91
380.48	269.16
380.68	320.65
380.87	224.69
381.07	358.10
381.26	311.29
381.46	322.99
381.65	304.27
381.85	220.01
382.04	297.25
382.24	304.27
382.43	353.42
382.63	425.98
382.83	360.44
383.02	344.06
383.22	397.89
383.41	339.38
383.61	325.33
383.80	351.08
384.00	449.38
384.19	348.74
384.39	308.95
384.58	332.36
384.78	369.80
384.97	416.62
385.17	294.91
385.36	341.72
385.56	365.12
385.75	374.49
385.95	402.57
386.14	372.15
386.34	423.64
386.53	390.87
386.72	388.53
386.92	482.15
387.11	482.15
387.31	409.59
387.50	437.68
387.70	463.43
387.89	449.38
388.09	397.89
388.28	372.15
388.48	411.93
388.67	484.49
388.86	437.68
389.06	433.00
389.25	425.98
389.45	461.09
389.64	507.90
389.84	381.51
390.03	421.30
390.22	500.87
390.42	514.92
390.61	461.09
390.81	458.74
391.00	475.13
391.19	491.51
391.39	409.59
391.58	535.98
391.78	531.30
391.97	526.62
392.16	484.49
392.36	571.09
392.55	564.07
392.75	482.15
392.94	428.32
393.13	491.51
393.33	578.11
393.52	475.13
393.71	648.33
393.91	599.18
394.10	552.37
394.29	545.34
394.49	552.37
394.68	599.18
394.88	657.69
395.07	643.65
395.26	615.56
395.46	606.20
395.65	596.84
395.84	676.41
396.04	706.84
396.23	645.99
396.42	638.97
396.62	573.43
396.81	617.90
397.00	699.82
397.19	641.31
397.39	648.33
397.58	622.58
397.77	613.22
397.97	638.97
398.16	629.60
398.35	697.48
398.55	674.07
398.74	758.33
398.93	760.67
399.12	688.12
399.32	720.88
399.51	669.39
399.70	730.25
399.90	711.52
400.09	753.65
400.28	830.89
400.47	741.95
400.67	763.01
400.86	777.06
401.05	770.04
401.24	795.78
401.44	760.67
401.63	716.20
401.82	755.99
402.01	812.17
402.21	812.17
402.40	805.14
402.59	844.93
402.78	842.59
402.97	905.79
403.17	844.93
403.36	851.96
403.55	877.70
403.74	866.00
403.93	856.64
404.13	950.26
404.32	863.66
404.51	896.43
404.70	910.47
404.89	936.21
405.09	1015.79
405.28	898.77
405.47	912.81
405.66	898.77
405.85	964.30
406.05	985.37
406.24	903.45
406.43	854.30
406.62	943.24
406.81	1039.20
407.00	915.15
407.20	950.26
407.39	1067.28
407.58	1078.99
407.77	1046.22
407.96	1090.69
408.15	1050.90
408.34	1083.67
408.54	1139.84
408.73	1027.50
408.92	1123.46
409.11	1015.79
409.30	1151.54
409.49	1001.75
409.68	1158.57
409.87	1071.97
410.07	1156.22
410.26	1172.61
410.45	1179.63
410.64	1167.93
410.83	1254.53
411.02	1139.84
411.21	1179.63
411.40	1261.55
411.59	1184.31
411.78	1249.85
411.98	1329.42
412.17	1315.38
412.36	1329.42
412.55	1266.23
412.74	1270.91
412.93	1343.47
413.12	1376.24
413.31	1455.81
413.50	1336.45
413.69	1430.07
413.88	1413.68
414.07	1308.36
414.26	1451.13
414.45	1446.45
414.64	1441.77
414.83	1547.09
415.02	1502.62
415.22	1481.56
415.41	1561.14
415.60	1554.12
415.79	1568.16
415.98	1490.92
416.17	1535.39
416.36	1650.08
416.55	1631.35
416.74	1504.96
416.93	1593.90
417.12	1589.22
417.31	1556.46
417.50	1727.32
417.69	1739.02
417.88	1666.46
418.07	1694.55
418.26	1678.16
418.45	1720.29
418.64	1795.19
418.83	1680.50
419.02	1792.85
419.21	1832.64
419.39	1902.86
419.58	1790.51
419.77	1778.81
419.96	1914.56
420.15	1856.04
420.34	1844.34
420.53	1872.43
420.72	1872.43
420.91	1926.26
421.10	1956.69
421.29	1923.92
421.48	1928.60
421.67	2043.29
421.86	1865.41
422.05	1944.99
422.24	2001.16
422.43	1860.73
422.61	1937.96
422.80	1994.14
422.99	1975.41
423.18	2132.23
423.37	2024.56
423.56	1973.07
423.75	1947.33
423.94	1980.09
424.13	1842.00
424.32	1940.30
424.50	1994.14
424.69	2143.93
424.88	2017.54
425.07	1966.05
425.26	2073.71
425.45	2040.95
425.64	1989.46
425.83	1970.73
426.01	2090.10
426.20	2047.97
426.39	2071.37
426.58	2148.61
426.77	1949.67
426.96	2064.35
427.15	2172.02
427.33	2059.67
427.52	2120.53
427.71	2115.84
427.90	2218.83
428.09	2143.93
428.28	2246.91
428.46	2209.47
428.65	2143.93
428.84	2188.40
429.03	2207.13
429.22	2157.97
429.40	2120.53
429.59	2186.06
429.78	2094.78
429.97	2141.59
430.16	2291.38
430.34	2223.51
430.53	2452.88
430.72	2396.71
430.91	2235.21
431.10	2207.13
431.28	2200.10
431.47	2331.17
431.66	2487.99
431.85	2392.03
432.03	2382.67
432.22	2455.22
432.41	2431.82
432.60	2326.49
432.79	2462.24
432.97	2333.51
433.16	2349.90
433.35	2485.65
433.54	2553.52
433.72	2476.29
433.91	2469.27
434.10	2408.41
434.28	2476.29
434.47	2534.80
434.66	2532.46
434.85	2593.31
435.03	2677.57
435.22	2567.57
435.41	2663.53
435.59	2630.76
435.78	2562.89
435.97	2740.77
436.16	2555.86
436.34	2548.84
436.53	2719.70
436.72	2637.78
436.90	2614.38
437.09	2679.91
437.28	2583.95
437.46	2677.57
437.65	2703.32
437.84	2710.34
438.02	2661.19
438.21	2778.22
438.40	2792.26
438.58	2895.24
438.77	2963.12
438.96	2796.94
439.14	2913.97
439.33	2906.95
439.52	3021.63
439.70	3059.08
439.89	3145.68
440.08	3084.83
440.26	3061.42
440.45	2995.89
440.63	3007.59
440.82	3281.43
441.01	3213.56
441.19	3007.59
441.38	3157.38
441.57	3112.91
441.75	3199.51
441.94	3225.26
442.12	3260.37
442.31	3328.24
442.50	3269.73
442.68	3330.58
442.87	3236.96
443.05	3269.73
443.24	3421.86
443.43	3318.88
443.61	3276.75
443.80	3513.14
443.98	3323.56
444.17	3290.79
444.35	3421.86
444.54	3368.03
444.73	3346.97
444.91	3524.85
445.10	3534.21
445.28	3426.54
445.47	3393.78
445.65	3440.59
445.84	3421.86
446.02	3545.91
446.21	3342.28
446.39	3471.01
446.58	3496.76
446.77	3424.20
446.95	3424.20
447.14	3471.01
447.32	3592.72
447.51	3365.69
447.69	3541.23
447.88	3571.66
448.06	3494.42
448.25	3485.06
448.43	3536.55
448.62	3522.51
448.80	3557.61
448.99	3487.40
449.17	3545.91
449.36	3545.91
449.54	3630.17
449.73	3765.92
449.91	3758.90
450.10	3609.11
450.28	3634.85
450.46	3798.69
450.65	3676.98
450.83	3538.89
451.02	3686.34
451.20	3768.26
451.39	3705.07
451.57	3681.66
451.76	3822.09
451.94	3770.60
452.13	3751.88
452.31	3669.96
452.49	3815.07
452.68	3756.56
452.86	3857.20
453.05	3901.67
453.23	3904.01
453.42	3866.56
453.60	3770.60
453.78	3922.74
453.97	3953.16
454.15	3801.03
454.34	4046.79
454.52	4142.75
454.70	3981.25
454.89	3882.95
455.07	4060.83
455.26	4042.11
455.44	4177.86
455.62	4042.11
455.81	4077.21
455.99	4170.83
456.17	4131.05
456.36	3988.27
456.54	4081.89
456.73	4198.92
456.91	4227.01
457.09	4257.43
457.28	4465.74
457.46	4198.92
457.64	4383.82
457.83	4285.52
458.01	4222.33
458.19	4329.99
458.38	4189.56
458.56	4442.34
458.74	4559.36
458.93	4449.36
459.11	4505.53
459.29	4372.12
459.48	4535.96
459.66	4390.84
459.84	4435.32
460.03	4542.98
460.21	4617.88
460.39	4542.98
460.57	4369.78
460.76	4538.30
460.94	4760.65
461.12	4664.69
461.31	4688.09
461.49	4601.49
461.67	4767.67
461.85	4758.31
462.04	4610.86
462.22	4676.39
462.40	4706.82
462.59	4854.27
462.77	4732.56
462.95	4695.11
463.13	4727.88
463.32	4854.27
463.50	4713.84
463.68	4777.03
463.86	4748.95
464.05	4772.35
464.23	4627.24
464.41	4954.91
464.59	4802.78
464.78	4849.59
464.96	4933.85
465.14	4947.89
465.32	4896.40
465.50	4926.83
465.69	5029.81
465.87	4828.53
466.05	4840.23
466.23	4887.04
466.41	4961.94
466.60	5156.20
466.78	4945.55
466.96	5060.24
467.14	4919.81
467.32	5004.07
467.51	5231.10
467.69	5053.22
467.87	5128.11
468.05	5135.14
468.23	5039.17
468.41	5163.22
468.60	5160.88
468.78	5282.59
468.96	5069.60
469.14	5242.80
469.32	5329.40
469.50	5341.10
469.69	5254.50
469.87	5469.83
470.05	5416.00
470.23	5425.36
470.41	5378.55
470.59	5518.98
470.77	5275.57
470.95	5521.32
471.14	5469.83
471.32	5373.87
471.50	5598.56
471.68	5631.33
471.86	5554.09
472.04	5554.09
472.22	5727.29
472.40	5486.22
472.58	5614.95
472.77	5755.38
472.95	5722.61
473.13	5877.09
473.31	5652.39
473.49	5713.25
473.67	5785.80
473.85	5930.92
474.03	5802.19
474.21	6001.13
474.39	5994.11
474.57	6038.58
474.75	6097.10
474.93	6017.52
475.12	6113.48
475.30	6186.04
475.48	6171.99
475.66	6237.53
475.84	6265.61
476.02	6324.13
476.20	6354.55
476.38	6417.75
476.56	6504.35
476.74	6459.88
476.92	6445.84
477.10	6389.66
477.28	6640.10
477.46	6541.80
477.64	6574.56
477.82	6766.49
478.00	6876.49
478.18	6810.96
478.36	6867.13
478.54	6841.39
478.72	6897.56
478.90	7094.16
479.08	7077.78
479.26	7129.27
479.44	7229.91
479.62	7316.51
479.80	7323.54
479.98	7377.37
480.16	7658.23
480.34	7461.63
480.52	7576.31
480.70	7541.21
480.88	7644.19
481.06	7510.78
481.24	7534.18
481.41	7857.18
481.59	7988.25
481.77	8011.65
481.95	7955.48
482.13	8053.78
482.31	8182.51
482.49	8259.75
482.67	8147.40
482.85	8507.85
483.03	8334.65
483.21	8437.63
483.39	8484.44
483.57	8430.61
483.74	8568.70
483.92	8681.05
484.10	8695.09
484.28	8903.40
484.46	8947.87
484.64	9202.99
484.82	8931.48
485.00	8884.67
485.18	9312.99
485.35	9263.84
485.53	9413.63
485.71	9453.42
485.89	9458.10
486.07	9802.16
486.25	9729.61
486.43	9736.63
486.61	9633.64
486.78	9973.02
486.96	9827.91
487.14	10122.82
487.32	10059.62
487.50	10024.51
487.68	10157.92
487.85	10186.01
488.03	10408.36
488.21	10492.62
488.39	10541.77
488.57	10464.54
488.75	10670.50
488.92	10839.02
489.10	10920.94
489.28	10867.11
489.46	11012.22
489.64	11108.18
489.81	11351.60
489.99	11082.44
490.17	11150.31
490.35	11651.19
490.53	11524.80
490.70	11461.60
490.88	11538.84
491.06	11433.52
491.24	11623.10
491.41	11918.01
491.59	11871.20
491.77	11758.85
491.95	12102.91
492.13	12135.68
492.30	12009.29
492.48	12257.39
492.66	12159.08
492.84	12386.12
493.01	12266.75
493.19	12746.56
493.37	12704.43
493.54	12725.49
493.72	12769.96
493.90	12767.62
494.08	12968.91
494.25	12971.25
494.43	13212.32
494.61	13109.34
494.79	13294.24
494.96	13081.25
495.14	13231.05
495.32	13465.10
495.49	13263.82
495.67	13467.44
495.85	14024.49
496.02	13816.18
496.20	13884.06
496.38	14033.85
496.55	13640.64
496.73	14321.74
496.91	14134.50
497.09	14120.45
497.26	14391.95
497.44	14253.86
497.62	14083.00
497.79	14759.42
497.97	14527.71
498.14	14452.81
498.32	14740.69
498.50	14633.03
498.67	14677.50
498.85	14841.34
499.03	14937.30
499.20	15012.20
499.38	15037.94
499.56	14878.79
499.73	15220.50
499.91	15281.36
500.08	15447.54
500.26	15166.67
500.44	15274.34
500.61	15449.88
500.79	15166.67
500.97	15606.69
501.14	15838.41
501.32	15576.27
501.49	15707.34
501.67	15538.82
501.84	15929.69
502.02	15796.28
502.20	16049.05
502.37	16056.08
502.55	16140.33
502.72	16018.63
502.90	15962.45
503.07	16266.72
503.25	16292.47
503.43	16203.53
503.60	16369.71
503.78	16531.20
503.95	16294.81
504.13	16369.71
504.30	16545.25
504.48	16599.08
504.65	16671.64
504.83	16662.27
505.01	17069.53
505.18	16910.37
505.36	16973.56
505.53	16830.79
505.71	16980.59
505.88	17418.27
506.06	17170.17
506.23	17156.13
506.41	17350.39
506.58	17359.75
506.76	17539.97
506.93	17310.60
507.11	17034.42
507.28	17406.56
507.46	17341.03
507.63	17596.15
507.81	17500.19
507.98	17518.91
508.16	17788.07
508.33	17694.45
508.50	17694.45
508.68	17624.23
508.85	18146.17
509.03	18043.19
509.20	18157.88
509.38	18141.49
509.55	18183.62
509.73	18450.44
509.90	18082.98
510.08	18207.03
510.25	18682.16
510.42	18560.45
510.60	18579.17
510.77	18532.36
510.95	18771.10
511.12	18387.25
511.30	18459.81
511.47	19091.75
511.64	18525.34
511.82	18984.09
511.99	18628.32
512.17	19075.37
512.34	18890.46
512.51	19126.86
512.69	18920.89
512.86	19143.24
513.04	19482.62
513.21	19536.45
513.38	19452.19
513.56	19321.12
513.73	19396.02
513.90	19286.01
514.08	19438.15
514.25	19538.79
514.43	19604.33
514.60	19702.63
514.77	19419.42
514.95	19861.79
515.12	19716.67
515.29	19730.72
515.47	19812.63
515.64	19791.57
515.81	19709.65
515.99	19967.11
516.16	20259.68
516.33	20027.96
516.51	20486.71
516.68	20285.42
516.85	20109.88
517.03	20121.59
517.20	20247.97
517.37	20196.48
517.54	20622.46
517.72	20287.76
517.89	20503.09
518.06	20507.77
518.24	20725.44
518.41	20290.10
518.58	20908.01
518.75	20648.21
518.93	21003.97
519.10	20943.11
519.27	20746.51
519.45	20723.10
519.62	20690.34
519.79	20837.79
519.96	20870.56
520.14	21221.64
520.31	20966.52
520.48	21172.49
520.65	21362.07
520.83	21383.13
521.00	21280.15
521.17	21277.81
521.34	21205.25
521.52	21553.99
521.69	21476.76
521.86	21577.40
522.03	21678.04
522.20	21699.11
522.38	21898.05
522.55	21745.92
522.72	21715.49
522.89	21975.29
523.07	22120.40
523.24	21453.35
523.41	21898.05
523.58	21813.79
523.75	22242.11
523.92	21656.98
524.10	22068.91
524.27	22085.30
524.44	21914.44
524.61	22370.84
524.78	22394.25
524.96	22080.61
525.13	22284.24
525.30	22363.82
525.47	22281.90
525.64	22616.60
525.81	22522.98
525.98	22562.76
526.16	22640.00
526.33	22373.18
526.50	22616.60
526.67	22539.36
526.84	22576.81
527.01	22572.13
527.18	22792.14
527.36	22644.68
527.53	22911.50
527.70	23054.28
527.87	23164.28
528.04	22963.00
528.21	23115.13
528.38	23304.71
528.55	23117.47
528.72	22712.56
528.89	22977.04
529.07	23030.87
529.24	23405.36
529.41	23396.00
529.58	23293.01
529.75	23431.10
529.92	23520.04
530.09	23126.83
530.26	23091.73
530.43	23501.32
530.60	23442.81
530.77	23772.82
530.94	23709.63
531.11	23428.76
531.28	23557.49
531.46	23714.31
531.63	23810.27
531.80	23875.80
531.97	24034.96
532.14	23920.28
532.31	23859.42
532.48	23704.95
532.65	24041.98
532.82	23840.70
532.99	24231.57
533.16	24259.65
533.33	24297.10
533.50	24168.37
533.67	23995.17
533.84	23999.85
534.01	24402.43
534.18	24261.99
534.35	24608.39
534.52	24154.33
534.69	24313.48
534.86	24812.02
535.03	24151.99
535.20	24266.67
535.37	24659.88
535.54	24823.72
535.71	24638.82
535.88	24709.04
536.05	24341.57
536.22	24697.33
536.38	25142.03
536.55	24826.06
536.72	24924.36
536.89	24919.68
537.06	25032.03
537.23	24882.24
537.40	24650.52
537.57	24657.54
537.74	24638.82
537.91	25685.04
538.08	25188.85
538.25	25200.55
538.42	24830.74
538.59	25289.49
538.75	24833.08
538.92	25116.29
539.09	25479.07
539.26	25111.61
539.43	25319.92
539.60	25425.24
539.77	25397.15
539.94	25315.23
540.11	25198.21
540.28	25465.03
540.44	25188.85
540.61	25413.54
540.78	25462.69
540.95	25572.69
541.12	25696.74
541.29	25343.32
541.46	25776.32
541.62	25422.90
541.79	26003.35
541.96	25486.09
542.13	25530.56
542.30	25785.68
542.47	26094.63
542.63	25736.53
542.80	25986.97
542.97	26459.76
543.14	26366.13
543.31	26300.60
543.48	26101.65
543.64	26197.62
543.81	26483.16
543.98	26457.42
544.15	26438.69
544.32	26553.38
544.48	26518.27
544.65	26272.51
544.82	26216.34
544.99	25989.31
545.16	26572.10
545.32	26616.57
545.49	26544.02
545.66	26335.71
545.83	26611.89
546.00	26513.59
546.16	26654.02
546.33	26654.02
546.50	26075.91
546.67	26714.87
546.83	26541.68
547.00	26534.65
547.17	26771.05
547.34	26916.16
547.50	26838.92
547.67	27232.13
547.84	27021.48
548.00	26705.51
548.17	26986.38
548.34	26841.26
548.51	27103.40
548.67	27157.24
548.84	27094.04
549.01	26822.54
549.18	26878.71
549.34	26988.72
549.51	27124.47
549.68	27000.42
549.84	27126.81
550.01	27192.34
550.18	27030.85
550.34	27028.51
550.51	27454.48
550.68	27056.59
550.84	27201.71
551.01	27089.36
551.18	27175.96
551.34	27358.52
551.51	27267.24
551.68	26911.48
551.84	27538.74
552.01	27433.42
552.18	27520.02
552.34	27550.45
552.51	27447.46
552.68	27583.21
552.84	27576.19
553.01	27508.32
553.18	27524.70
553.34	27718.96
553.51	27323.41
553.67	28072.39
553.84	27946.00
554.01	27791.52
554.17	27548.11
554.34	27917.91
554.51	27819.61
554.67	27728.33
554.84	27800.88
555.00	27978.76
555.17	28114.52
555.33	27786.84
555.50	27936.63
555.67	28154.30
555.83	27920.25
556.00	27852.38
556.16	27864.08
556.33	28102.81
556.50	28107.49
556.66	28046.64
556.83	27955.36
556.99	28711.35
557.16	28376.66
557.32	28409.42
557.49	28491.34
557.65	27606.62
557.82	27789.18
557.98	28353.25
558.15	28542.83
558.32	28297.08
558.48	28198.77
558.65	28404.74
558.81	28423.47
558.98	27936.63
559.14	28126.22
559.31	28467.94
559.47	28320.48
559.64	28489.00
559.80	28395.38
559.97	28641.14
560.13	28631.77
560.30	28753.48
560.46	28814.34
560.63	28914.98
560.79	28533.47
560.96	28271.33
561.12	28528.79
561.29	28533.47
561.45	28563.90
561.61	28811.99
561.78	28716.03
561.94	28701.99
562.11	28814.34
562.27	28996.90
562.44	28835.40
562.60	28863.49
562.77	28582.62
562.93	28531.13
563.10	28933.70
563.26	28407.08
563.42	29254.36
563.59	28624.75
563.75	28556.88
563.92	28802.63
564.08	28816.68
564.24	28561.56
564.41	28613.05
564.57	28851.78
564.74	29174.78
564.90	28900.94
565.07	29355.00
565.23	29069.45
565.39	29158.39
565.56	28814.34
565.72	28989.88
565.88	28994.56
566.05	29448.62
566.21	28884.55
566.38	28758.16
566.54	28933.70
566.70	29078.82
566.87	29390.11
567.03	29160.73
567.19	29579.69
567.36	29008.60
567.52	29521.18
567.68	29467.34
567.85	28797.95
568.01	29291.80
568.17	28685.61
568.34	29298.83
568.50	29017.96
568.66	29149.03
568.83	29057.75
568.99	29144.35
569.15	29170.10
569.32	29113.92
569.48	28964.13
569.64	29139.67
569.81	29453.30
569.97	29703.74
570.13	29308.19
570.30	28943.06
570.46	29303.51
570.62	29507.13
570.78	29338.62
570.95	28828.38
571.11	29032.00
571.27	29010.94
571.43	29020.30
571.60	29448.62
571.76	29593.73
571.92	29729.48
572.09	29460.32
572.25	29591.39
572.41	29378.40
572.57	29301.17
572.74	29158.39
572.90	29380.74
573.06	29415.85
573.22	29343.30
573.38	29132.65
573.55	29364.36
573.71	29479.05
573.87	29184.14
574.03	29329.25
574.20	29546.92
574.36	29233.29
574.52	29326.91
574.68	29106.90
574.84	29373.72
575.01	29532.88
575.17	29244.99
575.33	29383.09
575.49	29441.60
575.65	29722.46
575.82	29446.28
575.98	29528.20
576.14	29418.19
576.30	29748.21
576.46	29357.34
576.62	29340.96
576.79	29516.50
576.95	29607.78
577.11	29441.60
577.27	29347.98
577.43	29720.12
577.59	29624.16
577.75	29284.78
577.92	29488.41
578.08	29139.67
578.24	29228.61
578.40	29638.20
578.56	29523.52
578.72	29610.12
578.88	29645.23
579.04	30031.41
579.21	29804.38
579.37	29816.08
579.53	29762.25
579.69	29200.52
579.85	29614.80
580.01	29909.71
580.17	29521.18
580.33	29446.28
580.49	29525.86
580.65	29621.82
580.82	29486.07
580.98	29675.65
581.14	29876.94
581.30	30132.06
581.46	29200.52
581.62	29766.93
581.78	29443.94
581.94	29652.25
582.10	29448.62
582.26	29839.49
582.42	29549.26
582.58	30169.51
582.74	29617.14
582.90	29769.27
583.06	29776.30
583.22	29689.70
583.38	29500.11
583.54	29567.99
583.70	29755.23
583.86	29928.43
584.02	29710.76
584.18	29535.22
584.34	29670.97
584.50	29387.77
584.66	29947.15
584.82	29603.10
584.98	29858.21
585.14	29699.06
585.30	29244.99
585.46	29694.38
585.62	29883.96
585.78	29525.86
585.94	29521.18
586.10	29507.13
586.26	29848.85
586.42	30429.30
586.58	29982.26
586.74	29500.11
586.90	29532.88
587.06	29598.41
587.22	29663.95
587.38	29785.66
587.54	29780.98
587.70	30125.04
587.86	29823.11
588.02	29780.98
588.18	30096.95
588.34	30024.39
588.49	29900.34
588.65	29860.55
588.81	29579.69
588.97	29818.42
589.13	29804.38
589.29	29783.32
589.45	29710.76
589.61	29954.18
589.77	30225.68
589.93	30000.99
590.08	30459.73
590.24	30389.52
590.40	30258.45
590.56	30040.78
590.72	29628.84
590.88	29617.14
591.04	29598.41
591.20	29996.31
591.35	30003.33
591.51	30249.08
591.67	30323.98
591.83	30356.75
591.99	30082.91
592.15	29930.77
592.31	30061.84
592.46	29680.33
592.62	30211.64
592.78	29656.93
592.94	29940.13
593.10	29949.50
593.26	30319.30
593.41	30082.91
593.57	29928.43
593.73	30134.40
593.89	30551.01
594.05	30103.97
594.20	29979.92
594.36	30335.68
594.52	30003.33
594.68	29680.33
594.84	29954.18
594.99	30047.80
595.15	30249.08
595.31	29986.94
595.47	30230.36
595.62	30490.16
595.78	29968.22
595.94	30071.20
596.10	29713.10
596.25	30089.93
596.41	29909.71
596.57	29947.15
596.73	30141.42
596.88	29834.81
597.04	30281.85
597.20	30389.52
597.36	30314.62
597.51	30534.63
597.67	30380.15
597.83	29926.09
597.99	30300.58
598.14	30059.50
598.30	30345.05
598.46	30071.20
598.61	30183.55
598.77	30258.45
598.93	30319.30
599.09	30127.38
599.24	30651.66
599.40	30714.85
599.56	30515.90
599.71	29991.62
599.87	30370.79
600.03	30389.52
600.18	30216.32
600.34	30183.55
600.50	30356.75
600.65	30223.34
600.81	30405.90
600.97	30288.87
601.12	30534.63
601.28	30508.88
601.44	30494.84
601.59	30232.70
601.75	30267.81
601.91	30246.74
602.06	29642.88
602.22	30323.98
602.37	30181.21
602.53	30309.94
602.69	30541.65
602.84	30665.70
603.00	30319.30
603.16	30412.92
603.31	30174.19
603.47	30309.94
603.62	30029.07
603.78	30059.50
603.94	30586.12
604.09	30321.64
604.25	30197.59
604.40	30132.06
604.56	30424.62
604.71	30981.67
604.87	30618.89
605.03	30272.49
605.18	30417.60
605.34	30146.10
605.49	30106.31
605.65	30396.54
605.80	30148.44
605.96	30167.16
606.12	30192.91
606.27	30326.32
606.43	30118.01
606.58	30298.23
606.74	30235.04
606.89	30338.02
607.05	30419.94
607.20	30682.08
607.36	30431.65
607.51	30059.50
607.67	30019.71
607.82	29841.83
607.98	30146.10
608.13	29942.47
608.29	29979.92
608.44	29968.22
608.60	30054.82
608.75	30204.61
608.91	30218.66
609.06	29961.20
609.22	30228.02
609.37	29635.86
609.53	30061.84
609.68	29830.13
609.84	30129.72
609.99	29993.97
610.15	29851.19
610.30	29902.68
610.46	29902.68
610.61	30101.63
610.76	30043.12
610.92	30096.95
611.07	29982.26
611.23	29844.17
611.38	30101.63
611.54	29687.36
611.69	29699.06
611.84	29979.92
612.00	29689.70
612.15	29766.93
612.31	30169.51
612.46	29715.44
612.62	29830.13
612.77	29986.94
612.92	30075.88
613.08	29663.95
613.23	30099.29
613.39	29804.38
613.54	29373.72
613.69	29783.32
613.85	29301.17
614.00	29626.50
614.15	29823.11
614.31	29752.89
614.46	30073.54
614.62	29570.33
614.77	29766.93
614.92	29762.25
615.08	29762.25
615.23	29717.78
615.38	29851.19
615.54	29542.24
615.69	29532.88
615.84	29530.54
616.00	29537.56
616.15	29490.75
616.30	29546.92
616.46	29582.03
616.61	29883.96
616.76	29919.07
616.92	29441.60
617.07	29783.32
617.22	29151.37
617.37	29153.71
617.53	29420.53
617.68	29010.94
617.83	29160.73
617.99	29434.58
618.14	29160.73
618.29	29521.18
618.45	29355.00
618.60	29591.39
618.75	29350.32
618.90	29338.62
619.06	29296.49
619.21	29340.96
619.36	29294.14
619.51	29570.33
619.67	28924.34
619.82	28786.25
619.97	29053.07
620.12	28849.44
620.28	29277.76
620.43	29156.05
620.58	29184.14
620.73	29324.57
620.89	28952.43
621.04	29460.32
621.19	29242.65
621.34	28865.83
621.49	29001.58
621.65	28964.13
621.80	28947.75
621.95	28624.75
622.10	28931.36
622.25	28891.57
622.41	28912.64
622.56	28973.49
622.71	28929.02
622.86	28879.87
623.01	28800.29
623.16	28753.48
623.32	28512.41
623.47	28699.65
623.62	28875.19
623.77	28800.29
623.92	28531.13
624.07	28699.65
624.23	29039.03
624.38	28924.34
624.53	28936.04
624.68	28833.06
624.83	28725.39
624.98	28685.61
625.13	28767.52
625.29	28474.96
625.44	28671.56
625.59	28268.99
625.74	28720.71
625.89	28503.04
626.04	28617.73
626.19	28556.88
626.34	28503.04
626.49	28079.41
626.65	28421.13
626.80	28608.37
626.95	28659.86
627.10	28355.59
627.25	28444.53
627.40	28407.08
627.55	28105.15
627.70	27828.97
627.85	27948.34
628.00	28266.65
628.15	28238.56
628.30	28116.86
628.45	28133.24
628.60	28292.40
628.76	28402.40
628.91	28453.89
629.06	28009.19
629.21	28430.49
629.36	28231.54
629.51	28109.83
629.66	27697.90
629.81	27941.32
629.96	28201.11
630.11	28065.36
630.26	28037.28
630.41	27789.18
630.56	27779.82
630.71	28304.10
630.86	28243.24
631.01	28039.62
631.16	28369.63
631.31	27976.42
631.46	27828.97
631.61	27496.61
631.76	27997.49
631.91	27995.15
632.06	27915.57
632.21	27821.95
632.36	27592.58
632.51	27531.72
632.66	27634.71
632.81	27608.96
632.96	27704.92
633.10	27374.91
633.25	27751.73
633.40	27747.05
633.55	27653.43
633.70	27833.65
633.85	27426.40
634.00	27644.07
634.15	27875.78
634.30	27190.00
634.45	27307.03
634.60	27356.18
634.75	27534.06
634.90	27438.10
635.05	27695.56
635.19	27449.80
635.34	27913.23
635.49	27440.44
635.64	27515.34
635.79	27494.27
635.94	27225.11
636.09	27316.39
636.24	27234.47
636.39	27194.68
636.53	27056.59
636.68	27321.07
636.83	26977.01
636.98	27129.15
637.13	27072.98
637.28	27592.58
637.43	27496.61
637.57	27274.26
637.72	27108.08
637.87	27566.83
638.02	27080.00
638.17	27087.02
638.32	26977.01
638.46	26923.18
638.61	26927.86
638.76	26920.84
638.91	27056.59
639.06	27058.93
639.20	27012.12
639.35	26965.31
639.50	26815.52
639.65	27026.17
639.80	27435.76
639.94	27028.51
640.09	27344.48
640.24	26972.33
640.39	26707.85
640.54	26867.01
640.68	26560.40
640.83	26885.73
640.98	26693.81
641.13	26480.82
641.27	27108.08
641.42	26796.79
641.57	26829.56
641.72	26721.90
641.86	26354.43
642.01	26644.66
642.16	26927.86
642.31	26604.87
642.45	26462.10
642.60	26462.10
642.75	26464.44
642.90	26300.60
643.04	26352.09
643.19	26377.84
643.34	26373.16
643.48	26473.80
643.63	26448.05
643.78	26586.15
643.93	26668.06
644.07	26455.08
644.22	26405.92
644.37	26228.04
644.51	26677.43
644.66	26455.08
644.81	26197.62
644.95	26148.46
645.10	26246.77
645.25	26277.19
645.39	26232.72
645.54	26197.62
645.69	25991.65
645.83	26167.19
645.98	26181.23
646.13	26754.66
646.27	26256.13
646.42	26043.14
646.57	25965.90
646.71	26410.60
646.86	26263.15
647.00	26199.96
647.15	25841.85
647.30	25811.43
647.44	25549.29
647.59	25736.53
647.74	25900.37
647.88	26108.68
648.03	26040.80
648.17	26441.03
648.32	26115.70
648.47	26174.21
648.61	26085.27
648.76	25975.27
648.90	25851.22
649.05	26082.93
649.20	25902.71
649.34	25755.26
649.49	25820.79
649.63	25825.47
649.78	25830.15
649.92	25757.60
650.07	25909.73
650.21	25453.33
650.36	25956.54
650.51	25804.41
650.65	25668.66
650.80	25949.52
650.94	25823.13
651.09	25579.71
651.23	25125.65
651.38	25823.13
651.52	25624.18
651.67	25591.42
651.81	25537.59
651.96	25656.95
652.10	25495.46
652.25	25682.70
652.39	25668.66
652.54	25755.26
652.68	25563.33
652.83	25488.43
652.97	25731.85
653.12	25689.72
653.26	25483.75
653.41	25586.74
653.55	25500.14
653.70	25228.63
653.84	25345.66
653.99	25387.79
654.13	25514.18
654.27	25439.28
654.42	25366.73
654.56	25282.47
654.71	25450.99
654.85	25481.41
655.00	25490.77
655.14	25174.80
655.29	25479.07
655.43	25146.72
655.57	25029.69
655.72	25252.04
655.86	24851.81
656.01	25223.95
656.15	25039.05
656.30	25043.73
656.44	25172.46
656.58	25013.31
656.73	25125.65
656.87	24938.41
657.01	24868.19
657.16	25022.67
657.30	24964.15
657.45	24966.49
657.59	24812.02
657.73	24793.29
657.88	25177.14
658.02	24973.52
658.16	24739.46
658.31	24982.88
658.45	24622.44
658.60	24549.88
658.74	24854.15
658.88	24435.19
659.03	24872.87
659.17	24943.09
659.31	25043.73
659.46	24575.62
659.60	24519.45
659.74	24720.74
659.89	24348.59
660.03	24451.58
660.17	24432.85
660.32	24357.96
660.46	24240.93
660.60	24479.66
660.74	24374.34
660.89	24423.49
661.03	24194.12
661.17	24100.50
661.32	24308.80
661.46	24151.99
661.60	24372.00
661.74	24250.29
661.89	24203.48
662.03	24163.69
662.17	24016.24
662.31	23908.57
662.46	24329.87
662.60	23836.02
662.74	24009.22
662.88	23814.95
663.03	23718.99
663.17	23964.75
663.31	23529.41
663.45	23658.14
663.60	23812.61
663.74	23447.49
663.88	23388.97
664.02	23337.48
664.17	23985.81
664.31	23676.86
664.45	23833.68
664.59	23384.29
664.73	23711.97
664.88	23494.30
665.02	23211.09
665.16	23290.67
665.30	23608.98
665.44	23342.16
665.59	23049.60
665.73	23281.31
665.87	23115.13
666.01	22965.34
666.15	23388.97
666.29	23276.63
666.44	23005.13
666.58	23157.26
666.72	23173.64
666.86	22789.80
667.00	23138.54
667.14	22721.92
667.28	22782.77
667.43	22703.20
667.57	22817.88
667.71	22820.22
667.85	22719.58
667.99	22525.32
668.13	23016.83
668.27	22544.04
668.41	22558.08
668.56	22555.74
668.70	22441.06
668.84	22820.22
668.98	22342.75
669.12	22518.29
669.26	22813.20
669.40	22691.49
669.54	22497.23
669.68	22508.93
669.82	22473.82
669.96	21912.10
670.10	22160.19
670.25	22225.73
670.39	22452.76
670.53	21921.46
670.67	21930.82
670.81	22286.58
670.95	22113.38
671.09	21928.48
671.23	21841.88
671.37	22139.13
671.51	21841.88
671.65	21869.97
671.79	21633.57
671.93	21713.15
672.07	22022.10
672.21	21785.71
672.35	21532.93
672.49	21544.63
672.63	21603.14
672.77	21565.70
672.91	21427.60
673.05	21359.73
673.19	21654.64
673.33	21418.24
673.47	21310.58
673.61	21221.64
673.75	21420.58
673.89	21238.02
674.03	21553.99
674.17	21109.29
674.31	21120.99
674.45	21060.14
674.59	21371.43
674.73	20889.28
674.87	20680.97
675.01	21018.01
675.15	20842.47
675.29	20793.32
675.43	20765.23
675.56	20739.49
675.70	20538.20
675.84	20760.55
675.98	20140.31
676.12	20374.36
676.26	20837.79
676.40	20659.91
676.54	20577.99
676.68	20751.19
676.82	20053.71
676.96	20306.49
677.10	20318.19
677.23	20285.42
677.37	20025.62
677.51	19850.08
677.65	19924.98
677.79	19742.42
677.93	19653.48
678.07	19604.33
678.21	19805.61
678.34	19559.86
678.48	19646.46
678.62	19679.22
678.76	19491.98
678.90	19297.72
679.04	19302.40
679.18	19122.18
679.31	19044.94
679.45	18927.91
679.59	18876.42
679.73	18689.18
679.87	18824.93
680.00	18693.86
680.14	18733.65
680.28	19051.96
680.42	18970.04
680.56	19051.96
680.70	18773.44
680.83	18614.28
680.97	18700.88
681.11	18621.30
681.25	18527.68
681.39	18501.93
681.52	18420.02
681.66	18066.60
681.80	18497.25
681.94	18162.56
682.07	18022.12
682.21	18118.09
682.35	17987.02
682.49	18223.41
682.62	17877.01
682.76	17830.20
682.90	17982.34
683.04	17977.65
683.17	17776.37
683.31	17701.47
683.45	17790.41
683.59	18052.55
683.72	17685.09
683.86	17582.10
684.00	17626.57
684.13	17467.42
684.27	17207.62
684.41	16968.88
684.55	17170.17
684.68	17036.76
684.82	16802.71
684.96	16940.80
685.09	16917.39
685.23	16641.21
685.37	16837.81
685.50	16702.06
685.64	16812.07
685.78	16973.56
685.91	17149.11
686.05	17013.35
686.19	16762.92
686.32	16823.77
686.46	16379.07
686.60	16388.43
686.73	16430.56
686.87	16042.03
687.01	15896.92
687.14	16280.77
687.28	16196.51
687.42	15915.64
687.55	16016.29
687.69	16018.63
687.82	15861.81
687.96	16137.99
688.10	16259.70
688.23	15782.23
688.37	15932.03
688.50	15887.56
688.64	15723.72
688.78	15360.94
688.91	15543.50
689.05	15709.68
689.18	15290.72
689.32	15290.72
689.46	15438.17
689.59	15393.70
689.73	15335.19
689.86	15276.68
690.00	15129.22
690.13	15269.66
690.27	14764.10
690.41	14993.47
690.54	15119.86
690.68	15014.54
690.81	15290.72
690.95	14766.44
691.08	15089.43
691.22	14600.26
691.35	14827.29
691.49	14815.59
691.62	14499.62
691.76	14518.34
691.89	14295.99
692.03	14281.95
692.16	14209.39
692.30	14090.02
692.43	14251.52
692.57	14167.26
692.70	13891.08
692.84	14270.25
692.97	13984.70
693.11	13921.51
693.24	13750.65
693.38	13965.98
693.51	13891.08
693.65	13781.07
693.78	13771.71
693.92	13652.34
694.05	13671.07
694.19	13495.53
694.32	13916.83
694.45	13483.83
694.59	13139.77
694.72	13439.36
694.86	13151.47
694.99	13018.06
695.13	13144.45
695.26	12973.59
695.39	13128.06
695.53	12798.05
695.66	13343.39
695.80	12945.50
695.93	13006.36
696.07	13107.00
696.20	12842.52
696.33	13062.53
696.47	12702.09
696.60	12556.97
696.73	12601.44
696.87	12716.13
697.00	12575.70
697.14	12463.35
697.27	12374.41
697.40	12229.30
697.54	12339.30
697.67	12107.59
697.80	12285.47
697.94	11995.25
698.07	11974.18
698.21	11936.73
698.34	12002.27
698.47	12252.70
698.61	11819.71
698.74	11967.16
698.87	11712.04
699.01	11815.02
699.14	11936.73
699.27	11576.29
699.40	11625.44
699.54	11513.10
699.67	11403.09
699.80	11407.77
699.94	11367.98
700.07	11304.79
700.20	11220.53
700.34	11110.52
700.47	11178.40
700.60	11157.33
700.73	11063.71
700.87	11084.78
701.00	11119.89
701.13	10904.56
701.26	10979.45
701.40	11061.37
701.53	10927.96
701.66	10909.24
701.79	10714.97
701.93	10789.87
702.06	10703.27
702.19	10562.84
702.32	10384.96
702.46	10504.32
702.59	10286.65
702.72	10303.04
702.85	10307.72
702.99	10363.89
703.12	10359.21
703.25	10193.03
703.38	10431.77
703.51	10125.16
703.65	10338.15
703.78	10164.95
703.91	9916.85
704.04	10076.01
704.17	9902.81
704.31	10008.13
704.44	9914.51
704.57	9926.21
704.70	9926.21
704.83	9750.67
704.96	9474.49
705.10	9729.61
705.23	9511.94
>>>>>End Processed Spectral Data<<<<<
