SpectraSuite Data File
++++++++++++++++++++++++++++++++++++
Date: Fri Oct 18 13:58:24 GMT-05:00 2013
User: bianchi
Dark Spectrum Present: No
Reference Spectrum Present: No
Number of Sampled Component Spectra: 1
Spectrometers: USB2+H05261
Integration Time (usec): 50000 (USB2+H05261)
Spectra Averaged: 1 (USB2+H05261)
Boxcar Smoothing: 0 (USB2+H05261)
Correct for Electrical Dark: No (USB2+H05261)
Strobe/Lamp Enabled: No (USB2+H05261)
Correct for Detector Non-linearity: No (USB2+H05261)
Correct for Stray Light: No (USB2+H05261)
Number of Pixels in Processed Spectrum: 2048
>>>>>Begin Processed Spectral Data<<<<<
365.73	0.00
365.92	0.00
366.12	0.00
366.32	0.00
366.52	0.00
366.72	0.00
366.91	0.00
367.11	0.00
367.31	0.00
367.51	0.00
367.70	0.00
367.90	0.00
368.10	0.00
368.30	0.00
368.49	0.00
368.69	0.00
368.89	0.00
369.09	0.00
369.28	0.00
369.48	0.00
369.68	0.00
369.87	0.00
370.07	0.00
370.27	0.00
370.47	0.00
370.66	131.07
370.86	124.05
371.06	133.41
371.25	142.77
371.45	159.16
371.65	128.73
371.84	119.37
372.04	91.28
372.24	88.94
372.44	149.79
372.63	168.52
372.83	182.56
373.03	212.99
373.22	126.39
373.42	166.18
373.62	110.01
373.81	243.42
374.01	278.52
374.21	224.69
374.40	194.26
374.60	241.08
374.79	182.56
374.99	266.82
375.19	184.90
375.38	203.63
375.58	327.68
375.78	330.02
375.97	217.67
376.17	271.50
376.37	276.18
376.56	248.10
376.76	229.37
376.95	212.99
377.15	325.33
377.35	243.42
377.54	220.01
377.74	217.67
377.93	222.35
378.13	308.95
378.33	210.65
378.52	245.76
378.72	248.10
378.91	259.80
379.11	276.18
379.31	234.05
379.50	332.36
379.70	287.89
379.89	308.95
380.09	341.72
380.28	259.80
380.48	313.63
380.68	238.73
380.87	332.36
381.07	287.89
381.26	243.42
381.46	325.33
381.65	297.25
381.85	372.15
382.04	355.76
382.24	304.27
382.43	348.74
382.63	241.08
382.83	290.23
383.02	435.34
383.22	365.12
383.41	346.40
383.61	430.66
383.80	440.02
384.00	374.49
384.19	367.46
384.39	395.55
384.58	360.44
384.78	390.87
384.97	308.95
385.17	379.17
385.36	330.02
385.56	318.31
385.75	486.83
385.95	362.78
386.14	360.44
386.34	411.93
386.53	409.59
386.72	395.55
386.92	463.43
387.11	388.53
387.31	440.02
387.50	411.93
387.70	449.38
387.89	472.79
388.09	435.34
388.28	388.53
388.48	435.34
388.67	491.51
388.86	442.36
389.06	437.68
389.25	531.30
389.45	437.68
389.64	395.55
389.84	428.32
390.03	484.49
390.22	496.19
390.42	470.45
390.61	411.93
390.81	500.87
391.00	409.59
391.19	479.81
391.39	489.17
391.58	472.79
391.78	526.62
391.97	603.86
392.16	456.40
392.36	526.62
392.55	489.17
392.75	477.47
392.94	585.13
393.13	514.92
393.33	533.64
393.52	503.22
393.71	620.24
393.91	603.86
394.10	620.24
394.29	627.26
394.49	535.98
394.68	559.39
394.88	648.33
395.07	547.69
395.26	589.82
395.46	578.11
395.65	585.13
395.84	603.86
396.04	660.03
396.23	573.43
396.42	645.99
396.62	580.45
396.81	669.39
397.00	667.05
397.19	695.14
397.39	617.90
397.58	688.12
397.77	629.60
397.97	566.41
398.16	685.78
398.35	702.16
398.55	631.94
398.74	669.39
398.93	699.82
399.12	664.71
399.32	699.82
399.51	627.26
399.70	716.20
399.90	667.05
400.09	755.99
400.28	791.10
400.47	753.65
400.67	781.74
400.86	734.93
401.05	765.36
401.24	699.82
401.44	793.44
401.63	833.23
401.82	688.12
402.01	814.51
402.21	795.78
402.40	826.21
402.59	816.85
402.78	830.89
402.97	812.17
403.17	894.08
403.36	863.66
403.55	812.17
403.74	849.61
403.93	840.25
404.13	1036.86
404.32	919.83
404.51	849.61
404.70	849.61
404.89	957.28
405.09	950.26
405.28	957.28
405.47	896.43
405.66	961.96
405.85	959.62
406.05	919.83
406.24	994.73
406.43	823.87
406.62	926.85
406.81	1022.81
407.00	1062.60
407.20	968.98
407.39	1011.11
407.58	1041.54
407.77	1081.33
407.96	1109.41
408.15	1041.54
408.34	1107.07
408.54	1027.50
408.73	1064.94
408.92	1034.52
409.11	1102.39
409.30	1177.29
409.49	1102.39
409.68	1123.46
409.87	1146.86
410.07	1135.16
410.26	1116.44
410.45	1118.78
410.64	1233.46
410.83	1181.97
411.02	1196.01
411.21	1149.20
411.40	1137.50
411.59	1205.38
411.78	1214.74
411.98	1163.25
412.17	1320.06
412.36	1280.27
412.55	1289.64
412.74	1329.42
412.93	1387.94
413.12	1329.42
413.31	1394.96
413.50	1348.15
413.69	1439.43
413.88	1406.66
414.07	1462.83
414.26	1392.62
414.45	1451.13
414.64	1427.73
414.83	1502.62
415.02	1558.80
415.22	1481.56
415.41	1521.35
415.60	1467.52
415.79	1476.88
415.98	1614.97
416.17	1500.28
416.36	1654.76
416.55	1582.20
416.74	1624.33
416.93	1778.81
417.12	1617.31
417.31	1682.85
417.50	1650.08
417.69	1710.93
417.88	1727.32
418.07	1743.70
418.26	1739.02
418.45	1701.57
418.64	1832.64
418.83	1736.68
419.02	1753.06
419.21	1825.62
419.39	1783.49
419.58	1771.79
419.77	1919.24
419.96	1834.98
420.15	1867.75
420.34	1902.86
420.53	1886.47
420.72	1877.11
420.91	1884.13
421.10	1963.71
421.29	1942.64
421.48	1940.30
421.67	1989.46
421.86	1886.47
422.05	1994.14
422.24	1963.71
422.43	2076.06
422.61	1991.80
422.80	2017.54
422.99	1984.77
423.18	2017.54
423.37	1947.33
423.56	2064.35
423.75	2029.24
423.94	1851.36
424.13	1804.55
424.32	1991.80
424.50	2033.93
424.69	1991.80
424.88	2017.54
425.07	1991.80
425.26	2094.78
425.45	1966.05
425.64	2036.27
425.83	1891.15
426.01	2111.16
426.20	2118.18
426.39	2022.22
426.58	2052.65
426.77	2127.55
426.96	1996.48
427.15	2062.01
427.33	2125.21
427.52	2160.31
427.71	2113.50
427.90	2029.24
428.09	2200.10
428.28	2190.74
428.46	2246.91
428.65	2083.08
428.84	2204.78
429.03	2368.62
429.22	2202.44
429.40	2150.95
429.59	2200.10
429.78	2139.25
429.97	2038.61
430.16	2209.47
430.34	2307.77
430.53	2375.64
430.72	2356.92
430.91	2232.87
431.10	2392.03
431.28	2366.28
431.47	2223.51
431.66	2422.45
431.85	2333.51
432.03	2431.82
432.22	2502.03
432.41	2480.97
432.60	2427.14
432.79	2380.32
432.97	2382.67
433.16	2555.86
433.35	2459.90
433.54	2572.25
433.72	2455.22
433.91	2462.24
434.10	2539.48
434.28	2438.84
434.47	2506.71
434.66	2696.30
434.85	2605.02
435.03	2562.89
435.22	2661.19
435.41	2628.42
435.59	2619.06
435.78	2546.50
435.97	2672.89
436.16	2586.29
436.34	2626.08
436.53	2686.94
436.72	2661.19
436.90	2677.57
437.09	2621.40
437.28	2682.25
437.46	2635.44
437.65	2717.36
437.84	2757.15
438.02	2806.30
438.21	2888.22
438.40	2738.43
438.58	2913.97
438.77	2724.38
438.96	2909.29
439.14	2911.63
439.33	2932.69
439.52	2785.24
439.70	2991.20
439.89	2972.48
440.08	2970.14
440.26	3061.42
440.45	2993.55
440.63	2960.78
440.82	3164.40
441.01	3180.79
441.19	3162.06
441.38	3157.38
441.57	3126.96
441.75	3218.24
441.94	3307.18
442.12	3187.81
442.31	3283.77
442.50	3353.99
442.68	3389.10
442.87	3272.07
443.05	3316.54
443.24	3468.67
443.43	3316.54
443.61	3365.69
443.80	3442.93
443.98	3243.98
444.17	3295.47
444.35	3318.88
444.54	3382.07
444.73	3447.61
444.91	3412.50
445.10	3398.46
445.28	3342.28
445.47	3461.65
445.65	3384.41
445.84	3337.60
446.02	3482.72
446.21	3384.41
446.39	3393.78
446.58	3531.87
446.77	3604.42
446.95	3531.87
447.14	3442.93
447.32	3506.12
447.51	3438.25
447.69	3522.51
447.88	3550.59
448.06	3581.02
448.25	3562.30
448.43	3487.40
448.62	3393.78
448.80	3681.66
448.99	3564.64
449.17	3487.40
449.36	3611.45
449.54	3646.55
449.73	3611.45
449.91	3740.18
450.10	3723.79
450.28	3763.58
450.46	3770.60
450.65	3644.21
450.83	3637.19
451.02	3756.56
451.20	3723.79
451.39	3772.94
451.57	3770.60
451.76	3693.37
451.94	3817.41
452.13	3761.24
452.31	3693.37
452.49	3784.65
452.68	3742.52
452.86	3943.80
453.05	3953.16
453.23	3913.38
453.42	3901.67
453.60	3833.80
453.78	3960.19
453.97	3985.93
454.15	3950.82
454.34	3871.25
454.52	3861.88
454.70	3899.33
454.89	4133.39
455.07	4049.13
455.26	4044.45
455.44	4032.74
455.62	4037.42
455.81	3925.08
455.99	3943.80
456.17	4210.62
456.36	4070.19
456.54	4105.30
456.73	4278.50
456.91	4243.39
457.09	4320.63
457.28	4348.72
457.46	4334.67
457.64	4381.48
457.83	4306.59
458.01	4299.56
458.19	4292.54
458.38	4315.95
458.56	4458.72
458.74	4273.82
458.93	4409.57
459.11	4440.00
459.29	4475.10
459.48	4510.21
459.66	4320.63
459.84	4510.21
460.03	4587.45
460.21	4493.83
460.39	4451.70
460.57	4557.02
460.76	4526.60
460.94	4397.87
461.12	4528.94
461.31	4676.39
461.49	4606.17
461.67	4578.09
461.85	4737.24
462.04	4559.36
462.22	4802.78
462.40	4734.90
462.59	4606.17
462.77	4645.96
462.95	4606.17
463.13	4767.67
463.32	4748.95
463.50	4865.97
463.68	4704.48
463.86	4767.67
464.05	4760.65
464.23	4847.25
464.41	4835.55
464.59	4791.08
464.78	5032.15
464.96	4926.83
465.14	4889.38
465.32	4940.87
465.50	4884.70
465.69	4922.15
465.87	5146.84
466.05	5022.79
466.23	4809.80
466.41	4919.81
466.60	5376.21
466.78	4908.10
466.96	4931.51
467.14	4952.57
467.32	5228.76
467.51	5268.55
467.69	5025.13
467.87	5135.14
468.05	5090.67
468.23	5071.94
468.41	4938.53
468.60	5149.18
468.78	5352.81
468.96	5242.80
469.14	5277.91
469.32	5315.36
469.50	5121.09
469.69	5469.83
469.87	5270.89
470.05	5427.70
470.23	5446.43
470.41	5313.02
470.59	5434.72
470.77	5476.85
470.95	5502.60
471.14	5511.96
471.32	5614.95
471.50	5610.26
471.68	5411.32
471.86	5610.26
472.04	5518.98
472.22	5633.67
472.40	5596.22
472.58	5694.52
472.77	5757.72
472.95	5762.40
473.13	6029.22
473.31	5771.76
473.49	5923.90
473.67	5769.42
473.85	6012.84
474.03	5951.98
474.21	5982.41
474.39	6190.72
474.57	6005.81
474.75	6195.40
474.93	6176.67
475.12	6132.20
475.30	6167.31
475.48	6157.95
475.66	6235.19
475.84	6209.44
476.02	6375.62
476.20	6310.08
476.38	6483.28
476.56	6424.77
476.74	6511.37
476.92	6691.59
477.10	6455.20
477.28	6448.18
477.46	6548.82
477.64	6815.64
477.82	6696.27
478.00	6988.84
478.18	6949.05
478.36	7000.54
478.54	7077.78
478.72	6925.65
478.90	7061.40
479.08	7129.27
479.26	7215.87
479.44	7377.37
479.62	7290.77
479.80	7449.93
479.98	7375.03
480.16	7218.21
480.34	7440.56
480.52	7475.67
480.70	7541.21
480.88	7548.23
481.06	7632.49
481.24	7583.34
481.41	7681.64
481.59	7911.01
481.77	7978.89
481.95	8037.40
482.13	8140.38
482.31	8109.96
482.49	8318.26
482.67	8196.56
482.85	8554.66
483.03	8468.06
483.21	8327.63
483.39	8580.40
483.57	8383.80
483.74	8610.83
483.92	8664.66
484.10	8681.05
484.28	8809.78
484.46	8887.01
484.64	8954.89
484.82	8908.08
485.00	9121.07
485.18	9280.22
485.35	9362.14
485.53	9542.36
485.71	9561.09
485.89	9659.39
486.07	9717.90
486.25	9500.23
486.43	9413.63
486.61	9764.72
486.78	9895.78
486.96	9797.48
487.14	10209.42
487.32	9937.91
487.50	10223.46
487.68	9937.91
487.85	10120.48
488.03	10450.49
488.21	10562.84
488.39	10670.50
488.57	10478.58
488.75	10707.95
488.92	10913.92
489.10	10860.09
489.28	10820.30
489.46	11117.54
489.64	11157.33
489.81	11414.79
489.99	11098.82
490.17	11241.59
490.35	11325.85
490.53	11580.97
490.70	11714.38
490.88	11524.80
491.06	12004.61
491.24	11728.42
491.41	11960.14
491.59	11875.88
491.77	11892.26
491.95	12154.40
492.13	12088.87
492.30	12271.43
492.48	12077.16
492.66	12215.26
492.84	12175.47
493.01	12491.44
493.19	12535.91
493.37	12950.18
493.54	12699.75
493.72	12940.82
493.90	12564.00
494.08	12844.86
494.25	13067.21
494.43	13277.86
494.61	13046.15
494.79	13322.33
494.96	13341.05
495.14	13736.60
495.32	13563.40
495.49	13502.55
495.67	13750.65
495.85	13797.46
496.02	13867.67
496.20	13720.22
496.38	13752.99
496.55	13664.05
496.73	14139.18
496.91	14008.11
497.09	14384.93
497.26	14462.17
497.44	14279.61
497.62	14235.14
497.79	14485.58
497.97	14548.77
498.14	14731.33
498.32	14831.97
498.50	14796.87
498.67	14815.59
498.85	14864.74
499.03	15075.39
499.20	14724.31
499.38	15143.27
499.56	15178.37
499.73	15222.84
499.91	15377.32
500.08	15276.68
500.26	15150.29
500.44	15618.39
500.61	15398.38
500.79	15545.84
500.97	15480.30
501.14	15950.75
501.32	16025.65
501.49	15510.73
501.67	15590.31
501.84	15700.31
502.02	15903.94
502.20	16112.25
502.37	16245.66
502.55	15943.73
502.72	16133.31
502.90	16175.44
503.07	16210.55
503.25	16437.58
503.43	16224.59
503.60	16496.10
503.78	16688.02
503.95	16620.14
504.13	16444.60
504.30	16383.75
504.48	16269.06
504.65	16615.46
504.83	17057.82
505.01	16978.25
505.18	17074.21
505.36	17050.80
505.53	16957.18
505.71	16776.96
505.88	17048.46
506.06	16966.54
506.23	17205.28
506.41	17071.87
506.58	17525.93
506.76	17394.86
506.93	17387.84
507.11	17324.65
507.28	17418.27
507.46	17563.38
507.63	17776.37
507.81	17977.65
507.98	17476.78
508.16	17865.31
508.33	17818.50
508.50	17649.98
508.68	17715.51
508.85	18235.11
509.03	18317.03
509.20	18216.39
509.38	18277.24
509.55	18349.80
509.73	18211.71
509.90	18195.32
510.08	18508.96
510.25	18363.84
510.42	18412.99
510.60	18569.81
510.77	18621.30
510.95	19033.24
511.12	18181.28
511.30	18752.37
511.47	19066.00
511.64	18951.32
511.82	19190.05
511.99	19007.49
512.17	19239.20
512.34	18909.19
512.51	19131.54
512.69	19049.62
512.86	19370.27
513.04	19236.86
513.21	19335.17
513.38	19449.85
513.56	19377.30
513.73	19075.37
513.90	19295.38
514.08	19225.16
514.25	19438.15
514.43	19660.50
514.60	19655.82
514.77	19765.82
514.95	20023.28
515.12	19623.05
515.29	19719.01
515.47	19522.41
515.64	19859.45
515.81	19953.07
515.99	20266.70
516.16	20540.54
516.33	20128.61
516.51	20416.49
516.68	20095.84
516.85	19906.26
517.03	20283.08
517.20	20402.45
517.37	20098.18
517.54	20428.20
517.72	20369.68
517.89	20409.47
518.06	20510.11
518.24	20854.17
518.41	20748.85
518.58	20692.68
518.75	20760.55
518.93	20987.58
519.10	20737.15
519.27	21013.33
519.45	20847.15
519.62	21050.78
519.79	20819.07
519.96	20915.03
520.14	21078.86
520.31	21191.21
520.48	21355.05
520.65	21095.25
520.83	21472.07
521.00	21298.88
521.17	21338.66
521.34	21263.77
521.52	21472.07
521.69	21518.89
521.86	21476.76
522.03	21546.97
522.20	21617.19
522.38	21675.70
522.55	21919.12
522.72	21490.80
522.89	21687.40
523.07	22068.91
523.24	21624.21
523.41	22174.24
523.58	21750.60
523.75	21951.88
523.92	21582.08
524.10	22178.92
524.27	22242.11
524.44	22363.82
524.61	22506.59
524.78	22644.68
524.96	22354.46
525.13	22546.38
525.30	22562.76
525.47	22796.82
525.64	22675.11
525.81	22459.78
525.98	22473.82
526.16	22487.87
526.33	22700.86
526.50	23381.95
526.67	22707.88
526.84	22700.86
527.01	22733.62
527.18	22616.60
527.36	22766.39
527.53	23194.71
527.70	23119.81
527.87	23566.85
528.04	23124.49
528.21	23281.31
528.38	23239.18
528.55	23115.13
528.72	23236.84
528.89	23403.02
529.07	23388.97
529.24	23154.92
529.41	23515.36
529.58	23274.29
529.75	23821.97
529.92	23786.86
530.09	23370.25
530.26	23459.19
530.43	23765.80
530.60	23501.32
530.77	23754.10
530.94	23768.14
531.11	23513.02
531.28	23742.39
531.46	23655.79
531.63	23606.64
531.80	23765.80
531.97	24079.43
532.14	24149.65
532.31	23920.28
532.48	23831.33
532.65	23845.38
532.82	23845.38
532.99	24009.22
533.16	23782.18
533.33	24208.16
533.50	24645.84
533.67	24613.07
533.84	24287.74
534.01	24437.53
534.18	24159.01
534.35	24283.06
534.52	24409.45
534.69	24182.42
534.86	25001.60
535.03	24236.25
535.20	24353.27
535.37	24240.93
535.54	24826.06
535.71	24254.97
535.88	24570.94
536.05	24744.14
536.22	24940.75
536.38	25113.95
536.55	24886.92
536.72	24915.00
536.89	24800.32
537.06	25282.47
537.23	24690.31
537.40	24753.51
537.57	25020.33
537.74	25034.37
537.91	25357.36
538.08	25085.86
538.25	25064.80
538.42	25343.32
538.59	25724.83
538.75	25015.65
538.92	25275.45
539.09	25263.74
539.26	25315.23
539.43	25425.24
539.60	25727.17
539.77	25537.59
539.94	25420.56
540.11	25685.04
540.28	25425.24
540.44	25303.53
540.61	25415.88
540.78	25230.98
540.95	25429.92
541.12	25755.26
541.29	25905.05
541.46	25869.94
541.62	25713.13
541.79	25413.54
541.96	25607.80
542.13	25434.60
542.30	25619.50
542.47	26082.93
542.63	26214.00
542.80	25729.51
542.97	26094.63
543.14	26373.16
543.31	26494.86
543.48	25876.96
543.64	26155.49
543.81	26326.35
543.98	26408.26
544.15	26239.75
544.32	26162.51
544.48	26682.11
544.65	26672.74
544.82	26670.40
544.99	26160.17
545.16	26328.69
545.32	26384.86
545.49	26714.87
545.66	27108.08
545.83	26834.24
546.00	26731.26
546.16	26710.19
546.33	27075.32
546.50	26412.95
546.67	26682.11
546.83	26764.03
547.00	26703.17
547.17	26740.62
547.34	26759.34
547.50	27072.98
547.67	27550.45
547.84	26759.34
548.00	26998.08
548.17	27126.81
548.34	27552.79
548.51	27054.25
548.67	27110.43
548.84	27197.02
549.01	27047.23
549.18	27016.80
549.34	27159.58
549.51	26944.25
549.68	27442.78
549.84	26752.32
550.01	27466.19
550.18	27309.37
550.34	27234.47
550.51	27552.79
550.68	27426.40
550.84	27080.00
551.01	27524.70
551.18	27470.87
551.34	27522.36
551.51	27470.87
551.68	27828.97
551.84	27475.55
552.01	27468.53
552.18	27821.95
552.34	27292.99
552.51	27438.10
552.68	27541.08
552.84	27402.99
553.01	27803.22
553.18	27578.53
553.34	27672.15
553.51	27768.12
553.67	27623.00
553.84	27861.74
554.01	28137.92
554.17	28346.23
554.34	28194.09
554.51	27644.07
554.67	28166.01
554.84	28002.17
555.00	27995.15
555.17	27868.76
555.33	28184.73
555.50	27896.85
555.67	27871.10
555.83	28039.62
556.00	27992.81
556.16	28432.83
556.33	27948.34
556.50	28226.86
556.66	28472.62
556.83	28194.09
556.99	28510.07
557.16	28369.63
557.32	28453.89
557.49	28163.67
557.65	28318.14
557.82	28339.21
557.98	28346.23
558.15	28374.31
558.32	28376.66
558.48	28261.97
558.65	28809.65
558.81	28437.51
558.98	28648.16
559.14	28456.23
559.31	28638.80
559.47	28430.49
559.64	28662.20
559.80	28341.55
559.97	28538.15
560.13	28247.93
560.30	28884.55
560.46	28662.20
560.63	28264.31
560.79	28730.08
560.96	28781.57
561.12	28725.39
561.29	28636.45
561.45	28606.03
561.61	28566.24
561.78	28627.09
561.94	28919.66
562.11	29046.05
562.27	28723.05
562.44	28882.21
562.60	28842.42
562.77	28753.48
562.93	28531.13
563.10	29015.62
563.26	29041.37
563.42	29144.35
563.59	29259.04
563.75	29394.79
563.92	28760.50
564.08	28786.25
564.24	28865.83
564.41	28439.85
564.57	28549.85
564.74	29043.71
564.90	29261.38
565.07	29350.32
565.23	28940.72
565.39	28837.74
565.56	29600.76
565.72	28933.70
565.88	28666.88
566.05	28868.17
566.21	28959.45
566.38	28844.76
566.54	29125.63
566.70	29249.67
566.87	29429.90
567.03	28819.02
567.19	29170.10
567.36	29233.29
567.52	29198.18
567.68	29352.66
567.85	29184.14
568.01	29186.48
568.17	29317.55
568.34	29493.09
568.50	29221.59
568.66	29338.62
568.83	29228.61
568.99	29188.82
569.15	29188.82
569.32	29270.74
569.48	28961.79
569.64	29202.86
569.81	29331.59
569.97	29036.69
570.13	29521.18
570.30	29240.31
570.46	29273.08
570.62	29422.87
570.78	29385.43
570.95	29254.36
571.11	29249.67
571.27	29106.90
571.43	29261.38
571.60	29425.22
571.76	29350.32
571.92	29149.03
572.09	29607.78
572.25	29560.97
572.41	29811.40
572.57	29413.51
572.74	29673.31
572.90	29060.09
573.06	29160.73
573.22	29289.46
573.38	29640.54
573.55	29350.32
573.71	30043.12
573.87	29806.72
574.03	29467.34
574.20	29020.30
574.36	29731.83
574.52	29027.32
574.68	29336.27
574.84	29663.95
575.01	29652.25
575.17	29652.25
575.33	29191.16
575.49	29715.44
575.65	29771.61
575.82	29537.56
575.98	29387.77
576.14	29685.01
576.30	29727.14
576.46	29563.31
576.62	29067.11
576.79	30132.06
576.95	29855.87
577.11	29575.01
577.27	29799.70
577.43	29881.62
577.59	30005.67
577.75	29750.55
577.92	29254.36
578.08	29380.74
578.24	29448.62
578.40	29617.14
578.56	29825.45
578.72	29666.29
578.88	29940.13
579.04	29518.84
579.21	29572.67
579.37	29907.37
579.53	29715.44
579.69	29404.15
579.85	29975.24
580.01	29469.69
580.17	29572.67
580.33	29385.43
580.49	29811.40
580.65	29949.50
580.82	29514.16
580.98	29488.41
581.14	29675.65
581.30	29769.27
581.46	29933.11
581.62	29497.77
581.78	29883.96
581.94	29575.01
582.10	29694.38
582.26	29532.88
582.42	30029.07
582.58	29890.98
582.74	29795.02
582.90	29378.40
583.06	29612.46
583.22	30099.29
583.38	29661.61
583.54	29699.06
583.70	30178.87
583.86	29759.91
584.02	29357.34
584.18	30157.80
584.34	29811.40
584.50	30206.95
584.66	29734.17
584.82	29715.44
584.98	29853.53
585.14	29970.56
585.30	29699.06
585.46	29867.58
585.62	29670.97
585.78	29626.50
585.94	29216.91
586.10	29965.88
586.26	29926.09
586.42	29862.90
586.58	29972.90
586.74	29881.62
586.90	29598.41
587.06	29886.30
587.22	29720.12
587.38	29406.49
587.54	30017.37
587.70	30323.98
587.86	30321.64
588.02	30426.96
588.18	30342.70
588.34	29984.60
588.49	30253.76
588.65	29488.41
588.81	29734.17
588.97	29993.97
589.13	29914.39
589.29	29832.47
589.45	30031.41
589.61	30080.56
589.77	30249.08
589.93	30288.87
590.08	30150.78
590.24	30375.47
590.40	30157.80
590.56	30148.44
590.72	29883.96
590.88	29898.00
591.04	30071.20
591.20	30450.37
591.35	30253.76
591.51	30206.95
591.67	30382.49
591.83	30452.71
591.99	30309.94
592.15	30295.89
592.31	29989.28
592.46	30174.19
592.62	30075.88
592.78	30316.96
592.94	29986.94
593.10	30162.48
593.26	30558.03
593.41	30213.98
593.57	30099.29
593.73	30181.21
593.89	30148.44
594.05	30361.43
594.20	29944.81
594.36	30113.33
594.52	29933.11
594.68	30134.40
594.84	29956.52
594.99	30171.85
595.15	30436.33
595.31	30607.19
595.47	30445.69
595.62	30506.54
595.78	30080.56
595.94	30141.42
596.10	30188.23
596.25	30197.59
596.41	29827.79
596.57	30211.64
596.73	30368.45
596.88	29989.28
597.04	30319.30
597.20	30703.15
597.36	30202.27
597.51	31105.72
597.67	30595.48
597.83	30314.62
597.99	30246.74
598.14	30206.95
598.30	30513.56
598.46	30501.86
598.61	30307.60
598.77	30457.39
598.93	30197.59
599.09	30045.46
599.24	30789.75
599.40	30721.87
599.56	30340.36
599.71	30820.17
599.87	30354.41
600.03	30555.69
600.18	30466.75
600.34	30265.47
600.50	30691.44
600.65	30394.20
600.81	30574.42
600.97	30415.26
601.12	30462.07
601.28	30600.16
601.44	30408.24
601.59	30473.78
601.75	30190.57
601.91	30377.81
602.06	30415.26
602.22	30038.44
602.37	30361.43
602.53	30239.72
602.69	30342.70
602.84	30597.82
603.00	30422.28
603.16	30691.44
603.31	30410.58
603.47	30403.56
603.62	30565.06
603.78	30398.88
603.94	30455.05
604.09	30148.44
604.25	29977.58
604.40	30628.25
604.56	30742.94
604.71	30836.56
604.87	30450.37
605.03	30579.10
605.18	30506.54
605.34	30485.48
605.49	30237.38
605.65	30466.75
605.80	30089.93
605.96	30302.92
606.12	30433.99
606.27	30469.09
606.43	30473.78
606.58	30373.13
606.74	30581.44
606.89	30618.89
607.05	30546.33
607.20	30600.16
607.36	30728.89
607.51	30649.32
607.67	30031.41
607.82	30183.55
607.98	30202.27
608.13	30204.61
608.29	30136.74
608.44	30305.26
608.60	30298.23
608.75	29975.24
608.91	30429.30
609.06	30279.51
609.22	30127.38
609.37	30036.09
609.53	30199.93
609.68	29998.65
609.84	30087.59
609.99	30031.41
610.15	30143.76
610.30	30150.78
610.46	29776.30
610.61	30419.94
610.76	30464.41
610.92	30118.01
611.07	30272.49
611.23	29975.24
611.38	29771.61
611.54	29860.55
611.69	30279.51
611.84	29872.26
612.00	30118.01
612.15	29486.07
612.31	29818.42
612.46	29495.43
612.62	30094.61
612.77	29694.38
612.92	29909.71
613.08	29975.24
613.23	30188.23
613.39	29572.67
613.54	29579.69
613.69	29713.10
613.85	29914.39
614.00	29862.90
614.15	29621.82
614.31	29923.75
614.46	30157.80
614.62	29916.73
614.77	30092.27
614.92	29816.08
615.08	29717.78
615.23	29525.86
615.38	29804.38
615.54	29373.72
615.69	29645.23
615.84	29502.45
616.00	30087.59
616.15	29642.88
616.30	29593.73
616.46	29696.72
616.61	29984.60
616.76	29937.79
616.92	29699.06
617.07	29408.83
617.22	29352.66
617.37	29085.84
617.53	29436.92
617.68	29773.95
617.83	29324.57
617.99	29104.56
618.14	28982.85
618.29	29490.75
618.45	29483.73
618.60	29284.78
618.75	29359.68
618.90	29600.76
619.06	29319.89
619.21	29186.48
619.36	29282.44
619.51	29158.39
619.67	29195.84
619.82	28884.55
619.97	29322.23
620.12	29137.33
620.28	28968.81
620.43	29500.11
620.58	29310.53
620.73	29343.30
620.89	29039.03
621.04	29240.31
621.19	28830.72
621.34	29074.13
621.49	29139.67
621.65	28994.56
621.80	29392.45
621.95	29378.40
622.10	29308.19
622.25	28947.75
622.41	28898.59
622.56	29039.03
622.71	29439.26
622.86	29118.60
623.01	29160.73
623.16	28580.28
623.32	28854.12
623.47	28503.04
623.62	28828.38
623.77	28922.00
623.92	28837.74
624.07	28549.85
624.23	28896.25
624.38	28889.23
624.53	29013.28
624.68	28755.82
624.83	28879.87
624.98	29228.61
625.13	28821.36
625.29	28629.43
625.44	28907.96
625.59	28706.67
625.74	28493.68
625.89	28371.97
626.04	28570.92
626.19	28294.74
626.34	28514.75
626.49	28442.19
626.65	28217.50
626.80	28620.07
626.95	29071.79
627.10	28400.06
627.25	28278.35
627.40	28271.33
627.55	28170.69
627.70	28390.70
627.85	28442.19
628.00	27985.79
628.15	28002.17
628.30	28095.79
628.45	28168.35
628.60	28058.34
628.76	28512.41
628.91	28362.61
629.06	28271.33
629.21	28559.22
629.36	28599.01
629.51	28280.69
629.66	28149.62
629.81	28070.04
629.96	28212.82
630.11	28133.24
630.26	28100.47
630.41	28250.27
630.56	28041.96
630.71	28084.09
630.86	28219.84
631.01	28119.20
631.16	28088.77
631.31	28191.75
631.46	27517.68
631.61	27981.10
631.76	27857.06
631.91	27981.10
632.06	27784.50
632.21	28018.55
632.36	27845.35
632.51	27339.80
632.66	28156.64
632.81	27803.22
632.96	28084.09
633.10	27683.86
633.25	27791.52
633.40	27812.59
633.55	27665.13
633.70	27718.96
633.85	27129.15
634.00	27721.30
634.15	27604.28
634.30	27615.98
634.45	27571.51
634.60	27262.56
634.75	27562.15
634.90	27566.83
635.05	27747.05
635.19	27651.09
635.34	27632.36
635.49	27704.92
635.64	27723.65
635.79	27456.82
635.94	27630.02
636.09	27697.90
636.24	27620.66
636.39	27428.74
636.53	27213.41
636.68	27201.71
636.83	27133.83
636.98	27253.20
637.13	27253.20
637.28	27417.04
637.43	27639.39
637.57	27367.88
637.72	27328.10
637.87	27124.47
638.02	27208.73
638.17	27255.54
638.32	26618.91
638.46	27154.90
638.61	26988.72
638.76	26775.73
638.91	27307.03
639.06	27236.81
639.20	27290.65
639.35	27222.77
639.50	26960.63
639.65	27374.91
639.80	27494.27
639.94	27363.20
640.09	26827.22
640.24	26885.73
640.39	26920.84
640.54	27211.07
640.68	26558.06
640.83	26726.58
640.98	26733.60
641.13	26834.24
641.27	26806.16
641.42	26707.85
641.57	26803.82
641.72	26813.18
641.86	27108.08
642.01	26717.22
642.16	26623.59
642.31	26515.93
642.45	26668.06
642.60	26221.02
642.75	26401.24
642.90	26735.94
643.04	26607.21
643.19	26452.73
643.34	26562.74
643.48	26675.09
643.63	26738.28
643.78	26609.55
643.93	26616.57
644.07	26726.58
644.22	26574.44
644.37	26237.41
644.51	26422.31
644.66	26593.17
644.81	26352.09
644.95	26326.35
645.10	26335.71
645.25	26176.55
645.39	26487.84
645.54	26682.11
645.69	26384.86
645.83	26167.19
645.98	26579.12
646.13	26338.05
646.27	26314.64
646.42	26307.62
646.57	26293.58
646.71	26300.60
646.86	26382.52
647.00	26394.22
647.15	26281.88
647.30	26216.34
647.44	26136.76
647.59	26162.51
647.74	26001.01
647.88	25806.75
648.03	26118.04
648.17	26277.19
648.32	26286.56
648.47	26293.58
648.61	26312.30
648.76	26031.44
648.90	26181.23
649.05	25898.03
649.20	25898.03
649.34	25458.01
649.49	25930.80
649.63	25671.00
649.78	25652.27
649.92	26026.76
650.07	25745.89
650.21	25696.74
650.36	25682.70
650.51	26022.08
650.65	25759.94
650.80	26080.59
650.94	25949.52
651.09	25844.20
651.23	25855.90
651.38	25577.37
651.52	25579.71
651.67	25701.42
651.81	26015.05
651.96	25511.84
652.10	25652.27
652.25	25586.74
652.39	25525.88
652.54	25649.93
652.68	25617.16
652.83	25926.11
652.97	26206.98
653.12	25593.76
653.26	25458.01
653.41	25425.24
653.55	25411.20
653.70	25448.64
653.84	25687.38
653.99	25516.52
654.13	25376.09
654.27	25399.49
654.42	25439.28
654.56	25490.77
654.71	25399.49
654.85	25333.96
655.00	25642.91
655.14	25317.57
655.29	25287.15
655.43	25535.24
655.57	25422.90
655.72	24982.88
655.86	25743.55
656.01	25259.06
656.15	25207.57
656.30	25673.34
656.44	25034.37
656.58	25212.25
656.73	25043.73
656.87	24865.85
657.01	25226.29
657.16	25230.98
657.30	24919.68
657.45	25010.96
657.59	25015.65
657.73	25069.48
657.88	24840.11
658.02	25062.46
658.16	24830.74
658.31	24868.19
658.45	24884.58
658.60	24467.96
658.74	24549.88
658.88	24664.57
659.03	25010.96
659.17	24727.76
659.31	24753.51
659.46	24678.61
659.60	25057.78
659.74	24870.53
659.89	24678.61
660.03	24704.35
660.17	24606.05
660.32	24362.64
660.46	24208.16
660.60	23983.47
660.74	24184.76
660.89	24648.18
661.03	24510.09
661.17	24311.14
661.32	24250.29
661.46	24428.17
661.60	24439.87
661.74	24407.11
661.89	24313.48
662.03	24500.73
662.17	24039.64
662.31	24196.46
662.46	24332.21
662.60	24053.69
662.74	23983.47
662.88	24081.77
663.03	23716.65
663.17	23854.74
663.31	23449.83
663.45	23812.61
663.60	23857.08
663.74	23747.08
663.88	23721.33
664.02	23716.65
664.17	23962.40
664.31	23564.51
664.45	23765.80
664.59	23606.64
664.73	23735.37
664.88	23379.61
665.02	23131.51
665.16	23557.49
665.30	23314.08
665.44	23061.30
665.59	23412.38
665.73	23433.44
665.87	23222.80
666.01	23403.02
666.15	23388.97
666.29	23433.44
666.44	23335.14
666.58	23068.32
666.72	22951.29
666.86	23105.77
667.00	23005.13
667.14	23042.57
667.28	22822.56
667.43	22881.08
667.57	22899.80
667.71	22967.68
667.85	22775.75
667.99	22595.53
668.13	22621.28
668.27	22817.88
668.41	23136.20
668.56	22611.92
668.70	23051.94
668.84	23094.07
668.98	22792.14
669.12	22703.20
669.26	22483.19
669.40	22609.58
669.54	22452.76
669.68	22555.74
669.82	22691.49
669.96	22167.21
670.10	22127.42
670.25	22228.07
670.39	22230.41
670.53	22101.68
670.67	22104.02
670.81	22246.79
670.95	22300.62
671.09	22134.45
671.23	22300.62
671.37	22429.35
671.51	22335.73
671.65	22216.36
671.79	22242.11
671.93	21991.67
672.07	21734.21
672.21	21752.94
672.35	21912.10
672.49	21724.85
672.63	21371.43
672.77	21568.04
672.91	21366.75
673.05	21259.09
673.19	21415.90
673.33	21575.06
673.47	21453.35
673.61	21359.73
673.75	21415.90
673.89	21238.02
674.03	21333.98
674.17	21383.13
674.31	21156.10
674.45	21092.91
674.59	21032.05
674.73	21090.57
674.87	21095.25
675.01	20688.00
675.15	20613.10
675.29	20943.11
675.43	20765.23
675.56	20538.20
675.70	20985.24
675.84	20854.17
675.98	20215.21
676.12	21001.63
676.26	21158.44
676.40	20442.24
676.54	20439.90
676.68	20416.49
676.82	20121.59
676.96	20343.94
677.10	20463.30
677.23	20051.37
677.37	20269.04
677.51	19826.68
677.65	20135.63
677.79	19836.04
677.93	19864.13
678.07	19906.26
678.21	19859.45
678.34	19843.06
678.48	19597.31
678.62	19662.84
678.76	19506.02
678.90	19676.88
679.04	19435.81
679.18	19513.05
679.31	19307.08
679.45	18883.44
679.59	18888.12
679.73	18970.04
679.87	18911.53
680.00	18831.95
680.14	18934.93
680.28	18897.49
680.42	18850.67
680.56	18766.42
680.70	18766.42
680.83	19058.98
680.97	18775.78
681.11	18759.39
681.25	18572.15
681.39	18398.95
681.52	18422.36
681.66	18462.15
681.80	18118.09
681.94	18408.31
682.07	18324.05
682.21	18129.79
682.35	18012.76
682.49	18253.84
682.62	18195.32
682.76	17813.82
682.90	18092.34
683.04	17820.84
683.17	17720.20
683.31	18113.41
683.45	17724.88
683.59	17895.74
683.72	17633.60
683.86	17500.19
684.00	17757.64
684.13	17881.69
684.27	17130.38
684.41	17544.66
684.55	17233.36
684.68	17099.95
684.82	17397.20
684.96	17193.58
685.09	17202.94
685.23	17069.53
685.37	16947.82
685.50	17247.41
685.64	17043.78
685.78	16940.80
685.91	17013.35
686.05	16676.32
686.19	16798.02
686.32	17151.45
686.46	16315.87
686.60	16205.87
686.73	16418.86
686.87	16372.05
687.01	16257.36
687.14	16116.93
687.28	16409.50
687.42	16020.97
687.55	16116.93
687.69	16231.62
687.82	16105.23
687.96	16030.33
688.10	16102.89
688.23	15850.11
688.37	16044.37
688.50	16219.91
688.64	15838.41
688.78	15683.93
688.91	15793.94
689.05	15587.97
689.18	15494.35
689.32	15276.68
689.46	15166.67
689.59	15297.74
689.73	15382.00
689.86	15059.01
690.00	15089.43
690.13	15246.25
690.27	15339.87
690.41	14794.53
690.54	15234.55
690.68	14918.57
690.81	14963.04
690.95	15030.92
691.08	15248.59
691.22	14703.25
691.35	14752.40
691.49	14831.97
691.62	14785.16
691.76	14703.25
691.89	14801.55
692.03	14380.25
692.16	14295.99
692.30	14251.52
692.43	14424.72
692.57	14097.05
692.70	14115.77
692.84	14075.98
692.97	14033.85
693.11	14122.79
693.24	14075.98
693.38	13907.46
693.51	13736.60
693.65	13790.44
693.78	14125.13
693.92	13640.64
694.05	13626.60
694.19	13668.73
694.32	13511.91
694.45	13530.64
694.59	13523.62
694.72	13317.65
694.86	13280.20
694.99	13247.43
695.13	13043.81
695.26	13315.31
695.39	12936.14
695.53	13032.10
695.66	13226.37
695.80	13053.17
695.93	13142.11
696.07	13128.06
696.20	12945.50
696.33	12875.29
696.47	12870.61
696.60	13053.17
696.73	12601.44
696.87	12695.07
697.00	12746.56
697.14	12400.16
697.27	12273.77
697.40	12294.83
697.54	12360.37
697.67	11939.07
697.80	12072.48
697.94	12294.83
698.07	12109.93
698.21	12084.19
698.34	12173.13
698.47	11985.88
698.61	11899.28
698.74	11899.28
698.87	12123.98
699.01	11871.20
699.14	11566.93
699.27	11857.15
699.40	11782.26
699.54	11644.17
699.67	11686.29
699.80	11520.12
699.94	11384.37
700.07	11318.83
700.20	11400.75
700.34	11075.42
700.47	10892.85
700.60	11295.43
700.73	11538.84
700.87	11297.77
701.00	10927.96
701.13	11365.64
701.26	11033.29
701.40	11028.60
701.53	10869.45
701.66	11049.67
701.79	10927.96
701.93	10874.13
702.06	10551.14
702.19	10724.33
702.32	10501.98
702.46	10492.62
702.59	10471.56
702.72	10436.45
702.85	10569.86
702.99	10457.51
703.12	10480.92
703.25	10424.75
703.38	10251.55
703.51	10377.94
703.65	10420.06
703.78	10207.08
703.91	10176.65
704.04	10141.54
704.17	10258.57
704.31	10174.31
704.44	9909.83
704.57	9844.29
704.70	9729.61
704.83	9577.47
704.96	9818.55
705.10	9540.02
705.23	9511.94
>>>>>End Processed Spectral Data<<<<<
