SpectraSuite Data File
++++++++++++++++++++++++++++++++++++
Date: Fri Oct 18 13:57:54 GMT-05:00 2013
User: bianchi
Dark Spectrum Present: No
Reference Spectrum Present: No
Number of Sampled Component Spectra: 1
Spectrometers: USB2+H05261
Integration Time (usec): 50000 (USB2+H05261)
Spectra Averaged: 1 (USB2+H05261)
Boxcar Smoothing: 0 (USB2+H05261)
Correct for Electrical Dark: No (USB2+H05261)
Strobe/Lamp Enabled: No (USB2+H05261)
Correct for Detector Non-linearity: No (USB2+H05261)
Correct for Stray Light: No (USB2+H05261)
Number of Pixels in Processed Spectrum: 2048
>>>>>Begin Processed Spectral Data<<<<<
365.73	0.00
365.92	0.00
366.12	0.00
366.32	0.00
366.52	0.00
366.72	0.00
366.91	0.00
367.11	0.00
367.31	0.00
367.51	0.00
367.70	0.00
367.90	0.00
368.10	0.00
368.30	0.00
368.49	0.00
368.69	0.00
368.89	0.00
369.09	0.00
369.28	0.00
369.48	0.00
369.68	0.00
369.87	0.00
370.07	0.00
370.27	0.00
370.47	0.00
370.66	91.28
370.86	95.96
371.06	107.66
371.25	126.39
371.45	117.03
371.65	154.48
371.84	124.05
372.04	147.45
372.24	170.86
372.44	187.24
372.63	229.37
372.83	159.16
373.03	248.10
373.22	159.16
373.42	191.92
373.62	229.37
373.81	283.20
374.01	191.92
374.21	245.76
374.40	189.58
374.60	248.10
374.79	191.92
374.99	222.35
375.19	264.48
375.38	255.12
375.58	262.14
375.78	273.84
375.97	271.50
376.17	262.14
376.37	332.36
376.56	234.05
376.76	276.18
376.95	201.29
377.15	241.08
377.35	241.08
377.54	250.44
377.74	280.86
377.93	231.71
378.13	257.46
378.33	297.25
378.52	273.84
378.72	285.55
378.91	266.82
379.11	311.29
379.31	290.23
379.50	315.97
379.70	355.76
379.89	365.12
380.09	362.78
380.28	306.61
380.48	322.99
380.68	337.04
380.87	285.55
381.07	362.78
381.26	430.66
381.46	374.49
381.65	262.14
381.85	304.27
382.04	341.72
382.24	374.49
382.43	365.12
382.63	341.72
382.83	332.36
383.02	353.42
383.22	435.34
383.41	369.80
383.61	367.46
383.80	372.15
384.00	395.55
384.19	404.91
384.39	379.17
384.58	367.46
384.78	393.21
384.97	337.04
385.17	433.00
385.36	486.83
385.56	461.09
385.75	374.49
385.95	409.59
386.14	414.27
386.34	367.46
386.53	372.15
386.72	430.66
386.92	430.66
387.11	360.44
387.31	454.06
387.50	383.85
387.70	409.59
387.89	404.91
388.09	402.57
388.28	479.81
388.48	428.32
388.67	437.68
388.86	470.45
389.06	475.13
389.25	505.56
389.45	461.09
389.64	566.41
389.84	503.22
390.03	521.94
390.22	557.05
390.42	505.56
390.61	535.98
390.81	458.74
391.00	561.73
391.19	606.20
391.39	557.05
391.58	477.47
391.78	566.41
391.97	571.09
392.16	538.32
392.36	559.39
392.55	571.09
392.75	533.64
392.94	458.74
393.13	521.94
393.33	557.05
393.52	554.71
393.71	667.05
393.91	559.39
394.10	613.22
394.29	573.43
394.49	624.92
394.68	617.90
394.88	559.39
395.07	723.23
395.26	655.35
395.46	653.01
395.65	629.60
395.84	688.12
396.04	709.18
396.23	655.35
396.42	669.39
396.62	664.71
396.81	695.14
397.00	657.69
397.19	692.80
397.39	774.72
397.58	734.93
397.77	716.20
397.97	711.52
398.16	748.97
398.35	730.25
398.55	760.67
398.74	648.33
398.93	713.86
399.12	725.57
399.32	683.44
399.51	664.71
399.70	772.38
399.90	718.54
400.09	697.48
400.28	781.74
400.47	716.20
400.67	816.85
400.86	777.06
401.05	835.57
401.24	786.42
401.44	851.96
401.63	791.10
401.82	816.85
402.01	781.74
402.21	847.27
402.40	875.36
402.59	767.70
402.78	884.72
402.97	849.61
403.17	833.23
403.36	901.11
403.55	798.12
403.74	1001.75
403.93	887.06
404.13	971.32
404.32	959.62
404.51	992.39
404.70	957.28
404.89	966.64
405.09	1036.86
405.28	905.79
405.47	929.19
405.66	1032.18
405.85	936.21
406.05	992.39
406.24	940.90
406.43	952.60
406.62	1018.13
406.81	1078.99
407.00	1041.54
407.20	1027.50
407.39	1090.69
407.58	1053.24
407.77	1086.01
407.96	1144.52
408.15	1095.37
408.34	1069.62
408.54	1078.99
408.73	1135.16
408.92	1064.94
409.11	1224.10
409.30	1116.44
409.49	1203.04
409.68	1181.97
409.87	1128.14
410.07	1242.82
410.26	1170.27
410.45	1221.76
410.64	1301.34
410.83	1186.65
411.02	1200.69
411.21	1369.21
411.40	1275.59
411.59	1341.13
411.78	1380.92
411.98	1231.12
412.17	1306.02
412.36	1383.26
412.55	1357.51
412.74	1301.34
412.93	1413.68
413.12	1345.81
413.31	1439.43
413.50	1385.60
413.69	1467.52
413.88	1479.22
414.07	1427.73
414.26	1404.32
414.45	1528.37
414.64	1490.92
414.83	1399.64
415.02	1591.56
415.22	1596.25
415.41	1507.30
415.60	1710.93
415.79	1638.38
415.98	1645.40
416.17	1720.29
416.36	1694.55
416.55	1650.08
416.74	1799.87
416.93	1582.20
417.12	1757.74
417.31	1760.08
417.50	1713.27
417.69	1771.79
417.88	1820.94
418.07	1760.08
418.26	1739.02
418.45	1799.87
418.64	1921.58
418.83	1790.51
419.02	1825.62
419.21	1783.49
419.39	1851.36
419.58	1820.94
419.77	1886.47
419.96	1916.90
420.15	1949.67
420.34	1968.39
420.53	1884.13
420.72	2031.58
420.91	1954.35
421.10	2012.86
421.29	2017.54
421.48	1886.47
421.67	2022.22
421.86	1912.22
422.05	2087.76
422.24	2078.40
422.43	2010.52
422.61	2045.63
422.80	1947.33
422.99	2090.10
423.18	2146.27
423.37	2099.46
423.56	2064.35
423.75	2054.99
423.94	2118.18
424.13	2024.56
424.32	1987.11
424.50	2139.25
424.69	2111.16
424.88	2101.80
425.07	2012.86
425.26	2076.06
425.45	2127.55
425.64	2122.87
425.83	2132.23
426.01	1998.82
426.20	2155.63
426.39	2090.10
426.58	2225.85
426.77	2172.02
426.96	2125.21
427.15	2275.00
427.33	2150.95
427.52	2300.75
427.71	2148.61
427.90	2139.25
428.09	2186.06
428.28	2319.47
428.46	2188.40
428.65	2169.68
428.84	2279.68
429.03	2300.75
429.22	2228.19
429.40	2284.36
429.59	2317.13
429.78	2207.13
429.97	2223.51
430.16	2235.21
430.34	2375.64
430.53	2396.71
430.72	2211.81
430.91	2300.75
431.10	2342.88
431.28	2375.64
431.47	2495.01
431.66	2462.24
431.85	2396.71
432.03	2490.33
432.22	2506.71
432.41	2590.97
432.60	2579.27
432.79	2509.05
432.97	2593.31
433.16	2539.48
433.35	2523.10
433.54	2562.89
433.72	2586.29
433.91	2583.95
434.10	2656.51
434.28	2495.01
434.47	2581.61
434.66	2677.57
434.85	2682.25
435.03	2710.34
435.22	2668.21
435.41	2860.13
435.59	2668.21
435.78	2668.21
435.97	2722.04
436.16	2663.53
436.34	2759.49
436.53	2801.62
436.72	2829.71
436.90	2810.98
437.09	2726.72
437.28	2818.00
437.46	2771.19
437.65	2913.97
437.84	2836.73
438.02	2771.19
438.21	2820.35
438.40	2818.00
438.58	3005.25
438.77	2932.69
438.96	3021.63
439.14	2916.31
439.33	3190.15
439.52	2993.55
439.70	3124.62
439.89	3185.47
440.08	3119.93
440.26	3176.11
440.45	3169.09
440.63	3117.59
440.82	3227.60
441.01	3089.51
441.19	3084.83
441.38	3241.64
441.57	3337.60
441.75	3318.88
441.94	3316.54
442.12	3288.45
442.31	3368.03
442.50	3377.39
442.68	3356.33
442.87	3346.97
443.05	3365.69
443.24	3562.30
443.43	3475.70
443.61	3463.99
443.80	3637.19
443.98	3398.46
444.17	3339.94
444.35	3499.10
444.54	3538.89
444.73	3566.98
444.91	3665.28
445.10	3536.55
445.28	3534.21
445.47	3517.83
445.65	3522.51
445.84	3555.27
446.02	3726.13
446.21	3454.63
446.39	3574.00
446.58	3772.94
446.77	3655.92
446.95	3475.70
447.14	3592.72
447.32	3496.76
447.51	3660.60
447.69	3569.32
447.88	3686.34
448.06	3557.61
448.25	3625.49
448.43	3625.49
448.62	3634.85
448.80	3648.90
448.99	3691.02
449.17	3756.56
449.36	3604.42
449.54	3782.31
449.73	3707.41
449.91	3751.88
450.10	3896.99
450.28	3742.52
450.46	3779.97
450.65	3941.46
450.83	3925.08
451.02	3812.73
451.20	4011.68
451.39	3826.78
451.57	3878.27
451.76	3887.63
451.94	3854.86
452.13	3913.38
452.31	4049.13
452.49	3988.27
452.68	3983.59
452.86	3969.55
453.05	3971.89
453.23	3990.61
453.42	3985.93
453.60	4025.72
453.78	4170.83
453.97	3971.89
454.15	4088.92
454.34	4035.08
454.52	4236.37
454.70	4049.13
454.89	4093.60
455.07	4187.22
455.26	4198.92
455.44	4063.17
455.62	4065.51
455.81	4257.43
455.99	4210.62
456.17	4383.82
456.36	4306.59
456.54	4294.88
456.73	4365.10
456.91	4486.81
457.09	4437.66
457.28	4617.88
457.46	4313.61
457.64	4528.94
457.83	4514.89
458.01	4397.87
458.19	4418.93
458.38	4362.76
458.56	4561.70
458.74	4599.15
458.93	4568.73
459.11	4521.92
459.29	4573.41
459.48	4564.04
459.66	4514.89
459.84	4631.92
460.03	4657.67
460.21	4596.81
460.39	4681.07
460.57	4688.09
460.76	4676.39
460.94	4667.03
461.12	4636.60
461.31	4660.01
461.49	4819.16
461.67	4617.88
461.85	4835.55
462.04	4748.95
462.22	4917.47
462.40	4793.42
462.59	4821.50
462.77	4910.44
462.95	4936.19
463.13	4840.23
463.32	4894.06
463.50	4964.28
463.68	5008.75
463.86	4966.62
464.05	4755.97
464.23	5032.15
464.41	5116.41
464.59	5118.75
464.78	5055.56
464.96	5043.85
465.14	4924.49
465.32	5118.75
465.50	5025.13
465.69	5280.25
465.87	5123.43
466.05	5118.75
466.23	4978.32
466.41	5078.96
466.60	5167.90
466.78	5151.52
466.96	5203.01
467.14	5207.69
467.32	5170.24
467.51	5301.31
467.69	5378.55
467.87	5242.80
468.05	5362.17
468.23	5341.10
468.41	5287.27
468.60	5427.70
468.78	5404.30
468.96	5210.03
469.14	5497.92
469.32	5504.94
469.50	5343.44
469.69	5537.71
469.87	5687.50
470.05	5661.76
470.23	5762.40
470.41	5577.50
470.59	5657.07
470.77	5619.63
470.95	5762.40
471.14	5717.93
471.32	5640.69
471.50	5767.08
471.68	5881.77
471.86	5731.97
472.04	5823.25
472.22	5858.36
472.40	5731.97
472.58	5849.00
472.77	5928.58
472.95	6010.50
473.13	6225.82
473.31	6038.58
473.49	6085.39
473.67	6017.52
473.85	5982.41
474.03	6286.68
474.21	6265.61
474.39	6209.44
474.57	6324.13
474.75	6574.56
474.93	6235.19
475.12	6331.15
475.30	6424.77
475.48	6494.99
475.66	6349.87
475.84	6520.73
476.02	6300.72
476.20	6626.06
476.38	6698.61
476.56	6698.61
476.74	6724.36
476.92	6724.36
477.10	6761.81
477.28	6937.35
477.46	6817.98
477.64	7140.97
477.82	7007.56
478.00	7176.08
478.18	7267.36
478.36	7073.10
478.54	7300.13
478.72	7222.89
478.90	7239.28
479.08	7351.62
479.26	7557.59
479.44	7527.16
479.62	7630.15
479.80	7648.87
479.98	7681.64
480.16	7943.78
480.34	7564.61
480.52	7943.78
480.70	7758.88
480.88	7913.35
481.06	7808.03
481.24	7812.71
481.41	8236.35
481.59	8156.77
481.77	8198.90
481.95	8461.04
482.13	8308.90
482.31	8402.52
482.49	8608.49
482.67	8627.21
482.85	8624.87
483.03	8659.98
483.21	8964.25
483.39	8968.93
483.57	8849.57
483.74	8887.01
483.92	8957.23
484.10	8910.42
484.28	9139.79
484.46	9329.38
484.64	9455.76
484.82	9212.35
485.00	9591.52
485.18	9504.92
485.35	9748.33
485.53	9856.00
485.71	9748.33
485.89	9877.06
486.07	9825.57
486.25	9837.27
486.43	10001.11
486.61	10155.58
486.78	10092.39
486.96	10190.69
487.14	10455.17
487.32	10342.83
487.50	10485.60
487.68	10424.75
487.85	10609.65
488.03	10803.91
488.21	10913.92
488.39	10642.42
488.57	10801.57
488.75	11082.44
488.92	11405.43
489.10	11154.99
489.28	11164.36
489.46	11414.79
489.64	11405.43
489.81	11618.42
489.99	11375.00
490.17	11513.10
490.35	11641.82
490.53	11873.54
490.70	12177.81
490.88	11868.86
491.06	12285.47
491.24	12079.50
491.41	11882.90
491.59	12121.63
491.77	12198.87
491.95	12322.92
492.13	12578.04
492.30	12744.22
492.48	12624.85
492.66	12603.78
492.84	12723.15
493.01	12910.40
493.19	13032.10
493.37	13125.72
493.54	12926.78
493.72	13139.77
493.90	13191.26
494.08	13495.53
494.25	13701.50
494.43	13547.02
494.61	13635.96
494.79	13565.74
494.96	13476.80
495.14	13973.00
495.32	14019.81
495.49	13877.04
495.67	14190.67
495.85	14295.99
496.02	14319.40
496.20	14361.53
496.38	14384.93
496.55	14225.78
496.73	14689.20
496.91	14628.35
497.09	14696.22
497.26	14513.66
497.44	14960.70
497.62	14920.92
497.79	14920.92
497.97	14918.57
498.14	15208.80
498.32	15206.46
498.50	15602.01
498.67	15398.38
498.85	15349.23
499.03	15506.05
499.20	15545.84
499.38	15688.61
499.56	15672.23
499.73	15578.61
499.91	15812.66
500.08	16016.29
500.26	15779.89
500.44	15775.21
500.61	15967.13
500.79	16262.04
500.97	16535.88
501.14	16477.37
501.32	16236.30
501.49	16341.62
501.67	16421.20
501.84	16264.38
502.02	16369.71
502.20	16411.84
502.37	16863.56
502.55	16788.66
502.72	16879.94
502.90	16421.20
503.07	16624.83
503.25	16695.04
503.43	16886.97
503.60	17198.26
503.78	17053.14
503.95	17128.04
504.13	17132.72
504.30	17083.57
504.48	17146.76
504.65	17373.80
504.83	17343.37
505.01	17441.67
505.18	17558.70
505.36	17593.81
505.53	17483.80
505.71	17535.29
505.88	17474.44
506.06	17717.86
506.23	18148.51
506.41	17930.84
506.58	18040.85
506.76	17914.46
506.93	18223.41
507.11	18026.81
507.28	18129.79
507.46	18169.58
507.63	18368.52
507.81	18455.12
507.98	17984.68
508.16	18492.57
508.33	18441.08
508.50	18462.15
508.68	18389.59
508.85	18724.29
509.03	18583.85
509.20	18944.30
509.38	18899.83
509.55	18941.96
509.73	18761.73
509.90	18927.91
510.08	18981.74
510.25	19133.88
510.42	19047.28
510.60	19218.14
510.77	19344.53
510.95	19377.30
511.12	19084.73
511.30	19274.31
511.47	19353.89
511.64	19459.21
511.82	19658.16
511.99	19754.12
512.17	19562.20
512.34	19529.43
512.51	19899.23
512.69	19616.03
512.86	19892.21
513.04	20304.15
513.21	19999.88
513.38	20168.40
513.56	19913.28
513.73	19880.51
513.90	19777.53
514.08	20493.73
514.25	20402.45
514.43	20402.45
514.60	20421.17
514.77	20643.52
514.95	20680.97
515.12	20374.36
515.29	20360.32
515.47	20844.81
515.64	20746.51
515.81	20575.65
515.99	21074.18
516.16	21116.31
516.33	21020.35
516.51	21085.89
516.68	20931.41
516.85	21139.72
517.03	20959.50
517.20	20912.69
517.37	21263.77
517.54	21357.39
517.72	21025.03
517.89	21163.12
518.06	21170.15
518.24	21130.36
518.41	21104.61
518.58	21472.07
518.75	21247.38
518.93	21659.32
519.10	21696.77
519.27	21968.27
519.45	21341.00
519.62	21642.93
519.79	21827.84
519.96	21699.11
520.14	22087.64
520.31	21743.58
520.48	22237.43
520.65	21977.63
520.83	22052.53
521.00	22207.00
521.17	22359.14
521.34	22300.62
521.52	22448.08
521.69	22410.63
521.86	22349.78
522.03	22724.26
522.20	22567.45
522.38	22487.87
522.55	22754.69
522.72	22829.59
522.89	23070.66
523.07	23047.26
523.24	22817.88
523.41	22913.84
523.58	22995.76
523.75	23023.85
523.92	22644.68
524.10	23136.20
524.27	23175.98
524.44	23175.98
524.61	23365.57
524.78	23604.30
524.96	23278.97
525.13	23150.24
525.30	23309.40
525.47	23183.01
525.64	23461.53
525.81	23187.69
525.98	23569.19
526.16	23630.05
526.33	23810.27
526.50	24030.28
526.67	23374.93
526.84	23552.81
527.01	23225.14
527.18	23625.37
527.36	23990.49
527.53	23733.03
527.70	24140.29
527.87	23770.48
528.04	23826.65
528.21	24130.92
528.38	24074.75
528.55	24081.77
528.72	24353.27
528.89	24285.40
529.07	23875.80
529.24	24205.82
529.41	24493.71
529.58	24327.53
529.75	24205.82
529.92	24121.56
530.09	24168.37
530.26	24329.87
530.43	24362.64
530.60	24713.72
530.77	24294.76
530.94	24664.57
531.11	24442.21
531.28	24545.20
531.46	24650.52
531.63	24959.47
531.80	24437.53
531.97	25015.65
532.14	25076.50
532.31	25027.35
532.48	24900.96
532.65	25219.27
532.82	24601.37
532.99	25022.67
533.16	24978.20
533.33	25055.43
533.50	25275.45
533.67	25216.93
533.84	25528.22
534.01	25418.22
534.18	25511.84
534.35	25654.61
534.52	25322.26
534.69	25448.64
534.86	25455.67
535.03	25481.41
535.20	25682.70
535.37	25348.00
535.54	25687.38
535.71	25338.64
535.88	25560.99
536.05	25806.75
536.22	25869.94
536.38	25916.75
536.55	25572.69
536.72	25511.84
536.89	25862.92
537.06	25708.44
537.23	25862.92
537.40	25773.98
537.57	26003.35
537.74	25661.63
537.91	26115.70
538.08	26534.65
538.25	25902.71
538.42	25949.52
538.59	26382.52
538.75	25949.52
538.92	26338.05
539.09	26096.97
539.26	26206.98
539.43	26143.78
539.60	26412.95
539.77	26005.69
539.94	26410.60
540.11	26225.70
540.28	26529.97
540.44	26394.22
540.61	26125.06
540.78	26441.03
540.95	26759.34
541.12	26742.96
541.29	26593.17
541.46	26822.54
541.62	26773.39
541.79	26504.23
541.96	26536.99
542.13	26560.40
542.30	26609.55
542.47	26916.16
542.63	27012.12
542.80	26892.76
542.97	27222.77
543.14	27138.51
543.31	27222.77
543.48	27175.96
543.64	27438.10
543.81	27236.81
543.98	27674.49
544.15	27613.64
544.32	27508.32
544.48	27517.68
544.65	27363.20
544.82	27330.44
544.99	27367.88
545.16	27339.80
545.32	27271.92
545.49	27840.67
545.66	27899.19
545.83	28133.24
546.00	27615.98
546.16	27740.03
546.33	27608.96
546.50	27543.42
546.67	28320.48
546.83	27445.12
547.00	27548.11
547.17	27754.07
547.34	27910.89
547.50	28271.33
547.67	28327.50
547.84	28105.15
548.00	27744.71
548.17	28432.83
548.34	27931.95
548.51	28664.54
548.67	28290.06
548.84	28393.04
549.01	27985.79
549.18	28098.13
549.34	27976.42
549.51	28456.23
549.68	28184.73
549.84	28144.94
550.01	28290.06
550.18	28416.44
550.34	28402.40
550.51	28879.87
550.68	28451.55
550.84	28196.43
551.01	28643.48
551.18	28685.61
551.34	28257.29
551.51	28697.31
551.68	28268.99
551.84	28814.34
552.01	28341.55
552.18	28673.90
552.34	28301.76
552.51	28952.43
552.68	28863.49
552.84	28641.14
553.01	28772.21
553.18	28980.51
553.34	28968.81
553.51	28666.88
553.67	28893.91
553.84	29053.07
554.01	29212.23
554.17	29259.04
554.34	28713.69
554.51	28833.06
554.67	28957.11
554.84	28856.46
555.00	29324.57
555.17	29310.53
555.33	29111.58
555.50	29083.50
555.67	28931.36
555.83	28896.25
556.00	29104.56
556.16	29479.05
556.33	29266.06
556.50	29237.97
556.66	29252.02
556.83	29378.40
556.99	29385.43
557.16	29474.37
557.32	29523.52
557.49	29495.43
557.65	29415.85
557.82	29287.12
557.98	29479.05
558.15	29230.95
558.32	29848.85
558.48	29816.08
558.65	29551.60
558.81	29586.71
558.98	29706.08
559.14	29900.34
559.31	29235.63
559.47	29586.71
559.64	29790.34
559.80	29600.76
559.97	30071.20
560.13	29769.27
560.30	29722.46
560.46	29776.30
560.63	30010.35
560.79	29874.60
560.96	29956.52
561.12	29607.78
561.29	30169.51
561.45	29722.46
561.61	30092.27
561.78	29778.64
561.94	29848.85
562.11	30047.80
562.27	29806.72
562.44	29741.19
562.60	29792.68
562.77	30263.13
562.93	29846.51
563.10	30478.46
563.26	29729.48
563.42	29975.24
563.59	29986.94
563.75	30342.70
563.92	30359.09
564.08	30078.22
564.24	29909.71
564.41	29968.22
564.57	29851.19
564.74	29764.59
564.90	30693.79
565.07	30412.92
565.23	30408.24
565.39	30134.40
565.56	30328.66
565.72	29909.71
565.88	30157.80
566.05	30464.41
566.21	30387.18
566.38	30338.02
566.54	30410.58
566.70	30731.23
566.87	30511.22
567.03	30419.94
567.19	31065.93
567.36	30602.50
567.52	30213.98
567.68	30316.96
567.85	30319.30
568.01	30532.29
568.17	30038.44
568.34	30576.76
568.50	30684.42
568.66	30600.16
568.83	30513.56
568.99	30373.13
569.15	30899.75
569.32	30277.17
569.48	30452.71
569.64	30553.35
569.81	30651.66
569.97	30808.47
570.13	30742.94
570.30	30555.69
570.46	30850.60
570.62	30356.75
570.78	30663.36
570.95	30534.63
571.11	30756.98
571.27	30590.80
571.43	30513.56
571.60	30714.85
571.76	30473.78
571.92	30801.45
572.09	30871.67
572.25	31166.57
572.41	30588.46
572.57	30625.91
572.74	30916.14
572.90	30855.28
573.06	30597.82
573.22	30436.33
573.38	31049.55
573.55	30518.25
573.71	31206.36
573.87	31117.42
574.03	30946.56
574.20	30684.42
574.36	31049.55
574.52	31171.25
574.68	30281.85
574.84	30623.57
575.01	30675.06
575.17	30815.49
575.33	30930.18
575.49	30955.93
575.65	30735.92
575.82	31005.08
575.98	30857.62
576.14	30654.00
576.30	30616.55
576.46	30806.13
576.62	30782.73
576.79	31136.15
576.95	31152.53
577.11	30862.30
577.27	30829.54
577.43	31119.76
577.59	30974.65
577.75	30852.94
577.92	31030.82
578.08	30845.92
578.24	30841.24
578.40	30948.90
578.56	30628.25
578.72	31267.22
578.88	31428.71
579.04	30845.92
579.21	30979.33
579.37	31007.42
579.53	30939.54
579.69	31323.39
579.85	31171.25
580.01	30534.63
580.17	30614.21
580.33	31035.50
580.49	31136.15
580.65	31218.07
580.82	31260.20
580.98	31225.09
581.14	30939.54
581.30	31271.90
581.46	31063.59
581.62	30848.26
581.78	30803.79
581.94	30646.97
582.10	30813.15
582.26	31126.78
582.42	30831.88
582.58	30986.35
582.74	31229.77
582.90	31154.87
583.06	31384.24
583.22	31257.85
583.38	31555.10
583.54	31201.68
583.70	31016.78
583.86	30944.22
584.02	31005.08
584.18	31491.91
584.34	31349.14
584.50	31208.70
584.66	31426.37
584.82	31194.66
584.98	31440.42
585.14	30850.60
585.30	30852.94
585.46	30850.60
585.62	30946.56
585.78	31220.41
585.94	30976.99
586.10	31056.57
586.26	31344.45
586.42	31264.88
586.58	31087.00
586.74	31105.72
586.90	31232.11
587.06	30909.11
587.22	31225.09
587.38	30661.02
587.54	31580.85
587.70	31519.99
587.86	30967.63
588.02	31246.15
588.18	31349.14
588.34	31281.26
588.49	31171.25
588.65	31122.10
588.81	31030.82
588.97	31204.02
589.13	31402.97
589.29	31393.61
589.45	31372.54
589.61	31180.62
589.77	31433.39
589.93	31718.94
590.08	31592.55
590.24	31110.40
590.40	31655.75
590.56	31597.23
590.72	31398.29
590.88	31363.18
591.04	31187.64
591.20	31601.91
591.35	31887.46
591.51	31758.73
591.67	31608.93
591.83	31922.57
591.99	31529.36
592.15	31470.84
592.31	31281.26
592.46	31309.35
592.62	31463.82
592.78	31377.22
592.94	31105.72
593.10	31072.95
593.26	31695.53
593.41	31667.45
593.57	31318.71
593.73	31655.75
593.89	31583.19
594.05	31695.53
594.20	31519.99
594.36	31288.28
594.52	31445.10
594.68	31477.86
594.84	31449.78
594.99	31786.82
595.15	31466.16
595.31	31967.04
595.47	31826.60
595.62	32034.91
595.78	31744.69
595.94	31725.96
596.10	31714.26
596.25	31538.72
596.41	31442.76
596.57	31185.30
596.73	31660.43
596.88	30991.03
597.04	31730.64
597.20	31920.23
597.36	31756.39
597.51	32055.98
597.67	31983.42
597.83	31555.10
597.99	31871.07
598.14	31786.82
598.30	31660.43
598.46	31637.02
598.61	31679.15
598.77	31744.69
598.93	31941.29
599.09	31442.76
599.24	32098.11
599.40	31889.80
599.56	31824.26
599.71	31938.95
599.87	31707.24
600.03	31730.64
600.18	31779.79
600.34	32086.40
600.50	31548.08
600.65	32037.25
600.81	32016.19
600.97	31819.58
601.12	32154.28
601.28	32041.93
601.44	31938.95
601.59	31938.95
601.75	31613.62
601.91	31873.42
602.06	31761.07
602.22	31604.25
602.37	31704.90
602.53	31952.99
602.69	32175.34
602.84	31857.03
603.00	32109.81
603.16	31793.84
603.31	31838.31
603.47	31517.65
603.62	31751.71
603.78	31861.71
603.94	31840.65
604.09	31978.74
604.25	31541.06
604.40	31569.15
604.56	31754.05
604.71	31730.64
604.87	31690.85
605.03	31896.82
605.18	31758.73
605.34	31594.89
605.49	31463.82
605.65	31704.90
605.80	31622.98
605.96	31655.75
606.12	31311.69
606.27	31477.86
606.43	31737.66
606.58	32081.72
606.74	31725.96
606.89	31934.27
607.05	31922.57
607.20	31840.65
607.36	31847.67
607.51	31704.90
607.67	31311.69
607.82	31723.62
607.98	31672.13
608.13	31821.92
608.29	31789.16
608.44	31646.38
608.60	31761.07
608.75	31943.63
608.91	32086.40
609.06	31796.18
609.22	31730.64
609.37	31101.04
609.53	31857.03
609.68	31545.74
609.84	31559.78
609.99	31243.81
610.15	31393.61
610.30	31744.69
610.46	31522.34
610.61	31772.77
610.76	31370.20
610.92	31365.52
611.07	31695.53
611.23	31573.83
611.38	31353.82
611.54	31056.57
611.69	30944.22
611.84	31311.69
612.00	31211.04
612.15	31002.74
612.31	31754.05
612.46	31798.52
612.62	31770.43
612.77	31318.71
612.92	31674.47
613.08	31852.35
613.23	31047.21
613.39	31049.55
613.54	31131.47
613.69	30728.89
613.85	31005.08
614.00	31250.83
614.15	31297.64
614.31	31295.30
614.46	31711.92
614.62	31201.68
614.77	31344.45
614.92	31314.03
615.08	31089.34
615.23	31262.54
615.38	30918.48
615.54	30988.69
615.69	31138.49
615.84	30625.91
616.00	31239.13
616.15	31007.42
616.30	31512.97
616.46	31117.42
616.61	30838.90
616.76	31442.76
616.92	30927.84
617.07	30986.35
617.22	30487.82
617.37	30703.15
617.53	30850.60
617.68	30848.26
617.83	30602.50
617.99	30829.54
618.14	30623.57
618.29	30918.48
618.45	30976.99
618.60	30712.51
618.75	30536.97
618.90	30771.02
619.06	30960.61
619.21	30934.86
619.36	30672.72
619.51	30698.47
619.67	30469.09
619.82	30679.74
619.97	30216.32
620.12	30639.95
620.28	30686.76
620.43	30677.40
620.58	31321.05
620.73	30642.29
620.89	30923.16
621.04	30895.07
621.19	30593.14
621.34	30536.97
621.49	30543.99
621.65	30459.73
621.80	30176.53
621.95	30522.93
622.10	30562.72
622.25	30359.09
622.41	30628.25
622.56	30314.62
622.71	30548.67
622.86	30646.97
623.01	30513.56
623.16	30368.45
623.32	30139.08
623.47	30412.92
623.62	30122.69
623.77	30408.24
623.92	30539.31
624.07	30094.61
624.23	30106.31
624.38	30249.08
624.53	30183.55
624.68	30164.82
624.83	30036.09
624.98	30419.94
625.13	30349.73
625.29	29851.19
625.44	30162.48
625.59	30005.67
625.74	29942.47
625.89	29832.47
626.04	29825.45
626.19	29914.39
626.34	29610.12
626.49	29422.87
626.65	29919.07
626.80	30242.06
626.95	30101.63
627.10	29958.86
627.25	30015.03
627.40	29848.85
627.55	29460.32
627.70	29420.53
627.85	30012.69
628.00	29673.31
628.15	29535.22
628.30	29647.57
628.45	29563.31
628.60	29909.71
628.76	29874.60
628.91	29673.31
629.06	29652.25
629.21	29780.98
629.36	29472.03
629.51	29191.16
629.66	29450.96
629.81	29376.06
629.96	29497.77
630.11	29371.38
630.26	29584.37
630.41	29317.55
630.56	29380.74
630.71	29682.67
630.86	29186.48
631.01	29462.66
631.16	29415.85
631.31	29610.12
631.46	29207.55
631.61	29385.43
631.76	29486.07
631.91	29298.83
632.06	29352.66
632.21	29202.86
632.36	29261.38
632.51	29188.82
632.66	29034.35
632.81	29071.79
632.96	29216.91
633.10	29263.72
633.25	29394.79
633.40	29572.67
633.55	28980.51
633.70	28840.08
633.85	28952.43
634.00	28762.84
634.15	28950.09
634.30	28676.24
634.45	28718.37
634.60	28741.78
634.75	29053.07
634.90	28734.76
635.05	29137.33
635.19	28982.85
635.34	29120.95
635.49	29102.22
635.64	29067.11
635.79	29160.73
635.94	28989.88
636.09	28687.95
636.24	28636.45
636.39	28975.83
636.53	28854.12
636.68	28528.79
636.83	28727.74
636.98	28481.98
637.13	28926.68
637.28	28737.10
637.43	28975.83
637.57	28720.71
637.72	28783.91
637.87	28830.72
638.02	28929.02
638.17	28652.84
638.32	28098.13
638.46	28350.91
638.61	28404.74
638.76	28425.81
638.91	28388.36
639.06	28411.76
639.20	28393.04
639.35	28210.48
639.50	28479.64
639.65	28601.35
639.80	28617.73
639.94	28568.58
640.09	28137.92
640.24	28449.21
640.39	28322.82
640.54	27962.38
640.68	28037.28
640.83	28311.12
640.98	28425.81
641.13	28039.62
641.27	28397.72
641.42	28449.21
641.57	28421.13
641.72	28357.93
641.86	28023.23
642.01	27899.19
642.16	28222.18
642.31	27683.86
642.45	28158.99
642.60	27592.58
642.75	28168.35
642.90	28086.43
643.04	27737.69
643.19	27716.62
643.34	28245.58
643.48	28123.88
643.63	28226.86
643.78	27541.08
643.93	27866.42
644.07	27875.78
644.22	27826.63
644.37	27784.50
644.51	27800.88
644.66	28009.19
644.81	27477.89
644.95	27707.26
645.10	27641.73
645.25	27775.14
645.39	27721.30
645.54	27606.62
645.69	27517.68
645.83	27700.24
645.98	27435.76
646.13	27737.69
646.27	27777.48
646.42	27538.74
646.57	27552.79
646.71	27531.72
646.86	27304.69
647.00	27749.39
647.15	27424.06
647.30	27733.01
647.44	27119.79
647.59	27805.56
647.74	27536.40
647.88	27138.51
648.03	27505.98
648.17	27714.28
648.32	27445.12
648.47	27910.89
648.61	27365.54
648.76	27566.83
648.90	27520.02
649.05	27330.44
649.20	27351.50
649.34	27393.63
649.49	27192.34
649.63	27339.80
649.78	27124.47
649.92	27213.41
650.07	27330.44
650.21	27112.77
650.36	26824.88
650.51	27040.21
650.65	27056.59
650.80	27410.01
650.94	27253.20
651.09	27136.17
651.23	27047.23
651.38	27005.10
651.52	26803.82
651.67	26724.24
651.81	26834.24
651.96	26981.70
652.10	27084.68
652.25	26906.80
652.39	26895.10
652.54	26941.91
652.68	26785.09
652.83	27115.11
652.97	26836.58
653.12	26977.01
653.26	26897.44
653.41	26845.94
653.55	26862.33
653.70	26457.42
653.84	26897.44
653.99	26686.79
654.13	26677.43
654.27	26724.24
654.42	26452.73
654.56	26513.59
654.71	26565.08
654.85	26799.13
655.00	26796.79
655.14	26890.41
655.29	26455.08
655.43	26969.99
655.57	26541.68
655.72	26260.81
655.86	26101.65
656.01	26553.38
656.15	26675.09
656.30	26874.03
656.44	26448.05
656.58	26558.06
656.73	26342.73
656.87	26515.93
657.01	26300.60
657.16	26464.44
657.30	26583.80
657.45	26443.37
657.59	26611.89
657.73	26462.10
657.88	26192.94
658.02	26125.06
658.16	26464.44
658.31	26377.84
658.45	26153.15
658.60	25867.60
658.74	26214.00
658.88	25876.96
659.03	25820.79
659.17	25963.56
659.31	26136.76
659.46	26066.55
659.60	25951.86
659.74	25621.84
659.89	25715.47
660.03	26073.57
660.17	25764.62
660.32	25378.43
660.46	25263.74
660.60	25579.71
660.74	25546.95
660.89	25584.40
661.03	25460.35
661.17	25223.95
661.32	25919.09
661.46	25575.03
661.60	25507.16
661.74	25537.59
661.89	25823.13
662.03	25638.23
662.17	25535.24
662.31	25448.64
662.46	25551.63
662.60	25326.94
662.74	25010.96
662.88	25268.42
663.03	25008.62
663.17	25331.62
663.31	24966.49
663.45	24889.26
663.60	25259.06
663.74	24833.08
663.88	24758.19
664.02	24912.66
664.17	24802.66
664.31	24741.80
664.45	25123.31
664.59	24884.58
664.73	25010.96
664.88	24652.86
665.02	24379.02
665.16	24547.54
665.30	24896.28
665.44	24418.81
665.59	24482.00
665.73	24669.25
665.87	24840.11
666.01	24503.07
666.15	24526.47
666.29	24610.73
666.44	24437.53
666.58	24215.18
666.72	24526.47
666.86	24313.48
667.00	24203.48
667.14	24269.01
667.28	24107.52
667.43	24243.27
667.57	24180.07
667.71	24154.33
667.85	24004.53
667.99	24046.66
668.13	23990.49
668.27	23744.73
668.41	23946.02
668.56	23704.95
668.70	23857.08
668.84	24013.90
668.98	23791.55
669.12	23812.61
669.26	24299.44
669.40	23604.30
669.54	23852.40
669.68	23747.08
669.82	23599.62
669.96	23662.82
670.10	23332.80
670.25	23316.42
670.39	23421.74
670.53	23332.80
670.67	23295.35
670.81	23316.42
670.95	23381.95
671.09	23426.42
671.23	23419.40
671.37	23318.76
671.51	23428.76
671.65	23243.86
671.79	23187.69
671.93	23042.57
672.07	23250.88
672.21	22862.35
672.35	22632.98
672.49	22752.35
672.63	22948.95
672.77	22576.81
672.91	22630.64
673.05	22757.03
673.19	22682.13
673.33	22696.17
673.47	22242.11
673.61	22794.48
673.75	22581.49
673.89	22567.45
674.03	22735.96
674.17	22101.68
674.31	22242.11
674.45	22698.52
674.59	22113.38
674.73	22190.62
674.87	22108.70
675.01	22197.64
675.15	21556.33
675.29	21795.07
675.43	21846.56
675.56	22059.55
675.70	21661.66
675.84	21970.61
675.98	21673.36
676.12	21888.69
676.26	22085.30
676.40	21816.13
676.54	21750.60
676.68	21525.91
676.82	21106.95
676.96	21535.27
677.10	21268.45
677.23	21411.22
677.37	21055.46
677.51	21390.16
677.65	21013.33
677.79	21083.55
677.93	21128.02
678.07	20765.23
678.21	20755.87
678.34	20926.73
678.48	20465.64
678.62	20725.44
678.76	20606.08
678.90	20746.51
679.04	20531.18
679.18	20582.67
679.31	20098.18
679.45	19969.45
679.59	20177.76
679.73	20187.12
679.87	19850.08
680.00	20058.39
680.14	19880.51
680.28	20091.16
680.42	20098.18
680.56	20135.63
680.70	19777.53
680.83	19770.51
680.97	20020.94
681.11	19786.89
681.25	19562.20
681.39	19520.07
681.52	19676.88
681.66	19328.14
681.80	19309.42
681.94	19316.44
682.07	19232.18
682.21	19253.25
682.35	18927.91
682.49	18981.74
682.62	19211.12
682.76	18633.00
682.90	18834.29
683.04	18860.04
683.17	18934.93
683.31	18822.59
683.45	18663.43
683.59	18679.82
683.72	18773.44
683.86	18452.78
684.00	18415.34
684.13	18279.58
684.27	18450.44
684.41	18190.64
684.55	18099.36
684.68	18167.24
684.82	17755.30
684.96	18176.60
685.09	17858.29
685.23	17703.81
685.37	18127.45
685.50	18169.58
685.64	17848.93
685.78	17930.84
685.91	17996.38
686.05	17841.90
686.19	17451.03
686.32	17596.15
686.46	17682.75
686.60	17205.28
686.73	17298.90
686.87	17287.20
687.01	17497.84
687.14	17018.04
687.28	17036.76
687.42	16898.67
687.55	16971.22
687.69	17186.55
687.82	17156.13
687.96	16992.29
688.10	16753.55
688.23	16957.18
688.37	16931.44
688.50	16592.06
688.64	16629.51
688.78	16671.64
688.91	16673.98
689.05	16416.52
689.18	16339.28
689.32	15955.43
689.46	16327.58
689.59	16109.91
689.73	16252.68
689.86	16013.95
690.00	16056.08
690.13	15803.30
690.27	15812.66
690.41	16056.08
690.54	15838.41
690.68	15686.27
690.81	15866.49
690.95	15925.00
691.08	15882.88
691.22	15484.98
691.35	15609.03
691.49	15620.74
691.62	15311.78
691.76	15489.67
691.89	15227.53
692.03	15012.20
692.16	15248.59
692.30	15047.30
692.43	14808.57
692.57	14644.73
692.70	15012.20
692.84	14885.81
692.97	14913.89
693.11	14874.10
693.24	14888.15
693.38	14630.69
693.51	14970.07
693.65	14799.21
693.78	14354.51
693.92	14658.78
694.05	14473.87
694.19	14291.31
694.32	14139.18
694.45	14317.06
694.59	14064.28
694.72	13944.91
694.86	13940.23
694.99	13970.66
695.13	13877.04
695.26	13942.57
695.39	14031.51
695.53	13661.71
695.66	13769.37
695.80	13717.88
695.93	13736.60
696.07	13879.38
696.20	13722.56
696.33	13385.52
696.47	13444.04
696.60	13724.90
696.73	13376.16
696.87	13540.00
697.00	13116.36
697.14	13163.17
697.27	13060.19
697.40	13088.28
697.54	12922.10
697.67	12681.02
697.80	12870.61
697.94	12776.98
698.07	12690.38
698.21	12489.10
698.34	12578.04
698.47	12498.46
698.61	12737.20
698.74	12683.36
698.87	12776.98
699.01	12458.67
699.14	12444.63
699.27	12418.88
699.40	12112.27
699.54	12353.35
699.67	12147.38
699.80	12297.17
699.94	12009.29
700.07	12053.76
700.20	11943.75
700.34	11763.53
700.47	11782.26
700.60	11595.01
700.73	12056.10
700.87	11707.36
701.00	11702.68
701.13	11627.78
701.26	11573.95
701.40	11583.31
701.53	11700.34
701.66	11566.93
701.79	11520.12
701.93	11302.45
702.06	11190.10
702.19	11187.76
702.32	11398.41
702.46	10977.11
702.59	10897.53
702.72	11056.69
702.85	10956.05
702.99	10916.26
703.12	10661.14
703.25	10782.85
703.38	10867.11
703.51	10691.57
703.65	10693.91
703.78	10677.52
703.91	10628.37
704.04	10707.95
704.17	10892.85
704.31	10518.37
704.44	10759.44
704.57	10443.47
704.70	10434.11
704.83	10256.23
704.96	10186.01
705.10	10249.21
705.23	9919.19
>>>>>End Processed Spectral Data<<<<<
