SpectraSuite Data File
++++++++++++++++++++++++++++++++++++
Date: Fri Oct 18 13:58:36 GMT-05:00 2013
User: bianchi
Dark Spectrum Present: No
Reference Spectrum Present: No
Number of Sampled Component Spectra: 1
Spectrometers: USB2+H05261
Integration Time (usec): 50000 (USB2+H05261)
Spectra Averaged: 1 (USB2+H05261)
Boxcar Smoothing: 0 (USB2+H05261)
Correct for Electrical Dark: No (USB2+H05261)
Strobe/Lamp Enabled: No (USB2+H05261)
Correct for Detector Non-linearity: No (USB2+H05261)
Correct for Stray Light: No (USB2+H05261)
Number of Pixels in Processed Spectrum: 2048
>>>>>Begin Processed Spectral Data<<<<<
365.73	0.00
365.92	0.00
366.12	0.00
366.32	0.00
366.52	0.00
366.72	0.00
366.91	0.00
367.11	0.00
367.31	0.00
367.51	0.00
367.70	0.00
367.90	0.00
368.10	0.00
368.30	0.00
368.49	0.00
368.69	0.00
368.89	0.00
369.09	0.00
369.28	0.00
369.48	0.00
369.68	0.00
369.87	0.00
370.07	0.00
370.27	0.00
370.47	0.00
370.66	128.73
370.86	152.13
371.06	161.50
371.25	198.95
371.45	107.66
371.65	173.20
371.84	205.97
372.04	145.11
372.24	201.29
372.44	269.16
372.63	194.26
372.83	184.90
373.03	283.20
373.22	173.20
373.42	189.58
373.62	191.92
373.81	198.95
374.01	222.35
374.21	212.99
374.40	154.48
374.60	257.46
374.79	196.60
374.99	194.26
375.19	299.59
375.38	320.65
375.58	264.48
375.78	224.69
375.97	217.67
376.17	271.50
376.37	203.63
376.56	299.59
376.76	184.90
376.95	175.54
377.15	365.12
377.35	308.95
377.54	283.20
377.74	269.16
377.93	280.86
378.13	201.29
378.33	341.72
378.52	215.33
378.72	301.93
378.91	327.68
379.11	259.80
379.31	287.89
379.50	330.02
379.70	341.72
379.89	313.63
380.09	290.23
380.28	269.16
380.48	322.99
380.68	269.16
380.87	273.84
381.07	346.40
381.26	383.85
381.46	395.55
381.65	358.10
381.85	322.99
382.04	283.20
382.24	320.65
382.43	379.17
382.63	365.12
382.83	257.46
383.02	341.72
383.22	273.84
383.41	367.46
383.61	372.15
383.80	374.49
384.00	379.17
384.19	346.40
384.39	360.44
384.58	353.42
384.78	404.91
384.97	383.85
385.17	367.46
385.36	348.74
385.56	379.17
385.75	365.12
385.95	407.25
386.14	379.17
386.34	428.32
386.53	337.04
386.72	348.74
386.92	440.02
387.11	458.74
387.31	423.64
387.50	477.47
387.70	465.77
387.89	435.34
388.09	449.38
388.28	404.91
388.48	418.96
388.67	435.34
388.86	365.12
389.06	437.68
389.25	507.90
389.45	435.34
389.64	477.47
389.84	458.74
390.03	461.09
390.22	528.96
390.42	550.03
390.61	482.15
390.81	580.45
391.00	479.81
391.19	500.87
391.39	449.38
391.58	465.77
391.78	465.77
391.97	571.09
392.16	507.90
392.36	538.32
392.55	559.39
392.75	512.58
392.94	550.03
393.13	575.77
393.33	519.60
393.52	550.03
393.71	491.51
393.91	587.47
394.10	514.92
394.29	601.52
394.49	601.52
394.68	526.62
394.88	578.11
395.07	706.84
395.26	634.29
395.46	496.19
395.65	561.73
395.84	678.76
396.04	697.48
396.23	606.20
396.42	723.23
396.62	706.84
396.81	631.94
397.00	688.12
397.19	638.97
397.39	578.11
397.58	718.54
397.77	653.01
397.97	727.91
398.16	713.86
398.35	638.97
398.55	690.46
398.74	746.63
398.93	758.33
399.12	688.12
399.32	713.86
399.51	713.86
399.70	770.04
399.90	720.88
400.09	795.78
400.28	784.08
400.47	741.95
400.67	741.95
400.86	767.70
401.05	786.42
401.24	816.85
401.44	699.82
401.63	849.61
401.82	739.61
402.01	814.51
402.21	786.42
402.40	873.02
402.59	891.74
402.78	798.12
402.97	870.68
403.17	847.27
403.36	912.81
403.55	809.83
403.74	844.93
403.93	812.17
404.13	854.30
404.32	856.64
404.51	912.81
404.70	908.13
404.89	905.79
405.09	947.92
405.28	873.02
405.47	882.38
405.66	985.37
405.85	943.24
406.05	1013.45
406.24	976.00
406.43	938.55
406.62	1018.13
406.81	1067.28
407.00	1015.79
407.20	961.96
407.39	1039.20
407.58	999.41
407.77	1008.77
407.96	1008.77
408.15	1116.44
408.34	987.71
408.54	1193.67
408.73	1144.52
408.92	1048.56
409.11	1224.10
409.30	1238.14
409.49	1046.22
409.68	1179.63
409.87	1041.54
410.07	1160.91
410.26	1280.27
410.45	1107.07
410.64	1188.99
410.83	1067.28
411.02	1231.12
411.21	1322.40
411.40	1282.61
411.59	1280.27
411.78	1329.42
411.98	1238.14
412.17	1226.44
412.36	1191.33
412.55	1362.19
412.74	1299.00
412.93	1369.21
413.12	1320.06
413.31	1345.81
413.50	1299.00
413.69	1378.58
413.88	1469.86
414.07	1406.66
414.26	1394.96
414.45	1507.30
414.64	1446.45
414.83	1490.92
415.02	1556.46
415.22	1519.01
415.41	1612.63
415.60	1502.62
415.79	1542.41
415.98	1544.75
416.17	1549.43
416.36	1565.82
416.55	1685.19
416.74	1593.90
416.93	1598.59
417.12	1650.08
417.31	1687.53
417.50	1666.46
417.69	1722.63
417.88	1755.40
418.07	1732.00
418.26	1666.46
418.45	1764.76
418.64	1778.81
418.83	1825.62
419.02	1944.99
419.21	1853.70
419.39	1905.20
419.58	1912.22
419.77	1832.64
419.96	1867.75
420.15	1921.58
420.34	1846.68
420.53	1750.72
420.72	1874.77
420.91	1909.88
421.10	2047.97
421.29	2029.24
421.48	1795.19
421.67	1952.01
421.86	1966.05
422.05	2036.27
422.24	1987.11
422.43	1973.07
422.61	2045.63
422.80	2026.90
422.99	1954.35
423.18	1994.14
423.37	2022.22
423.56	1973.07
423.75	2015.20
423.94	2015.20
424.13	1879.45
424.32	1795.19
424.50	2024.56
424.69	2085.42
424.88	2122.87
425.07	1914.56
425.26	2127.55
425.45	1982.43
425.64	1942.64
425.83	2005.84
426.01	2094.78
426.20	2029.24
426.39	2012.86
426.58	2019.88
426.77	2136.91
426.96	2090.10
427.15	2155.63
427.33	2104.14
427.52	2012.86
427.71	2143.93
427.90	2181.38
428.09	2202.44
428.28	2237.55
428.46	2305.43
428.65	2237.55
428.84	2326.49
429.03	2216.49
429.22	2183.72
429.40	2207.13
429.59	2317.13
429.78	2169.68
429.97	2143.93
430.16	2080.74
430.34	2218.83
430.53	2342.88
430.72	2232.87
430.91	2244.57
431.10	2284.36
431.28	2413.09
431.47	2377.98
431.66	2452.88
431.85	2338.20
432.03	2422.45
432.22	2530.12
432.41	2509.05
432.60	2590.97
432.79	2434.16
432.97	2363.94
433.16	2583.95
433.35	2450.54
433.54	2434.16
433.72	2502.03
433.91	2502.03
434.10	2590.97
434.28	2438.84
434.47	2670.55
434.66	2588.63
434.85	2422.45
435.03	2590.97
435.22	2537.14
435.41	2675.23
435.59	2583.95
435.78	2602.68
435.97	2586.29
436.16	2696.30
436.34	2602.68
436.53	2717.36
436.72	2813.32
436.90	2509.05
437.09	2726.72
437.28	2750.13
437.46	2672.89
437.65	2719.70
437.84	2724.38
438.02	2822.69
438.21	2897.58
438.40	2801.62
438.58	2857.79
438.77	3009.93
438.96	2904.60
439.14	2885.88
439.33	2951.42
439.52	2906.95
439.70	2897.58
439.89	2827.37
440.08	2988.86
440.26	3091.85
440.45	3056.74
440.63	3005.25
440.82	3141.00
441.01	3056.74
441.19	3171.43
441.38	3129.30
441.57	3185.47
441.75	3215.90
441.94	3361.01
442.12	3276.75
442.31	3309.52
442.50	3239.30
442.68	3433.57
442.87	3323.56
443.05	3330.58
443.24	3344.63
443.43	3283.77
443.61	3379.73
443.80	3372.71
443.98	3414.84
444.17	3288.45
444.35	3379.73
444.54	3501.44
444.73	3466.33
444.91	3253.34
445.10	3391.44
445.28	3379.73
445.47	3597.40
445.65	3468.67
445.84	3599.74
446.02	3445.27
446.21	3456.97
446.39	3421.86
446.58	3566.98
446.77	3496.76
446.95	3363.35
447.14	3501.44
447.32	3447.61
447.51	3489.74
447.69	3471.01
447.88	3386.76
448.06	3386.76
448.25	3454.63
448.43	3646.55
448.62	3599.74
448.80	3646.55
448.99	3576.34
449.17	3566.98
449.36	3515.48
449.54	3679.32
449.73	3702.73
449.91	3789.33
450.10	3796.35
450.28	3674.64
450.46	3794.01
450.65	3740.18
450.83	3698.05
451.02	3648.90
451.20	3833.80
451.39	3707.41
451.57	3824.44
451.76	3709.75
451.94	3908.69
452.13	3868.91
452.31	3950.82
452.49	3707.41
452.68	3684.00
452.86	3726.13
453.05	3758.90
453.23	3894.65
453.42	3840.82
453.60	3911.04
453.78	3868.91
453.97	3819.75
454.15	4028.06
454.34	3971.89
454.52	4058.49
454.70	4002.32
454.89	4030.40
455.07	4070.19
455.26	4152.11
455.44	4065.51
455.62	4002.32
455.81	3978.91
455.99	4191.90
456.17	4105.30
456.36	4077.21
456.54	4301.90
456.73	4297.22
456.91	4411.91
457.09	4273.82
457.28	4498.51
457.46	4203.60
457.64	4365.10
457.83	4245.73
458.01	4128.70
458.19	4304.25
458.38	4416.59
458.56	4444.68
458.74	4271.48
458.93	4437.66
459.11	4421.27
459.29	4369.78
459.48	4561.70
459.66	4425.95
459.84	4533.62
460.03	4526.60
460.21	4493.83
460.39	4550.00
460.57	4486.81
460.76	4507.87
460.94	4547.66
461.12	4430.63
461.31	4620.22
461.49	4542.98
461.67	4636.60
461.85	4582.77
462.04	4718.52
462.22	4791.08
462.40	4678.73
462.59	4678.73
462.77	4709.16
462.95	4854.27
463.13	4784.06
463.32	4781.71
463.50	4784.06
463.68	4880.02
463.86	4842.57
464.05	4971.30
464.23	4821.50
464.41	4828.53
464.59	4805.12
464.78	4973.64
464.96	4940.87
465.14	4868.31
465.32	5050.88
465.50	5102.37
465.69	4849.59
465.87	4966.62
466.05	5043.85
466.23	4896.40
466.41	5083.64
466.60	5151.52
466.78	4873.00
466.96	5125.77
467.14	5046.20
467.32	4945.55
467.51	5146.84
467.69	4975.98
467.87	5181.95
468.05	5060.24
468.23	5053.22
468.41	5135.14
468.60	5233.44
468.78	5128.11
468.96	5174.92
469.14	5308.34
469.32	5095.35
469.50	5125.77
469.69	5359.83
469.87	5420.68
470.05	5357.49
470.23	5462.81
470.41	5451.11
470.59	5394.93
470.77	5371.53
470.95	5327.06
471.14	5591.54
471.32	5338.76
471.50	5526.00
471.68	5720.27
471.86	5425.36
472.04	5652.39
472.22	5689.84
472.40	5624.31
472.58	5753.04
472.77	5682.82
472.95	5860.70
473.13	6085.39
473.31	5771.76
473.49	5921.56
473.67	5802.19
473.85	5846.66
474.03	5820.91
474.21	6059.65
474.39	6045.60
474.57	6071.35
474.75	6073.69
474.93	6265.61
475.12	6052.63
475.30	6289.02
475.48	6167.31
475.66	6427.11
475.84	6249.23
476.02	6237.53
476.20	6403.71
476.38	6190.72
476.56	6469.24
476.74	6443.49
476.92	6502.01
477.10	6548.82
477.28	6750.10
477.46	6677.55
477.64	6712.66
477.82	6827.34
478.00	7005.22
478.18	6815.64
478.36	6885.86
478.54	6984.16
478.72	6988.84
478.90	6923.30
479.08	7103.53
479.26	7162.04
479.44	7288.43
479.62	7314.17
479.80	7372.69
479.98	7536.52
480.16	7576.31
480.34	7489.71
480.52	7515.46
480.70	7733.13
480.88	7735.47
481.06	7859.52
481.24	7719.09
481.41	7698.02
481.59	8035.06
481.77	8077.19
481.95	7854.84
482.13	8182.51
482.31	7981.23
482.49	8161.45
482.67	8210.60
482.85	8280.82
483.03	8421.25
483.21	8603.81
483.39	8388.48
483.57	8542.96
483.74	8465.72
483.92	8769.99
484.10	8594.45
484.28	8943.19
484.46	9008.72
484.64	9067.24
484.82	8788.71
485.00	9057.87
485.18	9198.31
485.35	9261.50
485.53	9378.53
485.71	9481.51
485.89	9809.19
486.07	9678.12
486.25	9479.17
486.43	9589.17
486.61	9577.47
486.78	9811.53
486.96	10005.79
487.14	10029.20
487.32	10047.92
487.50	10099.41
487.68	9996.43
487.85	10303.04
488.03	10413.04
488.21	10513.69
488.39	10780.51
488.57	10899.87
488.75	10918.60
488.92	10909.24
489.10	10953.71
489.28	10902.22
489.46	10953.71
489.64	10998.18
489.81	11309.47
489.99	11323.51
490.17	11241.59
490.35	11573.95
490.53	11569.27
490.70	11606.72
490.88	11433.52
491.06	11749.49
491.24	11721.40
491.41	11824.39
491.59	11896.94
491.77	12067.80
491.95	12058.44
492.13	12224.62
492.30	12095.89
492.48	12046.74
492.66	12484.42
492.84	12547.61
493.01	12343.99
493.19	12493.78
493.37	12411.86
493.54	12641.23
493.72	12971.25
493.90	12964.23
494.08	13231.05
494.25	13048.49
494.43	13352.76
494.61	13406.59
494.79	13158.49
494.96	13167.85
495.14	13406.59
495.32	13432.33
495.49	13511.91
495.67	13708.52
495.85	13699.16
496.02	13682.77
496.20	14059.60
496.38	14059.60
496.55	13879.38
496.73	13982.36
496.91	14190.67
497.09	14181.31
497.26	14408.34
497.44	13907.46
497.62	13994.06
497.79	14480.89
497.97	14342.80
498.14	14684.52
498.32	14567.49
498.50	14820.27
498.67	14698.56
498.85	14892.83
499.03	14757.08
499.20	15033.26
499.38	15000.49
499.56	15007.52
499.73	15250.93
499.91	15426.47
500.08	15194.76
500.26	14916.23
500.44	15428.81
500.61	15726.06
500.79	15339.87
500.97	15599.67
501.14	15845.43
501.32	16044.37
501.49	15868.83
501.67	15744.78
501.84	16189.49
502.02	15562.22
502.20	16163.74
502.37	16077.14
502.55	16119.27
502.72	16025.65
502.90	16449.28
503.07	15889.90
503.25	16201.19
503.43	16198.85
503.60	16423.54
503.78	16468.01
503.95	16702.06
504.13	16681.00
504.30	16879.94
504.48	16872.92
504.65	16650.57
504.83	16950.16
505.01	16783.98
505.18	17139.74
505.36	16973.56
505.53	17006.33
505.71	17053.14
505.88	17242.73
506.06	17046.12
506.23	17504.87
506.41	17495.50
506.58	17282.52
506.76	17547.00
506.93	17235.70
507.11	17137.40
507.28	17481.46
507.46	17481.46
507.63	17649.98
507.81	17963.61
507.98	17837.22
508.16	17628.92
508.33	17699.13
508.50	18038.51
508.68	18120.43
508.85	18052.55
509.03	18249.16
509.20	18078.30
509.38	18394.27
509.55	18429.38
509.73	18352.14
509.90	18181.28
510.08	18136.81
510.25	17998.72
510.42	18487.89
510.60	18621.30
510.77	18511.30
510.95	18785.14
511.12	18782.80
511.30	18314.69
511.47	18799.18
511.64	18623.64
511.82	18991.11
511.99	18934.93
512.17	19007.49
512.34	19056.64
512.51	19143.24
512.69	19194.73
512.86	19370.27
513.04	19496.66
513.21	19325.80
513.38	19360.91
513.56	19529.43
513.73	19262.61
513.90	19571.56
514.08	19183.03
514.25	19803.27
514.43	19583.26
514.60	19707.31
514.77	19744.76
514.95	20191.80
515.12	19707.31
515.29	19702.63
515.47	20184.78
515.64	20088.82
515.81	19899.23
515.99	20013.92
516.16	20320.53
516.33	20357.98
516.51	20306.49
516.68	20435.22
516.85	20252.66
517.03	20285.42
517.20	20383.73
517.37	20365.00
517.54	20475.01
517.72	20793.32
517.89	20573.31
518.06	20386.07
518.24	20561.61
518.41	20407.13
518.58	20828.43
518.75	20957.16
518.93	21029.71
519.10	20919.71
519.27	21018.01
519.45	20940.77
519.62	20964.18
519.79	20999.29
519.96	21186.53
520.14	21268.45
520.31	21312.92
520.48	21532.93
520.65	21231.00
520.83	21507.18
521.00	21537.61
521.17	21226.32
521.34	21451.01
521.52	21399.52
521.69	21563.36
521.86	21898.05
522.03	21607.83
522.20	21766.98
522.38	21832.52
522.55	21649.96
522.72	21769.32
522.89	21802.09
523.07	22249.13
523.24	22089.98
523.41	22218.71
523.58	21867.63
523.75	22136.79
523.92	22010.40
524.10	22022.10
524.27	22272.54
524.44	22368.50
524.61	22780.43
524.78	22551.06
524.96	22576.81
525.13	22473.82
525.30	22382.54
525.47	22380.20
525.64	22443.40
525.81	22899.80
525.98	22838.95
526.16	22855.33
526.33	22808.52
526.50	23073.00
526.67	22719.58
526.84	22735.96
527.01	22918.53
527.18	22963.00
527.36	23005.13
527.53	23082.36
527.70	23250.88
527.87	23360.89
528.04	23147.90
528.21	23166.62
528.38	23211.09
528.55	23197.05
528.72	23197.05
528.89	23578.56
529.07	23157.26
529.24	23311.74
529.41	23672.18
529.58	23498.98
529.75	23309.40
529.92	23662.82
530.09	23690.90
530.26	23873.46
530.43	23917.93
530.60	23559.83
530.77	23578.56
530.94	23880.49
531.11	23515.36
531.28	23662.82
531.46	23981.13
531.63	24147.31
531.80	23929.64
531.97	24011.56
532.14	24077.09
532.31	24219.86
532.48	23983.47
532.65	24163.69
532.82	23824.31
532.99	24521.79
533.16	24034.96
533.33	24484.34
533.50	24587.33
533.67	24353.27
533.84	24240.93
534.01	24325.19
534.18	24020.92
534.35	24432.85
534.52	24402.43
534.69	24924.36
534.86	24816.70
535.03	24753.51
535.20	24830.74
535.37	24765.21
535.54	24793.29
535.71	24634.14
535.88	24634.14
536.05	24849.47
536.22	24819.04
536.38	25017.99
536.55	24872.87
536.72	24940.75
536.89	24863.51
537.06	24943.09
537.23	24959.47
537.40	25090.54
537.57	24872.87
537.74	25333.96
537.91	25348.00
538.08	25326.94
538.25	25111.61
538.42	25350.34
538.59	25364.39
538.75	25282.47
538.92	25425.24
539.09	25565.67
539.26	25544.61
539.43	25317.57
539.60	25490.77
539.77	25282.47
539.94	25979.95
540.11	25212.25
540.28	25511.84
540.44	25640.57
540.61	25446.30
540.78	25668.66
540.95	25378.43
541.12	25862.92
541.29	25624.18
541.46	25659.29
541.62	26118.04
541.79	26019.74
541.96	25518.86
542.13	25626.53
542.30	25715.47
542.47	26216.34
542.63	26293.58
542.80	26232.72
542.97	26045.48
543.14	26298.26
543.31	26422.31
543.48	26281.88
543.64	26476.14
543.81	26267.83
543.98	26581.46
544.15	26511.25
544.32	26235.06
544.48	26824.88
544.65	26513.59
544.82	26422.31
544.99	25986.97
545.16	26286.56
545.32	26525.29
545.49	26607.21
545.66	26965.31
545.83	27056.59
546.00	26857.65
546.16	26806.16
546.33	26759.34
546.50	26349.75
546.67	26874.03
546.83	26497.20
547.00	26810.84
547.17	26796.79
547.34	27012.12
547.50	26778.07
547.67	27246.18
547.84	27204.05
548.00	26927.86
548.17	27370.22
548.34	27220.43
548.51	27314.05
548.67	27049.57
548.84	27431.08
549.01	27292.99
549.18	27295.33
549.34	27037.87
549.51	27269.58
549.68	27365.54
549.84	27288.31
550.01	27424.06
550.18	27321.07
550.34	27529.38
550.51	27711.94
550.68	27601.94
550.84	27292.99
551.01	27613.64
551.18	27903.87
551.34	27260.22
551.51	27709.60
551.68	27608.96
551.84	27300.01
552.01	27875.78
552.18	27814.93
552.34	27536.40
552.51	27981.10
552.68	27662.79
552.84	27957.70
553.01	27901.53
553.18	27812.59
553.34	27997.49
553.51	28023.23
553.67	28006.85
553.84	28219.84
554.01	28313.46
554.17	28030.26
554.34	28149.62
554.51	28194.09
554.67	27754.07
554.84	28306.44
555.00	27906.21
555.17	28278.35
555.33	28142.60
555.50	28407.08
555.67	27864.08
555.83	28254.95
556.00	27683.86
556.16	28320.48
556.33	28011.53
556.50	27962.38
556.66	28723.05
556.83	28470.28
556.99	28662.20
557.16	28629.43
557.32	28507.72
557.49	28238.56
557.65	28376.66
557.82	28306.44
557.98	28074.73
558.15	28554.54
558.32	28606.03
558.48	28596.67
558.65	28563.90
558.81	28566.24
558.98	28177.71
559.14	28453.89
559.31	28456.23
559.47	28528.79
559.64	28903.28
559.80	28685.61
559.97	28957.11
560.13	28779.23
560.30	28786.25
560.46	28947.75
560.63	28634.11
560.79	28751.14
560.96	28900.94
561.12	28931.36
561.29	28624.75
561.45	28840.08
561.61	29088.18
561.78	28884.55
561.94	29020.30
562.11	29008.60
562.27	29001.58
562.44	28528.79
562.60	28779.23
562.77	28584.96
562.93	28926.68
563.10	29221.59
563.26	29048.39
563.42	29191.16
563.59	28924.34
563.75	29244.99
563.92	29376.06
564.08	29125.63
564.24	28751.14
564.41	29233.29
564.57	28964.13
564.74	29074.13
564.90	29422.87
565.07	28971.15
565.23	29006.26
565.39	29223.93
565.56	29284.78
565.72	29010.94
565.88	29226.27
566.05	29097.54
566.21	29097.54
566.38	29212.23
566.54	29188.82
566.70	29631.18
566.87	29635.86
567.03	29193.50
567.19	29605.44
567.36	29249.67
567.52	29287.12
567.68	29097.54
567.85	29598.41
568.01	29355.00
568.17	29092.86
568.34	29584.37
568.50	29404.15
568.66	29322.23
568.83	29572.67
568.99	29280.10
569.15	29481.39
569.32	29158.39
569.48	29006.26
569.64	29420.53
569.81	29509.47
569.97	29888.64
570.13	29764.59
570.30	29256.70
570.46	29462.66
570.62	29500.11
570.78	29443.94
570.95	29450.96
571.11	29277.76
571.27	29315.21
571.43	29390.11
571.60	29460.32
571.76	29387.77
571.92	29305.85
572.09	29703.74
572.25	29879.28
572.41	29270.74
572.57	29518.84
572.74	29872.26
572.90	29092.86
573.06	29439.26
573.22	29663.95
573.38	29326.91
573.55	29567.99
573.71	29860.55
573.87	29780.98
574.03	29577.35
574.20	29645.23
574.36	29277.76
574.52	29766.93
574.68	29766.93
574.84	29610.12
575.01	29670.97
575.17	29617.14
575.33	29694.38
575.49	29565.65
575.65	29970.56
575.82	30113.33
575.98	29762.25
576.14	29715.44
576.30	29851.19
576.46	29617.14
576.62	29647.57
576.79	29584.37
576.95	29516.50
577.11	30129.72
577.27	29846.51
577.43	30143.76
577.59	29715.44
577.75	29942.47
577.92	29565.65
578.08	29685.01
578.24	29773.95
578.40	29572.67
578.56	30099.29
578.72	29881.62
578.88	30122.69
579.04	30221.00
579.21	29930.77
579.37	29582.03
579.53	29769.27
579.69	29617.14
579.85	29532.88
580.01	29713.10
580.17	29380.74
580.33	29738.85
580.49	29670.97
580.65	29928.43
580.82	29553.94
580.98	30068.86
581.14	29729.48
581.30	29933.11
581.46	30000.99
581.62	29872.26
581.78	29841.83
581.94	29577.35
582.10	29895.66
582.26	29668.63
582.42	29577.35
582.58	30113.33
582.74	30087.59
582.90	29804.38
583.06	30162.48
583.22	30005.67
583.38	30033.75
583.54	30052.48
583.70	30054.82
583.86	29764.59
584.02	29673.31
584.18	30132.06
584.34	29839.49
584.50	29860.55
584.66	29816.08
584.82	29654.59
584.98	29975.24
585.14	29989.28
585.30	29912.05
585.46	29895.66
585.62	29858.21
585.78	30029.07
585.94	29656.93
586.10	30082.91
586.26	29963.54
586.42	30073.54
586.58	30188.23
586.74	30307.60
586.90	29649.91
587.06	30003.33
587.22	29610.12
587.38	29970.56
587.54	30333.34
587.70	30022.05
587.86	30223.34
588.02	30206.95
588.18	30150.78
588.34	30260.79
588.49	30197.59
588.65	30026.73
588.81	30075.88
588.97	30338.02
589.13	29827.79
589.29	30183.55
589.45	29539.90
589.61	29975.24
589.77	30251.42
589.93	30122.69
590.08	30625.91
590.24	30520.59
590.40	30408.24
590.56	30389.52
590.72	30391.86
590.88	29986.94
591.04	30099.29
591.20	30637.61
591.35	30518.25
591.51	30597.82
591.67	30684.42
591.83	30754.64
591.99	30445.69
592.15	30403.56
592.31	30298.23
592.46	30260.79
592.62	30361.43
592.78	30155.46
592.94	30431.65
593.10	30323.98
593.26	30403.56
593.41	30579.10
593.57	30471.43
593.73	30543.99
593.89	30120.35
594.05	30401.22
594.20	30113.33
594.36	30494.84
594.52	30155.46
594.68	30103.97
594.84	30218.66
594.99	30515.90
595.15	30141.42
595.31	30323.98
595.47	30419.94
595.62	30326.32
595.78	30539.31
595.94	30787.41
596.10	30459.73
596.25	29935.45
596.41	30260.79
596.57	30295.89
596.73	30445.69
596.88	30424.62
597.04	30340.36
597.20	30438.67
597.36	30885.71
597.51	30534.63
597.67	30522.93
597.83	30569.74
597.99	30600.16
598.14	30543.99
598.30	30703.15
598.46	30686.76
598.61	30670.38
598.77	30321.64
598.93	30352.07
599.09	30485.48
599.24	30738.26
599.40	30789.75
599.56	30684.42
599.71	30483.14
599.87	30731.23
600.03	30518.25
600.18	30415.26
600.34	30045.46
600.50	30424.62
600.65	30686.76
600.81	30693.79
600.97	30827.20
601.12	30820.17
601.28	30754.64
601.44	30618.89
601.59	30211.64
601.75	30403.56
601.91	30375.47
602.06	30665.70
602.22	30684.42
602.37	30181.21
602.53	30953.58
602.69	30600.16
602.84	30590.80
603.00	30649.32
603.16	30820.17
603.31	30724.21
603.47	30749.96
603.62	30515.90
603.78	30476.12
603.94	30639.95
604.09	30707.83
604.25	30171.85
604.40	30572.08
604.56	30686.76
604.71	30679.74
604.87	30359.09
605.03	30721.87
605.18	30565.06
605.34	30712.51
605.49	30529.95
605.65	30590.80
605.80	30125.04
605.96	30471.43
606.12	30223.34
606.27	30305.26
606.43	30363.77
606.58	30628.25
606.74	30459.73
606.89	30450.37
607.05	30579.10
607.20	30920.82
607.36	30501.86
607.51	30433.99
607.67	30103.97
607.82	30029.07
607.98	30338.02
608.13	30433.99
608.29	30359.09
608.44	30551.01
608.60	30555.69
608.75	30567.40
608.91	30881.03
609.06	30197.59
609.22	30499.52
609.37	30157.80
609.53	30223.34
609.68	30174.19
609.84	30632.93
609.99	30373.13
610.15	30176.53
610.30	29905.02
610.46	29984.60
610.61	30260.79
610.76	30167.16
610.92	30127.38
611.07	29972.90
611.23	30553.35
611.38	29975.24
611.54	30120.35
611.69	29947.15
611.84	29900.34
612.00	29802.04
612.15	30066.52
612.31	30099.29
612.46	30197.59
612.62	30508.88
612.77	29883.96
612.92	30419.94
613.08	30008.01
613.23	30408.24
613.39	29909.71
613.54	29818.42
613.69	29752.89
613.85	29914.39
614.00	30136.74
614.15	29661.61
614.31	29982.26
614.46	30256.11
614.62	29928.43
614.77	30167.16
614.92	29642.88
615.08	30073.54
615.23	29977.58
615.38	30265.47
615.54	29589.05
615.69	29472.03
615.84	29490.75
616.00	30047.80
616.15	29645.23
616.30	30050.14
616.46	29745.87
616.61	29687.36
616.76	29975.24
616.92	29806.72
617.07	29696.72
617.22	29500.11
617.37	29668.63
617.53	30075.88
617.68	29446.28
617.83	29518.84
617.99	29371.38
618.14	29418.19
618.29	29453.30
618.45	29865.24
618.60	29525.86
618.75	29516.50
618.90	29998.65
619.06	29560.97
619.21	29476.71
619.36	29844.17
619.51	29549.26
619.67	28985.19
619.82	29081.16
619.97	29268.40
620.12	29191.16
620.28	29551.60
620.43	29579.69
620.58	29717.78
620.73	29436.92
620.89	29567.99
621.04	29563.31
621.19	29820.77
621.34	29266.06
621.49	29556.28
621.65	28905.62
621.80	29191.16
621.95	29193.50
622.10	28987.53
622.25	29153.71
622.41	29067.11
622.56	29125.63
622.71	29130.31
622.86	28917.32
623.01	28650.50
623.16	29326.91
623.32	28989.88
623.47	28676.24
623.62	28966.47
623.77	29226.27
623.92	29003.92
624.07	28947.75
624.23	28797.95
624.38	28753.48
624.53	28900.94
624.68	28917.32
624.83	28858.81
624.98	29333.93
625.13	29001.58
625.29	28837.74
625.44	28748.80
625.59	28638.80
625.74	29165.42
625.89	28933.70
626.04	28367.29
626.19	28240.90
626.34	28311.12
626.49	28505.38
626.65	28772.21
626.80	28938.38
626.95	28549.85
627.10	28528.79
627.25	28507.72
627.40	28547.51
627.55	28554.54
627.70	28465.60
627.85	28257.29
628.00	28381.34
628.15	28428.15
628.30	28367.29
628.45	28311.12
628.60	28194.09
628.76	28971.15
628.91	28222.18
629.06	28285.37
629.21	28243.24
629.36	28519.43
629.51	28388.36
629.66	28493.68
629.81	28233.88
629.96	27976.42
630.11	27934.29
630.26	28161.33
630.41	28107.49
630.56	28379.00
630.71	28390.70
630.86	28383.68
631.01	28587.30
631.16	28407.08
631.31	27889.82
631.46	27978.76
631.61	27814.93
631.76	28233.88
631.91	28357.93
632.06	27978.76
632.21	27974.08
632.36	27950.68
632.51	27627.68
632.66	28067.70
632.81	27962.38
632.96	27517.68
633.10	27906.21
633.25	28126.22
633.40	28397.72
633.55	27929.61
633.70	27634.71
633.85	27456.82
634.00	27693.22
634.15	28016.21
634.30	27475.55
634.45	27873.44
634.60	27505.98
634.75	27702.58
634.90	28002.17
635.05	27489.59
635.19	27754.07
635.34	27840.67
635.49	27604.28
635.64	27730.67
635.79	28009.19
635.94	27768.12
636.09	27786.84
636.24	27590.24
636.39	27358.52
636.53	27377.25
636.68	27208.73
636.83	27826.63
636.98	27660.45
637.13	27604.28
637.28	27410.01
637.43	27826.63
637.57	27541.08
637.72	27676.83
637.87	27164.26
638.02	27353.84
638.17	27094.04
638.32	27264.90
638.46	26707.85
638.61	27410.01
638.76	26967.65
638.91	26925.52
639.06	26948.93
639.20	27555.13
639.35	27129.15
639.50	27110.43
639.65	27241.50
639.80	27302.35
639.94	26993.40
640.09	27007.44
640.24	27328.10
640.39	27168.94
640.54	27367.88
640.68	27037.87
640.83	27152.55
640.98	26689.13
641.13	26789.77
641.27	26979.36
641.42	26801.47
641.57	27042.55
641.72	27028.51
641.86	26675.09
642.01	26574.44
642.16	26630.62
642.31	26600.19
642.45	26981.70
642.60	26735.94
642.75	26948.93
642.90	26668.06
643.04	26527.63
643.19	26518.27
643.34	26733.60
643.48	26513.59
643.63	26562.74
643.78	26492.52
643.93	27077.66
644.07	26876.37
644.22	26684.45
644.37	26426.99
644.51	26331.03
644.66	26459.76
644.81	26127.40
644.95	26775.73
645.10	26607.21
645.25	26485.50
645.39	26443.37
645.54	26705.51
645.69	26497.20
645.83	26497.20
645.98	26684.45
646.13	26749.98
646.27	26764.03
646.42	26300.60
646.57	26368.48
646.71	26635.30
646.86	26490.18
647.00	26099.31
647.15	26230.38
647.30	26050.16
647.44	26033.78
647.59	26183.57
647.74	26160.17
647.88	26412.95
648.03	26218.68
648.17	26668.06
648.32	26810.84
648.47	26192.94
648.61	25998.67
648.76	26328.69
648.90	26045.48
649.05	26518.27
649.20	26394.22
649.34	26092.29
649.49	25893.35
649.63	26029.10
649.78	25741.21
649.92	25685.04
650.07	26185.91
650.21	26190.59
650.36	26120.38
650.51	25586.74
650.65	26162.51
650.80	26199.96
650.94	26001.01
651.09	25741.21
651.23	25752.91
651.38	25551.63
651.52	25682.70
651.67	25701.42
651.81	25944.84
651.96	25586.74
652.10	25905.05
652.25	25673.34
652.39	25827.81
652.54	26291.24
652.68	25792.70
652.83	26094.63
652.97	26019.74
653.12	25984.63
653.26	25745.89
653.41	25715.47
653.55	25383.11
653.70	25558.65
653.84	25699.08
653.99	25624.18
654.13	25387.79
654.27	25352.68
654.42	25811.43
654.56	25553.97
654.71	25788.02
654.85	25556.31
655.00	25806.75
655.14	25378.43
655.29	25528.22
655.43	25275.45
655.57	25191.19
655.72	24940.75
655.86	25202.89
656.01	25090.54
656.15	25268.42
656.30	25198.21
656.44	25359.70
656.58	25247.36
656.73	24931.39
656.87	25207.57
657.01	25113.95
657.16	25287.15
657.30	25340.98
657.45	25230.98
657.59	25242.68
657.73	25268.42
657.88	25088.20
658.02	25146.72
658.16	24910.32
658.31	24718.40
658.45	24912.66
658.60	24599.03
658.74	25195.87
658.88	25252.04
659.03	24779.25
659.17	24767.55
659.31	24943.09
659.46	24837.76
659.60	24945.43
659.74	24863.51
659.89	24727.76
660.03	24507.75
660.17	24584.99
660.32	24648.18
660.46	24479.66
660.60	24807.34
660.74	24751.17
660.89	24311.14
661.03	24348.59
661.17	24308.80
661.32	24367.32
661.46	24444.56
661.60	24577.97
661.74	24346.25
661.89	24685.63
662.03	24250.29
662.17	24081.77
662.31	24486.68
662.46	24276.04
662.60	24140.29
662.74	23941.34
662.88	23749.42
663.03	23920.28
663.17	23931.98
663.31	23852.40
663.45	23779.84
663.60	23805.59
663.74	23737.71
663.88	23807.93
664.02	23782.18
664.17	24032.62
664.31	23749.42
664.45	23569.19
664.59	24002.19
664.73	23531.75
664.88	23758.78
665.02	23225.14
665.16	23662.82
665.30	23630.05
665.44	23627.71
665.59	23370.25
665.73	23398.34
665.87	23190.03
666.01	23414.72
666.15	23506.00
666.29	23138.54
666.44	23243.86
666.58	23049.60
666.72	23496.64
666.86	23300.03
667.00	23360.89
667.14	23171.30
667.28	23269.61
667.43	23147.90
667.57	23253.22
667.71	23096.41
667.85	23147.90
667.99	22668.09
668.13	22977.04
668.27	22874.06
668.41	23084.70
668.56	22890.44
668.70	22848.31
668.84	22750.01
668.98	22595.53
669.12	22691.49
669.26	22766.39
669.40	22712.56
669.54	22508.93
669.68	22574.47
669.82	22515.95
669.96	22111.04
670.10	22403.61
670.25	22457.44
670.39	22221.05
670.53	22501.91
670.67	22331.05
670.81	22246.79
670.95	22377.86
671.09	22071.25
671.23	22082.95
671.37	22127.42
671.51	22267.86
671.65	22370.84
671.79	22115.72
671.93	22029.12
672.07	22162.53
672.21	21916.78
672.35	21584.42
672.49	21874.65
672.63	22197.64
672.77	21476.76
672.91	21675.70
673.05	21451.01
673.19	21549.31
673.33	21593.78
673.47	21631.23
673.61	21408.88
673.75	21682.72
673.89	21460.37
674.03	21631.23
674.17	21561.02
674.31	21394.84
674.45	21305.90
674.59	21184.19
674.73	21551.65
674.87	21008.65
675.01	21015.67
675.15	20772.25
675.29	20966.52
675.43	21373.77
675.56	20950.14
675.70	21120.99
675.84	20879.92
675.98	20379.04
676.12	21149.08
676.26	20856.51
676.40	20821.41
676.54	20552.24
676.68	20676.29
676.82	20051.37
676.96	20570.97
677.10	20439.90
677.23	20039.67
677.37	19981.15
677.51	20063.07
677.65	20149.67
677.79	20161.37
677.93	19866.47
678.07	19922.64
678.21	19616.03
678.34	20154.35
678.48	19838.38
678.62	19901.58
678.76	19693.27
678.90	19618.37
679.04	19653.48
679.18	19506.02
679.31	19463.90
679.45	19489.64
679.59	19417.08
679.73	19290.70
679.87	19026.21
680.00	18834.29
680.14	18810.89
680.28	18991.11
680.42	19211.12
680.56	19140.90
680.70	18946.64
680.83	18930.25
680.97	18991.11
681.11	18883.44
681.25	18504.28
681.39	18663.43
681.52	18684.50
681.66	18532.36
681.80	18272.56
681.94	18342.78
682.07	18630.66
682.21	18618.96
682.35	18239.79
682.49	17965.95
682.62	18061.91
682.76	18202.35
682.90	18129.79
683.04	17963.61
683.17	18340.44
683.31	18104.04
683.45	18078.30
683.59	17996.38
683.72	18073.62
683.86	17689.77
684.00	17752.96
684.13	17755.30
684.27	17605.51
684.41	17621.89
684.55	17128.04
684.68	17266.13
684.82	17090.59
684.96	17303.58
685.09	17085.91
685.23	17022.72
685.37	17191.23
685.50	17408.90
685.64	17385.50
685.78	17263.79
685.91	17116.34
686.05	16992.29
686.19	16868.24
686.32	17083.57
686.46	16671.64
686.60	16563.97
686.73	16622.48
686.87	16407.16
687.01	16468.01
687.14	16400.13
687.28	16332.26
687.42	16283.11
687.55	16196.51
687.69	16266.72
687.82	16067.78
687.96	16273.74
688.10	15878.19
688.23	16245.66
688.37	16067.78
688.50	16095.86
688.64	15936.71
688.78	15962.45
688.91	15880.53
689.05	15433.49
689.18	15630.10
689.32	15204.12
689.46	15534.14
689.59	15428.81
689.73	15466.26
689.86	15234.55
690.00	15396.04
690.13	15049.64
690.27	15396.04
690.41	15084.75
690.54	15002.83
690.68	15115.18
690.81	15346.89
690.95	15066.03
691.08	15147.95
691.22	14904.53
691.35	14789.85
691.49	15082.41
691.62	14368.55
691.76	14642.39
691.89	14771.12
692.03	14438.76
692.16	14377.91
692.30	14118.11
692.43	14321.74
692.57	14190.67
692.70	14190.67
692.84	14279.61
692.97	14022.15
693.11	14083.00
693.24	14031.51
693.38	14335.78
693.51	14029.17
693.65	13879.38
693.78	13940.23
693.92	13937.89
694.05	14005.77
694.19	14003.43
694.32	13666.39
694.45	13724.90
694.59	13448.72
694.72	13336.37
694.86	13191.26
694.99	13095.30
695.13	13345.73
695.26	13233.39
695.39	13048.49
695.53	13352.76
695.66	13231.05
695.80	13004.02
695.93	13238.07
696.07	13036.78
696.20	13235.73
696.33	13097.64
696.47	12755.92
696.60	12779.32
696.73	12833.16
696.87	12638.89
697.00	12730.17
697.14	12610.81
697.27	12376.75
697.40	12519.53
697.54	12545.27
697.67	12365.05
697.80	12301.86
697.94	12135.68
698.07	11927.37
698.21	12023.33
698.34	12175.47
698.47	12067.80
698.61	12177.81
698.74	12159.08
698.87	11971.84
699.01	11992.90
699.14	11824.39
699.27	11690.98
699.40	11859.49
699.54	11969.50
699.67	11789.28
699.80	11592.67
699.94	11534.16
700.07	11580.97
700.20	11438.20
700.34	11356.28
700.47	11552.88
700.60	11286.06
700.73	11236.91
700.87	11122.23
701.00	10918.60
701.13	11049.67
701.26	11178.40
701.40	11206.48
701.53	11157.33
701.66	11082.44
701.79	10979.45
701.93	10808.59
702.06	11089.46
702.19	10726.68
702.32	10551.14
702.46	10286.65
702.59	10576.88
702.72	10607.31
702.85	10462.19
702.99	10363.89
703.12	10373.25
703.25	10352.19
703.38	9998.77
703.51	10314.74
703.65	10469.22
703.78	10272.61
703.91	10150.90
704.04	10209.42
704.17	10270.27
704.31	9996.43
704.44	9895.78
704.57	10066.64
704.70	9734.29
704.83	9598.54
704.96	9673.43
705.10	9628.96
705.23	9797.48
>>>>>End Processed Spectral Data<<<<<
