SpectraSuite Data File
++++++++++++++++++++++++++++++++++++
Date: Fri Oct 18 13:58:15 GMT-05:00 2013
User: bianchi
Dark Spectrum Present: No
Reference Spectrum Present: No
Number of Sampled Component Spectra: 1
Spectrometers: USB2+H05261
Integration Time (usec): 50000 (USB2+H05261)
Spectra Averaged: 1 (USB2+H05261)
Boxcar Smoothing: 0 (USB2+H05261)
Correct for Electrical Dark: No (USB2+H05261)
Strobe/Lamp Enabled: No (USB2+H05261)
Correct for Detector Non-linearity: No (USB2+H05261)
Correct for Stray Light: No (USB2+H05261)
Number of Pixels in Processed Spectrum: 2048
>>>>>Begin Processed Spectral Data<<<<<
365.73	0.00
365.92	0.00
366.12	0.00
366.32	0.00
366.52	0.00
366.72	0.00
366.91	0.00
367.11	0.00
367.31	0.00
367.51	0.00
367.70	0.00
367.90	0.00
368.10	0.00
368.30	0.00
368.49	0.00
368.69	0.00
368.89	0.00
369.09	0.00
369.28	0.00
369.48	0.00
369.68	0.00
369.87	0.00
370.07	0.00
370.27	0.00
370.47	0.00
370.66	0.00
370.86	56.17
371.06	117.03
371.25	135.75
371.45	117.03
371.65	67.88
371.84	119.37
372.04	180.22
372.24	149.79
372.44	133.41
372.63	177.88
372.83	248.10
373.03	203.63
373.22	203.63
373.42	290.23
373.62	220.01
373.81	234.05
374.01	252.78
374.21	248.10
374.40	266.82
374.60	325.33
374.79	205.97
374.99	257.46
375.19	290.23
375.38	280.86
375.58	227.03
375.78	238.73
375.97	257.46
376.17	266.82
376.37	259.80
376.56	238.73
376.76	264.48
376.95	262.14
377.15	276.18
377.35	238.73
377.54	212.99
377.74	217.67
377.93	297.25
378.13	290.23
378.33	255.12
378.52	280.86
378.72	285.55
378.91	245.76
379.11	175.54
379.31	283.20
379.50	304.27
379.70	299.59
379.89	290.23
380.09	229.37
380.28	301.93
380.48	217.67
380.68	269.16
380.87	266.82
381.07	287.89
381.26	304.27
381.46	327.68
381.65	351.08
381.85	276.18
382.04	299.59
382.24	351.08
382.43	322.99
382.63	294.91
382.83	341.72
383.02	313.63
383.22	444.70
383.41	358.10
383.61	374.49
383.80	383.85
384.00	411.93
384.19	311.29
384.39	395.55
384.58	273.84
384.78	325.33
384.97	353.42
385.17	402.57
385.36	346.40
385.56	360.44
385.75	479.81
385.95	458.74
386.14	407.25
386.34	388.53
386.53	379.17
386.72	414.27
386.92	482.15
387.11	397.89
387.31	528.96
387.50	404.91
387.70	353.42
387.89	379.17
388.09	372.15
388.28	381.51
388.48	421.30
388.67	456.40
388.86	444.70
389.06	465.77
389.25	489.17
389.45	566.41
389.64	402.57
389.84	505.56
390.03	465.77
390.22	496.19
390.42	437.68
390.61	449.38
390.81	531.30
391.00	540.66
391.19	561.73
391.39	500.87
391.58	414.27
391.78	545.34
391.97	458.74
392.16	475.13
392.36	517.26
392.55	512.58
392.75	554.71
392.94	510.24
393.13	559.39
393.33	535.98
393.52	475.13
393.71	552.37
393.91	470.45
394.10	552.37
394.29	533.64
394.49	512.58
394.68	540.66
394.88	610.88
395.07	573.43
395.26	557.05
395.46	564.07
395.65	641.31
395.84	587.47
396.04	585.13
396.23	636.63
396.42	627.26
396.62	669.39
396.81	671.73
397.00	528.96
397.19	643.65
397.39	671.73
397.58	671.73
397.77	706.84
397.97	589.82
398.16	727.91
398.35	699.82
398.55	760.67
398.74	732.59
398.93	671.73
399.12	730.25
399.32	627.26
399.51	727.91
399.70	765.36
399.90	664.71
400.09	664.71
400.28	821.53
400.47	678.76
400.67	802.80
400.86	791.10
401.05	734.93
401.24	746.63
401.44	805.14
401.63	844.93
401.82	858.98
402.01	779.40
402.21	732.59
402.40	833.23
402.59	866.00
402.78	709.18
402.97	770.04
403.17	767.70
403.36	882.38
403.55	903.45
403.74	896.43
403.93	840.25
404.13	882.38
404.32	812.17
404.51	894.08
404.70	898.77
404.89	924.51
405.09	1032.18
405.28	1041.54
405.47	926.85
405.66	1004.09
405.85	947.92
406.05	1081.33
406.24	947.92
406.43	945.58
406.62	980.68
406.81	1060.26
407.00	1081.33
407.20	1032.18
407.39	957.28
407.58	1008.77
407.77	1107.07
407.96	1062.60
408.15	1086.01
408.34	1022.81
408.54	1032.18
408.73	1057.92
408.92	1102.39
409.11	1193.67
409.30	1057.92
409.49	1219.42
409.68	1109.41
409.87	1210.06
410.07	1116.44
410.26	1053.24
410.45	1228.78
410.64	1165.59
410.83	1135.16
411.02	1186.65
411.21	1191.33
411.40	1268.57
411.59	1247.51
411.78	1254.53
411.98	1362.19
412.17	1289.64
412.36	1268.57
412.55	1205.38
412.74	1231.12
412.93	1376.24
413.12	1322.40
413.31	1486.24
413.50	1282.61
413.69	1329.42
413.88	1446.45
414.07	1392.62
414.26	1446.45
414.45	1317.72
414.64	1488.58
414.83	1444.11
415.02	1516.67
415.22	1474.54
415.41	1526.03
415.60	1504.96
415.79	1530.71
415.98	1664.12
416.17	1589.22
416.36	1607.95
416.55	1680.50
416.74	1547.09
416.93	1729.66
417.12	1610.29
417.31	1710.93
417.50	1715.61
417.69	1739.02
417.88	1626.67
418.07	1741.36
418.26	1643.06
418.45	1729.66
418.64	1774.13
418.83	1699.23
419.02	1806.89
419.21	1905.20
419.39	1748.38
419.58	1823.28
419.77	1750.72
419.96	1802.21
420.15	1858.39
420.34	1832.64
420.53	1746.04
420.72	1877.11
420.91	1762.42
421.10	1919.24
421.29	1928.60
421.48	1895.83
421.67	2001.16
421.86	1928.60
422.05	1940.30
422.24	1895.83
422.43	1952.01
422.61	2003.50
422.80	2066.69
422.99	1959.03
423.18	1991.80
423.37	1963.71
423.56	1963.71
423.75	2024.56
423.94	1954.35
424.13	1895.83
424.32	1893.49
424.50	2064.35
424.69	2113.50
424.88	2165.00
425.07	2080.74
425.26	1968.39
425.45	1987.11
425.64	2069.03
425.83	1968.39
426.01	2097.12
426.20	2099.46
426.39	2106.48
426.58	2036.27
426.77	2066.69
426.96	2047.97
427.15	2092.44
427.33	2066.69
427.52	2043.29
427.71	2157.97
427.90	2160.31
428.09	2239.89
428.28	2115.84
428.46	2172.02
428.65	2235.21
428.84	2263.30
429.03	2160.31
429.22	2202.44
429.40	2296.07
429.59	2111.16
429.78	2150.95
429.97	2090.10
430.16	2165.00
430.34	2305.43
430.53	2333.51
430.72	2326.49
430.91	2260.96
431.10	2256.28
431.28	2366.28
431.47	2413.09
431.66	2377.98
431.85	2471.61
432.03	2359.26
432.22	2427.14
432.41	2394.37
432.60	2459.90
432.79	2375.64
432.97	2473.95
433.16	2485.65
433.35	2413.09
433.54	2438.84
433.72	2546.50
433.91	2459.90
434.10	2558.21
434.28	2490.33
434.47	2553.52
434.66	2581.61
434.85	2581.61
435.03	2703.32
435.22	2548.84
435.41	2806.30
435.59	2548.84
435.78	2480.97
435.97	2647.15
436.16	2565.23
436.34	2616.72
436.53	2689.28
436.72	2752.47
436.90	2490.33
437.09	2820.35
437.28	2654.17
437.46	2754.81
437.65	2750.13
437.84	2850.77
438.02	2792.26
438.21	2792.26
438.40	2752.47
438.58	2951.42
438.77	2717.36
438.96	2958.44
439.14	2890.56
439.33	2911.63
439.52	2995.89
439.70	2904.60
439.89	2923.33
440.08	3047.38
440.26	3089.51
440.45	2974.82
440.63	3101.21
440.82	3131.64
441.01	2979.50
441.19	3009.93
441.38	3143.34
441.57	3155.04
441.75	3243.98
441.94	3269.73
442.12	3187.81
442.31	3293.13
442.50	3115.25
442.68	3389.10
442.87	3358.67
443.05	3269.73
443.24	3316.54
443.43	3283.77
443.61	3325.90
443.80	3421.86
443.98	3400.80
444.17	3251.00
444.35	3400.80
444.54	3304.84
444.73	3346.97
444.91	3353.99
445.10	3478.04
445.28	3449.95
445.47	3375.05
445.65	3398.46
445.84	3616.13
446.02	3524.85
446.21	3445.27
446.39	3452.29
446.58	3536.55
446.77	3431.23
446.95	3424.20
447.14	3538.89
447.32	3513.14
447.51	3559.95
447.69	3536.55
447.88	3356.33
448.06	3398.46
448.25	3414.84
448.43	3534.21
448.62	3358.67
448.80	3431.23
448.99	3463.99
449.17	3566.98
449.36	3529.53
449.54	3531.87
449.73	3637.19
449.91	3737.84
450.10	3625.49
450.28	3740.18
450.46	3665.28
450.65	3803.37
450.83	3758.90
451.02	3726.13
451.20	3873.59
451.39	3730.81
451.57	3669.96
451.76	3798.69
451.94	3714.43
452.13	3822.09
452.31	3733.15
452.49	3791.67
452.68	3936.78
452.86	3946.14
453.05	3875.93
453.23	3878.27
453.42	3864.22
453.60	3812.73
453.78	3882.95
453.97	3836.14
454.15	3857.20
454.34	3866.56
454.52	3995.29
454.70	3936.78
454.89	4002.32
455.07	4049.13
455.26	4025.72
455.44	4056.15
455.62	4114.66
455.81	4009.34
455.99	4037.42
456.17	4121.68
456.36	4009.34
456.54	4177.86
456.73	4248.07
456.91	4231.69
457.09	4273.82
457.28	4236.37
457.46	4156.79
457.64	4271.48
457.83	4383.82
458.01	4217.65
458.19	4346.37
458.38	4304.25
458.56	4280.84
458.74	4346.37
458.93	4444.68
459.11	4400.21
459.29	4271.48
459.48	4454.04
459.66	4489.15
459.84	4456.38
460.03	4580.43
460.21	4528.94
460.39	4472.76
460.57	4510.21
460.76	4608.51
460.94	4500.85
461.12	4400.21
461.31	4465.74
461.49	4379.14
461.67	4657.67
461.85	4559.36
462.04	4643.62
462.22	4870.65
462.40	4826.18
462.59	4812.14
462.77	4688.09
462.95	4814.48
463.13	4800.44
463.32	4760.65
463.50	4837.89
463.68	4847.25
463.86	4844.91
464.05	4725.54
464.23	4840.23
464.41	4830.87
464.59	4716.18
464.78	4917.47
464.96	4819.16
465.14	4779.37
465.32	5020.45
465.50	4947.89
465.69	5146.84
465.87	4828.53
466.05	4873.00
466.23	4936.19
466.41	5130.45
466.60	5259.18
466.78	5071.94
466.96	5074.28
467.14	4889.38
467.32	5048.54
467.51	4957.25
467.69	5006.41
467.87	5043.85
468.05	5184.29
468.23	5032.15
468.41	5233.44
468.60	5167.90
468.78	5170.24
468.96	4992.36
469.14	5200.67
469.32	5247.48
469.50	5240.46
469.69	5348.12
469.87	5413.66
470.05	5327.06
470.23	5341.10
470.41	5467.49
470.59	5455.79
470.77	5242.80
470.95	5472.17
471.14	5504.94
471.32	5329.40
471.50	5565.79
471.68	5666.44
471.86	5460.47
472.04	5537.71
472.22	5570.48
472.40	5696.86
472.58	5547.07
472.77	5811.55
472.95	5813.89
473.13	5867.72
473.31	5736.65
473.49	5710.91
473.67	5954.32
473.85	5870.06
474.03	5879.43
474.21	5916.87
474.39	6045.60
474.57	6097.10
474.75	6057.31
474.93	6181.35
475.12	5806.87
475.30	6094.76
475.48	6059.65
475.66	6321.79
475.84	6221.14
476.02	6195.40
476.20	6186.04
476.38	6408.39
476.56	6602.65
476.74	6518.39
476.92	6590.95
477.10	6516.05
477.28	6478.60
477.46	6473.92
477.64	6649.46
477.82	6806.28
478.00	6899.90
478.18	7007.56
478.36	6988.84
478.54	7009.90
478.72	6871.81
478.90	7110.55
479.08	7119.91
479.26	7197.15
479.44	7115.23
479.62	7307.15
479.80	7393.75
479.98	7248.64
480.16	7513.12
480.34	7510.78
480.52	7499.08
480.70	7566.95
480.88	7449.93
481.06	7368.01
481.24	7609.08
481.41	7838.45
481.59	7967.18
481.77	7941.44
481.95	8039.74
482.13	8021.02
482.31	8028.04
482.49	8311.24
482.67	8168.47
482.85	8301.88
483.03	8498.49
483.21	8571.04
483.39	8505.51
483.57	8552.32
483.74	8723.18
483.92	8613.17
484.10	8643.60
484.28	8784.03
484.46	9013.40
484.64	9210.01
484.82	8943.19
485.00	9062.55
485.18	9242.78
485.35	9373.85
485.53	9352.78
485.71	9448.74
485.89	9514.28
486.07	9511.94
486.25	9500.23
486.43	9589.17
486.61	9631.30
486.78	9914.51
486.96	9895.78
487.14	10181.33
487.32	10024.51
487.50	9856.00
487.68	10094.73
487.85	10399.00
488.03	10434.11
488.21	10389.64
488.39	10347.51
488.57	10712.63
488.75	10665.82
488.92	10836.68
489.10	10782.85
489.28	10871.79
489.46	11044.99
489.64	11089.46
489.81	11318.83
489.99	11035.63
490.17	11197.12
490.35	11602.04
490.53	11241.59
490.70	11763.53
490.88	11452.24
491.06	11541.18
491.24	11564.59
491.41	11655.87
491.59	11772.89
491.77	12058.44
491.95	12079.50
492.13	12147.38
492.30	12145.04
492.48	12063.12
492.66	12152.06
492.84	12231.64
493.01	12599.10
493.19	12620.17
493.37	12318.24
493.54	12760.60
493.72	12732.51
493.90	12762.94
494.08	13025.08
494.25	13078.91
494.43	13130.41
494.61	13259.13
494.79	13270.84
494.96	13118.70
495.14	13420.63
495.32	13371.48
495.49	13245.09
495.67	13521.27
495.85	13731.92
496.02	13612.56
496.20	13888.74
496.38	13762.35
496.55	13912.14
496.73	14181.31
496.91	13865.33
497.09	13877.04
497.26	13987.04
497.44	14094.71
497.62	14314.72
497.79	14476.21
497.97	14532.39
498.14	14436.42
498.32	14728.99
498.50	14644.73
498.67	14963.04
498.85	14862.40
499.03	14815.59
499.20	15012.20
499.38	14883.47
499.56	14974.75
499.73	15157.31
499.91	15171.35
500.08	15295.40
500.26	14899.85
500.44	15063.69
500.61	15337.53
500.79	15272.00
500.97	15435.83
501.14	15768.19
501.32	15873.51
501.49	15779.89
501.67	15707.34
501.84	15520.09
502.02	15634.78
502.20	15971.82
502.37	15978.84
502.55	16240.98
502.72	16006.92
502.90	16058.42
503.07	16140.33
503.25	16231.62
503.43	16032.67
503.60	16332.26
503.78	16381.41
503.95	16348.64
504.13	16332.26
504.30	16428.22
504.48	16423.54
504.65	16769.94
504.83	16807.39
505.01	16922.07
505.18	16891.65
505.36	16999.31
505.53	16865.90
505.71	16596.74
505.88	17163.15
506.06	16952.50
506.23	17137.40
506.41	17032.08
506.58	17177.19
506.76	17205.28
506.93	17380.82
507.11	17362.09
507.28	17245.07
507.46	17186.55
507.63	17598.49
507.81	17591.47
507.98	17767.01
508.16	17589.13
508.33	17944.89
508.50	17736.58
508.68	17731.90
508.85	17989.36
509.03	17994.04
509.20	18071.28
509.38	18267.88
509.55	18328.74
509.73	18183.62
509.90	18036.17
510.08	18197.67
510.25	18015.10
510.42	18176.60
510.60	18710.24
510.77	18551.09
510.95	18768.76
511.12	18665.77
511.30	18476.19
511.47	18384.91
511.64	18806.20
511.82	19035.58
511.99	18766.42
512.17	18948.98
512.34	18860.04
512.51	18988.77
512.69	18944.30
512.86	19145.58
513.04	19321.12
513.21	19377.30
513.38	19454.53
513.56	19047.28
513.73	19225.16
513.90	19274.31
514.08	19571.56
514.25	19562.20
514.43	19548.15
514.60	19351.55
514.77	19744.76
514.95	19824.34
515.12	19901.58
515.29	19590.28
515.47	19824.34
515.64	19929.66
515.81	19709.65
515.99	19950.73
516.16	19592.62
516.33	20203.50
516.51	20470.33
516.68	20112.22
516.85	20311.17
517.03	20020.94
517.20	20388.41
517.37	20563.95
517.54	20322.87
517.72	20795.66
517.89	20383.73
518.06	20884.60
518.24	20489.05
518.41	20692.68
518.58	20903.32
518.75	20280.74
518.93	20765.23
519.10	20496.07
519.27	20975.88
519.45	20737.15
519.62	20737.15
519.79	21039.08
519.96	21076.52
520.14	21245.04
520.31	20772.25
520.48	21057.80
520.65	20959.50
520.83	21216.96
521.00	21287.17
521.17	21451.01
521.34	21151.42
521.52	21434.63
521.69	21263.77
521.86	21825.50
522.03	21434.63
522.20	21465.05
522.38	21584.42
522.55	21713.15
522.72	21701.45
522.89	21778.68
523.07	22097.00
523.24	21633.57
523.41	21486.12
523.58	21687.40
523.75	22448.08
523.92	22087.64
524.10	21774.00
524.27	21977.63
524.44	22326.37
524.61	22104.02
524.78	22494.89
524.96	22230.41
525.13	22012.74
525.30	22431.69
525.47	22375.52
525.64	22623.62
525.81	22607.23
525.98	22522.98
526.16	22724.26
526.33	22581.49
526.50	22944.27
526.67	22452.76
526.84	22394.25
527.01	22609.58
527.18	22726.60
527.36	22792.14
527.53	22862.35
527.70	23175.98
527.87	22986.40
528.04	22890.44
528.21	23370.25
528.38	22993.42
528.55	22951.29
528.72	23073.00
528.89	23538.77
529.07	23321.10
529.24	23431.10
529.41	23557.49
529.58	23023.85
529.75	23262.58
529.92	23192.37
530.09	23330.46
530.26	23391.31
530.43	23461.53
530.60	23152.58
530.77	23491.96
530.94	23775.16
531.11	23597.28
531.28	23562.17
531.46	23695.58
531.63	23726.01
531.80	23866.44
531.97	23784.52
532.14	23817.29
532.31	23784.52
532.48	23814.95
532.65	24023.26
532.82	24020.92
532.99	23866.44
533.16	23718.99
533.33	24334.55
533.50	24343.91
533.67	24547.54
533.84	24025.60
534.01	23854.74
534.18	23915.59
534.35	24357.96
534.52	24051.34
534.69	24477.32
534.86	24393.06
535.03	24334.55
535.20	24425.83
535.37	24552.22
535.54	24510.09
535.71	24491.37
535.88	24336.89
536.05	24467.96
536.22	24678.61
536.38	25027.35
536.55	24673.93
536.72	24903.30
536.89	24514.77
537.06	24966.49
537.23	24940.75
537.40	24739.46
537.57	24666.91
537.74	24900.96
537.91	25081.18
538.08	25142.03
538.25	24917.34
538.42	24964.15
538.59	25102.25
538.75	24641.16
538.92	25214.59
539.09	25067.14
539.26	25546.95
539.43	25116.29
539.60	25359.70
539.77	25483.75
539.94	25465.03
540.11	25565.67
540.28	25476.73
540.44	25270.76
540.61	25062.46
540.78	25518.86
540.95	25434.60
541.12	25544.61
541.29	25476.73
541.46	25378.43
541.62	25392.47
541.79	25977.61
541.96	25308.21
542.13	25427.58
542.30	25846.54
542.47	25663.97
542.63	25816.11
542.80	25984.63
542.97	26031.44
543.14	26300.60
543.31	26316.98
543.48	26150.81
543.64	26120.38
543.81	26188.25
543.98	26551.04
544.15	26218.68
544.32	25881.64
544.48	26441.03
544.65	26279.54
544.82	26717.22
544.99	26052.50
545.16	26349.75
545.32	26302.94
545.49	26576.78
545.66	26698.49
545.83	26452.73
546.00	26553.38
546.16	26726.58
546.33	26281.88
546.50	26382.52
546.67	26834.24
546.83	26497.20
547.00	26785.09
547.17	26691.47
547.34	26799.13
547.50	26883.39
547.67	26948.93
547.84	26499.55
548.00	27138.51
548.17	26637.64
548.34	26742.96
548.51	27192.34
548.67	27220.43
548.84	26979.36
549.01	27218.09
549.18	26969.99
549.34	27239.15
549.51	27087.02
549.68	26911.48
549.84	26841.26
550.01	27026.17
550.18	27255.54
550.34	27215.75
550.51	27178.30
550.68	27194.68
550.84	27178.30
551.01	27365.54
551.18	26878.71
551.34	27253.20
551.51	26874.03
551.68	27054.25
551.84	27180.64
552.01	27016.80
552.18	27431.08
552.34	27534.06
552.51	27763.43
552.68	27435.76
552.84	27763.43
553.01	27363.20
553.18	27784.50
553.34	27894.50
553.51	27634.71
553.67	27772.80
553.84	28198.77
554.01	27946.00
554.17	27585.55
554.34	28006.85
554.51	27580.87
554.67	27700.24
554.84	27938.97
555.00	28144.94
555.17	28041.96
555.33	27817.27
555.50	27503.64
555.67	27789.18
555.83	27821.95
556.00	28196.43
556.16	28299.42
556.33	27871.10
556.50	28226.86
556.66	28222.18
556.83	28048.98
556.99	28156.64
557.16	28217.50
557.32	28301.76
557.49	28673.90
557.65	28130.90
557.82	28189.41
557.98	28065.36
558.15	28126.22
558.32	28409.42
558.48	28044.30
558.65	28107.49
558.81	28332.18
558.98	28510.07
559.14	28517.09
559.31	28496.02
559.47	28107.49
559.64	28006.85
559.80	28432.83
559.97	28217.50
560.13	28575.60
560.30	28622.41
560.46	28893.91
560.63	28655.18
560.79	28840.08
560.96	28400.06
561.12	28486.66
561.29	28739.44
561.45	28804.97
561.61	28973.49
561.78	28533.47
561.94	28381.34
562.11	28762.84
562.27	28601.35
562.44	28751.14
562.60	28425.81
562.77	28751.14
562.93	28311.12
563.10	28704.33
563.26	28444.53
563.42	28994.56
563.59	28774.55
563.75	28814.34
563.92	28924.34
564.08	28535.81
564.24	28570.92
564.41	28795.61
564.57	28486.66
564.74	29029.66
564.90	28891.57
565.07	29158.39
565.23	29326.91
565.39	29020.30
565.56	28922.00
565.72	28823.70
565.88	28739.44
566.05	28975.83
566.21	29097.54
566.38	28765.18
566.54	28566.24
566.70	29270.74
566.87	29064.77
567.03	29020.30
567.19	28954.77
567.36	28711.35
567.52	28898.59
567.68	29214.57
567.85	28790.93
568.01	29092.86
568.17	28982.85
568.34	29397.13
568.50	29364.36
568.66	29401.81
568.83	29312.87
568.99	29048.39
569.15	29081.16
569.32	29186.48
569.48	29146.69
569.64	29570.33
569.81	29319.89
569.97	29219.25
570.13	29542.24
570.30	29156.05
570.46	29095.20
570.62	29032.00
570.78	29427.56
570.95	29099.88
571.11	28968.81
571.27	29116.26
571.43	29069.45
571.60	29436.92
571.76	29223.93
571.92	29352.66
572.09	29186.48
572.25	29064.77
572.41	29645.23
572.57	29142.01
572.74	29799.70
572.90	29317.55
573.06	29170.10
573.22	29226.27
573.38	29214.57
573.55	29422.87
573.71	29303.51
573.87	29479.05
574.03	29350.32
574.20	29294.14
574.36	29275.42
574.52	29680.33
574.68	29455.64
574.84	29310.53
575.01	29212.23
575.17	29373.72
575.33	29233.29
575.49	29467.34
575.65	29631.18
575.82	29682.67
575.98	29172.44
576.14	30050.14
576.30	29572.67
576.46	29535.22
576.62	29160.73
576.79	29731.83
576.95	29228.61
577.11	29720.12
577.27	29551.60
577.43	29481.39
577.59	29572.67
577.75	29603.10
577.92	29495.43
578.08	29556.28
578.24	29352.66
578.40	29525.86
578.56	29582.03
578.72	29392.45
578.88	29811.40
579.04	29579.69
579.21	29535.22
579.37	29706.08
579.53	29600.76
579.69	29336.27
579.85	29376.06
580.01	29364.36
580.17	29355.00
580.33	29563.31
580.49	29839.49
580.65	29755.23
580.82	29757.57
580.98	29589.05
581.14	29827.79
581.30	29778.64
581.46	29125.63
581.62	29500.11
581.78	29186.48
581.94	29275.42
582.10	29792.68
582.26	29390.11
582.42	29504.79
582.58	29809.06
582.74	29677.99
582.90	29567.99
583.06	29834.81
583.22	29745.87
583.38	29390.11
583.54	29603.10
583.70	29797.36
583.86	29488.41
584.02	29720.12
584.18	29706.08
584.34	29806.72
584.50	30206.95
584.66	29647.57
584.82	29544.58
584.98	29603.10
585.14	29462.66
585.30	29383.09
585.46	29457.98
585.62	29525.86
585.78	29544.58
585.94	29509.47
586.10	29661.61
586.26	29362.02
586.42	29685.01
586.58	29713.10
586.74	29649.91
586.90	29579.69
587.06	29612.46
587.22	29640.54
587.38	29518.84
587.54	30539.31
587.70	29921.41
587.86	29902.68
588.02	30026.73
588.18	29656.93
588.34	29961.20
588.49	29937.79
588.65	29731.83
588.81	29965.88
588.97	29722.46
589.13	29607.78
589.29	29694.38
589.45	29851.19
589.61	29743.53
589.77	30085.25
589.93	30143.76
590.08	30160.14
590.24	30162.48
590.40	30309.94
590.56	30171.85
590.72	29961.20
590.88	29832.47
591.04	29970.56
591.20	30562.72
591.35	30300.58
591.51	30242.06
591.67	30068.86
591.83	30235.04
591.99	30338.02
592.15	30087.59
592.31	30078.22
592.46	30061.84
592.62	29909.71
592.78	30045.46
592.94	29905.02
593.10	30092.27
593.26	29968.22
593.41	30562.72
593.57	29853.53
593.73	29972.90
593.89	30099.29
594.05	30000.99
594.20	30190.57
594.36	30087.59
594.52	29998.65
594.68	30033.75
594.84	29977.58
594.99	30183.55
595.15	29984.60
595.31	30654.00
595.47	30129.72
595.62	30281.85
595.78	30391.86
595.94	29771.61
596.10	30300.58
596.25	29916.73
596.41	30183.55
596.57	29677.99
596.73	30061.84
596.88	29802.04
597.04	30139.08
597.20	30391.86
597.36	30345.05
597.51	30396.54
597.67	29984.60
597.83	30162.48
597.99	30558.03
598.14	30232.70
598.30	30204.61
598.46	30038.44
598.61	30136.74
598.77	29820.77
598.93	30108.65
599.09	30129.72
599.24	30221.00
599.40	30457.39
599.56	30188.23
599.71	30213.98
599.87	30600.16
600.03	30274.83
600.18	30183.55
600.34	30536.97
600.50	30195.25
600.65	30274.83
600.81	30536.97
600.97	30323.98
601.12	30235.04
601.28	30574.42
601.44	30623.57
601.59	30319.30
601.75	30401.22
601.91	30485.48
602.06	30036.09
602.22	30398.88
602.37	30129.72
602.53	30169.51
602.69	30448.03
602.84	30532.29
603.00	30232.70
603.16	30366.11
603.31	30113.33
603.47	30448.03
603.62	29996.31
603.78	30092.27
603.94	30373.13
604.09	30431.65
604.25	30202.27
604.40	30209.29
604.56	30251.42
604.71	30389.52
604.87	30546.33
605.03	30347.39
605.18	30183.55
605.34	30286.53
605.49	30019.71
605.65	29928.43
605.80	29879.28
605.96	30050.14
606.12	30045.46
606.27	30501.86
606.43	29750.55
606.58	30134.40
606.74	30635.27
606.89	30331.00
607.05	29993.97
607.20	30015.03
607.36	30047.80
607.51	30284.19
607.67	30082.91
607.82	30022.05
607.98	30338.02
608.13	30221.00
608.29	30190.57
608.44	29720.12
608.60	30436.33
608.75	30171.85
608.91	30326.32
609.06	29998.65
609.22	30118.01
609.37	29586.71
609.53	30050.14
609.68	29579.69
609.84	29996.31
609.99	30089.93
610.15	30288.87
610.30	29598.41
610.46	30120.35
610.61	30033.75
610.76	30026.73
610.92	29989.28
611.07	30157.80
611.23	29610.12
611.38	29696.72
611.54	29624.16
611.69	29741.19
611.84	29738.85
612.00	29998.65
612.15	29905.02
612.31	30003.33
612.46	29717.78
612.62	29893.32
612.77	30132.06
612.92	30293.55
613.08	29741.19
613.23	29701.40
613.39	29937.79
613.54	29701.40
613.69	29191.16
613.85	29685.01
614.00	29975.24
614.15	29783.32
614.31	29598.41
614.46	29879.28
614.62	29795.02
614.77	29736.51
614.92	29902.68
615.08	29708.42
615.23	30033.75
615.38	29523.52
615.54	29535.22
615.69	29507.13
615.84	29177.12
616.00	29771.61
616.15	29570.33
616.30	29806.72
616.46	29914.39
616.61	29469.69
616.76	29846.51
616.92	29549.26
617.07	29652.25
617.22	29319.89
617.37	29050.73
617.53	29549.26
617.68	29228.61
617.83	29385.43
617.99	29378.40
618.14	29333.93
618.29	29383.09
618.45	29418.19
618.60	29474.37
618.75	29347.98
618.90	29312.87
619.06	29455.64
619.21	29170.10
619.36	29249.67
619.51	28762.84
619.67	28884.55
619.82	29069.45
619.97	29422.87
620.12	29062.43
620.28	28650.50
620.43	29392.45
620.58	29191.16
620.73	28982.85
620.89	29287.12
621.04	29317.55
621.19	29200.52
621.34	29319.89
621.49	28879.87
621.65	28772.21
621.80	29188.82
621.95	28819.02
622.10	29153.71
622.25	28613.05
622.41	28884.55
622.56	28891.57
622.71	29111.58
622.86	29001.58
623.01	29032.00
623.16	28580.28
623.32	28802.63
623.47	28844.76
623.62	28802.63
623.77	28535.81
623.92	28835.40
624.07	28458.57
624.23	28912.64
624.38	29053.07
624.53	28355.59
624.68	29137.33
624.83	28943.06
624.98	28568.58
625.13	28716.03
625.29	28788.59
625.44	28835.40
625.59	28467.94
625.74	28168.35
625.89	28147.28
626.04	28315.80
626.19	28566.24
626.34	28547.51
626.49	28212.82
626.65	28273.67
626.80	28439.85
626.95	28734.76
627.10	28599.01
627.25	28381.34
627.40	28198.77
627.55	28084.09
627.70	28142.60
627.85	28201.11
628.00	28119.20
628.15	28077.07
628.30	27913.23
628.45	28402.40
628.60	28170.69
628.76	27906.21
628.91	28362.61
629.06	28210.48
629.21	27850.03
629.36	28510.07
629.51	28002.17
629.66	27992.81
629.81	27997.49
629.96	28109.83
630.11	27543.42
630.26	28039.62
630.41	28184.73
630.56	27887.48
630.71	27798.54
630.86	27950.68
631.01	28168.35
631.16	28044.30
631.31	28006.85
631.46	27964.72
631.61	27843.01
631.76	27819.61
631.91	27733.01
632.06	27824.29
632.21	27613.64
632.36	27833.65
632.51	27365.54
632.66	27826.63
632.81	27688.54
632.96	27917.91
633.10	27850.03
633.25	27784.50
633.40	28166.01
633.55	27683.86
633.70	27314.05
633.85	27314.05
634.00	27487.25
634.15	27325.75
634.30	27522.36
634.45	27566.83
634.60	27042.55
634.75	27576.19
634.90	27534.06
635.05	27747.05
635.19	27604.28
635.34	27835.99
635.49	27529.38
635.64	27491.93
635.79	27721.30
635.94	26899.78
636.09	27316.39
636.24	27304.69
636.39	27220.43
636.53	27407.67
636.68	27302.35
636.83	27143.19
636.98	27431.08
637.13	26969.99
637.28	27545.76
637.43	27211.07
637.57	27225.11
637.72	27044.89
637.87	27054.25
638.02	26920.84
638.17	27192.34
638.32	27080.00
638.46	27030.85
638.61	26651.68
638.76	26740.62
638.91	26850.63
639.06	26759.34
639.20	26937.23
639.35	27185.32
639.50	27087.02
639.65	27171.28
639.80	26850.63
639.94	26941.91
640.09	27524.70
640.24	26988.72
640.39	26827.22
640.54	26600.19
640.68	26906.80
640.83	26693.81
640.98	26490.18
641.13	26803.82
641.27	26764.03
641.42	26658.70
641.57	26794.45
641.72	26923.18
641.86	26852.97
642.01	26932.54
642.16	26670.40
642.31	26373.16
642.45	26644.66
642.60	26148.46
642.75	26249.11
642.90	26331.03
643.04	26593.17
643.19	26312.30
643.34	26544.02
643.48	26483.16
643.63	26499.55
643.78	26590.83
643.93	26553.38
644.07	26735.94
644.22	26618.91
644.37	26298.26
644.51	26600.19
644.66	26228.04
644.81	26340.39
644.95	26270.17
645.10	26061.87
645.25	26340.39
645.39	26319.32
645.54	25998.67
645.69	26312.30
645.83	26288.90
645.98	26415.29
646.13	25977.61
646.27	26108.68
646.42	26485.50
646.57	26146.12
646.71	26148.46
646.86	26214.00
647.00	26267.83
647.15	26111.02
647.30	25862.92
647.44	26073.57
647.59	26174.21
647.74	26047.82
647.88	25996.33
648.03	25729.51
648.17	26033.78
648.32	26113.36
648.47	26026.76
648.61	25881.64
648.76	26181.23
648.90	25942.50
649.05	26033.78
649.20	25776.32
649.34	25832.49
649.49	25773.98
649.63	25640.57
649.78	25647.59
649.92	25532.90
650.07	25804.41
650.21	25944.84
650.36	25460.35
650.51	25642.91
650.65	25820.79
650.80	25968.24
650.94	25523.54
651.09	25631.21
651.23	25120.97
651.38	25619.50
651.52	25792.70
651.67	25514.18
651.81	25621.84
651.96	25479.07
652.10	25579.71
652.25	25579.71
652.39	25802.07
652.54	25710.78
652.68	25713.13
652.83	25806.75
652.97	25642.91
653.12	26029.10
653.26	25291.83
653.41	25406.52
653.55	25259.06
653.70	25083.52
653.84	25298.85
653.99	25252.04
654.13	25296.51
654.27	25123.31
654.42	25205.23
654.56	25233.32
654.71	25013.31
654.85	25376.09
655.00	25191.19
655.14	25376.09
655.29	25298.85
655.43	25364.39
655.57	25553.97
655.72	25324.60
655.86	25177.14
656.01	25226.29
656.15	25296.51
656.30	25010.96
656.44	24842.45
656.58	24538.18
656.73	24730.10
656.87	25008.62
657.01	24891.60
657.16	25163.10
657.30	25153.74
657.45	25067.14
657.59	25104.59
657.73	24779.25
657.88	24954.79
658.02	24676.27
658.16	24842.45
658.31	25006.28
658.45	24631.80
658.60	24514.77
658.74	24802.66
658.88	24739.46
659.03	24430.51
659.17	24367.32
659.31	24486.68
659.46	24870.53
659.60	24802.66
659.74	24943.09
659.89	24205.82
660.03	24381.36
660.17	24716.06
660.32	24343.91
660.46	24402.43
660.60	24093.47
660.74	24063.05
660.89	24395.40
661.03	23920.28
661.17	24151.99
661.32	24212.84
661.46	24013.90
661.60	24128.58
661.74	24315.83
661.89	24231.57
662.03	24411.79
662.17	24575.62
662.31	23850.06
662.46	24203.48
662.60	23964.75
662.74	23744.73
662.88	23655.79
663.03	23810.27
663.17	23716.65
663.31	23660.48
663.45	23690.90
663.60	23489.62
663.74	23728.35
663.88	23758.78
664.02	23723.67
664.17	23988.15
664.31	23620.69
664.45	23578.56
664.59	23508.34
664.73	23744.73
664.88	23154.92
665.02	23136.20
665.16	23220.45
665.30	23112.79
665.44	23115.13
665.59	22916.19
665.73	23470.89
665.87	22939.59
666.01	23033.21
666.15	23276.63
666.29	23421.74
666.44	23012.15
666.58	22869.37
666.72	23047.26
666.86	23267.27
667.00	23166.62
667.14	23033.21
667.28	22761.71
667.43	22972.36
667.57	22803.84
667.71	22923.21
667.85	22771.07
667.99	22827.24
668.13	22710.22
668.27	22637.66
668.41	22525.32
668.56	22424.67
668.70	22651.70
668.84	22249.13
668.98	22717.24
669.12	23005.13
669.26	22527.66
669.40	22431.69
669.54	22391.91
669.68	22530.00
669.82	22270.20
669.96	22286.58
670.10	22115.72
670.25	22445.74
670.39	22164.87
670.53	21862.94
670.67	22101.68
670.81	22274.88
670.95	22061.89
671.09	22202.32
671.23	22134.45
671.37	22216.36
671.51	21930.82
671.65	22057.21
671.79	21862.94
671.93	21731.87
672.07	21961.25
672.21	21743.58
672.35	21635.91
672.49	21771.66
672.63	21284.83
672.77	21490.80
672.91	21628.89
673.05	21476.76
673.19	21687.40
673.33	21689.74
673.47	21252.06
673.61	21282.49
673.75	21231.00
673.89	21413.56
674.03	21179.51
674.17	21305.90
674.31	21055.46
674.45	20982.90
674.59	21179.51
674.73	20987.58
674.87	20903.32
675.01	20936.09
675.15	20781.62
675.29	20692.68
675.43	20812.04
675.56	20547.56
675.70	20755.87
675.84	20971.20
675.98	20236.27
676.12	20680.97
676.26	20702.04
676.40	20430.54
676.54	20460.96
676.68	20250.32
676.82	20067.75
676.96	19829.02
677.10	20308.83
677.23	20006.90
677.37	19873.49
677.51	19896.89
677.65	19822.00
677.79	19840.72
677.93	19564.54
678.07	19740.08
678.21	19644.12
678.34	19503.68
678.48	19669.86
678.62	19398.36
678.76	19686.25
678.90	19295.38
679.04	19325.80
679.18	19353.89
679.31	19056.64
679.45	19002.81
679.59	19129.20
679.73	19075.37
679.87	18560.45
680.00	18885.78
680.14	18885.78
680.28	18738.33
680.42	18995.79
680.56	18902.17
680.70	18747.69
680.83	18761.73
680.97	18616.62
681.11	18771.10
681.25	18602.58
681.39	18417.68
681.52	18616.62
681.66	18207.03
681.80	18228.09
681.94	18200.01
682.07	18270.22
682.21	18087.66
682.35	18099.36
682.49	18036.17
682.62	17968.29
682.76	17825.52
682.90	17673.39
683.04	17823.18
683.17	18200.01
683.31	17774.03
683.45	17867.65
683.59	17261.45
683.72	17472.10
683.86	17642.96
684.00	17415.93
684.13	17706.15
684.27	17123.36
684.41	17343.37
684.55	16982.93
684.68	16980.59
684.82	16933.78
684.96	16964.20
685.09	16950.16
685.23	16709.08
685.37	16973.56
685.50	16898.67
685.64	17144.42
685.78	16954.84
685.91	16919.73
686.05	16989.95
686.19	16774.62
686.32	16730.15
686.46	16524.18
686.60	16353.32
686.73	16470.35
686.87	16381.41
687.01	16133.31
687.14	16292.47
687.28	16154.38
687.42	16189.49
687.55	16020.97
687.69	16044.37
687.82	16079.48
687.96	15861.81
688.10	15892.24
688.23	16203.53
688.37	15946.07
688.50	15868.83
688.64	15925.00
688.78	15782.23
688.91	15716.70
689.05	15470.94
689.18	15674.57
689.32	14984.11
689.46	14984.11
689.59	15225.18
689.73	15309.44
689.86	15267.31
690.00	15084.75
690.13	15138.58
690.27	15019.22
690.41	15342.21
690.54	15302.42
690.68	14782.82
690.81	14944.32
690.95	14862.40
691.08	14796.87
691.22	15005.17
691.35	15068.37
691.49	14663.46
691.62	14656.43
691.76	14555.79
691.89	14403.66
692.03	14146.20
692.16	14246.84
692.30	14066.62
692.43	14148.54
692.57	14171.94
692.70	13813.84
692.84	13930.87
692.97	14171.94
693.11	14427.06
693.24	13954.27
693.38	13928.53
693.51	14155.56
693.65	13769.37
693.78	13673.41
693.92	13554.04
694.05	13586.81
694.19	13790.44
694.32	13558.72
694.45	13572.77
694.59	13259.13
694.72	13425.31
694.86	13479.15
694.99	13195.94
695.13	13167.85
695.26	13078.91
695.39	13099.98
695.53	13050.83
695.66	13160.83
695.80	13149.13
695.93	12872.95
696.07	13011.04
696.20	12840.18
696.33	12950.18
696.47	12854.22
696.60	12645.91
696.73	12709.11
696.87	12542.93
697.00	12365.05
697.14	12439.95
697.27	12168.45
697.40	12292.49
697.54	12311.22
697.67	12236.32
697.80	11922.69
697.94	12156.74
698.07	12025.67
698.21	12128.66
698.34	11953.12
698.47	11941.41
698.61	11971.84
698.74	11906.31
698.87	11910.99
699.01	11637.14
699.14	11695.66
699.27	11985.88
699.40	11763.53
699.54	11836.09
699.67	11552.88
699.80	11274.36
699.94	11176.06
700.07	11477.99
700.20	11218.19
700.34	11321.17
700.47	11194.78
700.60	11344.58
700.73	11019.24
700.87	11080.10
701.00	10946.69
701.13	10939.66
701.26	11016.90
701.40	11044.99
701.53	11037.97
701.66	10836.68
701.79	10960.73
701.93	10731.36
702.06	10771.15
702.19	10551.14
702.32	10436.45
702.46	10207.08
702.59	10228.14
702.72	10391.98
702.85	10216.44
702.99	10347.51
703.12	10207.08
703.25	10230.48
703.38	10237.50
703.51	10403.68
703.65	10305.38
703.78	9804.50
703.91	9977.70
704.04	10244.52
704.17	10202.40
704.31	10225.80
704.44	9947.28
704.57	9923.87
704.70	9647.69
704.83	9626.62
704.96	9521.30
705.10	9626.62
705.23	9486.19
>>>>>End Processed Spectral Data<<<<<
