SpectraSuite Data File
++++++++++++++++++++++++++++++++++++
Date: Fri Oct 18 13:58:35 GMT-05:00 2013
User: bianchi
Dark Spectrum Present: No
Reference Spectrum Present: No
Number of Sampled Component Spectra: 1
Spectrometers: USB2+H05261
Integration Time (usec): 50000 (USB2+H05261)
Spectra Averaged: 1 (USB2+H05261)
Boxcar Smoothing: 0 (USB2+H05261)
Correct for Electrical Dark: No (USB2+H05261)
Strobe/Lamp Enabled: No (USB2+H05261)
Correct for Detector Non-linearity: No (USB2+H05261)
Correct for Stray Light: No (USB2+H05261)
Number of Pixels in Processed Spectrum: 2048
>>>>>Begin Processed Spectral Data<<<<<
365.73	0.00
365.92	0.00
366.12	0.00
366.32	0.00
366.52	0.00
366.72	0.00
366.91	0.00
367.11	0.00
367.31	0.00
367.51	0.00
367.70	0.00
367.90	0.00
368.10	0.00
368.30	0.00
368.49	0.00
368.69	0.00
368.89	0.00
369.09	0.00
369.28	0.00
369.48	0.00
369.68	0.00
369.87	0.00
370.07	0.00
370.27	7.02
370.47	0.00
370.66	102.98
370.86	98.30
371.06	152.13
371.25	119.37
371.45	117.03
371.65	138.09
371.84	126.39
372.04	131.07
372.24	126.39
372.44	119.37
372.63	243.42
372.83	163.84
373.03	173.20
373.22	217.67
373.42	159.16
373.62	194.26
373.81	145.11
374.01	287.89
374.21	222.35
374.40	203.63
374.60	280.86
374.79	313.63
374.99	269.16
375.19	250.44
375.38	322.99
375.58	201.29
375.78	287.89
375.97	271.50
376.17	259.80
376.37	184.90
376.56	278.52
376.76	241.08
376.95	224.69
377.15	276.18
377.35	264.48
377.54	278.52
377.74	236.39
377.93	259.80
378.13	313.63
378.33	311.29
378.52	386.19
378.72	414.27
378.91	339.38
379.11	198.95
379.31	271.50
379.50	273.84
379.70	351.08
379.89	283.20
380.09	330.02
380.28	290.23
380.48	318.31
380.68	306.61
380.87	264.48
381.07	276.18
381.26	346.40
381.46	325.33
381.65	341.72
381.85	355.76
382.04	222.35
382.24	404.91
382.43	379.17
382.63	334.70
382.83	346.40
383.02	337.04
383.22	379.17
383.41	320.65
383.61	322.99
383.80	365.12
384.00	360.44
384.19	374.49
384.39	454.06
384.58	374.49
384.78	456.40
384.97	388.53
385.17	402.57
385.36	388.53
385.56	383.85
385.75	362.78
385.95	325.33
386.14	456.40
386.34	430.66
386.53	451.72
386.72	444.70
386.92	447.04
387.11	472.79
387.31	428.32
387.50	440.02
387.70	355.76
387.89	470.45
388.09	423.64
388.28	393.21
388.48	491.51
388.67	463.43
388.86	423.64
389.06	524.28
389.25	430.66
389.45	535.98
389.64	442.36
389.84	463.43
390.03	496.19
390.22	517.26
390.42	425.98
390.61	477.47
390.81	418.96
391.00	521.94
391.19	571.09
391.39	575.77
391.58	552.37
391.78	550.03
391.97	486.83
392.16	538.32
392.36	585.13
392.55	512.58
392.75	512.58
392.94	521.94
393.13	594.50
393.33	571.09
393.52	627.26
393.71	636.63
393.91	559.39
394.10	514.92
394.29	594.50
394.49	557.05
394.68	603.86
394.88	582.79
395.07	561.73
395.26	573.43
395.46	580.45
395.65	664.71
395.84	645.99
396.04	706.84
396.23	636.63
396.42	683.44
396.62	763.01
396.81	610.88
397.00	634.29
397.19	676.41
397.39	645.99
397.58	601.52
397.77	685.78
397.97	653.01
398.16	681.10
398.35	688.12
398.55	741.95
398.74	767.70
398.93	751.31
399.12	751.31
399.32	650.67
399.51	681.10
399.70	753.65
399.90	732.59
400.09	723.23
400.28	767.70
400.47	774.72
400.67	746.63
400.86	751.31
401.05	753.65
401.24	798.12
401.44	788.76
401.63	791.10
401.82	781.74
402.01	814.51
402.21	816.85
402.40	826.21
402.59	856.64
402.78	767.70
402.97	917.49
403.17	807.48
403.36	732.59
403.55	868.34
403.74	926.85
403.93	870.68
404.13	1060.26
404.32	924.51
404.51	908.13
404.70	940.90
404.89	966.64
405.09	950.26
405.28	997.07
405.47	887.06
405.66	940.90
405.85	1057.92
406.05	992.39
406.24	985.37
406.43	1064.94
406.62	915.15
406.81	1039.20
407.00	985.37
407.20	971.32
407.39	1088.35
407.58	980.68
407.77	1090.69
407.96	1055.58
408.15	1025.15
408.34	1107.07
408.54	990.05
408.73	1046.22
408.92	1053.24
409.11	1086.01
409.30	1163.25
409.49	1151.54
409.68	1130.48
409.87	1097.71
410.07	1231.12
410.26	1200.69
410.45	1179.63
410.64	1130.48
410.83	1207.72
411.02	1177.29
411.21	1219.42
411.40	1289.64
411.59	1331.76
411.78	1294.32
411.98	1235.80
412.17	1259.21
412.36	1289.64
412.55	1413.68
412.74	1345.81
412.93	1308.36
413.12	1306.02
413.31	1483.90
413.50	1341.13
413.69	1371.55
413.88	1483.90
414.07	1444.11
414.26	1420.71
414.45	1380.92
414.64	1516.67
414.83	1540.07
415.02	1563.48
415.22	1455.81
415.41	1589.22
415.60	1631.35
415.79	1502.62
415.98	1614.97
416.17	1563.48
416.36	1514.33
416.55	1600.93
416.74	1549.43
416.93	1549.43
417.12	1694.55
417.31	1654.76
417.50	1645.40
417.69	1853.70
417.88	1694.55
418.07	1739.02
418.26	1654.76
418.45	1713.27
418.64	1774.13
418.83	1856.04
419.02	1795.19
419.21	1834.98
419.39	1825.62
419.58	1774.13
419.77	1781.15
419.96	1813.92
420.15	1942.64
420.34	1853.70
420.53	1853.70
420.72	1813.92
420.91	1783.49
421.10	1820.94
421.29	2010.52
421.48	1853.70
421.67	2024.56
421.86	1942.64
422.05	1905.20
422.24	1952.01
422.43	1853.70
422.61	1987.11
422.80	2008.18
422.99	2080.74
423.18	2024.56
423.37	2022.22
423.56	1987.11
423.75	1989.46
423.94	2062.01
424.13	1837.32
424.32	1963.71
424.50	2012.86
424.69	1926.26
424.88	2125.21
425.07	2010.52
425.26	2038.61
425.45	2003.50
425.64	1998.82
425.83	1989.46
426.01	2104.14
426.20	2083.08
426.39	2040.95
426.58	2111.16
426.77	2010.52
426.96	2211.81
427.15	1998.82
427.33	2026.90
427.52	2155.63
427.71	2012.86
427.90	1998.82
428.09	2127.55
428.28	2090.10
428.46	2183.72
428.65	2230.53
428.84	2223.51
429.03	2202.44
429.22	2183.72
429.40	2139.25
429.59	2282.02
429.78	2162.66
429.97	2239.89
430.16	2251.60
430.34	2251.60
430.53	2286.70
430.72	2375.64
430.91	2361.60
431.10	2275.00
431.28	2296.07
431.47	2321.81
431.66	2476.29
431.85	2293.72
432.03	2424.80
432.22	2476.29
432.41	2401.39
432.60	2434.16
432.79	2502.03
432.97	2483.31
433.16	2406.07
433.35	2429.48
433.54	2424.80
433.72	2438.84
433.91	2516.08
434.10	2516.08
434.28	2424.80
434.47	2483.31
434.66	2506.71
434.85	2569.91
435.03	2686.94
435.22	2686.94
435.41	2693.96
435.59	2649.49
435.78	2569.91
435.97	2719.70
436.16	2665.87
436.34	2670.55
436.53	2696.30
436.72	2654.17
436.90	2771.19
437.09	2661.19
437.28	2593.31
437.46	2708.00
437.65	2764.17
437.84	2864.82
438.02	2750.13
438.21	2733.75
438.40	2705.66
438.58	2949.08
438.77	2792.26
438.96	2820.35
439.14	2750.13
439.33	2897.58
439.52	3002.91
439.70	2993.55
439.89	3070.78
440.08	3162.06
440.26	3073.12
440.45	3101.21
440.63	3089.51
440.82	3215.90
441.01	3028.65
441.19	3096.53
441.38	3258.03
441.57	3215.90
441.75	3295.47
441.94	3379.73
442.12	3283.77
442.31	3293.13
442.50	3335.26
442.68	3410.16
442.87	3272.07
443.05	3330.58
443.24	3419.52
443.43	3229.94
443.61	3201.85
443.80	3513.14
443.98	3272.07
444.17	3171.43
444.35	3325.90
444.54	3424.20
444.73	3396.12
444.91	3363.35
445.10	3267.39
445.28	3379.73
445.47	3459.31
445.65	3435.91
445.84	3475.70
446.02	3424.20
446.21	3396.12
446.39	3428.88
446.58	3482.72
446.77	3424.20
446.95	3337.60
447.14	3548.25
447.32	3478.04
447.51	3487.40
447.69	3513.14
447.88	3475.70
448.06	3412.50
448.25	3356.33
448.43	3583.36
448.62	3471.01
448.80	3396.12
448.99	3466.33
449.17	3562.30
449.36	3569.32
449.54	3637.19
449.73	3618.47
449.91	3705.07
450.10	3653.58
450.28	3733.15
450.46	3740.18
450.65	3665.28
450.83	3728.47
451.02	3700.39
451.20	3852.52
451.39	3716.77
451.57	3784.65
451.76	3758.90
451.94	3819.75
452.13	3836.14
452.31	3812.73
452.49	3826.78
452.68	3864.22
452.86	3796.35
453.05	3906.35
453.23	3967.21
453.42	3889.97
453.60	3822.09
453.78	3871.25
453.97	3936.78
454.15	3978.91
454.34	3868.91
454.52	4049.13
454.70	3950.82
454.89	3962.53
455.07	4049.13
455.26	4095.94
455.44	4152.11
455.62	3941.46
455.81	4025.72
455.99	4091.26
456.17	4098.28
456.36	4222.33
456.54	4086.58
456.73	4109.98
456.91	4255.09
457.09	4599.15
457.28	4432.97
457.46	4280.84
457.64	4454.04
457.83	4196.58
458.01	4119.34
458.19	4308.93
458.38	4388.50
458.56	4557.02
458.74	4400.21
458.93	4486.81
459.11	4374.46
459.29	4440.00
459.48	4395.53
459.66	4461.06
459.84	4535.96
460.03	4503.19
460.21	4404.89
460.39	4610.86
460.57	4458.72
460.76	4589.79
460.94	4589.79
461.12	4496.17
461.31	4561.70
461.49	4524.26
461.67	4535.96
461.85	4741.93
462.04	4622.56
462.22	4744.27
462.40	4910.44
462.59	4767.67
462.77	4699.80
462.95	4718.52
463.13	4938.53
463.32	4774.69
463.50	4807.46
463.68	4779.37
463.86	4809.80
464.05	4781.71
464.23	4856.61
464.41	4957.25
464.59	4861.29
464.78	4978.32
464.96	4755.97
465.14	4903.42
465.32	5095.35
465.50	5020.45
465.69	4929.17
465.87	5020.45
466.05	5006.41
466.23	4983.00
466.41	4985.34
466.60	5062.58
466.78	4983.00
466.96	5011.09
467.14	5067.26
467.32	4947.89
467.51	5207.69
467.69	5029.81
467.87	5121.09
468.05	5088.32
468.23	5231.10
468.41	5107.05
468.60	5298.97
468.78	5359.83
468.96	5076.62
469.14	5114.07
469.32	5280.25
469.50	5001.72
469.69	5221.74
469.87	5607.92
470.05	5481.53
470.23	5392.59
470.41	5341.10
470.59	5338.76
470.77	5458.13
470.95	5540.05
471.14	5799.85
471.32	5472.17
471.50	5612.60
471.68	5458.13
471.86	5516.64
472.04	5741.33
472.22	5851.34
472.40	5628.99
472.58	5659.42
472.77	5750.70
472.95	5874.74
473.13	5907.51
473.31	5724.95
473.49	5708.57
473.67	5860.70
473.85	5853.68
474.03	5942.62
474.21	5980.07
474.39	5940.28
474.57	6125.18
474.75	5923.90
474.93	6157.95
475.12	6069.01
475.30	6200.08
475.48	6256.25
475.66	6209.44
475.84	6331.15
476.02	6331.15
476.20	6399.02
476.38	6502.01
476.56	6565.20
476.74	6469.24
476.92	6464.56
477.10	6497.33
477.28	6640.10
477.46	6604.99
477.64	6574.56
477.82	6764.15
478.00	7026.29
478.18	6679.89
478.36	6995.86
478.54	6953.73
478.72	7140.97
478.90	7342.26
479.08	7183.10
479.26	7192.47
479.44	7213.53
479.62	7236.94
479.80	7286.09
479.98	7377.37
480.16	7447.58
480.34	7517.80
480.52	7529.50
480.70	7681.64
480.88	7616.10
481.06	7723.77
481.24	7648.87
481.41	7899.31
481.59	7655.89
481.77	7815.05
481.95	8072.51
482.13	7929.74
482.31	7889.95
482.49	7995.27
482.67	8065.49
482.85	8444.65
483.03	8325.29
483.21	8402.52
483.39	8531.25
483.57	8564.02
483.74	8688.07
483.92	8559.34
484.10	8793.39
484.28	8805.10
484.46	9046.17
484.64	9217.03
484.82	8882.33
485.00	9025.11
485.18	9238.09
485.35	9137.45
485.53	9483.85
485.71	9455.76
485.89	9359.80
486.07	9575.13
486.25	9521.30
486.43	9631.30
486.61	9844.29
486.78	9870.04
486.96	9881.74
487.14	10104.09
487.32	10019.83
487.50	10001.11
487.68	10188.35
487.85	10551.14
488.03	10427.09
488.21	10588.58
488.39	10698.59
488.57	10581.56
488.75	10724.33
488.92	10986.47
489.10	10787.53
489.28	10724.33
489.46	11279.04
489.64	10974.77
489.81	10984.13
489.99	11463.94
490.17	11089.46
490.35	11295.43
490.53	11524.80
490.70	11559.91
490.88	11616.08
491.06	11822.05
491.24	11597.35
491.41	11714.38
491.59	11800.98
491.77	11918.01
491.95	12091.21
492.13	12397.82
492.30	12278.45
492.48	12187.17
492.66	12486.76
492.84	12336.96
493.01	12573.36
493.19	12566.34
493.37	12517.18
493.54	12559.31
493.72	12975.93
493.90	12938.48
494.08	13036.78
494.25	12987.63
494.43	12912.74
494.61	13310.63
494.79	13118.70
494.96	13532.98
495.14	13486.17
495.32	13455.74
495.49	13453.40
495.67	13586.81
495.85	13771.71
496.02	13757.67
496.20	14073.64
496.38	13813.84
496.55	14075.98
496.73	14185.99
496.91	14118.11
497.09	14626.01
497.26	14293.65
497.44	14434.08
497.62	14267.91
497.79	14366.21
497.97	14377.91
498.14	14803.89
498.32	14883.47
498.50	14471.53
498.67	15019.22
498.85	14998.15
499.03	14808.57
499.20	15059.01
499.38	15194.76
499.56	15066.03
499.73	15084.75
499.91	15246.25
500.08	15353.91
500.26	15159.65
500.44	15351.57
500.61	15360.94
500.79	15527.11
500.97	15688.61
501.14	15936.71
501.32	15716.70
501.49	15779.89
501.67	15765.85
501.84	15700.31
502.02	15836.06
502.20	15957.77
502.37	16016.29
502.55	16020.97
502.72	15943.73
502.90	16079.48
503.07	16088.84
503.25	16126.29
503.43	16460.99
503.60	16332.26
503.78	16664.61
503.95	16512.48
504.13	16500.78
504.30	16409.50
504.48	16442.26
504.65	16692.70
504.83	16833.13
505.01	16767.60
505.18	17085.91
505.36	16931.44
505.53	16903.35
505.71	16730.15
505.88	17219.32
506.06	17191.23
506.23	17067.19
506.41	17195.92
506.58	17518.91
506.76	17539.97
506.93	17600.83
507.11	17359.75
507.28	17525.93
507.46	17406.56
507.63	17549.34
507.81	17689.77
507.98	17453.37
508.16	17891.06
508.33	17521.25
508.50	17919.14
508.68	17884.03
508.85	18132.13
509.03	18008.08
509.20	17752.96
509.38	18235.11
509.55	18190.64
509.73	18333.42
509.90	18251.50
510.08	18258.52
510.25	18192.98
510.42	18492.57
510.60	18745.35
510.77	18635.35
510.95	18621.30
511.12	18532.36
511.30	18572.15
511.47	18834.29
511.64	18663.43
511.82	18684.50
511.99	19044.94
512.17	19180.69
512.34	19105.79
512.51	18986.43
512.69	19056.64
512.86	18892.80
513.04	19248.57
513.21	19410.06
513.38	19496.66
513.56	19232.18
513.73	19501.34
513.90	19426.45
514.08	19529.43
514.25	19627.73
514.43	19639.44
514.60	19578.58
514.77	19555.18
514.95	19978.81
515.12	19660.50
515.29	19950.73
515.47	19871.15
515.64	19964.77
515.81	19854.76
515.99	20297.13
516.16	20545.22
516.33	20329.89
516.51	20093.50
516.68	20304.15
516.85	20226.91
517.03	20233.93
517.20	20332.23
517.37	20592.03
517.54	20332.23
517.72	20416.49
517.89	20369.68
518.06	20673.95
518.24	20449.26
518.41	20695.02
518.58	20559.27
518.75	20524.16
518.93	21060.14
519.10	20863.54
519.27	21109.29
519.45	21092.91
519.62	21123.33
519.79	20973.54
519.96	21013.33
520.14	21041.42
520.31	21191.21
520.48	21188.87
520.65	21565.70
520.83	21142.06
521.00	21418.24
521.17	21029.71
521.34	21153.76
521.52	21509.52
521.69	21397.18
521.86	21294.19
522.03	21551.65
522.20	21701.45
522.38	22059.55
522.55	21876.99
522.72	21465.05
522.89	22108.70
523.07	21940.18
523.24	22214.02
523.41	22075.93
523.58	22113.38
523.75	21975.29
523.92	21846.56
524.10	22071.25
524.27	22288.92
524.44	22052.53
524.61	22532.34
524.78	22431.69
524.96	22171.89
525.13	22494.89
525.30	22464.46
525.47	22890.44
525.64	22618.94
525.81	22647.02
525.98	22836.61
526.16	22742.99
526.33	22721.92
526.50	22951.29
526.67	22834.27
526.84	22773.41
527.01	22754.69
527.18	22874.06
527.36	22904.48
527.53	22735.96
527.70	23164.28
527.87	23267.27
528.04	22867.03
528.21	23068.32
528.38	22850.65
528.55	23396.00
528.72	23056.62
528.89	23468.55
529.07	23559.83
529.24	23293.01
529.41	23590.26
529.58	23091.73
529.75	23194.71
529.92	23660.48
530.09	23594.94
530.26	23821.97
530.43	23421.74
530.60	23419.40
530.77	23644.09
530.94	23751.76
531.11	23459.19
531.28	23908.57
531.46	23927.30
531.63	23826.65
531.80	23962.40
531.97	24025.60
532.14	23658.14
532.31	24374.34
532.48	23948.36
532.65	24074.75
532.82	23836.02
532.99	24135.60
533.16	24072.41
533.33	24098.16
533.50	24554.56
533.67	24233.91
533.84	24067.73
534.01	24271.36
534.18	23812.61
534.35	24577.97
534.52	24283.06
534.69	24666.91
534.86	24636.48
535.03	24606.05
535.20	24556.90
535.37	24629.46
535.54	24393.06
535.71	24477.32
535.88	24800.32
536.05	24432.85
536.22	24938.41
536.38	24964.15
536.55	24898.62
536.72	24779.25
536.89	24868.19
537.06	25116.29
537.23	25539.93
537.40	24694.99
537.57	24828.40
537.74	24900.96
537.91	25245.02
538.08	25184.16
538.25	25277.79
538.42	25366.73
538.59	25120.97
538.75	25041.39
538.92	25228.63
539.09	25486.09
539.26	25259.06
539.43	25692.06
539.60	25535.24
539.77	25392.47
539.94	25841.85
540.11	25350.34
540.28	25628.87
540.44	25593.76
540.61	25638.23
540.78	25715.47
540.95	25680.36
541.12	25497.80
541.29	25701.42
541.46	25799.73
541.62	25762.28
541.79	25919.09
541.96	25249.70
542.13	25338.64
542.30	25741.21
542.47	26031.44
542.63	26118.04
542.80	26417.63
542.97	26080.59
543.14	26094.63
543.31	26354.43
543.48	26026.76
543.64	26230.38
543.81	26272.51
543.98	26380.18
544.15	26115.70
544.32	26881.05
544.48	26604.87
544.65	26305.28
544.82	26249.11
544.99	26171.87
545.16	26462.10
545.32	26363.79
545.49	26644.66
545.66	27119.79
545.83	26859.99
546.00	26574.44
546.16	26817.86
546.33	26534.65
546.50	26251.45
546.67	26682.11
546.83	26349.75
547.00	26778.07
547.17	26897.44
547.34	26647.00
547.50	26813.18
547.67	26862.33
547.84	26773.39
548.00	26969.99
548.17	26927.86
548.34	27218.09
548.51	27171.28
548.67	27103.40
548.84	27253.20
549.01	27077.66
549.18	27070.64
549.34	26857.65
549.51	27433.42
549.68	27016.80
549.84	27023.83
550.01	27166.60
550.18	27360.86
550.34	27714.28
550.51	27550.45
550.68	27482.57
550.84	27248.52
551.01	27630.02
551.18	27356.18
551.34	27529.38
551.51	27185.32
551.68	27454.48
551.84	27709.60
552.01	27489.59
552.18	27941.32
552.34	27688.54
552.51	27950.68
552.68	27653.43
552.84	27637.05
553.01	27859.40
553.18	27522.36
553.34	27594.92
553.51	28037.28
553.67	27627.68
553.84	27927.27
554.01	28315.80
554.17	27941.32
554.34	27861.74
554.51	28121.54
554.67	28257.29
554.84	27824.29
555.00	27828.97
555.17	27791.52
555.33	27985.79
555.50	28107.49
555.67	27917.91
555.83	28196.43
556.00	28222.18
556.16	28231.54
556.33	28088.77
556.50	28114.52
556.66	27957.70
556.83	28250.27
556.99	28294.74
557.16	28481.98
557.32	28467.94
557.49	28456.23
557.65	28177.71
557.82	28350.91
557.98	28278.35
558.15	28680.92
558.32	28659.86
558.48	28446.87
558.65	28596.67
558.81	28690.29
558.98	28765.18
559.14	28538.15
559.31	28383.68
559.47	28648.16
559.64	28325.16
559.80	28376.66
559.97	28861.15
560.13	28304.10
560.30	28800.29
560.46	28444.53
560.63	28533.47
560.79	28587.30
560.96	28451.55
561.12	28528.79
561.29	28664.54
561.45	28765.18
561.61	29158.39
561.78	28961.79
561.94	28587.30
562.11	28910.30
562.27	29055.41
562.44	28730.08
562.60	29010.94
562.77	28566.24
562.93	28692.63
563.10	29127.97
563.26	28245.58
563.42	28790.93
563.59	28973.49
563.75	28933.70
563.92	28891.57
564.08	29036.69
564.24	29177.12
564.41	28870.51
564.57	28870.51
564.74	29090.52
564.90	29376.06
565.07	28971.15
565.23	29142.01
565.39	29284.78
565.56	29137.33
565.72	29420.53
565.88	28844.76
566.05	28559.22
566.21	29266.06
566.38	28910.30
566.54	29104.56
566.70	29282.44
566.87	29586.71
567.03	29457.98
567.19	29413.51
567.36	29362.02
567.52	28954.77
567.68	29418.19
567.85	29067.11
568.01	29142.01
568.17	29252.02
568.34	28828.38
568.50	29343.30
568.66	29528.20
568.83	29244.99
568.99	29282.44
569.15	29303.51
569.32	29254.36
569.48	29214.57
569.64	29331.59
569.81	29301.17
569.97	29549.26
570.13	29209.89
570.30	29326.91
570.46	29376.06
570.62	29544.58
570.78	29123.29
570.95	28966.47
571.11	29350.32
571.27	29167.76
571.43	29249.67
571.60	29633.52
571.76	29287.12
571.92	29261.38
572.09	29626.50
572.25	29832.47
572.41	29387.77
572.57	29343.30
572.74	29479.05
572.90	29392.45
573.06	29432.24
573.22	29340.96
573.38	29242.65
573.55	29769.27
573.71	29839.49
573.87	29591.39
574.03	29420.53
574.20	29575.01
574.36	29223.93
574.52	29635.86
574.68	29511.81
574.84	29322.23
575.01	29649.91
575.17	29694.38
575.33	29446.28
575.49	29549.26
575.65	29600.76
575.82	29722.46
575.98	29453.30
576.14	29628.84
576.30	29586.71
576.46	29446.28
576.62	29453.30
576.79	29355.00
576.95	29362.02
577.11	29663.95
577.27	30061.84
577.43	29752.89
577.59	29956.52
577.75	29888.64
577.92	29862.90
578.08	29633.52
578.24	29530.54
578.40	29680.33
578.56	29926.09
578.72	29834.81
578.88	29748.21
579.04	29926.09
579.21	29633.52
579.37	29848.85
579.53	29785.66
579.69	29575.01
579.85	29720.12
580.01	29277.76
580.17	29860.55
580.33	29565.65
580.49	29324.57
580.65	29872.26
580.82	29720.12
580.98	29773.95
581.14	29979.92
581.30	29677.99
581.46	29802.04
581.62	29603.10
581.78	29397.13
581.94	29638.20
582.10	29465.00
582.26	29621.82
582.42	29773.95
582.58	29855.87
582.74	29443.94
582.90	29752.89
583.06	29785.66
583.22	29406.49
583.38	29731.83
583.54	29783.32
583.70	30019.71
583.86	29577.35
584.02	29905.02
584.18	29895.66
584.34	30352.07
584.50	30040.78
584.66	29834.81
584.82	29532.88
584.98	29802.04
585.14	29659.27
585.30	29607.78
585.46	29645.23
585.62	29713.10
585.78	30036.09
585.94	29656.93
586.10	29748.21
586.26	29975.24
586.42	29982.26
586.58	30127.38
586.74	29500.11
586.90	29553.94
587.06	29752.89
587.22	30031.41
587.38	29972.90
587.54	30000.99
587.70	30361.43
587.86	29930.77
588.02	29907.37
588.18	30412.92
588.34	30354.41
588.49	29757.57
588.65	30054.82
588.81	29673.31
588.97	30015.03
589.13	29647.57
589.29	29930.77
589.45	30136.74
589.61	30162.48
589.77	30230.36
589.93	30616.55
590.08	30607.19
590.24	30499.52
590.40	30150.78
590.56	30649.32
590.72	30092.27
590.88	30141.42
591.04	30211.64
591.20	30616.55
591.35	30071.20
591.51	30345.05
591.67	30356.75
591.83	30272.49
591.99	30218.66
592.15	30211.64
592.31	29858.21
592.46	29699.06
592.62	30120.35
592.78	30300.58
592.94	30019.71
593.10	30197.59
593.26	30384.83
593.41	30253.76
593.57	30192.91
593.73	30256.11
593.89	30476.12
594.05	30223.34
594.20	30045.46
594.36	30492.50
594.52	30237.38
594.68	30185.89
594.84	29970.56
594.99	30073.54
595.15	30199.93
595.31	30412.92
595.47	30225.68
595.62	30583.78
595.78	30338.02
595.94	30394.20
596.10	30738.26
596.25	30110.99
596.41	29818.42
596.57	30251.42
596.73	30073.54
596.88	30143.76
597.04	30668.04
597.20	30483.14
597.36	30499.52
597.51	30525.27
597.67	30532.29
597.83	30249.08
597.99	30841.24
598.14	30309.94
598.30	30326.32
598.46	30452.71
598.61	30536.97
598.77	30321.64
598.93	30426.96
599.09	30499.52
599.24	30726.55
599.40	30370.79
599.56	30616.55
599.71	30419.94
599.87	30462.07
600.03	30546.33
600.18	30019.71
600.34	30433.99
600.50	30316.96
600.65	30316.96
600.81	30410.58
600.97	30862.30
601.12	30581.44
601.28	30742.94
601.44	30536.97
601.59	30183.55
601.75	30483.14
601.91	30511.22
602.06	30583.78
602.22	30216.32
602.37	30047.80
602.53	30473.78
602.69	30738.26
602.84	30675.06
603.00	30335.68
603.16	30356.75
603.31	30244.40
603.47	30155.46
603.62	30492.50
603.78	30321.64
603.94	30401.22
604.09	30132.06
604.25	30508.88
604.40	29991.62
604.56	30637.61
604.71	30574.42
604.87	30466.75
605.03	30536.97
605.18	30314.62
605.34	30536.97
605.49	30038.44
605.65	29986.94
605.80	29933.11
605.96	30141.42
606.12	30267.81
606.27	30478.46
606.43	30232.70
606.58	30621.23
606.74	30841.24
606.89	30520.59
607.05	30476.12
607.20	30991.03
607.36	30267.81
607.51	30110.99
607.67	29956.52
607.82	29963.54
607.98	30452.71
608.13	30099.29
608.29	30029.07
608.44	30040.78
608.60	29912.05
608.75	30300.58
608.91	30448.03
609.06	30010.35
609.22	30190.57
609.37	29914.39
609.53	30157.80
609.68	30085.25
609.84	30281.85
609.99	30218.66
610.15	30213.98
610.30	30323.98
610.46	30211.64
610.61	30146.10
610.76	30167.16
610.92	29989.28
611.07	29902.68
611.23	29610.12
611.38	29785.66
611.54	29909.71
611.69	29825.45
611.84	29701.40
612.00	30157.80
612.15	30188.23
612.31	30071.20
612.46	29656.93
612.62	30181.21
612.77	29909.71
612.92	30345.05
613.08	29799.70
613.23	29825.45
613.39	29598.41
613.54	29621.82
613.69	30305.26
613.85	29991.62
614.00	30026.73
614.15	29991.62
614.31	29493.09
614.46	29579.69
614.62	30033.75
614.77	30314.62
614.92	29745.87
615.08	29184.14
615.23	29951.84
615.38	30089.93
615.54	29347.98
615.69	29752.89
615.84	29736.51
616.00	29598.41
616.15	29593.73
616.30	29689.70
616.46	29642.88
616.61	29565.65
616.76	29240.31
616.92	29685.01
617.07	29699.06
617.22	29151.37
617.37	29275.42
617.53	29546.92
617.68	29804.38
617.83	29509.47
617.99	29252.02
618.14	29284.78
618.29	29422.87
618.45	29441.60
618.60	29123.29
618.75	29806.72
618.90	29832.47
619.06	29780.98
619.21	29376.06
619.36	29425.22
619.51	29200.52
619.67	29188.82
619.82	29270.74
619.97	29277.76
620.12	29139.67
620.28	29163.08
620.43	29703.74
620.58	29848.85
620.73	29266.06
620.89	29699.06
621.04	29418.19
621.19	29233.29
621.34	29022.64
621.49	29221.59
621.65	29256.70
621.80	29237.97
621.95	29219.25
622.10	29277.76
622.25	28627.09
622.41	29083.50
622.56	28987.53
622.71	28989.88
622.86	29111.58
623.01	29156.05
623.16	28753.48
623.32	28811.99
623.47	29127.97
623.62	28870.51
623.77	29034.35
623.92	29109.24
624.07	28400.06
624.23	28823.70
624.38	28863.49
624.53	28741.78
624.68	29111.58
624.83	28636.45
624.98	29060.09
625.13	28683.27
625.29	28769.86
625.44	28994.56
625.59	28582.62
625.74	28524.11
625.89	29027.32
626.04	28559.22
626.19	28294.74
626.34	28746.46
626.49	28500.70
626.65	28678.58
626.80	28556.88
626.95	28741.78
627.10	28599.01
627.25	28584.96
627.40	28570.92
627.55	28437.51
627.70	28322.82
627.85	28077.07
628.00	28271.33
628.15	28521.77
628.30	28168.35
628.45	28313.46
628.60	28566.24
628.76	28486.66
628.91	28247.93
629.06	27929.61
629.21	28222.18
629.36	28428.15
629.51	28264.31
629.66	28077.07
629.81	27995.15
629.96	27882.80
630.11	27777.48
630.26	27770.46
630.41	28039.62
630.56	28133.24
630.71	28315.80
630.86	27964.72
631.01	28109.83
631.16	28350.91
631.31	27885.14
631.46	27946.00
631.61	27821.95
631.76	27697.90
631.91	27924.93
632.06	27501.29
632.21	27569.17
632.36	28123.88
632.51	27639.39
632.66	27850.03
632.81	27641.73
632.96	27817.27
633.10	27838.33
633.25	28030.26
633.40	28093.45
633.55	28119.20
633.70	27562.15
633.85	27522.36
634.00	27529.38
634.15	27623.00
634.30	27651.09
634.45	27728.33
634.60	27550.45
634.75	27482.57
634.90	27779.82
635.05	27606.62
635.19	27798.54
635.34	27751.73
635.49	27449.80
635.64	27658.11
635.79	27688.54
635.94	27592.58
636.09	27690.88
636.24	27627.68
636.39	27381.93
636.53	27250.86
636.68	27583.21
636.83	27421.72
636.98	27763.43
637.13	27363.20
637.28	27456.82
637.43	27447.46
637.57	27681.52
637.72	27599.60
637.87	27136.17
638.02	27274.26
638.17	27068.30
638.32	27012.12
638.46	26953.61
638.61	26874.03
638.76	26979.36
638.91	26904.46
639.06	26934.88
639.20	27351.50
639.35	26991.06
639.50	27295.33
639.65	27513.00
639.80	27215.75
639.94	27005.10
640.09	27171.28
640.24	26904.46
640.39	26621.25
640.54	26871.69
640.68	26586.15
640.83	26925.52
640.98	26911.48
641.13	26679.77
641.27	27063.61
641.42	26897.44
641.57	27138.51
641.72	26684.45
641.86	26644.66
642.01	26635.30
642.16	27108.08
642.31	26450.39
642.45	26600.19
642.60	26410.60
642.75	26752.32
642.90	26485.50
643.04	26419.97
643.19	26609.55
643.34	26771.05
643.48	26553.38
643.63	26700.83
643.78	26693.81
643.93	26721.90
644.07	26958.29
644.22	26387.20
644.37	26551.04
644.51	26293.58
644.66	26396.56
644.81	26597.85
644.95	26101.65
645.10	26375.50
645.25	26590.83
645.39	26707.85
645.54	26597.85
645.69	26331.03
645.83	26405.92
645.98	26492.52
646.13	26536.99
646.27	26316.98
646.42	26375.50
646.57	26293.58
646.71	26136.76
646.86	26054.84
647.00	26314.64
647.15	26279.54
647.30	26038.46
647.44	26157.83
647.59	26265.49
647.74	26012.71
647.88	25951.86
648.03	25958.88
648.17	26293.58
648.32	26342.73
648.47	26073.57
648.61	26265.49
648.76	26244.43
648.90	26560.40
649.05	25879.30
649.20	26012.71
649.34	25783.34
649.49	25532.90
649.63	25680.36
649.78	26232.72
649.92	25977.61
650.07	26281.88
650.21	25977.61
650.36	26295.92
650.51	26092.29
650.65	26342.73
650.80	26017.40
650.94	25869.94
651.09	25771.64
651.23	25788.02
651.38	25855.90
651.52	25783.34
651.67	25406.52
651.81	26024.42
651.96	25692.06
652.10	25998.67
652.25	25689.72
652.39	25692.06
652.54	25565.67
652.68	26153.15
652.83	25928.45
652.97	25912.07
653.12	25972.92
653.26	25745.89
653.41	25701.42
653.55	25635.89
653.70	25221.61
653.84	25338.64
653.99	25394.81
654.13	25387.79
654.27	25453.33
654.42	25458.01
654.56	25376.09
654.71	25462.69
654.85	25415.88
655.00	25788.02
655.14	25359.70
655.29	25252.04
655.43	25635.89
655.57	25207.57
655.72	25252.04
655.86	25413.54
656.01	25235.66
656.15	25062.46
656.30	25062.46
656.44	25310.55
656.58	25216.93
656.73	25146.72
656.87	25092.88
657.01	25127.99
657.16	25371.41
657.30	25127.99
657.45	24996.92
657.59	25006.28
657.73	25336.30
657.88	24999.26
658.02	24877.55
658.16	24985.22
658.31	24819.04
658.45	24982.88
658.60	24720.74
658.74	24772.23
658.88	24865.85
659.03	24589.67
659.17	24896.28
659.31	24622.44
659.46	24456.26
659.60	24959.47
659.74	24978.20
659.89	24889.26
660.03	24577.97
660.17	24790.95
660.32	24411.79
660.46	24432.85
660.60	24095.82
660.74	24510.09
660.89	24402.43
661.03	23962.40
661.17	24290.08
661.32	24102.84
661.46	24643.50
661.60	24173.05
661.74	25057.78
661.89	24379.02
662.03	24191.78
662.17	24332.21
662.31	24250.29
662.46	24533.50
662.60	24072.41
662.74	23988.15
662.88	24144.97
663.03	23730.69
663.17	23793.89
663.31	23777.50
663.45	23527.06
663.60	23960.06
663.74	23845.38
663.88	23758.78
664.02	23941.34
664.17	23974.11
664.31	23583.24
664.45	23754.10
664.59	23885.17
664.73	23424.08
664.88	23580.90
665.02	23475.57
665.16	23232.16
665.30	23403.02
665.44	23396.00
665.59	23536.43
665.73	23388.97
665.87	22951.29
666.01	23171.30
666.15	23197.05
666.29	23260.24
666.44	23496.64
666.58	23091.73
666.72	23042.57
666.86	23014.49
667.00	23475.57
667.14	23037.89
667.28	22974.70
667.43	23325.78
667.57	22773.41
667.71	22941.93
667.85	22937.25
667.99	22670.43
668.13	23023.85
668.27	22778.09
668.41	22824.90
668.56	22735.96
668.70	22932.57
668.84	22934.91
668.98	22576.81
669.12	22937.25
669.26	22654.05
669.40	22366.16
669.54	22637.66
669.68	22656.39
669.82	22253.81
669.96	22228.07
670.10	22335.73
670.25	22448.08
670.39	22352.12
670.53	22380.20
670.67	22183.60
670.81	22401.27
670.95	22354.46
671.09	22143.81
671.23	21954.22
671.37	22143.81
671.51	22305.31
671.65	22143.81
671.79	22071.25
671.93	22146.15
672.07	22155.51
672.21	21551.65
672.35	21521.23
672.49	21556.33
672.63	21610.17
672.77	21242.70
672.91	21687.40
673.05	21553.99
673.19	21357.39
673.33	21507.18
673.47	21481.44
673.61	21577.40
673.75	21376.11
673.89	21163.12
674.03	21329.30
674.17	21242.70
674.31	21181.85
674.45	21120.99
674.59	21319.94
674.73	21341.00
674.87	21359.73
675.01	20823.75
675.15	20849.49
675.29	20798.00
675.43	20592.03
675.56	20940.77
675.70	20812.04
675.84	20900.98
675.98	20425.86
676.12	20798.00
676.26	20971.20
676.40	20760.55
676.54	20851.83
676.68	20313.51
676.82	20042.01
676.96	20130.95
677.10	20152.01
677.23	20238.61
677.37	20259.68
677.51	19910.94
677.65	20245.63
677.79	19974.13
677.93	19814.98
678.07	19873.49
678.21	20037.33
678.34	19660.50
678.48	19609.01
678.62	19386.66
678.76	19501.34
678.90	19611.35
679.04	19597.31
679.18	19300.06
679.31	19442.83
679.45	19030.90
679.59	19075.37
679.73	19051.96
679.87	18991.11
680.00	19091.75
680.14	18967.70
680.28	18916.21
680.42	18972.38
680.56	19084.73
680.70	18867.06
680.83	19138.56
680.97	18654.07
681.11	18925.57
681.25	18520.66
681.39	18630.66
681.52	18808.54
681.66	18389.59
681.80	18588.53
681.94	18544.06
682.07	18609.60
682.21	18628.32
682.35	18118.09
682.49	17661.68
682.62	18244.48
682.76	18050.21
682.90	18012.76
683.04	17769.35
683.17	17708.49
683.31	18078.30
683.45	18015.10
683.59	17731.90
683.72	17603.17
683.86	17834.88
684.00	17614.87
684.13	17448.69
684.27	17282.52
684.41	17317.62
684.55	17235.70
684.68	17060.16
684.82	17357.41
684.96	17174.85
685.09	17233.36
685.23	17097.61
685.37	16938.46
685.50	17074.21
685.64	17011.01
685.78	17076.55
685.91	17064.85
686.05	16947.82
686.19	16851.86
686.32	16779.30
686.46	16397.79
686.60	16650.57
686.73	16365.03
686.87	16418.86
687.01	16549.93
687.14	16308.85
687.28	16168.42
687.42	16086.50
687.55	16222.25
687.69	16231.62
687.82	16149.70
687.96	16095.86
688.10	15955.43
688.23	15934.37
688.37	15786.91
688.50	16065.44
688.64	15932.03
688.78	15824.36
688.91	15529.45
689.05	15623.08
689.18	15541.16
689.32	15323.49
689.46	15281.36
689.59	15548.18
689.73	15143.27
689.86	15419.45
690.00	15190.08
690.13	15070.71
690.27	15152.63
690.41	15304.76
690.54	15272.00
690.68	15077.73
690.81	15119.86
690.95	14993.47
691.08	15180.71
691.22	14789.85
691.35	14712.61
691.49	14960.70
691.62	14530.05
691.76	14728.99
691.89	14647.07
692.03	14083.00
692.16	14099.39
692.30	14031.51
692.43	14267.91
692.57	13982.36
692.70	14228.12
692.84	13961.30
692.97	13996.40
693.11	14068.96
693.24	13982.36
693.38	13951.93
693.51	13891.08
693.65	13996.40
693.78	13996.40
693.92	13769.37
694.05	13738.94
694.19	13767.03
694.32	13371.48
694.45	13451.06
694.59	13268.50
694.72	13378.50
694.86	12926.78
694.99	12931.46
695.13	13310.63
695.26	13128.06
695.39	13069.55
695.53	13235.73
695.66	13102.32
695.80	13074.23
695.93	13226.37
696.07	12908.05
696.20	13167.85
696.33	12858.90
696.47	12943.16
696.60	12727.83
696.73	12938.48
696.87	12840.18
697.00	12622.51
697.14	12411.86
697.27	12233.98
697.40	12168.45
697.54	12507.82
697.67	12168.45
697.80	11985.88
697.94	11868.86
698.07	12081.85
698.21	12030.35
698.34	12084.19
698.47	12149.72
698.61	12215.26
698.74	12009.29
698.87	11971.84
699.01	11737.79
699.14	12006.95
699.27	11597.35
699.40	11829.07
699.54	11480.33
699.67	11576.29
699.80	11459.26
699.94	11349.26
700.07	11201.80
700.20	11309.47
700.34	11180.74
700.47	11218.19
700.60	11204.14
700.73	11349.26
700.87	11157.33
701.00	11070.73
701.13	11110.52
701.26	11098.82
701.40	11173.72
701.53	11150.31
701.66	11047.33
701.79	10897.53
701.93	10801.57
702.06	10658.80
702.19	10382.62
702.32	10597.95
702.46	10497.30
702.59	10338.15
702.72	10120.48
702.85	10401.34
702.99	10382.62
703.12	10347.51
703.25	10326.44
703.38	10263.25
703.51	10368.57
703.65	10232.82
703.78	10167.29
703.91	10141.54
704.04	10068.98
704.17	10260.91
704.31	9980.04
704.44	10148.56
704.57	10003.45
704.70	9823.23
704.83	9720.24
704.96	9659.39
705.10	9748.33
705.23	9619.60
>>>>>End Processed Spectral Data<<<<<
