SpectraSuite Data File
++++++++++++++++++++++++++++++++++++
Date: Fri Oct 18 13:58:32 GMT-05:00 2013
User: bianchi
Dark Spectrum Present: No
Reference Spectrum Present: No
Number of Sampled Component Spectra: 1
Spectrometers: USB2+H05261
Integration Time (usec): 50000 (USB2+H05261)
Spectra Averaged: 1 (USB2+H05261)
Boxcar Smoothing: 0 (USB2+H05261)
Correct for Electrical Dark: No (USB2+H05261)
Strobe/Lamp Enabled: No (USB2+H05261)
Correct for Detector Non-linearity: No (USB2+H05261)
Correct for Stray Light: No (USB2+H05261)
Number of Pixels in Processed Spectrum: 2048
>>>>>Begin Processed Spectral Data<<<<<
365.73	0.00
365.92	0.00
366.12	0.00
366.32	0.00
366.52	0.00
366.72	0.00
366.91	0.00
367.11	0.00
367.31	0.00
367.51	0.00
367.70	0.00
367.90	0.00
368.10	0.00
368.30	0.00
368.49	0.00
368.69	0.00
368.89	0.00
369.09	0.00
369.28	0.00
369.48	0.00
369.68	0.00
369.87	0.00
370.07	0.00
370.27	0.00
370.47	0.00
370.66	98.30
370.86	161.50
371.06	74.90
371.25	133.41
371.45	177.88
371.65	168.52
371.84	184.90
372.04	140.43
372.24	187.24
372.44	86.60
372.63	170.86
372.83	212.99
373.03	203.63
373.22	236.39
373.42	184.90
373.62	198.95
373.81	168.52
374.01	180.22
374.21	184.90
374.40	203.63
374.60	245.76
374.79	222.35
374.99	290.23
375.19	255.12
375.38	196.60
375.58	252.78
375.78	252.78
375.97	236.39
376.17	290.23
376.37	339.38
376.56	285.55
376.76	257.46
376.95	234.05
377.15	257.46
377.35	241.08
377.54	315.97
377.74	257.46
377.93	346.40
378.13	315.97
378.33	262.14
378.52	308.95
378.72	278.52
378.91	294.91
379.11	304.27
379.31	287.89
379.50	308.95
379.70	297.25
379.89	285.55
380.09	313.63
380.28	294.91
380.48	243.42
380.68	325.33
380.87	330.02
381.07	346.40
381.26	318.31
381.46	297.25
381.65	346.40
381.85	238.73
382.04	294.91
382.24	381.51
382.43	360.44
382.63	351.08
382.83	381.51
383.02	395.55
383.22	418.96
383.41	325.33
383.61	372.15
383.80	379.17
384.00	383.85
384.19	437.68
384.39	308.95
384.58	341.72
384.78	362.78
384.97	411.93
385.17	423.64
385.36	334.70
385.56	365.12
385.75	477.47
385.95	397.89
386.14	346.40
386.34	407.25
386.53	339.38
386.72	451.72
386.92	444.70
387.11	454.06
387.31	423.64
387.50	430.66
387.70	400.23
387.89	449.38
388.09	442.36
388.28	475.13
388.48	482.15
388.67	454.06
388.86	407.25
389.06	400.23
389.25	430.66
389.45	395.55
389.64	444.70
389.84	512.58
390.03	433.00
390.22	475.13
390.42	475.13
390.61	482.15
390.81	486.83
391.00	482.15
391.19	510.24
391.39	535.98
391.58	482.15
391.78	493.85
391.97	557.05
392.16	524.28
392.36	657.69
392.55	596.84
392.75	580.45
392.94	533.64
393.13	559.39
393.33	514.92
393.52	489.17
393.71	627.26
393.91	496.19
394.10	557.05
394.29	571.09
394.49	517.26
394.68	505.56
394.88	615.56
395.07	620.24
395.26	568.75
395.46	533.64
395.65	610.88
395.84	638.97
396.04	636.63
396.23	653.01
396.42	615.56
396.62	664.71
396.81	589.82
397.00	655.35
397.19	692.80
397.39	667.05
397.58	617.90
397.77	671.73
397.97	709.18
398.16	645.99
398.35	706.84
398.55	676.41
398.74	662.37
398.93	837.91
399.12	678.76
399.32	725.57
399.51	727.91
399.70	723.23
399.90	753.65
400.09	704.50
400.28	772.38
400.47	788.76
400.67	739.61
400.86	795.78
401.05	805.14
401.24	716.20
401.44	774.72
401.63	751.31
401.82	840.25
402.01	739.61
402.21	763.01
402.40	777.06
402.59	840.25
402.78	840.25
402.97	800.46
403.17	798.12
403.36	786.42
403.55	924.51
403.74	882.38
403.93	929.19
404.13	861.32
404.32	931.53
404.51	870.68
404.70	994.73
404.89	938.55
405.09	943.24
405.28	908.13
405.47	971.32
405.66	961.96
405.85	1011.11
406.05	936.21
406.24	1055.58
406.43	978.34
406.62	973.66
406.81	994.73
407.00	1100.05
407.20	999.41
407.39	968.98
407.58	992.39
407.77	1043.88
407.96	1050.90
408.15	1109.41
408.34	978.34
408.54	1100.05
408.73	1095.37
408.92	1050.90
409.11	1097.71
409.30	1139.84
409.49	1090.69
409.68	1132.82
409.87	1177.29
410.07	1181.97
410.26	1100.05
410.45	1200.69
410.64	1184.31
410.83	1200.69
411.02	1219.42
411.21	1196.01
411.40	1210.06
411.59	1259.21
411.78	1299.00
411.98	1198.35
412.17	1226.44
412.36	1369.21
412.55	1329.42
412.74	1303.68
412.93	1387.94
413.12	1364.53
413.31	1462.83
413.50	1334.11
413.69	1345.81
413.88	1446.45
414.07	1362.19
414.26	1380.92
414.45	1406.66
414.64	1437.09
414.83	1504.96
415.02	1551.78
415.22	1509.65
415.41	1462.83
415.60	1586.88
415.79	1593.90
415.98	1481.56
416.17	1614.97
416.36	1535.39
416.55	1537.73
416.74	1689.87
416.93	1572.84
417.12	1650.08
417.31	1699.23
417.50	1743.70
417.69	1701.57
417.88	1692.21
418.07	1696.89
418.26	1736.68
418.45	1694.55
418.64	1703.91
418.83	1809.23
419.02	1846.68
419.21	1746.04
419.39	1846.68
419.58	1820.94
419.77	1776.47
419.96	1856.04
420.15	1900.52
420.34	1809.23
420.53	1923.92
420.72	1816.26
420.91	1961.37
421.10	1966.05
421.29	1935.62
421.48	1783.49
421.67	1935.62
421.86	2022.22
422.05	1940.30
422.24	1944.99
422.43	1856.04
422.61	1973.07
422.80	1933.28
422.99	1970.73
423.18	2033.93
423.37	1996.48
423.56	1940.30
423.75	1956.69
423.94	1937.96
424.13	1860.73
424.32	1865.41
424.50	1959.03
424.69	2076.06
424.88	1959.03
425.07	2008.18
425.26	1959.03
425.45	2066.69
425.64	1970.73
425.83	2078.40
426.01	1956.69
426.20	2085.42
426.39	2073.71
426.58	2090.10
426.77	2073.71
426.96	2052.65
427.15	2069.03
427.33	2033.93
427.52	2106.48
427.71	2054.99
427.90	2097.12
428.09	2157.97
428.28	2223.51
428.46	2174.36
428.65	2200.10
428.84	2113.50
429.03	2214.15
429.22	2260.96
429.40	2207.13
429.59	2256.28
429.78	2115.84
429.97	2076.06
430.16	2193.08
430.34	2267.98
430.53	2368.62
430.72	2347.56
430.91	2286.70
431.10	2270.32
431.28	2389.69
431.47	2380.32
431.66	2399.05
431.85	2349.90
432.03	2342.88
432.22	2485.65
432.41	2401.39
432.60	2448.20
432.79	2406.07
432.97	2387.35
433.16	2539.48
433.35	2401.39
433.54	2443.52
433.72	2558.21
433.91	2441.18
434.10	2473.95
434.28	2483.31
434.47	2551.18
434.66	2530.12
434.85	2516.08
435.03	2628.42
435.22	2485.65
435.41	2541.82
435.59	2703.32
435.78	2649.49
435.97	2717.36
436.16	2733.75
436.34	2628.42
436.53	2640.12
436.72	2663.53
436.90	2766.51
437.09	2689.28
437.28	2759.49
437.46	2700.98
437.65	2715.02
437.84	2715.02
438.02	2661.19
438.21	2794.60
438.40	2665.87
438.58	2916.31
438.77	2801.62
438.96	2855.45
439.14	2813.32
439.33	2944.39
439.52	2909.29
439.70	2953.76
439.89	2916.31
440.08	2960.78
440.26	3000.57
440.45	3091.85
440.63	3091.85
440.82	3131.64
441.01	3122.27
441.19	3143.34
441.38	3176.11
441.57	3129.30
441.75	3176.11
441.94	3173.77
442.12	3199.51
442.31	3166.74
442.50	3173.77
442.68	3283.77
442.87	3290.79
443.05	3290.79
443.24	3311.86
443.43	3286.11
443.61	3349.31
443.80	3524.85
443.98	3215.90
444.17	3087.17
444.35	3328.24
444.54	3428.88
444.73	3433.57
444.91	3431.23
445.10	3311.86
445.28	3328.24
445.47	3356.33
445.65	3421.86
445.84	3424.20
446.02	3410.16
446.21	3428.88
446.39	3428.88
446.58	3440.59
446.77	3471.01
446.95	3293.13
447.14	3410.16
447.32	3625.49
447.51	3375.05
447.69	3428.88
447.88	3513.14
448.06	3576.34
448.25	3545.91
448.43	3595.06
448.62	3463.99
448.80	3478.04
448.99	3634.85
449.17	3487.40
449.36	3445.27
449.54	3749.54
449.73	3634.85
449.91	3712.09
450.10	3632.51
450.28	3691.02
450.46	3625.49
450.65	3840.82
450.83	3559.95
451.02	3623.15
451.20	3747.20
451.39	3686.34
451.57	3742.52
451.76	3719.11
451.94	3791.67
452.13	3719.11
452.31	3784.65
452.49	3679.32
452.68	3831.46
452.86	3779.97
453.05	3798.69
453.23	3798.69
453.42	3751.88
453.60	3885.29
453.78	3906.35
453.97	3854.86
454.15	3840.82
454.34	3798.69
454.52	3995.29
454.70	3985.93
454.89	4028.06
455.07	3995.29
455.26	4009.34
455.44	3967.21
455.62	3901.67
455.81	4105.30
455.99	4060.83
456.17	4070.19
456.36	4124.02
456.54	4105.30
456.73	4119.34
456.91	4353.40
457.09	4290.20
457.28	4393.19
457.46	4224.67
457.64	4360.42
457.83	4311.27
458.01	4353.40
458.19	4376.80
458.38	4287.86
458.56	4386.16
458.74	4292.54
458.93	4259.78
459.11	4465.74
459.29	4416.59
459.48	4379.14
459.66	4311.27
459.84	4484.47
460.03	4395.53
460.21	4404.89
460.39	4489.15
460.57	4430.63
460.76	4559.36
460.94	4617.88
461.12	4526.60
461.31	4585.11
461.49	4442.34
461.67	4484.47
461.85	4587.45
462.04	4627.24
462.22	4608.51
462.40	4723.20
462.59	4725.54
462.77	4601.49
462.95	4896.40
463.13	4667.03
463.32	4727.88
463.50	4746.61
463.68	4912.78
463.86	4753.63
464.05	4945.55
464.23	4739.58
464.41	4793.42
464.59	4650.64
464.78	4793.42
464.96	4674.05
465.14	4856.61
465.32	4912.78
465.50	4896.40
465.69	5027.47
465.87	4915.12
466.05	4966.62
466.23	4891.72
466.41	5107.05
466.60	4968.96
466.78	4987.68
466.96	4957.25
467.14	4980.66
467.32	4992.36
467.51	5205.35
467.69	5022.79
467.87	5013.43
468.05	5186.63
468.23	5111.73
468.41	5085.98
468.60	5102.37
468.78	5174.92
468.96	5177.26
469.14	5245.14
469.32	5303.65
469.50	5062.58
469.69	5242.80
469.87	5420.68
470.05	5345.78
470.23	5385.57
470.41	5280.25
470.59	5343.44
470.77	5472.17
470.95	5479.19
471.14	5540.05
471.32	5366.85
471.50	5385.57
471.68	5680.48
471.86	5542.39
472.04	5586.86
472.22	5631.33
472.40	5476.85
472.58	5547.07
472.77	5605.58
472.95	5902.83
473.13	5900.49
473.31	5853.68
473.49	5785.80
473.67	5884.11
473.85	5757.72
474.03	5865.38
474.21	6003.47
474.39	5811.55
474.57	5991.77
474.75	6101.78
474.93	6094.76
475.12	6031.56
475.30	6106.46
475.48	5951.98
475.66	6202.42
475.84	6246.89
476.02	6157.95
476.20	6153.27
476.38	6312.42
476.56	6579.25
476.74	6511.37
476.92	6406.05
477.10	6277.32
477.28	6520.73
477.46	6527.75
477.64	6604.99
477.82	6885.86
478.00	6848.41
478.18	6864.79
478.36	6766.49
478.54	6927.99
478.72	6998.20
478.90	7049.69
479.08	7133.95
479.26	7019.27
479.44	7314.17
479.62	7124.59
479.80	7304.81
479.98	7506.10
480.16	7494.40
480.34	7470.99
480.52	7548.23
480.70	7588.02
480.88	7417.16
481.06	7676.96
481.24	7730.79
481.41	7510.78
481.59	7808.03
481.77	8067.83
481.95	7962.50
482.13	8065.49
482.31	7953.14
482.49	8198.90
482.67	8042.08
482.85	8245.71
483.03	8374.44
483.21	8418.91
483.39	8465.72
483.57	8568.70
483.74	8465.72
483.92	8561.68
484.10	8603.81
484.28	8877.65
484.46	8975.95
484.64	9018.08
484.82	9036.81
485.00	9100.00
485.18	9263.84
485.35	9273.20
485.53	9378.53
485.71	9350.44
485.89	9643.01
486.07	9425.34
486.25	9420.66
486.43	9561.09
486.61	9645.35
486.78	9844.29
486.96	9673.43
487.14	9926.21
487.32	9837.27
487.50	9767.06
487.68	10251.55
487.85	10087.71
488.03	10281.97
488.21	10607.31
488.39	10396.66
488.57	10707.95
488.75	10574.54
488.92	10768.80
489.10	10719.65
489.28	10729.02
489.46	10953.71
489.64	11147.97
489.81	11169.04
489.99	11049.67
490.17	11140.95
490.35	11480.33
490.53	11445.22
490.70	11508.41
490.88	11571.61
491.06	11597.35
491.24	11311.81
491.41	11557.57
491.59	11864.18
491.77	11735.45
491.95	11955.46
492.13	11941.41
492.30	12046.74
492.48	12257.39
492.66	12093.55
492.84	12152.06
493.01	12241.00
493.19	12219.94
493.37	12432.93
493.54	12566.34
493.72	12641.23
493.90	12915.08
494.08	12622.51
494.25	12903.37
494.43	12912.74
494.61	13048.49
494.79	13263.82
494.96	13121.04
495.14	13231.05
495.32	13319.99
495.49	13514.25
495.67	13514.25
495.85	13418.29
496.02	13685.11
496.20	13617.24
496.38	13535.32
496.55	13673.41
496.73	14148.54
496.91	14064.28
497.09	13949.59
497.26	14108.75
497.44	13942.57
497.62	14235.14
497.79	14766.44
497.97	14359.19
498.14	14647.07
498.32	14665.80
498.50	14703.25
498.67	15007.52
498.85	14885.81
499.03	14630.69
499.20	14696.22
499.38	14941.98
499.56	15021.56
499.73	15339.87
499.91	15197.10
500.08	15222.84
500.26	15096.46
500.44	15117.52
500.61	15239.23
500.79	15356.25
500.97	15566.90
501.14	15580.95
501.32	15742.44
501.49	15611.37
501.67	15632.44
501.84	15782.23
502.02	15513.07
502.20	15892.24
502.37	15983.52
502.55	16100.55
502.72	15983.52
502.90	15955.43
503.07	16173.10
503.25	16130.97
503.43	16201.19
503.60	16332.26
503.78	16444.60
503.95	16528.86
504.13	16484.39
504.30	16636.53
504.48	16358.00
504.65	16444.60
504.83	16840.15
505.01	16835.47
505.18	16779.30
505.36	17081.23
505.53	16709.08
505.71	16875.26
505.88	16908.03
506.06	16849.52
506.23	17025.06
506.41	17069.53
506.58	17345.71
506.76	17336.35
506.93	16954.84
507.11	17343.37
507.28	17369.12
507.46	17366.78
507.63	17645.30
507.81	17792.75
507.98	17495.50
508.16	17654.66
508.33	17600.83
508.50	17668.70
508.68	17790.41
508.85	17853.61
509.03	17612.53
509.20	17895.74
509.38	18155.54
509.55	18139.15
509.73	18202.35
509.90	18298.31
510.08	17832.54
510.25	18286.61
510.42	18422.36
510.60	18548.75
510.77	18335.76
510.95	18668.11
511.12	18490.23
511.30	18471.51
511.47	18864.72
511.64	18576.83
511.82	19051.96
511.99	18862.38
512.17	18902.17
512.34	19044.94
512.51	18925.57
512.69	18974.72
512.86	18864.72
513.04	19206.44
513.21	19405.38
513.38	19199.41
513.56	19248.57
513.73	19112.81
513.90	19028.56
514.08	18965.36
514.25	19328.14
514.43	19440.49
514.60	19475.60
514.77	19555.18
514.95	19389.00
515.12	19496.66
515.29	19480.28
515.47	19726.04
515.64	19924.98
515.81	19995.20
515.99	20201.16
516.16	20149.67
516.33	19786.89
516.51	20184.78
516.68	20065.41
516.85	19997.54
517.03	20013.92
517.20	20638.84
517.37	20177.76
517.54	20269.04
517.72	20407.13
517.89	20416.49
518.06	20332.23
518.24	20114.56
518.41	20196.48
518.58	20250.32
518.75	20332.23
518.93	20865.88
519.10	20697.36
519.27	20917.37
519.45	20514.80
519.62	20716.08
519.79	20844.81
519.96	20737.15
520.14	20786.30
520.31	20961.84
520.48	21132.70
520.65	21202.91
520.83	20980.56
521.00	21273.13
521.17	21125.68
521.34	21053.12
521.52	21355.05
521.69	21577.40
521.86	21458.03
522.03	21495.48
522.20	21254.40
522.38	21561.02
522.55	21481.44
522.72	21479.10
522.89	21549.31
523.07	21701.45
523.24	21610.17
523.41	21965.93
523.58	21270.79
523.75	21876.99
523.92	21654.64
524.10	21907.41
524.27	22211.68
524.44	21940.18
524.61	22356.80
524.78	22111.04
524.96	22207.00
525.13	22188.28
525.30	22298.28
525.47	22506.59
525.64	22345.09
525.81	22204.66
525.98	22462.12
526.16	22361.48
526.33	22244.45
526.50	22583.83
526.67	22375.52
526.84	22384.88
527.01	22260.84
527.18	22579.15
527.36	22579.15
527.53	22953.63
527.70	22970.02
527.87	22881.08
528.04	22691.49
528.21	22787.46
528.38	22801.50
528.55	22890.44
528.72	22986.40
528.89	23227.48
529.07	23012.15
529.24	23056.62
529.41	23531.75
529.58	23103.43
529.75	23098.75
529.92	23197.05
530.09	23225.14
530.26	23398.34
530.43	23180.67
530.60	23229.82
530.77	23302.37
530.94	23552.81
531.11	23531.75
531.28	23445.15
531.46	23222.80
531.63	23831.33
531.80	23721.33
531.97	23653.45
532.14	24009.22
532.31	23814.95
532.48	23573.88
532.65	23803.25
532.82	23379.61
532.99	23992.83
533.16	23779.84
533.33	23833.68
533.50	24009.22
533.67	23913.25
533.84	23927.30
534.01	23948.36
534.18	24154.33
534.35	24212.84
534.52	24205.82
534.69	24135.60
534.86	24379.02
535.03	24236.25
535.20	24706.70
535.37	24388.38
535.54	24678.61
535.71	24304.12
535.88	24641.16
536.05	24542.86
536.22	24687.97
536.38	24704.35
536.55	24812.02
536.72	24657.54
536.89	24402.43
537.06	24641.16
537.23	24673.93
537.40	24758.19
537.57	24687.97
537.74	24989.90
537.91	25352.68
538.08	25025.01
538.25	24772.23
538.42	24917.34
538.59	24664.57
538.75	24554.56
538.92	24807.34
539.09	25013.31
539.26	25025.01
539.43	24753.51
539.60	25254.38
539.77	25109.27
539.94	25249.70
540.11	25158.42
540.28	25474.39
540.44	25221.61
540.61	25029.69
540.78	25036.71
540.95	25413.54
541.12	25357.36
541.29	25418.22
541.46	25333.96
541.62	25336.30
541.79	25589.08
541.96	25142.03
542.13	25261.40
542.30	25560.99
542.47	25448.64
542.63	25752.91
542.80	25748.23
542.97	25886.32
543.14	25954.20
543.31	25914.41
543.48	26085.27
543.64	26001.01
543.81	26171.87
543.98	25977.61
544.15	25998.67
544.32	26064.21
544.48	26338.05
544.65	26239.75
544.82	26031.44
544.99	25891.01
545.16	26167.19
545.32	25869.94
545.49	26228.04
545.66	26216.34
545.83	26312.30
546.00	26696.15
546.16	26206.98
546.33	26127.40
546.50	25832.49
546.67	26061.87
546.83	26235.06
547.00	26551.04
547.17	26560.40
547.34	26602.53
547.50	26625.93
547.67	26794.45
547.84	26441.03
548.00	26501.89
548.17	26888.07
548.34	26520.61
548.51	26951.27
548.67	26859.99
548.84	26841.26
549.01	26272.51
549.18	26864.67
549.34	26611.89
549.51	26782.75
549.68	26679.77
549.84	26780.41
550.01	26841.26
550.18	26815.52
550.34	27178.30
550.51	27391.29
550.68	27353.84
550.84	27056.59
551.01	27037.87
551.18	27049.57
551.34	26981.70
551.51	27094.04
551.68	26958.29
551.84	26988.72
552.01	27026.17
552.18	27419.38
552.34	27206.39
552.51	27520.02
552.68	27367.88
552.84	27374.91
553.01	27534.06
553.18	27339.80
553.34	27391.29
553.51	27417.04
553.67	27522.36
553.84	27861.74
554.01	27513.00
554.17	27646.41
554.34	27789.18
554.51	27218.09
554.67	27695.56
554.84	27559.81
555.00	27681.52
555.17	27194.68
555.33	27728.33
555.50	28002.17
555.67	27725.99
555.83	27880.46
556.00	27587.89
556.16	27992.81
556.33	27847.69
556.50	27971.74
556.66	27906.21
556.83	27749.39
556.99	27948.34
557.16	28184.73
557.32	28287.71
557.49	27847.69
557.65	28170.69
557.82	27723.65
557.98	27892.16
558.15	27756.41
558.32	28133.24
558.48	27828.97
558.65	28002.17
558.81	28271.33
558.98	28133.24
559.14	28254.95
559.31	28252.61
559.47	28177.71
559.64	28357.93
559.80	28423.47
559.97	28573.26
560.13	28325.16
560.30	28063.02
560.46	28655.18
560.63	28423.47
560.79	28802.63
560.96	28463.25
561.12	28648.16
561.29	28507.72
561.45	28116.86
561.61	28271.33
561.78	28346.23
561.94	28346.23
562.11	28655.18
562.27	28498.36
562.44	28229.20
562.60	28584.96
562.77	28430.49
562.93	28297.08
563.10	28900.94
563.26	28252.61
563.42	28765.18
563.59	28554.54
563.75	28484.32
563.92	28634.11
564.08	28456.23
564.24	28524.11
564.41	28332.18
564.57	28861.15
564.74	28673.90
564.90	29015.62
565.07	28573.26
565.23	28648.16
565.39	28765.18
565.56	28837.74
565.72	28542.83
565.88	28552.20
566.05	28313.46
566.21	28666.88
566.38	28748.80
566.54	28809.65
566.70	28821.36
566.87	29069.45
567.03	28601.35
567.19	29074.13
567.36	29062.43
567.52	28657.52
567.68	28629.43
567.85	29050.73
568.01	28552.20
568.17	29050.73
568.34	29015.62
568.50	28975.83
568.66	28816.68
568.83	29137.33
568.99	28980.51
569.15	28900.94
569.32	28999.24
569.48	28257.29
569.64	28835.40
569.81	29034.35
569.97	28886.89
570.13	29174.78
570.30	29008.60
570.46	29181.80
570.62	29233.29
570.78	28510.07
570.95	28891.57
571.11	29006.26
571.27	28835.40
571.43	28929.02
571.60	29120.95
571.76	28713.69
571.92	28898.59
572.09	29095.20
572.25	29380.74
572.41	29010.94
572.57	28926.68
572.74	29266.06
572.90	29043.71
573.06	29142.01
573.22	29008.60
573.38	29378.40
573.55	29032.00
573.71	29083.50
573.87	29380.74
574.03	29106.90
574.20	29228.61
574.36	28950.09
574.52	29109.24
574.68	29294.14
574.84	28910.30
575.01	29455.64
575.17	29233.29
575.33	29261.38
575.49	29137.33
575.65	29118.60
575.82	29474.37
575.98	29305.85
576.14	29191.16
576.30	29064.77
576.46	28914.98
576.62	29125.63
576.79	29202.86
576.95	29186.48
577.11	28933.70
577.27	29385.43
577.43	29481.39
577.59	29006.26
577.75	29415.85
577.92	29219.25
578.08	29439.26
578.24	29376.06
578.40	29186.48
578.56	29308.19
578.72	29237.97
578.88	29738.85
579.04	29167.76
579.21	29198.18
579.37	29493.09
579.53	29331.59
579.69	28870.51
579.85	29020.30
580.01	29434.58
580.17	29448.62
580.33	29125.63
580.49	29048.39
580.65	29392.45
580.82	29259.04
580.98	29425.22
581.14	29195.84
581.30	29209.89
581.46	29118.60
581.62	29205.20
581.78	29001.58
581.94	29612.46
582.10	29249.67
582.26	29172.44
582.42	29486.07
582.58	29493.09
582.74	29495.43
582.90	29242.65
583.06	29446.28
583.22	29090.52
583.38	29387.77
583.54	29106.90
583.70	29460.32
583.86	29415.85
584.02	29226.27
584.18	29663.95
584.34	29610.12
584.50	29460.32
584.66	29184.14
584.82	29832.47
584.98	29364.36
585.14	29420.53
585.30	29172.44
585.46	29315.21
585.62	28987.53
585.78	29727.14
585.94	29242.65
586.10	29535.22
586.26	29696.72
586.42	29731.83
586.58	29575.01
586.74	29591.39
586.90	29593.73
587.06	29261.38
587.22	29699.06
587.38	29682.67
587.54	29544.58
587.70	29537.56
587.86	29724.80
588.02	29741.19
588.18	29874.60
588.34	29528.20
588.49	29858.21
588.65	29832.47
588.81	29359.68
588.97	29303.51
589.13	29584.37
589.29	29518.84
589.45	29778.64
589.61	29579.69
589.77	29869.92
589.93	29575.01
590.08	29837.15
590.24	29757.57
590.40	29933.11
590.56	29984.60
590.72	29289.46
590.88	29750.55
591.04	29589.05
591.20	29729.48
591.35	29759.91
591.51	30209.29
591.67	29968.22
591.83	29984.60
591.99	29675.65
592.15	30120.35
592.31	29933.11
592.46	29621.82
592.62	29809.06
592.78	29551.60
592.94	29792.68
593.10	29612.46
593.26	29961.20
593.41	29713.10
593.57	30015.03
593.73	29883.96
593.89	29956.52
594.05	30122.69
594.20	29886.30
594.36	29928.43
594.52	29502.45
594.68	29525.86
594.84	29617.14
594.99	29792.68
595.15	29832.47
595.31	30078.22
595.47	29937.79
595.62	29614.80
595.78	30082.91
595.94	29682.67
596.10	30244.40
596.25	30015.03
596.41	29745.87
596.57	29907.37
596.73	29797.36
596.88	29626.50
597.04	30300.58
597.20	30045.46
597.36	30003.33
597.51	30433.99
597.67	29912.05
597.83	29860.55
597.99	30043.12
598.14	29869.92
598.30	29783.32
598.46	30239.72
598.61	29977.58
598.77	30015.03
598.93	29923.75
599.09	29942.47
599.24	30419.94
599.40	30050.14
599.56	30195.25
599.71	30010.35
599.87	30237.38
600.03	30536.97
600.18	29902.68
600.34	29656.93
600.50	30101.63
600.65	30125.04
600.81	30202.27
600.97	30361.43
601.12	30218.66
601.28	30071.20
601.44	30433.99
601.59	30160.14
601.75	30127.38
601.91	29764.59
602.06	29701.40
602.22	29841.83
602.37	29846.51
602.53	30176.53
602.69	30394.20
602.84	30204.61
603.00	30103.97
603.16	30143.76
603.31	30293.55
603.47	30040.78
603.62	29450.96
603.78	30103.97
603.94	29773.95
604.09	29567.99
604.25	29902.68
604.40	29874.60
604.56	29947.15
604.71	30094.61
604.87	29991.62
605.03	30410.58
605.18	30047.80
605.34	30295.89
605.49	29572.67
605.65	30092.27
605.80	29507.13
605.96	30183.55
606.12	29696.72
606.27	30092.27
606.43	29951.84
606.58	30260.79
606.74	29883.96
606.89	29975.24
607.05	30120.35
607.20	30132.06
607.36	29631.18
607.51	30153.12
607.67	29493.09
607.82	29773.95
607.98	29900.34
608.13	29567.99
608.29	29699.06
608.44	29647.57
608.60	29993.97
608.75	30064.18
608.91	29841.83
609.06	29724.80
609.22	29355.00
609.37	29523.52
609.53	29762.25
609.68	29729.48
609.84	29544.58
609.99	29961.20
610.15	29429.90
610.30	29607.78
610.46	29652.25
610.61	29659.27
610.76	30082.91
610.92	29757.57
611.07	29575.01
611.23	29589.05
611.38	29605.44
611.54	29575.01
611.69	29687.36
611.84	29172.44
612.00	29179.46
612.15	29511.81
612.31	29785.66
612.46	29312.87
612.62	29661.61
612.77	29359.68
612.92	29947.15
613.08	29404.15
613.23	29514.16
613.39	29497.77
613.54	29046.05
613.69	29589.05
613.85	29465.00
614.00	29390.11
614.15	29734.17
614.31	29350.32
614.46	29610.12
614.62	29537.56
614.77	29528.20
614.92	29432.24
615.08	29469.69
615.23	29661.61
615.38	29305.85
615.54	29090.52
615.69	29116.26
615.84	28924.34
616.00	29071.79
616.15	29198.18
616.30	29481.39
616.46	29383.09
616.61	29450.96
616.76	29675.65
616.92	29364.36
617.07	29516.50
617.22	29362.02
617.37	29046.05
617.53	29455.64
617.68	28804.97
617.83	29207.55
617.99	29118.60
618.14	29163.08
618.29	29041.37
618.45	29116.26
618.60	28669.22
618.75	28964.13
618.90	29443.94
619.06	29249.67
619.21	28996.90
619.36	28973.49
619.51	28704.33
619.67	28540.49
619.82	28636.45
619.97	28631.77
620.12	28645.82
620.28	28315.80
620.43	29179.46
620.58	28783.91
620.73	28615.39
620.89	28725.39
621.04	28673.90
621.19	28781.57
621.34	28758.16
621.49	28788.59
621.65	28608.37
621.80	28816.68
621.95	28268.99
622.10	28526.45
622.25	28369.63
622.41	28510.07
622.56	28456.23
622.71	28545.17
622.86	28538.15
623.01	28704.33
623.16	28339.21
623.32	28140.26
623.47	28556.88
623.62	28945.41
623.77	28238.56
623.92	28662.20
624.07	28032.60
624.23	28151.96
624.38	28559.22
624.53	28268.99
624.68	28524.11
624.83	28552.20
624.98	28837.74
625.13	28533.47
625.29	28386.02
625.44	28397.72
625.59	28418.78
625.74	28198.77
625.89	28056.00
626.04	28423.47
626.19	27679.18
626.34	28226.86
626.49	28194.09
626.65	27894.50
626.80	28046.64
626.95	28170.69
627.10	27978.76
627.25	28507.72
627.40	27964.72
627.55	27833.65
627.70	28109.83
627.85	27906.21
628.00	27655.77
628.15	27807.90
628.30	27828.97
628.45	27854.72
628.60	28056.00
628.76	27929.61
628.91	27564.49
629.06	27569.17
629.21	27833.65
629.36	27700.24
629.51	28072.39
629.66	27463.85
629.81	27812.59
629.96	27566.83
630.11	27690.88
630.26	27468.53
630.41	27365.54
630.56	27414.69
630.71	27653.43
630.86	27662.79
631.01	27599.60
631.16	27868.76
631.31	27594.92
631.46	27253.20
631.61	27730.67
631.76	27594.92
631.91	27468.53
632.06	27330.44
632.21	27683.86
632.36	27431.08
632.51	27264.90
632.66	27410.01
632.81	27035.53
632.96	27023.83
633.10	27400.65
633.25	27484.91
633.40	27552.79
633.55	27463.85
633.70	27145.53
633.85	27185.32
634.00	27435.76
634.15	27292.99
634.30	27208.73
634.45	27281.28
634.60	26979.36
634.75	27431.08
634.90	27351.50
635.05	27316.39
635.19	27442.78
635.34	27372.57
635.49	27274.26
635.64	27363.20
635.79	27201.71
635.94	27054.25
636.09	27180.64
636.24	27098.72
636.39	27161.92
636.53	27208.73
636.68	26745.30
636.83	27084.68
636.98	26899.78
637.13	27065.96
637.28	27152.55
637.43	26925.52
637.57	27019.14
637.72	27133.83
637.87	27084.68
638.02	27061.27
638.17	26897.44
638.32	27009.78
638.46	26834.24
638.61	26677.43
638.76	26927.86
638.91	26527.63
639.06	26429.33
639.20	26789.77
639.35	26806.16
639.50	26558.06
639.65	26808.50
639.80	26977.01
639.94	26541.68
640.09	26415.29
640.24	26583.80
640.39	26565.08
640.54	26801.47
640.68	26443.37
640.83	26356.77
640.98	26239.75
641.13	26239.75
641.27	26656.36
641.42	26469.12
641.57	26464.44
641.72	26916.16
641.86	26455.08
642.01	26167.19
642.16	26429.33
642.31	26279.54
642.45	26029.10
642.60	26022.08
642.75	26347.41
642.90	26019.74
643.04	25699.08
643.19	26373.16
643.34	26335.71
643.48	26052.50
643.63	26562.74
643.78	26118.04
643.93	26441.03
644.07	26340.39
644.22	26120.38
644.37	26305.28
644.51	26396.56
644.66	26155.49
644.81	25858.24
644.95	25790.36
645.10	25795.04
645.25	26115.70
645.39	25834.83
645.54	26164.85
645.69	25928.45
645.83	26096.97
645.98	25879.30
646.13	26024.42
646.27	26118.04
646.42	25841.85
646.57	25839.51
646.71	25823.13
646.86	25830.15
647.00	26164.85
647.15	25916.75
647.30	25575.03
647.44	25582.06
647.59	25282.47
647.74	25404.17
647.88	25425.24
648.03	25404.17
648.17	25685.04
648.32	25752.91
648.47	26022.08
648.61	25846.54
648.76	25942.50
648.90	25577.37
649.05	25565.67
649.20	25710.78
649.34	25600.78
649.49	25326.94
649.63	25443.96
649.78	25287.15
649.92	25362.04
650.07	25565.67
650.21	24999.26
650.36	25340.98
650.51	25392.47
650.65	25425.24
650.80	25467.37
650.94	25640.57
651.09	25373.75
651.23	25273.10
651.38	25228.63
651.52	25472.05
651.67	25132.67
651.81	25371.41
651.96	25425.24
652.10	25270.76
652.25	25209.91
652.39	25312.89
652.54	25193.53
652.68	24882.24
652.83	25399.49
652.97	25263.74
653.12	25376.09
653.26	25083.52
653.41	25289.49
653.55	24957.13
653.70	25144.38
653.84	24854.15
653.99	24858.83
654.13	25158.42
654.27	24915.00
654.42	24889.26
654.56	24950.11
654.71	25025.01
654.85	25139.69
655.00	25165.44
655.14	25029.69
655.29	24905.64
655.43	25062.46
655.57	24666.91
655.72	24765.21
655.86	25191.19
656.01	24673.93
656.15	24915.00
656.30	24680.95
656.44	24725.42
656.58	24875.21
656.73	24678.61
656.87	24587.33
657.01	24444.56
657.16	24615.41
657.30	24711.38
657.45	24842.45
657.59	24797.98
657.73	24823.72
657.88	24690.31
658.02	24659.88
658.16	24751.17
658.31	24608.39
658.45	24130.92
658.60	24215.18
658.74	24266.67
658.88	24364.98
659.03	24159.01
659.17	24390.72
659.31	24533.50
659.46	24531.15
659.60	24489.03
659.74	24404.77
659.89	24166.03
660.03	24238.59
660.17	24388.38
660.32	23789.20
660.46	23791.55
660.60	24163.69
660.74	23983.47
660.89	24018.58
661.03	23740.05
661.17	23983.47
661.32	24084.11
661.46	23985.81
661.60	24049.00
661.74	24341.57
661.89	24046.66
662.03	23896.87
662.17	23718.99
662.31	23747.08
662.46	23620.69
662.60	23714.31
662.74	23784.52
662.88	23648.77
663.03	23723.67
663.17	23220.45
663.31	23131.51
663.45	23489.62
663.60	23332.80
663.74	23278.97
663.88	23438.12
664.02	23358.55
664.17	23711.97
664.31	23166.62
664.45	23433.44
664.59	23199.39
664.73	23318.76
664.88	23250.88
665.02	22771.07
665.16	23023.85
665.30	22757.03
665.44	22958.31
665.59	22616.60
665.73	23019.17
665.87	22670.43
666.01	22883.42
666.15	23262.58
666.29	22946.61
666.44	22686.81
666.58	22504.25
666.72	22518.29
666.86	22871.72
667.00	22724.26
667.14	22625.96
667.28	22471.48
667.43	22684.47
667.57	22541.70
667.71	22614.26
667.85	22450.42
667.99	22466.80
668.13	22422.33
668.27	22183.60
668.41	22537.02
668.56	22141.47
668.70	22438.72
668.84	21994.01
668.98	22604.89
669.12	22452.76
669.26	22347.44
669.40	22328.71
669.54	22106.36
669.68	22075.93
669.82	21900.39
669.96	21874.65
670.10	21830.18
670.25	21914.44
670.39	21724.85
670.53	21923.80
670.67	21481.44
670.81	21818.47
670.95	22104.02
671.09	21511.86
671.23	21757.62
671.37	21675.70
671.51	21792.73
671.65	21759.96
671.79	21687.40
671.93	21329.30
672.07	21448.67
672.21	21273.13
672.35	21326.96
672.49	21598.46
672.63	21191.21
672.77	21448.67
672.91	21383.13
673.05	21259.09
673.19	21205.25
673.33	20905.66
673.47	21240.36
673.61	21301.22
673.75	20999.29
673.89	21029.71
674.03	21177.17
674.17	20893.96
674.31	20844.81
674.45	20879.92
674.59	20664.59
674.73	20657.57
674.87	20737.15
675.01	20603.74
675.15	20439.90
675.29	20905.66
675.43	20463.30
675.56	20318.19
675.70	20507.77
675.84	20114.56
675.98	19810.29
676.12	20266.70
676.26	20512.46
676.40	20624.80
676.54	20283.08
676.68	19981.15
676.82	20018.60
676.96	20025.62
677.10	19882.85
677.23	20161.37
677.37	19442.83
677.51	19716.67
677.65	19779.87
677.79	19484.96
677.93	19674.54
678.07	19541.13
678.21	19206.44
678.34	19480.28
678.48	19236.86
678.62	19487.30
678.76	19002.81
678.90	19190.05
679.04	19157.28
679.18	19260.27
679.31	19110.47
679.45	18789.82
679.59	18672.79
679.73	18506.62
679.87	18389.59
680.00	18342.78
680.14	18867.06
680.28	18368.52
680.42	18574.49
680.56	18436.40
680.70	18513.64
680.83	18501.93
680.97	18530.02
681.11	18700.88
681.25	18434.06
681.39	18267.88
681.52	17940.21
681.66	18228.09
681.80	17900.42
681.94	18141.49
682.07	18033.83
682.21	17972.97
682.35	17706.15
682.49	17942.55
682.62	17689.77
682.76	17481.46
682.90	17626.57
683.04	17795.09
683.17	17642.96
683.31	17563.38
683.45	17818.50
683.59	17242.73
683.72	17446.35
683.86	17614.87
684.00	17329.33
684.13	17146.76
684.27	17130.38
684.41	16975.91
684.55	16926.75
684.68	16931.44
684.82	16903.35
684.96	16685.68
685.09	16835.47
685.23	16798.02
685.37	16439.92
685.50	16475.03
685.64	17011.01
685.78	16783.98
685.91	16819.09
686.05	16617.80
686.19	16397.79
686.32	16688.02
686.46	16343.96
686.60	16217.57
686.73	16161.40
686.87	16198.85
687.01	16128.63
687.14	16016.29
687.28	16081.82
687.42	15990.54
687.55	15793.94
687.69	15950.75
687.82	15784.57
687.96	15784.57
688.10	15555.20
688.23	15777.55
688.37	15484.98
688.50	15651.16
688.64	15658.18
688.78	15449.88
688.91	15529.45
689.05	15344.55
689.18	15220.50
689.32	14789.85
689.46	15166.67
689.59	14785.16
689.73	15033.26
689.86	14827.29
690.00	15192.42
690.13	14991.13
690.27	14897.51
690.41	15030.92
690.54	14588.56
690.68	14677.50
690.81	14548.77
690.95	14689.20
691.08	14801.55
691.22	14743.03
691.35	14452.81
691.49	14539.41
691.62	14595.58
691.76	14298.33
691.89	13965.98
692.03	14134.50
692.16	14059.60
692.30	14160.24
692.43	13973.00
692.57	14026.83
692.70	14057.26
692.84	13781.07
692.97	13790.44
693.11	14047.90
693.24	13809.16
693.38	13881.72
693.51	13640.64
693.65	13411.27
693.78	13455.74
693.92	13481.49
694.05	13703.84
694.19	13671.07
694.32	13476.80
694.45	13170.19
694.59	13083.59
694.72	13048.49
694.86	12989.97
694.99	12975.93
695.13	12982.95
695.26	12922.10
695.39	13020.40
695.53	13048.49
695.66	12903.37
695.80	12851.88
695.93	12802.73
696.07	12704.43
696.20	12844.86
696.33	12872.95
696.47	12624.85
696.60	12552.29
696.73	12652.94
696.87	12695.07
697.00	12273.77
697.14	12334.62
697.27	11847.79
697.40	12231.64
697.54	12248.02
697.67	12222.28
697.80	11967.16
697.94	11962.48
698.07	11786.94
698.21	11548.20
698.34	11903.96
698.47	12042.06
698.61	11705.02
698.74	11831.41
698.87	11782.26
699.01	11749.49
699.14	11538.84
699.27	11674.59
699.40	11454.58
699.54	11501.39
699.67	11445.22
699.80	11545.86
699.94	11339.90
700.07	11211.17
700.20	10958.39
700.34	11129.25
700.47	10967.75
700.60	10897.53
700.73	11265.00
700.87	10937.32
701.00	10850.72
701.13	10878.81
701.26	11000.52
701.40	10824.98
701.53	10810.93
701.66	10700.93
701.79	10539.43
701.93	10490.28
702.06	10675.18
702.19	10457.51
702.32	10523.05
702.46	10401.34
702.59	10335.81
702.72	10228.14
702.85	10012.81
702.99	10167.29
703.12	10059.62
703.25	10054.94
703.38	10200.05
703.51	10211.76
703.65	10260.91
703.78	10012.81
703.91	10078.35
704.04	9958.98
704.17	9947.28
704.31	9685.14
704.44	9778.76
704.57	9888.76
704.70	9678.12
704.83	9631.30
704.96	9654.71
705.10	9376.19
705.23	9488.53
>>>>>End Processed Spectral Data<<<<<
