SpectraSuite Data File
++++++++++++++++++++++++++++++++++++
Date: Fri Oct 18 13:58:19 GMT-05:00 2013
User: bianchi
Dark Spectrum Present: No
Reference Spectrum Present: No
Number of Sampled Component Spectra: 1
Spectrometers: USB2+H05261
Integration Time (usec): 50000 (USB2+H05261)
Spectra Averaged: 1 (USB2+H05261)
Boxcar Smoothing: 0 (USB2+H05261)
Correct for Electrical Dark: No (USB2+H05261)
Strobe/Lamp Enabled: No (USB2+H05261)
Correct for Detector Non-linearity: No (USB2+H05261)
Correct for Stray Light: No (USB2+H05261)
Number of Pixels in Processed Spectrum: 2048
>>>>>Begin Processed Spectral Data<<<<<
365.73	0.00
365.92	0.00
366.12	0.00
366.32	0.00
366.52	0.00
366.72	0.00
366.91	0.00
367.11	0.00
367.31	0.00
367.51	0.00
367.70	0.00
367.90	0.00
368.10	0.00
368.30	0.00
368.49	0.00
368.69	0.00
368.89	0.00
369.09	0.00
369.28	0.00
369.48	0.00
369.68	0.00
369.87	0.00
370.07	0.00
370.27	0.00
370.47	0.00
370.66	77.24
370.86	98.30
371.06	49.15
371.25	149.79
371.45	117.03
371.65	128.73
371.84	196.60
372.04	156.82
372.24	161.50
372.44	173.20
372.63	198.95
372.83	215.33
373.03	117.03
373.22	196.60
373.42	191.92
373.62	138.09
373.81	224.69
374.01	238.73
374.21	252.78
374.40	299.59
374.60	327.68
374.79	231.71
374.99	241.08
375.19	229.37
375.38	262.14
375.58	234.05
375.78	301.93
375.97	217.67
376.17	276.18
376.37	294.91
376.56	294.91
376.76	194.26
376.95	220.01
377.15	255.12
377.35	283.20
377.54	250.44
377.74	252.78
377.93	308.95
378.13	231.71
378.33	339.38
378.52	311.29
378.72	297.25
378.91	245.76
379.11	262.14
379.31	266.82
379.50	299.59
379.70	287.89
379.89	245.76
380.09	257.46
380.28	337.04
380.48	299.59
380.68	306.61
380.87	304.27
381.07	367.46
381.26	325.33
381.46	306.61
381.65	234.05
381.85	344.06
382.04	327.68
382.24	262.14
382.43	280.86
382.63	351.08
382.83	346.40
383.02	372.15
383.22	393.21
383.41	351.08
383.61	297.25
383.80	423.64
384.00	376.83
384.19	339.38
384.39	346.40
384.58	325.33
384.78	435.34
384.97	374.49
385.17	346.40
385.36	404.91
385.56	348.74
385.75	425.98
385.95	411.93
386.14	409.59
386.34	404.91
386.53	386.19
386.72	337.04
386.92	402.57
387.11	414.27
387.31	355.76
387.50	423.64
387.70	400.23
387.89	479.81
388.09	461.09
388.28	430.66
388.48	505.56
388.67	444.70
388.86	416.62
389.06	498.53
389.25	421.30
389.45	479.81
389.64	498.53
389.84	416.62
390.03	547.69
390.22	482.15
390.42	533.64
390.61	564.07
390.81	423.64
391.00	528.96
391.19	468.11
391.39	477.47
391.58	512.58
391.78	550.03
391.97	550.03
392.16	458.74
392.36	498.53
392.55	540.66
392.75	557.05
392.94	524.28
393.13	582.79
393.33	496.19
393.52	503.22
393.71	559.39
393.91	552.37
394.10	561.73
394.29	559.39
394.49	585.13
394.68	578.11
394.88	624.92
395.07	664.71
395.26	573.43
395.46	624.92
395.65	655.35
395.84	622.58
396.04	723.23
396.23	676.41
396.42	603.86
396.62	638.97
396.81	620.24
397.00	596.84
397.19	638.97
397.39	692.80
397.58	753.65
397.77	653.01
397.97	678.76
398.16	711.52
398.35	655.35
398.55	641.31
398.74	671.73
398.93	748.97
399.12	751.31
399.32	746.63
399.51	620.24
399.70	734.93
399.90	690.46
400.09	753.65
400.28	795.78
400.47	767.70
400.67	828.55
400.86	767.70
401.05	795.78
401.24	774.72
401.44	814.51
401.63	772.38
401.82	856.64
402.01	830.89
402.21	863.66
402.40	741.95
402.59	802.80
402.78	819.19
402.97	816.85
403.17	819.19
403.36	847.27
403.55	877.70
403.74	884.72
403.93	1013.45
404.13	875.36
404.32	936.21
404.51	957.28
404.70	943.24
404.89	905.79
405.09	877.70
405.28	961.96
405.47	896.43
405.66	1025.15
405.85	968.98
406.05	980.68
406.24	889.40
406.43	943.24
406.62	1086.01
406.81	1022.81
407.00	938.55
407.20	952.60
407.39	1090.69
407.58	1006.43
407.77	1135.16
407.96	1032.18
408.15	1081.33
408.34	1057.92
408.54	1196.01
408.73	1078.99
408.92	1151.54
409.11	1132.82
409.30	1086.01
409.49	1102.39
409.68	1081.33
409.87	1076.65
410.07	1170.27
410.26	1188.99
410.45	1125.80
410.64	1186.65
410.83	1174.95
411.02	1245.16
411.21	1249.85
411.40	1151.54
411.59	1376.24
411.78	1329.42
411.98	1385.60
412.17	1228.78
412.36	1268.57
412.55	1282.61
412.74	1418.36
412.93	1380.92
413.12	1350.49
413.31	1385.60
413.50	1245.16
413.69	1497.94
413.88	1455.81
414.07	1479.22
414.26	1490.92
414.45	1483.90
414.64	1432.41
414.83	1397.30
415.02	1455.81
415.22	1511.99
415.41	1519.01
415.60	1542.41
415.79	1570.50
415.98	1526.03
416.17	1577.52
416.36	1654.76
416.55	1736.68
416.74	1614.97
416.93	1671.14
417.12	1664.12
417.31	1636.03
417.50	1722.63
417.69	1762.42
417.88	1610.29
418.07	1701.57
418.26	1724.97
418.45	1783.49
418.64	1790.51
418.83	1783.49
419.02	1851.36
419.21	1825.62
419.39	1804.55
419.58	1797.53
419.77	1757.74
419.96	1860.73
420.15	1778.81
420.34	1865.41
420.53	1905.20
420.72	1928.60
420.91	1935.62
421.10	2005.84
421.29	2001.16
421.48	1898.17
421.67	2010.52
421.86	1982.43
422.05	1959.03
422.24	1980.09
422.43	1870.09
422.61	1956.69
422.80	2033.93
422.99	2054.99
423.18	1970.73
423.37	1933.28
423.56	2064.35
423.75	1998.82
423.94	2024.56
424.13	1909.88
424.32	1937.96
424.50	2057.33
424.69	2054.99
424.88	2094.78
425.07	2010.52
425.26	2108.82
425.45	2047.97
425.64	2083.08
425.83	2003.50
426.01	2181.38
426.20	2047.97
426.39	2045.63
426.58	2003.50
426.77	2029.24
426.96	2221.17
427.15	2148.61
427.33	2069.03
427.52	2045.63
427.71	2157.97
427.90	2064.35
428.09	2223.51
428.28	2242.23
428.46	2239.89
428.65	2165.00
428.84	2289.04
429.03	2204.78
429.22	2279.68
429.40	2160.31
429.59	2284.36
429.78	2165.00
429.97	2265.64
430.16	2244.57
430.34	2228.19
430.53	2389.69
430.72	2307.77
430.91	2303.09
431.10	2345.22
431.28	2260.96
431.47	2415.43
431.66	2415.43
431.85	2415.43
432.03	2431.82
432.22	2424.80
432.41	2450.54
432.60	2562.89
432.79	2420.11
432.97	2420.11
433.16	2455.22
433.35	2506.71
433.54	2441.18
433.72	2483.31
433.91	2590.97
434.10	2612.04
434.28	2513.74
434.47	2434.16
434.66	2567.57
434.85	2668.21
435.03	2588.63
435.22	2576.93
435.41	2789.92
435.59	2663.53
435.78	2576.93
435.97	2593.31
436.16	2747.79
436.34	2752.47
436.53	2717.36
436.72	2724.38
436.90	2682.25
437.09	2605.02
437.28	2658.85
437.46	2658.85
437.65	2731.41
437.84	2743.11
438.02	2855.45
438.21	2843.75
438.40	2818.00
438.58	2946.73
438.77	2897.58
438.96	2834.39
439.14	2970.14
439.33	3014.61
439.52	2890.56
439.70	2972.48
439.89	3066.10
440.08	2995.89
440.26	3169.09
440.45	3119.93
440.63	3281.43
440.82	3047.38
441.01	3115.25
441.19	3110.57
441.38	3178.45
441.57	3133.98
441.75	3215.90
441.94	3300.16
442.12	3190.15
442.31	3339.94
442.50	3412.50
442.68	3276.75
442.87	3349.31
443.05	3433.57
443.24	3351.65
443.43	3419.52
443.61	3414.84
443.80	3398.46
443.98	3405.48
444.17	3412.50
444.35	3435.91
444.54	3438.25
444.73	3435.91
444.91	3361.01
445.10	3471.01
445.28	3421.86
445.47	3501.44
445.65	3356.33
445.84	3534.21
446.02	3534.21
446.21	3482.72
446.39	3487.40
446.58	3538.89
446.77	3475.70
446.95	3478.04
447.14	3496.76
447.32	3557.61
447.51	3522.51
447.69	3449.95
447.88	3552.93
448.06	3536.55
448.25	3445.27
448.43	3691.02
448.62	3475.70
448.80	3440.59
448.99	3618.47
449.17	3625.49
449.36	3634.85
449.54	3698.05
449.73	3894.65
449.91	3585.70
450.10	3700.39
450.28	3744.86
450.46	3756.56
450.65	3798.69
450.83	3768.26
451.02	3705.07
451.20	3850.18
451.39	3889.97
451.57	3810.39
451.76	3665.28
451.94	3971.89
452.13	3932.10
452.31	3882.95
452.49	3953.16
452.68	3904.01
452.86	3812.73
453.05	4051.47
453.23	4105.30
453.42	3904.01
453.60	3824.44
453.78	3950.82
453.97	3892.31
454.15	3962.53
454.34	3936.78
454.52	4201.26
454.70	4028.06
454.89	3943.80
455.07	3957.85
455.26	4049.13
455.44	4063.17
455.62	4124.02
455.81	4009.34
455.99	4170.83
456.17	4203.60
456.36	4191.90
456.54	4170.83
456.73	4259.78
456.91	4409.57
457.09	4231.69
457.28	4332.33
457.46	4257.43
457.64	4505.53
457.83	4304.25
458.01	4299.56
458.19	4437.66
458.38	4297.22
458.56	4400.21
458.74	4521.92
458.93	4456.38
459.11	4372.12
459.29	4306.59
459.48	4596.81
459.66	4432.97
459.84	4550.00
460.03	4606.17
460.21	4648.30
460.39	4592.13
460.57	4468.08
460.76	4648.30
460.94	4692.77
461.12	4587.45
461.31	4580.43
461.49	4526.60
461.67	4664.69
461.85	4681.07
462.04	4854.27
462.22	4957.25
462.40	4816.82
462.59	4842.57
462.77	4854.27
462.95	4809.80
463.13	4734.90
463.32	4858.95
463.50	4727.88
463.68	5022.79
463.86	4992.36
464.05	4781.71
464.23	5011.09
464.41	4922.15
464.59	4718.52
464.78	4997.04
464.96	5020.45
465.14	4863.63
465.32	5029.81
465.50	5123.43
465.69	5022.79
465.87	4887.04
466.05	5025.13
466.23	5032.15
466.41	4990.02
466.60	5132.79
466.78	4973.64
466.96	5177.26
467.14	5039.17
467.32	5011.09
467.51	5156.20
467.69	5025.13
467.87	5263.86
468.05	5247.48
468.23	5179.61
468.41	5104.71
468.60	5259.18
468.78	5195.99
468.96	5233.44
469.14	5266.21
469.32	5235.78
469.50	5228.76
469.69	5341.10
469.87	5298.97
470.05	5366.85
470.23	5345.78
470.41	5357.49
470.59	5549.41
470.77	5336.42
470.95	5437.06
471.14	5547.07
471.32	5568.13
471.50	5614.95
471.68	5645.37
471.86	5638.35
472.04	5563.45
472.22	5657.07
472.40	5713.25
472.58	5750.70
472.77	5813.89
472.95	5783.46
473.13	5968.37
473.31	5870.06
473.49	5790.49
473.67	6038.58
473.85	5926.24
474.03	6057.31
474.21	6045.60
474.39	6157.95
474.57	6153.27
474.75	6207.10
474.93	6012.84
475.12	6326.47
475.30	6209.44
475.48	6263.27
475.66	6249.23
475.84	6282.00
476.02	6253.91
476.20	6260.93
476.38	6492.65
476.56	6717.34
476.74	6752.45
476.92	6588.61
477.10	6406.05
477.28	6750.10
477.46	6532.44
477.64	6764.15
477.82	6705.63
478.00	6885.86
478.18	7040.33
478.36	6913.94
478.54	7019.27
478.72	7063.74
478.90	7164.38
479.08	7169.06
479.26	7140.97
479.44	7246.30
479.62	7290.77
479.80	7379.71
479.98	7522.48
480.16	7571.63
480.34	7440.56
480.52	7627.81
480.70	7754.19
480.88	7641.85
481.06	7868.88
481.24	7789.30
481.41	7936.76
481.59	8032.72
481.77	7838.45
481.95	7962.50
482.13	8119.32
482.31	8142.72
482.49	8301.88
482.67	8210.60
482.85	8297.20
483.03	8456.36
483.21	8489.12
483.39	8641.26
483.57	8606.15
483.74	8741.90
483.92	8683.39
484.10	8973.61
484.28	9027.45
484.46	9092.98
484.64	9146.81
484.82	8865.95
485.00	9163.20
485.18	9282.56
485.35	9535.34
485.53	9577.47
485.71	9322.35
485.89	9603.22
486.07	9628.96
486.25	9479.17
486.43	9647.69
486.61	9769.40
486.78	9980.04
486.96	9834.93
487.14	9891.10
487.32	10167.29
487.50	10211.76
487.68	10139.20
487.85	10377.94
488.03	10310.06
488.21	10740.72
488.39	10572.20
488.57	10778.17
488.75	10745.40
488.92	10874.13
489.10	10855.40
489.28	11007.54
489.46	11330.53
489.64	10972.43
489.81	11232.23
489.99	11236.91
490.17	11323.51
490.35	11396.07
490.53	11716.72
490.70	11885.24
490.88	11585.65
491.06	11892.26
491.24	11880.56
491.41	12067.80
491.59	12037.38
491.77	12056.10
491.95	12329.94
492.13	12386.12
492.30	12400.16
492.48	12259.73
492.66	12393.14
492.84	12650.60
493.01	12603.78
493.19	12681.02
493.37	12816.77
493.54	12720.81
493.72	13242.75
493.90	12936.14
494.08	12933.80
494.25	13317.65
494.43	13329.35
494.61	13207.64
494.79	13399.57
494.96	13444.04
495.14	13516.59
495.32	13839.59
495.49	13556.38
495.67	13633.62
495.85	13893.42
496.02	13696.82
496.20	14026.83
496.38	14174.28
496.55	14153.22
496.73	14377.91
496.91	14225.78
497.09	14443.45
497.26	14279.61
497.44	14565.15
497.62	14384.93
497.79	14712.61
497.97	14480.89
498.14	14743.03
498.32	15061.35
498.50	14824.95
498.67	14951.34
498.85	14932.62
499.03	15140.93
499.20	15021.56
499.38	15295.40
499.56	15407.75
499.73	15164.33
499.91	15232.21
500.08	15634.78
500.26	15379.66
500.44	15255.61
500.61	15751.81
500.79	15768.19
500.97	15899.26
501.14	15913.30
501.32	16037.35
501.49	15789.25
501.67	15880.53
501.84	15669.89
502.02	16341.62
502.20	16020.97
502.37	16362.69
502.55	16128.63
502.72	16280.77
502.90	16252.68
503.07	16297.15
503.25	16475.03
503.43	16463.33
503.60	16517.16
503.78	16760.58
503.95	16732.49
504.13	16662.27
504.30	16629.51
504.48	16659.93
504.65	16725.47
504.83	16835.47
505.01	17172.51
505.18	17095.27
505.36	17422.95
505.53	17172.51
505.71	17207.62
505.88	17170.17
506.06	16774.62
506.23	17390.18
506.41	17336.35
506.58	17448.69
506.76	17710.83
506.93	17689.77
507.11	17745.94
507.28	17476.78
507.46	17675.73
507.63	17673.39
507.81	17921.48
507.98	17895.74
508.16	17858.29
508.33	18087.66
508.50	18038.51
508.68	17886.37
508.85	18141.49
509.03	18214.05
509.20	18431.72
509.38	18326.39
509.55	18551.09
509.73	18562.79
509.90	18525.34
510.08	18490.23
510.25	18401.29
510.42	18548.75
510.60	18707.90
510.77	19042.60
510.95	18696.20
511.12	18897.49
511.30	18731.31
511.47	18941.96
511.64	18808.54
511.82	19278.99
511.99	19276.65
512.17	19021.53
512.34	18911.53
512.51	19543.47
512.69	19225.16
512.86	19115.16
513.04	19707.31
513.21	19363.25
513.38	19456.87
513.56	19665.18
513.73	19735.40
513.90	19531.77
514.08	19616.03
514.25	19576.24
514.43	19609.01
514.60	19988.18
514.77	19882.85
514.95	19939.02
515.12	19585.60
515.29	19829.02
515.47	20074.77
515.64	19960.09
515.81	19857.10
515.99	20446.92
516.16	20463.30
516.33	20563.95
516.51	20781.62
516.68	20577.99
516.85	20648.21
517.03	20620.12
517.20	20711.40
517.37	20748.85
517.54	20793.32
517.72	20755.87
517.89	20943.11
518.06	20891.62
518.24	20673.95
518.41	20772.25
518.58	21069.50
518.75	20842.47
518.93	21149.08
519.10	20774.60
519.27	21289.51
519.45	20872.90
519.62	21046.10
519.79	21401.86
519.96	21104.61
520.14	21350.37
520.31	21060.14
520.48	21586.76
520.65	21270.79
520.83	21443.99
521.00	21312.92
521.17	21376.11
521.34	21652.30
521.52	21750.60
521.69	21855.92
521.86	21837.20
522.03	21919.12
522.20	21607.83
522.38	21970.61
522.55	21888.69
522.72	22033.80
522.89	21727.19
523.07	22541.70
523.24	22188.28
523.41	22525.32
523.58	22040.82
523.75	22522.98
523.92	22274.88
524.10	22522.98
524.27	22401.27
524.44	22483.19
524.61	22735.96
524.78	22522.98
524.96	22522.98
525.13	22448.08
525.30	22663.41
525.47	22869.37
525.64	22803.84
525.81	22895.12
525.98	23070.66
526.16	23042.57
526.33	22916.19
526.50	23089.38
526.67	22967.68
526.84	22778.09
527.01	22766.39
527.18	22955.97
527.36	23105.77
527.53	23218.11
527.70	23232.16
527.87	23529.41
528.04	23168.96
528.21	23426.42
528.38	23171.30
528.55	23370.25
528.72	23475.57
528.89	23470.89
529.07	23569.19
529.24	23377.27
529.41	23756.44
529.58	23506.00
529.75	23857.08
529.92	23529.41
530.09	23662.82
530.26	23744.73
530.43	24004.53
530.60	23714.31
530.77	23653.45
530.94	24056.03
531.11	23716.65
531.28	23693.24
531.46	23833.68
531.63	24084.11
531.80	23992.83
531.97	24332.21
532.14	24643.50
532.31	23864.10
532.48	24835.42
532.65	24245.61
532.82	24025.60
532.99	24226.89
533.16	24044.32
533.33	24512.43
533.50	24561.58
533.67	24376.68
533.84	24322.85
534.01	24432.85
534.18	24332.21
534.35	24732.44
534.52	24596.69
534.69	24971.18
534.86	24898.62
535.03	24751.17
535.20	24666.91
535.37	25113.95
535.54	24608.39
535.71	24828.40
535.88	24687.97
536.05	24805.00
536.22	24915.00
536.38	25013.31
536.55	25146.72
536.72	25184.16
536.89	24889.26
537.06	25376.09
537.23	25200.55
537.40	24795.64
537.57	25088.20
537.74	25736.53
537.91	25530.56
538.08	25631.21
538.25	25434.60
538.42	25350.34
538.59	25088.20
538.75	25507.16
538.92	25436.94
539.09	25979.95
539.26	25366.73
539.43	25507.16
539.60	25497.80
539.77	25652.27
539.94	25481.41
540.11	25710.78
540.28	25628.87
540.44	25687.38
540.61	25617.16
540.78	25549.29
540.95	25898.03
541.12	25614.82
541.29	25867.60
541.46	25827.81
541.62	25820.79
541.79	25528.22
541.96	25783.34
542.13	26122.72
542.30	26265.49
542.47	26092.29
542.63	26064.21
542.80	26525.29
542.97	26735.94
543.14	26647.00
543.31	26473.80
543.48	26263.15
543.64	26703.17
543.81	26892.76
543.98	26899.78
544.15	26462.10
544.32	26831.90
544.48	26815.52
544.65	26412.95
544.82	26677.43
544.99	26448.05
545.16	26778.07
545.32	26307.62
545.49	27026.17
545.66	27353.84
545.83	27075.32
546.00	26988.72
546.16	26881.05
546.33	26918.50
546.50	26665.72
546.67	26965.31
546.83	26745.30
547.00	26953.61
547.17	26848.29
547.34	27248.52
547.50	27426.40
547.67	27250.86
547.84	27087.02
548.00	27213.41
548.17	27346.82
548.34	27171.28
548.51	27737.69
548.67	27793.86
548.84	27386.61
549.01	27782.16
549.18	26967.65
549.34	27363.20
549.51	27178.30
549.68	27084.68
549.84	27398.31
550.01	27487.25
550.18	27122.13
550.34	27690.88
550.51	27630.02
550.68	27810.25
550.84	27384.27
551.01	27634.71
551.18	27412.35
551.34	27503.64
551.51	27353.84
551.68	28056.00
551.84	27871.10
552.01	27803.22
552.18	28240.90
552.34	27688.54
552.51	28306.44
552.68	27906.21
552.84	27903.87
553.01	27988.13
553.18	27798.54
553.34	27695.56
553.51	28264.31
553.67	28198.77
553.84	27997.49
554.01	28379.00
554.17	28233.88
554.34	27711.94
554.51	27943.66
554.67	28144.94
554.84	27908.55
555.00	28315.80
555.17	28044.30
555.33	28512.41
555.50	28229.20
555.67	28741.78
555.83	28716.03
556.00	28173.03
556.16	28673.90
556.33	28140.26
556.50	28467.94
556.66	28837.74
556.83	28336.87
556.99	28577.94
557.16	28718.37
557.32	28414.10
557.49	29097.54
557.65	28694.97
557.82	28411.76
557.98	28407.08
558.15	28643.48
558.32	28802.63
558.48	28631.77
558.65	29184.14
558.81	28868.17
558.98	28758.16
559.14	28739.44
559.31	28748.80
559.47	28456.23
559.64	29427.56
559.80	28725.39
559.97	28896.25
560.13	28627.09
560.30	29055.41
560.46	28580.28
560.63	28790.93
560.79	28884.55
560.96	29057.75
561.12	28652.84
561.29	29067.11
561.45	28954.77
561.61	29280.10
561.78	28973.49
561.94	29362.02
562.11	29240.31
562.27	28989.88
562.44	28982.85
562.60	28723.05
562.77	29237.97
562.93	28973.49
563.10	29570.33
563.26	29425.22
563.42	29450.96
563.59	29242.65
563.75	29209.89
563.92	29319.89
564.08	29097.54
564.24	28966.47
564.41	28898.59
564.57	29193.50
564.74	29186.48
564.90	29441.60
565.07	29254.36
565.23	29563.31
565.39	29219.25
565.56	29352.66
565.72	29483.73
565.88	29523.52
566.05	28950.09
566.21	29053.07
566.38	29268.40
566.54	29703.74
566.70	29469.69
566.87	29823.11
567.03	29577.35
567.19	29799.70
567.36	29694.38
567.52	29399.47
567.68	29898.00
567.85	29582.03
568.01	29378.40
568.17	29221.59
568.34	29717.78
568.50	29589.05
568.66	29493.09
568.83	29813.74
568.99	29642.88
569.15	29827.79
569.32	29591.39
569.48	29193.50
569.64	29427.56
569.81	29916.73
569.97	29586.71
570.13	29755.23
570.30	29357.34
570.46	29790.34
570.62	29769.27
570.78	29495.43
570.95	29553.94
571.11	29432.24
571.27	29394.79
571.43	29336.27
571.60	29750.55
571.76	29523.52
571.92	29736.51
572.09	30125.04
572.25	29921.41
572.41	29617.14
572.57	29680.33
572.74	29539.90
572.90	29301.17
573.06	29883.96
573.22	29546.92
573.38	29638.20
573.55	30012.69
573.71	29621.82
573.87	29865.24
574.03	29886.30
574.20	29851.19
574.36	29570.33
574.52	29635.86
574.68	29708.42
574.84	29912.05
575.01	29802.04
575.17	30024.39
575.33	29930.77
575.49	29589.05
575.65	29839.49
575.82	29776.30
575.98	29612.46
576.14	30043.12
576.30	29701.40
576.46	29619.48
576.62	29865.24
576.79	30008.01
576.95	29951.84
577.11	29745.87
577.27	30043.12
577.43	29853.53
577.59	30211.64
577.75	29881.62
577.92	29825.45
578.08	30059.50
578.24	29607.78
578.40	29848.85
578.56	29560.97
578.72	30127.38
578.88	30361.43
579.04	30118.01
579.21	30073.54
579.37	30155.46
579.53	30066.52
579.69	29694.38
579.85	29879.28
580.01	30316.96
580.17	29450.96
580.33	29986.94
580.49	29766.93
580.65	29905.02
580.82	30143.76
580.98	30295.89
581.14	30387.18
581.30	30548.67
581.46	30108.65
581.62	30087.59
581.78	30082.91
581.94	29893.32
582.10	29862.90
582.26	29813.74
582.42	30108.65
582.58	30394.20
582.74	29855.87
582.90	29914.39
583.06	30394.20
583.22	30354.41
583.38	29935.45
583.54	30199.93
583.70	29769.27
583.86	29788.00
584.02	30185.89
584.18	30000.99
584.34	29986.94
584.50	29975.24
584.66	30536.97
584.82	30038.44
584.98	30204.61
585.14	29830.13
585.30	30043.12
585.46	30162.48
585.62	30216.32
585.78	30316.96
585.94	29539.90
586.10	30059.50
586.26	30225.68
586.42	30768.68
586.58	30132.06
586.74	30122.69
586.90	30249.08
587.06	29949.50
587.22	30036.09
587.38	29851.19
587.54	30359.09
587.70	30132.06
587.86	30209.29
588.02	30426.96
588.18	30569.74
588.34	30230.36
588.49	30307.60
588.65	29989.28
588.81	29979.92
588.97	30319.30
589.13	30078.22
589.29	30340.36
589.45	30270.15
589.61	30401.22
589.77	30628.25
589.93	30473.78
590.08	30326.32
590.24	30740.60
590.40	30279.51
590.56	30646.97
590.72	30691.44
590.88	30242.06
591.04	30033.75
591.20	30466.75
591.35	30754.64
591.51	30866.98
591.67	30937.20
591.83	30663.36
591.99	30623.57
592.15	30448.03
592.31	30916.14
592.46	30391.86
592.62	30092.27
592.78	30349.73
592.94	30433.99
593.10	30361.43
593.26	30508.88
593.41	30455.05
593.57	30429.30
593.73	30590.80
593.89	30759.32
594.05	30735.92
594.20	30412.92
594.36	30436.33
594.52	30256.11
594.68	30572.08
594.84	30595.48
594.99	30946.56
595.15	30705.49
595.31	30866.98
595.47	30953.58
595.62	30934.86
595.78	30445.69
595.94	30794.43
596.10	30775.70
596.25	30246.74
596.41	30092.27
596.57	30368.45
596.73	30623.57
596.88	30267.81
597.04	30806.13
597.20	30764.00
597.36	31084.65
597.51	30993.37
597.67	30403.56
597.83	30675.06
597.99	30691.44
598.14	30824.86
598.30	30771.02
598.46	30333.34
598.61	30717.19
598.77	30691.44
598.93	30576.76
599.09	30976.99
599.24	30866.98
599.40	30890.39
599.56	30843.58
599.71	31075.29
599.87	31019.12
600.03	30937.20
600.18	30534.63
600.34	30565.06
600.50	30756.98
600.65	30714.85
600.81	30892.73
600.97	30794.43
601.12	30892.73
601.28	30878.69
601.44	31070.61
601.59	31213.38
601.75	30752.30
601.91	30698.47
602.06	30611.87
602.22	30785.07
602.37	30625.91
602.53	30663.36
602.69	31253.17
602.84	31136.15
603.00	30494.84
603.16	30487.82
603.31	31056.57
603.47	30841.24
603.62	30405.90
603.78	30836.56
603.94	30387.18
604.09	30909.11
604.25	30721.87
604.40	30661.02
604.56	30628.25
604.71	30876.35
604.87	30677.40
605.03	30871.67
605.18	30916.14
605.34	30672.72
605.49	30405.90
605.65	30609.53
605.80	30314.62
605.96	30794.43
606.12	30349.73
606.27	30590.80
606.43	30536.97
606.58	31225.09
606.74	30677.40
606.89	30497.18
607.05	30897.41
607.20	30822.51
607.36	30703.15
607.51	30665.70
607.67	30740.60
607.82	29883.96
607.98	30642.29
608.13	30689.10
608.29	30614.21
608.44	30471.43
608.60	30735.92
608.75	31527.02
608.91	30782.73
609.06	30260.79
609.22	30188.23
609.37	30164.82
609.53	30494.84
609.68	30543.99
609.84	30597.82
609.99	30490.16
610.15	30216.32
610.30	30333.34
610.46	30096.95
610.61	30504.20
610.76	30211.64
610.92	30281.85
611.07	30113.33
611.23	29968.22
611.38	30188.23
611.54	30197.59
611.69	30431.65
611.84	30162.48
612.00	30302.92
612.15	30181.21
612.31	30714.85
612.46	30302.92
612.62	30546.33
612.77	30085.25
612.92	30455.05
613.08	30129.72
613.23	30391.86
613.39	30103.97
613.54	30082.91
613.69	30333.34
613.85	30080.56
614.00	30143.76
614.15	30431.65
614.31	30139.08
614.46	30178.87
614.62	30307.60
614.77	30331.00
614.92	30295.89
615.08	30078.22
615.23	30464.41
615.38	30000.99
615.54	29788.00
615.69	30087.59
615.84	29710.76
616.00	29839.49
616.15	29654.59
616.30	30047.80
616.46	30038.44
616.61	29869.92
616.76	29970.56
616.92	30211.64
617.07	29905.02
617.22	29844.17
617.37	29579.69
617.53	29443.94
617.68	29813.74
617.83	29675.65
617.99	30024.39
618.14	29507.13
618.29	29970.56
618.45	29474.37
618.60	29776.30
618.75	29979.92
618.90	29553.94
619.06	30153.12
619.21	29818.42
619.36	29839.49
619.51	29434.58
619.67	29514.16
619.82	29291.80
619.97	29565.65
620.12	29071.79
620.28	29310.53
620.43	29582.03
620.58	29432.24
620.73	29729.48
620.89	29530.54
621.04	29888.64
621.19	29567.99
621.34	29628.84
621.49	29317.55
621.65	29507.13
621.80	29607.78
621.95	29312.87
622.10	29364.36
622.25	29638.20
622.41	29343.30
622.56	29530.54
622.71	29596.07
622.86	29172.44
623.01	29376.06
623.16	29355.00
623.32	29242.65
623.47	29240.31
623.62	29062.43
623.77	29294.14
623.92	29427.56
624.07	28781.57
624.23	29237.97
624.38	28964.13
624.53	29273.08
624.68	29528.20
624.83	29481.39
624.98	29495.43
625.13	28807.31
625.29	29319.89
625.44	29074.13
625.59	28786.25
625.74	28723.05
625.89	28823.70
626.04	28706.67
626.19	28561.56
626.34	28730.08
626.49	28856.46
626.65	28512.41
626.80	29158.39
626.95	28823.70
627.10	28884.55
627.25	28790.93
627.40	28587.30
627.55	28243.24
627.70	28709.01
627.85	28643.48
628.00	28407.08
628.15	28723.05
628.30	28439.85
628.45	28460.91
628.60	28561.56
628.76	28685.61
628.91	28730.08
629.06	28631.77
629.21	28512.41
629.36	28414.10
629.51	28603.69
629.66	28477.30
629.81	27861.74
629.96	28381.34
630.11	28428.15
630.26	28577.94
630.41	28180.05
630.56	28086.43
630.71	28414.10
630.86	28629.43
631.01	28276.01
631.16	28507.72
631.31	28126.22
631.46	28276.01
631.61	28027.92
631.76	28535.81
631.91	28189.41
632.06	27835.99
632.21	27978.76
632.36	28271.33
632.51	27873.44
632.66	27871.10
632.81	27655.77
632.96	28151.96
633.10	27922.59
633.25	28023.23
633.40	28034.94
633.55	28254.95
633.70	27480.23
633.85	27906.21
634.00	27866.42
634.15	28016.21
634.30	27997.49
634.45	27660.45
634.60	27946.00
634.75	27644.07
634.90	27899.19
635.05	27974.08
635.19	28088.77
635.34	27988.13
635.49	27765.78
635.64	27742.37
635.79	28119.20
635.94	27835.99
636.09	27868.76
636.24	27484.91
636.39	27812.59
636.53	27651.09
636.68	27674.49
636.83	27981.10
636.98	27634.71
637.13	27728.33
637.28	27442.78
637.43	27637.05
637.57	27716.62
637.72	27496.61
637.87	27770.46
638.02	27803.22
638.17	27555.13
638.32	27527.04
638.46	27580.87
638.61	27040.21
638.76	27136.17
638.91	27562.15
639.06	27384.27
639.20	27370.22
639.35	27218.09
639.50	27653.43
639.65	27381.93
639.80	27260.22
639.94	27410.01
640.09	27573.85
640.24	27201.71
640.39	27264.90
640.54	26920.84
640.68	27262.56
640.83	27442.78
640.98	26993.40
641.13	26953.61
641.27	27302.35
641.42	27129.15
641.57	26965.31
641.72	27218.09
641.86	27278.94
642.01	26831.90
642.16	27241.50
642.31	26815.52
642.45	26703.17
642.60	26682.11
642.75	26803.82
642.90	26492.52
643.04	26850.63
643.19	26958.29
643.34	27072.98
643.48	26642.32
643.63	26752.32
643.78	26883.39
643.93	26850.63
644.07	26916.16
644.22	26869.35
644.37	27110.43
644.51	26590.83
644.66	26876.37
644.81	26822.54
644.95	26686.79
645.10	26618.91
645.25	26370.82
645.39	26831.90
645.54	26621.25
645.69	26639.98
645.83	26574.44
645.98	26623.59
646.13	26551.04
646.27	26785.09
646.42	26574.44
646.57	26459.76
646.71	26658.70
646.86	26457.42
647.00	26483.16
647.15	26384.86
647.30	26338.05
647.44	26242.09
647.59	26595.51
647.74	26394.22
647.88	26684.45
648.03	26628.27
648.17	26450.39
648.32	26876.37
648.47	26747.64
648.61	26253.79
648.76	26527.63
648.90	26031.44
649.05	26087.61
649.20	26136.76
649.34	26059.52
649.49	26295.92
649.63	26281.88
649.78	26031.44
649.92	26087.61
650.07	25998.67
650.21	26040.80
650.36	26111.02
650.51	26061.87
650.65	26277.19
650.80	26256.13
650.94	26305.28
651.09	26019.74
651.23	25722.49
651.38	25989.31
651.52	26223.36
651.67	26279.54
651.81	25792.70
651.96	25694.40
652.10	25600.78
652.25	25984.63
652.39	26192.94
652.54	26040.80
652.68	26197.62
652.83	25855.90
652.97	25968.24
653.12	25977.61
653.26	25563.33
653.41	25729.51
653.55	25944.84
653.70	25685.04
653.84	25785.68
653.99	25521.20
654.13	25762.28
654.27	25392.47
654.42	25610.14
654.56	25722.49
654.71	25855.90
654.85	25853.56
655.00	25806.75
655.14	25628.87
655.29	25624.18
655.43	25448.64
655.57	25348.00
655.72	25528.22
655.86	25380.77
656.01	25797.38
656.15	25511.84
656.30	25284.81
656.44	25172.46
656.58	25645.25
656.73	25060.12
656.87	25324.60
657.01	25362.04
657.16	24978.20
657.30	25631.21
657.45	25179.48
657.59	25322.26
657.73	25097.56
657.88	25497.80
658.02	25179.48
658.16	25282.47
658.31	25352.68
658.45	25057.78
658.60	24758.19
658.74	24950.11
658.88	25099.90
659.03	25277.79
659.17	24992.24
659.31	25317.57
659.46	25025.01
659.60	24910.32
659.74	24996.92
659.89	24683.29
660.03	25261.40
660.17	24807.34
660.32	24528.81
660.46	24816.70
660.60	24613.07
660.74	24629.46
660.89	24790.95
661.03	24285.40
661.17	24624.78
661.32	24627.12
661.46	24664.57
661.60	24601.37
661.74	24765.21
661.89	24465.62
662.03	24596.69
662.17	24451.58
662.31	24133.26
662.46	24594.35
662.60	24425.83
662.74	24304.12
662.88	24528.81
663.03	23939.00
663.17	23868.78
663.31	23892.19
663.45	23990.49
663.60	24011.56
663.74	23812.61
663.88	24053.69
664.02	24381.36
664.17	24552.22
664.31	23894.53
664.45	23775.16
664.59	23709.63
664.73	24011.56
664.88	23971.77
665.02	23431.10
665.16	23721.33
665.30	23545.79
665.44	23747.08
665.59	23290.67
665.73	23548.13
665.87	23438.12
666.01	23541.11
666.15	23896.87
666.29	23580.90
666.44	23676.86
666.58	23353.87
666.72	23391.31
666.86	23421.74
667.00	23487.28
667.14	23180.67
667.28	23180.67
667.43	23260.24
667.57	23513.02
667.71	22897.46
667.85	23206.41
667.99	22871.72
668.13	22998.10
668.27	22895.12
668.41	23377.27
668.56	22958.31
668.70	22834.27
668.84	23068.32
668.98	23243.86
669.12	22721.92
669.26	23213.43
669.40	22522.98
669.54	22960.66
669.68	23068.32
669.82	22616.60
669.96	22693.83
670.10	22394.25
670.25	22551.06
670.39	22623.62
670.53	22335.73
670.67	22431.69
670.81	22621.28
670.95	22314.67
671.09	22441.06
671.23	22396.59
671.37	22717.24
671.51	22574.47
671.65	22476.16
671.79	22190.62
671.93	22361.48
672.07	22202.32
672.21	22260.84
672.35	21884.01
672.49	21745.92
672.63	22061.89
672.77	21647.61
672.91	21640.59
673.05	21769.32
673.19	22038.48
673.33	21949.54
673.47	21685.06
673.61	22087.64
673.75	21462.71
673.89	21776.34
674.03	21296.53
674.17	21638.25
674.31	21516.54
674.45	21406.54
674.59	21352.71
674.73	21446.33
674.87	21341.00
675.01	21083.55
675.15	20744.17
675.29	21050.78
675.43	20982.90
675.56	20924.39
675.70	21088.23
675.84	20886.94
675.98	20491.39
676.12	20819.07
676.26	20938.43
676.40	20842.47
676.54	20898.64
676.68	21032.05
676.82	20587.35
676.96	20634.16
677.10	20622.46
677.23	20252.66
677.37	20187.12
677.51	20505.43
677.65	20056.05
677.79	20072.43
677.93	20116.90
678.07	19896.89
678.21	19721.35
678.34	19616.03
678.48	19985.83
678.62	19822.00
678.76	19700.29
678.90	19529.43
679.04	20009.24
679.18	19793.91
679.31	19578.58
679.45	19396.02
679.59	19178.35
679.73	19232.18
679.87	19234.52
680.00	18998.13
680.14	18836.63
680.28	19201.76
680.42	18941.96
680.56	19183.03
680.70	19152.60
680.83	18967.70
680.97	18984.09
681.11	19082.39
681.25	18759.39
681.39	18878.76
681.52	18792.16
681.66	18806.20
681.80	18604.92
681.94	18487.89
682.07	18752.37
682.21	18361.50
682.35	18417.68
682.49	18593.22
682.62	18523.00
682.76	18265.54
682.90	18188.30
683.04	18209.37
683.17	18071.28
683.31	17860.63
683.45	18326.39
683.59	18008.08
683.72	18162.56
683.86	17851.27
684.00	17708.49
684.13	17860.63
684.27	17685.09
684.41	17518.91
684.55	17748.28
684.68	17469.76
684.82	17355.07
684.96	17462.74
685.09	17488.48
685.23	16903.35
685.37	17198.26
685.50	17163.15
685.64	17095.27
685.78	17130.38
685.91	17392.52
686.05	17106.98
686.19	17043.78
686.32	17074.21
686.46	16793.34
686.60	16947.82
686.73	16744.19
686.87	16603.76
687.01	16418.86
687.14	16730.15
687.28	16210.55
687.42	16421.20
687.55	16304.17
687.69	16306.51
687.82	16222.25
687.96	16257.36
688.10	16147.36
688.23	16102.89
688.37	16147.36
688.50	16093.52
688.64	16027.99
688.78	15712.02
688.91	15941.39
689.05	15786.91
689.18	15985.86
689.32	15447.54
689.46	15169.01
689.59	15587.97
689.73	15339.87
689.86	15468.60
690.00	15229.87
690.13	15190.08
690.27	15365.62
690.41	15428.81
690.54	15040.28
690.68	15220.50
690.81	15328.17
690.95	15152.63
691.08	15246.25
691.22	15007.52
691.35	15164.33
691.49	14820.27
691.62	14822.61
691.76	14913.89
691.89	14686.86
692.03	14689.20
692.16	14410.68
692.30	14373.23
692.43	14312.38
692.57	14422.38
692.70	14398.98
692.84	14190.67
692.97	13949.59
693.11	14164.92
693.24	14178.97
693.38	14080.66
693.51	13942.57
693.65	13991.72
693.78	14078.32
693.92	14188.33
694.05	13827.88
694.19	13631.28
694.32	13610.22
694.45	13671.07
694.59	13729.58
694.72	13535.32
694.86	13514.25
694.99	13139.77
695.13	13205.30
695.26	13308.29
695.39	13092.96
695.53	13289.56
695.66	13090.62
695.80	13357.44
695.93	13224.03
696.07	12940.82
696.20	13125.72
696.33	13067.21
696.47	13050.83
696.60	13179.56
696.73	12755.92
696.87	12894.01
697.00	12755.92
697.14	12334.62
697.27	12681.02
697.40	12173.13
697.54	12329.94
697.67	12088.87
697.80	12519.53
697.94	12149.72
698.07	12049.08
698.21	12123.98
698.34	12159.08
698.47	12056.10
698.61	12250.36
698.74	12011.63
698.87	12224.62
699.01	11946.09
699.14	11915.67
699.27	11770.55
699.40	11939.07
699.54	11508.41
699.67	11812.68
699.80	11679.27
699.94	11534.16
700.07	11513.10
700.20	11316.49
700.34	11239.25
700.47	11543.52
700.60	11213.51
700.73	11325.85
700.87	11358.62
701.00	11194.78
701.13	11276.70
701.26	11138.61
701.40	11169.04
701.53	11084.78
701.66	11178.40
701.79	11000.52
701.93	10897.53
702.06	10686.89
702.19	10740.72
702.32	10700.93
702.46	10541.77
702.59	10473.90
702.72	10431.77
702.85	10492.62
702.99	10497.30
703.12	10356.87
703.25	10324.10
703.38	10216.44
703.51	10216.44
703.65	10274.95
703.78	10349.85
703.91	10321.76
704.04	10281.97
704.17	10083.03
704.31	10157.92
704.44	9970.68
704.57	9968.34
704.70	9811.53
704.83	9734.29
704.96	9951.96
705.10	9659.39
705.23	9633.64
>>>>>End Processed Spectral Data<<<<<
