SpectraSuite Data File
++++++++++++++++++++++++++++++++++++
Date: Fri Oct 18 13:58:21 GMT-05:00 2013
User: bianchi
Dark Spectrum Present: No
Reference Spectrum Present: No
Number of Sampled Component Spectra: 1
Spectrometers: USB2+H05261
Integration Time (usec): 50000 (USB2+H05261)
Spectra Averaged: 1 (USB2+H05261)
Boxcar Smoothing: 0 (USB2+H05261)
Correct for Electrical Dark: No (USB2+H05261)
Strobe/Lamp Enabled: No (USB2+H05261)
Correct for Detector Non-linearity: No (USB2+H05261)
Correct for Stray Light: No (USB2+H05261)
Number of Pixels in Processed Spectrum: 2048
>>>>>Begin Processed Spectral Data<<<<<
365.73	0.00
365.92	0.00
366.12	0.00
366.32	0.00
366.52	0.00
366.72	0.00
366.91	0.00
367.11	0.00
367.31	0.00
367.51	0.00
367.70	0.00
367.90	0.00
368.10	0.00
368.30	0.00
368.49	0.00
368.69	0.00
368.89	0.00
369.09	0.00
369.28	0.00
369.48	0.00
369.68	0.00
369.87	0.00
370.07	0.00
370.27	0.00
370.47	0.00
370.66	23.41
370.86	131.07
371.06	117.03
371.25	124.05
371.45	53.83
371.65	107.66
371.84	142.77
372.04	131.07
372.24	198.95
372.44	161.50
372.63	70.22
372.83	152.13
373.03	241.08
373.22	250.44
373.42	245.76
373.62	215.33
373.81	210.65
374.01	285.55
374.21	217.67
374.40	208.31
374.60	245.76
374.79	278.52
374.99	252.78
375.19	229.37
375.38	182.56
375.58	255.12
375.78	283.20
375.97	369.80
376.17	325.33
376.37	234.05
376.56	292.57
376.76	203.63
376.95	241.08
377.15	334.70
377.35	255.12
377.54	292.57
377.74	341.72
377.93	243.42
378.13	276.18
378.33	292.57
378.52	313.63
378.72	315.97
378.91	236.39
379.11	224.69
379.31	276.18
379.50	243.42
379.70	337.04
379.89	290.23
380.09	285.55
380.28	346.40
380.48	278.52
380.68	217.67
380.87	322.99
381.07	245.76
381.26	339.38
381.46	297.25
381.65	301.93
381.85	313.63
382.04	304.27
382.24	341.72
382.43	269.16
382.63	327.68
382.83	290.23
383.02	374.49
383.22	358.10
383.41	304.27
383.61	339.38
383.80	348.74
384.00	374.49
384.19	351.08
384.39	444.70
384.58	376.83
384.78	381.51
384.97	400.23
385.17	390.87
385.36	353.42
385.56	344.06
385.75	311.29
385.95	407.25
386.14	346.40
386.34	411.93
386.53	416.62
386.72	337.04
386.92	498.53
387.11	367.46
387.31	395.55
387.50	402.57
387.70	425.98
387.89	442.36
388.09	451.72
388.28	430.66
388.48	402.57
388.67	496.19
388.86	477.47
389.06	484.49
389.25	512.58
389.45	465.77
389.64	449.38
389.84	482.15
390.03	479.81
390.22	458.74
390.42	482.15
390.61	484.49
390.81	444.70
391.00	404.91
391.19	451.72
391.39	482.15
391.58	367.46
391.78	435.34
391.97	547.69
392.16	475.13
392.36	543.00
392.55	564.07
392.75	540.66
392.94	528.96
393.13	463.43
393.33	531.30
393.52	507.90
393.71	617.90
393.91	561.73
394.10	514.92
394.29	496.19
394.49	559.39
394.68	610.88
394.88	608.54
395.07	589.82
395.26	587.47
395.46	564.07
395.65	596.84
395.84	645.99
396.04	615.56
396.23	615.56
396.42	601.52
396.62	699.82
396.81	645.99
397.00	702.16
397.19	627.26
397.39	608.54
397.58	697.48
397.77	664.71
397.97	685.78
398.16	709.18
398.35	716.20
398.55	643.65
398.74	669.39
398.93	732.59
399.12	683.44
399.32	650.67
399.51	755.99
399.70	734.93
399.90	678.76
400.09	734.93
400.28	711.52
400.47	695.14
400.67	770.04
400.86	807.48
401.05	718.54
401.24	688.12
401.44	781.74
401.63	777.06
401.82	779.40
402.01	744.29
402.21	847.27
402.40	807.48
402.59	777.06
402.78	772.38
402.97	849.61
403.17	880.04
403.36	826.21
403.55	873.02
403.74	891.74
403.93	765.36
404.13	821.53
404.32	835.57
404.51	894.08
404.70	828.55
404.89	905.79
405.09	952.60
405.28	954.94
405.47	952.60
405.66	971.32
405.85	931.53
406.05	978.34
406.24	1036.86
406.43	985.37
406.62	994.73
406.81	1048.56
407.00	1139.84
407.20	917.49
407.39	990.05
407.58	990.05
407.77	1046.22
407.96	1086.01
408.15	1081.33
408.34	1078.99
408.54	1008.77
408.73	1151.54
408.92	1064.94
409.11	1107.07
409.30	1053.24
409.49	1069.62
409.68	1078.99
409.87	1088.35
410.07	1137.50
410.26	1170.27
410.45	1210.06
410.64	1233.46
410.83	1165.59
411.02	1107.07
411.21	1294.32
411.40	1322.40
411.59	1313.04
411.78	1142.18
411.98	1186.65
412.17	1156.22
412.36	1301.34
412.55	1331.76
412.74	1294.32
412.93	1345.81
413.12	1310.70
413.31	1390.28
413.50	1404.32
413.69	1462.83
413.88	1420.71
414.07	1446.45
414.26	1399.64
414.45	1427.73
414.64	1448.79
414.83	1453.47
415.02	1451.13
415.22	1523.69
415.41	1535.39
415.60	1572.84
415.79	1554.12
415.98	1533.05
416.17	1528.37
416.36	1549.43
416.55	1600.93
416.74	1743.70
416.93	1647.74
417.12	1624.33
417.31	1661.78
417.50	1645.40
417.69	1722.63
417.88	1715.61
418.07	1715.61
418.26	1675.82
418.45	1785.83
418.64	1713.27
418.83	1675.82
419.02	1701.57
419.21	1839.66
419.39	1767.10
419.58	1837.32
419.77	1806.89
419.96	1820.94
420.15	1881.79
420.34	1905.20
420.53	1856.04
420.72	1923.92
420.91	1907.54
421.10	1886.47
421.29	2047.97
421.48	1856.04
421.67	1888.81
421.86	1888.81
422.05	2033.93
422.24	1797.53
422.43	2036.27
422.61	1856.04
422.80	2001.16
422.99	2029.24
423.18	1912.22
423.37	2003.50
423.56	2036.27
423.75	2038.61
423.94	1954.35
424.13	1832.64
424.32	1935.62
424.50	2026.90
424.69	2012.86
424.88	2080.74
425.07	1891.15
425.26	2017.54
425.45	1994.14
425.64	2069.03
425.83	1956.69
426.01	2005.84
426.20	2052.65
426.39	2080.74
426.58	2054.99
426.77	1989.46
426.96	2029.24
427.15	2071.37
427.33	2031.58
427.52	2125.21
427.71	2064.35
427.90	2118.18
428.09	2104.14
428.28	2099.46
428.46	2111.16
428.65	2239.89
428.84	2136.91
429.03	2167.34
429.22	2113.50
429.40	2310.11
429.59	2157.97
429.78	2225.85
429.97	2054.99
430.16	2143.93
430.34	2324.15
430.53	2270.32
430.72	2225.85
430.91	2228.19
431.10	2235.21
431.28	2197.76
431.47	2345.22
431.66	2448.20
431.85	2359.26
432.03	2464.58
432.22	2555.86
432.41	2406.07
432.60	2406.07
432.79	2424.80
432.97	2436.50
433.16	2401.39
433.35	2347.56
433.54	2513.74
433.72	2462.24
433.91	2506.71
434.10	2520.76
434.28	2455.22
434.47	2495.01
434.66	2651.83
434.85	2427.14
435.03	2555.86
435.22	2504.37
435.41	2630.76
435.59	2558.21
435.78	2525.44
435.97	2504.37
436.16	2527.78
436.34	2605.02
436.53	2700.98
436.72	2682.25
436.90	2677.57
437.09	2560.55
437.28	2654.17
437.46	2511.39
437.65	2583.95
437.84	2778.22
438.02	2780.56
438.21	2675.23
438.40	2757.15
438.58	2787.58
438.77	2906.95
438.96	2871.84
439.14	2883.54
439.33	2750.13
439.52	3026.31
439.70	2937.37
439.89	2843.75
440.08	2881.20
440.26	2904.60
440.45	3082.49
440.63	3019.29
440.82	2995.89
441.01	3098.87
441.19	3075.46
441.38	3236.96
441.57	3110.57
441.75	3180.79
441.94	3033.33
442.12	3164.40
442.31	3253.34
442.50	3225.26
442.68	3190.15
442.87	3236.96
443.05	3365.69
443.24	3279.09
443.43	3297.81
443.61	3412.50
443.80	3534.21
443.98	3372.71
444.17	3290.79
444.35	3351.65
444.54	3440.59
444.73	3342.28
444.91	3473.36
445.10	3316.54
445.28	3398.46
445.47	3499.10
445.65	3412.50
445.84	3424.20
446.02	3454.63
446.21	3323.56
446.39	3321.22
446.58	3438.25
446.77	3417.18
446.95	3454.63
447.14	3471.01
447.32	3377.39
447.51	3468.67
447.69	3386.76
447.88	3485.06
448.06	3468.67
448.25	3382.07
448.43	3419.52
448.62	3552.93
448.80	3538.89
448.99	3389.10
449.17	3705.07
449.36	3543.57
449.54	3566.98
449.73	3695.71
449.91	3653.58
450.10	3548.25
450.28	3644.21
450.46	3653.58
450.65	3632.51
450.83	3751.88
451.02	3691.02
451.20	3716.77
451.39	3721.45
451.57	3655.92
451.76	3726.13
451.94	3852.52
452.13	3709.75
452.31	3751.88
452.49	3805.71
452.68	3882.95
452.86	3866.56
453.05	3824.44
453.23	3871.25
453.42	3822.09
453.60	3775.28
453.78	3772.94
453.97	3737.84
454.15	3847.84
454.34	4009.34
454.52	4067.85
454.70	3971.89
454.89	4011.68
455.07	3939.12
455.26	4079.55
455.44	3999.98
455.62	3955.51
455.81	4028.06
455.99	4177.86
456.17	3999.98
456.36	3948.48
456.54	4166.15
456.73	4201.26
456.91	4229.35
457.09	4135.73
457.28	4318.29
457.46	4100.62
457.64	4325.31
457.83	4311.27
458.01	4208.28
458.19	4234.03
458.38	4304.25
458.56	4381.48
458.74	4262.12
458.93	4273.82
459.11	4292.54
459.29	4428.29
459.48	4482.13
459.66	4458.72
459.84	4519.57
460.03	4535.96
460.21	4337.01
460.39	4386.16
460.57	4503.19
460.76	4517.23
460.94	4571.07
461.12	4526.60
461.31	4486.81
461.49	4561.70
461.67	4517.23
461.85	4753.63
462.04	4723.20
462.22	4809.80
462.40	4552.34
462.59	4538.30
462.77	4748.95
462.95	4723.20
463.13	4762.99
463.32	4826.18
463.50	4622.56
463.68	4720.86
463.86	4828.53
464.05	4725.54
464.23	4856.61
464.41	4887.04
464.59	4779.37
464.78	4823.84
464.96	4833.21
465.14	4861.29
465.32	4894.06
465.50	5100.03
465.69	4798.10
465.87	4873.00
466.05	4844.91
466.23	4905.76
466.41	4875.34
466.60	5165.56
466.78	4844.91
466.96	4985.34
467.14	5118.75
467.32	5048.54
467.51	5111.73
467.69	4950.23
467.87	5146.84
468.05	5135.14
468.23	4961.94
468.41	5020.45
468.60	5118.75
468.78	5144.50
468.96	5174.92
469.14	5298.97
469.32	5221.74
469.50	5071.94
469.69	5373.87
469.87	5348.12
470.05	5289.61
470.23	5329.40
470.41	5238.12
470.59	5455.79
470.77	5313.02
470.95	5427.70
471.14	5338.76
471.32	5387.91
471.50	5504.94
471.68	5448.77
471.86	5584.52
472.04	5605.58
472.22	5914.53
472.40	5572.82
472.58	5706.23
472.77	5621.97
472.95	5813.89
473.13	6019.86
473.31	5933.26
473.49	5687.50
473.67	5689.84
473.85	5689.84
474.03	6017.52
474.21	5935.60
474.39	5774.10
474.57	5980.07
474.75	6029.22
474.93	6043.26
475.12	6139.23
475.30	6169.65
475.48	5963.68
475.66	6277.32
475.84	6209.44
476.02	6328.81
476.20	6314.77
476.38	6242.21
476.56	6455.20
476.74	6384.98
476.92	6445.84
477.10	6492.65
477.28	6780.53
477.46	6560.52
477.64	6682.23
477.82	6696.27
478.00	6796.92
478.18	6820.32
478.36	6876.49
478.54	6869.47
478.72	6984.16
478.90	7124.59
479.08	7068.42
479.26	7166.72
479.44	7063.74
479.62	7117.57
479.80	7227.57
479.98	7508.44
480.16	7363.33
480.34	7456.95
480.52	7386.73
480.70	7543.55
480.88	7531.84
481.06	7536.52
481.24	7557.59
481.41	7808.03
481.59	7786.96
481.77	7950.80
481.95	7992.93
482.13	8074.85
482.31	7939.10
482.49	8046.76
482.67	8067.83
482.85	8255.07
483.03	8107.62
483.21	8348.69
483.39	8449.33
483.57	8517.21
483.74	8629.56
483.92	8657.64
484.10	8683.39
484.28	8863.61
484.46	8924.46
484.64	9092.98
484.82	8844.88
485.00	9125.75
485.18	8997.02
485.35	9217.03
485.53	9245.12
485.71	9259.16
485.89	9598.54
486.07	9266.18
486.25	9448.74
486.43	9788.12
486.61	9444.06
486.78	9418.32
486.96	9851.31
487.14	9975.36
487.32	9933.23
487.50	9839.61
487.68	10122.82
487.85	10289.00
488.03	10181.33
488.21	10284.31
488.39	10420.06
488.57	10567.52
488.75	10530.07
488.92	10527.73
489.10	10583.90
489.28	10553.48
489.46	10780.51
489.64	11096.48
489.81	11049.67
489.99	11136.27
490.17	11194.78
490.35	11229.89
490.53	11463.94
490.70	11641.82
490.88	11470.97
491.06	11316.49
491.24	11538.84
491.41	11723.74
491.59	11754.17
491.77	11899.28
491.95	11885.24
492.13	12194.19
492.30	12238.66
492.48	12196.53
492.66	12126.32
492.84	12112.27
493.01	12453.99
493.19	12561.66
493.37	12241.00
493.54	12720.81
493.72	12730.17
493.90	12526.55
494.08	12629.53
494.25	12655.28
494.43	12870.61
494.61	13074.23
494.79	13067.21
494.96	13050.83
495.14	13317.65
495.32	13331.69
495.49	13720.22
495.67	13619.58
495.85	13610.22
496.02	13444.04
496.20	13624.26
496.38	13647.66
496.55	13708.52
496.73	13757.67
496.91	13834.91
497.09	14031.51
497.26	13907.46
497.44	13996.40
497.62	14029.17
497.79	14443.45
497.97	14356.85
498.14	14611.96
498.32	14391.95
498.50	14590.90
498.67	14764.10
498.85	14740.69
499.03	14724.31
499.20	14623.67
499.38	14927.94
499.56	14892.83
499.73	15030.92
499.91	15044.96
500.08	15459.24
500.26	15059.01
500.44	15068.37
500.61	15272.00
500.79	15154.97
500.97	15571.58
501.14	15538.82
501.32	15527.11
501.49	15494.35
501.67	15548.18
501.84	15812.66
502.02	15742.44
502.20	15920.32
502.37	15889.90
502.55	15709.68
502.72	15866.49
502.90	15730.74
503.07	16002.24
503.25	15859.47
503.43	16180.12
503.60	16020.97
503.78	16130.97
503.95	16365.03
504.13	16329.92
504.30	16425.88
504.48	16297.15
504.65	16664.61
504.83	16526.52
505.01	16762.92
505.18	16695.04
505.36	16842.50
505.53	16802.71
505.71	16578.01
505.88	16748.87
506.06	16858.88
506.23	17041.44
506.41	17160.81
506.58	17116.34
506.76	17219.32
506.93	17352.73
507.11	17240.39
507.28	17160.81
507.46	17455.72
507.63	17301.24
507.81	17757.64
507.98	17392.52
508.16	17451.03
508.33	17373.80
508.50	17532.95
508.68	17701.47
508.85	17869.99
509.03	17860.63
509.20	17851.27
509.38	17855.95
509.55	17862.97
509.73	18169.58
509.90	17970.63
510.08	17998.72
510.25	17923.82
510.42	18448.10
510.60	18537.04
510.77	18288.95
510.95	18548.75
511.12	18251.50
511.30	18670.45
511.47	18661.09
511.64	18726.63
511.82	18766.42
511.99	18586.19
512.17	18860.04
512.34	18663.43
512.51	18640.03
512.69	18677.48
512.86	18991.11
513.04	18834.29
513.21	19456.87
513.38	19166.65
513.56	19035.58
513.73	19049.62
513.90	19281.33
514.08	19138.56
514.25	19756.46
514.43	19337.51
514.60	19651.14
514.77	19597.31
514.95	19463.90
515.12	19374.95
515.29	19513.05
515.47	19779.87
515.64	20011.58
515.81	19681.56
515.99	19723.69
516.16	20203.50
516.33	19934.34
516.51	20159.03
516.68	19777.53
516.85	19957.75
517.03	20283.08
517.20	20072.43
517.37	20025.62
517.54	20247.97
517.72	20023.28
517.89	20304.15
518.06	20346.28
518.24	20393.09
518.41	20198.82
518.58	20727.78
518.75	20360.32
518.93	20858.85
519.10	20725.44
519.27	20692.68
519.45	20304.15
519.62	20664.59
519.79	20489.05
519.96	20664.59
520.14	21062.48
520.31	20933.75
520.48	21104.61
520.65	21116.31
520.83	21158.44
521.00	21280.15
521.17	21074.18
521.34	20884.60
521.52	21111.63
521.69	21422.92
521.86	21247.38
522.03	21586.76
522.20	21455.69
522.38	21425.26
522.55	21348.03
522.72	21446.33
522.89	21544.63
523.07	21970.61
523.24	21858.26
523.41	21425.26
523.58	21509.52
523.75	22005.72
523.92	21848.90
524.10	21724.85
524.27	21820.81
524.44	21968.27
524.61	22134.45
524.78	22230.41
524.96	22122.74
525.13	22171.89
525.30	22120.40
525.47	21846.56
525.64	22162.53
525.81	22312.33
525.98	22728.94
526.16	22361.48
526.33	22483.19
526.50	21930.82
526.67	22534.68
526.84	22223.39
527.01	22338.07
527.18	22611.92
527.36	22616.60
527.53	22876.40
527.70	22888.10
527.87	23007.47
528.04	23136.20
528.21	22806.18
528.38	22925.55
528.55	23068.32
528.72	22876.40
528.89	23009.81
529.07	23021.51
529.24	22920.87
529.41	22991.08
529.58	23037.89
529.75	22906.82
529.92	23372.59
530.09	23328.12
530.26	23199.39
530.43	23276.63
530.60	23274.29
530.77	23136.20
530.94	23433.44
531.11	23304.71
531.28	23267.27
531.46	23295.35
531.63	23110.45
531.80	23601.96
531.97	23630.05
532.14	23466.21
532.31	23611.32
532.48	23484.94
532.65	23971.77
532.82	23744.73
532.99	23690.90
533.16	24020.92
533.33	24006.87
533.50	24336.89
533.67	23805.59
533.84	23990.49
534.01	23964.75
534.18	23852.40
534.35	24004.53
534.52	23917.93
534.69	24212.84
534.86	24346.25
535.03	24156.67
535.20	24439.87
535.37	24301.78
535.54	24489.03
535.71	24217.52
535.88	23957.72
536.05	24093.47
536.22	24755.85
536.38	25017.99
536.55	24540.52
536.72	24482.00
536.89	24407.11
537.06	24400.08
537.23	24648.18
537.40	24482.00
537.57	24767.55
537.74	24907.98
537.91	25003.94
538.08	24718.40
538.25	24683.29
538.42	24641.16
538.59	24861.17
538.75	24652.86
538.92	25003.94
539.09	24907.98
539.26	25130.33
539.43	25390.13
539.60	25120.97
539.77	25050.75
539.94	25067.14
540.11	25308.21
540.28	25083.52
540.44	25132.67
540.61	25167.78
540.78	25172.46
540.95	25214.59
541.12	25495.46
541.29	25219.27
541.46	25277.79
541.62	25305.87
541.79	25565.67
541.96	25350.34
542.13	25476.73
542.30	25408.86
542.47	25795.04
542.63	25546.95
542.80	25563.33
542.97	26061.87
543.14	25872.28
543.31	25544.61
543.48	25811.43
543.64	25848.88
543.81	26150.81
543.98	25970.58
544.15	26078.25
544.32	26043.14
544.48	26340.39
544.65	25972.92
544.82	25781.00
544.99	25993.99
545.16	25912.07
545.32	26394.22
545.49	26075.91
545.66	26347.41
545.83	26155.49
546.00	26352.09
546.16	26387.20
546.33	26087.61
546.50	26106.34
546.67	26401.24
546.83	25982.29
547.00	26560.40
547.17	25933.14
547.34	26869.35
547.50	26623.59
547.67	27098.72
547.84	26703.17
548.00	26813.18
548.17	26611.89
548.34	26628.27
548.51	26506.57
548.67	26902.12
548.84	26934.88
549.01	26747.64
549.18	26476.14
549.34	27014.46
549.51	26647.00
549.68	26654.02
549.84	26583.80
550.01	26801.47
550.18	26609.55
550.34	27248.52
550.51	27154.90
550.68	27211.07
550.84	26684.45
551.01	26946.59
551.18	27047.23
551.34	26473.80
551.51	26869.35
551.68	27108.08
551.84	27021.48
552.01	27089.36
552.18	27178.30
552.34	27213.41
552.51	27295.33
552.68	27159.58
552.84	27323.41
553.01	27353.84
553.18	27285.97
553.34	27557.47
553.51	27449.80
553.67	27531.72
553.84	27583.21
554.01	27569.17
554.17	27421.72
554.34	27414.69
554.51	27751.73
554.67	27735.35
554.84	27449.80
555.00	27814.93
555.17	27264.90
555.33	27606.62
555.50	27461.51
555.67	27571.51
555.83	27758.75
556.00	28009.19
556.16	28046.64
556.33	27597.26
556.50	27763.43
556.66	27634.71
556.83	27819.61
556.99	28233.88
557.16	27819.61
557.32	28112.17
557.49	28023.23
557.65	27440.44
557.82	27777.48
557.98	27716.62
558.15	27957.70
558.32	27917.91
558.48	27896.85
558.65	28395.38
558.81	27992.81
558.98	28081.75
559.14	28224.52
559.31	27775.14
559.47	27903.87
559.64	28175.37
559.80	28231.54
559.97	28416.44
560.13	27992.81
560.30	28360.27
560.46	28311.12
560.63	28140.26
560.79	27946.00
560.96	28353.25
561.12	28360.27
561.29	28177.71
561.45	28421.13
561.61	28353.25
561.78	28236.22
561.94	28166.01
562.11	28624.75
562.27	28535.81
562.44	28095.79
562.60	28243.24
562.77	28486.66
562.93	28051.32
563.10	28676.24
563.26	28266.65
563.42	28584.96
563.59	28350.91
563.75	29015.62
563.92	28371.97
564.08	28325.16
564.24	28577.94
564.41	28496.02
564.57	28329.84
564.74	28554.54
564.90	28439.85
565.07	28379.00
565.23	28584.96
565.39	28734.76
565.56	28690.29
565.72	28371.97
565.88	28467.94
566.05	28823.70
566.21	28407.08
566.38	28666.88
566.54	28704.33
566.70	28884.55
566.87	28725.39
567.03	28563.90
567.19	28999.24
567.36	29013.28
567.52	28505.38
567.68	28552.20
567.85	28615.39
568.01	28723.05
568.17	28620.07
568.34	28783.91
568.50	28706.67
568.66	29146.69
568.83	29003.92
568.99	28940.72
569.15	29001.58
569.32	28622.41
569.48	28552.20
569.64	28924.34
569.81	28987.53
569.97	28896.25
570.13	28931.36
570.30	28847.10
570.46	29310.53
570.62	28861.15
570.78	29029.66
570.95	28797.95
571.11	28999.24
571.27	28704.33
571.43	28666.88
571.60	28819.02
571.76	28694.97
571.92	29296.49
572.09	28936.04
572.25	29441.60
572.41	28985.19
572.57	29090.52
572.74	28971.15
572.90	28875.19
573.06	29123.29
573.22	29001.58
573.38	29146.69
573.55	28819.02
573.71	29488.41
573.87	29462.66
574.03	29214.57
574.20	29055.41
574.36	29340.96
574.52	29055.41
574.68	29230.95
574.84	28945.41
575.01	29163.08
575.17	29179.46
575.33	29071.79
575.49	29364.36
575.65	29233.29
575.82	28994.56
575.98	28957.11
576.14	29181.80
576.30	29378.40
576.46	29205.20
576.62	29177.12
576.79	29270.74
576.95	29516.50
577.11	29071.79
577.27	28751.14
577.43	29160.73
577.59	29371.38
577.75	29202.86
577.92	28896.25
578.08	29205.20
578.24	28870.51
578.40	29024.98
578.56	29511.81
578.72	29411.17
578.88	29172.44
579.04	29530.54
579.21	29092.86
579.37	29364.36
579.53	29635.86
579.69	29202.86
579.85	29041.37
580.01	29219.25
580.17	29200.52
580.33	29027.32
580.49	29069.45
580.65	29186.48
580.82	29268.40
580.98	29195.84
581.14	29355.00
581.30	29223.93
581.46	29535.22
581.62	29455.64
581.78	29095.20
581.94	29397.13
582.10	29188.82
582.26	29448.62
582.42	29369.04
582.58	29612.46
582.74	29383.09
582.90	29516.50
583.06	29603.10
583.22	29525.86
583.38	29244.99
583.54	29734.17
583.70	28994.56
583.86	29226.27
584.02	29254.36
584.18	29565.65
584.34	29731.83
584.50	29493.09
584.66	29539.90
584.82	29303.51
584.98	29495.43
585.14	29474.37
585.30	29441.60
585.46	29270.74
585.62	28872.85
585.78	29174.78
585.94	28870.51
586.10	29462.66
586.26	29804.38
586.42	29741.19
586.58	29205.20
586.74	29296.49
586.90	29186.48
587.06	29413.51
587.22	29083.50
587.38	29413.51
587.54	29706.08
587.70	30054.82
587.86	29621.82
588.02	29528.20
588.18	29706.08
588.34	29677.99
588.49	29586.71
588.65	29565.65
588.81	29586.71
588.97	29322.23
589.13	29268.40
589.29	29324.57
589.45	29785.66
589.61	29563.31
589.77	29830.13
589.93	29783.32
590.08	30153.12
590.24	30008.01
590.40	29385.43
590.56	29598.41
590.72	29635.86
590.88	29486.07
591.04	29357.34
591.20	29865.24
591.35	29944.81
591.51	29933.11
591.67	29912.05
591.83	29799.70
591.99	29780.98
592.15	29827.79
592.31	29792.68
592.46	29436.92
592.62	29776.30
592.78	29638.20
592.94	29668.63
593.10	29418.19
593.26	29834.81
593.41	30228.02
593.57	29680.33
593.73	29694.38
593.89	29830.13
594.05	30082.91
594.20	29626.50
594.36	29881.62
594.52	29942.47
594.68	30125.04
594.84	29387.77
594.99	30176.53
595.15	29900.34
595.31	29834.81
595.47	30206.95
595.62	29996.31
595.78	29993.97
595.94	29736.51
596.10	29661.61
596.25	29944.81
596.41	29996.31
596.57	29535.22
596.73	29511.81
596.88	29640.54
597.04	30082.91
597.20	30209.29
597.36	29783.32
597.51	30546.33
597.67	29848.85
597.83	29766.93
597.99	29989.28
598.14	30052.48
598.30	29741.19
598.46	29654.59
598.61	29851.19
598.77	29848.85
598.93	30120.35
599.09	30338.02
599.24	30047.80
599.40	30171.85
599.56	29958.86
599.71	30307.60
599.87	30085.25
600.03	29933.11
600.18	29799.70
600.34	29961.20
600.50	29738.85
600.65	30043.12
600.81	30223.34
600.97	29792.68
601.12	30155.46
601.28	30302.92
601.44	30005.67
601.59	30082.91
601.75	30239.72
601.91	30405.90
602.06	29874.60
602.22	30251.42
602.37	29799.70
602.53	30085.25
602.69	30026.73
602.84	29914.39
603.00	30237.38
603.16	30043.12
603.31	29699.06
603.47	29876.94
603.62	29790.34
603.78	30010.35
603.94	29921.41
604.09	29862.90
604.25	30043.12
604.40	29523.52
604.56	29699.06
604.71	30150.78
604.87	30445.69
605.03	30345.05
605.18	29806.72
605.34	29951.84
605.49	30134.40
605.65	29846.51
605.80	29647.57
605.96	30015.03
606.12	29722.46
606.27	29977.58
606.43	29830.13
606.58	30139.08
606.74	29909.71
606.89	30319.30
607.05	29813.74
607.20	30005.67
607.36	29860.55
607.51	30087.59
607.67	29631.18
607.82	29401.81
607.98	30054.82
608.13	29631.18
608.29	29827.79
608.44	29692.04
608.60	29600.76
608.75	29970.56
608.91	29563.31
609.06	29654.59
609.22	29563.31
609.37	29413.51
609.53	29465.00
609.68	29635.86
609.84	29881.62
609.99	29958.86
610.15	29497.77
610.30	29706.08
610.46	29853.53
610.61	29642.88
610.76	30073.54
610.92	29991.62
611.07	29804.38
611.23	29443.94
611.38	29551.60
611.54	29167.76
611.69	29205.20
611.84	29132.65
612.00	29298.83
612.15	29535.22
612.31	29486.07
612.46	29596.07
612.62	29727.14
612.77	29446.28
612.92	29420.53
613.08	29741.19
613.23	29701.40
613.39	29205.20
613.54	29043.71
613.69	29652.25
613.85	29170.10
614.00	29626.50
614.15	29446.28
614.31	29249.67
614.46	29755.23
614.62	29263.72
614.77	29413.51
614.92	29244.99
615.08	29418.19
615.23	29467.34
615.38	29404.15
615.54	29465.00
615.69	29266.06
615.84	29230.95
616.00	29200.52
616.15	29074.13
616.30	29371.38
616.46	29078.82
616.61	29149.03
616.76	29565.65
616.92	29280.10
617.07	28835.40
617.22	29223.93
617.37	28914.98
617.53	29046.05
617.68	29139.67
617.83	28875.19
617.99	28779.23
618.14	28931.36
618.29	28978.17
618.45	29174.78
618.60	29078.82
618.75	29015.62
618.90	29116.26
619.06	29024.98
619.21	28835.40
619.36	29132.65
619.51	28886.89
619.67	28486.66
619.82	28797.95
619.97	28774.55
620.12	28741.78
620.28	28821.36
620.43	28933.70
620.58	28989.88
620.73	28959.45
620.89	29099.88
621.04	29109.24
621.19	29048.39
621.34	28634.11
621.49	28203.46
621.65	28685.61
621.80	28561.56
621.95	28655.18
622.10	28531.13
622.25	28453.89
622.41	28467.94
622.56	28769.86
622.71	28692.63
622.86	28868.17
623.01	28465.60
623.16	28369.63
623.32	28383.68
623.47	28390.70
623.62	28542.83
623.77	28531.13
623.92	28793.27
624.07	28056.00
624.23	28615.39
624.38	28074.73
624.53	28393.04
624.68	28432.83
624.83	28453.89
624.98	28491.34
625.13	28039.62
625.29	28783.91
625.44	28287.71
625.59	28411.76
625.74	28175.37
625.89	27786.84
626.04	28114.52
626.19	27882.80
626.34	27934.29
626.49	27948.34
626.65	28222.18
626.80	28217.50
626.95	28041.96
627.10	28341.55
627.25	28063.02
627.40	27639.39
627.55	27899.19
627.70	27803.22
627.85	27838.33
628.00	28079.41
628.15	27983.44
628.30	27943.66
628.45	28037.28
628.60	28187.07
628.76	27896.85
628.91	27924.93
629.06	27772.80
629.21	27728.33
629.36	27934.29
629.51	28137.92
629.66	27655.77
629.81	27543.42
629.96	27552.79
630.11	27857.06
630.26	27810.25
630.41	27543.42
630.56	27686.20
630.71	27688.54
630.86	27789.18
631.01	27424.06
631.16	27267.24
631.31	27648.75
631.46	27571.51
631.61	27674.49
631.76	27749.39
631.91	27360.86
632.06	27314.05
632.21	27592.58
632.36	27641.73
632.51	27173.62
632.66	27445.12
632.81	27351.50
632.96	27538.74
633.10	27576.19
633.25	27096.38
633.40	27744.71
633.55	27470.87
633.70	27157.24
633.85	27232.13
634.00	27126.81
634.15	27009.78
634.30	27091.70
634.45	27068.30
634.60	26911.48
634.75	27157.24
634.90	26824.88
635.05	27370.22
635.19	27311.71
635.34	27082.34
635.49	27573.85
635.64	27190.00
635.79	27204.05
635.94	26679.77
636.09	26647.00
636.24	26820.20
636.39	26794.45
636.53	27070.64
636.68	26656.36
636.83	26780.41
636.98	27030.85
637.13	26892.76
637.28	26967.65
637.43	26827.22
637.57	27096.38
637.72	26925.52
637.87	27145.53
638.02	26759.34
638.17	26637.64
638.32	26419.97
638.46	26457.42
638.61	26574.44
638.76	26536.99
638.91	26590.83
639.06	26618.91
639.20	26462.10
639.35	26749.98
639.50	26789.77
639.65	26593.17
639.80	26721.90
639.94	26590.83
640.09	26721.90
640.24	26728.92
640.39	26532.31
640.54	26476.14
640.68	26703.17
640.83	26754.66
640.98	26539.33
641.13	26504.23
641.27	26586.15
641.42	26169.53
641.57	26473.80
641.72	26609.55
641.86	26307.62
642.01	26485.50
642.16	26457.42
642.31	25888.67
642.45	26066.55
642.60	26190.59
642.75	25940.16
642.90	26316.98
643.04	26293.58
643.19	25769.30
643.34	26003.35
643.48	26345.07
643.63	26277.19
643.78	25699.08
643.93	26270.17
644.07	26377.84
644.22	26359.11
644.37	26178.89
644.51	26012.71
644.66	25944.84
644.81	25724.83
644.95	25795.04
645.10	25848.88
645.25	26012.71
645.39	25984.63
645.54	26204.64
645.69	25900.37
645.83	25996.33
645.98	25898.03
646.13	26415.29
646.27	26045.48
646.42	25998.67
646.57	26106.34
646.71	25617.16
646.86	25710.78
647.00	25652.27
647.15	25720.15
647.30	25678.02
647.44	25205.23
647.59	25844.20
647.74	25743.55
647.88	25788.02
648.03	25914.41
648.17	25783.34
648.32	25996.33
648.47	25799.73
648.61	25582.06
648.76	25958.88
648.90	25891.01
649.05	25663.97
649.20	25584.40
649.34	25773.98
649.49	25406.52
649.63	25458.01
649.78	25408.86
649.92	25495.46
650.07	25628.87
650.21	25443.96
650.36	25544.61
650.51	25560.99
650.65	25778.66
650.80	25448.64
650.94	25434.60
651.09	25235.66
651.23	24931.39
651.38	25415.88
651.52	25132.67
651.67	25312.89
651.81	25120.97
651.96	25022.67
652.10	25560.99
652.25	25167.78
652.39	25544.61
652.54	25736.53
652.68	25458.01
652.83	25413.54
652.97	25340.98
653.12	25418.22
653.26	25120.97
653.41	25020.33
653.55	24905.64
653.70	25067.14
653.84	24996.92
653.99	25317.57
654.13	25022.67
654.27	24575.62
654.42	25240.34
654.56	25064.80
654.71	24933.73
654.85	24809.68
655.00	25401.83
655.14	25205.23
655.29	24774.57
655.43	25027.35
655.57	24694.99
655.72	24992.24
655.86	24844.79
656.01	24678.61
656.15	24980.54
656.30	24758.19
656.44	24898.62
656.58	24870.53
656.73	24842.45
656.87	24730.10
657.01	24898.62
657.16	24737.12
657.30	25092.88
657.45	24758.19
657.59	24547.54
657.73	24313.48
657.88	24533.50
658.02	24797.98
658.16	24407.11
658.31	24498.39
658.45	24463.28
658.60	24278.38
658.74	24456.26
658.88	24320.51
659.03	24098.16
659.17	24676.27
659.31	24074.75
659.46	24409.45
659.60	24332.21
659.74	24180.07
659.89	24329.87
660.03	23962.40
660.17	24212.84
660.32	24020.92
660.46	24154.33
660.60	24011.56
660.74	24116.88
660.89	23981.13
661.03	24020.92
661.17	23704.95
661.32	23960.06
661.46	23901.55
661.60	23772.82
661.74	23728.35
661.89	24369.66
662.03	23967.09
662.17	23672.18
662.31	23463.87
662.46	23939.00
662.60	23543.45
662.74	23660.48
662.88	23435.78
663.03	23737.71
663.17	23627.71
663.31	23405.36
663.45	23634.73
663.60	23552.81
663.74	23414.72
663.88	23721.33
664.02	23506.00
664.17	23695.58
664.31	23145.56
664.45	23360.89
664.59	23363.23
664.73	23456.85
664.88	23426.42
665.02	23520.04
665.16	23410.04
665.30	23213.43
665.44	23108.11
665.59	22799.16
665.73	23204.07
665.87	22878.74
666.01	23178.33
666.15	23159.60
666.29	22607.23
666.44	22707.88
666.58	22857.67
666.72	22419.99
666.86	22473.82
667.00	22810.86
667.14	23098.75
667.28	22473.82
667.43	22401.27
667.57	22387.22
667.71	22483.19
667.85	22789.80
667.99	22572.13
668.13	22405.95
668.27	22855.33
668.41	22700.86
668.56	22089.98
668.70	22324.03
668.84	22651.70
668.98	22424.67
669.12	22309.99
669.26	22284.24
669.40	22073.59
669.54	22459.78
669.68	22136.79
669.82	22281.90
669.96	22066.57
670.10	21944.86
670.25	22160.19
670.39	21853.58
670.53	21947.20
670.67	21495.48
670.81	21841.88
670.95	21823.16
671.09	21968.27
671.23	21830.18
671.37	21898.05
671.51	21935.50
671.65	21731.87
671.79	21455.69
671.93	21715.49
672.07	21603.14
672.21	21453.35
672.35	21245.04
672.49	21212.28
672.63	21240.36
672.77	21345.69
672.91	21411.22
673.05	20985.24
673.19	21254.40
673.33	21137.38
673.47	21067.16
673.61	21338.66
673.75	21064.82
673.89	21062.48
674.03	21219.30
674.17	20816.72
674.31	20790.98
674.45	20643.52
674.59	20795.66
674.73	20814.38
674.87	20587.35
675.01	20582.67
675.15	20519.48
675.29	20362.66
675.43	20535.86
675.56	20245.63
675.70	20229.25
675.84	20084.14
675.98	20067.75
676.12	20545.22
676.26	20442.24
676.40	20416.49
676.54	20240.95
676.68	20020.94
676.82	19845.40
676.96	20166.06
677.10	19831.36
677.23	19676.88
677.37	19744.76
677.51	19810.29
677.65	19793.91
677.79	19506.02
677.93	19543.47
678.07	19323.46
678.21	19309.42
678.34	19410.06
678.48	19330.48
678.62	19403.04
678.76	19208.78
678.90	18909.19
679.04	19414.74
679.18	18984.09
679.31	18963.02
679.45	18787.48
679.59	18764.07
679.73	18939.62
679.87	18539.38
680.00	18934.93
680.14	18558.11
680.28	18651.73
680.42	18555.77
680.56	18501.93
680.70	18808.54
680.83	18663.43
680.97	18450.44
681.11	18527.68
681.25	18471.51
681.39	18256.18
681.52	18326.39
681.66	18204.69
681.80	18113.41
681.94	18080.64
682.07	18029.15
682.21	18190.64
682.35	17692.11
682.49	17575.08
682.62	17628.92
682.76	17998.72
682.90	17933.18
683.04	17678.07
683.17	17621.89
683.31	17869.99
683.45	17792.75
683.59	17661.68
683.72	17415.93
683.86	17561.04
684.00	17310.60
684.13	17425.29
684.27	16968.88
684.41	17055.48
684.55	17114.00
684.68	17195.92
684.82	16439.92
684.96	16929.09
685.09	17092.93
685.23	16662.27
685.37	16786.32
685.50	16833.13
685.64	16730.15
685.78	16652.91
685.91	16992.29
686.05	16556.95
686.19	16786.32
686.32	16313.53
686.46	16336.94
686.60	16297.15
686.73	16264.38
686.87	16215.23
687.01	15969.48
687.14	15985.86
687.28	16011.60
687.42	15894.58
687.55	16056.08
687.69	15854.79
687.82	15651.16
687.96	15995.22
688.10	15548.18
688.23	15672.23
688.37	15609.03
688.50	15740.10
688.64	15639.46
688.78	15503.71
688.91	15321.15
689.05	15386.68
689.18	15061.35
689.32	15122.20
689.46	15021.56
689.59	15260.29
689.73	15124.54
689.86	14883.47
690.00	15012.20
690.13	14836.66
690.27	15005.17
690.41	14853.04
690.54	14754.74
690.68	14703.25
690.81	14597.92
690.95	14579.20
691.08	14796.87
691.22	14635.37
691.35	14516.00
691.49	14441.11
691.62	14506.64
691.76	14059.60
691.89	14246.84
692.03	14345.14
692.16	14045.55
692.30	13998.74
692.43	13933.21
692.57	13860.65
692.70	13834.91
692.84	13788.10
692.97	13748.31
693.11	13841.93
693.24	13860.65
693.38	13465.10
693.51	13860.65
693.65	13706.18
693.78	13537.66
693.92	13504.89
694.05	13598.51
694.19	13212.32
694.32	13497.87
694.45	13437.02
694.59	13209.98
694.72	13039.12
694.86	13099.98
694.99	12779.32
695.13	12727.83
695.26	12758.26
695.39	12945.50
695.53	12882.31
695.66	12823.80
695.80	12786.35
695.93	12793.37
696.07	12856.56
696.20	12872.95
696.33	12842.52
696.47	12662.30
696.60	12510.16
696.73	12358.03
696.87	12517.18
697.00	12238.66
697.14	12290.15
697.27	12439.95
697.40	12126.32
697.54	11852.47
697.67	12177.81
697.80	11885.24
697.94	11824.39
698.07	11620.76
698.21	11857.15
698.34	11880.56
698.47	11847.79
698.61	11815.02
698.74	11829.07
698.87	11901.62
699.01	11564.59
699.14	11637.14
699.27	11513.10
699.40	11552.88
699.54	11363.30
699.67	11456.92
699.80	11454.58
699.94	11173.72
700.07	11316.49
700.20	11091.80
700.34	11047.33
700.47	11084.78
700.60	10998.18
700.73	11265.00
700.87	11056.69
701.00	10794.55
701.13	11023.92
701.26	10850.72
701.40	10888.17
701.53	10789.87
701.66	10815.62
701.79	10789.87
701.93	10544.11
702.06	10384.96
702.19	10314.74
702.32	10394.32
702.46	10373.25
702.59	10352.19
702.72	10139.20
702.85	10162.61
702.99	10274.95
703.12	10403.68
703.25	10085.37
703.38	9984.73
703.51	10047.92
703.65	10129.84
703.78	10005.79
703.91	9867.70
704.04	10129.84
704.17	9837.27
704.31	10061.96
704.44	9790.46
704.57	9668.75
704.70	9514.28
704.83	9614.92
704.96	9619.60
705.10	9448.74
705.23	9570.45
>>>>>End Processed Spectral Data<<<<<
