SpectraSuite Data File
++++++++++++++++++++++++++++++++++++
Date: Fri Oct 18 13:58:17 GMT-05:00 2013
User: bianchi
Dark Spectrum Present: No
Reference Spectrum Present: No
Number of Sampled Component Spectra: 1
Spectrometers: USB2+H05261
Integration Time (usec): 50000 (USB2+H05261)
Spectra Averaged: 1 (USB2+H05261)
Boxcar Smoothing: 0 (USB2+H05261)
Correct for Electrical Dark: No (USB2+H05261)
Strobe/Lamp Enabled: No (USB2+H05261)
Correct for Detector Non-linearity: No (USB2+H05261)
Correct for Stray Light: No (USB2+H05261)
Number of Pixels in Processed Spectrum: 2048
>>>>>Begin Processed Spectral Data<<<<<
365.73	0.00
365.92	0.00
366.12	0.00
366.32	0.00
366.52	0.00
366.72	0.00
366.91	0.00
367.11	0.00
367.31	0.00
367.51	0.00
367.70	0.00
367.90	0.00
368.10	0.00
368.30	0.00
368.49	0.00
368.69	0.00
368.89	0.00
369.09	0.00
369.28	0.00
369.48	0.00
369.68	0.00
369.87	0.00
370.07	0.00
370.27	0.00
370.47	0.00
370.66	77.24
370.86	100.64
371.06	131.07
371.25	147.45
371.45	187.24
371.65	102.98
371.84	142.77
372.04	74.90
372.24	182.56
372.44	177.88
372.63	217.67
372.83	241.08
373.03	184.90
373.22	161.50
373.42	170.86
373.62	203.63
373.81	180.22
374.01	285.55
374.21	264.48
374.40	205.97
374.60	205.97
374.79	182.56
374.99	245.76
375.19	203.63
375.38	220.01
375.58	276.18
375.78	285.55
375.97	308.95
376.17	292.57
376.37	290.23
376.56	322.99
376.76	245.76
376.95	259.80
377.15	294.91
377.35	299.59
377.54	330.02
377.74	334.70
377.93	220.01
378.13	262.14
378.33	280.86
378.52	262.14
378.72	280.86
378.91	327.68
379.11	395.55
379.31	299.59
379.50	315.97
379.70	285.55
379.89	297.25
380.09	273.84
380.28	243.42
380.48	290.23
380.68	318.31
380.87	297.25
381.07	262.14
381.26	379.17
381.46	285.55
381.65	360.44
381.85	344.06
382.04	351.08
382.24	346.40
382.43	285.55
382.63	381.51
382.83	353.42
383.02	341.72
383.22	395.55
383.41	367.46
383.61	365.12
383.80	428.32
384.00	393.21
384.19	372.15
384.39	397.89
384.58	339.38
384.78	327.68
384.97	404.91
385.17	383.85
385.36	365.12
385.56	418.96
385.75	322.99
385.95	397.89
386.14	409.59
386.34	433.00
386.53	374.49
386.72	433.00
386.92	414.27
387.11	449.38
387.31	423.64
387.50	423.64
387.70	362.78
387.89	348.74
388.09	397.89
388.28	437.68
388.48	428.32
388.67	397.89
388.86	444.70
389.06	547.69
389.25	423.64
389.45	404.91
389.64	402.57
389.84	482.15
390.03	425.98
390.22	552.37
390.42	550.03
390.61	393.21
390.81	444.70
391.00	498.53
391.19	500.87
391.39	524.28
391.58	449.38
391.78	482.15
391.97	510.24
392.16	514.92
392.36	564.07
392.55	554.71
392.75	554.71
392.94	629.60
393.13	571.09
393.33	564.07
393.52	543.00
393.71	561.73
393.91	589.82
394.10	592.16
394.29	585.13
394.49	512.58
394.68	575.77
394.88	634.29
395.07	610.88
395.26	596.84
395.46	568.75
395.65	568.75
395.84	643.65
396.04	585.13
396.23	678.76
396.42	706.84
396.62	683.44
396.81	662.37
397.00	685.78
397.19	592.16
397.39	664.71
397.58	704.50
397.77	702.16
397.97	685.78
398.16	685.78
398.35	718.54
398.55	774.72
398.74	751.31
398.93	772.38
399.12	746.63
399.32	737.27
399.51	720.88
399.70	716.20
399.90	774.72
400.09	777.06
400.28	786.42
400.47	772.38
400.67	758.33
400.86	807.48
401.05	840.25
401.24	753.65
401.44	870.68
401.63	704.50
401.82	781.74
402.01	884.72
402.21	816.85
402.40	755.99
402.59	856.64
402.78	983.02
402.97	873.02
403.17	861.32
403.36	873.02
403.55	905.79
403.74	990.05
403.93	908.13
404.13	912.81
404.32	905.79
404.51	943.24
404.70	1064.94
404.89	938.55
405.09	915.15
405.28	908.13
405.47	903.45
405.66	915.15
405.85	973.66
406.05	980.68
406.24	1046.22
406.43	1043.88
406.62	1020.47
406.81	954.94
407.00	1008.77
407.20	954.94
407.39	1022.81
407.58	1081.33
407.77	1102.39
407.96	1121.12
408.15	940.90
408.34	1013.45
408.54	1123.46
408.73	1050.90
408.92	1095.37
409.11	1149.20
409.30	1153.88
409.49	1174.95
409.68	1121.12
409.87	1011.11
410.07	1188.99
410.26	1118.78
410.45	1203.04
410.64	1153.88
410.83	1214.74
411.02	1212.40
411.21	1221.76
411.40	1306.02
411.59	1329.42
411.78	1181.97
411.98	1203.04
412.17	1303.68
412.36	1235.80
412.55	1275.59
412.74	1322.40
412.93	1336.45
413.12	1350.49
413.31	1329.42
413.50	1418.36
413.69	1444.11
413.88	1500.28
414.07	1385.60
414.26	1497.94
414.45	1486.24
414.64	1493.26
414.83	1563.48
415.02	1537.73
415.22	1526.03
415.41	1687.53
415.60	1521.35
415.79	1483.90
415.98	1570.50
416.17	1624.33
416.36	1699.23
416.55	1619.65
416.74	1671.14
416.93	1610.29
417.12	1654.76
417.31	1671.14
417.50	1724.97
417.69	1802.21
417.88	1671.14
418.07	1689.87
418.26	1678.16
418.45	1753.06
418.64	1834.98
418.83	1785.83
419.02	1816.26
419.21	1785.83
419.39	1827.96
419.58	1856.04
419.77	1771.79
419.96	1858.39
420.15	1909.88
420.34	1893.49
420.53	1837.32
420.72	1867.75
420.91	1928.60
421.10	1893.49
421.29	2024.56
421.48	1818.60
421.67	2001.16
421.86	1977.75
422.05	2001.16
422.24	1893.49
422.43	1984.77
422.61	1968.39
422.80	2005.84
422.99	1914.56
423.18	2003.50
423.37	2008.18
423.56	2015.20
423.75	1975.41
423.94	2097.12
424.13	1856.04
424.32	1956.69
424.50	2127.55
424.69	2071.37
424.88	2050.31
425.07	1888.81
425.26	1905.20
425.45	1949.67
425.64	2022.22
425.83	2111.16
426.01	1973.07
426.20	2111.16
426.39	2078.40
426.58	2080.74
426.77	2134.57
426.96	2127.55
427.15	2108.82
427.33	2083.08
427.52	2169.68
427.71	2204.78
427.90	2080.74
428.09	2125.21
428.28	2129.89
428.46	2207.13
428.65	2230.53
428.84	2190.74
429.03	2399.05
429.22	2167.34
429.40	2197.76
429.59	2354.58
429.78	2183.72
429.97	2146.27
430.16	2253.94
430.34	2260.96
430.53	2225.85
430.72	2331.17
430.91	2331.17
431.10	2347.56
431.28	2464.58
431.47	2363.94
431.66	2389.69
431.85	2349.90
432.03	2368.62
432.22	2471.61
432.41	2310.11
432.60	2401.39
432.79	2436.50
432.97	2509.05
433.16	2532.46
433.35	2530.12
433.54	2483.31
433.72	2483.31
433.91	2462.24
434.10	2560.55
434.28	2649.49
434.47	2492.67
434.66	2537.14
434.85	2541.82
435.03	2672.89
435.22	2651.83
435.41	2602.68
435.59	2602.68
435.78	2602.68
435.97	2647.15
436.16	2750.13
436.34	2740.77
436.53	2670.55
436.72	2806.30
436.90	2605.02
437.09	2754.81
437.28	2738.43
437.46	2794.60
437.65	2729.06
437.84	2689.28
438.02	2803.96
438.21	2773.53
438.40	2789.92
438.58	2801.62
438.77	2871.84
438.96	2939.71
439.14	2874.18
439.33	2885.88
439.52	3014.61
439.70	2972.48
439.89	2949.08
440.08	3091.85
440.26	3066.10
440.45	2981.84
440.63	3019.29
440.82	3112.91
441.01	3131.64
441.19	3108.23
441.38	3239.30
441.57	3091.85
441.75	3192.49
441.94	3309.52
442.12	3243.98
442.31	3368.03
442.50	3449.95
442.68	3267.39
442.87	3377.39
443.05	3199.51
443.24	3283.77
443.43	3414.84
443.61	3417.18
443.80	3543.57
443.98	3403.14
444.17	3274.41
444.35	3349.31
444.54	3342.28
444.73	3475.70
444.91	3417.18
445.10	3346.97
445.28	3449.95
445.47	3426.54
445.65	3447.61
445.84	3466.33
446.02	3496.76
446.21	3520.17
446.39	3419.52
446.58	3578.68
446.77	3515.48
446.95	3412.50
447.14	3590.38
447.32	3588.04
447.51	3515.48
447.69	3637.19
447.88	3471.01
448.06	3433.57
448.25	3592.72
448.43	3482.72
448.62	3487.40
448.80	3566.98
448.99	3524.85
449.17	3555.27
449.36	3571.66
449.54	3707.41
449.73	3646.55
449.91	3691.02
450.10	3595.06
450.28	3728.47
450.46	3803.37
450.65	3700.39
450.83	3777.62
451.02	3681.66
451.20	3805.71
451.39	3889.97
451.57	3644.21
451.76	3714.43
451.94	3740.18
452.13	3847.84
452.31	3779.97
452.49	3798.69
452.68	3770.60
452.86	3794.01
453.05	3899.33
453.23	4011.68
453.42	3775.28
453.60	3864.22
453.78	3918.06
453.97	4067.85
454.15	3941.46
454.34	3927.42
454.52	4058.49
454.70	3957.85
454.89	4042.11
455.07	3932.10
455.26	3981.25
455.44	4117.00
455.62	4021.04
455.81	4028.06
455.99	4161.47
456.17	4051.47
456.36	4140.41
456.54	4149.77
456.73	4264.46
456.91	4397.87
457.09	4337.01
457.28	4414.25
457.46	4212.96
457.64	4397.87
457.83	4425.95
458.01	4198.92
458.19	4421.27
458.38	4327.65
458.56	4479.79
458.74	4547.66
458.93	4306.59
459.11	4447.02
459.29	4407.23
459.48	4575.75
459.66	4482.13
459.84	4440.00
460.03	4601.49
460.21	4613.20
460.39	4571.07
460.57	4589.79
460.76	4652.98
460.94	4662.35
461.12	4521.92
461.31	4608.51
461.49	4669.37
461.67	4603.83
461.85	4812.14
462.04	4678.73
462.22	5057.90
462.40	4826.18
462.59	4702.14
462.77	4774.69
462.95	4891.72
463.13	4660.01
463.32	4898.74
463.50	4809.80
463.68	4844.91
463.86	4856.61
464.05	4723.20
464.23	4896.40
464.41	4980.66
464.59	4833.21
464.78	4919.81
464.96	4802.78
465.14	4915.12
465.32	4908.10
465.50	5109.39
465.69	4992.36
465.87	4873.00
466.05	5043.85
466.23	4968.96
466.41	5032.15
466.60	5233.44
466.78	4992.36
466.96	5020.45
467.14	5088.32
467.32	5214.71
467.51	5247.48
467.69	5128.11
467.87	5186.63
468.05	5170.24
468.23	5254.50
468.41	5046.20
468.60	5116.41
468.78	5289.61
468.96	5198.33
469.14	5387.91
469.32	5453.45
469.50	5331.74
469.69	5275.57
469.87	5336.42
470.05	5334.08
470.23	5338.76
470.41	5416.00
470.59	5561.11
470.77	5509.62
470.95	5469.83
471.14	5659.42
471.32	5476.85
471.50	5638.35
471.68	5727.29
471.86	5628.99
472.04	5533.03
472.22	5753.04
472.40	5750.70
472.58	5650.05
472.77	5834.96
472.95	5858.36
473.13	5951.98
473.31	5860.70
473.49	5851.34
473.67	5914.53
473.85	5947.30
474.03	5949.64
474.21	6164.97
474.39	5944.96
474.57	6263.27
474.75	6108.80
474.93	6197.74
475.12	6183.70
475.30	6324.13
475.48	6108.80
475.66	6319.45
475.84	6401.37
476.02	6361.58
476.20	6307.74
476.38	6392.00
476.56	6581.59
476.74	6494.99
476.92	6604.99
477.10	6539.46
477.28	6565.20
477.46	6558.18
477.64	6766.49
477.82	6782.87
478.00	6855.43
478.18	6862.45
478.36	7157.36
478.54	7002.88
478.72	6855.43
478.90	7133.95
479.08	7164.38
479.26	7250.98
479.44	7279.07
479.62	7384.39
479.80	7524.82
479.98	7396.09
480.16	7618.44
480.34	7435.88
480.52	7712.07
480.70	7798.66
480.88	7770.58
481.06	7999.95
481.24	7929.74
481.41	8023.36
481.59	7899.31
481.77	7775.26
481.95	8241.03
482.13	7918.03
482.31	7967.18
482.49	8177.83
482.67	8369.76
482.85	8102.93
483.03	8468.06
483.21	8655.30
483.39	8461.04
483.57	8617.85
483.74	8723.18
483.92	8624.87
484.10	8772.33
484.28	8774.67
484.46	8863.61
484.64	9060.21
484.82	9029.79
485.00	9165.54
485.18	9275.54
485.35	9554.07
485.53	9483.85
485.71	9563.43
485.89	9540.02
486.07	9399.59
486.25	9568.11
486.43	9411.29
486.61	9898.13
486.78	9905.15
486.96	10019.83
487.14	10242.18
487.32	10052.60
487.50	10406.02
487.68	10061.96
487.85	10586.24
488.03	10614.33
488.21	10492.62
488.39	10527.73
488.57	10553.48
488.75	10679.86
488.92	10834.34
489.10	11012.22
489.28	10813.28
489.46	11126.91
489.64	10836.68
489.81	11403.09
489.99	11344.58
490.17	11232.23
490.35	11403.09
490.53	11541.18
490.70	11492.03
490.88	11555.22
491.06	11744.81
491.24	11770.55
491.41	11775.24
491.59	12037.38
491.77	12063.12
491.95	11946.09
492.13	12280.79
492.30	12182.49
492.48	12351.01
492.66	12402.50
492.84	12461.01
493.01	12512.50
493.19	12622.51
493.37	12737.20
493.54	12711.45
493.72	13020.40
493.90	12924.44
494.08	12971.25
494.25	12936.14
494.43	13268.50
494.61	13188.92
494.79	13170.19
494.96	13322.33
495.14	13179.56
495.32	13516.59
495.49	13790.44
495.67	13776.39
495.85	13790.44
496.02	13706.18
496.20	13841.93
496.38	13729.58
496.55	13989.38
496.73	14373.23
496.91	14176.62
497.09	14445.79
497.26	14469.19
497.44	14438.76
497.62	14499.62
497.79	14581.54
497.97	14457.49
498.14	14621.33
498.32	15019.22
498.50	14796.87
498.67	15164.33
498.85	14892.83
499.03	14995.81
499.20	15215.82
499.38	15019.22
499.56	15185.40
499.73	15229.87
499.91	15396.04
500.08	15267.31
500.26	15267.31
500.44	15316.47
500.61	15400.72
500.79	15749.46
500.97	15592.65
501.14	15550.52
501.32	15679.25
501.49	15913.30
501.67	15648.82
501.84	16018.63
502.02	15932.03
502.20	15894.58
502.37	16210.55
502.55	16140.33
502.72	16149.70
502.90	16189.49
503.07	16173.10
503.25	16379.07
503.43	16475.03
503.60	16706.74
503.78	16772.28
503.95	16519.50
504.13	16432.90
504.30	16666.95
504.48	16587.38
504.65	16835.47
504.83	17158.47
505.01	17123.36
505.18	17209.96
505.36	17338.69
505.53	17111.66
505.71	17088.25
505.88	17205.28
506.06	16837.81
506.23	17359.75
506.41	17343.37
506.58	17565.72
506.76	17436.99
506.93	17640.62
507.11	17486.14
507.28	17621.89
507.46	17987.02
507.63	17848.93
507.81	17633.60
507.98	17668.70
508.16	17825.52
508.33	17951.91
508.50	17741.26
508.68	18068.94
508.85	18361.50
509.03	18092.34
509.20	18066.60
509.38	18380.23
509.55	18497.25
509.73	18270.22
509.90	18335.76
510.08	18391.93
510.25	18427.04
510.42	18855.36
510.60	18780.46
510.77	18625.98
510.95	18785.14
511.12	18595.56
511.30	18822.59
511.47	18937.27
511.64	19197.07
511.82	18984.09
511.99	18991.11
512.17	19384.32
512.34	19190.05
512.51	19239.20
512.69	19466.24
512.86	19140.90
513.04	19552.84
513.21	19377.30
513.38	19637.09
513.56	19501.34
513.73	19424.11
513.90	19571.56
514.08	19683.91
514.25	19384.32
514.43	19564.54
514.60	19807.95
514.77	19644.12
514.95	19981.15
515.12	19978.81
515.29	19955.41
515.47	19908.60
515.64	20144.99
515.81	20133.29
515.99	20315.85
516.16	20479.69
516.33	20184.78
516.51	20421.17
516.68	20322.87
516.85	20229.25
517.03	20353.30
517.20	20479.69
517.37	20411.81
517.54	20451.60
517.72	20718.42
517.89	20493.73
518.06	20533.52
518.24	20697.36
518.41	20631.82
518.58	20816.72
518.75	20854.17
518.93	20805.02
519.10	21113.97
519.27	21394.84
519.45	20905.66
519.62	21053.12
519.79	21111.63
519.96	20889.28
520.14	21139.72
520.31	21252.06
520.48	21647.61
520.65	21710.81
520.83	21750.60
521.00	21479.10
521.17	21301.22
521.34	21385.47
521.52	21736.56
521.69	21781.03
521.86	22015.08
522.03	21975.29
522.20	21446.33
522.38	21778.68
522.55	22146.15
522.72	22015.08
522.89	22118.06
523.07	21977.63
523.24	22300.62
523.41	22424.67
523.58	22148.49
523.75	22506.59
523.92	22366.16
524.10	22225.73
524.27	22029.12
524.44	22576.81
524.61	22422.33
524.78	22766.39
524.96	22370.84
525.13	22787.46
525.30	22511.27
525.47	22815.54
525.64	22579.15
525.81	22857.67
525.98	22789.80
526.16	22675.11
526.33	23311.74
526.50	22986.40
526.67	22787.46
526.84	22906.82
527.01	22918.53
527.18	22752.35
527.36	23185.35
527.53	23124.49
527.70	23377.27
527.87	23388.97
528.04	23143.22
528.21	23250.88
528.38	23360.89
528.55	23346.84
528.72	23489.62
528.89	23508.34
529.07	23384.29
529.24	23304.71
529.41	23721.33
529.58	23669.84
529.75	23447.49
529.92	23641.75
530.09	23620.69
530.26	23704.95
530.43	23674.52
530.60	23367.91
530.77	23847.72
530.94	23800.91
531.11	23779.84
531.28	23644.09
531.46	23800.91
531.63	23892.19
531.80	24119.22
531.97	24362.64
532.14	23967.09
532.31	23728.35
532.48	24285.40
532.65	24332.21
532.82	24018.58
532.99	24212.84
533.16	24266.67
533.33	24056.03
533.50	24613.07
533.67	24655.20
533.84	24109.86
534.01	24498.39
534.18	24173.05
534.35	24683.29
534.52	24428.17
534.69	24971.18
534.86	24730.10
535.03	24847.13
535.20	24727.76
535.37	24882.24
535.54	24702.01
535.71	24795.64
535.88	24980.54
536.05	24758.19
536.22	25296.51
536.38	24842.45
536.55	24563.92
536.72	24961.81
536.89	24835.42
537.06	25387.79
537.23	25106.93
537.40	25043.73
537.57	24851.81
537.74	25366.73
537.91	25153.74
538.08	25523.54
538.25	25013.31
538.42	25116.29
538.59	25336.30
538.75	25268.42
538.92	25076.50
539.09	25460.35
539.26	25820.79
539.43	25483.75
539.60	25612.48
539.77	25586.74
539.94	25816.11
540.11	25694.40
540.28	25504.82
540.44	25738.87
540.61	25373.75
540.78	25626.53
540.95	25790.36
541.12	25937.82
541.29	25741.21
541.46	25518.86
541.62	25560.99
541.79	25951.86
541.96	25832.49
542.13	26057.18
542.30	26185.91
542.47	26033.78
542.63	26113.36
542.80	26298.26
542.97	26593.17
543.14	26656.36
543.31	26380.18
543.48	26253.79
543.64	26492.52
543.81	26483.16
543.98	26726.58
544.15	26490.18
544.32	26775.73
544.48	26984.04
544.65	26501.89
544.82	26665.72
544.99	26075.91
545.16	26867.01
545.32	26185.91
545.49	26726.58
545.66	26724.24
545.83	27264.90
546.00	26859.99
546.16	27026.17
546.33	26555.72
546.50	26792.11
546.67	27002.76
546.83	26539.33
547.00	26787.43
547.17	27206.39
547.34	26845.94
547.50	27075.32
547.67	27173.62
547.84	27023.83
548.00	27105.74
548.17	27222.77
548.34	26991.06
548.51	27075.32
548.67	27461.51
548.84	27374.91
549.01	27042.55
549.18	27197.02
549.34	27311.71
549.51	27101.06
549.68	27503.64
549.84	27461.51
550.01	27454.48
550.18	27536.40
550.34	27431.08
550.51	27735.35
550.68	27971.74
550.84	27484.91
551.01	27835.99
551.18	27391.29
551.34	27548.11
551.51	27704.92
551.68	27641.73
551.84	27555.13
552.01	27543.42
552.18	27700.24
552.34	27342.14
552.51	27707.26
552.68	27967.06
552.84	27501.29
553.01	27990.47
553.18	28084.09
553.34	28191.75
553.51	28056.00
553.67	27796.20
553.84	28467.94
554.01	28517.09
554.17	28114.52
554.34	28020.89
554.51	27990.47
554.67	28404.74
554.84	28182.39
555.00	28229.20
555.17	28451.55
555.33	28252.61
555.50	28168.35
555.67	28177.71
555.83	28210.48
556.00	28500.70
556.16	28811.99
556.33	28453.89
556.50	28652.84
556.66	28615.39
556.83	28034.94
556.99	28760.50
557.16	28121.54
557.32	28601.35
557.49	28678.58
557.65	28290.06
557.82	28472.62
557.98	28161.33
558.15	28893.91
558.32	28669.22
558.48	28386.02
558.65	28837.74
558.81	28816.68
558.98	28912.64
559.14	28772.21
559.31	28678.58
559.47	28376.66
559.64	28390.70
559.80	28973.49
559.97	28545.17
560.13	29333.93
560.30	29036.69
560.46	29062.43
560.63	29083.50
560.79	28903.28
560.96	29205.20
561.12	28954.77
561.29	28519.43
561.45	29006.26
561.61	28954.77
561.78	28751.14
561.94	28807.31
562.11	28879.87
562.27	29081.16
562.44	29078.82
562.60	28716.03
562.77	29067.11
562.93	28954.77
563.10	29102.22
563.26	28868.17
563.42	29027.32
563.59	28933.70
563.75	28898.59
563.92	29156.05
564.08	29046.05
564.24	29062.43
564.41	29340.96
564.57	29158.39
564.74	29378.40
564.90	29146.69
565.07	29364.36
565.23	29153.71
565.39	29633.52
565.56	29280.10
565.72	29249.67
565.88	29305.85
566.05	29095.20
566.21	29277.76
566.38	29390.11
566.54	29041.37
566.70	29207.55
566.87	29640.54
567.03	29472.03
567.19	29413.51
567.36	29708.42
567.52	28861.15
567.68	29685.01
567.85	29207.55
568.01	29837.15
568.17	29118.60
568.34	29467.34
568.50	29383.09
568.66	29614.80
568.83	29940.13
568.99	29460.32
569.15	29687.36
569.32	29575.01
569.48	29319.89
569.64	29558.63
569.81	29645.23
569.97	29647.57
570.13	29607.78
570.30	29275.42
570.46	29792.68
570.62	29685.01
570.78	29308.19
570.95	29429.90
571.11	29745.87
571.27	29223.93
571.43	29460.32
571.60	29376.06
571.76	29546.92
571.92	29457.98
572.09	29603.10
572.25	29493.09
572.41	29778.64
572.57	29446.28
572.74	29483.73
572.90	29783.32
573.06	29366.70
573.22	29652.25
573.38	29804.38
573.55	29666.29
573.71	29979.92
573.87	29752.89
574.03	29619.48
574.20	29799.70
574.36	29600.76
574.52	29596.07
574.68	29968.22
574.84	29820.77
575.01	29970.56
575.17	29727.14
575.33	29635.86
575.49	29713.10
575.65	29572.67
575.82	29991.62
575.98	29895.66
576.14	30174.19
576.30	29326.91
576.46	29902.68
576.62	29771.61
576.79	29509.47
576.95	29628.84
577.11	29909.71
577.27	29837.15
577.43	29626.50
577.59	29757.57
577.75	29869.92
577.92	29738.85
578.08	29621.82
578.24	29680.33
578.40	29846.51
578.56	30103.97
578.72	29813.74
578.88	30132.06
579.04	30230.36
579.21	30188.23
579.37	30164.82
579.53	30153.12
579.69	29839.49
579.85	30000.99
580.01	29851.19
580.17	29715.44
580.33	29996.31
580.49	29685.01
580.65	29991.62
580.82	30043.12
580.98	30120.35
581.14	29820.77
581.30	30106.31
581.46	29727.14
581.62	29825.45
581.78	29916.73
581.94	29898.00
582.10	29853.53
582.26	29993.97
582.42	30267.81
582.58	30019.71
582.74	30176.53
582.90	29820.77
583.06	30429.30
583.22	30054.82
583.38	30115.67
583.54	29989.28
583.70	29984.60
583.86	29858.21
584.02	29846.51
584.18	30033.75
584.34	30246.74
584.50	29933.11
584.66	30132.06
584.82	29811.40
584.98	29951.84
585.14	29713.10
585.30	29708.42
585.46	29865.24
585.62	30199.93
585.78	30096.95
585.94	30031.41
586.10	29799.70
586.26	29935.45
586.42	30286.53
586.58	30637.61
586.74	29839.49
586.90	29722.46
587.06	29895.66
587.22	30118.01
587.38	30134.40
587.54	30270.15
587.70	30232.70
587.86	30052.48
588.02	30258.45
588.18	30295.89
588.34	30368.45
588.49	30279.51
588.65	30345.05
588.81	29989.28
588.97	30478.46
589.13	30197.59
589.29	30380.15
589.45	30661.02
589.61	30108.65
589.77	30466.75
589.93	30225.68
590.08	30960.61
590.24	30387.18
590.40	30705.49
590.56	30597.82
590.72	30363.77
590.88	30218.66
591.04	30127.38
591.20	30375.47
591.35	30677.40
591.51	30380.15
591.67	30565.06
591.83	30871.67
591.99	30162.48
592.15	30464.41
592.31	30352.07
592.46	30176.53
592.62	30572.08
592.78	30204.61
592.94	29907.37
593.10	29876.94
593.26	30590.80
593.41	30721.87
593.57	30579.10
593.73	30169.51
593.89	30553.35
594.05	30712.51
594.20	30237.38
594.36	30476.12
594.52	30607.19
594.68	30038.44
594.84	30459.73
594.99	30583.78
595.15	30508.88
595.31	30513.56
595.47	30485.48
595.62	31051.89
595.78	30649.32
595.94	30693.79
596.10	30593.14
596.25	30333.34
596.41	30291.21
596.57	30452.71
596.73	30342.70
596.88	30515.90
597.04	30405.90
597.20	30668.04
597.36	30668.04
597.51	30808.47
597.67	30679.74
597.83	30487.82
597.99	30848.26
598.14	30768.68
598.30	30597.82
598.46	30314.62
598.61	30661.02
598.77	30396.54
598.93	31105.72
599.09	30536.97
599.24	31096.36
599.40	30815.49
599.56	30672.72
599.71	30618.89
599.87	30656.34
600.03	30635.27
600.18	30621.23
600.34	30642.29
600.50	30302.92
600.65	30536.97
600.81	31021.46
600.97	31014.44
601.12	30972.31
601.28	30345.05
601.44	30656.34
601.59	30345.05
601.75	30251.42
601.91	30616.55
602.06	30838.90
602.22	30588.46
602.37	30199.93
602.53	30698.47
602.69	31000.40
602.84	30630.59
603.00	30864.64
603.16	30686.76
603.31	30733.57
603.47	30672.72
603.62	30792.09
603.78	30827.20
603.94	30239.72
604.09	30637.61
604.25	30675.06
604.40	30801.45
604.56	30747.62
604.71	30937.20
604.87	30590.80
605.03	30845.92
605.18	30789.75
605.34	30668.04
605.49	30625.91
605.65	30452.71
605.80	30838.90
605.96	30300.58
606.12	30483.14
606.27	30632.93
606.43	30469.09
606.58	30518.25
606.74	30632.93
606.89	30768.68
607.05	30445.69
607.20	30859.96
607.36	30455.05
607.51	30511.22
607.67	30235.04
607.82	30307.60
607.98	30590.80
608.13	30412.92
608.29	30366.11
608.44	30850.60
608.60	30389.52
608.75	30841.24
608.91	30630.59
609.06	30108.65
609.22	30714.85
609.37	30103.97
609.53	30513.56
609.68	30300.58
609.84	30228.02
609.99	30141.42
610.15	30232.70
610.30	30321.64
610.46	30284.19
610.61	30270.15
610.76	29991.62
610.92	30228.02
611.07	30382.49
611.23	29958.86
611.38	30036.09
611.54	30110.99
611.69	30260.79
611.84	30099.29
612.00	29930.77
612.15	29769.27
612.31	30504.20
612.46	30120.35
612.62	30508.88
612.77	30228.02
612.92	30529.95
613.08	30333.34
613.23	30712.51
613.39	29907.37
613.54	30101.63
613.69	30263.13
613.85	30139.08
614.00	30029.07
614.15	30169.51
614.31	30136.74
614.46	30036.09
614.62	30228.02
614.77	29839.49
614.92	29853.53
615.08	29816.08
615.23	29921.41
615.38	30256.11
615.54	29820.77
615.69	29984.60
615.84	29832.47
616.00	29624.16
616.15	30066.52
616.30	29689.70
616.46	29975.24
616.61	29921.41
616.76	30029.07
616.92	29869.92
617.07	30015.03
617.22	29919.07
617.37	29816.08
617.53	30089.93
617.68	29387.77
617.83	29483.73
617.99	29626.50
618.14	29666.29
618.29	29605.44
618.45	29635.86
618.60	29940.13
618.75	30167.16
618.90	29317.55
619.06	29516.50
619.21	29364.36
619.36	29701.40
619.51	29230.95
619.67	29481.39
619.82	29333.93
619.97	29823.11
620.12	29483.73
620.28	29469.69
620.43	29474.37
620.58	29659.27
620.73	29685.01
620.89	29776.30
621.04	29834.81
621.19	29729.48
621.34	29731.83
621.49	29347.98
621.65	29268.40
621.80	29479.05
621.95	29352.66
622.10	29256.70
622.25	29228.61
622.41	29572.67
622.56	29301.17
622.71	29071.79
622.86	29259.04
623.01	29481.39
623.16	29474.37
623.32	28849.44
623.47	29041.37
623.62	29167.76
623.77	29104.56
623.92	28933.70
624.07	29097.54
624.23	29305.85
624.38	28954.77
624.53	29467.34
624.68	28910.30
624.83	29209.89
624.98	29273.08
625.13	29195.84
625.29	28893.91
625.44	29343.30
625.59	28720.71
625.74	28683.27
625.89	28465.60
626.04	28589.64
626.19	28973.49
626.34	28570.92
626.49	28924.34
626.65	28994.56
626.80	28847.10
626.95	28699.65
627.10	28814.34
627.25	28910.30
627.40	28788.59
627.55	28584.96
627.70	28531.13
627.85	28900.94
628.00	28573.26
628.15	28645.82
628.30	28643.48
628.45	28362.61
628.60	28191.75
628.76	28861.15
628.91	28636.45
629.06	28465.60
629.21	28634.11
629.36	28870.51
629.51	28079.41
629.66	28577.94
629.81	28245.58
629.96	28299.42
630.11	28692.63
630.26	28151.96
630.41	27999.83
630.56	28259.63
630.71	28383.68
630.86	28058.34
631.01	28119.20
631.16	28449.21
631.31	28020.89
631.46	28465.60
631.61	28184.73
631.76	28687.95
631.91	28016.21
632.06	28285.37
632.21	28166.01
632.36	28091.11
632.51	27920.25
632.66	28151.96
632.81	28079.41
632.96	27854.72
633.10	28126.22
633.25	28156.64
633.40	28198.77
633.55	27922.59
633.70	28039.62
633.85	27864.08
634.00	27374.91
634.15	28285.37
634.30	27672.15
634.45	27854.72
634.60	27735.35
634.75	27810.25
634.90	27674.49
635.05	27733.01
635.19	27777.48
635.34	28025.57
635.49	27894.50
635.64	27538.74
635.79	27882.80
635.94	27936.63
636.09	27566.83
636.24	27484.91
636.39	27498.95
636.53	27325.75
636.68	27257.88
636.83	27555.13
636.98	27646.41
637.13	27641.73
637.28	27604.28
637.43	27623.00
637.57	27452.14
637.72	27438.10
637.87	27585.55
638.02	27489.59
638.17	28013.87
638.32	27173.62
638.46	27468.53
638.61	27246.18
638.76	27395.97
638.91	26981.70
639.06	26906.80
639.20	27393.63
639.35	27339.80
639.50	27274.26
639.65	27630.02
639.80	27651.09
639.94	27374.91
640.09	27091.70
640.24	27035.53
640.39	27089.36
640.54	27208.73
640.68	27047.23
640.83	26951.27
640.98	26831.90
641.13	27101.06
641.27	27316.39
641.42	26881.05
641.57	26916.16
641.72	27094.04
641.86	26665.72
642.01	27108.08
642.16	26808.50
642.31	26934.88
642.45	27035.53
642.60	26764.03
642.75	26881.05
642.90	26728.92
643.04	26962.97
643.19	26670.40
643.34	26686.79
643.48	26752.32
643.63	26862.33
643.78	26773.39
643.93	26771.05
644.07	26995.74
644.22	27002.76
644.37	27012.12
644.51	26497.20
644.66	26689.13
644.81	26511.25
644.95	26686.79
645.10	26663.38
645.25	26813.18
645.39	26808.50
645.54	26958.29
645.69	26586.15
645.83	26476.14
645.98	26635.30
646.13	26717.22
646.27	26689.13
646.42	26600.19
646.57	26239.75
646.71	26476.14
646.86	26595.51
647.00	26616.57
647.15	26703.17
647.30	26319.32
647.44	26225.70
647.59	26485.50
647.74	26431.67
647.88	26094.63
648.03	26256.13
648.17	26494.86
648.32	26560.40
648.47	26459.76
648.61	26132.08
648.76	26551.04
648.90	26338.05
649.05	26441.03
649.20	26111.02
649.34	26143.78
649.49	25928.45
649.63	26106.34
649.78	26426.99
649.92	25895.69
650.07	26040.80
650.21	26066.55
650.36	26274.85
650.51	25635.89
650.65	26253.79
650.80	25958.88
650.94	26307.62
651.09	25954.20
651.23	25848.88
651.38	25956.54
651.52	25956.54
651.67	25785.68
651.81	26068.89
651.96	25525.88
652.10	26043.14
652.25	25778.66
652.39	25846.54
652.54	26045.48
652.68	25766.96
652.83	25942.50
652.97	26211.66
653.12	25713.13
653.26	25804.41
653.41	26068.89
653.55	25619.50
653.70	25521.20
653.84	25750.57
653.99	25827.81
654.13	25748.23
654.27	25511.84
654.42	25383.11
654.56	25252.04
654.71	25851.22
654.85	25439.28
655.00	25830.15
655.14	25820.79
655.29	25612.48
655.43	25743.55
655.57	25759.94
655.72	25305.87
655.86	25493.12
656.01	25233.32
656.15	25193.53
656.30	25474.39
656.44	25149.06
656.58	25088.20
656.73	25081.18
656.87	25149.06
657.01	25181.82
657.16	25577.37
657.30	25476.73
657.45	25280.13
657.59	25298.85
657.73	25453.33
657.88	25280.13
658.02	24940.75
658.16	25427.58
658.31	25017.99
658.45	25076.50
658.60	24837.76
658.74	25074.16
658.88	24704.35
659.03	24800.32
659.17	25048.41
659.31	25118.63
659.46	24980.54
659.60	25149.06
659.74	25132.67
659.89	24870.53
660.03	24304.12
660.17	24875.21
660.32	24489.03
660.46	24615.41
660.60	24582.65
660.74	24320.51
660.89	24409.45
661.03	24156.67
661.17	24137.94
661.32	24702.01
661.46	24512.43
661.60	24547.54
661.74	24521.79
661.89	24809.68
662.03	24503.07
662.17	24575.62
662.31	23852.40
662.46	24652.86
662.60	24540.52
662.74	24077.09
662.88	23922.62
663.03	24020.92
663.17	23765.80
663.31	24065.39
663.45	24273.70
663.60	23840.70
663.74	23864.10
663.88	23962.40
664.02	23709.63
664.17	24091.13
664.31	24250.29
664.45	23807.93
664.59	23866.44
664.73	23789.20
664.88	23950.70
665.02	23564.51
665.16	23681.54
665.30	23718.99
665.44	23482.59
665.59	23063.64
665.73	23824.31
665.87	23613.66
666.01	23489.62
666.15	23592.60
666.29	23452.17
666.44	23283.65
666.58	23108.11
666.72	23290.67
666.86	23470.89
667.00	23370.25
667.14	23360.89
667.28	23232.16
667.43	23157.26
667.57	23461.53
667.71	23091.73
667.85	23063.64
667.99	22871.72
668.13	22834.27
668.27	22871.72
668.41	23190.03
668.56	22939.59
668.70	23239.18
668.84	22944.27
668.98	23073.00
669.12	23215.77
669.26	22750.01
669.40	22696.17
669.54	22764.05
669.68	22717.24
669.82	22405.95
669.96	22480.85
670.10	22682.13
670.25	22544.04
670.39	22469.14
670.53	22497.23
670.67	22113.38
670.81	22373.18
670.95	22246.79
671.09	22380.20
671.23	22422.33
671.37	22113.38
671.51	22125.08
671.65	22375.52
671.79	22101.68
671.93	22122.74
672.07	22087.64
672.21	21930.82
672.35	21748.26
672.49	21947.20
672.63	21696.77
672.77	21848.90
672.91	21834.86
673.05	21701.45
673.19	21535.27
673.33	21511.86
673.47	21865.28
673.61	21434.63
673.75	21759.96
673.89	21722.51
674.03	21785.71
674.17	21240.36
674.31	21488.46
674.45	21575.06
674.59	21678.04
674.73	21118.65
674.87	21020.35
675.01	21188.87
675.15	21025.03
675.29	21081.21
675.43	21348.03
675.56	20877.58
675.70	21348.03
675.84	20858.85
675.98	20699.70
676.12	20875.24
676.26	21027.37
676.40	20987.58
676.54	21022.69
676.68	20718.42
676.82	20098.18
676.96	20442.24
677.10	20669.27
677.23	20334.57
677.37	20554.58
677.51	20266.70
677.65	20182.44
677.79	20088.82
677.93	20119.24
678.07	20030.30
678.21	19901.58
678.34	19936.68
678.48	19857.10
678.62	19772.85
678.76	19644.12
678.90	19552.84
679.04	19522.41
679.18	19335.17
679.31	19592.62
679.45	19403.04
679.59	19527.09
679.73	19330.48
679.87	19281.33
680.00	19211.12
680.14	19208.78
680.28	19166.65
680.42	19232.18
680.56	19140.90
680.70	18768.76
680.83	19307.08
680.97	19009.83
681.11	18946.64
681.25	18735.99
681.39	18754.71
681.52	18588.53
681.66	18600.24
681.80	18242.14
681.94	18544.06
682.07	18635.35
682.21	18551.09
682.35	18391.93
682.49	18214.05
682.62	18211.71
682.76	17923.82
682.90	18190.64
683.04	18398.95
683.17	18129.79
683.31	18291.29
683.45	18104.04
683.59	17991.70
683.72	17624.23
683.86	17895.74
684.00	17603.17
684.13	17598.49
684.27	17444.01
684.41	17869.99
684.55	17556.36
684.68	17193.58
684.82	17448.69
684.96	17071.87
685.09	17249.75
685.23	17137.40
685.37	17104.64
685.50	17436.99
685.64	17116.34
685.78	17453.37
685.91	17198.26
686.05	16989.95
686.19	16901.01
686.32	16807.39
686.46	16751.21
686.60	16788.66
686.73	16430.56
686.87	16374.39
687.01	16360.34
687.14	16585.04
687.28	16297.15
687.42	16390.77
687.55	16030.33
687.69	16339.28
687.82	16093.52
687.96	16152.04
688.10	16051.39
688.23	15974.16
688.37	16018.63
688.50	15889.90
688.64	16105.23
688.78	16088.84
688.91	15562.22
689.05	15604.35
689.18	15704.99
689.32	15627.76
689.46	15627.76
689.59	15524.77
689.73	15428.81
689.86	15459.24
690.00	15279.02
690.13	15283.70
690.27	15075.39
690.41	15302.42
690.54	15353.91
690.68	15197.10
690.81	15044.96
690.95	15166.67
691.08	15051.99
691.22	14820.27
691.35	15147.95
691.49	15295.40
691.62	14618.99
691.76	14504.30
691.89	14682.18
692.03	14459.83
692.16	14546.43
692.30	14480.89
692.43	14340.46
692.57	14436.42
692.70	14120.45
692.84	14242.16
692.97	14270.25
693.11	14288.97
693.24	13991.72
693.38	14017.47
693.51	13973.00
693.65	13666.39
693.78	14092.37
693.92	13858.31
694.05	13823.20
694.19	13853.63
694.32	13605.53
694.45	13556.38
694.59	13696.82
694.72	13621.92
694.86	13441.70
694.99	13343.39
695.13	13111.68
695.26	13163.17
695.39	13107.00
695.53	13287.22
695.66	13029.76
695.80	13231.05
695.93	13118.70
696.07	13118.70
696.20	13036.78
696.33	13067.21
696.47	12943.16
696.60	12678.68
696.73	12933.80
696.87	12875.29
697.00	12865.92
697.14	12521.87
697.27	12449.31
697.40	12519.53
697.54	12538.25
697.67	12074.82
697.80	12313.56
697.94	12439.95
698.07	12168.45
698.21	12231.64
698.34	12016.31
698.47	12004.61
698.61	11969.50
698.74	11992.90
698.87	12135.68
699.01	11969.50
699.14	11927.37
699.27	11714.38
699.40	11875.88
699.54	11690.98
699.67	11627.78
699.80	11655.87
699.94	11529.48
700.07	11265.00
700.20	11365.64
700.34	11290.74
700.47	11391.39
700.60	11485.01
700.73	11396.07
700.87	11229.89
701.00	11391.39
701.13	10946.69
701.26	11171.38
701.40	11091.80
701.53	11070.73
701.66	11232.23
701.79	10902.22
701.93	10916.26
702.06	10904.56
702.19	10574.54
702.32	10633.05
702.46	10567.52
702.59	10588.58
702.72	10476.24
702.85	10501.98
702.99	10310.06
703.12	10567.52
703.25	10242.18
703.38	10333.47
703.51	10202.40
703.65	10312.40
703.78	10492.62
703.91	10246.87
704.04	10097.07
704.17	10258.57
704.31	10118.14
704.44	10073.67
704.57	9949.62
704.70	9734.29
704.83	9701.52
704.96	9837.27
705.10	9863.02
705.23	9710.88
>>>>>End Processed Spectral Data<<<<<
