SpectraSuite Data File
++++++++++++++++++++++++++++++++++++
Date: Fri Oct 18 13:58:34 GMT-05:00 2013
User: bianchi
Dark Spectrum Present: No
Reference Spectrum Present: No
Number of Sampled Component Spectra: 1
Spectrometers: USB2+H05261
Integration Time (usec): 50000 (USB2+H05261)
Spectra Averaged: 1 (USB2+H05261)
Boxcar Smoothing: 0 (USB2+H05261)
Correct for Electrical Dark: No (USB2+H05261)
Strobe/Lamp Enabled: No (USB2+H05261)
Correct for Detector Non-linearity: No (USB2+H05261)
Correct for Stray Light: No (USB2+H05261)
Number of Pixels in Processed Spectrum: 2048
>>>>>Begin Processed Spectral Data<<<<<
365.73	0.00
365.92	0.00
366.12	0.00
366.32	0.00
366.52	0.00
366.72	0.00
366.91	0.00
367.11	0.00
367.31	0.00
367.51	0.00
367.70	0.00
367.90	0.00
368.10	0.00
368.30	0.00
368.49	0.00
368.69	0.00
368.89	0.00
369.09	0.00
369.28	0.00
369.48	0.00
369.68	0.00
369.87	0.00
370.07	0.00
370.27	0.00
370.47	0.00
370.66	70.22
370.86	128.73
371.06	98.30
371.25	77.24
371.45	156.82
371.65	110.01
371.84	145.11
372.04	133.41
372.24	229.37
372.44	154.48
372.63	187.24
372.83	154.48
373.03	51.49
373.22	236.39
373.42	182.56
373.62	220.01
373.81	238.73
374.01	283.20
374.21	276.18
374.40	276.18
374.60	163.84
374.79	163.84
374.99	168.52
375.19	287.89
375.38	276.18
375.58	227.03
375.78	320.65
375.97	285.55
376.17	276.18
376.37	198.95
376.56	224.69
376.76	229.37
376.95	231.71
377.15	271.50
377.35	299.59
377.54	294.91
377.74	248.10
377.93	306.61
378.13	250.44
378.33	257.46
378.52	294.91
378.72	313.63
378.91	306.61
379.11	238.73
379.31	266.82
379.50	224.69
379.70	348.74
379.89	292.57
380.09	334.70
380.28	266.82
380.48	278.52
380.68	266.82
380.87	273.84
381.07	278.52
381.26	344.06
381.46	374.49
381.65	355.76
381.85	376.83
382.04	257.46
382.24	245.76
382.43	416.62
382.63	330.02
382.83	409.59
383.02	271.50
383.22	297.25
383.41	334.70
383.61	386.19
383.80	425.98
384.00	374.49
384.19	449.38
384.39	425.98
384.58	376.83
384.78	308.95
384.97	332.36
385.17	351.08
385.36	449.38
385.56	383.85
385.75	341.72
385.95	381.51
386.14	402.57
386.34	447.04
386.53	346.40
386.72	454.06
386.92	393.21
387.11	299.59
387.31	386.19
387.50	442.36
387.70	414.27
387.89	454.06
388.09	468.11
388.28	470.45
388.48	489.17
388.67	519.60
388.86	428.32
389.06	486.83
389.25	367.46
389.45	416.62
389.64	393.21
389.84	451.72
390.03	472.79
390.22	458.74
390.42	491.51
390.61	526.62
390.81	435.34
391.00	477.47
391.19	472.79
391.39	472.79
391.58	561.73
391.78	491.51
391.97	519.60
392.16	517.26
392.36	566.41
392.55	505.56
392.75	564.07
392.94	592.16
393.13	585.13
393.33	512.58
393.52	552.37
393.71	617.90
393.91	566.41
394.10	575.77
394.29	615.56
394.49	624.92
394.68	645.99
394.88	617.90
395.07	575.77
395.26	599.18
395.46	573.43
395.65	643.65
395.84	594.50
396.04	620.24
396.23	610.88
396.42	690.46
396.62	688.12
396.81	622.58
397.00	601.52
397.19	622.58
397.39	664.71
397.58	643.65
397.77	704.50
397.97	704.50
398.16	629.60
398.35	755.99
398.55	744.29
398.74	606.20
398.93	674.07
399.12	760.67
399.32	678.76
399.51	664.71
399.70	748.97
399.90	653.01
400.09	744.29
400.28	805.14
400.47	739.61
400.67	727.91
400.86	751.31
401.05	791.10
401.24	788.76
401.44	753.65
401.63	830.89
401.82	795.78
402.01	718.54
402.21	821.53
402.40	713.86
402.59	751.31
402.78	891.74
402.97	851.96
403.17	805.14
403.36	814.51
403.55	851.96
403.74	826.21
403.93	837.91
404.13	903.45
404.32	863.66
404.51	919.83
404.70	882.38
404.89	908.13
405.09	873.02
405.28	936.21
405.47	912.81
405.66	945.58
405.85	1041.54
406.05	997.07
406.24	929.19
406.43	954.94
406.62	1008.77
406.81	1050.90
407.00	959.62
407.20	940.90
407.39	1041.54
407.58	959.62
407.77	1071.97
407.96	1123.46
408.15	1071.97
408.34	1011.11
408.54	1050.90
408.73	1034.52
408.92	1064.94
409.11	1036.86
409.30	1144.52
409.49	1167.93
409.68	1123.46
409.87	1111.75
410.07	1212.40
410.26	1210.06
410.45	1249.85
410.64	1224.10
410.83	1217.08
411.02	1217.08
411.21	1238.14
411.40	1111.75
411.59	1280.27
411.78	1233.46
411.98	1268.57
412.17	1376.24
412.36	1343.47
412.55	1306.02
412.74	1263.89
412.93	1427.73
413.12	1373.89
413.31	1418.36
413.50	1341.13
413.69	1390.28
413.88	1369.21
414.07	1413.68
414.26	1425.39
414.45	1462.83
414.64	1460.49
414.83	1423.05
415.02	1423.05
415.22	1495.60
415.41	1526.03
415.60	1465.18
415.79	1551.78
415.98	1586.88
416.17	1558.80
416.36	1556.46
416.55	1659.44
416.74	1727.32
416.93	1605.61
417.12	1694.55
417.31	1741.36
417.50	1661.78
417.69	1746.04
417.88	1722.63
418.07	1666.46
418.26	1732.00
418.45	1729.66
418.64	1881.79
418.83	1816.26
419.02	1820.94
419.21	1877.11
419.39	1842.00
419.58	1724.97
419.77	1820.94
419.96	1806.89
420.15	1816.26
420.34	1753.06
420.53	1823.28
420.72	1788.17
420.91	1888.81
421.10	1900.52
421.29	1963.71
421.48	1874.77
421.67	1952.01
421.86	2019.88
422.05	1865.41
422.24	1907.54
422.43	2001.16
422.61	1989.46
422.80	1977.75
422.99	1923.92
423.18	1973.07
423.37	1963.71
423.56	1996.48
423.75	1877.11
423.94	2024.56
424.13	1886.47
424.32	1877.11
424.50	2031.58
424.69	2012.86
424.88	2113.50
425.07	2036.27
425.26	2040.95
425.45	2022.22
425.64	2031.58
425.83	2022.22
426.01	2139.25
426.20	2078.40
426.39	1977.75
426.58	2029.24
426.77	2186.06
426.96	2150.95
427.15	2118.18
427.33	1977.75
427.52	2069.03
427.71	2012.86
427.90	2085.42
428.09	2169.68
428.28	2181.38
428.46	2216.49
428.65	2195.42
428.84	2202.44
429.03	2277.34
429.22	2183.72
429.40	2370.96
429.59	2216.49
429.78	2150.95
429.97	2106.48
430.16	2230.53
430.34	2333.51
430.53	2300.75
430.72	2307.77
430.91	2459.90
431.10	2275.00
431.28	2342.88
431.47	2363.94
431.66	2457.56
431.85	2260.96
432.03	2469.27
432.22	2399.05
432.41	2408.41
432.60	2429.48
432.79	2387.35
432.97	2347.56
433.16	2476.29
433.35	2380.32
433.54	2506.71
433.72	2511.39
433.91	2490.33
434.10	2427.14
434.28	2513.74
434.47	2502.03
434.66	2448.20
434.85	2558.21
435.03	2595.65
435.22	2413.09
435.41	2637.78
435.59	2656.51
435.78	2548.84
435.97	2527.78
436.16	2780.56
436.34	2539.48
436.53	2623.74
436.72	2771.19
436.90	2665.87
437.09	2801.62
437.28	2614.38
437.46	2754.81
437.65	2703.32
437.84	2696.30
438.02	2799.28
438.21	2696.30
438.40	2693.96
438.58	2789.92
438.77	2832.05
438.96	2904.60
439.14	2832.05
439.33	2829.71
439.52	2911.63
439.70	2883.54
439.89	3155.04
440.08	2998.23
440.26	3002.91
440.45	3136.32
440.63	3014.61
440.82	3103.55
441.01	2984.18
441.19	3061.42
441.38	3166.74
441.57	3190.15
441.75	3084.83
441.94	3206.53
442.12	3293.13
442.31	3307.18
442.50	3332.92
442.68	3293.13
442.87	3274.41
443.05	3346.97
443.24	3419.52
443.43	3428.88
443.61	3363.35
443.80	3501.44
443.98	3410.16
444.17	3258.03
444.35	3452.29
444.54	3389.10
444.73	3471.01
444.91	3475.70
445.10	3442.93
445.28	3496.76
445.47	3330.58
445.65	3412.50
445.84	3471.01
446.02	3515.48
446.21	3365.69
446.39	3449.95
446.58	3452.29
446.77	3487.40
446.95	3454.63
447.14	3471.01
447.32	3520.17
447.51	3375.05
447.69	3475.70
447.88	3517.83
448.06	3349.31
448.25	3426.54
448.43	3499.10
448.62	3503.78
448.80	3452.29
448.99	3485.06
449.17	3637.19
449.36	3492.08
449.54	3609.11
449.73	3679.32
449.91	3658.26
450.10	3669.96
450.28	3714.43
450.46	3597.40
450.65	3651.24
450.83	3742.52
451.02	3653.58
451.20	3822.09
451.39	3765.92
451.57	3733.15
451.76	3723.79
451.94	3805.71
452.13	3936.78
452.31	3875.93
452.49	3779.97
452.68	3775.28
452.86	3824.44
453.05	3709.75
453.23	3946.14
453.42	3899.33
453.60	3852.52
453.78	3950.82
453.97	3779.97
454.15	3871.25
454.34	3978.91
454.52	3992.95
454.70	3896.99
454.89	3920.40
455.07	3992.95
455.26	3941.46
455.44	4035.08
455.62	4107.64
455.81	4042.11
455.99	4198.92
456.17	4198.92
456.36	3946.14
456.54	4077.21
456.73	4210.62
456.91	4271.48
457.09	4147.43
457.28	4449.36
457.46	4215.30
457.64	4297.22
457.83	4348.72
458.01	4257.43
458.19	4306.59
458.38	4231.69
458.56	4348.72
458.74	4262.12
458.93	4388.50
459.11	4379.14
459.29	4447.02
459.48	4386.16
459.66	4491.49
459.84	4437.66
460.03	4451.70
460.21	4444.68
460.39	4575.75
460.57	4444.68
460.76	4596.81
460.94	4564.04
461.12	4667.03
461.31	4542.98
461.49	4596.81
461.67	4601.49
461.85	4671.71
462.04	4582.77
462.22	4770.01
462.40	4713.84
462.59	4610.86
462.77	4671.71
462.95	4748.95
463.13	4868.31
463.32	4741.93
463.50	4828.53
463.68	4833.21
463.86	4849.59
464.05	4798.10
464.23	4922.15
464.41	4858.95
464.59	4851.93
464.78	4922.15
464.96	4788.74
465.14	4891.72
465.32	5153.86
465.50	5097.69
465.69	5046.20
465.87	4947.89
466.05	5046.20
466.23	5123.43
466.41	4990.02
466.60	5233.44
466.78	4980.66
466.96	4919.81
467.14	5076.62
467.32	5013.43
467.51	5200.67
467.69	4999.38
467.87	5160.88
468.05	5034.49
468.23	4961.94
468.41	5027.47
468.60	5170.24
468.78	5324.72
468.96	5195.99
469.14	5184.29
469.32	5423.02
469.50	5289.61
469.69	5369.19
469.87	5327.06
470.05	5378.55
470.23	5329.40
470.41	5327.06
470.59	5338.76
470.77	5376.21
470.95	5474.51
471.14	5497.92
471.32	5469.83
471.50	5603.24
471.68	5570.48
471.86	5668.78
472.04	5397.28
472.22	5713.25
472.40	5605.58
472.58	5617.29
472.77	5731.97
472.95	5963.68
473.13	5989.43
473.31	5692.18
473.49	5813.89
473.67	5788.14
473.85	5863.04
474.03	5977.73
474.21	5884.11
474.39	6052.63
474.57	5942.62
474.75	6092.41
474.93	6223.48
475.12	6050.28
475.30	6174.33
475.48	6160.29
475.66	6118.16
475.84	6200.08
476.02	6239.87
476.20	6459.88
476.38	6490.31
476.56	6565.20
476.74	6651.80
476.92	6607.33
477.10	6448.18
477.28	6637.76
477.46	6707.98
477.64	6633.08
477.82	6642.44
478.00	6967.77
478.18	6850.75
478.36	6874.15
478.54	7075.44
478.72	6892.88
478.90	7056.72
479.08	7087.14
479.26	7094.16
479.44	7360.98
479.62	7414.82
479.80	7316.51
479.98	7311.83
480.16	7651.21
480.34	7496.74
480.52	7648.87
480.70	7501.42
480.88	7576.31
481.06	7765.90
481.24	7576.31
481.41	7485.03
481.59	7822.07
481.77	7964.84
481.95	7953.14
482.13	7903.99
482.31	8124.00
482.49	8159.11
482.67	8210.60
482.85	8367.42
483.03	8329.97
483.21	8446.99
483.39	8498.49
483.57	8425.93
483.74	8587.43
483.92	8564.02
484.10	8879.99
484.28	8744.24
484.46	8887.01
484.64	9067.24
484.82	8961.91
485.00	9296.61
485.18	9160.86
485.35	9210.01
485.53	9310.65
485.71	9530.66
485.89	9575.13
486.07	9650.03
486.25	9467.47
486.43	9654.71
486.61	9603.22
486.78	9722.59
486.96	9837.27
487.14	9949.62
487.32	9919.19
487.50	10050.26
487.68	10347.51
487.85	10406.02
488.03	10204.74
488.21	10483.26
488.39	10583.90
488.57	10621.35
488.75	10590.92
488.92	10691.57
489.10	10970.09
489.28	10806.25
489.46	10951.37
489.64	10808.59
489.81	11307.13
489.99	11030.94
490.17	11241.59
490.35	11349.26
490.53	11183.08
490.70	11377.34
490.88	11515.44
491.06	11468.62
491.24	11555.22
491.41	11765.87
491.59	11637.14
491.77	12060.78
491.95	12173.13
492.13	11997.59
492.30	12013.97
492.48	12170.79
492.66	12264.41
492.84	12042.06
493.01	12397.82
493.19	12404.84
493.37	12561.66
493.54	12573.36
493.72	12744.22
493.90	12674.00
494.08	13018.06
494.25	13048.49
494.43	13029.76
494.61	13074.23
494.79	13329.35
494.96	13212.32
495.14	13294.24
495.32	13458.08
495.49	13394.89
495.67	13671.07
495.85	13881.72
496.02	13755.33
496.20	13769.37
496.38	13954.27
496.55	14022.15
496.73	14099.39
496.91	14160.24
497.09	13987.04
497.26	14277.27
497.44	14242.16
497.62	14066.62
497.79	14176.62
497.97	14321.74
498.14	14483.24
498.32	14700.90
498.50	14757.08
498.67	15112.84
498.85	15077.73
499.03	14824.95
499.20	14986.45
499.38	14848.36
499.56	15192.42
499.73	15211.14
499.91	15190.08
500.08	15314.13
500.26	15386.68
500.44	15438.17
500.61	15274.34
500.79	15398.38
500.97	15517.75
501.14	15751.81
501.32	15681.59
501.49	15894.58
501.67	15566.90
501.84	15815.00
502.02	15714.36
502.20	15903.94
502.37	16018.63
502.55	16343.96
502.72	16159.06
502.90	16233.96
503.07	15810.32
503.25	16325.24
503.43	16320.56
503.60	16383.75
503.78	16678.66
503.95	16327.58
504.13	16453.97
504.30	16435.24
504.48	16472.69
504.65	16620.14
504.83	16849.52
505.01	16744.19
505.18	17034.42
505.36	17221.66
505.53	17099.95
505.71	16877.60
505.88	17060.16
506.06	16889.31
506.23	17254.43
506.41	17088.25
506.58	17455.72
506.76	17439.33
506.93	17305.92
507.11	17221.66
507.28	17429.97
507.46	17254.43
507.63	17701.47
507.81	17767.01
507.98	17434.65
508.16	17586.79
508.33	17584.44
508.50	17776.37
508.68	17771.69
508.85	17909.78
509.03	18265.54
509.20	18136.81
509.38	18061.91
509.55	17942.55
509.73	18141.49
509.90	18192.98
510.08	18239.79
510.25	18153.20
510.42	18373.21
510.60	18633.00
510.77	18436.40
510.95	18588.53
511.12	18394.27
511.30	18541.72
511.47	18705.56
511.64	18412.99
511.82	18761.73
511.99	18558.11
512.17	18857.70
512.34	18576.83
512.51	18892.80
512.69	19082.39
512.86	19122.18
513.04	19054.30
513.21	19232.18
513.38	19168.99
513.56	19513.05
513.73	19391.34
513.90	19286.01
514.08	19391.34
514.25	19314.10
514.43	19796.25
514.60	19609.01
514.77	19819.66
514.95	19470.92
515.12	19688.59
515.29	19714.33
515.47	19985.83
515.64	19800.93
515.81	19831.36
515.99	20081.80
516.16	20215.21
516.33	20004.56
516.51	20482.03
516.68	20180.10
516.85	20311.17
517.03	20325.21
517.20	20367.34
517.37	20334.57
517.54	20346.28
517.72	20484.37
517.89	20294.79
518.06	20449.26
518.24	20676.29
518.41	20280.74
518.58	20568.63
518.75	20458.62
518.93	20889.28
519.10	20673.95
519.27	21254.40
519.45	20643.52
519.62	20746.51
519.79	20952.48
519.96	20893.96
520.14	21212.28
520.31	21151.42
520.48	21027.37
520.65	21249.72
520.83	21036.74
521.00	21097.59
521.17	21010.99
521.34	21413.56
521.52	21465.05
521.69	21572.72
521.86	21411.22
522.03	21792.73
522.20	21605.49
522.38	21795.07
522.55	21820.81
522.72	21394.84
522.89	22136.79
523.07	21912.10
523.24	21816.13
523.41	21813.79
523.58	21565.70
523.75	22066.57
523.92	22017.42
524.10	21958.91
524.27	22190.62
524.44	22218.71
524.61	22174.24
524.78	22544.04
524.96	22106.36
525.13	22300.62
525.30	22473.82
525.47	22328.71
525.64	22370.84
525.81	22555.74
525.98	22295.94
526.16	22838.95
526.33	22466.80
526.50	22953.63
526.67	22267.86
526.84	22544.04
527.01	22448.08
527.18	22761.71
527.36	22651.70
527.53	22939.59
527.70	23367.91
527.87	23054.28
528.04	22913.84
528.21	22972.36
528.38	23063.64
528.55	23049.60
528.72	22934.91
528.89	23241.52
529.07	23187.69
529.24	22974.70
529.41	23576.22
529.58	23218.11
529.75	22906.82
529.92	23531.75
530.09	23381.95
530.26	23735.37
530.43	23496.64
530.60	23403.02
530.77	23243.86
530.94	23791.55
531.11	23644.09
531.28	23180.67
531.46	23667.50
531.63	23899.21
531.80	23908.57
531.97	24030.28
532.14	24156.67
532.31	23960.06
532.48	23775.16
532.65	24025.60
532.82	23915.59
532.99	23632.39
533.16	24135.60
533.33	24095.82
533.50	24231.57
533.67	23805.59
533.84	23922.62
534.01	24114.54
534.18	23887.51
534.35	24325.19
534.52	24273.70
534.69	24292.42
534.86	24577.97
535.03	24194.12
535.20	24311.14
535.37	24765.21
535.54	24540.52
535.71	24081.77
535.88	24613.07
536.05	24624.78
536.22	24549.88
536.38	24833.08
536.55	24905.64
536.72	24566.26
536.89	24608.39
537.06	24823.72
537.23	24856.49
537.40	24584.99
537.57	24938.41
537.74	24973.52
537.91	24875.21
538.08	24966.49
538.25	25130.33
538.42	25130.33
538.59	25333.96
538.75	24645.84
538.92	25029.69
539.09	24966.49
539.26	25153.74
539.43	25315.23
539.60	24994.58
539.77	25362.04
539.94	25355.02
540.11	25280.13
540.28	25177.14
540.44	25177.14
540.61	25064.80
540.78	25193.53
540.95	25301.19
541.12	25413.54
541.29	25570.35
541.46	25467.37
541.62	25556.31
541.79	25900.37
541.96	25504.82
542.13	25352.68
542.30	25781.00
542.47	25659.29
542.63	25813.77
542.80	26064.21
542.97	26115.70
543.14	26036.12
543.31	25923.77
543.48	25937.82
543.64	26417.63
543.81	26389.54
543.98	26319.32
544.15	26738.28
544.32	26029.10
544.48	26480.82
544.65	26291.24
544.82	26534.65
544.99	26103.99
545.16	25916.75
545.32	26185.91
545.49	26609.55
545.66	26457.42
545.83	26476.14
546.00	26766.37
546.16	26511.25
546.33	26553.38
546.50	26312.30
546.67	26375.50
546.83	26164.85
547.00	26394.22
547.17	26892.76
547.34	26670.40
547.50	26696.15
547.67	27173.62
547.84	26787.43
548.00	26834.24
548.17	26801.47
548.34	26965.31
548.51	26869.35
548.67	26948.93
548.84	26906.80
549.01	27168.94
549.18	26852.97
549.34	26909.14
549.51	26977.01
549.68	27077.66
549.84	26955.95
550.01	27028.51
550.18	27119.79
550.34	27634.71
550.51	27417.04
550.68	27569.17
550.84	27122.13
551.01	27215.75
551.18	27283.62
551.34	27288.31
551.51	27377.25
551.68	27578.53
551.84	27353.84
552.01	27080.00
552.18	27543.42
552.34	27288.31
552.51	27950.68
552.68	27414.69
552.84	27510.66
553.01	27260.22
553.18	27377.25
553.34	27606.62
553.51	27594.92
553.67	27850.03
553.84	28034.94
554.01	27721.30
554.17	27873.44
554.34	27838.33
554.51	27524.70
554.67	27878.12
554.84	27721.30
555.00	27620.66
555.17	27665.13
555.33	27637.05
555.50	27835.99
555.67	27953.02
555.83	27510.66
556.00	27892.16
556.16	28041.96
556.33	28013.87
556.50	28121.54
556.66	28182.39
556.83	27758.75
556.99	28493.68
557.16	28442.19
557.32	28407.08
557.49	28215.16
557.65	28212.82
557.82	27922.59
557.98	27782.16
558.15	28400.06
558.32	28664.54
558.48	28086.43
558.65	28561.56
558.81	28467.94
558.98	28336.87
559.14	28364.95
559.31	28318.14
559.47	28126.22
559.64	28336.87
559.80	28744.12
559.97	28671.56
560.13	28009.19
560.30	28067.70
560.46	28540.49
560.63	28664.54
560.79	29015.62
560.96	28360.27
561.12	28070.04
561.29	28489.00
561.45	28451.55
561.61	28739.44
561.78	28676.24
561.94	28606.03
562.11	28556.88
562.27	29032.00
562.44	28790.93
562.60	28690.29
562.77	28444.53
562.93	28687.95
563.10	29071.79
563.26	28503.04
563.42	29008.60
563.59	28400.06
563.75	28751.14
563.92	28641.14
564.08	28718.37
564.24	28701.99
564.41	28833.06
564.57	28500.70
564.74	28606.03
564.90	28690.29
565.07	28678.58
565.23	28814.34
565.39	28730.08
565.56	29184.14
565.72	28933.70
565.88	28734.76
566.05	28430.49
566.21	28987.53
566.38	28807.31
566.54	28875.19
566.70	28975.83
566.87	29289.46
567.03	29088.18
567.19	29326.91
567.36	28683.27
567.52	29083.50
567.68	28861.15
567.85	29029.66
568.01	29235.63
568.17	29123.29
568.34	29549.26
568.50	29476.71
568.66	29158.39
568.83	29682.67
568.99	28912.64
569.15	28896.25
569.32	28966.47
569.48	28931.36
569.64	28891.57
569.81	29076.48
569.97	29041.37
570.13	29090.52
570.30	28837.74
570.46	29422.87
570.62	29301.17
570.78	28943.06
570.95	28957.11
571.11	29156.05
571.27	28788.59
571.43	28744.12
571.60	29668.63
571.76	29034.35
571.92	29701.40
572.09	29090.52
572.25	29387.77
572.41	29514.16
572.57	29593.73
572.74	29357.34
572.90	29277.76
573.06	29214.57
573.22	29291.80
573.38	29127.97
573.55	29057.75
573.71	29443.94
573.87	29336.27
574.03	29184.14
574.20	29149.03
574.36	29340.96
574.52	29226.27
574.68	28968.81
574.84	29619.48
575.01	29579.69
575.17	29479.05
575.33	29394.79
575.49	29184.14
575.65	29364.36
575.82	29689.70
575.98	29249.67
576.14	28973.49
576.30	29436.92
576.46	29509.47
576.62	29226.27
576.79	29020.30
576.95	29092.86
577.11	29465.00
577.27	29575.01
577.43	29701.40
577.59	29579.69
577.75	29362.02
577.92	29371.38
578.08	29315.21
578.24	29448.62
578.40	29551.60
578.56	29034.35
578.72	29392.45
578.88	29511.81
579.04	29682.67
579.21	29329.25
579.37	29476.71
579.53	29619.48
579.69	29366.70
579.85	29109.24
580.01	29558.63
580.17	29263.72
580.33	29200.52
580.49	29441.60
580.65	29820.77
580.82	29715.44
580.98	29769.27
581.14	29397.13
581.30	29514.16
581.46	29535.22
581.62	29500.11
581.78	29453.30
581.94	29226.27
582.10	29200.52
582.26	29539.90
582.42	29347.98
582.58	29708.42
582.74	29631.18
582.90	29511.81
583.06	29745.87
583.22	29497.77
583.38	29607.78
583.54	29493.09
583.70	29474.37
583.86	29694.38
584.02	29582.03
584.18	29605.44
584.34	29579.69
584.50	29963.54
584.66	29535.22
584.82	29715.44
584.98	29474.37
585.14	29263.72
585.30	29455.64
585.46	29575.01
585.62	29647.57
585.78	29750.55
585.94	29350.32
586.10	29661.61
586.26	29523.52
586.42	30139.08
586.58	29532.88
586.74	29483.73
586.90	29675.65
587.06	29387.77
587.22	29567.99
587.38	29687.36
587.54	29692.04
587.70	29837.15
587.86	30005.67
588.02	29652.25
588.18	29970.56
588.34	29984.60
588.49	29851.19
588.65	29783.32
588.81	29617.14
588.97	29666.29
589.13	29811.40
589.29	29366.70
589.45	30047.80
589.61	29949.50
589.77	29659.27
589.93	29844.17
590.08	30204.61
590.24	29956.52
590.40	29675.65
590.56	29900.34
590.72	29738.85
590.88	29687.36
591.04	29755.23
591.20	30010.35
591.35	30015.03
591.51	30277.17
591.67	30221.00
591.83	30312.28
591.99	29654.59
592.15	30026.73
592.31	29638.20
592.46	29844.17
592.62	29612.46
592.78	29776.30
592.94	30122.69
593.10	30101.63
593.26	30078.22
593.41	30188.23
593.57	29755.23
593.73	29944.81
593.89	30302.92
594.05	30277.17
594.20	30146.10
594.36	30143.76
594.52	29537.56
594.68	30178.87
594.84	29741.19
594.99	30202.27
595.15	30253.76
595.31	30506.54
595.47	30171.85
595.62	30724.21
595.78	30096.95
595.94	29965.88
596.10	30038.44
596.25	30162.48
596.41	29797.36
596.57	29741.19
596.73	30202.27
596.88	29876.94
597.04	30244.40
597.20	30225.68
597.36	30199.93
597.51	30394.20
597.67	30061.84
597.83	30249.08
597.99	29783.32
598.14	29982.26
598.30	30228.02
598.46	30326.32
598.61	30389.52
598.77	29963.54
598.93	30543.99
599.09	30508.88
599.24	30300.58
599.40	29624.16
599.56	30361.43
599.71	30141.42
599.87	30377.81
600.03	30422.28
600.18	29989.28
600.34	29944.81
600.50	29706.08
600.65	30192.91
600.81	30471.43
600.97	30438.67
601.12	30508.88
601.28	30408.24
601.44	30267.81
601.59	30361.43
601.75	30148.44
601.91	30501.86
602.06	30103.97
602.22	30476.12
602.37	30331.00
602.53	30326.32
602.69	30389.52
602.84	30171.85
603.00	30068.86
603.16	30082.91
603.31	30494.84
603.47	30323.98
603.62	30080.56
603.78	30593.14
603.94	30239.72
604.09	30352.07
604.25	30064.18
604.40	30139.08
604.56	29909.71
604.71	30520.59
604.87	30211.64
605.03	30405.90
605.18	30125.04
605.34	30574.42
605.49	29961.20
605.65	30536.97
605.80	29930.77
605.96	30178.87
606.12	30331.00
606.27	29806.72
606.43	30197.59
606.58	30476.12
606.74	30045.46
606.89	30118.01
607.05	30094.61
607.20	30244.40
607.36	29991.62
607.51	30235.04
607.67	30202.27
607.82	30043.12
607.98	30129.72
608.13	30237.38
608.29	30204.61
608.44	30087.59
608.60	30190.57
608.75	30087.59
608.91	30103.97
609.06	30129.72
609.22	30345.05
609.37	29916.73
609.53	30010.35
609.68	29661.61
609.84	30057.16
609.99	30026.73
610.15	29797.36
610.30	29895.66
610.46	29872.26
610.61	30122.69
610.76	29589.05
610.92	30094.61
611.07	30141.42
611.23	29507.13
611.38	29736.51
611.54	29820.77
611.69	29633.52
611.84	29776.30
612.00	29663.95
612.15	29809.06
612.31	29965.88
612.46	29502.45
612.62	29830.13
612.77	29617.14
612.92	29933.11
613.08	29858.21
613.23	29881.62
613.39	29659.27
613.54	29486.07
613.69	29724.80
613.85	29319.89
614.00	30120.35
614.15	29762.25
614.31	29457.98
614.46	30008.01
614.62	29535.22
614.77	29472.03
614.92	29699.06
615.08	29811.40
615.23	29488.41
615.38	29635.86
615.54	29036.69
615.69	29071.79
615.84	29652.25
616.00	29263.72
616.15	29303.51
616.30	29654.59
616.46	29479.05
616.61	29235.63
616.76	29500.11
616.92	29333.93
617.07	29308.19
617.22	28819.02
617.37	29277.76
617.53	29209.89
617.68	29495.43
617.83	29123.29
617.99	28816.68
618.14	29142.01
618.29	29518.84
618.45	29055.41
618.60	29326.91
618.75	29216.91
618.90	29429.90
619.06	29493.09
619.21	29408.83
619.36	29315.21
619.51	28779.23
619.67	28652.84
619.82	28926.68
619.97	28947.75
620.12	29057.75
620.28	28774.55
620.43	29280.10
620.58	29216.91
620.73	29006.26
620.89	29109.24
621.04	29373.72
621.19	29237.97
621.34	29095.20
621.49	29099.88
621.65	28851.78
621.80	29022.64
621.95	28716.03
622.10	28912.64
622.25	28669.22
622.41	28484.32
622.56	28713.69
622.71	28914.98
622.86	28627.09
623.01	28737.10
623.16	29060.09
623.32	28746.46
623.47	28540.49
623.62	28510.07
623.77	28320.48
623.92	28599.01
624.07	28697.31
624.23	28290.06
624.38	29017.96
624.53	28624.75
624.68	28952.43
624.83	28753.48
624.98	28533.47
625.13	28601.35
625.29	28800.29
625.44	28329.84
625.59	28540.49
625.74	28463.25
625.89	28381.34
626.04	27992.81
626.19	28299.42
626.34	28294.74
626.49	28390.70
626.65	27941.32
626.80	28510.07
626.95	28194.09
627.10	28524.11
627.25	28121.54
627.40	28215.16
627.55	28048.98
627.70	28320.48
627.85	27674.49
628.00	28023.23
628.15	27779.82
628.30	27882.80
628.45	27920.25
628.60	27742.37
628.76	28184.73
628.91	28030.26
629.06	27953.02
629.21	28386.02
629.36	28156.64
629.51	27847.69
629.66	28058.34
629.81	27936.63
629.96	27924.93
630.11	27564.49
630.26	27536.40
630.41	27843.01
630.56	27641.73
630.71	27515.34
630.86	27573.85
631.01	27894.50
631.16	28144.94
631.31	27545.76
631.46	27491.93
631.61	28030.26
631.76	28229.20
631.91	27730.67
632.06	27552.79
632.21	27583.21
632.36	27789.18
632.51	27510.66
632.66	27695.56
632.81	27585.55
632.96	27725.99
633.10	27005.10
633.25	27716.62
633.40	27779.82
633.55	27531.72
633.70	27098.72
633.85	27658.11
634.00	27154.90
634.15	27412.35
634.30	27484.91
634.45	27548.11
634.60	27377.25
634.75	27433.42
634.90	27669.81
635.05	27257.88
635.19	27365.54
635.34	27370.22
635.49	27749.39
635.64	27775.14
635.79	27428.74
635.94	27545.76
636.09	27372.57
636.24	27089.36
636.39	27330.44
636.53	27253.20
636.68	27204.05
636.83	27255.54
636.98	27094.04
637.13	27033.19
637.28	27307.03
637.43	27187.66
637.57	27171.28
637.72	27063.61
637.87	27101.06
638.02	26693.81
638.17	27033.19
638.32	26677.43
638.46	27061.27
638.61	26813.18
638.76	26342.73
638.91	27332.78
639.06	26689.13
639.20	27054.25
639.35	26944.25
639.50	27084.68
639.65	27000.42
639.80	27239.15
639.94	26984.04
640.09	26843.60
640.24	27161.92
640.39	26553.38
640.54	26799.13
640.68	26431.67
640.83	26801.47
640.98	26768.71
641.13	26401.24
641.27	26726.58
641.42	26707.85
641.57	26101.65
641.72	26691.47
641.86	26569.76
642.01	26506.57
642.16	26382.52
642.31	26445.71
642.45	26441.03
642.60	26206.98
642.75	26251.45
642.90	26305.28
643.04	26225.70
643.19	26366.13
643.34	26260.81
643.48	26417.63
643.63	26391.88
643.78	26415.29
643.93	26576.78
644.07	26637.64
644.22	26724.24
644.37	26377.84
644.51	26412.95
644.66	26342.73
644.81	26096.97
644.95	26136.76
645.10	26242.09
645.25	26370.82
645.39	26279.54
645.54	26342.73
645.69	26333.37
645.83	25738.87
645.98	26125.06
646.13	26499.55
646.27	26082.93
646.42	26541.68
646.57	26118.04
646.71	26232.72
646.86	26045.48
647.00	26340.39
647.15	26431.67
647.30	25893.35
647.44	25956.54
647.59	25804.41
647.74	25818.45
647.88	25825.47
648.03	26057.18
648.17	26249.11
648.32	26059.52
648.47	25909.73
648.61	25860.58
648.76	26073.57
648.90	26015.05
649.05	25895.69
649.20	25963.56
649.34	25790.36
649.49	25467.37
649.63	25326.94
649.78	25862.92
649.92	25825.47
650.07	25605.46
650.21	25591.42
650.36	25823.13
650.51	25448.64
650.65	25942.50
650.80	25392.47
650.94	25839.51
651.09	25462.69
651.23	25607.80
651.38	25312.89
651.52	25212.25
651.67	25355.02
651.81	25617.16
651.96	25193.53
652.10	25532.90
652.25	25647.59
652.39	25364.39
652.54	25600.78
652.68	25532.90
652.83	25366.73
652.97	25731.85
653.12	25357.36
653.26	25280.13
653.41	25425.24
653.55	25144.38
653.70	25380.77
653.84	25568.01
653.99	24907.98
654.13	24900.96
654.27	25137.35
654.42	24882.24
654.56	25142.03
654.71	25216.93
654.85	25083.52
655.00	25097.56
655.14	25050.75
655.29	25195.87
655.43	25270.76
655.57	25193.53
655.72	25275.45
655.86	25043.73
656.01	24898.62
656.15	24987.56
656.30	24912.66
656.44	24762.87
656.58	24936.07
656.73	24826.06
656.87	25013.31
657.01	24847.13
657.16	24938.41
657.30	24879.89
657.45	24872.87
657.59	24996.92
657.73	24781.59
657.88	24737.12
658.02	24694.99
658.16	24819.04
658.31	24638.82
658.45	24643.50
658.60	24233.91
658.74	24322.85
658.88	24451.58
659.03	24458.60
659.17	24460.94
659.31	24599.03
659.46	24634.14
659.60	24407.11
659.74	24680.95
659.89	24372.00
660.03	24280.72
660.17	24304.12
660.32	24292.42
660.46	24044.32
660.60	24177.73
660.74	24084.11
660.89	24254.97
661.03	24175.39
661.17	24250.29
661.32	24240.93
661.46	24095.82
661.60	24156.67
661.74	24027.94
661.89	24194.12
662.03	23917.93
662.17	24004.53
662.31	24243.27
662.46	23754.10
662.60	23807.93
662.74	23695.58
662.88	23611.32
663.03	23737.71
663.17	23866.44
663.31	23307.05
663.45	23496.64
663.60	23388.97
663.74	23264.92
663.88	23646.43
664.02	23625.37
664.17	23768.14
664.31	23641.75
664.45	23421.74
664.59	23515.36
664.73	23297.69
664.88	23417.06
665.02	23363.23
665.16	23302.37
665.30	23215.77
665.44	23379.61
665.59	22951.29
665.73	23468.55
665.87	23091.73
666.01	23316.42
666.15	23344.50
666.29	23082.36
666.44	23108.11
666.58	23140.88
666.72	22658.73
666.86	22747.67
667.00	23056.62
667.14	23073.00
667.28	22750.01
667.43	22647.02
667.57	22768.73
667.71	22419.99
667.85	22579.15
667.99	22640.00
668.13	22419.99
668.27	22843.63
668.41	22588.51
668.56	22391.91
668.70	22403.61
668.84	22466.80
668.98	22628.30
669.12	22721.92
669.26	22686.81
669.40	22192.96
669.54	22253.81
669.68	22270.20
669.82	22265.52
669.96	22155.51
670.10	21916.78
670.25	22478.50
670.39	22127.42
670.53	22075.93
670.67	21886.35
670.81	22045.51
670.95	22080.61
671.09	22061.89
671.23	22195.30
671.37	21919.12
671.51	21979.97
671.65	22024.44
671.79	22036.14
671.93	21947.20
672.07	21727.19
672.21	21633.57
672.35	21432.29
672.49	21476.76
672.63	21198.23
672.77	21238.02
672.91	21579.74
673.05	21523.57
673.19	21530.59
673.33	21380.79
673.47	21256.75
673.61	21369.09
673.75	21294.19
673.89	21118.65
674.03	21104.61
674.17	21291.85
674.31	21071.84
674.45	21088.23
674.59	21043.76
674.73	20725.44
674.87	20542.88
675.01	21013.33
675.15	20526.50
675.29	20556.93
675.43	20414.15
675.56	20603.74
675.70	20840.13
675.84	20805.02
675.98	20130.95
676.12	20688.00
676.26	20533.52
676.40	20573.31
676.54	20292.44
676.68	20372.02
676.82	19894.55
676.96	20020.94
677.10	20072.43
677.23	20081.80
677.37	19751.78
677.51	20049.03
677.65	19627.73
677.79	19594.96
677.93	19824.34
678.07	19527.09
678.21	19360.91
678.34	19587.94
678.48	19473.26
678.62	19508.37
678.76	19480.28
678.90	19278.99
679.04	19461.55
679.18	19356.23
679.31	18640.03
679.45	18890.46
679.59	18909.19
679.73	19047.28
679.87	18892.80
680.00	18890.46
680.14	19035.58
680.28	18616.62
680.42	18799.18
680.56	18885.78
680.70	18892.80
680.83	18906.85
680.97	18553.43
681.11	18501.93
681.25	18586.19
681.39	18658.75
681.52	18544.06
681.66	18162.56
681.80	18221.07
681.94	18230.43
682.07	18181.28
682.21	18038.51
682.35	18090.00
682.49	17652.32
682.62	17682.75
682.76	17900.42
682.90	17961.27
683.04	17764.67
683.17	17745.94
683.31	17724.88
683.45	17621.89
683.59	17563.38
683.72	17682.75
683.86	17710.83
684.00	17308.26
684.13	17790.41
684.27	17420.61
684.41	17284.86
684.55	17263.79
684.68	17106.98
684.82	16842.50
684.96	17071.87
685.09	16865.90
685.23	16681.00
685.37	16830.79
685.50	17076.55
685.64	16781.64
685.78	16720.79
685.91	16954.84
686.05	16938.46
686.19	16751.21
686.32	16837.81
686.46	16592.06
686.60	16252.68
686.73	16444.60
686.87	16203.53
687.01	16348.64
687.14	16259.70
687.28	16013.95
687.42	15976.50
687.55	16072.46
687.69	15953.09
687.82	15594.99
687.96	15721.38
688.10	15747.12
688.23	15667.55
688.37	16088.84
688.50	15644.14
688.64	15557.54
688.78	15981.18
688.91	15527.11
689.05	15461.58
689.18	15817.34
689.32	15054.33
689.46	14895.17
689.59	15169.01
689.73	15087.09
689.86	15246.25
690.00	14956.02
690.13	14820.27
690.27	15009.86
690.41	15176.03
690.54	14904.53
690.68	14874.10
690.81	14899.85
690.95	15115.18
691.08	14658.78
691.22	14670.48
691.35	14665.80
691.49	14750.06
691.62	14583.88
691.76	14541.75
691.89	14457.49
692.03	14480.89
692.16	14127.47
692.30	14274.93
692.43	14005.77
692.57	14036.19
692.70	13949.59
692.84	14162.58
692.97	14143.86
693.11	14108.75
693.24	14169.60
693.38	13675.75
693.51	13811.50
693.65	13715.54
693.78	13760.01
693.92	13612.56
694.05	13591.49
694.19	13788.10
694.32	13350.42
694.45	13256.79
694.59	13179.56
694.72	13224.03
694.86	12966.57
694.99	13233.39
695.13	13181.90
695.26	13055.51
695.39	13034.44
695.53	13125.72
695.66	12889.33
695.80	13128.06
695.93	13020.40
696.07	12868.27
696.20	13085.94
696.33	12702.09
696.47	12765.28
696.60	12575.70
696.73	12610.81
696.87	12674.00
697.00	12416.54
697.14	12432.93
697.27	12432.93
697.40	12245.68
697.54	12039.72
697.67	12098.23
697.80	11997.59
697.94	12102.91
698.07	12067.80
698.21	12035.03
698.34	12074.82
698.47	11978.86
698.61	11922.69
698.74	12058.44
698.87	11974.18
699.01	11777.58
699.14	11531.82
699.27	11712.04
699.40	11808.00
699.54	11515.44
699.67	11370.32
699.80	11499.05
699.94	11353.94
700.07	11126.91
700.20	11407.77
700.34	11227.55
700.47	11342.24
700.60	11218.19
700.73	11136.27
700.87	11042.65
701.00	10923.28
701.13	11026.26
701.26	10956.05
701.40	10864.77
701.53	11129.25
701.66	10951.37
701.79	10768.80
701.93	10768.80
702.06	10429.43
702.19	10494.96
702.32	10420.06
702.46	10347.51
702.59	10478.58
702.72	10384.96
702.85	10232.82
702.99	10354.53
703.12	10345.17
703.25	10085.37
703.38	10171.97
703.51	10263.25
703.65	10200.05
703.78	10293.68
703.91	9970.68
704.04	10228.14
704.17	10094.73
704.31	9832.59
704.44	9881.74
704.57	9935.57
704.70	9769.40
704.83	9628.96
704.96	9753.01
705.10	9563.43
705.23	9472.15
>>>>>End Processed Spectral Data<<<<<
