SpectraSuite Data File
++++++++++++++++++++++++++++++++++++
Date: Fri Oct 18 13:58:34 GMT-05:00 2013
User: bianchi
Dark Spectrum Present: No
Reference Spectrum Present: No
Number of Sampled Component Spectra: 1
Spectrometers: USB2+H05261
Integration Time (usec): 50000 (USB2+H05261)
Spectra Averaged: 1 (USB2+H05261)
Boxcar Smoothing: 0 (USB2+H05261)
Correct for Electrical Dark: No (USB2+H05261)
Strobe/Lamp Enabled: No (USB2+H05261)
Correct for Detector Non-linearity: No (USB2+H05261)
Correct for Stray Light: No (USB2+H05261)
Number of Pixels in Processed Spectrum: 2048
>>>>>Begin Processed Spectral Data<<<<<
365.73	0.00
365.92	0.00
366.12	0.00
366.32	0.00
366.52	0.00
366.72	0.00
366.91	0.00
367.11	0.00
367.31	0.00
367.51	0.00
367.70	0.00
367.90	0.00
368.10	0.00
368.30	0.00
368.49	0.00
368.69	0.00
368.89	0.00
369.09	0.00
369.28	0.00
369.48	0.00
369.68	0.00
369.87	0.00
370.07	0.00
370.27	0.00
370.47	16.38
370.66	110.01
370.86	91.28
371.06	114.69
371.25	175.54
371.45	119.37
371.65	177.88
371.84	88.94
372.04	196.60
372.24	138.09
372.44	177.88
372.63	182.56
372.83	234.05
373.03	145.11
373.22	198.95
373.42	250.44
373.62	198.95
373.81	266.82
374.01	222.35
374.21	287.89
374.40	269.16
374.60	250.44
374.79	285.55
374.99	191.92
375.19	259.80
375.38	276.18
375.58	231.71
375.78	159.16
375.97	248.10
376.17	259.80
376.37	224.69
376.56	210.65
376.76	266.82
376.95	287.89
377.15	334.70
377.35	297.25
377.54	266.82
377.74	278.52
377.93	255.12
378.13	269.16
378.33	334.70
378.52	222.35
378.72	276.18
378.91	290.23
379.11	271.50
379.31	332.36
379.50	285.55
379.70	311.29
379.89	315.97
380.09	266.82
380.28	278.52
380.48	306.61
380.68	241.08
380.87	346.40
381.07	294.91
381.26	264.48
381.46	334.70
381.65	355.76
381.85	344.06
382.04	348.74
382.24	369.80
382.43	308.95
382.63	369.80
382.83	348.74
383.02	404.91
383.22	287.89
383.41	430.66
383.61	372.15
383.80	395.55
384.00	381.51
384.19	337.04
384.39	407.25
384.58	320.65
384.78	390.87
384.97	320.65
385.17	367.46
385.36	360.44
385.56	404.91
385.75	351.08
385.95	360.44
386.14	386.19
386.34	416.62
386.53	465.77
386.72	407.25
386.92	339.38
387.11	428.32
387.31	468.11
387.50	477.47
387.70	395.55
387.89	381.51
388.09	456.40
388.28	386.19
388.48	461.09
388.67	397.89
388.86	454.06
389.06	421.30
389.25	440.02
389.45	458.74
389.64	477.47
389.84	435.34
390.03	550.03
390.22	423.64
390.42	454.06
390.61	472.79
390.81	404.91
391.00	573.43
391.19	475.13
391.39	503.22
391.58	489.17
391.78	564.07
391.97	559.39
392.16	554.71
392.36	622.58
392.55	559.39
392.75	582.79
392.94	540.66
393.13	526.62
393.33	468.11
393.52	463.43
393.71	580.45
393.91	587.47
394.10	638.97
394.29	564.07
394.49	613.22
394.68	587.47
394.88	592.16
395.07	594.50
395.26	587.47
395.46	564.07
395.65	578.11
395.84	622.58
396.04	660.03
396.23	596.84
396.42	624.92
396.62	610.88
396.81	648.33
397.00	561.73
397.19	664.71
397.39	664.71
397.58	741.95
397.77	699.82
397.97	702.16
398.16	664.71
398.35	692.80
398.55	725.57
398.74	763.01
398.93	737.27
399.12	704.50
399.32	655.35
399.51	664.71
399.70	732.59
399.90	770.04
400.09	758.33
400.28	744.29
400.47	739.61
400.67	805.14
400.86	767.70
401.05	781.74
401.24	882.38
401.44	755.99
401.63	800.46
401.82	760.67
402.01	807.48
402.21	943.24
402.40	842.59
402.59	772.38
402.78	880.04
402.97	851.96
403.17	884.72
403.36	847.27
403.55	830.89
403.74	858.98
403.93	910.47
404.13	926.85
404.32	931.53
404.51	954.94
404.70	959.62
404.89	943.24
405.09	866.00
405.28	915.15
405.47	978.34
405.66	983.02
405.85	891.74
406.05	936.21
406.24	880.04
406.43	997.07
406.62	1020.47
406.81	980.68
407.00	1015.79
407.20	1107.07
407.39	1043.88
407.58	1027.50
407.77	987.71
407.96	1043.88
408.15	1170.27
408.34	1064.94
408.54	1142.18
408.73	1064.94
408.92	1109.41
409.11	1001.75
409.30	1170.27
409.49	1135.16
409.68	1095.37
409.87	1128.14
410.07	1214.74
410.26	1226.44
410.45	1153.88
410.64	1090.69
410.83	1226.44
411.02	1203.04
411.21	1268.57
411.40	1247.51
411.59	1310.70
411.78	1252.19
411.98	1291.98
412.17	1188.99
412.36	1240.48
412.55	1296.66
412.74	1423.05
412.93	1350.49
413.12	1219.42
413.31	1502.62
413.50	1390.28
413.69	1362.19
413.88	1423.05
414.07	1504.96
414.26	1437.09
414.45	1420.71
414.64	1495.60
414.83	1472.20
415.02	1563.48
415.22	1563.48
415.41	1572.84
415.60	1617.31
415.79	1614.97
415.98	1561.14
416.17	1521.35
416.36	1509.65
416.55	1685.19
416.74	1621.99
416.93	1631.35
417.12	1570.50
417.31	1708.59
417.50	1619.65
417.69	1750.72
417.88	1736.68
418.07	1715.61
418.26	1668.80
418.45	1722.63
418.64	1839.66
418.83	1701.57
419.02	1813.92
419.21	1767.10
419.39	1900.52
419.58	1842.00
419.77	1767.10
419.96	1830.30
420.15	1830.30
420.34	1827.96
420.53	1753.06
420.72	1760.08
420.91	1816.26
421.10	1970.73
421.29	2015.20
421.48	1825.62
421.67	2010.52
421.86	1813.92
422.05	1872.43
422.24	1970.73
422.43	1944.99
422.61	2005.84
422.80	1998.82
422.99	2069.03
423.18	1944.99
423.37	2101.80
423.56	2019.88
423.75	2050.31
423.94	2010.52
424.13	1809.23
424.32	1886.47
424.50	2071.37
424.69	2050.31
424.88	1947.33
425.07	2064.35
425.26	2019.88
425.45	2202.44
425.64	2057.33
425.83	1949.67
426.01	2157.97
426.20	2050.31
426.39	2228.19
426.58	1975.41
426.77	1884.13
426.96	2047.97
427.15	2019.88
427.33	2057.33
427.52	2008.18
427.71	2054.99
427.90	2069.03
428.09	2146.27
428.28	2190.74
428.46	2324.15
428.65	2155.63
428.84	2225.85
429.03	2195.42
429.22	2143.93
429.40	2354.58
429.59	2265.64
429.78	2165.00
429.97	2155.63
430.16	2216.49
430.34	2286.70
430.53	2401.39
430.72	2242.23
430.91	2221.17
431.10	2298.41
431.28	2399.05
431.47	2321.81
431.66	2436.50
431.85	2324.15
432.03	2434.16
432.22	2551.18
432.41	2609.70
432.60	2340.54
432.79	2520.76
432.97	2401.39
433.16	2448.20
433.35	2406.07
433.54	2436.50
433.72	2583.95
433.91	2485.65
434.10	2619.06
434.28	2413.09
434.47	2504.37
434.66	2523.10
434.85	2553.52
435.03	2530.12
435.22	2630.76
435.41	2682.25
435.59	2602.68
435.78	2443.52
435.97	2679.91
436.16	2815.66
436.34	2736.09
436.53	2656.51
436.72	2672.89
436.90	2729.06
437.09	2703.32
437.28	2691.62
437.46	2696.30
437.65	2644.81
437.84	2733.75
438.02	2754.81
438.21	2775.88
438.40	2722.04
438.58	2785.24
438.77	2829.71
438.96	2904.60
439.14	2820.35
439.33	3012.27
439.52	3038.02
439.70	2902.26
439.89	3059.08
440.08	2998.23
440.26	2988.86
440.45	3030.99
440.63	2979.50
440.82	3194.83
441.01	3103.55
441.19	3157.38
441.38	3234.62
441.57	3148.02
441.75	3143.34
441.94	3265.05
442.12	3208.87
442.31	3255.69
442.50	3272.07
442.68	3239.30
442.87	3251.00
443.05	3178.45
443.24	3272.07
443.43	3419.52
443.61	3400.80
443.80	3569.32
443.98	3398.46
444.17	3300.16
444.35	3368.03
444.54	3468.67
444.73	3389.10
444.91	3473.36
445.10	3459.31
445.28	3499.10
445.47	3419.52
445.65	3396.12
445.84	3449.95
446.02	3485.06
446.21	3485.06
446.39	3311.86
446.58	3496.76
446.77	3400.80
446.95	3550.59
447.14	3552.93
447.32	3471.01
447.51	3452.29
447.69	3569.32
447.88	3461.65
448.06	3590.38
448.25	3466.33
448.43	3578.68
448.62	3520.17
448.80	3473.36
448.99	3531.87
449.17	3581.02
449.36	3534.21
449.54	3644.21
449.73	3782.31
449.91	3702.73
450.10	3644.21
450.28	3824.44
450.46	3637.19
450.65	3815.07
450.83	3684.00
451.02	3651.24
451.20	3829.12
451.39	3751.88
451.57	3644.21
451.76	3686.34
451.94	3894.65
452.13	3911.04
452.31	3826.78
452.49	3726.13
452.68	3847.84
452.86	3810.39
453.05	3684.00
453.23	3960.19
453.42	3953.16
453.60	3681.66
453.78	3913.38
453.97	4002.32
454.15	3803.37
454.34	3852.52
454.52	3946.14
454.70	3969.55
454.89	4105.30
455.07	4025.72
455.26	4187.22
455.44	4177.86
455.62	4030.40
455.81	4032.74
455.99	4044.45
456.17	4018.70
456.36	4072.53
456.54	4318.29
456.73	4114.66
456.91	4311.27
457.09	4248.07
457.28	4346.37
457.46	4269.14
457.64	4372.12
457.83	4269.14
458.01	4301.90
458.19	4400.21
458.38	4367.44
458.56	4311.27
458.74	4334.67
458.93	4374.46
459.11	4252.75
459.29	4320.63
459.48	4348.72
459.66	4484.47
459.84	4519.57
460.03	4685.75
460.21	4582.77
460.39	4468.08
460.57	4477.44
460.76	4631.92
460.94	4580.43
461.12	4645.96
461.31	4599.15
461.49	4542.98
461.67	4671.71
461.85	4774.69
462.04	4648.30
462.22	4844.91
462.40	4671.71
462.59	4751.29
462.77	4713.84
462.95	4695.11
463.13	4868.31
463.32	4812.14
463.50	4833.21
463.68	4837.89
463.86	4762.99
464.05	4947.89
464.23	4802.78
464.41	4985.34
464.59	4854.27
464.78	5085.98
464.96	4961.94
465.14	4812.14
465.32	4980.66
465.50	5043.85
465.69	4894.06
465.87	4924.49
466.05	5029.81
466.23	4882.36
466.41	5219.39
466.60	5205.35
466.78	5125.77
466.96	5097.69
467.14	4844.91
467.32	5259.18
467.51	5069.60
467.69	4961.94
467.87	4896.40
468.05	5261.52
468.23	5043.85
468.41	5144.50
468.60	5060.24
468.78	5179.61
468.96	5137.48
469.14	5231.10
469.32	5376.21
469.50	5078.96
469.69	5235.78
469.87	5324.72
470.05	5364.51
470.23	5334.08
470.41	5277.91
470.59	5329.40
470.77	5416.00
470.95	5479.19
471.14	5423.02
471.32	5411.32
471.50	5500.26
471.68	5659.42
471.86	5481.53
472.04	5509.62
472.22	5717.93
472.40	5673.46
472.58	5825.59
472.77	5731.97
472.95	5781.12
473.13	5998.79
473.31	5809.21
473.49	5717.93
473.67	5844.32
473.85	5856.02
474.03	5898.15
474.21	6031.56
474.39	5928.58
474.57	6069.01
474.75	5989.43
474.93	6031.56
475.12	6050.28
475.30	6179.01
475.48	6122.84
475.66	6104.12
475.84	6427.11
476.02	6340.51
476.20	6312.42
476.38	6352.21
476.56	6457.54
476.74	6473.92
476.92	6553.50
477.10	6581.59
477.28	6740.74
477.46	6609.67
477.64	6661.16
477.82	6817.98
478.00	6867.13
478.18	6848.41
478.36	6979.48
478.54	7030.97
478.72	6930.33
478.90	7220.55
479.08	7232.26
479.26	7215.87
479.44	7307.15
479.62	7213.53
479.80	7328.22
479.98	7370.35
480.16	7660.57
480.34	7417.16
480.52	7527.16
480.70	7492.05
480.88	7545.89
481.06	7541.21
481.24	7595.04
481.41	7765.90
481.59	8002.29
481.77	7777.60
481.95	7964.84
482.13	7971.86
482.31	8198.90
482.49	8070.17
482.67	8049.10
482.85	8210.60
483.03	8416.57
483.21	8418.91
483.39	8479.76
483.57	8475.08
483.74	8655.30
483.92	8519.55
484.10	8697.43
484.28	8875.31
484.46	9029.79
484.64	9163.20
484.82	9095.32
485.00	8872.97
485.18	9305.97
485.35	9387.89
485.53	9341.08
485.71	9324.69
485.89	9692.16
486.07	9554.07
486.25	9483.85
486.43	9549.39
486.61	9738.97
486.78	9834.93
486.96	9902.81
487.14	10162.61
487.32	9792.80
487.50	10078.35
487.68	10139.20
487.85	10150.90
488.03	10560.50
488.21	10464.54
488.39	10553.48
488.57	10623.69
488.75	10677.52
488.92	10803.91
489.10	10878.81
489.28	10946.69
489.46	10956.05
489.64	11005.20
489.81	11164.36
489.99	11260.32
490.17	11255.64
490.35	11389.05
490.53	11393.73
490.70	11412.45
490.88	11571.61
491.06	11597.35
491.24	11735.45
491.41	11576.29
491.59	11913.33
491.77	11826.73
491.95	12011.63
492.13	11999.93
492.30	12301.86
492.48	12219.94
492.66	12121.63
492.84	11971.84
493.01	12472.71
493.19	12526.55
493.37	12533.57
493.54	12849.54
493.72	12622.51
493.90	12800.39
494.08	12870.61
494.25	13060.19
494.43	13088.28
494.61	13006.36
494.79	13282.54
494.96	13172.54
495.14	13329.35
495.32	13336.37
495.49	13547.02
495.67	13483.83
495.85	13687.45
496.02	13734.26
496.20	13802.14
496.38	13731.92
496.55	14066.62
496.73	14059.60
496.91	14052.58
497.09	14171.94
497.26	14225.78
497.44	14291.31
497.62	14324.08
497.79	14356.85
497.97	14295.99
498.14	14579.20
498.32	14747.72
498.50	14965.39
498.67	14595.58
498.85	14803.89
499.03	14736.01
499.20	15056.67
499.38	15140.93
499.56	14927.94
499.73	15084.75
499.91	15262.63
500.08	15311.78
500.26	15267.31
500.44	15559.88
500.61	15360.94
500.79	15442.85
500.97	15573.92
501.14	15899.26
501.32	15819.68
501.49	15810.32
501.67	15744.78
501.84	16013.95
502.02	15868.83
502.20	16201.19
502.37	15978.84
502.55	16250.34
502.72	15889.90
502.90	16215.23
503.07	16044.37
503.25	16334.60
503.43	16229.27
503.60	16367.37
503.78	16030.33
503.95	16332.26
504.13	16491.41
504.30	16559.29
504.48	16570.99
504.65	16643.55
504.83	16730.15
505.01	16746.53
505.18	16833.13
505.36	16933.78
505.53	16844.84
505.71	16819.09
505.88	17125.70
506.06	16879.94
506.23	17514.23
506.41	17060.16
506.58	17383.16
506.76	17408.90
506.93	17128.04
507.11	17109.32
507.28	17308.26
507.46	17645.30
507.63	17467.42
507.81	17577.42
507.98	17645.30
508.16	17455.72
508.33	17521.25
508.50	17657.00
508.68	17762.33
508.85	17944.89
509.03	18075.96
509.20	18160.22
509.38	18317.03
509.55	18293.63
509.73	18300.65
509.90	18118.09
510.08	18092.34
510.25	18143.83
510.42	18541.72
510.60	18581.51
510.77	18633.00
510.95	18616.62
511.12	18597.90
511.30	18705.56
511.47	18473.85
511.64	18670.45
511.82	18834.29
511.99	19007.49
512.17	19096.43
512.34	18869.40
512.51	19171.33
512.69	18925.57
512.86	19136.22
513.04	19222.82
513.21	19176.01
513.38	19461.55
513.56	19353.89
513.73	19199.41
513.90	19227.50
514.08	19187.71
514.25	19456.87
514.43	19669.86
514.60	19871.15
514.77	19576.24
514.95	19889.87
515.12	19665.18
515.29	19576.24
515.47	19702.63
515.64	20180.10
515.81	19740.08
515.99	20311.17
516.16	20198.82
516.33	20313.51
516.51	19779.87
516.68	20170.74
516.85	20325.21
517.03	20219.89
517.20	20245.63
517.37	20381.38
517.54	20573.31
517.72	20734.81
517.89	20570.97
518.06	20610.76
518.24	20505.43
518.41	20737.15
518.58	20587.35
518.75	20774.60
518.93	20851.83
519.10	20870.56
519.27	20798.00
519.45	21151.42
519.62	20718.42
519.79	20594.37
519.96	20924.39
520.14	21153.76
520.31	21174.83
520.48	21209.93
520.65	21151.42
520.83	21373.77
521.00	21151.42
521.17	20863.54
521.34	21401.86
521.52	21401.86
521.69	21642.93
521.86	21226.32
522.03	21656.98
522.20	21544.63
522.38	21731.87
522.55	21448.67
522.72	21722.51
522.89	21493.14
523.07	21876.99
523.24	21774.00
523.41	22251.47
523.58	22061.89
523.75	22040.82
523.92	21935.50
524.10	22127.42
524.27	22284.24
524.44	21706.13
524.61	22658.73
524.78	22415.31
524.96	22553.40
525.13	22380.20
525.30	22403.61
525.47	22249.13
525.64	22487.87
525.81	22274.88
525.98	22419.99
526.16	22513.61
526.33	22572.13
526.50	22869.37
526.67	22492.55
526.84	22679.79
527.01	22616.60
527.18	22871.72
527.36	22803.84
527.53	23154.92
527.70	23337.48
527.87	22958.31
528.04	23391.31
528.21	23318.76
528.38	23178.33
528.55	23112.79
528.72	23220.45
528.89	23115.13
529.07	23129.17
529.24	23243.86
529.41	22822.56
529.58	23260.24
529.75	23700.26
529.92	23503.66
530.09	23489.62
530.26	23566.85
530.43	23475.57
530.60	23517.70
530.77	23527.06
530.94	23372.59
531.11	23758.78
531.28	23332.80
531.46	23543.45
531.63	23803.25
531.80	23796.23
531.97	23915.59
532.14	23939.00
532.31	23936.66
532.48	23651.11
532.65	23880.49
532.82	23740.05
532.99	23840.70
533.16	23985.81
533.33	24189.44
533.50	24173.05
533.67	24170.71
533.84	24018.58
534.01	24067.73
534.18	24002.19
534.35	24161.35
534.52	24297.10
534.69	24254.97
534.86	24603.71
535.03	24470.30
535.20	24292.42
535.37	24489.03
535.54	24346.25
535.71	24301.78
535.88	24760.53
536.05	24601.37
536.22	24762.87
536.38	24922.02
536.55	25163.10
536.72	24922.02
536.89	24694.99
537.06	24718.40
537.23	24713.72
537.40	25146.72
537.57	25013.31
537.74	25010.96
537.91	25055.43
538.08	24912.66
538.25	24650.52
538.42	24978.20
538.59	25226.29
538.75	24875.21
538.92	25350.34
539.09	25333.96
539.26	25282.47
539.43	25453.33
539.60	25820.79
539.77	25455.67
539.94	25408.86
540.11	25383.11
540.28	25298.85
540.44	25324.60
540.61	25200.55
540.78	25415.88
540.95	25773.98
541.12	25326.94
541.29	25207.57
541.46	25673.34
541.62	25308.21
541.79	25532.90
541.96	25268.42
542.13	25305.87
542.30	25628.87
542.47	25532.90
542.63	25816.11
542.80	26057.18
542.97	26356.77
543.14	26118.04
543.31	26122.72
543.48	25773.98
543.64	25949.52
543.81	26382.52
543.98	26162.51
544.15	26099.31
544.32	26520.61
544.48	26771.05
544.65	26167.19
544.82	26113.36
544.99	25996.33
545.16	26272.51
545.32	26120.38
545.49	26546.36
545.66	26560.40
545.83	26574.44
546.00	27002.76
546.16	26560.40
546.33	26286.56
546.50	26267.83
546.67	26441.03
546.83	26192.94
547.00	26852.97
547.17	26611.89
547.34	26539.33
547.50	26356.77
547.67	27110.43
547.84	27082.34
548.00	26911.48
548.17	26668.06
548.34	26679.77
548.51	27295.33
548.67	27505.98
548.84	27051.91
549.01	27065.96
549.18	27007.44
549.34	27087.02
549.51	26981.70
549.68	27035.53
549.84	27220.43
550.01	27089.36
550.18	27239.15
550.34	27133.83
550.51	27260.22
550.68	27290.65
550.84	27065.96
551.01	27459.16
551.18	27250.86
551.34	27182.98
551.51	27388.95
551.68	27601.94
551.84	27297.67
552.01	27332.78
552.18	27740.03
552.34	27463.85
552.51	27487.25
552.68	27534.06
552.84	27402.99
553.01	27667.47
553.18	27606.62
553.34	27625.34
553.51	27522.36
553.67	27768.12
553.84	27983.44
554.01	27702.58
554.17	27707.26
554.34	27936.63
554.51	27796.20
554.67	28247.93
554.84	27936.63
555.00	27906.21
555.17	28046.64
555.33	28264.31
555.50	28009.19
555.67	28170.69
555.83	27971.74
556.00	27756.41
556.16	28259.63
556.33	27929.61
556.50	28086.43
556.66	28414.10
556.83	27906.21
556.99	27852.38
557.16	28243.24
557.32	28357.93
557.49	28535.81
557.65	28184.73
557.82	28390.70
557.98	28182.39
558.15	28264.31
558.32	28343.89
558.48	28531.13
558.65	28161.33
558.81	28334.53
558.98	28070.04
559.14	28245.58
559.31	28304.10
559.47	28573.26
559.64	28205.80
559.80	28493.68
559.97	28369.63
560.13	28292.40
560.30	28606.03
560.46	28238.56
560.63	28386.02
560.79	28449.21
560.96	28271.33
561.12	28629.43
561.29	28428.15
561.45	28645.82
561.61	28299.42
561.78	28697.31
561.94	28566.24
562.11	28531.13
562.27	28645.82
562.44	28510.07
562.60	28519.43
562.77	28854.12
562.93	28439.85
563.10	28823.70
563.26	28456.23
563.42	28814.34
563.59	28828.38
563.75	28783.91
563.92	28821.36
564.08	28650.50
564.24	28751.14
564.41	28355.59
564.57	28950.09
564.74	28999.24
564.90	28893.91
565.07	29088.18
565.23	28931.36
565.39	28982.85
565.56	29076.48
565.72	29015.62
565.88	29439.26
566.05	29057.75
566.21	28542.83
566.38	29219.25
566.54	29134.99
566.70	28914.98
566.87	29174.78
567.03	29174.78
567.19	29457.98
567.36	29350.32
567.52	29010.94
567.68	28793.27
567.85	28776.89
568.01	29113.92
568.17	29027.32
568.34	28947.75
568.50	28893.91
568.66	29064.77
568.83	29315.21
568.99	29287.12
569.15	29017.96
569.32	29055.41
569.48	29062.43
569.64	29427.56
569.81	29301.17
569.97	29167.76
570.13	29099.88
570.30	29324.57
570.46	29415.85
570.62	29053.07
570.78	29106.90
570.95	28797.95
571.11	29448.62
571.27	29027.32
571.43	29113.92
571.60	28938.38
571.76	29165.42
571.92	29263.72
572.09	29209.89
572.25	29359.68
572.41	29397.13
572.57	29659.27
572.74	29457.98
572.90	29525.86
573.06	29284.78
573.22	29221.59
573.38	29156.05
573.55	29010.94
573.71	29539.90
573.87	29673.31
574.03	29240.31
574.20	29273.08
574.36	29614.80
574.52	29509.47
574.68	29324.57
574.84	29539.90
575.01	29467.34
575.17	29322.23
575.33	29411.17
575.49	29046.05
575.65	29289.46
575.82	29479.05
575.98	29390.11
576.14	29315.21
576.30	29579.69
576.46	29352.66
576.62	29123.29
576.79	29696.72
576.95	29172.44
577.11	29357.34
577.27	29752.89
577.43	29507.13
577.59	29490.75
577.75	29591.39
577.92	29462.66
578.08	28975.83
578.24	29544.58
578.40	29736.51
578.56	29329.25
578.72	29797.36
578.88	29614.80
579.04	29759.91
579.21	29355.00
579.37	29591.39
579.53	29394.79
579.69	29378.40
579.85	29682.67
580.01	29406.49
580.17	29130.31
580.33	29422.87
580.49	29783.32
580.65	29635.86
580.82	29544.58
580.98	29876.94
581.14	29301.17
581.30	29766.93
581.46	29699.06
581.62	29575.01
581.78	29663.95
581.94	29699.06
582.10	29642.88
582.26	29523.52
582.42	29713.10
582.58	29465.00
582.74	29460.32
582.90	29729.48
583.06	30101.63
583.22	29816.08
583.38	29663.95
583.54	29776.30
583.70	29530.54
583.86	29741.19
584.02	29586.71
584.18	29769.27
584.34	29357.34
584.50	29816.08
584.66	29603.10
584.82	29504.79
584.98	29666.29
585.14	29249.67
585.30	29310.53
585.46	29443.94
585.62	29457.98
585.78	29675.65
585.94	29378.40
586.10	29567.99
586.26	29366.70
586.42	30022.05
586.58	29645.23
586.74	29785.66
586.90	29656.93
587.06	29394.79
587.22	29579.69
587.38	29252.02
587.54	30239.72
587.70	29984.60
587.86	30026.73
588.02	29862.90
588.18	30066.52
588.34	29687.36
588.49	29476.71
588.65	29797.36
588.81	29476.71
588.97	29551.60
589.13	29724.80
589.29	29846.51
589.45	29886.30
589.61	29830.13
589.77	30059.50
589.93	30164.82
590.08	30302.92
590.24	30279.51
590.40	30099.29
590.56	30377.81
590.72	29940.13
590.88	29984.60
591.04	29837.15
591.20	29970.56
591.35	30181.21
591.51	30071.20
591.67	30141.42
591.83	30319.30
591.99	30361.43
592.15	29949.50
592.31	30253.76
592.46	30139.08
592.62	29947.15
592.78	29853.53
592.94	30050.14
593.10	29937.79
593.26	30141.42
593.41	30443.35
593.57	29888.64
593.73	30101.63
593.89	30064.18
594.05	29703.74
594.20	30096.95
594.36	30085.25
594.52	30089.93
594.68	30015.03
594.84	29668.63
594.99	30405.90
595.15	29982.26
595.31	30209.29
595.47	30040.78
595.62	30581.44
595.78	30441.01
595.94	30089.93
596.10	30335.68
596.25	29975.24
596.41	29989.28
596.57	29951.84
596.73	30274.83
596.88	30057.16
597.04	30431.65
597.20	30485.48
597.36	30649.32
597.51	30396.54
597.67	29984.60
597.83	30375.47
597.99	30419.94
598.14	30270.15
598.30	29949.50
598.46	30188.23
598.61	30148.44
598.77	30197.59
598.93	29914.39
599.09	30272.49
599.24	30384.83
599.40	30721.87
599.56	30417.60
599.71	30270.15
599.87	30455.05
600.03	30195.25
600.18	30085.25
600.34	30391.86
600.50	29982.26
600.65	30209.29
600.81	30010.35
600.97	30778.04
601.12	30396.54
601.28	30441.01
601.44	30197.59
601.59	30497.18
601.75	30213.98
601.91	30441.01
602.06	30436.33
602.22	30181.21
602.37	30209.29
602.53	29921.41
602.69	30604.84
602.84	30335.68
603.00	30883.37
603.16	30614.21
603.31	30469.09
603.47	30024.39
603.62	30291.21
603.78	29982.26
603.94	29951.84
604.09	29979.92
604.25	30146.10
604.40	29935.45
604.56	30146.10
604.71	30235.04
604.87	30204.61
605.03	30635.27
605.18	30108.65
605.34	30333.34
605.49	30085.25
605.65	30132.06
605.80	29895.66
605.96	30221.00
606.12	30071.20
606.27	29937.79
606.43	29652.25
606.58	30380.15
606.74	30075.88
606.89	30075.88
607.05	30738.26
607.20	30232.70
607.36	29869.92
607.51	30125.04
607.67	30209.29
607.82	29921.41
607.98	30099.29
608.13	29635.86
608.29	29699.06
608.44	30066.52
608.60	30073.54
608.75	30134.40
608.91	30136.74
609.06	30068.86
609.22	30225.68
609.37	30139.08
609.53	29631.18
609.68	30169.51
609.84	29710.76
609.99	29970.56
610.15	30148.44
610.30	30101.63
610.46	29895.66
610.61	30129.72
610.76	30115.67
610.92	29930.77
611.07	29993.97
611.23	29752.89
611.38	29846.51
611.54	29654.59
611.69	29525.86
611.84	29619.48
612.00	29972.90
612.15	29811.40
612.31	30125.04
612.46	29727.14
612.62	30022.05
612.77	30043.12
612.92	29738.85
613.08	29795.02
613.23	29666.29
613.39	29565.65
613.54	29556.28
613.69	29717.78
613.85	29638.20
614.00	29701.40
614.15	29736.51
614.31	29745.87
614.46	29486.07
614.62	29996.31
614.77	29832.47
614.92	29577.35
615.08	29455.64
615.23	29390.11
615.38	29523.52
615.54	29312.87
615.69	29256.70
615.84	29455.64
616.00	30221.00
616.15	29656.93
616.30	29788.00
616.46	29097.54
616.61	29411.17
616.76	29989.28
616.92	29598.41
617.07	29214.57
617.22	29387.77
617.37	29420.53
617.53	29610.12
617.68	29163.08
617.83	29029.66
617.99	29343.30
618.14	29167.76
618.29	29455.64
618.45	29209.89
618.60	29404.15
618.75	29305.85
618.90	29392.45
619.06	29465.00
619.21	29109.24
619.36	28875.19
619.51	29518.84
619.67	28847.10
619.82	28814.34
619.97	29333.93
620.12	29003.92
620.28	28999.24
620.43	29235.63
620.58	29355.00
620.73	29198.18
620.89	29092.86
621.04	28893.91
621.19	29046.05
621.34	28765.18
621.49	28811.99
621.65	28922.00
621.80	29024.98
621.95	28826.04
622.10	28964.13
622.25	28531.13
622.41	28802.63
622.56	28730.08
622.71	29170.10
622.86	29003.92
623.01	28933.70
623.16	28797.95
623.32	28556.88
623.47	29067.11
623.62	28470.28
623.77	28608.37
623.92	29067.11
624.07	28877.53
624.23	28807.31
624.38	28828.38
624.53	28699.65
624.68	28917.32
624.83	28772.21
624.98	28737.10
625.13	28615.39
625.29	28701.99
625.44	28746.46
625.59	28353.25
625.74	28287.71
625.89	28425.81
626.04	28542.83
626.19	28156.64
626.34	28327.50
626.49	28582.62
626.65	28086.43
626.80	28704.33
626.95	28166.01
627.10	28243.24
627.25	28346.23
627.40	28158.99
627.55	28039.62
627.70	28067.70
627.85	27971.74
628.00	28538.15
628.15	28091.11
628.30	28184.73
628.45	27955.36
628.60	28114.52
628.76	28119.20
628.91	28322.82
629.06	28287.71
629.21	28093.45
629.36	28418.78
629.51	28231.54
629.66	27770.46
629.81	27917.91
629.96	27953.02
630.11	27711.94
630.26	27407.67
630.41	27716.62
630.56	27843.01
630.71	27924.93
630.86	27922.59
631.01	27908.55
631.16	28158.99
631.31	28217.50
631.46	27854.72
631.61	28072.39
631.76	27735.35
631.91	27573.85
632.06	27903.87
632.21	27707.26
632.36	27676.83
632.51	26998.08
632.66	27615.98
632.81	27145.53
632.96	27908.55
633.10	27763.43
633.25	27700.24
633.40	27772.80
633.55	27695.56
633.70	27620.66
633.85	27260.22
634.00	27222.77
634.15	27758.75
634.30	27803.22
634.45	27257.88
634.60	27529.38
634.75	27339.80
634.90	27487.25
635.05	27372.57
635.19	27192.34
635.34	27807.90
635.49	27505.98
635.64	27725.99
635.79	27641.73
635.94	27377.25
636.09	27218.09
636.24	27262.56
636.39	27070.64
636.53	27154.90
636.68	26859.99
636.83	27300.01
636.98	27208.73
637.13	27318.73
637.28	27124.47
637.43	27344.48
637.57	27190.00
637.72	27213.41
637.87	27374.91
638.02	27225.11
638.17	27077.66
638.32	27192.34
638.46	26724.24
638.61	26632.96
638.76	27077.66
638.91	26639.98
639.06	26801.47
639.20	26897.44
639.35	27168.94
639.50	27021.48
639.65	27260.22
639.80	26888.07
639.94	27178.30
640.09	26780.41
640.24	26817.86
640.39	26719.56
640.54	26630.62
640.68	26338.05
640.83	26761.69
640.98	26354.43
641.13	26075.91
641.27	26979.36
641.42	26850.63
641.57	26448.05
641.72	26691.47
641.86	26202.30
642.01	26616.57
642.16	26789.77
642.31	26590.83
642.45	26623.59
642.60	26593.17
642.75	26380.18
642.90	26125.06
643.04	26221.02
643.19	26122.72
643.34	26197.62
643.48	26693.81
643.63	26534.65
643.78	26707.85
643.93	26424.65
644.07	26679.77
644.22	26707.85
644.37	26375.50
644.51	26258.47
644.66	26389.54
644.81	26349.75
644.95	26235.06
645.10	26162.51
645.25	26221.02
645.39	26188.25
645.54	26218.68
645.69	26167.19
645.83	26146.12
645.98	26103.99
646.13	26396.56
646.27	26361.45
646.42	26045.48
646.57	26019.74
646.71	26183.57
646.86	26017.40
647.00	26001.01
647.15	25837.17
647.30	26141.44
647.44	25912.07
647.59	26012.71
647.74	25982.29
647.88	26045.48
648.03	26160.17
648.17	26141.44
648.32	26052.50
648.47	25879.30
648.61	25855.90
648.76	25912.07
648.90	26143.78
649.05	26230.38
649.20	25603.12
649.34	25792.70
649.49	25816.11
649.63	25401.83
649.78	26153.15
649.92	25607.80
650.07	26181.23
650.21	25626.53
650.36	25937.82
650.51	25694.40
650.65	25752.91
650.80	25701.42
650.94	25993.99
651.09	25390.13
651.23	25624.18
651.38	25378.43
651.52	25495.46
651.67	25678.02
651.81	25406.52
651.96	25671.00
652.10	25490.77
652.25	25387.79
652.39	25776.32
652.54	25668.66
652.68	25757.60
652.83	25621.84
652.97	25865.26
653.12	25308.21
653.26	25160.76
653.41	25516.52
653.55	25322.26
653.70	25085.86
653.84	25340.98
653.99	25104.59
654.13	25055.43
654.27	25205.23
654.42	25067.14
654.56	25249.70
654.71	25415.88
654.85	25411.20
655.00	25532.90
655.14	25366.73
655.29	25453.33
655.43	25191.19
655.57	24985.22
655.72	24947.77
655.86	25139.69
656.01	25022.67
656.15	25270.76
656.30	24961.81
656.44	24847.13
656.58	25413.54
656.73	24922.02
656.87	24711.38
657.01	24903.30
657.16	25067.14
657.30	25144.38
657.45	24786.27
657.59	24957.13
657.73	24617.75
657.88	25022.67
658.02	24900.96
658.16	24601.37
658.31	24971.18
658.45	24704.35
658.60	24573.28
658.74	24482.00
658.88	24400.08
659.03	24732.44
659.17	24741.80
659.31	24407.11
659.46	24381.36
659.60	25013.31
659.74	24533.50
659.89	24680.95
660.03	24514.77
660.17	24807.34
660.32	24304.12
660.46	24353.27
660.60	24432.85
660.74	24287.74
660.89	24430.51
661.03	23946.02
661.17	24112.20
661.32	24041.98
661.46	24446.90
661.60	24210.50
661.74	24142.63
661.89	24219.86
662.03	24224.54
662.17	24126.24
662.31	23955.38
662.46	24088.79
662.60	23906.23
662.74	23906.23
662.88	23688.56
663.03	23506.00
663.17	23695.58
663.31	23662.82
663.45	23524.72
663.60	23653.45
663.74	23597.28
663.88	23524.72
664.02	23864.10
664.17	23707.29
664.31	23204.07
664.45	23218.11
664.59	23669.84
664.73	23716.65
664.88	23374.93
665.02	23171.30
665.16	23356.21
665.30	23168.96
665.44	23208.75
665.59	22906.82
665.73	23164.28
665.87	22927.89
666.01	23281.31
666.15	23293.01
666.29	23115.13
666.44	23339.82
666.58	22918.53
666.72	23183.01
666.86	23105.77
667.00	23087.04
667.14	22993.42
667.28	22960.66
667.43	22520.63
667.57	23070.66
667.71	22829.59
667.85	22630.64
667.99	22377.86
668.13	22501.91
668.27	22693.83
668.41	22750.01
668.56	22651.70
668.70	22623.62
668.84	22787.46
668.98	22600.21
669.12	22651.70
669.26	22700.86
669.40	22359.14
669.54	22541.70
669.68	22150.83
669.82	22328.71
669.96	21928.48
670.10	22113.38
670.25	21846.56
670.39	22457.44
670.53	21977.63
670.67	21905.07
670.81	22127.42
670.95	22228.07
671.09	22239.77
671.23	22066.57
671.37	22061.89
671.51	22312.33
671.65	21958.91
671.79	21928.48
671.93	21874.65
672.07	21802.09
672.21	21493.14
672.35	21645.27
672.49	21212.28
672.63	21422.92
672.77	21544.63
672.91	21490.80
673.05	21455.69
673.19	21277.81
673.33	21397.18
673.47	21575.06
673.61	21341.00
673.75	21247.38
673.89	21137.38
674.03	21104.61
674.17	21184.19
674.31	20961.84
674.45	21352.71
674.59	21163.12
674.73	21071.84
674.87	20964.18
675.01	20982.90
675.15	20774.60
675.29	20290.10
675.43	20552.24
675.56	20807.36
675.70	20854.17
675.84	20615.44
675.98	20095.84
676.12	20606.08
676.26	20746.51
676.40	20680.97
676.54	20475.01
676.68	20449.26
676.82	19871.15
676.96	19999.88
677.10	20299.47
677.23	19868.81
677.37	19927.32
677.51	19803.27
677.65	20056.05
677.79	19819.66
677.93	19616.03
678.07	19810.29
678.21	19751.78
678.34	19632.41
678.48	19742.42
678.62	19431.13
678.76	19503.68
678.90	19557.52
679.04	19363.25
679.18	19391.34
679.31	19023.87
679.45	18817.91
679.59	19087.07
679.73	19365.59
679.87	18845.99
680.00	18806.20
680.14	18860.04
680.28	18927.91
680.42	18579.17
680.56	18991.11
680.70	18979.40
680.83	19080.05
680.97	18590.88
681.11	18476.19
681.25	18366.18
681.39	18270.22
681.52	18506.62
681.66	18302.99
681.80	18132.13
681.94	18403.63
682.07	18382.57
682.21	18148.51
682.35	18164.90
682.49	17547.00
682.62	17947.23
682.76	17734.24
682.90	18146.17
683.04	17820.84
683.17	17912.12
683.31	18045.53
683.45	17926.16
683.59	17743.60
683.72	17568.06
683.86	17568.06
684.00	17582.10
684.13	17465.08
684.27	17376.14
684.41	17289.54
684.55	16985.27
684.68	17008.67
684.82	16812.07
684.96	16994.63
685.09	16774.62
685.23	16922.07
685.37	16929.09
685.50	16933.78
685.64	17006.33
685.78	16980.59
685.91	16954.84
686.05	16692.70
686.19	16896.33
686.32	16851.86
686.46	16430.56
686.60	16528.86
686.73	16358.00
686.87	16229.27
687.01	16360.34
687.14	16044.37
687.28	16035.01
687.42	16119.27
687.55	16074.80
687.69	16102.89
687.82	16037.35
687.96	16189.49
688.10	15758.83
688.23	15995.22
688.37	15800.96
688.50	15805.64
688.64	15742.44
688.78	15758.83
688.91	15463.92
689.05	15569.24
689.18	15576.27
689.32	15012.20
689.46	15222.84
689.59	15391.36
689.73	15370.30
689.86	14827.29
690.00	15272.00
690.13	15054.33
690.27	15164.33
690.41	15124.54
690.54	15059.01
690.68	14871.76
690.81	15049.64
690.95	14998.15
691.08	14897.51
691.22	14696.22
691.35	14382.59
691.49	14836.66
691.62	14375.57
691.76	14443.45
691.89	14607.28
692.03	14211.73
692.16	13961.30
692.30	14024.49
692.43	13973.00
692.57	13928.53
692.70	14258.54
692.84	13926.19
692.97	13687.45
693.11	13951.93
693.24	13752.99
693.38	13561.06
693.51	13757.67
693.65	13748.31
693.78	13652.34
693.92	13472.12
694.05	13710.86
694.19	13413.61
694.32	13245.09
694.45	13521.27
694.59	13376.16
694.72	13174.88
694.86	13160.83
694.99	13249.77
695.13	13132.75
695.26	12884.65
695.39	12905.71
695.53	13081.25
695.66	12980.61
695.80	12816.77
695.93	13053.17
696.07	12865.92
696.20	12779.32
696.33	12910.40
696.47	12519.53
696.60	12617.83
696.73	12547.61
696.87	12491.44
697.00	12491.44
697.14	12271.43
697.27	11946.09
697.40	12198.87
697.54	12077.16
697.67	11962.48
697.80	12138.02
697.94	12149.72
698.07	11892.26
698.21	11831.41
698.34	11880.56
698.47	11857.15
698.61	11910.99
698.74	11882.90
698.87	11976.52
699.01	11674.59
699.14	11815.02
699.27	11674.59
699.40	11571.61
699.54	11545.86
699.67	11573.95
699.80	11468.62
699.94	11442.88
700.07	11241.59
700.20	11096.48
700.34	11391.39
700.47	11110.52
700.60	11091.80
700.73	11344.58
700.87	11110.52
701.00	10839.02
701.13	10988.82
701.26	11164.36
701.40	11019.24
701.53	10974.77
701.66	11122.23
701.79	10560.50
701.93	10686.89
702.06	10551.14
702.19	10593.26
702.32	10611.99
702.46	10356.87
702.59	10597.95
702.72	10413.04
702.85	10331.12
702.99	10321.76
703.12	10387.30
703.25	10225.80
703.38	10274.95
703.51	10200.05
703.65	10239.84
703.78	10160.27
703.91	10150.90
704.04	10272.61
704.17	9996.43
704.31	9956.64
704.44	9989.41
704.57	9998.77
704.70	9696.84
704.83	9593.86
704.96	9610.24
705.10	9600.88
705.23	9572.79
>>>>>End Processed Spectral Data<<<<<
