SpectraSuite Data File
++++++++++++++++++++++++++++++++++++
Date: Fri Oct 18 13:58:21 GMT-05:00 2013
User: bianchi
Dark Spectrum Present: No
Reference Spectrum Present: No
Number of Sampled Component Spectra: 1
Spectrometers: USB2+H05261
Integration Time (usec): 50000 (USB2+H05261)
Spectra Averaged: 1 (USB2+H05261)
Boxcar Smoothing: 0 (USB2+H05261)
Correct for Electrical Dark: No (USB2+H05261)
Strobe/Lamp Enabled: No (USB2+H05261)
Correct for Detector Non-linearity: No (USB2+H05261)
Correct for Stray Light: No (USB2+H05261)
Number of Pixels in Processed Spectrum: 2048
>>>>>Begin Processed Spectral Data<<<<<
365.73	7.02
365.92	7.02
366.12	7.02
366.32	0.00
366.52	0.00
366.72	0.00
366.91	0.00
367.11	0.00
367.31	0.00
367.51	0.00
367.70	0.00
367.90	0.00
368.10	0.00
368.30	0.00
368.49	0.00
368.69	0.00
368.89	0.00
369.09	0.00
369.28	0.00
369.48	0.00
369.68	0.00
369.87	0.00
370.07	0.00
370.27	0.00
370.47	0.00
370.66	67.88
370.86	102.98
371.06	201.29
371.25	135.75
371.45	170.86
371.65	149.79
371.84	180.22
372.04	102.98
372.24	128.73
372.44	154.48
372.63	215.33
372.83	180.22
373.03	201.29
373.22	131.07
373.42	273.84
373.62	243.42
373.81	248.10
374.01	322.99
374.21	250.44
374.40	259.80
374.60	299.59
374.79	241.08
374.99	245.76
375.19	236.39
375.38	194.26
375.58	203.63
375.78	248.10
375.97	255.12
376.17	264.48
376.37	182.56
376.56	205.97
376.76	283.20
376.95	271.50
377.15	248.10
377.35	194.26
377.54	208.31
377.74	252.78
377.93	322.99
378.13	304.27
378.33	320.65
378.52	229.37
378.72	351.08
378.91	250.44
379.11	313.63
379.31	287.89
379.50	325.33
379.70	346.40
379.89	294.91
380.09	276.18
380.28	271.50
380.48	290.23
380.68	304.27
380.87	234.05
381.07	285.55
381.26	388.53
381.46	339.38
381.65	330.02
381.85	287.89
382.04	290.23
382.24	273.84
382.43	332.36
382.63	318.31
382.83	376.83
383.02	308.95
383.22	372.15
383.41	337.04
383.61	372.15
383.80	388.53
384.00	320.65
384.19	339.38
384.39	409.59
384.58	390.87
384.78	325.33
384.97	400.23
385.17	348.74
385.36	353.42
385.56	351.08
385.75	346.40
385.95	444.70
386.14	379.17
386.34	294.91
386.53	348.74
386.72	416.62
386.92	362.78
387.11	395.55
387.31	325.33
387.50	418.96
387.70	355.76
387.89	411.93
388.09	393.21
388.28	482.15
388.48	425.98
388.67	456.40
388.86	496.19
389.06	367.46
389.25	423.64
389.45	379.17
389.64	437.68
389.84	505.56
390.03	397.89
390.22	465.77
390.42	463.43
390.61	477.47
390.81	444.70
391.00	416.62
391.19	440.02
391.39	447.04
391.58	475.13
391.78	489.17
391.97	503.22
392.16	493.85
392.36	484.49
392.55	526.62
392.75	524.28
392.94	540.66
393.13	526.62
393.33	550.03
393.52	498.53
393.71	470.45
393.91	543.00
394.10	610.88
394.29	521.94
394.49	521.94
394.68	582.79
394.88	550.03
395.07	608.54
395.26	594.50
395.46	603.86
395.65	620.24
395.84	636.63
396.04	608.54
396.23	641.31
396.42	676.41
396.62	552.37
396.81	603.86
397.00	634.29
397.19	645.99
397.39	692.80
397.58	704.50
397.77	606.20
397.97	699.82
398.16	660.03
398.35	739.61
398.55	674.07
398.74	730.25
398.93	657.69
399.12	667.05
399.32	641.31
399.51	760.67
399.70	744.29
399.90	732.59
400.09	828.55
400.28	706.84
400.47	720.88
400.67	828.55
400.86	713.86
401.05	791.10
401.24	772.38
401.44	763.01
401.63	760.67
401.82	772.38
402.01	833.23
402.21	837.91
402.40	800.46
402.59	791.10
402.78	777.06
402.97	887.06
403.17	816.85
403.36	826.21
403.55	924.51
403.74	896.43
403.93	884.72
404.13	931.53
404.32	833.23
404.51	880.04
404.70	840.25
404.89	924.51
405.09	1008.77
405.28	910.47
405.47	903.45
405.66	952.60
405.85	992.39
406.05	950.26
406.24	931.53
406.43	999.41
406.62	994.73
406.81	1053.24
407.00	966.64
407.20	1015.79
407.39	1008.77
407.58	1025.15
407.77	1011.11
407.96	1069.62
408.15	1139.84
408.34	1125.80
408.54	1015.79
408.73	1067.28
408.92	987.71
409.11	1069.62
409.30	1109.41
409.49	1130.48
409.68	1128.14
409.87	1160.91
410.07	1114.10
410.26	1160.91
410.45	1111.75
410.64	1118.78
410.83	1240.48
411.02	1261.55
411.21	1219.42
411.40	1219.42
411.59	1235.80
411.78	1221.76
411.98	1284.95
412.17	1334.11
412.36	1277.93
412.55	1228.78
412.74	1334.11
412.93	1324.74
413.12	1245.16
413.31	1373.89
413.50	1371.55
413.69	1320.06
413.88	1472.20
414.07	1441.77
414.26	1329.42
414.45	1366.87
414.64	1373.89
414.83	1493.26
415.02	1460.49
415.22	1537.73
415.41	1584.54
415.60	1593.90
415.79	1561.14
415.98	1516.67
416.17	1600.93
416.36	1610.29
416.55	1465.18
416.74	1544.75
416.93	1607.95
417.12	1614.97
417.31	1640.72
417.50	1547.09
417.69	1703.91
417.88	1619.65
418.07	1685.19
418.26	1687.53
418.45	1701.57
418.64	1891.15
418.83	1767.10
419.02	1713.27
419.21	1797.53
419.39	1750.72
419.58	1799.87
419.77	1668.80
419.96	1839.66
420.15	1802.21
420.34	1888.81
420.53	1809.23
420.72	1846.68
420.91	1893.49
421.10	1930.94
421.29	1989.46
421.48	1954.35
421.67	1898.17
421.86	1921.58
422.05	1928.60
422.24	1944.99
422.43	1947.33
422.61	1963.71
422.80	1907.54
422.99	2029.24
423.18	1949.67
423.37	1980.09
423.56	1937.96
423.75	1909.88
423.94	2001.16
424.13	1844.34
424.32	1926.26
424.50	2043.29
424.69	2057.33
424.88	1998.82
425.07	1982.43
425.26	1980.09
425.45	2029.24
425.64	2010.52
425.83	2001.16
426.01	2036.27
426.20	1966.05
426.39	2050.31
426.58	1982.43
426.77	1980.09
426.96	2111.16
427.15	2092.44
427.33	2172.02
427.52	2106.48
427.71	2097.12
427.90	2157.97
428.09	2078.40
428.28	2113.50
428.46	2029.24
428.65	2066.69
428.84	2230.53
429.03	2214.15
429.22	2223.51
429.40	2127.55
429.59	2270.32
429.78	2113.50
429.97	2078.40
430.16	2176.70
430.34	2286.70
430.53	2284.36
430.72	2228.19
430.91	2296.07
431.10	2347.56
431.28	2235.21
431.47	2326.49
431.66	2296.07
431.85	2249.25
432.03	2347.56
432.22	2377.98
432.41	2363.94
432.60	2509.05
432.79	2445.86
432.97	2429.48
433.16	2417.77
433.35	2385.01
433.54	2480.97
433.72	2513.74
433.91	2502.03
434.10	2415.43
434.28	2572.25
434.47	2520.76
434.66	2480.97
434.85	2523.10
435.03	2495.01
435.22	2490.33
435.41	2619.06
435.59	2476.29
435.78	2626.08
435.97	2574.59
436.16	2562.89
436.34	2583.95
436.53	2785.24
436.72	2616.72
436.90	2623.74
437.09	2658.85
437.28	2572.25
437.46	2682.25
437.65	2724.38
437.84	2757.15
438.02	2705.66
438.21	2731.41
438.40	2689.28
438.58	2871.84
438.77	2881.20
438.96	2942.05
439.14	2981.84
439.33	2897.58
439.52	2888.22
439.70	3019.29
439.89	2843.75
440.08	2960.78
440.26	2958.44
440.45	3007.59
440.63	3063.76
440.82	3070.78
441.01	3026.31
441.19	3115.25
441.38	3124.62
441.57	3056.74
441.75	3159.72
441.94	3262.71
442.12	3190.15
442.31	3251.00
442.50	3234.62
442.68	3279.09
442.87	3211.22
443.05	3405.48
443.24	3335.26
443.43	3265.05
443.61	3386.76
443.80	3496.76
443.98	3251.00
444.17	3218.24
444.35	3321.22
444.54	3382.07
444.73	3377.39
444.91	3459.31
445.10	3412.50
445.28	3386.76
445.47	3318.88
445.65	3337.60
445.84	3293.13
446.02	3358.67
446.21	3454.63
446.39	3555.27
446.58	3522.51
446.77	3499.10
446.95	3236.96
447.14	3363.35
447.32	3405.48
447.51	3412.50
447.69	3349.31
447.88	3442.93
448.06	3529.53
448.25	3421.86
448.43	3403.14
448.62	3290.79
448.80	3499.10
448.99	3466.33
449.17	3562.30
449.36	3639.53
449.54	3597.40
449.73	3756.56
449.91	3707.41
450.10	3632.51
450.28	3681.66
450.46	3541.23
450.65	3623.15
450.83	3674.64
451.02	3641.87
451.20	3723.79
451.39	3882.95
451.57	3726.13
451.76	3585.70
451.94	3831.46
452.13	3840.82
452.31	3662.94
452.49	3672.30
452.68	3733.15
452.86	3747.20
453.05	3817.41
453.23	3904.01
453.42	3896.99
453.60	3889.97
453.78	3868.91
453.97	3742.52
454.15	3861.88
454.34	3859.54
454.52	3960.19
454.70	3882.95
454.89	3871.25
455.07	3997.64
455.26	3988.27
455.44	4070.19
455.62	4086.58
455.81	4018.70
455.99	4149.77
456.17	4126.36
456.36	4046.79
456.54	4060.83
456.73	4259.78
456.91	4145.09
457.09	4102.96
457.28	4351.06
457.46	4257.43
457.64	4383.82
457.83	4285.52
458.01	4173.18
458.19	4327.65
458.38	4362.76
458.56	4379.14
458.74	4297.22
458.93	4294.88
459.11	4320.63
459.29	4262.12
459.48	4248.07
459.66	4353.40
459.84	4428.29
460.03	4519.57
460.21	4351.06
460.39	4435.32
460.57	4550.00
460.76	4484.47
460.94	4552.34
461.12	4519.57
461.31	4559.36
461.49	4585.11
461.67	4573.41
461.85	4573.41
462.04	4624.90
462.22	4748.95
462.40	4571.07
462.59	4718.52
462.77	4624.90
462.95	4608.51
463.13	4816.82
463.32	4550.00
463.50	4753.63
463.68	4681.07
463.86	4826.18
464.05	4741.93
464.23	4678.73
464.41	4844.91
464.59	4774.69
464.78	4800.44
464.96	4884.70
465.14	4770.01
465.32	4762.99
465.50	4924.49
465.69	4922.15
465.87	4905.76
466.05	4744.27
466.23	4896.40
466.41	4786.40
466.60	5130.45
466.78	4889.38
466.96	4894.06
467.14	5027.47
467.32	5128.11
467.51	5111.73
467.69	4865.97
467.87	4978.32
468.05	5224.08
468.23	5109.39
468.41	5032.15
468.60	5067.26
468.78	5156.20
468.96	5238.12
469.14	5109.39
469.32	5179.61
469.50	5118.75
469.69	5273.23
469.87	5188.97
470.05	5266.21
470.23	5371.53
470.41	5425.36
470.59	5437.06
470.77	5301.31
470.95	5341.10
471.14	5453.45
471.32	5320.04
471.50	5483.88
471.68	5533.03
471.86	5458.13
472.04	5584.52
472.22	5596.22
472.40	5647.71
472.58	5554.09
472.77	5628.99
472.95	5781.12
473.13	5926.24
473.31	5640.69
473.49	5680.48
473.67	5584.52
473.85	5888.79
474.03	5881.77
474.21	5769.42
474.39	6038.58
474.57	6045.60
474.75	6164.97
474.93	6092.41
475.12	5959.00
475.30	6127.52
475.48	6115.82
475.66	6090.07
475.84	6186.04
476.02	6251.57
476.20	6274.98
476.38	6361.58
476.56	6497.33
476.74	6307.74
476.92	6384.98
477.10	6387.32
477.28	6640.10
477.46	6682.23
477.64	6567.54
477.82	6661.16
478.00	6817.98
478.18	6942.03
478.36	6853.09
478.54	6888.20
478.72	6951.39
478.90	6958.41
479.08	7089.48
479.26	7124.59
479.44	7255.66
479.62	7211.19
479.80	7246.30
479.98	7255.66
480.16	7335.24
480.34	7300.13
480.52	7524.82
480.70	7569.29
480.88	7506.10
481.06	7527.16
481.24	7496.74
481.41	7779.94
481.59	7819.73
481.77	7833.77
481.95	7889.95
482.13	8070.17
482.31	7957.82
482.49	7948.46
482.67	8138.04
482.85	8219.96
483.03	8276.13
483.21	8519.55
483.39	8491.46
483.57	8299.54
483.74	8519.55
483.92	8741.90
484.10	8769.99
484.28	8769.99
484.46	8964.25
484.64	8896.38
484.82	8952.55
485.00	8903.40
485.18	9111.71
485.35	9401.93
485.53	9226.39
485.71	9247.46
485.89	9411.29
486.07	9390.23
486.25	9404.27
486.43	9425.34
486.61	9703.86
486.78	9650.03
486.96	9390.23
487.14	10026.86
487.32	10003.45
487.50	10211.76
487.68	10052.60
487.85	10286.65
488.03	10106.43
488.21	10408.36
488.39	10661.14
488.57	10391.98
488.75	10644.76
488.92	10803.91
489.10	10607.31
489.28	10611.99
489.46	11103.50
489.64	10913.92
489.81	11255.64
489.99	11164.36
490.17	11047.33
490.35	11353.94
490.53	11337.56
490.70	11489.69
490.88	11604.38
491.06	11475.65
491.24	11744.81
491.41	11761.19
491.59	11662.89
491.77	11751.83
491.95	11632.46
492.13	11845.45
492.30	12177.81
492.48	12149.72
492.66	12140.36
492.84	12020.99
493.01	12231.64
493.19	12369.73
493.37	12505.48
493.54	12526.55
493.72	12683.36
493.90	12622.51
494.08	12875.29
494.25	12744.22
494.43	12645.91
494.61	13165.51
494.79	13214.66
494.96	13046.15
495.14	13378.50
495.32	13387.86
495.49	13327.01
495.67	13523.62
495.85	13528.30
496.02	13647.66
496.20	13823.20
496.38	13575.11
496.55	13701.50
496.73	14059.60
496.91	13991.72
497.09	14026.83
497.26	14071.30
497.44	14040.87
497.62	14207.05
497.79	14436.42
497.97	14295.99
498.14	14466.85
498.32	14349.82
498.50	14590.90
498.67	14857.72
498.85	14590.90
499.03	14707.93
499.20	14574.52
499.38	14878.79
499.56	14871.76
499.73	14747.72
499.91	14860.06
500.08	15169.01
500.26	15037.94
500.44	15281.36
500.61	15309.44
500.79	15103.48
500.97	15286.04
501.14	15646.48
501.32	15606.69
501.49	15307.10
501.67	15618.39
501.84	15623.08
502.02	15529.45
502.20	15936.71
502.37	16072.46
502.55	16112.25
502.72	15882.88
502.90	16002.24
503.07	15637.12
503.25	15974.16
503.43	15906.28
503.60	16238.64
503.78	16273.74
503.95	16255.02
504.13	16423.54
504.30	16386.09
504.48	16402.47
504.65	16533.54
504.83	16634.19
505.01	16484.39
505.18	16573.33
505.36	16802.71
505.53	16568.65
505.71	16865.90
505.88	16924.41
506.06	16858.88
506.23	17212.30
506.41	17060.16
506.58	17167.83
506.76	17266.13
506.93	17439.33
507.11	17238.05
507.28	17273.15
507.46	17249.75
507.63	17212.30
507.81	17750.62
507.98	17415.93
508.16	17436.99
508.33	17685.09
508.50	17563.38
508.68	17774.03
508.85	18038.51
509.03	18029.15
509.20	17675.73
509.38	18022.12
509.55	18197.67
509.73	18082.98
509.90	17984.68
510.08	18017.44
510.25	17877.01
510.42	18267.88
510.60	18483.21
510.77	18335.76
510.95	18368.52
511.12	18258.52
511.30	18478.53
511.47	18398.95
511.64	18356.82
511.82	18675.13
511.99	18691.52
512.17	19159.63
512.34	18780.46
512.51	18932.59
512.69	19094.09
512.86	18707.90
513.04	19161.97
513.21	18946.64
513.38	19323.46
513.56	19166.65
513.73	19056.64
513.90	19084.73
514.08	19412.40
514.25	19386.66
514.43	19515.39
514.60	19403.04
514.77	19618.37
514.95	19550.49
515.12	19468.58
515.29	19449.85
515.47	19246.23
515.64	19676.88
515.81	20079.46
515.99	19960.09
516.16	20102.86
516.33	19836.04
516.51	19704.97
516.68	19660.50
516.85	19896.89
517.03	20006.90
517.20	20182.44
517.37	19936.68
517.54	20168.40
517.72	20006.90
517.89	20379.04
518.06	20208.19
518.24	20346.28
518.41	20308.83
518.58	20240.95
518.75	20262.02
518.93	20634.16
519.10	20662.25
519.27	20732.47
519.45	20954.82
519.62	20613.10
519.79	20767.57
519.96	20652.89
520.14	20769.91
520.31	20823.75
520.48	20772.25
520.65	20973.54
520.83	20915.03
521.00	20795.66
521.17	20936.09
521.34	21242.70
521.52	21207.59
521.69	21453.35
521.86	21331.64
522.03	21476.76
522.20	21270.79
522.38	21511.86
522.55	21596.12
522.72	21584.42
522.89	21785.71
523.07	21549.31
523.24	22089.98
523.41	21867.63
523.58	21415.90
523.75	21841.88
523.92	21774.00
524.10	21561.02
524.27	21984.65
524.44	21830.18
524.61	22232.75
524.78	22408.29
524.96	22036.14
525.13	21781.03
525.30	22068.91
525.47	21895.71
525.64	22199.98
525.81	22221.05
525.98	22452.76
526.16	22181.26
526.33	22661.07
526.50	22593.19
526.67	22576.81
526.84	22595.53
527.01	22649.36
527.18	22485.53
527.36	22869.37
527.53	22808.52
527.70	22878.74
527.87	22558.08
528.04	22632.98
528.21	22808.52
528.38	22827.24
528.55	22824.90
528.72	22906.82
528.89	22951.29
529.07	23009.81
529.24	22766.39
529.41	23077.68
529.58	22799.16
529.75	23119.81
529.92	23180.67
530.09	23077.68
530.26	23386.63
530.43	23655.79
530.60	23159.60
530.77	23225.14
530.94	23147.90
531.11	23538.77
531.28	23056.62
531.46	23386.63
531.63	23410.04
531.80	23653.45
531.97	23821.97
532.14	23934.32
532.31	23524.72
532.48	23910.91
532.65	23704.95
532.82	23868.78
532.99	23651.11
533.16	23569.19
533.33	23939.00
533.50	24245.61
533.67	24187.10
533.84	23775.16
534.01	23992.83
534.18	23751.76
534.35	24098.16
534.52	24189.44
534.69	24233.91
534.86	24402.43
535.03	24299.44
535.20	24203.48
535.37	24121.56
535.54	24184.76
535.71	24060.71
535.88	24187.10
536.05	24512.43
536.22	24594.35
536.38	24205.82
536.55	24842.45
536.72	24542.86
536.89	24264.33
537.06	24809.68
537.23	24538.18
537.40	24397.74
537.57	24577.97
537.74	24744.14
537.91	24896.28
538.08	24685.63
538.25	24592.01
538.42	25144.38
538.59	24936.07
538.75	24816.70
538.92	24826.06
539.09	24957.13
539.26	24786.27
539.43	25284.81
539.60	24985.22
539.77	24936.07
539.94	24917.34
540.11	25062.46
540.28	25209.91
540.44	25682.70
540.61	24978.20
540.78	25467.37
540.95	25479.07
541.12	24945.43
541.29	25331.62
541.46	25617.16
541.62	25649.93
541.79	25228.63
541.96	25340.98
542.13	25123.31
542.30	25404.17
542.47	25867.60
542.63	25731.85
542.80	25891.01
542.97	25858.24
543.14	25947.18
543.31	25862.92
543.48	25869.94
543.64	26059.52
543.81	25797.38
543.98	25968.24
544.15	25832.49
544.32	25977.61
544.48	26476.14
544.65	26008.03
544.82	26192.94
544.99	25832.49
545.16	26001.01
545.32	26188.25
545.49	26412.95
545.66	26309.96
545.83	26647.00
546.00	26635.30
546.16	26373.16
546.33	26195.28
546.50	25809.09
546.67	26649.34
546.83	26204.64
547.00	26450.39
547.17	26415.29
547.34	26265.49
547.50	26307.62
547.67	26679.77
547.84	26546.36
548.00	26412.95
548.17	26513.59
548.34	26600.19
548.51	26815.52
548.67	26969.99
548.84	26775.73
549.01	26349.75
549.18	26527.63
549.34	26677.43
549.51	26962.97
549.68	26764.03
549.84	26881.05
550.01	26696.15
550.18	26691.47
550.34	26986.38
550.51	26939.57
550.68	26974.67
550.84	26852.97
551.01	27192.34
551.18	26930.20
551.34	27002.76
551.51	27239.15
551.68	27065.96
551.84	27119.79
552.01	27234.47
552.18	27728.33
552.34	27267.24
552.51	27253.20
552.68	27264.90
552.84	27433.42
553.01	27363.20
553.18	27278.94
553.34	27342.14
553.51	27309.37
553.67	27550.45
553.84	28100.47
554.01	27594.92
554.17	27772.80
554.34	27669.81
554.51	27496.61
554.67	27395.97
554.84	28048.98
555.00	27393.63
555.17	27468.53
555.33	27438.10
555.50	27611.30
555.67	27791.52
555.83	27707.26
556.00	27922.59
556.16	28215.16
556.33	27440.44
556.50	27868.76
556.66	28063.02
556.83	27784.50
556.99	28259.63
557.16	28018.55
557.32	27634.71
557.49	27992.81
557.65	28173.03
557.82	27721.30
557.98	27777.48
558.15	28233.88
558.32	28414.10
558.48	27679.18
558.65	28041.96
558.81	28018.55
558.98	27903.87
559.14	28203.46
559.31	28088.77
559.47	27901.53
559.64	27988.13
559.80	28407.08
559.97	28116.86
560.13	28182.39
560.30	28393.04
560.46	28236.22
560.63	27840.67
560.79	28261.97
560.96	28236.22
561.12	28112.17
561.29	27843.01
561.45	28315.80
561.61	28175.37
561.78	28739.44
561.94	28540.49
562.11	28369.63
562.27	28563.90
562.44	28308.78
562.60	28381.34
562.77	28095.79
562.93	28013.87
563.10	28556.88
563.26	28201.11
563.42	28542.83
563.59	28840.08
563.75	28280.69
563.92	28758.16
564.08	28271.33
564.24	28713.69
564.41	28346.23
564.57	28470.28
564.74	28606.03
564.90	28451.55
565.07	28631.77
565.23	28512.41
565.39	28624.75
565.56	28622.41
565.72	28676.24
565.88	28435.17
566.05	28875.19
566.21	28484.32
566.38	28481.98
566.54	28755.82
566.70	29001.58
566.87	28858.81
567.03	28903.28
567.19	28835.40
567.36	28851.78
567.52	28762.84
567.68	28489.00
567.85	28645.82
568.01	28622.41
568.17	28601.35
568.34	28748.80
568.50	28872.85
568.66	28716.03
568.83	29188.82
568.99	28907.96
569.15	28746.46
569.32	28907.96
569.48	28896.25
569.64	28797.95
569.81	28919.66
569.97	28809.65
570.13	29202.86
570.30	28849.44
570.46	29017.96
570.62	28652.84
570.78	28863.49
570.95	29067.11
571.11	29413.51
571.27	28985.19
571.43	28573.26
571.60	29104.56
571.76	28926.68
571.92	28973.49
572.09	29142.01
572.25	29406.49
572.41	29097.54
572.57	29092.86
572.74	29273.08
572.90	29083.50
573.06	28931.36
573.22	29032.00
573.38	29142.01
573.55	29099.88
573.71	29188.82
573.87	29521.18
574.03	29315.21
574.20	29144.35
574.36	29074.13
574.52	29090.52
574.68	29069.45
574.84	29352.66
575.01	28929.02
575.17	29142.01
575.33	29060.09
575.49	28919.66
575.65	29125.63
575.82	29397.13
575.98	29289.46
576.14	29198.18
576.30	29219.25
576.46	29104.56
576.62	28751.14
576.79	29500.11
576.95	29191.16
577.11	29397.13
577.27	29418.19
577.43	29827.79
577.59	29282.44
577.75	29362.02
577.92	28718.37
578.08	28690.29
578.24	29170.10
578.40	29013.28
578.56	29439.26
578.72	29315.21
578.88	29563.31
579.04	29345.64
579.21	29127.97
579.37	29099.88
579.53	29380.74
579.69	28982.85
579.85	28936.04
580.01	29003.92
580.17	29046.05
580.33	29490.75
580.49	29668.63
580.65	29144.35
580.82	29685.01
580.98	29017.96
581.14	29413.51
581.30	29303.51
581.46	29237.97
581.62	29359.68
581.78	29223.93
581.94	29221.59
582.10	29509.47
582.26	28999.24
582.42	29495.43
582.58	29788.00
582.74	29216.91
582.90	29532.88
583.06	29322.23
583.22	29771.61
583.38	29474.37
583.54	29427.56
583.70	28999.24
583.86	29418.19
584.02	29088.18
584.18	29682.67
584.34	29677.99
584.50	30012.69
584.66	29170.10
584.82	29369.04
584.98	29132.65
585.14	29682.67
585.30	28856.46
585.46	29095.20
585.62	28978.17
585.78	29387.77
585.94	29022.64
586.10	29425.22
586.26	29289.46
586.42	29535.22
586.58	29352.66
586.74	29256.70
586.90	28821.36
587.06	29156.05
587.22	28980.51
587.38	28851.78
587.54	29500.11
587.70	29820.77
587.86	29362.02
588.02	29816.08
588.18	29748.21
588.34	29476.71
588.49	29677.99
588.65	29378.40
588.81	29144.35
588.97	29780.98
589.13	29298.83
589.29	29319.89
589.45	29481.39
589.61	29764.59
589.77	29750.55
589.93	29710.76
590.08	30036.09
590.24	30398.88
590.40	29982.26
590.56	29542.24
590.72	29483.73
590.88	29436.92
591.04	29385.43
591.20	29783.32
591.35	29809.06
591.51	29975.24
591.67	29979.92
591.83	29947.15
591.99	29661.61
592.15	29675.65
592.31	29832.47
592.46	29582.03
592.62	29539.90
592.78	29696.72
592.94	29790.34
593.10	29820.77
593.26	29802.04
593.41	29991.62
593.57	30010.35
593.73	29970.56
593.89	29956.52
594.05	29788.00
594.20	29514.16
594.36	30096.95
594.52	29699.06
594.68	29692.04
594.84	29675.65
594.99	30230.36
595.15	29710.76
595.31	30050.14
595.47	29972.90
595.62	29921.41
595.78	29645.23
595.94	29701.40
596.10	29598.41
596.25	29907.37
596.41	29500.11
596.57	30000.99
596.73	30169.51
596.88	29434.58
597.04	29909.71
597.20	30129.72
597.36	30071.20
597.51	30085.25
597.67	29905.02
597.83	29755.23
597.99	30120.35
598.14	29979.92
598.30	30000.99
598.46	30066.52
598.61	29558.63
598.77	29961.20
598.93	30029.07
599.09	30160.14
599.24	30202.27
599.40	29701.40
599.56	29837.15
599.71	29731.83
599.87	30148.44
600.03	29982.26
600.18	29841.83
600.34	30073.54
600.50	29675.65
600.65	30157.80
600.81	30106.31
600.97	30389.52
601.12	30199.93
601.28	29914.39
601.44	30136.74
601.59	30628.25
601.75	30216.32
601.91	29797.36
602.06	30008.01
602.22	29947.15
602.37	29666.29
602.53	30323.98
602.69	30183.55
602.84	30118.01
603.00	29965.88
603.16	30031.41
603.31	30204.61
603.47	29731.83
603.62	29986.94
603.78	29979.92
603.94	29802.04
604.09	29921.41
604.25	29914.39
604.40	29993.97
604.56	30153.12
604.71	29909.71
604.87	30206.95
605.03	30026.73
605.18	29785.66
605.34	29631.18
605.49	29647.57
605.65	29752.89
605.80	29752.89
605.96	29610.12
606.12	29624.16
606.27	29968.22
606.43	29460.32
606.58	30033.75
606.74	30000.99
606.89	30078.22
607.05	30066.52
607.20	29855.87
607.36	29703.74
607.51	29869.92
607.67	29575.01
607.82	29685.01
607.98	29549.26
608.13	29846.51
608.29	29773.95
608.44	29991.62
608.60	29677.99
608.75	30033.75
608.91	29710.76
609.06	29509.47
609.22	29968.22
609.37	29418.19
609.53	29488.41
609.68	29521.18
609.84	29518.84
609.99	29340.96
610.15	29661.61
610.30	29715.44
610.46	29694.38
610.61	29635.86
610.76	29619.48
610.92	29830.13
611.07	29642.88
611.23	29741.19
611.38	29530.54
611.54	29233.29
611.69	29677.99
611.84	29242.65
612.00	29544.58
612.15	29404.15
612.31	29249.67
612.46	29446.28
612.62	29708.42
612.77	29563.31
612.92	29617.14
613.08	29418.19
613.23	29465.00
613.39	29095.20
613.54	29469.69
613.69	29418.19
613.85	29427.56
614.00	29390.11
614.15	29518.84
614.31	28992.22
614.46	29497.77
614.62	29701.40
614.77	29357.34
614.92	29153.71
615.08	29308.19
615.23	28994.56
615.38	29303.51
615.54	28973.49
615.69	29252.02
615.84	28987.53
616.00	29069.45
616.15	29446.28
616.30	29116.26
616.46	29165.42
616.61	29312.87
616.76	29336.27
616.92	29179.46
617.07	29060.09
617.22	28788.59
617.37	29071.79
617.53	29277.76
617.68	29062.43
617.83	28907.96
617.99	28884.55
618.14	28739.44
618.29	28811.99
618.45	28898.59
618.60	29099.88
618.75	28936.04
618.90	28924.34
619.06	28886.89
619.21	28938.38
619.36	28961.79
619.51	28767.52
619.67	28765.18
619.82	28821.36
619.97	28875.19
620.12	28814.34
620.28	28744.12
620.43	28732.42
620.58	29076.48
620.73	29244.99
620.89	29158.39
621.04	28795.61
621.19	29015.62
621.34	28772.21
621.49	28512.41
621.65	28540.49
621.80	28671.56
621.95	28549.85
622.10	28673.90
622.25	28477.30
622.41	28360.27
622.56	28751.14
622.71	28900.94
622.86	28594.32
623.01	28795.61
623.16	28531.13
623.32	28418.78
623.47	28170.69
623.62	28292.40
623.77	28407.08
623.92	28610.71
624.07	28158.99
624.23	28699.65
624.38	28514.75
624.53	28301.76
624.68	28343.89
624.83	28683.27
624.98	28615.39
625.13	28154.30
625.29	28170.69
625.44	28620.07
625.59	28299.42
625.74	27997.49
625.89	28041.96
626.04	28346.23
626.19	27906.21
626.34	27995.15
626.49	27906.21
626.65	28191.75
626.80	27988.13
626.95	28121.54
627.10	28098.13
627.25	27903.87
627.40	28034.94
627.55	27594.92
627.70	27866.42
627.85	27892.16
628.00	28037.28
628.15	27711.94
628.30	27461.51
628.45	27941.32
628.60	27772.80
628.76	27828.97
628.91	27761.09
629.06	27868.76
629.21	28306.44
629.36	27824.29
629.51	27733.01
629.66	27489.59
629.81	27674.49
629.96	27218.09
630.11	27477.89
630.26	27344.48
630.41	27461.51
630.56	27613.64
630.71	27374.91
630.86	27688.54
631.01	27328.10
631.16	27655.77
631.31	27740.03
631.46	27363.20
631.61	27782.16
631.76	27615.98
631.91	27520.02
632.06	27625.34
632.21	27021.48
632.36	27175.96
632.51	27241.50
632.66	27370.22
632.81	27161.92
632.96	27557.47
633.10	27388.95
633.25	27133.83
633.40	27363.20
633.55	27136.17
633.70	27463.85
633.85	26962.97
634.00	26906.80
634.15	27143.19
634.30	27201.71
634.45	26958.29
634.60	27096.38
634.75	27204.05
634.90	27040.21
635.05	27442.78
635.19	27168.94
635.34	27634.71
635.49	27072.98
635.64	27199.37
635.79	27077.66
635.94	27190.00
636.09	27105.74
636.24	26920.84
636.39	27154.90
636.53	26728.92
636.68	26515.93
636.83	26981.70
636.98	27061.27
637.13	27047.23
637.28	26764.03
637.43	27047.23
637.57	26794.45
637.72	26913.82
637.87	26536.99
638.02	27101.06
638.17	26534.65
638.32	26857.65
638.46	26560.40
638.61	26600.19
638.76	26457.42
638.91	26820.20
639.06	26628.27
639.20	26574.44
639.35	26469.12
639.50	26682.11
639.65	26558.06
639.80	26551.04
639.94	26536.99
640.09	26623.59
640.24	26717.22
640.39	26426.99
640.54	26469.12
640.68	26209.32
640.83	26253.79
640.98	26150.81
641.13	26279.54
641.27	26384.86
641.42	25993.99
641.57	26558.06
641.72	26300.60
641.86	26279.54
642.01	26108.68
642.16	26204.64
642.31	26143.78
642.45	26312.30
642.60	26115.70
642.75	26239.75
642.90	25748.23
643.04	25804.41
643.19	26082.93
643.34	25956.54
643.48	25923.77
643.63	26452.73
643.78	25853.56
643.93	26487.84
644.07	26106.34
644.22	26132.08
644.37	26270.17
644.51	26171.87
644.66	26157.83
644.81	25879.30
644.95	25893.35
645.10	25727.17
645.25	25926.11
645.39	26214.00
645.54	26237.41
645.69	25818.45
645.83	25860.58
645.98	25923.77
646.13	25752.91
646.27	25785.68
646.42	25858.24
646.57	26015.05
646.71	25722.49
646.86	25736.53
647.00	25797.38
647.15	26010.37
647.30	25685.04
647.44	25792.70
647.59	25996.33
647.74	25832.49
647.88	25907.39
648.03	25860.58
648.17	25743.55
648.32	26216.34
648.47	26092.29
648.61	25521.20
648.76	25902.71
648.90	25914.41
649.05	25989.31
649.20	25748.23
649.34	25582.06
649.49	25078.84
649.63	25387.79
649.78	25640.57
649.92	25481.41
650.07	25820.79
650.21	25591.42
650.36	25350.34
650.51	24954.79
650.65	25656.95
650.80	25680.36
650.94	25371.41
651.09	25846.54
651.23	25589.08
651.38	25221.61
651.52	25420.56
651.67	24975.86
651.81	25132.67
651.96	25132.67
652.10	25055.43
652.25	25734.19
652.39	25345.66
652.54	25500.14
652.68	25003.94
652.83	25483.75
652.97	25680.36
653.12	25406.52
653.26	25120.97
653.41	25238.00
653.55	25041.39
653.70	24875.21
653.84	24931.39
653.99	24992.24
654.13	25130.33
654.27	25109.27
654.42	24943.09
654.56	25188.85
654.71	24926.71
654.85	25043.73
655.00	25137.35
655.14	24933.73
655.29	24999.26
655.43	24987.56
655.57	24842.45
655.72	24725.42
655.86	25060.12
656.01	25102.25
656.15	24744.14
656.30	24807.34
656.44	24779.25
656.58	24786.27
656.73	24156.67
656.87	24692.65
657.01	24535.84
657.16	24624.78
657.30	24980.54
657.45	24765.21
657.59	24526.47
657.73	24381.36
657.88	24683.29
658.02	24510.09
658.16	24524.13
658.31	24451.58
658.45	24620.10
658.60	24292.42
658.74	24519.45
658.88	24224.54
659.03	24065.39
659.17	24297.10
659.31	24219.86
659.46	24561.58
659.60	24364.98
659.74	24093.47
659.89	24299.44
660.03	24451.58
660.17	24016.24
660.32	23985.81
660.46	23885.17
660.60	23733.03
660.74	23826.65
660.89	24236.25
661.03	23651.11
661.17	24013.90
661.32	23625.37
661.46	24114.54
661.60	23749.42
661.74	23960.06
661.89	23845.38
662.03	23924.96
662.17	23859.42
662.31	23791.55
662.46	23985.81
662.60	23651.11
662.74	23880.49
662.88	23454.51
663.03	23213.43
663.17	23580.90
663.31	23264.92
663.45	23328.12
663.60	23339.82
663.74	23400.68
663.88	23496.64
664.02	23377.27
664.17	23206.41
664.31	23147.90
664.45	23356.21
664.59	23456.85
664.73	23356.21
664.88	23454.51
665.02	23108.11
665.16	23051.94
665.30	23005.13
665.44	22499.57
665.59	23014.49
665.73	22986.40
665.87	22852.99
666.01	23267.27
666.15	23087.04
666.29	22813.20
666.44	22885.76
666.58	22831.93
666.72	22579.15
666.86	22852.99
667.00	23101.09
667.14	22675.11
667.28	22904.48
667.43	22466.80
667.57	22794.48
667.71	22628.30
667.85	22742.99
667.99	22537.02
668.13	22590.85
668.27	22618.94
668.41	22448.08
668.56	22265.52
668.70	22546.38
668.84	22352.12
668.98	22422.33
669.12	22513.61
669.26	22312.33
669.40	21949.54
669.54	22558.08
669.68	21872.31
669.82	21830.18
669.96	21895.71
670.10	21940.18
670.25	22080.61
670.39	21982.31
670.53	21713.15
670.67	21666.34
670.81	21603.14
670.95	21876.99
671.09	21612.51
671.23	22167.21
671.37	21893.37
671.51	21699.11
671.65	21844.22
671.79	21766.98
671.93	21799.75
672.07	21553.99
672.21	21603.14
672.35	21376.11
672.49	21177.17
672.63	21406.54
672.77	21200.57
672.91	21156.10
673.05	21067.16
673.19	21144.40
673.33	21158.44
673.47	21317.60
673.61	21142.06
673.75	21186.53
673.89	20903.32
674.03	21003.97
674.17	20826.09
674.31	20809.70
674.45	21022.69
674.59	20629.48
674.73	20830.77
674.87	20812.04
675.01	20737.15
675.15	20627.14
675.29	20278.40
675.43	20566.29
675.56	20673.95
675.70	20475.01
675.84	20365.00
675.98	19805.61
676.12	20386.07
676.26	20514.80
676.40	20280.74
676.54	20374.36
676.68	20306.49
676.82	19866.47
676.96	19648.80
677.10	19903.92
677.23	19992.86
677.37	19697.95
677.51	19789.23
677.65	19597.31
677.79	19335.17
677.93	19445.17
678.07	19447.51
678.21	19276.65
678.34	19456.87
678.48	19552.84
678.62	19082.39
678.76	19384.32
678.90	19187.71
679.04	19262.61
679.18	19129.20
679.31	18853.02
679.45	18867.06
679.59	18939.62
679.73	18796.84
679.87	18771.10
680.00	18544.06
680.14	18712.58
680.28	18684.50
680.42	18780.46
680.56	18640.03
680.70	18600.24
680.83	18625.98
680.97	18370.86
681.11	18450.44
681.25	18445.76
681.39	18340.44
681.52	18286.61
681.66	18015.10
681.80	18305.33
681.94	17937.87
682.07	17895.74
682.21	17947.23
682.35	17635.94
682.49	17572.74
682.62	17933.18
682.76	17603.17
682.90	17898.08
683.04	17687.43
683.17	17404.22
683.31	17708.49
683.45	17472.10
683.59	17315.28
683.72	17338.69
683.86	17369.12
684.00	17357.41
684.13	17118.68
684.27	17172.51
684.41	17125.70
684.55	16931.44
684.68	16973.56
684.82	16793.34
684.96	16664.61
685.09	16910.37
685.23	16650.57
685.37	16793.34
685.50	16868.24
685.64	16554.61
685.78	16437.58
685.91	16718.45
686.05	16432.90
686.19	16407.16
686.32	16807.39
686.46	16381.41
686.60	16252.68
686.73	16212.89
686.87	16121.61
687.01	15901.60
687.14	16107.57
687.28	15772.87
687.42	16065.44
687.55	15751.81
687.69	15894.58
687.82	15763.51
687.96	15637.12
688.10	15737.76
688.23	15704.99
688.37	15896.92
688.50	15726.06
688.64	15400.72
688.78	15594.99
688.91	15286.04
689.05	15307.10
689.18	15117.52
689.32	14768.78
689.46	15009.86
689.59	15084.75
689.73	14941.98
689.86	14780.48
690.00	14731.33
690.13	14895.17
690.27	14953.68
690.41	14707.93
690.54	14766.44
690.68	14541.75
690.81	14902.19
690.95	14693.88
691.08	14530.05
691.22	14640.05
691.35	14731.33
691.49	14530.05
691.62	14448.13
691.76	14239.82
691.89	14200.03
692.03	14120.45
692.16	14038.53
692.30	14075.98
692.43	14045.55
692.57	14050.24
692.70	13783.41
692.84	13928.53
692.97	13989.38
693.11	13809.16
693.24	13820.86
693.38	13600.85
693.51	13923.85
693.65	13425.31
693.78	13439.36
693.92	13591.49
694.05	13376.16
694.19	13476.80
694.32	13149.13
694.45	13221.69
694.59	13048.49
694.72	13107.00
694.86	12882.31
694.99	12678.68
695.13	12674.00
695.26	12847.20
695.39	12910.40
695.53	12994.65
695.66	12952.52
695.80	12826.14
695.93	12865.92
696.07	12711.45
696.20	12526.55
696.33	12669.32
696.47	12468.03
696.60	12793.37
696.73	12664.64
696.87	12582.72
697.00	12545.27
697.14	12276.11
697.27	12051.42
697.40	12152.06
697.54	11882.90
697.67	11836.09
697.80	11943.75
697.94	11763.53
698.07	11833.75
698.21	11871.20
698.34	11950.78
698.47	12128.66
698.61	11903.96
698.74	11782.26
698.87	11698.00
699.01	11613.74
699.14	11543.52
699.27	11325.85
699.40	11524.80
699.54	11367.98
699.67	11417.13
699.80	11269.68
699.94	11257.98
700.07	11140.95
700.20	11190.10
700.34	11171.38
700.47	11033.29
700.60	11180.74
700.73	11068.39
700.87	11169.04
701.00	10946.69
701.13	10656.46
701.26	10953.71
701.40	10970.09
701.53	10693.91
701.66	10855.40
701.79	10754.76
701.93	10525.39
702.06	10455.17
702.19	10319.42
702.32	10452.83
702.46	10321.76
702.59	10326.44
702.72	10319.42
702.85	10132.18
702.99	10031.54
703.12	9998.77
703.25	10071.33
703.38	10171.97
703.51	9898.13
703.65	10118.14
703.78	9912.17
703.91	9893.44
704.04	10193.03
704.17	10097.07
704.31	9874.72
704.44	9902.81
704.57	9895.78
704.70	9675.77
704.83	9671.09
704.96	9572.79
705.10	9448.74
705.23	9600.88
>>>>>End Processed Spectral Data<<<<<
