SpectraSuite Data File
++++++++++++++++++++++++++++++++++++
Date: Fri Oct 18 13:58:28 GMT-05:00 2013
User: bianchi
Dark Spectrum Present: No
Reference Spectrum Present: No
Number of Sampled Component Spectra: 1
Spectrometers: USB2+H05261
Integration Time (usec): 50000 (USB2+H05261)
Spectra Averaged: 1 (USB2+H05261)
Boxcar Smoothing: 0 (USB2+H05261)
Correct for Electrical Dark: No (USB2+H05261)
Strobe/Lamp Enabled: No (USB2+H05261)
Correct for Detector Non-linearity: No (USB2+H05261)
Correct for Stray Light: No (USB2+H05261)
Number of Pixels in Processed Spectrum: 2048
>>>>>Begin Processed Spectral Data<<<<<
365.73	0.00
365.92	0.00
366.12	0.00
366.32	0.00
366.52	0.00
366.72	0.00
366.91	0.00
367.11	0.00
367.31	0.00
367.51	0.00
367.70	0.00
367.90	0.00
368.10	0.00
368.30	0.00
368.49	0.00
368.69	0.00
368.89	0.00
369.09	0.00
369.28	0.00
369.48	0.00
369.68	0.00
369.87	0.00
370.07	0.00
370.27	0.00
370.47	0.00
370.66	110.01
370.86	142.77
371.06	112.35
371.25	227.03
371.45	198.95
371.65	147.45
371.84	126.39
372.04	187.24
372.24	145.11
372.44	152.13
372.63	205.97
372.83	147.45
373.03	259.80
373.22	152.13
373.42	126.39
373.62	269.16
373.81	194.26
374.01	170.86
374.21	257.46
374.40	238.73
374.60	245.76
374.79	234.05
374.99	224.69
375.19	184.90
375.38	285.55
375.58	273.84
375.78	266.82
375.97	273.84
376.17	266.82
376.37	227.03
376.56	245.76
376.76	259.80
376.95	308.95
377.15	248.10
377.35	283.20
377.54	236.39
377.74	280.86
377.93	236.39
378.13	264.48
378.33	269.16
378.52	236.39
378.72	297.25
378.91	285.55
379.11	262.14
379.31	311.29
379.50	318.31
379.70	257.46
379.89	227.03
380.09	290.23
380.28	257.46
380.48	308.95
380.68	285.55
380.87	365.12
381.07	283.20
381.26	322.99
381.46	255.12
381.65	320.65
381.85	304.27
382.04	311.29
382.24	383.85
382.43	346.40
382.63	327.68
382.83	341.72
383.02	388.53
383.22	299.59
383.41	379.17
383.61	341.72
383.80	369.80
384.00	351.08
384.19	337.04
384.39	351.08
384.58	344.06
384.78	379.17
384.97	414.27
385.17	348.74
385.36	365.12
385.56	381.51
385.75	416.62
385.95	449.38
386.14	437.68
386.34	301.93
386.53	339.38
386.72	306.61
386.92	337.04
387.11	407.25
387.31	416.62
387.50	440.02
387.70	411.93
387.89	332.36
388.09	430.66
388.28	437.68
388.48	414.27
388.67	519.60
388.86	386.19
389.06	545.34
389.25	367.46
389.45	430.66
389.64	475.13
389.84	475.13
390.03	496.19
390.22	458.74
390.42	491.51
390.61	496.19
390.81	510.24
391.00	510.24
391.19	482.15
391.39	550.03
391.58	580.45
391.78	514.92
391.97	411.93
392.16	500.87
392.36	580.45
392.55	526.62
392.75	545.34
392.94	575.77
393.13	517.26
393.33	493.85
393.52	526.62
393.71	603.86
393.91	622.58
394.10	517.26
394.29	587.47
394.49	484.49
394.68	592.16
394.88	585.13
395.07	575.77
395.26	564.07
395.46	648.33
395.65	589.82
395.84	620.24
396.04	706.84
396.23	594.50
396.42	601.52
396.62	540.66
396.81	608.54
397.00	634.29
397.19	610.88
397.39	589.82
397.58	578.11
397.77	667.05
397.97	725.57
398.16	641.31
398.35	681.10
398.55	709.18
398.74	758.33
398.93	774.72
399.12	704.50
399.32	734.93
399.51	641.31
399.70	681.10
399.90	697.48
400.09	631.94
400.28	772.38
400.47	734.93
400.67	821.53
400.86	748.97
401.05	807.48
401.24	809.83
401.44	788.76
401.63	732.59
401.82	863.66
402.01	767.70
402.21	770.04
402.40	875.36
402.59	767.70
402.78	793.44
402.97	851.96
403.17	788.76
403.36	854.30
403.55	861.32
403.74	891.74
403.93	791.10
404.13	873.02
404.32	870.68
404.51	880.04
404.70	959.62
404.89	950.26
405.09	875.36
405.28	884.72
405.47	1029.84
405.66	1029.84
405.85	870.68
406.05	894.08
406.24	997.07
406.43	990.05
406.62	1041.54
406.81	1069.62
407.00	961.96
407.20	931.53
407.39	1015.79
407.58	1067.28
407.77	964.30
407.96	1090.69
408.15	1118.78
408.34	1041.54
408.54	1135.16
408.73	1146.86
408.92	1086.01
409.11	1116.44
409.30	1114.10
409.49	1104.73
409.68	1144.52
409.87	1188.99
410.07	1142.18
410.26	1177.29
410.45	1249.85
410.64	1128.14
410.83	1177.29
411.02	1221.76
411.21	1252.19
411.40	1198.35
411.59	1270.91
411.78	1315.38
411.98	1210.06
412.17	1247.51
412.36	1350.49
412.55	1357.51
412.74	1313.04
412.93	1359.85
413.12	1362.19
413.31	1413.68
413.50	1322.40
413.69	1331.76
413.88	1481.56
414.07	1504.96
414.26	1451.13
414.45	1350.49
414.64	1371.55
414.83	1336.45
415.02	1511.99
415.22	1509.65
415.41	1486.24
415.60	1598.59
415.79	1591.56
415.98	1614.97
416.17	1612.63
416.36	1568.16
416.55	1598.59
416.74	1673.48
416.93	1614.97
417.12	1680.50
417.31	1666.46
417.50	1727.32
417.69	1755.40
417.88	1722.63
418.07	1734.34
418.26	1689.87
418.45	1769.44
418.64	1771.79
418.83	1820.94
419.02	1799.87
419.21	1755.40
419.39	1788.17
419.58	1764.76
419.77	1776.47
419.96	1900.52
420.15	1905.20
420.34	1839.66
420.53	1837.32
420.72	1844.34
420.91	1774.13
421.10	1870.09
421.29	1961.37
421.48	1827.96
421.67	1952.01
421.86	1991.80
422.05	2057.33
422.24	1844.34
422.43	1905.20
422.61	1928.60
422.80	2008.18
422.99	2047.97
423.18	2085.42
423.37	2073.71
423.56	2017.54
423.75	2050.31
423.94	1982.43
424.13	2040.95
424.32	1959.03
424.50	2036.27
424.69	2033.93
424.88	2059.67
425.07	2043.29
425.26	1942.64
425.45	2003.50
425.64	2080.74
425.83	2120.53
426.01	2141.59
426.20	2031.58
426.39	2036.27
426.58	2104.14
426.77	2064.35
426.96	2031.58
427.15	2045.63
427.33	2080.74
427.52	2001.16
427.71	2146.27
427.90	2017.54
428.09	2272.66
428.28	2176.70
428.46	2253.94
428.65	2172.02
428.84	2258.62
429.03	2197.76
429.22	2129.89
429.40	2235.21
429.59	2279.68
429.78	2211.81
429.97	2202.44
430.16	2120.53
430.34	2431.82
430.53	2450.54
430.72	2270.32
430.91	2228.19
431.10	2300.75
431.28	2270.32
431.47	2464.58
431.66	2359.26
431.85	2415.43
432.03	2361.60
432.22	2392.03
432.41	2300.75
432.60	2555.86
432.79	2363.94
432.97	2401.39
433.16	2530.12
433.35	2448.20
433.54	2497.35
433.72	2572.25
433.91	2473.95
434.10	2553.52
434.28	2497.35
434.47	2513.74
434.66	2495.01
434.85	2574.59
435.03	2633.10
435.22	2558.21
435.41	2700.98
435.59	2597.99
435.78	2572.25
435.97	2640.12
436.16	2644.81
436.34	2808.64
436.53	2661.19
436.72	2764.17
436.90	2693.96
437.09	2736.09
437.28	2724.38
437.46	2605.02
437.65	2708.00
437.84	2806.30
438.02	2773.53
438.21	2740.77
438.40	2736.09
438.58	2935.03
438.77	2888.22
438.96	2869.50
439.14	2923.33
439.33	2871.84
439.52	2928.01
439.70	3052.06
439.89	2995.89
440.08	2888.22
440.26	2937.37
440.45	3077.80
440.63	2965.46
440.82	3220.58
441.01	3194.83
441.19	3133.98
441.38	3295.47
441.57	3227.60
441.75	3166.74
441.94	3201.85
442.12	3183.13
442.31	3295.47
442.50	3269.73
442.68	3426.54
442.87	3283.77
443.05	3368.03
443.24	3323.56
443.43	3258.03
443.61	3379.73
443.80	3555.27
443.98	3386.76
444.17	3251.00
444.35	3246.32
444.54	3447.61
444.73	3510.80
444.91	3346.97
445.10	3463.99
445.28	3321.22
445.47	3405.48
445.65	3517.83
445.84	3449.95
446.02	3515.48
446.21	3492.08
446.39	3370.37
446.58	3576.34
446.77	3576.34
446.95	3396.12
447.14	3386.76
447.32	3618.47
447.51	3538.89
447.69	3475.70
447.88	3478.04
448.06	3557.61
448.25	3482.72
448.43	3492.08
448.62	3503.78
448.80	3599.74
448.99	3506.12
449.17	3604.42
449.36	3662.94
449.54	3515.48
449.73	3597.40
449.91	3644.21
450.10	3632.51
450.28	3782.31
450.46	3618.47
450.65	3681.66
450.83	3726.13
451.02	3712.09
451.20	3765.92
451.39	3775.28
451.57	3644.21
451.76	3810.39
451.94	3735.50
452.13	3875.93
452.31	4046.79
452.49	3878.27
452.68	3822.09
452.86	3920.40
453.05	3859.54
453.23	3847.84
453.42	3805.71
453.60	3861.88
453.78	3974.23
453.97	3889.97
454.15	3920.40
454.34	3857.20
454.52	4095.94
454.70	4025.72
454.89	3962.53
455.07	3955.51
455.26	4079.55
455.44	4079.55
455.62	4063.17
455.81	4100.62
455.99	4154.45
456.17	4044.45
456.36	4196.58
456.54	4210.62
456.73	4187.22
456.91	4219.99
457.09	4332.33
457.28	4369.78
457.46	4250.41
457.64	4241.05
457.83	4442.34
458.01	4252.75
458.19	4393.19
458.38	4322.97
458.56	4402.55
458.74	4521.92
458.93	4397.87
459.11	4557.02
459.29	4409.57
459.48	4531.28
459.66	4528.94
459.84	4500.85
460.03	4372.12
460.21	4437.66
460.39	4465.74
460.57	4344.03
460.76	4568.73
460.94	4496.17
461.12	4631.92
461.31	4486.81
461.49	4568.73
461.67	4648.30
461.85	4594.47
462.04	4648.30
462.22	4767.67
462.40	4723.20
462.59	4734.90
462.77	4704.48
462.95	4767.67
463.13	4940.87
463.32	4826.18
463.50	4753.63
463.68	4765.33
463.86	4751.29
464.05	4830.87
464.23	4833.21
464.41	4802.78
464.59	4730.22
464.78	5020.45
464.96	4975.98
465.14	4844.91
465.32	4987.68
465.50	4947.89
465.69	4966.62
465.87	4910.44
466.05	4940.87
466.23	4971.30
466.41	5015.77
466.60	5296.63
466.78	5055.56
466.96	5043.85
467.14	5123.43
467.32	5060.24
467.51	5083.64
467.69	4924.49
467.87	5158.54
468.05	5116.41
468.23	5069.60
468.41	5135.14
468.60	5210.03
468.78	5254.50
468.96	5095.35
469.14	4954.91
469.32	5308.34
469.50	5149.18
469.69	5235.78
469.87	5392.59
470.05	5430.04
470.23	5397.28
470.41	5380.89
470.59	5284.93
470.77	5294.29
470.95	5294.29
471.14	5533.03
471.32	5563.45
471.50	5514.30
471.68	5502.60
471.86	5631.33
472.04	5554.09
472.22	5696.86
472.40	5734.31
472.58	5757.72
472.77	5776.44
472.95	5771.76
473.13	5872.40
473.31	5802.19
473.49	5841.98
473.67	5774.10
473.85	5973.05
474.03	5954.32
474.21	5937.94
474.39	6061.99
474.57	6106.46
474.75	6080.71
474.93	6085.39
475.12	6087.73
475.30	6270.30
475.48	6136.88
475.66	6267.95
475.84	6148.59
476.02	6216.46
476.20	6263.27
476.38	6218.80
476.56	6377.96
476.74	6600.31
476.92	6342.85
477.10	6494.99
477.28	6661.16
477.46	6698.61
477.64	6691.59
477.82	6616.69
478.00	6930.33
478.18	6911.60
478.36	6960.75
478.54	6939.69
478.72	7108.21
478.90	7061.40
479.08	7211.19
479.26	7466.31
479.44	7173.74
479.62	7140.97
479.80	7290.77
479.98	7225.23
480.16	7382.05
480.34	7414.82
480.52	7588.02
480.70	7489.71
480.88	7468.65
481.06	7679.30
481.24	7723.77
481.41	7620.78
481.59	7826.75
481.77	7943.78
481.95	7962.50
482.13	8079.53
482.31	7967.18
482.49	8250.39
482.67	8042.08
482.85	8250.39
483.03	8442.31
483.21	8402.52
483.39	8360.39
483.57	8475.08
483.74	8528.91
483.92	8734.88
484.10	8652.96
484.28	9018.08
484.46	9146.81
484.64	9163.20
484.82	8959.57
485.00	8884.67
485.18	9242.78
485.35	9493.21
485.53	9270.86
485.71	9408.95
485.89	9661.73
486.07	9687.48
486.25	9488.53
486.43	9689.82
486.61	9638.33
486.78	9769.40
486.96	9699.18
487.14	10001.11
487.32	9963.66
487.50	10057.28
487.68	10303.04
487.85	10164.95
488.03	10286.65
488.21	10490.28
488.39	10413.04
488.57	10752.42
488.75	10541.77
488.92	10930.30
489.10	10803.91
489.28	10813.28
489.46	11211.17
489.64	10817.96
489.81	11222.87
489.99	11180.74
490.17	11323.51
490.35	11466.28
490.53	11225.21
490.70	11515.44
490.88	11580.97
491.06	11805.66
491.24	11520.12
491.41	11887.58
491.59	11878.22
491.77	11864.18
491.95	12182.49
492.13	12152.06
492.30	12318.24
492.48	12163.76
492.66	12119.29
492.84	12229.30
493.01	12409.52
493.19	12418.88
493.37	12671.66
493.54	12765.28
493.72	12531.23
493.90	12863.58
494.08	12833.16
494.25	12996.99
494.43	13193.60
494.61	13043.81
494.79	13252.11
494.96	13207.64
495.14	13504.89
495.32	13540.00
495.49	13495.53
495.67	13612.56
495.85	13755.33
496.02	13830.23
496.20	13905.12
496.38	13970.66
496.55	14033.85
496.73	14286.63
496.91	13919.17
497.09	14291.31
497.26	14197.69
497.44	14031.51
497.62	14305.35
497.79	14450.47
497.97	14200.03
498.14	14745.38
498.32	14736.01
498.50	14618.99
498.67	14899.85
498.85	14881.13
499.03	14876.44
499.20	14717.29
499.38	14958.36
499.56	15241.57
499.73	15159.65
499.91	15236.89
500.08	15307.10
500.26	15201.78
500.44	15454.56
500.61	15520.09
500.79	15604.35
500.97	15613.71
501.14	15927.35
501.32	15826.70
501.49	15653.50
501.67	15765.85
501.84	15777.55
502.02	15812.66
502.20	16201.19
502.37	16027.99
502.55	16102.89
502.72	16123.95
502.90	16030.33
503.07	16116.93
503.25	16449.28
503.43	16035.01
503.60	16217.57
503.78	16587.38
503.95	16692.70
504.13	16463.33
504.30	16404.81
504.48	16238.64
504.65	16559.29
504.83	16957.18
505.01	16922.07
505.18	16762.92
505.36	17130.38
505.53	16940.80
505.71	17128.04
505.88	17043.78
506.06	17029.74
506.23	17235.70
506.41	17256.77
506.58	17444.01
506.76	17212.30
506.93	17521.25
507.11	17490.82
507.28	17352.73
507.46	17689.77
507.63	17621.89
507.81	17886.37
507.98	17528.27
508.16	17797.43
508.33	17832.54
508.50	17851.27
508.68	17853.61
508.85	17804.46
509.03	17825.52
509.20	18146.17
509.38	18352.14
509.55	18148.51
509.73	18253.84
509.90	18352.14
510.08	18326.39
510.25	18450.44
510.42	18780.46
510.60	18469.17
510.77	18391.93
510.95	18735.99
511.12	18586.19
511.30	18618.96
511.47	18822.59
511.64	18876.42
511.82	19115.16
511.99	18906.85
512.17	19082.39
512.34	19000.47
512.51	18984.09
512.69	19232.18
512.86	18937.27
513.04	19201.76
513.21	19218.14
513.38	19548.15
513.56	19452.19
513.73	19737.74
513.90	19288.35
514.08	19281.33
514.25	19651.14
514.43	19609.01
514.60	19625.39
514.77	19721.35
514.95	19695.61
515.12	19599.65
515.29	19695.61
515.47	19924.98
515.64	20009.24
515.81	20077.12
515.99	20109.88
516.16	20152.01
516.33	19999.88
516.51	20276.06
516.68	19995.20
516.85	20210.53
517.03	20259.68
517.20	20430.54
517.37	20613.10
517.54	20421.17
517.72	20428.20
517.89	20451.60
518.06	20650.55
518.24	20615.44
518.41	20486.71
518.58	20568.63
518.75	20746.51
518.93	20718.42
519.10	20657.57
519.27	20978.22
519.45	21132.70
519.62	21085.89
519.79	21071.84
519.96	21071.84
520.14	21181.85
520.31	21191.21
520.48	21341.00
520.65	21198.23
520.83	21247.38
521.00	21139.72
521.17	21310.58
521.34	21289.51
521.52	21504.84
521.69	21467.39
521.86	21722.51
522.03	21469.73
522.20	21504.84
522.38	21844.22
522.55	21429.94
522.72	21804.43
522.89	21748.26
523.07	22246.79
523.24	21888.69
523.41	22008.06
523.58	21790.39
523.75	22061.89
523.92	22024.44
524.10	22251.47
524.27	21942.52
524.44	22485.53
524.61	22389.56
524.78	22272.54
524.96	22380.20
525.13	22359.14
525.30	22733.62
525.47	22595.53
525.64	22537.02
525.81	22773.41
525.98	22780.43
526.16	22644.68
526.33	22672.77
526.50	22775.75
526.67	22820.22
526.84	22759.37
527.01	22803.84
527.18	22834.27
527.36	22817.88
527.53	22979.38
527.70	23264.92
527.87	22965.34
528.04	23075.34
528.21	23307.05
528.38	23110.45
528.55	23421.74
528.72	22925.55
528.89	23211.09
529.07	23431.10
529.24	23342.16
529.41	23431.10
529.58	23398.34
529.75	23531.75
529.92	23431.10
530.09	23527.06
530.26	23314.08
530.43	23728.35
530.60	23585.58
530.77	23398.34
530.94	23459.19
531.11	23503.66
531.28	23569.19
531.46	23662.82
531.63	23510.68
531.80	24086.45
531.97	24072.41
532.14	24224.54
532.31	23730.69
532.48	23931.98
532.65	24056.03
532.82	23990.49
532.99	24020.92
533.16	24056.03
533.33	24156.67
533.50	24641.16
533.67	24346.25
533.84	23992.83
534.01	24084.11
534.18	24247.95
534.35	24451.58
534.52	24477.32
534.69	24500.73
534.86	24592.01
535.03	24465.62
535.20	24467.96
535.37	24662.22
535.54	24519.45
535.71	24643.50
535.88	24793.29
536.05	24746.48
536.22	24915.00
536.38	24723.08
536.55	24620.10
536.72	25010.96
536.89	24645.84
537.06	24767.55
537.23	25216.93
537.40	25069.48
537.57	25233.32
537.74	25146.72
537.91	25123.31
538.08	25123.31
538.25	24856.49
538.42	25125.65
538.59	25104.59
538.75	25102.25
538.92	24996.92
539.09	25378.43
539.26	25177.14
539.43	25532.90
539.60	25591.42
539.77	25291.83
539.94	25490.77
540.11	25411.20
540.28	25434.60
540.44	25556.31
540.61	25153.74
540.78	25502.48
540.95	25663.97
541.12	25783.34
541.29	25785.68
541.46	25710.78
541.62	25467.37
541.79	25788.02
541.96	25256.72
542.13	25495.46
542.30	25565.67
542.47	26038.46
542.63	25671.00
542.80	26125.06
542.97	26579.12
543.14	26155.49
543.31	25811.43
543.48	26005.69
543.64	26153.15
543.81	26574.44
543.98	26171.87
544.15	26246.77
544.32	26693.81
544.48	26782.75
544.65	26534.65
544.82	26518.27
544.99	26181.23
545.16	26223.36
545.32	26623.59
545.49	26761.69
545.66	26632.96
545.83	26731.26
546.00	26939.57
546.16	26675.09
546.33	26719.56
546.50	26274.85
546.67	26600.19
546.83	26576.78
547.00	26768.71
547.17	26628.27
547.34	26728.92
547.50	26630.62
547.67	27325.75
547.84	26806.16
548.00	26974.67
548.17	27108.08
548.34	27115.11
548.51	27316.39
548.67	27267.24
548.84	26817.86
549.01	26768.71
549.18	27035.53
549.34	27112.77
549.51	26904.46
549.68	27248.52
549.84	27391.29
550.01	27129.15
550.18	26927.86
550.34	27204.05
550.51	27295.33
550.68	27358.52
550.84	26995.74
551.01	27307.03
551.18	27379.59
551.34	27002.76
551.51	27133.83
551.68	27398.31
551.84	27775.14
552.01	27515.34
552.18	27302.35
552.34	27515.34
552.51	27445.12
552.68	27412.35
552.84	27606.62
553.01	27814.93
553.18	27435.76
553.34	27580.87
553.51	27328.10
553.67	27552.79
553.84	27950.68
554.01	27894.50
554.17	27569.17
554.34	27728.33
554.51	27927.27
554.67	27934.29
554.84	27688.54
555.00	27807.90
555.17	28027.92
555.33	27878.12
555.50	27960.04
555.67	27901.53
555.83	28301.76
556.00	27826.63
556.16	27964.72
556.33	27955.36
556.50	28189.41
556.66	28650.50
556.83	28027.92
556.99	28254.95
557.16	28381.34
557.32	28219.84
557.49	28091.11
557.65	27948.34
557.82	28175.37
557.98	28472.62
558.15	28519.43
558.32	28393.04
558.48	28306.44
558.65	28603.69
558.81	28325.16
558.98	28161.33
559.14	28528.79
559.31	28362.61
559.47	28374.31
559.64	28320.48
559.80	28383.68
559.97	28510.07
560.13	28397.72
560.30	28510.07
560.46	28334.53
560.63	28652.84
560.79	28481.98
560.96	28615.39
561.12	28379.00
561.29	28374.31
561.45	28503.04
561.61	28716.03
561.78	28800.29
561.94	28678.58
562.11	28540.49
562.27	28793.27
562.44	28673.90
562.60	28500.70
562.77	29053.07
562.93	28760.50
563.10	28854.12
563.26	28706.67
563.42	29326.91
563.59	28814.34
563.75	29034.35
563.92	28716.03
564.08	28847.10
564.24	29202.86
564.41	28561.56
564.57	28973.49
564.74	28868.17
564.90	29097.54
565.07	29118.60
565.23	28978.17
565.39	29106.90
565.56	29200.52
565.72	29095.20
565.88	29174.78
566.05	29104.56
566.21	29312.87
566.38	28790.93
566.54	28947.75
566.70	29125.63
566.87	28893.91
567.03	28819.02
567.19	29310.53
567.36	29493.09
567.52	29256.70
567.68	29226.27
567.85	29076.48
568.01	29060.09
568.17	29053.07
568.34	29165.42
568.50	29022.64
568.66	29167.76
568.83	29448.62
568.99	29413.51
569.15	29163.08
569.32	29202.86
569.48	28975.83
569.64	29308.19
569.81	29397.13
569.97	29237.97
570.13	29439.26
570.30	29352.66
570.46	29387.77
570.62	28933.70
570.78	29153.71
570.95	29275.42
571.11	29441.60
571.27	28973.49
571.43	29137.33
571.60	29474.37
571.76	29046.05
571.92	28966.47
572.09	29268.40
572.25	29600.76
572.41	29790.34
572.57	29654.59
572.74	29081.16
572.90	28898.59
573.06	29092.86
573.22	29448.62
573.38	29352.66
573.55	29069.45
573.71	29472.03
573.87	29619.48
574.03	29134.99
574.20	29483.73
574.36	29558.63
574.52	29474.37
574.68	29259.04
574.84	29570.33
575.01	29432.24
575.17	29350.32
575.33	29645.23
575.49	29163.08
575.65	29338.62
575.82	29708.42
575.98	29436.92
576.14	29825.45
576.30	29795.02
576.46	29481.39
576.62	29347.98
576.79	29273.08
576.95	29233.29
577.11	29195.84
577.27	29474.37
577.43	29441.60
577.59	29427.56
577.75	29654.59
577.92	29476.71
578.08	29530.54
578.24	29439.26
578.40	29666.29
578.56	29542.24
578.72	29362.02
578.88	29722.46
579.04	29420.53
579.21	29287.12
579.37	29788.00
579.53	29696.72
579.69	29158.39
579.85	29518.84
580.01	29663.95
580.17	29350.32
580.33	29553.94
580.49	29521.18
580.65	30038.44
580.82	29797.36
580.98	29912.05
581.14	29366.70
581.30	29699.06
581.46	29640.54
581.62	29420.53
581.78	29081.16
581.94	29549.26
582.10	29670.97
582.26	29476.71
582.42	29600.76
582.58	29778.64
582.74	29811.40
582.90	29668.63
583.06	29443.94
583.22	29752.89
583.38	29827.79
583.54	29614.80
583.70	29228.61
583.86	29820.77
584.02	29792.68
584.18	29806.72
584.34	29886.30
584.50	29486.07
584.66	29898.00
584.82	29450.96
584.98	29647.57
585.14	29696.72
585.30	29553.94
585.46	29364.36
585.62	29544.58
585.78	29802.04
585.94	29460.32
586.10	29776.30
586.26	29593.73
586.42	29942.47
586.58	29998.65
586.74	29769.27
586.90	29788.00
587.06	29668.63
587.22	29598.41
587.38	29972.90
587.54	30110.99
587.70	29895.66
587.86	29455.64
588.02	29617.14
588.18	30277.17
588.34	30031.41
588.49	30108.65
588.65	29872.26
588.81	29811.40
588.97	29986.94
589.13	29883.96
589.29	29748.21
589.45	29816.08
589.61	29977.58
589.77	30080.56
589.93	30195.25
590.08	29921.41
590.24	30457.39
590.40	29923.75
590.56	30134.40
590.72	29989.28
590.88	29575.01
591.04	29909.71
591.20	30005.67
591.35	30003.33
591.51	30157.80
591.67	30569.74
591.83	30040.78
591.99	30417.60
592.15	29699.06
592.31	30033.75
592.46	29668.63
592.62	29998.65
592.78	29895.66
592.94	29867.58
593.10	30120.35
593.26	30473.78
593.41	30632.93
593.57	29795.02
593.73	30216.32
593.89	30492.50
594.05	30192.91
594.20	29926.09
594.36	30057.16
594.52	30029.07
594.68	29846.51
594.84	30160.14
594.99	30515.90
595.15	30003.33
595.31	30340.36
595.47	30457.39
595.62	30576.76
595.78	30092.27
595.94	30326.32
596.10	30218.66
596.25	30277.17
596.41	30176.53
596.57	29766.93
596.73	30305.26
596.88	30209.29
597.04	30651.66
597.20	30377.81
597.36	30181.21
597.51	30361.43
597.67	30448.03
597.83	30129.72
597.99	30684.42
598.14	30455.05
598.30	29965.88
598.46	30026.73
598.61	30415.26
598.77	29806.72
598.93	30345.05
599.09	30033.75
599.24	30436.33
599.40	30464.41
599.56	30377.81
599.71	30253.76
599.87	30225.68
600.03	30298.23
600.18	30546.33
600.34	30057.16
600.50	30527.61
600.65	30323.98
600.81	30597.82
600.97	30370.79
601.12	30433.99
601.28	30499.52
601.44	30508.88
601.59	30850.60
601.75	30265.47
601.91	30703.15
602.06	30515.90
602.22	30087.59
602.37	30204.61
602.53	30536.97
602.69	30040.78
602.84	30277.17
603.00	30581.44
603.16	30487.82
603.31	30312.28
603.47	30415.26
603.62	30419.94
603.78	30340.36
603.94	30192.91
604.09	30328.66
604.25	30253.76
604.40	30223.34
604.56	30197.59
604.71	30279.51
604.87	30464.41
605.03	30483.14
605.18	30401.22
605.34	30183.55
605.49	30022.05
605.65	30375.47
605.80	30061.84
605.96	30188.23
606.12	30085.25
606.27	30377.81
606.43	30167.16
606.58	30347.39
606.74	30169.51
606.89	30492.50
607.05	30363.77
607.20	30380.15
607.36	30298.23
607.51	30721.87
607.67	30075.88
607.82	29844.17
607.98	30448.03
608.13	30045.46
608.29	30204.61
608.44	30265.47
608.60	29881.62
608.75	30103.97
608.91	30150.78
609.06	29965.88
609.22	29972.90
609.37	29439.26
609.53	29947.15
609.68	29905.02
609.84	30015.03
609.99	30150.78
610.15	29951.84
610.30	29944.81
610.46	29773.95
610.61	30038.44
610.76	30162.48
610.92	29743.53
611.07	29820.77
611.23	29813.74
611.38	29802.04
611.54	29902.68
611.69	29745.87
611.84	29551.60
612.00	30216.32
612.15	29912.05
612.31	29886.30
612.46	29511.81
612.62	30235.04
612.77	30129.72
612.92	29923.75
613.08	29827.79
613.23	29673.31
613.39	29977.58
613.54	30005.67
613.69	29802.04
613.85	29500.11
614.00	29546.92
614.15	29563.31
614.31	29575.01
614.46	30230.36
614.62	29521.18
614.77	30066.52
614.92	29741.19
615.08	29713.10
615.23	29567.99
615.38	29624.16
615.54	29727.14
615.69	29443.94
615.84	29446.28
616.00	29312.87
616.15	29273.08
616.30	29474.37
616.46	29467.34
616.61	29780.98
616.76	29677.99
616.92	29514.16
617.07	28879.87
617.22	29455.64
617.37	28980.51
617.53	29467.34
617.68	29369.04
617.83	29130.31
617.99	29383.09
618.14	29071.79
618.29	29439.26
618.45	29195.84
618.60	29249.67
618.75	29230.95
618.90	29558.63
619.06	29132.65
619.21	29146.69
619.36	29146.69
619.51	29015.62
619.67	29010.94
619.82	29230.95
619.97	29160.73
620.12	28943.06
620.28	28837.74
620.43	29062.43
620.58	29380.74
620.73	29359.68
620.89	28971.15
621.04	29134.99
621.19	29172.44
621.34	29088.18
621.49	28814.34
621.65	28823.70
621.80	29123.29
621.95	28662.20
622.10	29167.76
622.25	28882.21
622.41	29125.63
622.56	28751.14
622.71	28943.06
622.86	28903.28
623.01	29041.37
623.16	28795.61
623.32	29078.82
623.47	28699.65
623.62	28900.94
623.77	28620.07
623.92	28907.96
624.07	28631.77
624.23	28751.14
624.38	28751.14
624.53	28606.03
624.68	29043.71
624.83	29097.54
624.98	29081.16
625.13	28589.64
625.29	28821.36
625.44	28643.48
625.59	28435.17
625.74	28437.51
625.89	28512.41
626.04	28315.80
626.19	28732.42
626.34	28278.35
626.49	28065.36
626.65	28531.13
626.80	28748.80
626.95	28638.80
627.10	28360.27
627.25	28540.49
627.40	28079.41
627.55	28308.78
627.70	28386.02
627.85	28229.20
628.00	28102.81
628.15	28151.96
628.30	27950.68
628.45	28170.69
628.60	28409.42
628.76	28362.61
628.91	28643.48
629.06	28116.86
629.21	27807.90
629.36	28245.58
629.51	27943.66
629.66	28023.23
629.81	27721.30
629.96	28168.35
630.11	27667.47
630.26	27655.77
630.41	27988.13
630.56	27611.30
630.71	27702.58
630.86	27887.48
631.01	27777.48
631.16	27913.23
631.31	27988.13
631.46	27749.39
631.61	28259.63
631.76	27892.16
631.91	27835.99
632.06	27810.25
632.21	27393.63
632.36	27632.36
632.51	27564.49
632.66	27770.46
632.81	27410.01
632.96	27358.52
633.10	27955.36
633.25	27817.27
633.40	27725.99
633.55	27613.64
633.70	27475.55
633.85	27552.79
634.00	27417.04
634.15	27419.38
634.30	27395.97
634.45	27438.10
634.60	27435.76
634.75	27419.38
634.90	27005.10
635.05	27737.69
635.19	27339.80
635.34	27524.70
635.49	27496.61
635.64	27424.06
635.79	27384.27
635.94	27775.14
636.09	27445.12
636.24	26937.23
636.39	27402.99
636.53	27292.99
636.68	26885.73
636.83	26871.69
636.98	27182.98
637.13	27424.06
637.28	27517.68
637.43	27456.82
637.57	27541.08
637.72	26941.91
637.87	26981.70
638.02	27358.52
638.17	26962.97
638.32	26953.61
638.46	26757.00
638.61	26799.13
638.76	26728.92
638.91	26757.00
639.06	27138.51
639.20	27030.85
639.35	26696.15
639.50	26801.47
639.65	27152.55
639.80	27002.76
639.94	26829.56
640.09	26944.25
640.24	27129.15
640.39	26483.16
640.54	26838.92
640.68	26604.87
640.83	26628.27
640.98	26328.69
641.13	26235.06
641.27	26483.16
641.42	26419.97
641.57	26436.35
641.72	27187.66
641.86	26661.04
642.01	26462.10
642.16	26621.25
642.31	26658.70
642.45	26532.31
642.60	26473.80
642.75	26022.08
642.90	26363.79
643.04	26284.22
643.19	26211.66
643.34	26604.87
643.48	26328.69
643.63	26511.25
643.78	26686.79
643.93	26527.63
644.07	26974.67
644.22	26649.34
644.37	26377.84
644.51	26253.79
644.66	26424.65
644.81	26202.30
644.95	26064.21
645.10	26401.24
645.25	26073.57
645.39	26333.37
645.54	26162.51
645.69	26349.75
645.83	26096.97
645.98	26363.79
646.13	26174.21
646.27	26281.88
646.42	26419.97
646.57	26244.43
646.71	25858.24
646.86	25944.84
647.00	26122.72
647.15	26113.36
647.30	26024.42
647.44	26108.68
647.59	25818.45
647.74	26167.19
647.88	26073.57
648.03	26169.53
648.17	25900.37
648.32	26092.29
648.47	26071.23
648.61	25795.04
648.76	26057.18
648.90	26087.61
649.05	25954.20
649.20	25624.18
649.34	25865.26
649.49	25694.40
649.63	25874.62
649.78	25874.62
649.92	25436.94
650.07	25926.11
650.21	25818.45
650.36	25837.17
650.51	25436.94
650.65	25558.65
650.80	26040.80
650.94	25497.80
651.09	25521.20
651.23	25708.44
651.38	25675.68
651.52	25748.23
651.67	25465.03
651.81	25565.67
651.96	25614.82
652.10	25638.23
652.25	25645.25
652.39	25549.29
652.54	25741.21
652.68	25509.50
652.83	25252.04
652.97	25902.71
653.12	25706.10
653.26	25029.69
653.41	25734.19
653.55	25315.23
653.70	25378.43
653.84	25249.70
653.99	25167.78
654.13	25102.25
654.27	25429.92
654.42	25404.17
654.56	25137.35
654.71	25502.48
654.85	25387.79
655.00	25607.80
655.14	25074.16
655.29	24893.94
655.43	25483.75
655.57	25081.18
655.72	25209.91
655.86	25270.76
656.01	25357.36
656.15	25245.02
656.30	25312.89
656.44	24903.30
656.58	25095.22
656.73	25125.65
656.87	24922.02
657.01	24861.17
657.16	24989.90
657.30	25301.19
657.45	25015.65
657.59	25156.08
657.73	24737.12
657.88	25006.28
658.02	24950.11
658.16	24734.78
658.31	24903.30
658.45	24830.74
658.60	24582.65
658.74	24273.70
658.88	24943.09
659.03	24423.49
659.17	24760.53
659.31	24561.58
659.46	24760.53
659.60	25025.01
659.74	25017.99
659.89	24659.88
660.03	24631.80
660.17	24411.79
660.32	24318.17
660.46	24659.88
660.60	24081.77
660.74	24346.25
660.89	24325.19
661.03	24229.23
661.17	24446.90
661.32	24088.79
661.46	24496.05
661.60	24210.50
661.74	24486.68
661.89	24458.60
662.03	24215.18
662.17	24102.84
662.31	24137.94
662.46	24135.60
662.60	24086.45
662.74	23899.21
662.88	23868.78
663.03	23587.92
663.17	23763.46
663.31	23630.05
663.45	23601.96
663.60	23475.57
663.74	23407.70
663.88	23644.09
664.02	23871.12
664.17	23737.71
664.31	23255.56
664.45	23697.92
664.59	23417.06
664.73	23676.86
664.88	23410.04
665.02	22752.35
665.16	23229.82
665.30	23426.42
665.44	23236.84
665.59	23061.30
665.73	23117.47
665.87	23232.16
666.01	23227.48
666.15	23302.37
666.29	23290.67
666.44	23147.90
666.58	22766.39
666.72	23049.60
666.86	23005.13
667.00	23145.56
667.14	22902.14
667.28	22878.74
667.43	22754.69
667.57	22745.33
667.71	22665.75
667.85	22920.87
667.99	22665.75
668.13	22764.05
668.27	22459.78
668.41	22731.28
668.56	22925.55
668.70	22822.56
668.84	22771.07
668.98	22771.07
669.12	22731.28
669.26	22988.74
669.40	22204.66
669.54	22621.28
669.68	22258.49
669.82	22239.77
669.96	22349.78
670.10	22169.55
670.25	22211.68
670.39	22064.23
670.53	22298.28
670.67	21895.71
670.81	22284.24
670.95	21921.46
671.09	22143.81
671.23	21930.82
671.37	21986.99
671.51	21872.31
671.65	22054.87
671.79	22003.38
671.93	21734.21
672.07	22225.73
672.21	21638.25
672.35	21472.07
672.49	21378.45
672.63	21570.38
672.77	21446.33
672.91	21411.22
673.05	21326.96
673.19	21413.56
673.33	21179.51
673.47	21266.11
673.61	21331.64
673.75	21443.99
673.89	21062.48
674.03	21095.25
674.17	21153.76
674.31	21078.86
674.45	21205.25
674.59	21184.19
674.73	21263.77
674.87	20994.61
675.01	20968.86
675.15	20678.63
675.29	20774.60
675.43	20945.45
675.56	20755.87
675.70	20814.38
675.84	20800.34
675.98	20362.66
676.12	20751.19
676.26	21090.57
676.40	20458.62
676.54	20250.32
676.68	20519.48
676.82	20217.55
676.96	20262.02
677.10	20013.92
677.23	20084.14
677.37	19962.43
677.51	20154.35
677.65	19939.02
677.79	19754.12
677.93	20046.69
678.07	19672.20
678.21	19421.77
678.34	19754.12
678.48	19630.07
678.62	19693.27
678.76	19487.30
678.90	19470.92
679.04	19176.01
679.18	19414.74
679.31	19044.94
679.45	18960.68
679.59	19136.22
679.73	19089.41
679.87	18986.43
680.00	18637.69
680.14	18803.86
680.28	18881.10
680.42	19171.33
680.56	18827.27
680.70	18471.51
680.83	18731.31
680.97	18436.40
681.11	18897.49
681.25	18471.51
681.39	18539.38
681.52	18497.25
681.66	18295.97
681.80	18333.42
681.94	18277.24
682.07	18436.40
682.21	17869.99
682.35	18075.96
682.49	17965.95
682.62	17734.24
682.76	17949.57
682.90	17853.61
683.04	17682.75
683.17	17877.01
683.31	17788.07
683.45	17741.26
683.59	17944.89
683.72	17336.35
683.86	17497.84
684.00	17668.70
684.13	17472.10
684.27	17334.01
684.41	17343.37
684.55	16987.61
684.68	17186.55
684.82	17099.95
684.96	17081.23
685.09	17334.01
685.23	16847.18
685.37	16915.05
685.50	16978.25
685.64	16905.69
685.78	16823.77
685.91	16889.31
686.05	16786.32
686.19	16856.54
686.32	16585.04
686.46	16245.66
686.60	16278.43
686.73	16383.75
686.87	16442.26
687.01	16060.76
687.14	16166.08
687.28	16222.25
687.42	16077.14
687.55	15990.54
687.69	15978.84
687.82	15599.67
687.96	15840.75
688.10	16056.08
688.23	15950.75
688.37	15864.15
688.50	15789.25
688.64	15557.54
688.78	15632.44
688.91	15611.37
689.05	15730.74
689.18	15463.92
689.32	15136.24
689.46	15234.55
689.59	15290.72
689.73	15288.38
689.86	14888.15
690.00	15016.88
690.13	14897.51
690.27	14855.38
690.41	15176.03
690.54	14871.76
690.68	14963.04
690.81	14700.90
690.95	14906.87
691.08	15220.50
691.22	14998.15
691.35	14696.22
691.49	14679.84
691.62	14445.79
691.76	14406.00
691.89	14167.26
692.03	13923.85
692.16	13937.89
692.30	14047.90
692.43	14218.75
692.57	14033.85
692.70	14225.78
692.84	14040.87
692.97	13991.72
693.11	13928.53
693.24	13984.70
693.38	13965.98
693.51	13973.00
693.65	13776.39
693.78	13568.09
693.92	13816.18
694.05	13600.85
694.19	13352.76
694.32	13493.19
694.45	13411.27
694.59	13479.15
694.72	13289.56
694.86	13205.30
694.99	12915.08
695.13	12964.23
695.26	12912.74
695.39	13149.13
695.53	12865.92
695.66	12999.34
695.80	12877.63
695.93	12779.32
696.07	12894.01
696.20	12901.03
696.33	12868.27
696.47	12585.06
696.60	12592.08
696.73	12463.35
696.87	12498.46
697.00	12510.16
697.14	12449.31
697.27	12145.04
697.40	12196.53
697.54	12276.11
697.67	12131.00
697.80	12081.85
697.94	12112.27
698.07	11988.22
698.21	11899.28
698.34	12051.42
698.47	12037.38
698.61	12046.74
698.74	11660.55
698.87	12142.70
699.01	11770.55
699.14	11566.93
699.27	11653.53
699.40	11695.66
699.54	11665.23
699.67	11508.41
699.80	11297.77
699.94	11257.98
700.07	11377.34
700.20	11211.17
700.34	11229.89
700.47	11218.19
700.60	11145.63
700.73	11300.11
700.87	11103.50
701.00	11080.10
701.13	11101.16
701.26	11030.94
701.40	11110.52
701.53	10752.42
701.66	10878.81
701.79	10773.49
701.93	10736.04
702.06	10551.14
702.19	10525.39
702.32	10560.50
702.46	10326.44
702.59	10520.71
702.72	10410.70
702.85	10143.88
702.99	10087.71
703.12	10200.05
703.25	10286.65
703.38	10174.31
703.51	10300.70
703.65	10413.04
703.78	10129.84
703.91	10122.82
704.04	10176.65
704.17	10195.37
704.31	9879.40
704.44	10001.11
704.57	9689.82
704.70	9841.95
704.83	9607.90
704.96	9628.96
705.10	9734.29
705.23	9612.58
>>>>>End Processed Spectral Data<<<<<
