SpectraSuite Data File
++++++++++++++++++++++++++++++++++++
Date: Fri Oct 18 13:58:27 GMT-05:00 2013
User: bianchi
Dark Spectrum Present: No
Reference Spectrum Present: No
Number of Sampled Component Spectra: 1
Spectrometers: USB2+H05261
Integration Time (usec): 50000 (USB2+H05261)
Spectra Averaged: 1 (USB2+H05261)
Boxcar Smoothing: 0 (USB2+H05261)
Correct for Electrical Dark: No (USB2+H05261)
Strobe/Lamp Enabled: No (USB2+H05261)
Correct for Detector Non-linearity: No (USB2+H05261)
Correct for Stray Light: No (USB2+H05261)
Number of Pixels in Processed Spectrum: 2048
>>>>>Begin Processed Spectral Data<<<<<
365.73	2.34
365.92	2.34
366.12	2.34
366.32	0.00
366.52	0.00
366.72	0.00
366.91	0.00
367.11	0.00
367.31	0.00
367.51	0.00
367.70	0.00
367.90	0.00
368.10	0.00
368.30	0.00
368.49	0.00
368.69	0.00
368.89	0.00
369.09	0.00
369.28	0.00
369.48	0.00
369.68	0.00
369.87	0.00
370.07	0.00
370.27	0.00
370.47	0.00
370.66	105.32
370.86	84.26
371.06	112.35
371.25	191.92
371.45	168.52
371.65	180.22
371.84	105.32
372.04	194.26
372.24	196.60
372.44	175.54
372.63	163.84
372.83	215.33
373.03	173.20
373.22	152.13
373.42	245.76
373.62	156.82
373.81	250.44
374.01	224.69
374.21	184.90
374.40	257.46
374.60	227.03
374.79	182.56
374.99	224.69
375.19	170.86
375.38	231.71
375.58	245.76
375.78	306.61
375.97	257.46
376.17	241.08
376.37	266.82
376.56	229.37
376.76	264.48
376.95	231.71
377.15	196.60
377.35	325.33
377.54	224.69
377.74	294.91
377.93	252.78
378.13	294.91
378.33	252.78
378.52	278.52
378.72	250.44
378.91	337.04
379.11	208.31
379.31	264.48
379.50	220.01
379.70	252.78
379.89	248.10
380.09	278.52
380.28	301.93
380.48	208.31
380.68	259.80
380.87	259.80
381.07	362.78
381.26	341.72
381.46	339.38
381.65	276.18
381.85	456.40
382.04	278.52
382.24	299.59
382.43	320.65
382.63	301.93
382.83	376.83
383.02	304.27
383.22	386.19
383.41	355.76
383.61	348.74
383.80	346.40
384.00	348.74
384.19	407.25
384.39	280.86
384.58	313.63
384.78	411.93
384.97	393.21
385.17	376.83
385.36	390.87
385.56	318.31
385.75	404.91
385.95	379.17
386.14	400.23
386.34	379.17
386.53	454.06
386.72	337.04
386.92	416.62
387.11	468.11
387.31	472.79
387.50	322.99
387.70	447.04
387.89	372.15
388.09	332.36
388.28	456.40
388.48	465.77
388.67	437.68
388.86	456.40
389.06	407.25
389.25	519.60
389.45	407.25
389.64	404.91
389.84	528.96
390.03	451.72
390.22	479.81
390.42	475.13
390.61	498.53
390.81	491.51
391.00	505.56
391.19	519.60
391.39	559.39
391.58	521.94
391.78	535.98
391.97	500.87
392.16	575.77
392.36	540.66
392.55	535.98
392.75	461.09
392.94	514.92
393.13	564.07
393.33	564.07
393.52	498.53
393.71	543.00
393.91	528.96
394.10	554.71
394.29	507.90
394.49	568.75
394.68	603.86
394.88	617.90
395.07	650.67
395.26	627.26
395.46	566.41
395.65	638.97
395.84	629.60
396.04	697.48
396.23	690.46
396.42	716.20
396.62	667.05
396.81	706.84
397.00	550.03
397.19	613.22
397.39	624.92
397.58	559.39
397.77	692.80
397.97	809.83
398.16	613.22
398.35	711.52
398.55	702.16
398.74	678.76
398.93	746.63
399.12	629.60
399.32	683.44
399.51	697.48
399.70	730.25
399.90	786.42
400.09	870.68
400.28	683.44
400.47	723.23
400.67	781.74
400.86	716.20
401.05	753.65
401.24	774.72
401.44	730.25
401.63	858.98
401.82	763.01
402.01	746.63
402.21	851.96
402.40	858.98
402.59	823.87
402.78	805.14
402.97	905.79
403.17	833.23
403.36	870.68
403.55	908.13
403.74	933.87
403.93	873.02
404.13	849.61
404.32	873.02
404.51	908.13
404.70	905.79
404.89	884.72
405.09	1022.81
405.28	950.26
405.47	880.04
405.66	1041.54
405.85	985.37
406.05	964.30
406.24	882.38
406.43	973.66
406.62	1062.60
406.81	1006.43
407.00	931.53
407.20	971.32
407.39	1071.97
407.58	980.68
407.77	1034.52
407.96	1046.22
408.15	940.90
408.34	1046.22
408.54	1090.69
408.73	1018.13
408.92	1093.03
409.11	1109.41
409.30	1181.97
409.49	1130.48
409.68	1039.20
409.87	1153.88
410.07	1196.01
410.26	1123.46
410.45	1277.93
410.64	1118.78
410.83	1062.60
411.02	1144.52
411.21	1151.54
411.40	1270.91
411.59	1254.53
411.78	1163.25
411.98	1163.25
412.17	1221.76
412.36	1191.33
412.55	1294.32
412.74	1364.53
412.93	1280.27
413.12	1329.42
413.31	1383.26
413.50	1376.24
413.69	1352.83
413.88	1455.81
414.07	1336.45
414.26	1488.58
414.45	1474.54
414.64	1453.47
414.83	1537.73
415.02	1465.18
415.22	1430.07
415.41	1509.65
415.60	1519.01
415.79	1523.69
415.98	1617.31
416.17	1633.69
416.36	1624.33
416.55	1521.35
416.74	1619.65
416.93	1629.01
417.12	1551.78
417.31	1717.95
417.50	1727.32
417.69	1706.25
417.88	1769.44
418.07	1710.93
418.26	1781.15
418.45	1767.10
418.64	1736.68
418.83	1734.34
419.02	1755.40
419.21	1806.89
419.39	1802.21
419.58	1858.39
419.77	1872.43
419.96	1849.02
420.15	1837.32
420.34	1891.15
420.53	1830.30
420.72	1949.67
420.91	1858.39
421.10	1870.09
421.29	2054.99
421.48	1884.13
421.67	2029.24
421.86	1989.46
422.05	1966.05
422.24	1966.05
422.43	1891.15
422.61	1954.35
422.80	1961.37
422.99	2029.24
423.18	1998.82
423.37	1961.37
423.56	1954.35
423.75	1966.05
423.94	1825.62
424.13	1809.23
424.32	1872.43
424.50	2085.42
424.69	2111.16
424.88	2069.03
425.07	2094.78
425.26	1956.69
425.45	1879.45
425.64	1987.11
425.83	2143.93
426.01	2047.97
426.20	2057.33
426.39	2043.29
426.58	2026.90
426.77	2071.37
426.96	2090.10
427.15	2108.82
427.33	2139.25
427.52	2101.80
427.71	2118.18
427.90	2125.21
428.09	2202.44
428.28	2069.03
428.46	2172.02
428.65	2258.62
428.84	2167.34
429.03	2197.76
429.22	2193.08
429.40	2214.15
429.59	2218.83
429.78	2251.60
429.97	2153.29
430.16	2305.43
430.34	2277.34
430.53	2253.94
430.72	2232.87
430.91	2368.62
431.10	2172.02
431.28	2401.39
431.47	2403.73
431.66	2382.67
431.85	2394.37
432.03	2246.91
432.22	2502.03
432.41	2373.30
432.60	2382.67
432.79	2356.92
432.97	2352.24
433.16	2462.24
433.35	2438.84
433.54	2502.03
433.72	2443.52
433.91	2469.27
434.10	2523.10
434.28	2349.90
434.47	2612.04
434.66	2558.21
434.85	2567.57
435.03	2457.56
435.22	2616.72
435.41	2555.86
435.59	2623.74
435.78	2593.31
435.97	2700.98
436.16	2684.59
436.34	2513.74
436.53	2581.61
436.72	2581.61
436.90	2586.29
437.09	2675.23
437.28	2715.02
437.46	2722.04
437.65	2679.91
437.84	2708.00
438.02	2764.17
438.21	2771.19
438.40	2684.59
438.58	2747.79
438.77	3016.95
438.96	2862.48
439.14	3028.65
439.33	2944.39
439.52	2951.42
439.70	2902.26
439.89	2995.89
440.08	3073.12
440.26	2965.46
440.45	3040.36
440.63	2977.16
440.82	3126.96
441.01	3016.95
441.19	3023.97
441.38	3136.32
441.57	3197.17
441.75	3124.62
441.94	3253.34
442.12	3253.34
442.31	3241.64
442.50	3370.37
442.68	3234.62
442.87	3295.47
443.05	3286.11
443.24	3382.07
443.43	3445.27
443.61	3265.05
443.80	3442.93
443.98	3325.90
444.17	3218.24
444.35	3283.77
444.54	3478.04
444.73	3419.52
444.91	3478.04
445.10	3527.19
445.28	3321.22
445.47	3335.26
445.65	3307.18
445.84	3426.54
446.02	3478.04
446.21	3456.97
446.39	3323.56
446.58	3358.67
446.77	3487.40
446.95	3419.52
447.14	3456.97
447.32	3552.93
447.51	3452.29
447.69	3456.97
447.88	3494.42
448.06	3389.10
448.25	3524.85
448.43	3522.51
448.62	3541.23
448.80	3396.12
448.99	3595.06
449.17	3517.83
449.36	3454.63
449.54	3740.18
449.73	3620.81
449.91	3733.15
450.10	3658.26
450.28	3534.21
450.46	3623.15
450.65	3611.45
450.83	3812.73
451.02	3695.71
451.20	3822.09
451.39	3770.60
451.57	3623.15
451.76	3763.58
451.94	3784.65
452.13	3899.33
452.31	3798.69
452.49	3658.26
452.68	3833.80
452.86	3754.22
453.05	3791.67
453.23	3782.31
453.42	3978.91
453.60	3838.48
453.78	3927.42
453.97	3948.48
454.15	3964.87
454.34	3824.44
454.52	3990.61
454.70	3859.54
454.89	4102.96
455.07	4121.68
455.26	4072.53
455.44	4114.66
455.62	4161.47
455.81	4227.01
455.99	4086.58
456.17	4021.04
456.36	4074.87
456.54	4194.24
456.73	4177.86
456.91	4341.69
457.09	4198.92
457.28	4374.46
457.46	4219.99
457.64	4365.10
457.83	4395.53
458.01	4229.35
458.19	4397.87
458.38	4311.27
458.56	4461.06
458.74	4276.16
458.93	4414.25
459.11	4402.55
459.29	4395.53
459.48	4421.27
459.66	4390.84
459.84	4402.55
460.03	4638.94
460.21	4437.66
460.39	4465.74
460.57	4524.26
460.76	4524.26
460.94	4772.35
461.12	4547.66
461.31	4643.62
461.49	4582.77
461.67	4615.54
461.85	4582.77
462.04	4564.04
462.22	4741.93
462.40	4737.24
462.59	4744.27
462.77	4755.97
462.95	4568.73
463.13	4868.31
463.32	4823.84
463.50	4748.95
463.68	4908.10
463.86	4884.70
464.05	4880.02
464.23	4807.46
464.41	4828.53
464.59	4805.12
464.78	4924.49
464.96	4858.95
465.14	4734.90
465.32	5093.01
465.50	4994.70
465.69	4926.83
465.87	4945.55
466.05	4952.57
466.23	4978.32
466.41	4877.68
466.60	5130.45
466.78	5027.47
466.96	5004.07
467.14	5046.20
467.32	4931.51
467.51	5287.27
467.69	4793.42
467.87	5053.22
468.05	5107.05
468.23	4992.36
468.41	5177.26
468.60	5090.67
468.78	5254.50
468.96	5179.61
469.14	5177.26
469.32	5238.12
469.50	5156.20
469.69	5366.85
469.87	5191.31
470.05	5437.06
470.23	5261.52
470.41	5287.27
470.59	5540.05
470.77	5413.66
470.95	5458.13
471.14	5556.43
471.32	5540.05
471.50	5474.51
471.68	5666.44
471.86	5481.53
472.04	5570.48
472.22	5783.46
472.40	5628.99
472.58	5678.14
472.77	5706.23
472.95	5731.97
473.13	5975.39
473.31	5884.11
473.49	5724.95
473.67	5650.05
473.85	5617.29
474.03	6003.47
474.21	5937.94
474.39	5980.07
474.57	5947.30
474.75	6204.76
474.93	6061.99
475.12	6106.46
475.30	6036.24
475.48	6003.47
475.66	6300.72
475.84	6328.81
476.02	6368.60
476.20	6136.88
476.38	6225.82
476.56	6445.84
476.74	6544.14
476.92	6469.24
477.10	6352.21
477.28	6478.60
477.46	6464.56
477.64	6539.46
477.82	6754.79
478.00	6986.50
478.18	6911.60
478.36	6956.07
478.54	6988.84
478.72	7037.99
478.90	7075.44
479.08	6998.20
479.26	7192.47
479.44	7269.70
479.62	7386.73
479.80	7466.31
479.98	7386.73
480.16	7463.97
480.34	7421.84
480.52	7557.59
480.70	7538.87
480.88	7487.37
481.06	7520.14
481.24	7597.38
481.41	7655.89
481.59	7941.44
481.77	8013.99
481.95	7960.16
482.13	7999.95
482.31	8131.02
482.49	8280.82
482.67	8446.99
482.85	8128.68
483.03	8318.26
483.21	8409.54
483.39	8397.84
483.57	8606.15
483.74	8758.28
483.92	8622.53
484.10	8608.49
484.28	8730.20
484.46	8755.94
484.64	8926.80
484.82	8805.10
485.00	8891.70
485.18	9202.99
485.35	9320.01
485.53	9315.33
485.71	9291.93
485.89	9795.14
486.07	9359.80
486.25	9605.56
486.43	9612.58
486.61	9635.99
486.78	9666.41
486.96	9675.77
487.14	9867.70
487.32	9982.38
487.50	9811.53
487.68	10244.52
487.85	10534.75
488.03	10384.96
488.21	10675.18
488.39	10541.77
488.57	10384.96
488.75	10501.98
488.92	11021.58
489.10	10562.84
489.28	10785.19
489.46	10958.39
489.64	11159.67
489.81	11215.85
489.99	11190.10
490.17	11033.29
490.35	11276.70
490.53	11353.94
490.70	11592.67
490.88	11447.56
491.06	11712.04
491.24	11662.89
491.41	11522.46
491.59	11831.41
491.77	12145.04
491.95	11918.01
492.13	12145.04
492.30	12116.95
492.48	12004.61
492.66	12107.59
492.84	12404.84
493.01	12217.60
493.19	12594.42
493.37	12795.71
493.54	12414.20
493.72	12500.80
493.90	12741.88
494.08	12800.39
494.25	12858.90
494.43	13144.45
494.61	13074.23
494.79	13315.31
494.96	13156.15
495.14	13441.70
495.32	13483.83
495.49	13540.00
495.67	13444.04
495.85	13647.66
496.02	13647.66
496.20	13722.56
496.38	13673.41
496.55	13675.75
496.73	14064.28
496.91	14015.13
497.09	14092.37
497.26	14469.19
497.44	14223.44
497.62	14207.05
497.79	14317.06
497.97	14310.04
498.14	14424.72
498.32	14539.41
498.50	14684.52
498.67	14984.11
498.85	14551.11
499.03	14846.02
499.20	14721.97
499.38	14817.93
499.56	15080.07
499.73	15040.28
499.91	15314.13
500.08	15470.94
500.26	15143.27
500.44	15211.14
500.61	15466.26
500.79	15309.44
500.97	15552.86
501.14	15618.39
501.32	15733.08
501.49	15337.53
501.67	15627.76
501.84	15885.22
502.02	15981.18
502.20	15756.49
502.37	16238.64
502.55	16065.44
502.72	16093.52
502.90	15873.51
503.07	15964.79
503.25	16313.53
503.43	16198.85
503.60	16306.51
503.78	16367.37
503.95	16475.03
504.13	16545.25
504.30	16388.43
504.48	16482.05
504.65	16666.95
504.83	16762.92
505.01	16982.93
505.18	16758.24
505.36	16849.52
505.53	16606.10
505.71	16989.95
505.88	17114.00
506.06	17022.72
506.23	16905.69
506.41	17249.75
506.58	17221.66
506.76	17165.49
506.93	17123.36
507.11	16947.82
507.28	17247.41
507.46	17256.77
507.63	17493.16
507.81	17689.77
507.98	17324.65
508.16	17708.49
508.33	17600.83
508.50	17486.14
508.68	17919.14
508.85	18040.85
509.03	18038.51
509.20	18171.92
509.38	18274.90
509.55	18202.35
509.73	18087.66
509.90	18401.29
510.08	18235.11
510.25	18111.07
510.42	18431.72
510.60	18743.01
510.77	18464.49
510.95	18565.13
511.12	18581.51
511.30	18794.50
511.47	18579.17
511.64	18628.32
511.82	19073.03
511.99	18450.44
512.17	18845.99
512.34	18904.51
512.51	18977.06
512.69	19047.28
512.86	19211.12
513.04	19133.88
513.21	19426.45
513.38	19012.17
513.56	19171.33
513.73	19264.95
513.90	19321.12
514.08	19161.97
514.25	19428.79
514.43	19491.98
514.60	19332.82
514.77	19688.59
514.95	19768.16
515.12	19651.14
515.29	19616.03
515.47	19777.53
515.64	19932.00
515.81	19805.61
515.99	19793.91
516.16	20397.77
516.33	19690.93
516.51	20357.98
516.68	19946.05
516.85	20201.16
517.03	19688.59
517.20	20053.71
517.37	20383.73
517.54	20397.77
517.72	20329.89
517.89	20444.58
518.06	20278.40
518.24	20231.59
518.41	20720.76
518.58	20390.75
518.75	20627.14
518.93	20381.38
519.10	20652.89
519.27	20975.88
519.45	20582.67
519.62	20821.41
519.79	20898.64
519.96	20673.95
520.14	21043.76
520.31	20957.16
520.48	21240.36
520.65	21177.17
520.83	21366.75
521.00	21493.14
521.17	21216.96
521.34	21242.70
521.52	21287.17
521.69	21544.63
521.86	21722.51
522.03	21317.60
522.20	21668.68
522.38	21600.80
522.55	21652.30
522.72	21563.36
522.89	21610.17
523.07	21776.34
523.24	21610.17
523.41	21996.35
523.58	21750.60
523.75	22223.39
523.92	21565.70
524.10	22001.04
524.27	22169.55
524.44	21797.41
524.61	22394.25
524.78	22012.74
524.96	22036.14
525.13	22082.95
525.30	22422.33
525.47	22324.03
525.64	22038.48
525.81	22368.50
525.98	22469.14
526.16	22429.35
526.33	22244.45
526.50	23119.81
526.67	22579.15
526.84	22242.11
527.01	22455.10
527.18	22682.13
527.36	23138.54
527.53	23007.47
527.70	23136.20
527.87	23178.33
528.04	22684.47
528.21	22672.77
528.38	22785.12
528.55	23054.28
528.72	22897.46
528.89	22899.80
529.07	23007.47
529.24	22998.10
529.41	23187.69
529.58	23281.31
529.75	23374.93
529.92	23325.78
530.09	23445.15
530.26	23342.16
530.43	23068.32
530.60	23019.17
530.77	23152.58
530.94	23363.23
531.11	23477.91
531.28	23396.00
531.46	23660.48
531.63	23496.64
531.80	23747.08
531.97	23889.85
532.14	24091.13
532.31	23878.15
532.48	24114.54
532.65	23543.45
532.82	23536.43
532.99	24044.32
533.16	23885.17
533.33	23740.05
533.50	24390.72
533.67	24339.23
533.84	23931.98
534.01	23981.13
534.18	23906.23
534.35	23805.59
534.52	24126.24
534.69	24467.96
534.86	24584.99
535.03	24018.58
535.20	24334.55
535.37	24655.20
535.54	24713.72
535.71	24463.28
535.88	24596.69
536.05	24484.34
536.22	24503.07
536.38	24676.27
536.55	25067.14
536.72	24694.99
536.89	24678.61
537.06	24800.32
537.23	24727.76
537.40	24643.50
537.57	24917.34
537.74	24671.59
537.91	24884.58
538.08	25156.08
538.25	24978.20
538.42	25259.06
538.59	25282.47
538.75	24643.50
538.92	24641.16
539.09	24774.57
539.26	25249.70
539.43	24919.68
539.60	25373.75
539.77	25481.41
539.94	25387.79
540.11	25149.06
540.28	25472.05
540.44	25415.88
540.61	25223.95
540.78	25614.82
540.95	25699.08
541.12	25755.26
541.29	25198.21
541.46	25575.03
541.62	25221.61
541.79	25362.04
541.96	25223.95
542.13	25362.04
542.30	25624.18
542.47	25940.16
542.63	25792.70
542.80	26129.74
542.97	26068.89
543.14	26235.06
543.31	25942.50
543.48	25715.47
543.64	25986.97
543.81	26059.52
543.98	26597.85
544.15	26209.32
544.32	26384.86
544.48	26291.24
544.65	26415.29
544.82	26209.32
544.99	26080.59
545.16	26300.60
545.32	26244.43
545.49	26515.93
545.66	26815.52
545.83	26291.24
546.00	26597.85
546.16	26176.55
546.33	26185.91
546.50	25982.29
546.67	26471.46
546.83	26279.54
547.00	26375.50
547.17	26824.88
547.34	26478.48
547.50	26705.51
547.67	27487.25
547.84	26616.57
548.00	26654.02
548.17	26682.11
548.34	26855.31
548.51	27007.44
548.67	27026.17
548.84	26686.79
549.01	26979.36
549.18	26972.33
549.34	26789.77
549.51	27000.42
549.68	26890.41
549.84	26885.73
550.01	27243.84
550.18	26939.57
550.34	27318.73
550.51	26941.91
550.68	27304.69
550.84	27108.08
551.01	26902.12
551.18	27236.81
551.34	27019.14
551.51	27009.78
551.68	27573.85
551.84	27349.16
552.01	27402.99
552.18	27321.07
552.34	27377.25
552.51	27175.96
552.68	27239.15
552.84	27611.30
553.01	27342.14
553.18	27606.62
553.34	27704.92
553.51	27473.21
553.67	27454.48
553.84	27777.48
554.01	27871.10
554.17	27702.58
554.34	28210.48
554.51	27480.23
554.67	27803.22
554.84	27821.95
555.00	28053.66
555.17	27267.24
555.33	27938.97
555.50	27576.19
555.67	27995.15
555.83	27885.14
556.00	27908.55
556.16	28058.34
556.33	28095.79
556.50	27938.97
556.66	28191.75
556.83	27864.08
556.99	28226.86
557.16	28746.46
557.32	28205.80
557.49	28261.97
557.65	28039.62
557.82	27981.10
557.98	27693.22
558.15	27992.81
558.32	28709.01
558.48	28198.77
558.65	28463.25
558.81	28339.21
558.98	28109.83
559.14	28180.05
559.31	28086.43
559.47	27927.27
559.64	28538.15
559.80	28669.22
559.97	28753.48
560.13	28446.87
560.30	28510.07
560.46	28407.08
560.63	28294.74
560.79	28781.57
560.96	28458.57
561.12	28196.43
561.29	28348.57
561.45	28290.06
561.61	28500.70
561.78	28893.91
561.94	28720.71
562.11	28744.12
562.27	28535.81
562.44	28781.57
562.60	28271.33
562.77	28217.50
562.93	28655.18
563.10	28697.31
563.26	28343.89
563.42	28854.12
563.59	28746.46
563.75	28479.64
563.92	28816.68
564.08	28472.62
564.24	28819.02
564.41	28531.13
564.57	28573.26
564.74	28716.03
564.90	28975.83
565.07	28697.31
565.23	28795.61
565.39	28505.38
565.56	28659.86
565.72	28748.80
565.88	28711.35
566.05	28664.54
566.21	28872.85
566.38	28856.46
566.54	28748.80
566.70	28720.71
566.87	29275.42
567.03	29259.04
567.19	28950.09
567.36	28758.16
567.52	29013.28
567.68	29219.25
567.85	28694.97
568.01	29249.67
568.17	28922.00
568.34	28868.17
568.50	28996.90
568.66	28830.72
568.83	29270.74
568.99	29242.65
569.15	29074.13
569.32	28776.89
569.48	29111.58
569.64	29181.80
569.81	28940.72
569.97	29006.26
570.13	29191.16
570.30	29146.69
570.46	28957.11
570.62	28816.68
570.78	28900.94
570.95	29083.50
571.11	29184.14
571.27	28802.63
571.43	28833.06
571.60	29266.06
571.76	29193.50
571.92	29184.14
572.09	29273.08
572.25	29387.77
572.41	29439.26
572.57	28795.61
572.74	29228.61
572.90	29415.85
573.06	28966.47
573.22	29008.60
573.38	29109.24
573.55	28926.68
573.71	29252.02
573.87	29514.16
574.03	29233.29
574.20	29378.40
574.36	29212.23
574.52	29092.86
574.68	29160.73
574.84	29612.46
575.01	29230.95
575.17	29404.15
575.33	29127.97
575.49	29118.60
575.65	29362.02
575.82	29511.81
575.98	29675.65
576.14	29336.27
576.30	29425.22
576.46	29120.95
576.62	29252.02
576.79	29392.45
576.95	29509.47
577.11	29319.89
577.27	29411.17
577.43	29518.84
577.59	29174.78
577.75	29167.76
577.92	29294.14
578.08	29069.45
578.24	29373.72
578.40	29776.30
578.56	29200.52
578.72	29635.86
578.88	29500.11
579.04	29736.51
579.21	29181.80
579.37	29418.19
579.53	28903.28
579.69	29233.29
579.85	29287.12
580.01	29179.46
580.17	29312.87
580.33	29689.70
580.49	29010.94
580.65	29577.35
580.82	29514.16
580.98	29830.13
581.14	29521.18
581.30	29509.47
581.46	29249.67
581.62	29364.36
581.78	29329.25
581.94	29261.38
582.10	29504.79
582.26	29502.45
582.42	29743.53
582.58	29668.63
582.74	29509.47
582.90	29319.89
583.06	29788.00
583.22	29247.33
583.38	29355.00
583.54	29682.67
583.70	29181.80
583.86	29249.67
584.02	29207.55
584.18	29954.18
584.34	29336.27
584.50	29542.24
584.66	29331.59
584.82	29322.23
584.98	29584.37
585.14	29240.31
585.30	29170.10
585.46	29521.18
585.62	29687.36
585.78	29560.97
585.94	29455.64
586.10	29413.51
586.26	29783.32
586.42	29553.94
586.58	29582.03
586.74	29905.02
586.90	29252.02
587.06	29303.51
587.22	29713.10
587.38	29322.23
587.54	29818.42
587.70	29830.13
587.86	29589.05
588.02	30005.67
588.18	30071.20
588.34	29570.33
588.49	29900.34
588.65	29673.31
588.81	29317.55
588.97	29799.70
589.13	29738.85
589.29	29544.58
589.45	29860.55
589.61	29942.47
589.77	30141.42
589.93	30075.88
590.08	30064.18
590.24	30022.05
590.40	30022.05
590.56	30286.53
590.72	29661.61
590.88	29469.69
591.04	29895.66
591.20	30068.86
591.35	30141.42
591.51	30101.63
591.67	30260.79
591.83	30260.79
591.99	29729.48
592.15	29820.77
592.31	30183.55
592.46	29961.20
592.62	29436.92
592.78	29853.53
592.94	29584.37
593.10	29961.20
593.26	29919.07
593.41	30122.69
593.57	29961.20
593.73	29752.89
593.89	29720.12
594.05	30288.87
594.20	29642.88
594.36	30230.36
594.52	29762.25
594.68	29998.65
594.84	29467.34
594.99	30022.05
595.15	29956.52
595.31	30190.57
595.47	30064.18
595.62	30103.97
595.78	29886.30
595.94	30120.35
596.10	30190.57
596.25	29888.64
596.41	29874.60
596.57	29612.46
596.73	29881.62
596.88	29811.40
597.04	30314.62
597.20	30005.67
597.36	30209.29
597.51	30103.97
597.67	29923.75
597.83	30068.86
597.99	29841.83
598.14	29816.08
598.30	30038.44
598.46	30122.69
598.61	30099.29
598.77	30038.44
598.93	29890.98
599.09	29991.62
599.24	30209.29
599.40	30375.47
599.56	30333.34
599.71	30120.35
599.87	30223.34
600.03	30047.80
600.18	30120.35
600.34	30066.52
600.50	29855.87
600.65	30153.12
600.81	30265.47
600.97	30167.16
601.12	30455.05
601.28	30635.27
601.44	30480.80
601.59	30120.35
601.75	30260.79
601.91	30242.06
602.06	29947.15
602.22	30160.14
602.37	30054.82
602.53	29696.72
602.69	30024.39
602.84	30312.28
603.00	30522.93
603.16	30309.94
603.31	30391.86
603.47	30150.78
603.62	30396.54
603.78	30181.21
603.94	29972.90
604.09	30319.30
604.25	29619.48
604.40	29762.25
604.56	30331.00
604.71	30384.83
604.87	30300.58
605.03	30110.99
605.18	29738.85
605.34	30148.44
605.49	29862.90
605.65	29940.13
605.80	29935.45
605.96	29972.90
606.12	30295.89
606.27	30057.16
606.43	30192.91
606.58	30338.02
606.74	29956.52
606.89	30340.36
607.05	30071.20
607.20	29949.50
607.36	30008.01
607.51	29998.65
607.67	29991.62
607.82	29989.28
607.98	29607.78
608.13	29823.11
608.29	29991.62
608.44	30176.53
608.60	30174.19
608.75	30263.13
608.91	30082.91
609.06	29914.39
609.22	30045.46
609.37	29567.99
609.53	29717.78
609.68	30188.23
609.84	29993.97
609.99	30129.72
610.15	29408.83
610.30	29771.61
610.46	29797.36
610.61	30031.41
610.76	29677.99
610.92	29696.72
611.07	29811.40
611.23	29736.51
611.38	29652.25
611.54	29663.95
611.69	29420.53
611.84	29230.95
612.00	29745.87
612.15	29429.90
612.31	29816.08
612.46	29811.40
612.62	29677.99
612.77	29420.53
612.92	29823.11
613.08	29621.82
613.23	29745.87
613.39	29497.77
613.54	29404.15
613.69	29699.06
613.85	29315.21
614.00	29521.18
614.15	29823.11
614.31	29535.22
614.46	29446.28
614.62	29640.54
614.77	29493.09
614.92	29560.97
615.08	29254.36
615.23	29645.23
615.38	29387.77
615.54	29268.40
615.69	29212.23
615.84	29294.14
616.00	29230.95
616.15	29392.45
616.30	29640.54
616.46	29165.42
616.61	29329.25
616.76	29401.81
616.92	29120.95
617.07	29230.95
617.22	29270.74
617.37	29298.83
617.53	29029.66
617.68	29427.56
617.83	29174.78
617.99	29127.97
618.14	29186.48
618.29	29331.59
618.45	29099.88
618.60	28903.28
618.75	29081.16
618.90	29242.65
619.06	29160.73
619.21	29024.98
619.36	29277.76
619.51	28863.49
619.67	28786.25
619.82	28891.57
619.97	29294.14
620.12	28835.40
620.28	28964.13
620.43	29053.07
620.58	29226.27
620.73	29483.73
620.89	29242.65
621.04	28816.68
621.19	29027.32
621.34	28577.94
621.49	28800.29
621.65	28390.70
621.80	28900.94
621.95	28767.52
622.10	28821.36
622.25	28514.75
622.41	28662.20
622.56	28910.30
622.71	28800.29
622.86	28968.81
623.01	28961.79
623.16	28538.15
623.32	28790.93
623.47	28458.57
623.62	28603.69
623.77	28322.82
623.92	28606.03
624.07	28210.48
624.23	28701.99
624.38	28694.97
624.53	28479.64
624.68	28442.19
624.83	28980.51
624.98	28622.41
625.13	28655.18
625.29	28914.98
625.44	28306.44
625.59	28112.17
625.74	28325.16
625.89	28290.06
626.04	27943.66
626.19	28566.24
626.34	28231.54
626.49	28699.65
626.65	28084.09
626.80	28507.72
626.95	28114.52
627.10	28315.80
627.25	28421.13
627.40	28173.03
627.55	27999.83
627.70	27653.43
627.85	28173.03
628.00	28072.39
628.15	27873.44
628.30	28098.13
628.45	28149.62
628.60	27658.11
628.76	27999.83
628.91	28041.96
629.06	27861.74
629.21	27688.54
629.36	28016.21
629.51	27758.75
629.66	28425.81
629.81	27641.73
629.96	27709.60
630.11	27852.38
630.26	27536.40
630.41	27623.00
630.56	27690.88
630.71	27899.19
630.86	27585.55
631.01	27772.80
631.16	27758.75
631.31	27969.40
631.46	27737.69
631.61	27740.03
631.76	27721.30
631.91	27559.81
632.06	27374.91
632.21	27295.33
632.36	27449.80
632.51	27124.47
632.66	27323.41
632.81	27433.42
632.96	27623.00
633.10	27660.45
633.25	27648.75
633.40	27943.66
633.55	27557.47
633.70	27262.56
633.85	27061.27
634.00	27304.69
634.15	27300.01
634.30	27220.43
634.45	27573.85
634.60	27143.19
634.75	27257.88
634.90	27630.02
635.05	27824.29
635.19	26948.93
635.34	27594.92
635.49	27522.36
635.64	27360.86
635.79	27491.93
635.94	27248.52
636.09	26944.25
636.24	27204.05
636.39	27197.02
636.53	26838.92
636.68	26981.70
636.83	27197.02
636.98	27096.38
637.13	27360.86
637.28	26710.19
637.43	27524.70
637.57	27194.68
637.72	26883.39
637.87	27253.20
638.02	26988.72
638.17	26937.23
638.32	26979.36
638.46	27168.94
638.61	26855.31
638.76	26263.15
638.91	26787.43
639.06	26801.47
639.20	27180.64
639.35	26974.67
639.50	26780.41
639.65	27077.66
639.80	27150.21
639.94	26768.71
640.09	26991.06
640.24	26810.84
640.39	26635.30
640.54	26630.62
640.68	26630.62
640.83	26675.09
640.98	26775.73
641.13	26363.79
641.27	26801.47
641.42	26553.38
641.57	26513.59
641.72	26548.70
641.86	26562.74
642.01	26462.10
642.16	26588.49
642.31	26457.42
642.45	26829.56
642.60	26162.51
642.75	25879.30
642.90	26015.05
643.04	26513.59
643.19	26457.42
643.34	26359.11
643.48	26197.62
643.63	26792.11
643.78	26270.17
643.93	26253.79
644.07	26345.07
644.22	26867.01
644.37	26438.69
644.51	26288.90
644.66	26375.50
644.81	26073.57
644.95	26157.83
645.10	25724.83
645.25	25848.88
645.39	25993.99
645.54	26202.30
645.69	25949.52
645.83	25972.92
645.98	26223.36
646.13	25928.45
646.27	26008.03
646.42	26150.81
646.57	25933.14
646.71	25923.77
646.86	26022.08
647.00	26132.08
647.15	25715.47
647.30	25919.09
647.44	25699.08
647.59	25902.71
647.74	25537.59
647.88	25813.77
648.03	26099.31
648.17	26085.27
648.32	25956.54
648.47	26288.90
648.61	25909.73
648.76	25649.93
648.90	25701.42
649.05	25713.13
649.20	25731.85
649.34	25731.85
649.49	25565.67
649.63	25701.42
649.78	25319.92
649.92	25380.77
650.07	25851.22
650.21	25600.78
650.36	25572.69
650.51	25359.70
650.65	25680.36
650.80	25528.22
650.94	25631.21
651.09	25394.81
651.23	25675.68
651.38	25256.72
651.52	25282.47
651.67	25652.27
651.81	25783.34
651.96	25577.37
652.10	25528.22
652.25	25338.64
652.39	25624.18
652.54	25617.16
652.68	25542.27
652.83	25212.25
652.97	25572.69
653.12	25745.89
653.26	25181.82
653.41	25303.53
653.55	25076.50
653.70	25184.16
653.84	25111.61
653.99	25310.55
654.13	25200.55
654.27	25156.08
654.42	25191.19
654.56	25092.88
654.71	25544.61
654.85	24968.84
655.00	25305.87
655.14	25083.52
655.29	25324.60
655.43	25123.31
655.57	25142.03
655.72	24552.22
655.86	24982.88
656.01	25071.82
656.15	24959.47
656.30	25017.99
656.44	24833.08
656.58	24723.08
656.73	24940.75
656.87	24954.79
657.01	24861.17
657.16	25092.88
657.30	24978.20
657.45	24896.28
657.59	24828.40
657.73	24589.67
657.88	24533.50
658.02	24535.84
658.16	24786.27
658.31	24776.91
658.45	24718.40
658.60	24201.14
658.74	24542.86
658.88	24458.60
659.03	24320.51
659.17	24482.00
659.31	24620.10
659.46	24556.90
659.60	24482.00
659.74	24636.48
659.89	24390.72
660.03	24243.27
660.17	24362.64
660.32	24247.95
660.46	24416.47
660.60	23939.00
660.74	24025.60
660.89	24091.13
661.03	23913.25
661.17	24334.55
661.32	23878.15
661.46	24584.99
661.60	24233.91
661.74	24091.13
661.89	23913.25
662.03	24163.69
662.17	23894.53
662.31	23852.40
662.46	24428.17
662.60	23943.68
662.74	23543.45
662.88	23527.06
663.03	23545.79
663.17	23740.05
663.31	22955.97
663.45	23552.81
663.60	23414.72
663.74	23452.17
663.88	23491.96
664.02	23754.10
664.17	23501.32
664.31	23520.04
664.45	23147.90
664.59	23489.62
664.73	23480.25
664.88	23384.29
665.02	23248.54
665.16	23285.99
665.30	22857.67
665.44	23255.56
665.59	22904.48
665.73	22829.59
665.87	22768.73
666.01	23236.84
666.15	23070.66
666.29	22801.50
666.44	23056.62
666.58	22909.16
666.72	23054.28
666.86	23133.86
667.00	23173.64
667.14	22932.57
667.28	22740.64
667.43	22714.90
667.57	22483.19
667.71	22600.21
667.85	22707.88
667.99	22326.37
668.13	22534.68
668.27	22651.70
668.41	22593.19
668.56	22305.31
668.70	22410.63
668.84	22808.52
668.98	22539.36
669.12	22766.39
669.26	22628.30
669.40	22398.93
669.54	22663.41
669.68	22288.92
669.82	22333.39
669.96	22129.77
670.10	22162.53
670.25	22122.74
670.39	22043.17
670.53	21928.48
670.67	21884.01
670.81	22047.85
670.95	21584.42
671.09	21830.18
671.23	21795.07
671.37	21820.81
671.51	21881.67
671.65	21970.61
671.79	21333.98
671.93	21575.06
672.07	21600.80
672.21	21341.00
672.35	21451.01
672.49	21558.67
672.63	21394.84
672.77	21282.49
672.91	21317.60
673.05	21432.29
673.19	21418.24
673.33	21144.40
673.47	21067.16
673.61	21329.30
673.75	21184.19
673.89	20945.45
674.03	21212.28
674.17	21153.76
674.31	20985.24
674.45	21032.05
674.59	20732.47
674.73	21146.74
674.87	20645.87
675.01	20603.74
675.15	20671.61
675.29	20599.05
675.43	20655.23
675.56	20678.63
675.70	20650.55
675.84	20709.06
675.98	20002.22
676.12	20819.07
676.26	20269.04
676.40	20369.68
676.54	20278.40
676.68	20063.07
676.82	19999.88
676.96	19922.64
677.10	20025.62
677.23	20123.93
677.37	19686.25
677.51	19836.04
677.65	19826.68
677.79	19641.78
677.93	19669.86
678.07	19723.69
678.21	19569.22
678.34	19669.86
678.48	19431.13
678.62	19480.28
678.76	19726.04
678.90	19510.71
679.04	19304.74
679.18	19190.05
679.31	19159.63
679.45	18724.29
679.59	18778.12
679.73	19073.03
679.87	18696.20
680.00	18604.92
680.14	18616.62
680.28	18923.23
680.42	18731.31
680.56	18909.19
680.70	18860.04
680.83	18796.84
680.97	18565.13
681.11	18190.64
681.25	18391.93
681.39	18436.40
681.52	18270.22
681.66	18427.04
681.80	18256.18
681.94	18003.40
682.07	17865.31
682.21	18195.32
682.35	18045.53
682.49	17998.72
682.62	17790.41
682.76	17743.60
682.90	17827.86
683.04	17956.59
683.17	17633.60
683.31	17888.71
683.45	17682.75
683.59	17661.68
683.72	17867.65
683.86	17530.61
684.00	17664.02
684.13	17200.60
684.27	17413.59
684.41	17020.38
684.55	17053.14
684.68	17020.38
684.82	17022.72
684.96	16971.22
685.09	16879.94
685.23	16613.12
685.37	16751.21
685.50	16924.41
685.64	16662.27
685.78	16982.93
685.91	16767.60
686.05	16709.08
686.19	16315.87
686.32	16606.10
686.46	16435.24
686.60	16315.87
686.73	16231.62
686.87	16070.12
687.01	16269.06
687.14	16156.72
687.28	16004.58
687.42	15868.83
687.55	15712.02
687.69	16126.29
687.82	16067.78
687.96	15704.99
688.10	15665.21
688.23	15992.88
688.37	15747.12
688.50	15604.35
688.64	15604.35
688.78	15377.32
688.91	15552.86
689.05	15641.80
689.18	15187.74
689.32	15227.53
689.46	15297.74
689.59	15227.53
689.73	15412.43
689.86	14796.87
690.00	15040.28
690.13	15054.33
690.27	14874.10
690.41	14986.45
690.54	14714.95
690.68	14927.94
690.81	14787.50
690.95	14761.76
691.08	14796.87
691.22	14633.03
691.35	14736.01
691.49	14525.36
691.62	14881.13
691.76	14267.91
691.89	14090.02
692.03	14239.82
692.16	14171.94
692.30	14120.45
692.43	13895.76
692.57	14169.60
692.70	14277.27
692.84	14101.73
692.97	13762.35
693.11	14085.34
693.24	13778.73
693.38	13734.26
693.51	13785.76
693.65	13731.92
693.78	13558.72
693.92	13392.55
694.05	13270.84
694.19	13352.76
694.32	13369.14
694.45	13109.34
694.59	13331.69
694.72	13149.13
694.86	12968.91
694.99	12964.23
695.13	12753.58
695.26	13013.38
695.39	13036.78
695.53	12655.28
695.66	12798.05
695.80	12975.93
695.93	12596.76
696.07	12863.58
696.20	12971.25
696.33	12624.85
696.47	12505.48
696.60	12573.36
696.73	12786.35
696.87	12262.07
697.00	12425.90
697.14	12184.83
697.27	12107.59
697.40	12252.70
697.54	12304.20
697.67	12084.19
697.80	12065.46
697.94	12084.19
698.07	11765.87
698.21	11885.24
698.34	11768.21
698.47	11964.82
698.61	11908.65
698.74	11768.21
698.87	11946.09
699.01	11543.52
699.14	11611.40
699.27	11405.43
699.40	11595.01
699.54	11609.06
699.67	11531.82
699.80	11410.11
699.94	11330.53
700.07	11379.68
700.20	11075.42
700.34	11276.70
700.47	11143.29
700.60	11094.14
700.73	11096.48
700.87	10949.03
701.00	10743.06
701.13	10899.87
701.26	10981.79
701.40	10869.45
701.53	11091.80
701.66	11110.52
701.79	10499.64
701.93	10698.59
702.06	10637.73
702.19	10420.06
702.32	10534.75
702.46	10312.40
702.59	10267.93
702.72	10125.16
702.85	10087.71
702.99	10228.14
703.12	10122.82
703.25	9961.32
703.38	9994.09
703.51	10183.67
703.65	10167.29
703.78	10190.69
703.91	9891.10
704.04	10076.01
704.17	10026.86
704.31	9884.08
704.44	9961.32
704.57	9776.42
704.70	9792.80
704.83	9680.46
704.96	9446.40
705.10	9699.18
705.23	9378.53
>>>>>End Processed Spectral Data<<<<<
