SpectraSuite Data File
++++++++++++++++++++++++++++++++++++
Date: Fri Oct 18 13:58:40 GMT-05:00 2013
User: bianchi
Dark Spectrum Present: No
Reference Spectrum Present: No
Number of Sampled Component Spectra: 1
Spectrometers: USB2+H05261
Integration Time (usec): 50000 (USB2+H05261)
Spectra Averaged: 1 (USB2+H05261)
Boxcar Smoothing: 0 (USB2+H05261)
Correct for Electrical Dark: No (USB2+H05261)
Strobe/Lamp Enabled: No (USB2+H05261)
Correct for Detector Non-linearity: No (USB2+H05261)
Correct for Stray Light: No (USB2+H05261)
Number of Pixels in Processed Spectrum: 2048
>>>>>Begin Processed Spectral Data<<<<<
365.73	0.00
365.92	0.00
366.12	0.00
366.32	0.00
366.52	0.00
366.72	0.00
366.91	0.00
367.11	0.00
367.31	0.00
367.51	0.00
367.70	0.00
367.90	0.00
368.10	0.00
368.30	0.00
368.49	0.00
368.69	0.00
368.89	0.00
369.09	0.00
369.28	0.00
369.48	0.00
369.68	0.00
369.87	0.00
370.07	0.00
370.27	0.00
370.47	42.13
370.66	58.51
370.86	88.94
371.06	93.62
371.25	124.05
371.45	124.05
371.65	208.31
371.84	102.98
372.04	74.90
372.24	184.90
372.44	128.73
372.63	133.41
372.83	149.79
373.03	191.92
373.22	210.65
373.42	187.24
373.62	182.56
373.81	212.99
374.01	248.10
374.21	264.48
374.40	257.46
374.60	294.91
374.79	210.65
374.99	215.33
375.19	205.97
375.38	210.65
375.58	287.89
375.78	255.12
375.97	283.20
376.17	250.44
376.37	259.80
376.56	259.80
376.76	299.59
376.95	285.55
377.15	234.05
377.35	271.50
377.54	227.03
377.74	290.23
377.93	341.72
378.13	325.33
378.33	287.89
378.52	297.25
378.72	315.97
378.91	262.14
379.11	271.50
379.31	266.82
379.50	224.69
379.70	271.50
379.89	297.25
380.09	259.80
380.28	351.08
380.48	224.69
380.68	283.20
380.87	337.04
381.07	341.72
381.26	348.74
381.46	318.31
381.65	362.78
381.85	308.95
382.04	306.61
382.24	332.36
382.43	337.04
382.63	353.42
382.83	297.25
383.02	372.15
383.22	376.83
383.41	444.70
383.61	423.64
383.80	304.27
384.00	334.70
384.19	341.72
384.39	442.36
384.58	465.77
384.78	372.15
384.97	390.87
385.17	318.31
385.36	376.83
385.56	393.21
385.75	390.87
385.95	379.17
386.14	397.89
386.34	390.87
386.53	423.64
386.72	411.93
386.92	409.59
387.11	339.38
387.31	477.47
387.50	404.91
387.70	479.81
387.89	442.36
388.09	486.83
388.28	449.38
388.48	479.81
388.67	402.57
388.86	503.22
389.06	479.81
389.25	447.04
389.45	470.45
389.64	411.93
389.84	496.19
390.03	468.11
390.22	491.51
390.42	470.45
390.61	388.53
390.81	475.13
391.00	535.98
391.19	578.11
391.39	463.43
391.58	535.98
391.78	465.77
391.97	491.51
392.16	554.71
392.36	580.45
392.55	510.24
392.75	461.09
392.94	554.71
393.13	543.00
393.33	575.77
393.52	571.09
393.71	533.64
393.91	587.47
394.10	486.83
394.29	554.71
394.49	615.56
394.68	674.07
394.88	599.18
395.07	643.65
395.26	535.98
395.46	552.37
395.65	582.79
395.84	575.77
396.04	645.99
396.23	662.37
396.42	655.35
396.62	704.50
396.81	681.10
397.00	676.41
397.19	692.80
397.39	716.20
397.58	678.76
397.77	615.56
397.97	674.07
398.16	660.03
398.35	617.90
398.55	653.01
398.74	706.84
398.93	779.40
399.12	664.71
399.32	720.88
399.51	788.76
399.70	718.54
399.90	718.54
400.09	765.36
400.28	692.80
400.47	718.54
400.67	784.08
400.86	781.74
401.05	823.87
401.24	781.74
401.44	835.57
401.63	798.12
401.82	744.29
402.01	788.76
402.21	807.48
402.40	875.36
402.59	823.87
402.78	891.74
402.97	866.00
403.17	753.65
403.36	919.83
403.55	870.68
403.74	889.40
403.93	882.38
404.13	947.92
404.32	959.62
404.51	880.04
404.70	882.38
404.89	889.40
405.09	980.68
405.28	924.51
405.47	983.02
405.66	971.32
405.85	992.39
406.05	990.05
406.24	901.11
406.43	919.83
406.62	1034.52
406.81	973.66
407.00	1015.79
407.20	884.72
407.39	1067.28
407.58	1107.07
407.77	936.21
407.96	1064.94
408.15	1064.94
408.34	1097.71
408.54	1137.50
408.73	1118.78
408.92	1020.47
409.11	1001.75
409.30	1086.01
409.49	1130.48
409.68	1086.01
409.87	1123.46
410.07	1041.54
410.26	1149.20
410.45	1196.01
410.64	1249.85
410.83	1196.01
411.02	1226.44
411.21	1254.53
411.40	1203.04
411.59	1102.39
411.78	1256.87
411.98	1289.64
412.17	1282.61
412.36	1306.02
412.55	1324.74
412.74	1306.02
412.93	1313.04
413.12	1352.83
413.31	1490.92
413.50	1364.53
413.69	1380.92
413.88	1526.03
414.07	1404.32
414.26	1511.99
414.45	1380.92
414.64	1441.77
414.83	1441.77
415.02	1406.66
415.22	1542.41
415.41	1549.43
415.60	1570.50
415.79	1598.59
415.98	1666.46
416.17	1607.95
416.36	1523.69
416.55	1624.33
416.74	1652.42
416.93	1589.22
417.12	1626.67
417.31	1696.89
417.50	1605.61
417.69	1802.21
417.88	1659.44
418.07	1743.70
418.26	1668.80
418.45	1724.97
418.64	1809.23
418.83	1818.60
419.02	1699.23
419.21	1842.00
419.39	1757.74
419.58	1750.72
419.77	1746.04
419.96	1771.79
420.15	1926.26
420.34	1839.66
420.53	1834.98
420.72	1898.17
420.91	1909.88
421.10	1991.80
421.29	1994.14
421.48	1867.75
421.67	1935.62
421.86	1792.85
422.05	1909.88
422.24	1905.20
422.43	1998.82
422.61	1952.01
422.80	2024.56
422.99	1987.11
423.18	1966.05
423.37	2062.01
423.56	1975.41
423.75	2005.84
423.94	1907.54
424.13	1930.94
424.32	1912.22
424.50	2064.35
424.69	2132.23
424.88	2054.99
425.07	2080.74
425.26	2012.86
425.45	1905.20
425.64	1961.37
425.83	1858.39
426.01	1994.14
426.20	2066.69
426.39	2080.74
426.58	2017.54
426.77	2059.67
426.96	2050.31
427.15	2022.22
427.33	1989.46
427.52	2015.20
427.71	2169.68
427.90	2139.25
428.09	2113.50
428.28	2157.97
428.46	2193.08
428.65	2282.02
428.84	2223.51
429.03	2352.24
429.22	2136.91
429.40	2242.23
429.59	2232.87
429.78	2101.80
429.97	2242.23
430.16	2104.14
430.34	2129.89
430.53	2349.90
430.72	2162.66
430.91	2328.83
431.10	2282.02
431.28	2335.85
431.47	2319.47
431.66	2448.20
431.85	2310.11
432.03	2366.28
432.22	2483.31
432.41	2485.65
432.60	2406.07
432.79	2293.72
432.97	2335.85
433.16	2513.74
433.35	2495.01
433.54	2492.67
433.72	2572.25
433.91	2471.61
434.10	2541.82
434.28	2363.94
434.47	2562.89
434.66	2534.80
434.85	2548.84
435.03	2567.57
435.22	2574.59
435.41	2787.58
435.59	2607.36
435.78	2640.12
435.97	2640.12
436.16	2574.59
436.34	2534.80
436.53	2649.49
436.72	2731.41
436.90	2672.89
437.09	2686.94
437.28	2619.06
437.46	2731.41
437.65	2672.89
437.84	2759.49
438.02	2740.77
438.21	2754.81
438.40	2750.13
438.58	2855.45
438.77	2956.10
438.96	2848.43
439.14	2935.03
439.33	2932.69
439.52	2916.31
439.70	2979.50
439.89	3098.87
440.08	3049.72
440.26	3023.97
440.45	3094.19
440.63	3089.51
440.82	3063.76
441.01	3002.91
441.19	3241.64
441.38	3227.60
441.57	3119.93
441.75	3190.15
441.94	3368.03
442.12	3236.96
442.31	3393.78
442.50	3417.18
442.68	3375.05
442.87	3365.69
443.05	3363.35
443.24	3398.46
443.43	3351.65
443.61	3339.94
443.80	3461.65
443.98	3323.56
444.17	3218.24
444.35	3407.82
444.54	3480.38
444.73	3382.07
444.91	3353.99
445.10	3363.35
445.28	3346.97
445.47	3384.41
445.65	3435.91
445.84	3473.36
446.02	3375.05
446.21	3475.70
446.39	3302.50
446.58	3625.49
446.77	3452.29
446.95	3370.37
447.14	3489.74
447.32	3494.42
447.51	3456.97
447.69	3522.51
447.88	3513.14
448.06	3426.54
448.25	3578.68
448.43	3487.40
448.62	3482.72
448.80	3552.93
448.99	3506.12
449.17	3599.74
449.36	3707.41
449.54	3552.93
449.73	3742.52
449.91	3756.56
450.10	3819.75
450.28	3691.02
450.46	3691.02
450.65	3702.73
450.83	3840.82
451.02	3660.60
451.20	3796.35
451.39	3632.51
451.57	3810.39
451.76	3885.29
451.94	3824.44
452.13	4044.45
452.31	3854.86
452.49	3639.53
452.68	3960.19
452.86	3955.51
453.05	3939.12
453.23	3899.33
453.42	3911.04
453.60	3906.35
453.78	3815.07
453.97	3735.50
454.15	3892.31
454.34	3824.44
454.52	3927.42
454.70	4067.85
454.89	3992.95
455.07	3894.65
455.26	4011.68
455.44	4145.09
455.62	3988.27
455.81	4009.34
455.99	4131.05
456.17	4135.73
456.36	4161.47
456.54	4135.73
456.73	4088.92
456.91	4393.19
457.09	4264.46
457.28	4280.84
457.46	4273.82
457.64	4280.84
457.83	4236.37
458.01	4210.62
458.19	4432.97
458.38	4362.76
458.56	4493.83
458.74	4430.63
458.93	4358.08
459.11	4437.66
459.29	4486.81
459.48	4552.34
459.66	4477.44
459.84	4463.40
460.03	4500.85
460.21	4407.23
460.39	4479.79
460.57	4456.38
460.76	4496.17
460.94	4465.74
461.12	4468.08
461.31	4550.00
461.49	4629.58
461.67	4465.74
461.85	4716.18
462.04	4699.80
462.22	4624.90
462.40	4770.01
462.59	4760.65
462.77	4751.29
462.95	4858.95
463.13	4725.54
463.32	4854.27
463.50	4704.48
463.68	4851.93
463.86	4805.12
464.05	4755.97
464.23	4725.54
464.41	4833.21
464.59	4786.40
464.78	4910.44
464.96	4933.85
465.14	4915.12
465.32	5020.45
465.50	5074.28
465.69	4978.32
465.87	5006.41
466.05	4959.60
466.23	4999.38
466.41	4926.83
466.60	5109.39
466.78	5081.30
466.96	5018.11
467.14	4889.38
467.32	5088.32
467.51	5088.32
467.69	5020.45
467.87	5123.43
468.05	5193.65
468.23	5041.51
468.41	5095.35
468.60	5181.95
468.78	5315.36
468.96	5144.50
469.14	5097.69
469.32	5219.39
469.50	5207.69
469.69	5448.77
469.87	5315.36
470.05	5572.82
470.23	5179.61
470.41	5259.18
470.59	5322.38
470.77	5322.38
470.95	5467.49
471.14	5584.52
471.32	5418.34
471.50	5626.65
471.68	5465.15
471.86	5584.52
472.04	5743.67
472.22	5678.14
472.40	5717.93
472.58	5839.64
472.77	5741.33
472.95	5799.85
473.13	5891.13
473.31	5785.80
473.49	5767.08
473.67	5811.55
473.85	5870.06
474.03	5909.85
474.21	5820.91
474.39	5961.34
474.57	5940.28
474.75	6087.73
474.93	6066.67
475.12	6237.53
475.30	6031.56
475.48	6232.85
475.66	6286.68
475.84	6099.44
476.02	6366.26
476.20	6345.19
476.38	6408.39
476.56	6553.50
476.74	6637.76
476.92	6562.86
477.10	6483.28
477.28	6626.06
477.46	6497.33
477.64	6431.79
477.82	6705.63
478.00	6731.38
478.18	6841.39
478.36	6986.50
478.54	7040.33
478.72	7162.04
478.90	7150.34
479.08	7068.42
479.26	7126.93
479.44	7286.09
479.62	7323.54
479.80	7360.98
479.98	7368.01
480.16	7550.57
480.34	7573.97
480.52	7585.68
480.70	7496.74
480.88	7686.32
481.06	7609.08
481.24	7576.31
481.41	7777.60
481.59	7903.99
481.77	7864.20
481.95	7920.37
482.13	8168.47
482.31	8042.08
482.49	8215.28
482.67	8222.30
482.85	8404.86
483.03	8365.07
483.21	8479.76
483.39	8374.44
483.57	8449.33
483.74	8608.49
483.92	8784.03
484.10	8599.13
484.28	8793.39
484.46	8964.25
484.64	8936.17
484.82	8837.86
485.00	9083.62
485.18	9202.99
485.35	9217.03
485.53	9310.65
485.71	9366.82
485.89	9696.84
486.07	9619.60
486.25	9607.90
486.43	9755.35
486.61	9776.42
486.78	9853.66
486.96	9753.01
487.14	10033.88
487.32	10176.65
487.50	9937.91
487.68	10076.01
487.85	10270.27
488.03	10401.34
488.21	10417.72
488.39	10410.70
488.57	10616.67
488.75	10665.82
488.92	10832.00
489.10	10972.43
489.28	10686.89
489.46	10981.79
489.64	10934.98
489.81	11136.27
489.99	11037.97
490.17	11187.76
490.35	11541.18
490.53	11438.20
490.70	11644.17
490.88	11803.32
491.06	11606.72
491.24	11793.96
491.41	11775.24
491.59	11894.60
491.77	12138.02
491.95	12013.97
492.13	11948.43
492.30	12049.08
492.48	12212.92
492.66	12306.54
492.84	12306.54
493.01	12318.24
493.19	12175.47
493.37	12599.10
493.54	12622.51
493.72	12912.74
493.90	13027.42
494.08	12793.37
494.25	13156.15
494.43	12973.59
494.61	13256.79
494.79	13362.12
494.96	13345.73
495.14	13376.16
495.32	13507.23
495.49	13500.21
495.67	13462.76
495.85	13743.63
496.02	13699.16
496.20	13930.87
496.38	13743.63
496.55	13991.72
496.73	14111.09
496.91	13965.98
497.09	14565.15
497.26	14214.07
497.44	14106.41
497.62	14202.37
497.79	14324.08
497.97	14228.12
498.14	14698.56
498.32	14597.92
498.50	14518.34
498.67	14906.87
498.85	14738.35
499.03	14911.55
499.20	14949.00
499.38	14970.07
499.56	15154.97
499.73	15030.92
499.91	15236.89
500.08	15255.61
500.26	15096.46
500.44	15297.74
500.61	15302.42
500.79	15410.09
500.97	15557.54
501.14	15857.13
501.32	15719.04
501.49	15735.42
501.67	15920.32
501.84	15829.04
502.02	15712.02
502.20	16002.24
502.37	16266.72
502.55	16020.97
502.72	16294.81
502.90	16217.57
503.07	16121.61
503.25	16308.85
503.43	16121.61
503.60	16617.80
503.78	16482.05
503.95	16629.51
504.13	16388.43
504.30	16582.70
504.48	16365.03
504.65	16608.44
504.83	16531.20
505.01	16678.66
505.18	16872.92
505.36	17069.53
505.53	16884.62
505.71	16767.60
505.88	16982.93
506.06	16840.15
506.23	17268.47
506.41	17345.71
506.58	17090.59
506.76	17247.41
506.93	17369.12
507.11	17329.33
507.28	17404.22
507.46	17488.48
507.63	17830.20
507.81	17823.18
507.98	17893.40
508.16	17781.05
508.33	17916.80
508.50	17916.80
508.68	17898.08
508.85	17785.73
509.03	17926.16
509.20	18029.15
509.38	17991.70
509.55	18146.17
509.73	18256.18
509.90	18171.92
510.08	18326.39
510.25	18452.78
510.42	18164.90
510.60	18398.95
510.77	18565.13
510.95	18904.51
511.12	18490.23
511.30	18436.40
511.47	18707.90
511.64	18614.28
511.82	18925.57
511.99	18743.01
512.17	18700.88
512.34	19087.07
512.51	19094.09
512.69	19131.54
512.86	19206.44
513.04	19173.67
513.21	19176.01
513.38	19288.35
513.56	19227.50
513.73	19290.70
513.90	19447.51
514.08	19510.71
514.25	19576.24
514.43	19651.14
514.60	19627.73
514.77	19719.01
514.95	19800.93
515.12	19515.39
515.29	19625.39
515.47	19803.27
515.64	19983.49
515.81	19812.63
515.99	20250.32
516.16	20011.58
516.33	20212.87
516.51	20362.66
516.68	20018.60
516.85	20418.83
517.03	20112.22
517.20	20477.35
517.37	20334.57
517.54	20325.21
517.72	20428.20
517.89	20601.40
518.06	20465.64
518.24	20561.61
518.41	20395.43
518.58	20776.94
518.75	20507.77
518.93	20744.17
519.10	20882.26
519.27	21022.69
519.45	20861.19
519.62	20917.37
519.79	21015.67
519.96	20982.90
520.14	21436.97
520.31	20931.41
520.48	21186.53
520.65	21158.44
520.83	21132.70
521.00	21287.17
521.17	21156.10
521.34	21385.47
521.52	21275.47
521.69	21390.16
521.86	21605.49
522.03	21631.23
522.20	21420.58
522.38	21795.07
522.55	21497.82
522.72	21818.47
522.89	21975.29
523.07	21759.96
523.24	21900.39
523.41	22384.88
523.58	21816.13
523.75	21844.22
523.92	21656.98
524.10	22132.11
524.27	21874.65
524.44	22005.72
524.61	22422.33
524.78	22155.51
524.96	22345.09
525.13	22300.62
525.30	22253.81
525.47	22274.88
525.64	22157.85
525.81	22424.67
525.98	22611.92
526.16	22583.83
526.33	22913.84
526.50	22916.19
526.67	22466.80
526.84	22738.30
527.01	22740.64
527.18	22670.43
527.36	22979.38
527.53	23007.47
527.70	23222.80
527.87	23283.65
528.04	23077.68
528.21	23110.45
528.38	23084.70
528.55	23503.66
528.72	23290.67
528.89	23215.77
529.07	23257.90
529.24	23281.31
529.41	23585.58
529.58	23288.33
529.75	23101.09
529.92	23283.65
530.09	23288.33
530.26	23606.64
530.43	23503.66
530.60	23716.65
530.77	23342.16
530.94	23459.19
531.11	23541.11
531.28	23758.78
531.46	23594.94
531.63	23735.37
531.80	24091.13
531.97	23922.62
532.14	23974.11
532.31	23929.64
532.48	23676.86
532.65	24404.77
532.82	24084.11
532.99	24009.22
533.16	24013.90
533.33	24521.79
533.50	24292.42
533.67	24299.44
533.84	24240.93
534.01	24032.62
534.18	23964.75
534.35	24435.19
534.52	24570.94
534.69	24526.47
534.86	24706.70
535.03	24379.02
535.20	24430.51
535.37	24662.22
535.54	24577.97
535.71	24482.00
535.88	24381.36
536.05	24346.25
536.22	25111.61
536.38	25006.28
536.55	24690.31
536.72	24500.73
536.89	24809.68
537.06	24519.45
537.23	24734.78
537.40	24879.89
537.57	24959.47
537.74	24805.00
537.91	24905.64
538.08	25146.72
538.25	25041.39
538.42	24952.45
538.59	25291.83
538.75	24924.36
538.92	25167.78
539.09	25301.19
539.26	25261.40
539.43	25371.41
539.60	25525.88
539.77	25406.52
539.94	25671.00
540.11	25223.95
540.28	25516.52
540.44	25474.39
540.61	25355.02
540.78	25401.83
540.95	25668.66
541.12	25724.83
541.29	25696.74
541.46	25378.43
541.62	25240.34
541.79	25680.36
541.96	25404.17
542.13	25525.88
542.30	25804.41
542.47	25891.01
542.63	25947.18
542.80	26174.21
542.97	26113.36
543.14	26333.37
543.31	25944.84
543.48	26129.74
543.64	26274.85
543.81	26431.67
543.98	25989.31
544.15	26487.84
544.32	26209.32
544.48	26560.40
544.65	26408.26
544.82	26434.01
544.99	26403.58
545.16	26288.90
545.32	26162.51
545.49	26562.74
545.66	26780.41
545.83	26565.08
546.00	26923.18
546.16	26562.74
546.33	26380.18
546.50	26693.81
546.67	26757.00
546.83	26277.19
547.00	26583.80
547.17	26654.02
547.34	26923.18
547.50	27028.51
547.67	27257.88
547.84	27180.64
548.00	26960.63
548.17	27019.14
548.34	27161.92
548.51	27180.64
548.67	27047.23
548.84	26808.50
549.01	26984.04
549.18	27159.58
549.34	27117.45
549.51	26754.66
549.68	26808.50
549.84	27147.87
550.01	27070.64
550.18	27082.34
550.34	27407.67
550.51	27309.37
550.68	27204.05
550.84	27201.71
551.01	27229.79
551.18	27260.22
551.34	27166.60
551.51	27644.07
551.68	27283.62
551.84	27461.51
552.01	27393.63
552.18	27672.15
552.34	27365.54
552.51	27702.58
552.68	27424.06
552.84	27627.68
553.01	27599.60
553.18	27604.28
553.34	27850.03
553.51	27700.24
553.67	27978.76
553.84	28018.55
554.01	27803.22
554.17	28034.94
554.34	28149.62
554.51	27658.11
554.67	27646.41
554.84	27655.77
555.00	27950.68
555.17	27899.19
555.33	27861.74
555.50	28196.43
555.67	27639.39
555.83	27967.06
556.00	28142.60
556.16	28210.48
556.33	27931.95
556.50	28023.23
556.66	28535.81
556.83	28119.20
556.99	28339.21
557.16	28599.01
557.32	28329.84
557.49	28641.14
557.65	28470.28
557.82	28252.61
557.98	28142.60
558.15	28060.68
558.32	28535.81
558.48	28393.04
558.65	28765.18
558.81	28336.87
558.98	28676.24
559.14	28327.50
559.31	28212.82
559.47	28013.87
559.64	28095.79
559.80	28481.98
559.97	28589.64
560.13	28692.63
560.30	28121.54
560.46	28339.21
560.63	28577.94
560.79	28418.78
560.96	28648.16
561.12	28535.81
561.29	28386.02
561.45	28709.01
561.61	28788.59
561.78	28617.73
561.94	28858.81
562.11	28666.88
562.27	28947.75
562.44	28737.10
562.60	28397.72
562.77	28620.07
562.93	28407.08
563.10	28552.20
563.26	28746.46
563.42	28912.64
563.59	28549.85
563.75	28854.12
563.92	28762.84
564.08	28393.04
564.24	28570.92
564.41	28573.26
564.57	28767.52
564.74	28676.24
564.90	29160.73
565.07	29212.23
565.23	29074.13
565.39	28879.87
565.56	28828.38
565.72	28870.51
565.88	29102.22
566.05	28872.85
566.21	28957.11
566.38	28811.99
566.54	28786.25
566.70	29392.45
566.87	29029.66
567.03	29036.69
567.19	29586.71
567.36	29149.03
567.52	29099.88
567.68	28950.09
567.85	29170.10
568.01	29158.39
568.17	28917.32
568.34	28975.83
568.50	29287.12
568.66	29179.46
568.83	29544.58
568.99	29036.69
569.15	29289.46
569.32	29039.03
569.48	29111.58
569.64	29181.80
569.81	29172.44
569.97	29397.13
570.13	29289.46
570.30	28910.30
570.46	29455.64
570.62	29247.33
570.78	29214.57
570.95	29465.00
571.11	29441.60
571.27	29083.50
571.43	29144.35
571.60	29282.44
571.76	29450.96
571.92	28989.88
572.09	29015.62
572.25	29359.68
572.41	29137.33
572.57	29696.72
572.74	29465.00
572.90	29013.28
573.06	29027.32
573.22	29273.08
573.38	29579.69
573.55	29546.92
573.71	29699.06
573.87	29310.53
574.03	29296.49
574.20	29420.53
574.36	29507.13
574.52	29544.58
574.68	29343.30
574.84	29294.14
575.01	29701.40
575.17	29455.64
575.33	29357.34
575.49	28905.62
575.65	29289.46
575.82	29525.86
575.98	29589.05
576.14	29572.67
576.30	29385.43
576.46	29249.67
576.62	29001.58
576.79	29062.43
576.95	29692.04
577.11	29879.28
577.27	29514.16
577.43	29883.96
577.59	29577.35
577.75	29621.82
577.92	29207.55
578.08	29205.20
578.24	29614.80
578.40	29738.85
578.56	29612.46
578.72	29429.90
578.88	29860.55
579.04	29486.07
579.21	29350.32
579.37	29720.12
579.53	29689.70
579.69	29729.48
579.85	29532.88
580.01	29752.89
580.17	29509.47
580.33	29589.05
580.49	29340.96
580.65	29720.12
580.82	29273.08
580.98	29565.65
581.14	29474.37
581.30	29780.98
581.46	29516.50
581.62	29745.87
581.78	29467.34
581.94	29305.85
582.10	29699.06
582.26	29422.87
582.42	29928.43
582.58	29816.08
582.74	29846.51
582.90	29855.87
583.06	29706.08
583.22	29535.22
583.38	29848.85
583.54	29780.98
583.70	29668.63
583.86	29907.37
584.02	29528.20
584.18	29490.75
584.34	29944.81
584.50	29876.94
584.66	30057.16
584.82	29324.57
584.98	29610.12
585.14	29680.33
585.30	29626.50
585.46	29703.74
585.62	29528.20
585.78	29968.22
585.94	29436.92
586.10	29628.84
586.26	29738.85
586.42	29839.49
586.58	29844.17
586.74	29715.44
586.90	29687.36
587.06	29362.02
587.22	29825.45
587.38	29495.43
587.54	30092.27
587.70	29855.87
587.86	29879.28
588.02	29890.98
588.18	30022.05
588.34	30073.54
588.49	30061.84
588.65	29905.02
588.81	30080.56
588.97	29713.10
589.13	29631.18
589.29	29991.62
589.45	29907.37
589.61	30263.13
589.77	29806.72
589.93	30356.75
590.08	30216.32
590.24	30321.64
590.40	30225.68
590.56	30209.29
590.72	29699.06
590.88	29591.39
591.04	29724.80
591.20	30113.33
591.35	29841.83
591.51	30345.05
591.67	30541.65
591.83	30359.09
591.99	30054.82
592.15	29799.70
592.31	29879.28
592.46	30008.01
592.62	29708.42
592.78	30473.78
592.94	29675.65
593.10	29930.77
593.26	30529.95
593.41	30017.37
593.57	29993.97
593.73	30174.19
593.89	30061.84
594.05	29881.62
594.20	29844.17
594.36	30319.30
594.52	30209.29
594.68	30019.71
594.84	30015.03
594.99	30106.31
595.15	30047.80
595.31	30567.40
595.47	30487.82
595.62	30576.76
595.78	30089.93
595.94	30216.32
596.10	29867.58
596.25	30153.12
596.41	29766.93
596.57	30356.75
596.73	30307.60
596.88	30228.02
597.04	30457.39
597.20	30338.02
597.36	30431.65
597.51	30342.70
597.67	30026.73
597.83	29977.58
597.99	30576.76
598.14	30101.63
598.30	30120.35
598.46	30471.43
598.61	30618.89
598.77	29797.36
598.93	30560.37
599.09	30307.60
599.24	30616.55
599.40	30305.26
599.56	30408.24
599.71	30455.05
599.87	30305.26
600.03	30375.47
600.18	30316.96
600.34	30195.25
600.50	30019.71
600.65	30251.42
600.81	30565.06
600.97	30661.02
601.12	30349.73
601.28	30469.09
601.44	30866.98
601.59	30494.84
601.75	30122.69
601.91	30389.52
602.06	30118.01
602.22	29984.60
602.37	30338.02
602.53	30246.74
602.69	30553.35
602.84	30504.20
603.00	30408.24
603.16	30637.61
603.31	30415.26
603.47	30508.88
603.62	30340.36
603.78	30499.52
603.94	29851.19
604.09	29993.97
604.25	30132.06
604.40	30195.25
604.56	30235.04
604.71	30323.98
604.87	30239.72
605.03	30511.22
605.18	30349.73
605.34	30431.65
605.49	30146.10
605.65	30176.53
605.80	29778.64
605.96	30155.46
606.12	30125.04
606.27	30656.34
606.43	30155.46
606.58	30352.07
606.74	30125.04
606.89	30223.34
607.05	30057.16
607.20	30326.32
607.36	30515.90
607.51	30464.41
607.67	30192.91
607.82	30146.10
607.98	30221.00
608.13	30307.60
608.29	30089.93
608.44	30080.56
608.60	30155.46
608.75	30057.16
608.91	30195.25
609.06	30150.78
609.22	29984.60
609.37	30010.35
609.53	30197.59
609.68	29724.80
609.84	29998.65
609.99	29493.09
610.15	29869.92
610.30	30265.47
610.46	30277.17
610.61	30160.14
610.76	30108.65
610.92	30017.37
611.07	30106.31
611.23	29851.19
611.38	29970.56
611.54	29652.25
611.69	29872.26
611.84	29647.57
612.00	29933.11
612.15	29465.00
612.31	29893.32
612.46	29792.68
612.62	29472.03
612.77	29729.48
612.92	29905.02
613.08	29670.97
613.23	30085.25
613.39	30015.03
613.54	29666.29
613.69	29628.84
613.85	29865.24
614.00	29685.01
614.15	29972.90
614.31	29502.45
614.46	29729.48
614.62	29706.08
614.77	29785.66
614.92	29963.54
615.08	29677.99
615.23	29766.93
615.38	29818.42
615.54	29294.14
615.69	29509.47
615.84	29853.53
616.00	29294.14
616.15	29369.04
616.30	29584.37
616.46	29324.57
616.61	29914.39
616.76	29432.24
616.92	29582.03
617.07	29387.77
617.22	29422.87
617.37	29380.74
617.53	29556.28
617.68	29188.82
617.83	29228.61
617.99	29549.26
618.14	29294.14
618.29	29209.89
618.45	29387.77
618.60	29434.58
618.75	29457.98
618.90	29591.39
619.06	29397.13
619.21	29350.32
619.36	29483.73
619.51	29357.34
619.67	29130.31
619.82	28819.02
619.97	29116.26
620.12	29181.80
620.28	29006.26
620.43	29083.50
620.58	29172.44
620.73	29240.31
620.89	29179.46
621.04	29193.50
621.19	29071.79
621.34	28959.45
621.49	28720.71
621.65	28959.45
621.80	29083.50
621.95	28744.12
622.10	28940.72
622.25	28914.98
622.41	28833.06
622.56	28664.54
622.71	29118.60
622.86	28648.16
623.01	28863.49
623.16	28823.70
623.32	28762.84
623.47	28907.96
623.62	28842.42
623.77	28643.48
623.92	28575.60
624.07	28762.84
624.23	28669.22
624.38	29233.29
624.53	28842.42
624.68	28882.21
624.83	29034.35
624.98	28718.37
625.13	28374.31
625.29	28833.06
625.44	28903.28
625.59	28706.67
625.74	28191.75
625.89	28276.01
626.04	28367.29
626.19	28280.69
626.34	28526.45
626.49	28388.36
626.65	28341.55
626.80	28783.91
626.95	28669.22
627.10	28371.97
627.25	28524.11
627.40	28119.20
627.55	28126.22
627.70	28285.37
627.85	28102.81
628.00	28435.17
628.15	28020.89
628.30	28056.00
628.45	27718.96
628.60	28112.17
628.76	27953.02
628.91	28189.41
629.06	28231.54
629.21	28121.54
629.36	28095.79
629.51	28182.39
629.66	27697.90
629.81	27725.99
629.96	27964.72
630.11	27782.16
630.26	27791.52
630.41	27995.15
630.56	27948.34
630.71	28058.34
630.86	27824.29
631.01	27821.95
631.16	28166.01
631.31	27924.93
631.46	27594.92
631.61	28006.85
631.76	27786.84
631.91	27995.15
632.06	27632.36
632.21	27768.12
632.36	28018.55
632.51	27704.92
632.66	27721.30
632.81	27775.14
632.96	27775.14
633.10	27981.10
633.25	27604.28
633.40	27946.00
633.55	27695.56
633.70	27470.87
633.85	27452.14
634.00	27276.60
634.15	27208.73
634.30	27545.76
634.45	27756.41
634.60	27166.60
634.75	27800.88
634.90	27498.95
635.05	27096.38
635.19	27363.20
635.34	27084.68
635.49	26998.08
635.64	27466.19
635.79	27351.50
635.94	27733.01
636.09	27292.99
636.24	27424.06
636.39	27417.04
636.53	27204.05
636.68	27346.82
636.83	26778.07
636.98	27498.95
637.13	27185.32
637.28	27288.31
637.43	27454.48
637.57	27510.66
637.72	27513.00
637.87	27283.62
638.02	27080.00
638.17	27239.15
638.32	26787.43
638.46	26782.75
638.61	26883.39
638.76	26803.82
638.91	26864.67
639.06	27239.15
639.20	26895.10
639.35	27269.58
639.50	27138.51
639.65	26998.08
639.80	26998.08
639.94	26986.38
640.09	26892.76
640.24	26803.82
640.39	27140.85
640.54	26995.74
640.68	26677.43
640.83	26789.77
640.98	26684.45
641.13	26370.82
641.27	26813.18
641.42	26874.03
641.57	26930.20
641.72	26895.10
641.86	26635.30
642.01	26656.36
642.16	26469.12
642.31	26616.57
642.45	26668.06
642.60	26536.99
642.75	26141.44
642.90	26429.33
643.04	26452.73
643.19	26211.66
643.34	26644.66
643.48	26471.46
643.63	26541.68
643.78	26602.53
643.93	26829.56
644.07	26506.57
644.22	26480.82
644.37	26321.66
644.51	26199.96
644.66	26518.27
644.81	26174.21
644.95	26394.22
645.10	26038.46
645.25	26214.00
645.39	26225.70
645.54	26031.44
645.69	26443.37
645.83	26347.41
645.98	26476.14
646.13	26214.00
646.27	26600.19
646.42	26368.48
646.57	26394.22
646.71	26335.71
646.86	26143.78
647.00	25968.24
647.15	26008.03
647.30	25907.39
647.44	25921.43
647.59	26040.80
647.74	25979.95
647.88	25921.43
648.03	26319.32
648.17	25979.95
648.32	26101.65
648.47	26345.07
648.61	25734.19
648.76	25986.97
648.90	26441.03
649.05	25940.16
649.20	25736.53
649.34	26022.08
649.49	25495.46
649.63	25755.26
649.78	25692.06
649.92	25837.17
650.07	25935.48
650.21	25827.81
650.36	25867.60
650.51	25507.16
650.65	25785.68
650.80	25631.21
650.94	25689.72
651.09	25687.38
651.23	25792.70
651.38	25619.50
651.52	25523.54
651.67	25359.70
651.81	25303.53
651.96	25773.98
652.10	25727.17
652.25	25715.47
652.39	25493.12
652.54	25640.57
652.68	25624.18
652.83	25565.67
652.97	25881.64
653.12	25649.93
653.26	25530.56
653.41	25462.69
653.55	25502.48
653.70	25427.58
653.84	24943.09
653.99	25106.93
654.13	25443.96
654.27	25418.22
654.42	25273.10
654.56	25233.32
654.71	25256.72
654.85	25006.28
655.00	25280.13
655.14	25385.45
655.29	25149.06
655.43	24915.00
655.57	25247.36
655.72	25067.14
655.86	25046.07
656.01	25099.90
656.15	25025.01
656.30	25095.22
656.44	25127.99
656.58	25149.06
656.73	24961.81
656.87	25163.10
657.01	25160.76
657.16	25137.35
657.30	25081.18
657.45	24463.28
657.59	25013.31
657.73	24809.68
657.88	25076.50
658.02	24884.58
658.16	24622.44
658.31	24631.80
658.45	24528.81
658.60	24528.81
658.74	24610.73
658.88	24884.58
659.03	24173.05
659.17	24613.07
659.31	24910.32
659.46	24680.95
659.60	24762.87
659.74	24465.62
659.89	24287.74
660.03	24397.74
660.17	24245.61
660.32	24374.34
660.46	24259.65
660.60	23957.72
660.74	23871.12
660.89	24386.04
661.03	24112.20
661.17	24123.90
661.32	24056.03
661.46	24631.80
661.60	23924.96
661.74	24245.61
661.89	24364.98
662.03	24318.17
662.17	24032.62
662.31	24037.30
662.46	23974.11
662.60	24151.99
662.74	24079.43
662.88	23599.62
663.03	23644.09
663.17	23410.04
663.31	23510.68
663.45	23728.35
663.60	23576.22
663.74	23407.70
663.88	23623.03
664.02	23852.40
664.17	23777.50
664.31	23388.97
664.45	23583.24
664.59	23330.46
664.73	23726.01
664.88	23557.49
665.02	23112.79
665.16	23044.91
665.30	23410.04
665.44	23030.87
665.59	23136.20
665.73	23260.24
665.87	22993.42
666.01	23096.41
666.15	23246.20
666.29	23342.16
666.44	22637.66
666.58	23016.83
666.72	22768.73
666.86	23215.77
667.00	23498.98
667.14	23307.05
667.28	23061.30
667.43	23096.41
667.57	22888.10
667.71	22913.84
667.85	22855.33
667.99	22967.68
668.13	22817.88
668.27	23040.23
668.41	22782.77
668.56	22398.93
668.70	22735.96
668.84	22595.53
668.98	22506.59
669.12	22541.70
669.26	22726.60
669.40	22427.01
669.54	22361.48
669.68	22197.64
669.82	22176.58
669.96	22160.19
670.10	22071.25
670.25	22026.78
670.39	21947.20
670.53	21898.05
670.67	21942.52
670.81	22108.70
670.95	21954.22
671.09	21785.71
671.23	22237.43
671.37	22293.60
671.51	22036.14
671.65	22129.77
671.79	21820.81
671.93	21795.07
672.07	21713.15
672.21	21731.87
672.35	21261.43
672.49	21561.02
672.63	21397.18
672.77	21205.25
672.91	21481.44
673.05	21163.12
673.19	21848.90
673.33	21579.74
673.47	21469.73
673.61	21296.53
673.75	21282.49
673.89	21724.85
674.03	21231.00
674.17	21418.24
674.31	21102.27
674.45	21179.51
674.59	21329.30
674.73	21380.79
674.87	21081.21
675.01	20905.66
675.15	20872.90
675.29	20505.43
675.43	20805.02
675.56	20671.61
675.70	20507.77
675.84	20631.82
675.98	20159.03
676.12	20940.77
676.26	20730.12
676.40	20533.52
676.54	20561.61
676.68	20395.43
676.82	20168.40
676.96	20318.19
677.10	20247.97
677.23	20196.48
677.37	20093.50
677.51	20009.24
677.65	19974.13
677.79	19805.61
677.93	19454.53
678.07	19702.63
678.21	19681.56
678.34	19669.86
678.48	19637.09
678.62	19662.84
678.76	19601.99
678.90	19510.71
679.04	19227.50
679.18	19559.86
679.31	19037.92
679.45	19211.12
679.59	18897.49
679.73	18960.68
679.87	18803.86
680.00	19061.32
680.14	18806.20
680.28	18661.09
680.42	18682.16
680.56	18860.04
680.70	18787.48
680.83	18724.29
680.97	18448.10
681.11	18876.42
681.25	18513.64
681.39	18766.42
681.52	18473.85
681.66	18445.76
681.80	18143.83
681.94	18200.01
682.07	18300.65
682.21	18324.05
682.35	17930.84
682.49	17881.69
682.62	17862.97
682.76	17729.56
682.90	17748.28
683.04	17965.95
683.17	17813.82
683.31	18031.49
683.45	17689.77
683.59	17755.30
683.72	17720.20
683.86	17584.44
684.00	17434.65
684.13	17378.48
684.27	17191.23
684.41	17231.02
684.55	16954.84
684.68	17081.23
684.82	16931.44
684.96	17013.35
685.09	17088.25
685.23	17076.55
685.37	16905.69
685.50	17132.72
685.64	16896.33
685.78	17090.59
685.91	16912.71
686.05	16826.11
686.19	16828.45
686.32	16786.32
686.46	16535.88
686.60	16472.69
686.73	16367.37
686.87	16393.11
687.01	16074.80
687.14	16114.59
687.28	16058.42
687.42	16128.63
687.55	15943.73
687.69	16060.76
687.82	15782.23
687.96	16175.44
688.10	16093.52
688.23	15948.41
688.37	15756.49
688.50	15871.17
688.64	15690.95
688.78	15758.83
688.91	15620.74
689.05	15578.61
689.18	15442.85
689.32	15410.09
689.46	15377.32
689.59	15389.02
689.73	15400.72
689.86	15066.03
690.00	15073.05
690.13	15330.51
690.27	15293.06
690.41	15051.99
690.54	15147.95
690.68	14937.30
690.81	15066.03
690.95	15068.37
691.08	14958.36
691.22	14956.02
691.35	14855.38
691.49	14656.43
691.62	14782.82
691.76	14410.68
691.89	14324.08
692.03	14274.93
692.16	14155.56
692.30	14083.00
692.43	14251.52
692.57	14167.26
692.70	13940.23
692.84	14324.08
692.97	14120.45
693.11	14188.33
693.24	14068.96
693.38	14075.98
693.51	13717.88
693.65	13965.98
693.78	13788.10
693.92	13685.11
694.05	13647.66
694.19	13453.40
694.32	13451.06
694.45	13341.05
694.59	13385.52
694.72	13142.11
694.86	13060.19
694.99	13207.64
695.13	13104.66
695.26	13177.22
695.39	12760.60
695.53	13034.44
695.66	12959.55
695.80	13109.34
695.93	13092.96
696.07	13111.68
696.20	13137.43
696.33	12795.71
696.47	12786.35
696.60	12638.89
696.73	12837.84
696.87	12549.95
697.00	12568.68
697.14	12659.96
697.27	12343.99
697.40	12084.19
697.54	12154.40
697.67	12170.79
697.80	11953.12
697.94	11978.86
698.07	12037.38
698.21	11896.94
698.34	12091.21
698.47	11943.75
698.61	11960.14
698.74	11854.81
698.87	11885.24
699.01	11808.00
699.14	11508.41
699.27	11695.66
699.40	11653.53
699.54	11552.88
699.67	11499.05
699.80	11492.03
699.94	11119.89
700.07	11321.17
700.20	10916.26
700.34	10899.87
700.47	11281.38
700.60	11346.92
700.73	11152.65
700.87	11126.91
701.00	10930.30
701.13	10949.03
701.26	10984.13
701.40	10995.84
701.53	11019.24
701.66	10841.36
701.79	10656.46
701.93	10789.87
702.06	10548.79
702.19	10511.35
702.32	10743.06
702.46	10726.68
702.59	10424.75
702.72	10424.75
702.85	10239.84
702.99	10471.56
703.12	10289.00
703.25	10099.41
703.38	10183.67
703.51	10281.97
703.65	10064.30
703.78	10115.80
703.91	10050.26
704.04	10085.37
704.17	10010.47
704.31	10125.16
704.44	10113.45
704.57	9736.63
704.70	9603.22
704.83	9790.46
704.96	9844.29
705.10	9788.12
705.23	9598.54
>>>>>End Processed Spectral Data<<<<<
