SpectraSuite Data File
++++++++++++++++++++++++++++++++++++
Date: Fri Oct 18 13:58:29 GMT-05:00 2013
User: bianchi
Dark Spectrum Present: No
Reference Spectrum Present: No
Number of Sampled Component Spectra: 1
Spectrometers: USB2+H05261
Integration Time (usec): 50000 (USB2+H05261)
Spectra Averaged: 1 (USB2+H05261)
Boxcar Smoothing: 0 (USB2+H05261)
Correct for Electrical Dark: No (USB2+H05261)
Strobe/Lamp Enabled: No (USB2+H05261)
Correct for Detector Non-linearity: No (USB2+H05261)
Correct for Stray Light: No (USB2+H05261)
Number of Pixels in Processed Spectrum: 2048
>>>>>Begin Processed Spectral Data<<<<<
365.73	0.00
365.92	0.00
366.12	0.00
366.32	0.00
366.52	0.00
366.72	0.00
366.91	0.00
367.11	0.00
367.31	0.00
367.51	0.00
367.70	0.00
367.90	0.00
368.10	0.00
368.30	0.00
368.49	0.00
368.69	0.00
368.89	0.00
369.09	0.00
369.28	0.00
369.48	0.00
369.68	0.00
369.87	0.00
370.07	0.00
370.27	0.00
370.47	0.00
370.66	11.70
370.86	74.90
371.06	131.07
371.25	74.90
371.45	128.73
371.65	154.48
371.84	194.26
372.04	145.11
372.24	196.60
372.44	161.50
372.63	163.84
372.83	170.86
373.03	203.63
373.22	154.48
373.42	217.67
373.62	238.73
373.81	117.03
374.01	212.99
374.21	168.52
374.40	283.20
374.60	292.57
374.79	266.82
374.99	238.73
375.19	250.44
375.38	231.71
375.58	374.49
375.78	280.86
375.97	283.20
376.17	280.86
376.37	257.46
376.56	266.82
376.76	245.76
376.95	248.10
377.15	264.48
377.35	257.46
377.54	236.39
377.74	266.82
377.93	241.08
378.13	290.23
378.33	318.31
378.52	299.59
378.72	257.46
378.91	308.95
379.11	259.80
379.31	322.99
379.50	304.27
379.70	365.12
379.89	351.08
380.09	264.48
380.28	339.38
380.48	341.72
380.68	313.63
380.87	266.82
381.07	339.38
381.26	332.36
381.46	325.33
381.65	330.02
381.85	318.31
382.04	334.70
382.24	330.02
382.43	337.04
382.63	290.23
382.83	341.72
383.02	386.19
383.22	369.80
383.41	292.57
383.61	372.15
383.80	367.46
384.00	369.80
384.19	372.15
384.39	341.72
384.58	360.44
384.78	411.93
384.97	416.62
385.17	365.12
385.36	353.42
385.56	400.23
385.75	395.55
385.95	407.25
386.14	416.62
386.34	341.72
386.53	360.44
386.72	421.30
386.92	409.59
387.11	437.68
387.31	409.59
387.50	383.85
387.70	404.91
387.89	351.08
388.09	475.13
388.28	390.87
388.48	440.02
388.67	430.66
388.86	362.78
389.06	407.25
389.25	489.17
389.45	423.64
389.64	465.77
389.84	428.32
390.03	482.15
390.22	543.00
390.42	416.62
390.61	416.62
390.81	500.87
391.00	510.24
391.19	505.56
391.39	531.30
391.58	454.06
391.78	435.34
391.97	550.03
392.16	507.90
392.36	547.69
392.55	550.03
392.75	547.69
392.94	550.03
393.13	528.96
393.33	521.94
393.52	519.60
393.71	517.26
393.91	507.90
394.10	594.50
394.29	533.64
394.49	573.43
394.68	603.86
394.88	594.50
395.07	596.84
395.26	564.07
395.46	613.22
395.65	648.33
395.84	617.90
396.04	660.03
396.23	730.25
396.42	664.71
396.62	685.78
396.81	662.37
397.00	608.54
397.19	655.35
397.39	613.22
397.58	645.99
397.77	688.12
397.97	695.14
398.16	660.03
398.35	734.93
398.55	636.63
398.74	655.35
398.93	683.44
399.12	606.20
399.32	645.99
399.51	699.82
399.70	695.14
399.90	800.46
400.09	765.36
400.28	725.57
400.47	767.70
400.67	784.08
400.86	746.63
401.05	751.31
401.24	837.91
401.44	798.12
401.63	812.17
401.82	795.78
402.01	795.78
402.21	758.33
402.40	770.04
402.59	805.14
402.78	889.40
402.97	765.36
403.17	826.21
403.36	882.38
403.55	828.55
403.74	868.34
403.93	873.02
404.13	884.72
404.32	938.55
404.51	868.34
404.70	924.51
404.89	840.25
405.09	856.64
405.28	896.43
405.47	1046.22
405.66	968.98
405.85	957.28
406.05	957.28
406.24	1013.45
406.43	924.51
406.62	1029.84
406.81	1064.94
407.00	1022.81
407.20	1041.54
407.39	966.64
407.58	1029.84
407.77	968.98
407.96	1041.54
408.15	1093.03
408.34	1064.94
408.54	1121.12
408.73	1095.37
408.92	1048.56
409.11	1153.88
409.30	1149.20
409.49	1121.12
409.68	1100.05
409.87	1123.46
410.07	1121.12
410.26	1179.63
410.45	1156.22
410.64	1181.97
410.83	1238.14
411.02	1217.08
411.21	1247.51
411.40	1210.06
411.59	1263.89
411.78	1226.44
411.98	1287.29
412.17	1315.38
412.36	1256.87
412.55	1313.04
412.74	1299.00
412.93	1291.98
413.12	1394.96
413.31	1284.95
413.50	1308.36
413.69	1371.55
413.88	1488.58
414.07	1472.20
414.26	1446.45
414.45	1507.30
414.64	1479.22
414.83	1563.48
415.02	1451.13
415.22	1451.13
415.41	1558.80
415.60	1509.65
415.79	1556.46
415.98	1680.50
416.17	1563.48
416.36	1509.65
416.55	1708.59
416.74	1621.99
416.93	1603.27
417.12	1619.65
417.31	1687.53
417.50	1629.01
417.69	1732.00
417.88	1703.91
418.07	1621.99
418.26	1783.49
418.45	1837.32
418.64	1769.44
418.83	1856.04
419.02	1783.49
419.21	1797.53
419.39	1928.60
419.58	1816.26
419.77	1764.76
419.96	1935.62
420.15	1830.30
420.34	1865.41
420.53	1928.60
420.72	1909.88
420.91	2033.93
421.10	1949.67
421.29	2022.22
421.48	1856.04
421.67	1998.82
421.86	1947.33
422.05	1961.37
422.24	1942.64
422.43	2047.97
422.61	1940.30
422.80	1996.48
422.99	2066.69
423.18	1968.39
423.37	2134.57
423.56	2080.74
423.75	1980.09
423.94	1933.28
424.13	1916.90
424.32	2015.20
424.50	1977.75
424.69	2069.03
424.88	2019.88
425.07	2054.99
425.26	1963.71
425.45	2005.84
425.64	1952.01
425.83	2031.58
426.01	2054.99
426.20	1961.37
426.39	2036.27
426.58	2101.80
426.77	2040.95
426.96	2069.03
427.15	2183.72
427.33	2083.08
427.52	2083.08
427.71	2183.72
427.90	2228.19
428.09	2157.97
428.28	2267.98
428.46	2303.09
428.65	2106.48
428.84	2242.23
429.03	2139.25
429.22	2237.55
429.40	2277.34
429.59	2218.83
429.78	2169.68
429.97	2111.16
430.16	2272.66
430.34	2305.43
430.53	2284.36
430.72	2256.28
430.91	2284.36
431.10	2277.34
431.28	2326.49
431.47	2441.18
431.66	2443.52
431.85	2279.68
432.03	2417.77
432.22	2380.32
432.41	2408.41
432.60	2534.80
432.79	2427.14
432.97	2487.99
433.16	2469.27
433.35	2443.52
433.54	2466.92
433.72	2581.61
433.91	2471.61
434.10	2497.35
434.28	2537.14
434.47	2567.57
434.66	2551.18
434.85	2551.18
435.03	2576.93
435.22	2509.05
435.41	2637.78
435.59	2649.49
435.78	2626.08
435.97	2590.97
436.16	2822.69
436.34	2661.19
436.53	2633.10
436.72	2766.51
436.90	2551.18
437.09	2708.00
437.28	2555.86
437.46	2836.73
437.65	2806.30
437.84	2726.72
438.02	2726.72
438.21	2712.68
438.40	2733.75
438.58	2808.64
438.77	2827.37
438.96	2839.07
439.14	2794.60
439.33	2937.37
439.52	3005.25
439.70	2913.97
439.89	2986.52
440.08	3157.38
440.26	3045.04
440.45	3047.38
440.63	2986.52
440.82	3028.65
441.01	3070.78
441.19	3040.36
441.38	3173.77
441.57	3145.68
441.75	3190.15
441.94	3253.34
442.12	3192.49
442.31	3178.45
442.50	3279.09
442.68	3276.75
442.87	3178.45
443.05	3337.60
443.24	3379.73
443.43	3372.71
443.61	3461.65
443.80	3499.10
443.98	3435.91
444.17	3201.85
444.35	3339.94
444.54	3454.63
444.73	3323.56
444.91	3396.12
445.10	3471.01
445.28	3332.92
445.47	3225.26
445.65	3428.88
445.84	3414.84
446.02	3487.40
446.21	3522.51
446.39	3396.12
446.58	3503.78
446.77	3566.98
446.95	3421.86
447.14	3239.30
447.32	3510.80
447.51	3480.38
447.69	3456.97
447.88	3520.17
448.06	3679.32
448.25	3393.78
448.43	3478.04
448.62	3407.82
448.80	3585.70
448.99	3581.02
449.17	3597.40
449.36	3618.47
449.54	3620.81
449.73	3613.79
449.91	3667.62
450.10	3681.66
450.28	3693.37
450.46	3754.22
450.65	3679.32
450.83	3786.99
451.02	3786.99
451.20	3733.15
451.39	3791.67
451.57	3749.54
451.76	3742.52
451.94	3627.83
452.13	3967.21
452.31	3812.73
452.49	3791.67
452.68	3831.46
452.86	3742.52
453.05	3826.78
453.23	3859.54
453.42	3889.97
453.60	4105.30
453.78	3953.16
453.97	3955.51
454.15	3871.25
454.34	3871.25
454.52	4030.40
454.70	3904.01
454.89	4098.28
455.07	4053.81
455.26	4072.53
455.44	4259.78
455.62	3950.82
455.81	4053.81
455.99	4147.43
456.17	4140.41
456.36	4121.68
456.54	4227.01
456.73	4217.65
456.91	4273.82
457.09	4301.90
457.28	4299.56
457.46	4217.65
457.64	4374.46
457.83	4301.90
458.01	4259.78
458.19	4477.44
458.38	4156.79
458.56	4447.02
458.74	4432.97
458.93	4299.56
459.11	4402.55
459.29	4407.23
459.48	4320.63
459.66	4442.34
459.84	4491.49
460.03	4521.92
460.21	4283.18
460.39	4505.53
460.57	4435.32
460.76	4498.51
460.94	4596.81
461.12	4699.80
461.31	4620.22
461.49	4547.66
461.67	4526.60
461.85	4711.50
462.04	4634.26
462.22	4725.54
462.40	4737.24
462.59	4791.08
462.77	4683.41
462.95	4685.75
463.13	4863.63
463.32	4922.15
463.50	4875.34
463.68	4816.82
463.86	4947.89
464.05	4739.58
464.23	4720.86
464.41	4954.91
464.59	4791.08
464.78	4868.31
464.96	5032.15
465.14	4901.08
465.32	4938.53
465.50	4980.66
465.69	5057.90
465.87	5013.43
466.05	4931.51
466.23	4758.31
466.41	5121.09
466.60	5071.94
466.78	5036.83
466.96	4990.02
467.14	4973.64
467.32	5060.24
467.51	5018.11
467.69	4940.87
467.87	5235.78
468.05	5011.09
468.23	4971.30
468.41	4999.38
468.60	5034.49
468.78	5261.52
468.96	5090.67
469.14	5298.97
469.32	5233.44
469.50	5231.10
469.69	5298.97
469.87	5427.70
470.05	5373.87
470.23	5446.43
470.41	5252.16
470.59	5446.43
470.77	5224.08
470.95	5579.84
471.14	5568.13
471.32	5359.83
471.50	5514.30
471.68	5511.96
471.86	5696.86
472.04	5549.41
472.22	5792.83
472.40	5614.95
472.58	5598.56
472.77	5769.42
472.95	5919.21
473.13	5916.87
473.31	5720.27
473.49	5799.85
473.67	5795.17
473.85	5877.09
474.03	5961.34
474.21	6024.54
474.39	6040.92
474.57	6029.22
474.75	6101.78
474.93	6176.67
475.12	6186.04
475.30	6167.31
475.48	6195.40
475.66	6235.19
475.84	6263.27
476.02	6328.81
476.20	6356.90
476.38	6387.32
476.56	6483.28
476.74	6602.65
476.92	6478.60
477.10	6583.93
477.28	6792.23
477.46	6691.59
477.64	6609.67
477.82	6925.65
478.00	6890.54
478.18	6979.48
478.36	6766.49
478.54	7005.22
478.72	6939.69
478.90	7094.16
479.08	7150.34
479.26	6995.86
479.44	7323.54
479.62	7318.86
479.80	7368.01
479.98	7220.55
480.16	7485.03
480.34	7229.91
480.52	7604.40
480.70	7503.76
480.88	7676.96
481.06	7831.43
481.24	7616.10
481.41	7801.01
481.59	8056.12
481.77	7976.55
481.95	7953.14
482.13	8119.32
482.31	8135.70
482.49	8346.35
482.67	8135.70
482.85	8446.99
483.03	8397.84
483.21	8388.48
483.39	8531.25
483.57	8629.56
483.74	8486.78
483.92	8613.17
484.10	8713.81
484.28	8903.40
484.46	9217.03
484.64	9041.49
484.82	9025.11
485.00	9135.11
485.18	9151.49
485.35	9432.36
485.53	9310.65
485.71	9432.36
485.89	9650.03
486.07	9612.58
486.25	9465.13
486.43	9607.90
486.61	9774.08
486.78	9907.49
486.96	9970.68
487.14	10228.14
487.32	9937.91
487.50	10230.48
487.68	10085.37
487.85	10211.76
488.03	10537.09
488.21	10326.44
488.39	10429.43
488.57	10705.61
488.75	10780.51
488.92	10682.20
489.10	10890.51
489.28	10974.77
489.46	11030.94
489.64	11028.60
489.81	11515.44
489.99	11346.92
490.17	11267.34
490.35	11379.68
490.53	11604.38
490.70	11597.35
490.88	11611.40
491.06	11625.44
491.24	11606.72
491.41	11819.71
491.59	11913.33
491.77	11882.90
491.95	12184.83
492.13	11997.59
492.30	12135.68
492.48	12156.74
492.66	12353.35
492.84	12114.61
493.01	12582.72
493.19	12479.74
493.37	12884.65
493.54	12624.85
493.72	12559.31
493.90	12973.59
494.08	12954.87
494.25	12896.35
494.43	13188.92
494.61	13163.17
494.79	13327.01
494.96	13163.17
495.14	13118.70
495.32	13256.79
495.49	13502.55
495.67	13465.10
495.85	13371.48
496.02	13678.09
496.20	13846.61
496.38	13783.41
496.55	13748.31
496.73	14511.32
496.91	14075.98
497.09	14211.73
497.26	14310.04
497.44	14143.86
497.62	14033.85
497.79	14422.38
497.97	14593.24
498.14	14370.89
498.32	14703.25
498.50	14869.42
498.67	14920.92
498.85	14995.81
499.03	14855.38
499.20	14813.25
499.38	14991.13
499.56	14834.32
499.73	15314.13
499.91	15398.38
500.08	15234.55
500.26	15295.40
500.44	15419.45
500.61	15414.77
500.79	15447.54
500.97	15499.03
501.14	15761.17
501.32	15681.59
501.49	15929.69
501.67	15681.59
501.84	15623.08
502.02	15625.42
502.20	15934.37
502.37	15922.66
502.55	15747.12
502.72	16210.55
502.90	16240.98
503.07	16226.93
503.25	16194.17
503.43	16049.05
503.60	16327.58
503.78	16568.65
503.95	16631.85
504.13	16519.50
504.30	16767.60
504.48	16601.42
504.65	16737.17
504.83	16662.27
505.01	17064.85
505.18	16933.78
505.36	17015.69
505.53	16954.84
505.71	16826.11
505.88	16910.37
506.06	16861.22
506.23	17242.73
506.41	17179.53
506.58	17238.05
506.76	17245.07
506.93	17280.18
507.11	17186.55
507.28	17415.93
507.46	17479.12
507.63	17649.98
507.81	17635.94
507.98	17474.44
508.16	17640.62
508.33	17715.51
508.50	17860.63
508.68	18040.85
508.85	18321.71
509.03	18090.00
509.20	18010.42
509.38	18281.92
509.55	18120.43
509.73	18263.20
509.90	18249.16
510.08	18326.39
510.25	18160.22
510.42	18696.20
510.60	18642.37
510.77	18595.56
510.95	18888.12
511.12	18242.14
511.30	18604.92
511.47	18670.45
511.64	18855.36
511.82	18892.80
511.99	18778.12
512.17	18984.09
512.34	19080.05
512.51	19187.71
512.69	19051.96
512.86	19381.98
513.04	19234.52
513.21	19278.99
513.38	19213.46
513.56	19253.25
513.73	19330.48
513.90	19707.31
514.08	19274.31
514.25	19524.75
514.43	19903.92
514.60	19506.02
514.77	19953.07
514.95	19641.78
515.12	19866.47
515.29	19606.67
515.47	19807.95
515.64	19805.61
515.81	19854.76
515.99	20266.70
516.16	20191.80
516.33	20278.40
516.51	20276.06
516.68	20269.04
516.85	20074.77
517.03	20074.77
517.20	20386.07
517.37	20444.58
517.54	20610.76
517.72	20386.07
517.89	20627.14
518.06	20262.02
518.24	20262.02
518.41	20587.35
518.58	20706.72
518.75	20723.10
518.93	20898.64
519.10	20573.31
519.27	20622.46
519.45	20870.56
519.62	20915.03
519.79	20821.41
519.96	21099.93
520.14	21160.78
520.31	20975.88
520.48	21486.12
520.65	20900.98
520.83	21109.29
521.00	21081.21
521.17	21245.04
521.34	21385.47
521.52	21301.22
521.69	21366.75
521.86	21649.96
522.03	22120.40
522.20	21542.29
522.38	21720.17
522.55	21860.60
522.72	21750.60
522.89	22071.25
523.07	21940.18
523.24	21979.97
523.41	22010.40
523.58	21921.46
523.75	21940.18
523.92	21879.33
524.10	22052.53
524.27	22424.67
524.44	22293.60
524.61	22239.77
524.78	22595.53
524.96	22424.67
525.13	22703.20
525.30	22412.97
525.47	22532.34
525.64	22377.86
525.81	22616.60
525.98	22759.37
526.16	22597.87
526.33	22789.80
526.50	22918.53
526.67	22705.54
526.84	22771.07
527.01	22728.94
527.18	22941.93
527.36	22618.94
527.53	23014.49
527.70	23082.36
527.87	23288.33
528.04	23044.91
528.21	22904.48
528.38	22824.90
528.55	23037.89
528.72	23063.64
528.89	23061.30
529.07	23253.22
529.24	23122.15
529.41	23463.87
529.58	23297.69
529.75	23190.03
529.92	23449.83
530.09	23129.17
530.26	23536.43
530.43	23480.25
530.60	23328.12
530.77	23503.66
530.94	23817.29
531.11	23271.95
531.28	23576.22
531.46	23604.30
531.63	23639.41
531.80	23655.79
531.97	23976.45
532.14	23779.84
532.31	23477.91
532.48	24011.56
532.65	24325.19
532.82	23969.43
532.99	24109.86
533.16	24091.13
533.33	24245.61
533.50	24554.56
533.67	24163.69
533.84	23983.47
534.01	24065.39
534.18	24084.11
534.35	24215.18
534.52	24306.46
534.69	24809.68
534.86	24648.18
535.03	24615.41
535.20	24479.66
535.37	24683.29
535.54	24559.24
535.71	24245.61
535.88	24524.13
536.05	24531.15
536.22	24563.92
536.38	25127.99
536.55	24889.26
536.72	24905.64
536.89	24891.60
537.06	24741.80
537.23	24872.87
537.40	24807.34
537.57	25132.67
537.74	25123.31
537.91	25247.36
538.08	25104.59
538.25	24865.85
538.42	25062.46
538.59	25078.84
538.75	24877.55
538.92	25163.10
539.09	24929.05
539.26	24938.41
539.43	25703.76
539.60	25135.01
539.77	25181.82
539.94	25357.36
540.11	25113.95
540.28	25252.04
540.44	25586.74
540.61	25455.67
540.78	25413.54
540.95	25514.18
541.12	25359.70
541.29	25647.59
541.46	25469.71
541.62	25305.87
541.79	25617.16
541.96	25603.12
542.13	25617.16
542.30	25586.74
542.47	25975.27
542.63	26017.40
542.80	26347.41
542.97	25876.96
543.14	26092.29
543.31	26038.46
543.48	26202.30
543.64	26103.99
543.81	26684.45
543.98	26522.95
544.15	26052.50
544.32	26656.36
544.48	26698.49
544.65	26064.21
544.82	26431.67
544.99	26314.64
545.16	26644.66
545.32	26169.53
545.49	26663.38
545.66	26724.24
545.83	26602.53
546.00	26546.36
546.16	26331.03
546.33	26080.59
546.50	26354.43
546.67	26892.76
546.83	26536.99
547.00	26455.08
547.17	26647.00
547.34	27002.76
547.50	26979.36
547.67	27101.06
547.84	26995.74
548.00	26675.09
548.17	26984.04
548.34	26958.29
548.51	27222.77
548.67	27021.48
548.84	27332.78
549.01	26909.14
549.18	27108.08
549.34	26794.45
549.51	27225.11
549.68	27129.15
549.84	27084.68
550.01	27402.99
550.18	27115.11
550.34	27290.65
550.51	27370.22
550.68	27304.69
550.84	27349.16
551.01	27522.36
551.18	27236.81
551.34	26911.48
551.51	27133.83
551.68	27178.30
551.84	27679.18
552.01	27651.09
552.18	27473.21
552.34	27763.43
552.51	27566.83
552.68	27049.57
552.84	27503.64
553.01	27850.03
553.18	27810.25
553.34	27779.82
553.51	27845.35
553.67	27899.19
553.84	28027.92
554.01	27723.65
554.17	27756.41
554.34	28119.20
554.51	27674.49
554.67	27843.01
554.84	28301.76
555.00	27995.15
555.17	28058.34
555.33	27847.69
555.50	27999.83
555.67	27784.50
555.83	27953.02
556.00	27953.02
556.16	27814.93
556.33	27557.47
556.50	27882.80
556.66	27885.14
556.83	28126.22
556.99	28123.88
557.16	28231.54
557.32	28442.19
557.49	28350.91
557.65	28173.03
557.82	28194.09
557.98	27915.57
558.15	28308.78
558.32	28512.41
558.48	28011.53
558.65	28493.68
558.81	28336.87
558.98	28395.38
559.14	28418.78
559.31	28421.13
559.47	28521.77
559.64	28261.97
559.80	28140.26
559.97	28589.64
560.13	28332.18
560.30	28379.00
560.46	28786.25
560.63	28500.70
560.79	28388.36
560.96	28666.88
561.12	28634.11
561.29	28404.74
561.45	28636.45
561.61	28783.91
561.78	28910.30
561.94	28360.27
562.11	28893.91
562.27	28657.52
562.44	28573.26
562.60	28959.45
562.77	28826.04
562.93	28652.84
563.10	29102.22
563.26	28961.79
563.42	28664.54
563.59	28856.46
563.75	28765.18
563.92	28774.55
564.08	28807.31
564.24	28938.38
564.41	28919.66
564.57	28683.27
564.74	28779.23
564.90	28797.95
565.07	28769.86
565.23	28945.41
565.39	28947.75
565.56	28858.81
565.72	28912.64
565.88	28900.94
566.05	28844.76
566.21	28807.31
566.38	29181.80
566.54	29355.00
566.70	29280.10
566.87	29336.27
567.03	29179.46
567.19	29230.95
567.36	29439.26
567.52	29230.95
567.68	29179.46
567.85	28758.16
568.01	29301.17
568.17	28884.55
568.34	29142.01
568.50	29209.89
568.66	29376.06
568.83	29600.76
568.99	29111.58
569.15	29083.50
569.32	29027.32
569.48	29109.24
569.64	29275.42
569.81	29429.90
569.97	28828.38
570.13	29172.44
570.30	28957.11
570.46	29748.21
570.62	29338.62
570.78	29081.16
570.95	29371.38
571.11	29455.64
571.27	28905.62
571.43	29315.21
571.60	29001.58
571.76	29170.10
571.92	29610.12
572.09	29670.97
572.25	29359.68
572.41	29046.05
572.57	29528.20
572.74	29399.47
572.90	29436.92
573.06	29296.49
573.22	29151.37
573.38	29560.97
573.55	29214.57
573.71	29727.14
573.87	29350.32
574.03	29455.64
574.20	29488.41
574.36	29085.84
574.52	29507.13
574.68	29415.85
574.84	29640.54
575.01	29579.69
575.17	29577.35
575.33	29383.09
575.49	29450.96
575.65	29413.51
575.82	29500.11
575.98	29406.49
576.14	29450.96
576.30	29619.48
576.46	29394.79
576.62	29067.11
576.79	29535.22
576.95	29511.81
577.11	29619.48
577.27	29750.55
577.43	29743.53
577.59	29663.95
577.75	29621.82
577.92	29226.27
578.08	29614.80
578.24	29490.75
578.40	29488.41
578.56	29092.86
578.72	30075.88
578.88	29907.37
579.04	29570.33
579.21	29668.63
579.37	29663.95
579.53	29528.20
579.69	29345.64
579.85	29612.46
580.01	29549.26
580.17	29467.34
580.33	29427.56
580.49	29528.20
580.65	29652.25
580.82	29832.47
580.98	29366.70
581.14	29425.22
581.30	29750.55
581.46	29329.25
581.62	29598.41
581.78	29123.29
581.94	29509.47
582.10	29560.97
582.26	29853.53
582.42	29724.80
582.58	29652.25
582.74	29790.34
582.90	29883.96
583.06	29661.61
583.22	29514.16
583.38	29738.85
583.54	29577.35
583.70	29528.20
583.86	29418.19
584.02	29933.11
584.18	29713.10
584.34	30043.12
584.50	29762.25
584.66	29577.35
584.82	29266.06
584.98	29565.65
585.14	30033.75
585.30	29649.91
585.46	29315.21
585.62	29645.23
585.78	29930.77
585.94	29357.34
586.10	29696.72
586.26	29848.85
586.42	29652.25
586.58	29858.21
586.74	29914.39
586.90	30017.37
587.06	29565.65
587.22	29729.48
587.38	29724.80
587.54	30125.04
587.70	29582.03
587.86	29926.09
588.02	30010.35
588.18	29993.97
588.34	29975.24
588.49	29958.86
588.65	29647.57
588.81	29944.81
588.97	30087.59
589.13	29928.43
589.29	29989.28
589.45	29783.32
589.61	29947.15
589.77	30038.44
589.93	30321.64
590.08	30398.88
590.24	30213.98
590.40	30230.36
590.56	30169.51
590.72	29998.65
590.88	29806.72
591.04	29958.86
591.20	30183.55
591.35	29825.45
591.51	30396.54
591.67	29909.71
591.83	30352.07
591.99	30551.01
592.15	30267.81
592.31	30146.10
592.46	29977.58
592.62	30000.99
592.78	29860.55
592.94	30022.05
593.10	30017.37
593.26	29928.43
593.41	30005.67
593.57	29853.53
593.73	30068.86
593.89	30602.50
594.05	30160.14
594.20	30129.72
594.36	29954.18
594.52	29970.56
594.68	29589.05
594.84	30026.73
594.99	30050.14
595.15	30403.56
595.31	30513.56
595.47	30373.13
595.62	30478.46
595.78	30195.25
595.94	30113.33
596.10	30265.47
596.25	30019.71
596.41	29998.65
596.57	29731.83
596.73	30089.93
596.88	30087.59
597.04	30480.80
597.20	30576.76
597.36	30630.59
597.51	30195.25
597.67	30352.07
597.83	30223.34
597.99	30419.94
598.14	30087.59
598.30	30307.60
598.46	30352.07
598.61	30658.68
598.77	30307.60
598.93	30003.33
599.09	30017.37
599.24	30618.89
599.40	30375.47
599.56	30403.56
599.71	30288.87
599.87	30251.42
600.03	30230.36
600.18	30263.13
600.34	30312.28
600.50	30174.19
600.65	30160.14
600.81	30459.73
600.97	30642.29
601.12	30380.15
601.28	30419.94
601.44	30581.44
601.59	30745.28
601.75	29972.90
601.91	30281.85
602.06	30307.60
602.22	30338.02
602.37	30298.23
602.53	30160.14
602.69	30384.83
602.84	30361.43
603.00	30331.00
603.16	29970.56
603.31	30019.71
603.47	30118.01
603.62	30323.98
603.78	30101.63
603.94	29862.90
604.09	30295.89
604.25	30195.25
604.40	30316.96
604.56	30249.08
604.71	30602.50
604.87	30314.62
605.03	30263.13
605.18	30436.33
605.34	30216.32
605.49	29717.78
605.65	30064.18
605.80	30073.54
605.96	30045.46
606.12	30211.64
606.27	30380.15
606.43	30068.86
606.58	30455.05
606.74	30251.42
606.89	29921.41
607.05	30436.33
607.20	30347.39
607.36	29991.62
607.51	30419.94
607.67	29656.93
607.82	29972.90
607.98	30225.68
608.13	30218.66
608.29	30244.40
608.44	30478.46
608.60	30408.24
608.75	30356.75
608.91	30155.46
609.06	29970.56
609.22	30125.04
609.37	29624.16
609.53	30101.63
609.68	29565.65
609.84	29666.29
609.99	29949.50
610.15	30284.19
610.30	29834.81
610.46	30080.56
610.61	30293.55
610.76	30061.84
610.92	30120.35
611.07	29827.79
611.23	29862.90
611.38	30047.80
611.54	29972.90
611.69	29916.73
611.84	29935.45
612.00	29556.28
612.15	29797.36
612.31	30094.61
612.46	29762.25
612.62	30101.63
612.77	29867.58
612.92	29729.48
613.08	29537.56
613.23	29940.13
613.39	29504.79
613.54	29181.80
613.69	29649.91
613.85	29638.20
614.00	29436.92
614.15	29483.73
614.31	29729.48
614.46	29668.63
614.62	29886.30
614.77	29750.55
614.92	29949.50
615.08	29605.44
615.23	29729.48
615.38	29465.00
615.54	29352.66
615.69	29633.52
615.84	29551.60
616.00	29277.76
616.15	29362.02
616.30	29846.51
616.46	29369.04
616.61	29387.77
616.76	29415.85
616.92	29696.72
617.07	29668.63
617.22	29275.42
617.37	29027.32
617.53	29446.28
617.68	29551.60
617.83	29053.07
617.99	29247.33
618.14	29355.00
618.29	29551.60
618.45	29401.81
618.60	29179.46
618.75	29270.74
618.90	29277.76
619.06	28961.79
619.21	29448.62
619.36	29200.52
619.51	29249.67
619.67	28671.56
619.82	28701.99
619.97	29111.58
620.12	29062.43
620.28	29099.88
620.43	28938.38
620.58	29230.95
620.73	28975.83
620.89	28926.68
621.04	29060.09
621.19	29383.09
621.34	29017.96
621.49	29048.39
621.65	28980.51
621.80	28842.42
621.95	28692.63
622.10	28683.27
622.25	28943.06
622.41	29083.50
622.56	28931.36
622.71	29193.50
622.86	28758.16
623.01	28879.87
623.16	29055.41
623.32	28652.84
623.47	28645.82
623.62	28687.95
623.77	28559.22
623.92	28545.17
624.07	28470.28
624.23	28978.17
624.38	28540.49
624.53	28690.29
624.68	28854.12
624.83	29055.41
624.98	28694.97
625.13	28723.05
625.29	28907.96
625.44	28470.28
625.59	28322.82
625.74	28498.36
625.89	28573.26
626.04	28285.37
626.19	28198.77
626.34	28273.67
626.49	28280.69
626.65	28355.59
626.80	28587.30
626.95	28208.14
627.10	28538.15
627.25	28533.47
627.40	28357.93
627.55	28084.09
627.70	27983.44
627.85	27800.88
628.00	27875.78
628.15	28290.06
628.30	28004.51
628.45	28236.22
628.60	28449.21
628.76	28404.74
628.91	28191.75
629.06	27931.95
629.21	28070.04
629.36	28039.62
629.51	28023.23
629.66	27740.03
629.81	28030.26
629.96	27882.80
630.11	28025.57
630.26	27924.93
630.41	27828.97
630.56	27983.44
630.71	27587.89
630.86	27859.40
631.01	28353.25
631.16	27997.49
631.31	28266.65
631.46	27835.99
631.61	27756.41
631.76	27613.64
631.91	27417.04
632.06	27491.93
632.21	27271.92
632.36	27728.33
632.51	27651.09
632.66	27578.53
632.81	27599.60
632.96	27716.62
633.10	27772.80
633.25	27587.89
633.40	27709.60
633.55	27702.58
633.70	27300.01
633.85	27690.88
634.00	27316.39
634.15	27381.93
634.30	27594.92
634.45	27477.89
634.60	27260.22
634.75	27601.94
634.90	27786.84
635.05	27615.98
635.19	27651.09
635.34	27498.95
635.49	27468.53
635.64	27728.33
635.79	27232.13
635.94	27283.62
636.09	27503.64
636.24	27236.81
636.39	27023.83
636.53	27047.23
636.68	27126.81
636.83	27379.59
636.98	27456.82
637.13	27152.55
637.28	27222.77
637.43	27400.65
637.57	27491.93
637.72	27161.92
637.87	26925.52
638.02	27051.91
638.17	27084.68
638.32	27094.04
638.46	26658.70
638.61	26988.72
638.76	26967.65
638.91	27147.87
639.06	26909.14
639.20	27178.30
639.35	26920.84
639.50	27122.13
639.65	27204.05
639.80	26981.70
639.94	27126.81
640.09	27218.09
640.24	26789.77
640.39	26972.33
640.54	26717.22
640.68	26548.70
640.83	26504.23
640.98	26897.44
641.13	26733.60
641.27	26974.67
641.42	26558.06
641.57	26771.05
641.72	26541.68
641.86	26672.74
642.01	26141.44
642.16	26925.52
642.31	26527.63
642.45	26675.09
642.60	26295.92
642.75	26602.53
642.90	26218.68
643.04	26808.50
643.19	26539.33
643.34	26380.18
643.48	26658.70
643.63	26244.43
643.78	26665.72
643.93	27007.44
644.07	26906.80
644.22	26579.12
644.37	26380.18
644.51	26527.63
644.66	26115.70
644.81	26146.12
644.95	25958.88
645.10	26155.49
645.25	26527.63
645.39	26471.46
645.54	26270.17
645.69	26061.87
645.83	26242.09
645.98	26506.57
646.13	26455.08
646.27	26452.73
646.42	26396.56
646.57	26246.77
646.71	25979.95
646.86	26099.31
647.00	26087.61
647.15	26162.51
647.30	26340.39
647.44	25895.69
647.59	25921.43
647.74	26167.19
647.88	25975.27
648.03	25795.04
648.17	26295.92
648.32	25970.58
648.47	26324.01
648.61	25771.64
648.76	26080.59
648.90	25832.49
649.05	25944.84
649.20	26087.61
649.34	25790.36
649.49	25539.93
649.63	25876.96
649.78	25490.77
649.92	25486.09
650.07	25750.57
650.21	25832.49
650.36	25996.33
650.51	26118.04
650.65	25668.66
650.80	26043.14
650.94	25886.32
651.09	25701.42
651.23	25516.52
651.38	25575.03
651.52	25242.68
651.67	25394.81
651.81	25333.96
651.96	25589.08
652.10	25322.26
652.25	25617.16
652.39	25970.58
652.54	25921.43
652.68	25558.65
652.83	25450.99
652.97	25450.99
653.12	25411.20
653.26	25202.89
653.41	25708.44
653.55	25249.70
653.70	24971.18
653.84	25469.71
653.99	25081.18
654.13	25528.22
654.27	25125.65
654.42	25102.25
654.56	24821.38
654.71	25589.08
654.85	25394.81
655.00	25483.75
655.14	25301.19
655.29	25385.45
655.43	25455.67
655.57	25242.68
655.72	24943.09
655.86	25085.86
656.01	24779.25
656.15	25127.99
656.30	25102.25
656.44	24975.86
656.58	24830.74
656.73	25123.31
656.87	25146.72
657.01	24531.15
657.16	25053.09
657.30	25338.64
657.45	25069.48
657.59	24702.01
657.73	25041.39
657.88	24699.67
658.02	24961.81
658.16	24664.57
658.31	24910.32
658.45	24805.00
658.60	24716.06
658.74	24641.16
658.88	24397.74
659.03	24776.91
659.17	24467.96
659.31	24491.37
659.46	24512.43
659.60	24592.01
659.74	24439.87
659.89	24325.19
660.03	24432.85
660.17	24460.94
660.32	24196.46
660.46	24254.97
660.60	24044.32
660.74	23953.04
660.89	24341.57
661.03	23943.68
661.17	24215.18
661.32	24037.30
661.46	24467.96
661.60	24245.61
661.74	24081.77
661.89	24217.52
662.03	24587.33
662.17	24081.77
662.31	24013.90
662.46	23983.47
662.60	24210.50
662.74	23683.88
662.88	23828.99
663.03	23828.99
663.17	23283.65
663.31	23817.29
663.45	23728.35
663.60	23674.52
663.74	23866.44
663.88	23454.51
664.02	23683.88
664.17	23936.66
664.31	23910.91
664.45	23639.41
664.59	23625.37
664.73	23637.07
664.88	23440.47
665.02	23241.52
665.16	23309.40
665.30	23264.92
665.44	23353.87
665.59	23110.45
665.73	23136.20
665.87	23183.01
666.01	23309.40
666.15	23407.70
666.29	22871.72
666.44	23250.88
666.58	22995.76
666.72	22588.51
666.86	23044.91
667.00	22824.90
667.14	23250.88
667.28	22815.54
667.43	22714.90
667.57	22817.88
667.71	22553.40
667.85	22836.61
667.99	22515.95
668.13	22600.21
668.27	22810.86
668.41	22721.92
668.56	22796.82
668.70	22661.07
668.84	22663.41
668.98	22679.79
669.12	22560.42
669.26	22611.92
669.40	22618.94
669.54	22157.85
669.68	22242.11
669.82	21998.70
669.96	22202.32
670.10	22164.87
670.25	22162.53
670.39	21970.61
670.53	22050.19
670.67	22080.61
670.81	21844.22
670.95	22092.32
671.09	22218.71
671.23	22120.40
671.37	21935.50
671.51	21930.82
671.65	21893.37
671.79	21493.14
671.93	21668.68
672.07	21951.88
672.21	21436.97
672.35	21551.65
672.49	21603.14
672.63	21273.13
672.77	21216.96
672.91	21504.84
673.05	21483.78
673.19	21404.20
673.33	21394.84
673.47	21401.86
673.61	21612.51
673.75	21371.43
673.89	21130.36
674.03	21233.34
674.17	21493.14
674.31	21252.06
674.45	21018.01
674.59	21163.12
674.73	21125.68
674.87	20985.24
675.01	20816.72
675.15	20795.66
675.29	20706.72
675.43	20877.58
675.56	20765.23
675.70	20629.48
675.84	20638.84
675.98	20121.59
676.12	20636.50
676.26	20741.83
676.40	20643.52
676.54	20210.53
676.68	20194.14
676.82	20058.39
676.96	20311.17
677.10	20114.56
677.23	19967.11
677.37	20023.28
677.51	20016.26
677.65	19866.47
677.79	19796.25
677.93	19545.81
678.07	19976.47
678.21	19737.74
678.34	19655.82
678.48	19470.92
678.62	19503.68
678.76	19365.59
678.90	19197.07
679.04	19344.53
679.18	19501.34
679.31	19026.21
679.45	19140.90
679.59	18993.45
679.73	18895.14
679.87	18932.59
680.00	18766.42
680.14	18801.52
680.28	18934.93
680.42	18721.95
680.56	18927.91
680.70	18745.35
680.83	18885.78
680.97	18869.40
681.11	18642.37
681.25	18424.70
681.39	18499.59
681.52	18534.70
681.66	18366.18
681.80	18377.89
681.94	17984.68
682.07	18132.13
682.21	18216.39
682.35	18169.58
682.49	17877.01
682.62	17968.29
682.76	17745.94
682.90	17846.58
683.04	17886.37
683.17	17685.09
683.31	17759.98
683.45	17818.50
683.59	17816.16
683.72	17603.17
683.86	17862.97
684.00	17717.86
684.13	17722.54
684.27	17518.91
684.41	17123.36
684.55	17088.25
684.68	16978.25
684.82	16966.54
684.96	16947.82
685.09	16926.75
685.23	16875.26
685.37	16840.15
685.50	16833.13
685.64	16966.54
685.78	16929.09
685.91	16915.05
686.05	16882.28
686.19	16594.40
686.32	16627.17
686.46	16573.33
686.60	16369.71
686.73	16219.91
686.87	16236.30
687.01	16123.95
687.14	16049.05
687.28	16098.20
687.42	16114.59
687.55	16107.57
687.69	15939.05
687.82	15838.41
687.96	15845.43
688.10	15683.93
688.23	15852.45
688.37	15845.43
688.50	15878.19
688.64	15658.18
688.78	15726.06
688.91	15693.29
689.05	15604.35
689.18	15508.39
689.32	15309.44
689.46	15290.72
689.59	15286.04
689.73	15206.46
689.86	15274.34
690.00	14958.36
690.13	15197.10
690.27	14874.10
690.41	14927.94
690.54	14782.82
690.68	14848.36
690.81	14850.70
690.95	14890.49
691.08	14920.92
691.22	14794.53
691.35	14642.39
691.49	14593.24
691.62	14668.14
691.76	14574.52
691.89	14244.50
692.03	14410.68
692.16	14230.46
692.30	14122.79
692.43	14125.13
692.57	14394.29
692.70	14113.43
692.84	13912.14
692.97	14106.41
693.11	13991.72
693.24	13907.46
693.38	13834.91
693.51	13886.40
693.65	14050.24
693.78	13750.65
693.92	13692.13
694.05	13799.80
694.19	13444.04
694.32	13614.90
694.45	13343.39
694.59	13352.76
694.72	13245.09
694.86	13163.17
694.99	13006.36
695.13	13041.46
695.26	13104.66
695.39	13104.66
695.53	13011.04
695.66	13240.41
695.80	13006.36
695.93	13034.44
696.07	12868.27
696.20	12882.31
696.33	12622.51
696.47	12491.44
696.60	12528.89
696.73	12903.37
696.87	12446.97
697.00	12582.72
697.14	12105.25
697.27	12255.04
697.40	12107.59
697.54	12105.25
697.67	11915.67
697.80	12079.50
697.94	12056.10
698.07	12018.65
698.21	12053.76
698.34	11761.19
698.47	12196.53
698.61	11690.98
698.74	11976.52
698.87	11852.47
699.01	11522.46
699.14	11742.47
699.27	11510.75
699.40	11786.94
699.54	11421.81
699.67	11414.79
699.80	11480.33
699.94	11309.47
700.07	11328.19
700.20	11162.01
700.34	11101.16
700.47	11211.17
700.60	11112.86
700.73	11363.30
700.87	11112.86
701.00	11218.19
701.13	10939.66
701.26	11164.36
701.40	11159.67
701.53	10663.48
701.66	10832.00
701.79	10771.15
701.93	10523.05
702.06	10773.49
702.19	10506.66
702.32	10794.55
702.46	10298.36
702.59	10368.57
702.72	10211.76
702.85	10296.02
702.99	10368.57
703.12	10448.15
703.25	10251.55
703.38	10195.37
703.51	10286.65
703.65	10377.94
703.78	10127.50
703.91	10076.01
704.04	10040.90
704.17	10038.56
704.31	10132.18
704.44	9966.00
704.57	9973.02
704.70	9839.61
704.83	9781.10
704.96	9710.88
705.10	9542.36
705.23	9551.73
>>>>>End Processed Spectral Data<<<<<
