SpectraSuite Data File
++++++++++++++++++++++++++++++++++++
Date: Fri Oct 18 13:58:33 GMT-05:00 2013
User: bianchi
Dark Spectrum Present: No
Reference Spectrum Present: No
Number of Sampled Component Spectra: 1
Spectrometers: USB2+H05261
Integration Time (usec): 50000 (USB2+H05261)
Spectra Averaged: 1 (USB2+H05261)
Boxcar Smoothing: 0 (USB2+H05261)
Correct for Electrical Dark: No (USB2+H05261)
Strobe/Lamp Enabled: No (USB2+H05261)
Correct for Detector Non-linearity: No (USB2+H05261)
Correct for Stray Light: No (USB2+H05261)
Number of Pixels in Processed Spectrum: 2048
>>>>>Begin Processed Spectral Data<<<<<
365.73	0.00
365.92	0.00
366.12	0.00
366.32	0.00
366.52	0.00
366.72	0.00
366.91	0.00
367.11	0.00
367.31	0.00
367.51	0.00
367.70	0.00
367.90	0.00
368.10	0.00
368.30	0.00
368.49	0.00
368.69	0.00
368.89	0.00
369.09	0.00
369.28	0.00
369.48	0.00
369.68	0.00
369.87	0.00
370.07	0.00
370.27	0.00
370.47	0.00
370.66	67.88
370.86	77.24
371.06	168.52
371.25	166.18
371.45	86.60
371.65	112.35
371.84	79.58
372.04	175.54
372.24	180.22
372.44	271.50
372.63	191.92
372.83	245.76
373.03	126.39
373.22	210.65
373.42	152.13
373.62	215.33
373.81	262.14
374.01	220.01
374.21	245.76
374.40	175.54
374.60	198.95
374.79	243.42
374.99	269.16
375.19	238.73
375.38	236.39
375.58	163.84
375.78	238.73
375.97	294.91
376.17	278.52
376.37	215.33
376.56	252.78
376.76	278.52
376.95	236.39
377.15	311.29
377.35	222.35
377.54	278.52
377.74	276.18
377.93	205.97
378.13	325.33
378.33	234.05
378.52	231.71
378.72	322.99
378.91	301.93
379.11	280.86
379.31	292.57
379.50	304.27
379.70	301.93
379.89	306.61
380.09	212.99
380.28	245.76
380.48	266.82
380.68	327.68
380.87	292.57
381.07	351.08
381.26	362.78
381.46	325.33
381.65	231.71
381.85	313.63
382.04	306.61
382.24	299.59
382.43	266.82
382.63	306.61
382.83	325.33
383.02	404.91
383.22	346.40
383.41	299.59
383.61	365.12
383.80	400.23
384.00	325.33
384.19	376.83
384.39	423.64
384.58	442.36
384.78	435.34
384.97	372.15
385.17	437.68
385.36	362.78
385.56	360.44
385.75	334.70
385.95	376.83
386.14	374.49
386.34	444.70
386.53	379.17
386.72	482.15
386.92	444.70
387.11	461.09
387.31	472.79
387.50	367.46
387.70	447.04
387.89	465.77
388.09	358.10
388.28	428.32
388.48	411.93
388.67	458.74
388.86	449.38
389.06	456.40
389.25	442.36
389.45	533.64
389.64	388.53
389.84	449.38
390.03	477.47
390.22	465.77
390.42	404.91
390.61	500.87
390.81	531.30
391.00	454.06
391.19	479.81
391.39	482.15
391.58	547.69
391.78	430.66
391.97	601.52
392.16	454.06
392.36	482.15
392.55	479.81
392.75	528.96
392.94	458.74
393.13	582.79
393.33	507.90
393.52	528.96
393.71	585.13
393.91	596.84
394.10	519.60
394.29	510.24
394.49	552.37
394.68	538.32
394.88	585.13
395.07	580.45
395.26	617.90
395.46	592.16
395.65	587.47
395.84	498.53
396.04	716.20
396.23	636.63
396.42	575.77
396.62	631.94
396.81	730.25
397.00	638.97
397.19	610.88
397.39	631.94
397.58	730.25
397.77	669.39
397.97	725.57
398.16	685.78
398.35	648.33
398.55	748.97
398.74	741.95
398.93	690.46
399.12	716.20
399.32	674.07
399.51	826.21
399.70	746.63
399.90	767.70
400.09	765.36
400.28	753.65
400.47	706.84
400.67	805.14
400.86	760.67
401.05	748.97
401.24	763.01
401.44	713.86
401.63	755.99
401.82	805.14
402.01	823.87
402.21	805.14
402.40	748.97
402.59	898.77
402.78	856.64
402.97	826.21
403.17	856.64
403.36	891.74
403.55	805.14
403.74	854.30
403.93	840.25
404.13	961.96
404.32	887.06
404.51	931.53
404.70	908.13
404.89	905.79
405.09	968.98
405.28	903.45
405.47	901.11
405.66	992.39
405.85	1055.58
406.05	1025.15
406.24	1050.90
406.43	985.37
406.62	1013.45
406.81	1081.33
407.00	990.05
407.20	966.64
407.39	1034.52
407.58	1032.18
407.77	1088.35
407.96	1041.54
408.15	1057.92
408.34	1097.71
408.54	1055.58
408.73	1093.03
408.92	1064.94
409.11	1086.01
409.30	1193.67
409.49	1116.44
409.68	1200.69
409.87	1153.88
410.07	1135.16
410.26	1226.44
410.45	1142.18
410.64	1139.84
410.83	1221.76
411.02	1170.27
411.21	1277.93
411.40	1308.36
411.59	1193.67
411.78	1214.74
411.98	1268.57
412.17	1214.74
412.36	1315.38
412.55	1240.48
412.74	1282.61
412.93	1299.00
413.12	1306.02
413.31	1343.47
413.50	1373.89
413.69	1369.21
413.88	1467.52
414.07	1383.26
414.26	1451.13
414.45	1479.22
414.64	1441.77
414.83	1369.21
415.02	1432.41
415.22	1519.01
415.41	1500.28
415.60	1523.69
415.79	1535.39
415.98	1540.07
416.17	1486.24
416.36	1570.50
416.55	1589.22
416.74	1570.50
416.93	1598.59
417.12	1640.72
417.31	1570.50
417.50	1654.76
417.69	1769.44
417.88	1750.72
418.07	1657.10
418.26	1586.88
418.45	1729.66
418.64	1755.40
418.83	1776.47
419.02	1734.34
419.21	1755.40
419.39	1799.87
419.58	1776.47
419.77	1769.44
419.96	1811.57
420.15	1797.53
420.34	1729.66
420.53	1764.76
420.72	1858.39
420.91	1935.62
421.10	1874.77
421.29	2001.16
421.48	1975.41
421.67	1987.11
421.86	1893.49
422.05	1849.02
422.24	1923.92
422.43	1856.04
422.61	1947.33
422.80	1935.62
422.99	2038.61
423.18	1998.82
423.37	1963.71
423.56	2003.50
423.75	2031.58
423.94	1912.22
424.13	1809.23
424.32	1895.83
424.50	2038.61
424.69	2010.52
424.88	1963.71
425.07	2057.33
425.26	1980.09
425.45	2036.27
425.64	1998.82
425.83	1961.37
426.01	2019.88
426.20	2019.88
426.39	2052.65
426.58	2012.86
426.77	2038.61
426.96	2139.25
427.15	2122.87
427.33	2275.00
427.52	2167.34
427.71	2019.88
427.90	2195.42
428.09	2125.21
428.28	2139.25
428.46	2165.00
428.65	2242.23
428.84	2169.68
429.03	2162.66
429.22	2120.53
429.40	2251.60
429.59	2132.23
429.78	2087.76
429.97	2108.82
430.16	2111.16
430.34	2328.83
430.53	2279.68
430.72	2385.01
430.91	2263.30
431.10	2249.25
431.28	2279.68
431.47	2471.61
431.66	2342.88
431.85	2328.83
432.03	2349.90
432.22	2459.90
432.41	2497.35
432.60	2417.77
432.79	2392.03
432.97	2406.07
433.16	2443.52
433.35	2361.60
433.54	2448.20
433.72	2523.10
433.91	2537.14
434.10	2373.30
434.28	2532.46
434.47	2480.97
434.66	2438.84
434.85	2408.41
435.03	2572.25
435.22	2656.51
435.41	2733.75
435.59	2726.72
435.78	2574.59
435.97	2583.95
436.16	2576.93
436.34	2609.70
436.53	2658.85
436.72	2743.11
436.90	2658.85
437.09	2637.78
437.28	2595.65
437.46	2752.47
437.65	2761.83
437.84	2686.94
438.02	2794.60
438.21	2773.53
438.40	2750.13
438.58	2883.54
438.77	2778.22
438.96	2782.90
439.14	2909.29
439.33	2846.09
439.52	2988.86
439.70	2993.55
439.89	2960.78
440.08	2993.55
440.26	3040.36
440.45	3038.02
440.63	3016.95
440.82	3150.36
441.01	3098.87
441.19	3117.59
441.38	3162.06
441.57	3227.60
441.75	3150.36
441.94	3204.19
442.12	3183.13
442.31	3260.37
442.50	3201.85
442.68	3281.43
442.87	3295.47
443.05	3527.19
443.24	3339.94
443.43	3283.77
443.61	3276.75
443.80	3417.18
443.98	3318.88
444.17	3208.87
444.35	3375.05
444.54	3339.94
444.73	3398.46
444.91	3391.44
445.10	3382.07
445.28	3339.94
445.47	3358.67
445.65	3323.56
445.84	3248.66
446.02	3417.18
446.21	3410.16
446.39	3480.38
446.58	3513.14
446.77	3471.01
446.95	3428.88
447.14	3440.59
447.32	3492.08
447.51	3410.16
447.69	3452.29
447.88	3506.12
448.06	3438.25
448.25	3506.12
448.43	3384.41
448.62	3337.60
448.80	3463.99
448.99	3555.27
449.17	3679.32
449.36	3616.13
449.54	3660.60
449.73	3742.52
449.91	3702.73
450.10	3616.13
450.28	3665.28
450.46	3859.54
450.65	3688.68
450.83	3623.15
451.02	3660.60
451.20	3681.66
451.39	3810.39
451.57	3693.37
451.76	3606.77
451.94	3852.52
452.13	3765.92
452.31	3751.88
452.49	3756.56
452.68	3829.12
452.86	3803.37
453.05	3859.54
453.23	3850.18
453.42	3845.50
453.60	3861.88
453.78	3913.38
453.97	3829.12
454.15	3796.35
454.34	4018.70
454.52	4074.87
454.70	4035.08
454.89	4131.05
455.07	4014.02
455.26	3934.44
455.44	4014.02
455.62	4128.70
455.81	4175.52
455.99	4002.32
456.17	3967.21
456.36	4018.70
456.54	4156.79
456.73	4095.94
456.91	4325.31
457.09	4215.30
457.28	4219.99
457.46	4315.95
457.64	4163.81
457.83	4227.01
458.01	4079.55
458.19	4105.30
458.38	4348.72
458.56	4337.01
458.74	4381.48
458.93	4365.10
459.11	4313.61
459.29	4297.22
459.48	4582.77
459.66	4465.74
459.84	4510.21
460.03	4573.41
460.21	4510.21
460.39	4578.09
460.57	4348.72
460.76	4645.96
460.94	4465.74
461.12	4514.89
461.31	4589.79
461.49	4524.26
461.67	4517.23
461.85	4770.01
462.04	4573.41
462.22	4622.56
462.40	4695.11
462.59	4727.88
462.77	4779.37
462.95	4655.33
463.13	4636.60
463.32	4734.90
463.50	4744.27
463.68	4814.48
463.86	4863.63
464.05	4898.74
464.23	4844.91
464.41	4905.76
464.59	4823.84
464.78	4868.31
464.96	4952.57
465.14	4826.18
465.32	4997.04
465.50	5018.11
465.69	5011.09
465.87	4861.29
466.05	4943.21
466.23	4919.81
466.41	4964.28
466.60	5259.18
466.78	5048.54
466.96	5048.54
467.14	4903.42
467.32	5090.67
467.51	5078.96
467.69	5032.15
467.87	5193.65
468.05	5125.77
468.23	5093.01
468.41	4929.17
468.60	5270.89
468.78	5275.57
468.96	5081.30
469.14	5205.35
469.32	5219.39
469.50	5144.50
469.69	5408.98
469.87	5242.80
470.05	5394.93
470.23	5287.27
470.41	5298.97
470.59	5275.57
470.77	5380.89
470.95	5425.36
471.14	5411.32
471.32	5336.42
471.50	5516.64
471.68	5493.24
471.86	5561.11
472.04	5809.21
472.22	5694.52
472.40	5516.64
472.58	5584.52
472.77	5720.27
472.95	5884.11
473.13	5930.92
473.31	5881.77
473.49	5731.97
473.67	5731.97
473.85	5891.13
474.03	5956.66
474.21	5975.39
474.39	5928.58
474.57	5968.37
474.75	6001.13
474.93	6097.10
475.12	5996.45
475.30	6225.82
475.48	6242.21
475.66	6200.08
475.84	6120.50
476.02	6270.30
476.20	6319.45
476.38	6377.96
476.56	6462.22
476.74	6539.46
476.92	6415.41
477.10	6537.12
477.28	6579.25
477.46	6476.26
477.64	6572.22
477.82	6949.05
478.00	6808.62
478.18	6986.50
478.36	7077.78
478.54	6906.92
478.72	7005.22
478.90	6984.16
479.08	6960.75
479.26	7267.36
479.44	7234.60
479.62	7274.38
479.80	7342.26
479.98	7337.58
480.16	7410.14
480.34	7524.82
480.52	7456.95
480.70	7524.82
480.88	7623.12
481.06	7639.51
481.24	7667.60
481.41	7627.81
481.59	7854.84
481.77	7782.28
481.95	7934.42
482.13	8056.12
482.31	7957.82
482.49	8095.91
482.67	8028.04
482.85	8292.52
483.03	8430.61
483.21	8533.59
483.39	8603.81
483.57	8540.61
483.74	8374.44
483.92	8348.69
484.10	8381.46
484.28	8765.31
484.46	8978.30
484.64	9006.38
484.82	8966.59
485.00	8968.93
485.18	9043.83
485.35	9502.58
485.53	9102.34
485.71	9179.58
485.89	9390.23
486.07	9270.86
486.25	9474.49
486.43	9579.81
486.61	9614.92
486.78	9603.22
486.96	9638.33
487.14	10036.22
487.32	10078.35
487.50	9991.75
487.68	10005.79
487.85	10141.54
488.03	10235.16
488.21	10611.99
488.39	10469.22
488.57	10408.36
488.75	10745.40
488.92	10504.32
489.10	10867.11
489.28	11000.52
489.46	10988.82
489.64	10892.85
489.81	11131.59
489.99	11199.46
490.17	11236.91
490.35	11276.70
490.53	11321.17
490.70	11538.84
490.88	11513.10
491.06	11674.59
491.24	11740.13
491.41	11655.87
491.59	11693.32
491.77	11950.78
491.95	11960.14
492.13	11782.26
492.30	12079.50
492.48	12180.15
492.66	12147.38
492.84	12191.85
493.01	12116.95
493.19	12657.62
493.37	12592.08
493.54	12627.19
493.72	12533.57
493.90	12732.51
494.08	13041.46
494.25	12980.61
494.43	12905.71
494.61	13163.17
494.79	13224.03
494.96	13090.62
495.14	13123.38
495.32	13078.91
495.49	13465.10
495.67	13598.51
495.85	13568.09
496.02	13401.91
496.20	13678.09
496.38	13661.71
496.55	13736.60
496.73	14064.28
496.91	13837.25
497.09	14249.18
497.26	14115.77
497.44	14001.08
497.62	14246.84
497.79	14640.05
497.97	14478.55
498.14	14295.99
498.32	14766.44
498.50	14766.44
498.67	14885.81
498.85	14738.35
499.03	14820.27
499.20	14757.08
499.38	14792.19
499.56	15119.86
499.73	15073.05
499.91	15180.71
500.08	15154.97
500.26	15173.69
500.44	15377.32
500.61	15344.55
500.79	15309.44
500.97	15609.03
501.14	15709.68
501.32	15658.18
501.49	15681.59
501.67	15627.76
501.84	15910.96
502.02	15594.99
502.20	15843.09
502.37	15892.24
502.55	16173.10
502.72	16009.26
502.90	16016.29
503.07	15786.91
503.25	15999.90
503.43	15985.86
503.60	16116.93
503.78	16554.61
503.95	16280.77
504.13	16538.23
504.30	16374.39
504.48	16308.85
504.65	16716.11
504.83	16475.03
505.01	16638.87
505.18	16966.54
505.36	16563.97
505.53	16683.34
505.71	16744.19
505.88	16643.55
506.06	16695.04
506.23	17142.08
506.41	17156.13
506.58	16973.56
506.76	17282.52
506.93	17298.90
507.11	17156.13
507.28	17322.30
507.46	17324.65
507.63	17451.03
507.81	17568.06
507.98	17209.96
508.16	17441.67
508.33	17493.16
508.50	17326.99
508.68	17975.31
508.85	17696.79
509.03	17813.82
509.20	18218.73
509.38	18155.54
509.55	18394.27
509.73	18017.44
509.90	18326.39
510.08	18054.89
510.25	18429.38
510.42	18396.61
510.60	18405.97
510.77	18373.21
510.95	18649.39
511.12	18197.67
511.30	18347.46
511.47	18487.89
511.64	18588.53
511.82	18511.30
511.99	18565.13
512.17	18918.55
512.34	19091.75
512.51	18801.52
512.69	18885.78
512.86	18958.34
513.04	19176.01
513.21	19154.94
513.38	19255.59
513.56	18855.36
513.73	19351.55
513.90	18998.13
514.08	19054.30
514.25	19257.93
514.43	19147.92
514.60	19463.90
514.77	19744.76
514.95	19599.65
515.12	19616.03
515.29	19697.95
515.47	19623.05
515.64	19796.25
515.81	19576.24
515.99	20020.94
516.16	20016.26
516.33	20166.06
516.51	20198.82
516.68	20142.65
516.85	20013.92
517.03	20189.46
517.20	20226.91
517.37	20381.38
517.54	20091.16
517.72	20369.68
517.89	20327.55
518.06	20648.21
518.24	20243.29
518.41	20137.97
518.58	20484.37
518.75	20601.40
518.93	20631.82
519.10	20648.21
519.27	20477.35
519.45	20540.54
519.62	20800.34
519.79	20725.44
519.96	20837.79
520.14	20989.92
520.31	20966.52
520.48	21525.91
520.65	20734.81
520.83	21231.00
521.00	21153.76
521.17	20828.43
521.34	21053.12
521.52	21319.94
521.69	21664.00
521.86	21308.24
522.03	21528.25
522.20	21905.07
522.38	21455.69
522.55	21607.83
522.72	21619.53
522.89	21703.79
523.07	21848.90
523.24	21656.98
523.41	21881.67
523.58	21689.74
523.75	21928.48
523.92	21809.11
524.10	21678.04
524.27	22036.14
524.44	22270.20
524.61	22298.28
524.78	21949.54
524.96	22513.61
525.13	22272.54
525.30	22195.30
525.47	22314.67
525.64	21968.27
525.81	22403.61
525.98	22544.04
526.16	22377.86
526.33	22398.93
526.50	22689.15
526.67	22384.88
526.84	22501.91
527.01	22515.95
527.18	22621.28
527.36	22724.26
527.53	22677.45
527.70	22874.06
527.87	22881.08
528.04	22686.81
528.21	22991.08
528.38	22972.36
528.55	23117.47
528.72	22897.46
528.89	22836.61
529.07	23419.40
529.24	23175.98
529.41	23063.64
529.58	23227.48
529.75	23187.69
529.92	23063.64
530.09	23466.21
530.26	23683.88
530.43	23297.69
530.60	23253.22
530.77	23487.28
530.94	23728.35
531.11	23295.35
531.28	23688.56
531.46	23812.61
531.63	23665.16
531.80	23601.96
531.97	23344.50
532.14	23798.57
532.31	23604.30
532.48	23730.69
532.65	23660.48
532.82	23899.21
532.99	23814.95
533.16	24144.97
533.33	24030.28
533.50	24245.61
533.67	24290.08
533.84	24002.19
534.01	24121.56
534.18	23936.66
534.35	23976.45
534.52	24079.43
534.69	24376.68
534.86	24561.58
535.03	24261.99
535.20	24491.37
535.37	24507.75
535.54	24163.69
535.71	24357.96
535.88	24479.66
536.05	24526.47
536.22	24573.28
536.38	24496.05
536.55	24727.76
536.72	24575.62
536.89	24629.46
537.06	24467.96
537.23	24678.61
537.40	24655.20
537.57	24807.34
537.74	24964.15
537.91	24964.15
538.08	24795.64
538.25	24512.43
538.42	24929.05
538.59	25352.68
538.75	24847.13
538.92	24982.88
539.09	25006.28
539.26	25441.62
539.43	25394.81
539.60	25090.54
539.77	24917.34
539.94	25369.07
540.11	25352.68
540.28	25165.44
540.44	24980.54
540.61	25282.47
540.78	25546.95
540.95	25233.32
541.12	25443.96
541.29	25619.50
541.46	25352.68
541.62	25518.86
541.79	25640.57
541.96	25495.46
542.13	25247.36
542.30	25249.70
542.47	25795.04
542.63	26139.10
542.80	25928.45
542.97	26036.12
543.14	26050.16
543.31	25855.90
543.48	26125.06
543.64	25881.64
543.81	26066.55
543.98	26396.56
544.15	26192.94
544.32	26501.89
544.48	26459.76
544.65	25759.94
544.82	26103.99
544.99	25781.00
545.16	26061.87
545.32	26199.96
545.49	26450.39
545.66	26515.93
545.83	26452.73
546.00	26293.58
546.16	26197.62
546.33	26204.64
546.50	26001.01
546.67	26263.15
546.83	26410.60
547.00	26771.05
547.17	26415.29
547.34	26525.29
547.50	26632.96
547.67	26859.99
547.84	26513.59
548.00	26635.30
548.17	26890.41
548.34	26745.30
548.51	26787.43
548.67	27068.30
548.84	26801.47
549.01	26485.50
549.18	26977.01
549.34	26682.11
549.51	26927.86
549.68	26874.03
549.84	26876.37
550.01	27190.00
550.18	26981.70
550.34	27126.81
550.51	27445.12
550.68	27491.93
550.84	26902.12
551.01	27555.13
551.18	26988.72
551.34	26969.99
551.51	27096.38
551.68	27639.39
551.84	26939.57
552.01	27398.31
552.18	27733.01
552.34	27302.35
552.51	27473.21
552.68	27239.15
552.84	27538.74
553.01	27257.88
553.18	27709.60
553.34	27274.26
553.51	27440.44
553.67	27681.52
553.84	27812.59
554.01	27789.18
554.17	27527.04
554.34	27405.33
554.51	27653.43
554.67	27681.52
554.84	27763.43
555.00	27648.75
555.17	28037.28
555.33	27749.39
555.50	27964.72
555.67	27953.02
555.83	28013.87
556.00	27749.39
556.16	27964.72
556.33	28144.94
556.50	27845.35
556.66	28063.02
556.83	27901.53
556.99	28060.68
557.16	28060.68
557.32	28191.75
557.49	27765.78
557.65	27882.80
557.82	27833.65
557.98	28039.62
558.15	27749.39
558.32	27931.95
558.48	28088.77
558.65	28180.05
558.81	28063.02
558.98	28046.64
559.14	28292.40
559.31	27866.42
559.47	28343.89
559.64	28470.28
559.80	28180.05
559.97	28339.21
560.13	27962.38
560.30	28589.64
560.46	28432.83
560.63	28313.46
560.79	28498.36
560.96	28348.57
561.12	28416.44
561.29	28652.84
561.45	28051.32
561.61	28311.12
561.78	28449.21
561.94	28542.83
562.11	28386.02
562.27	28713.69
562.44	28437.51
562.60	28362.61
562.77	28554.54
562.93	28484.32
563.10	28606.03
563.26	28287.71
563.42	28737.10
563.59	28636.45
563.75	28570.92
563.92	28685.61
564.08	28755.82
564.24	28376.66
564.41	28561.56
564.57	28428.15
564.74	28613.05
564.90	28599.01
565.07	28851.78
565.23	28872.85
565.39	28666.88
565.56	28819.02
565.72	28811.99
565.88	28879.87
566.05	28512.41
566.21	29106.90
566.38	28393.04
566.54	28943.06
566.70	29113.92
566.87	29130.31
567.03	28589.64
567.19	29149.03
567.36	29120.95
567.52	28823.70
567.68	29205.20
567.85	28889.23
568.01	28947.75
568.17	29006.26
568.34	28950.09
568.50	29172.44
568.66	28692.63
568.83	29397.13
568.99	29036.69
569.15	29015.62
569.32	28751.14
569.48	28676.24
569.64	28669.22
569.81	28973.49
569.97	28938.38
570.13	29301.17
570.30	28828.38
570.46	29116.26
570.62	28849.44
570.78	28851.78
570.95	29024.98
571.11	29219.25
571.27	29226.27
571.43	29247.33
571.60	28889.23
571.76	29362.02
571.92	28917.32
572.09	29408.83
572.25	29092.86
572.41	29233.29
572.57	29345.64
572.74	29514.16
572.90	29130.31
573.06	28931.36
573.22	29352.66
573.38	28996.90
573.55	29125.63
573.71	29448.62
573.87	29516.50
574.03	28903.28
574.20	29134.99
574.36	29270.74
574.52	28844.76
574.68	28898.59
574.84	29312.87
575.01	28893.91
575.17	29343.30
575.33	28816.68
575.49	29352.66
575.65	29502.45
575.82	29259.04
575.98	29184.14
576.14	29411.17
576.30	29397.13
576.46	29207.55
576.62	29041.37
576.79	29626.50
576.95	29102.22
577.11	29556.28
577.27	29425.22
577.43	29472.03
577.59	29242.65
577.75	29240.31
577.92	29654.59
578.08	29125.63
578.24	29453.30
578.40	29144.35
578.56	29483.73
578.72	29450.96
578.88	29308.19
579.04	29469.69
579.21	29612.46
579.37	29317.55
579.53	29708.42
579.69	29209.89
579.85	28973.49
580.01	29324.57
580.17	29064.77
580.33	29598.41
580.49	29277.76
580.65	29404.15
580.82	29474.37
580.98	29347.98
581.14	29675.65
581.30	29338.62
581.46	29408.83
581.62	29247.33
581.78	29233.29
581.94	29350.32
582.10	29170.10
582.26	28870.51
582.42	29780.98
582.58	29411.17
582.74	29422.87
582.90	29401.81
583.06	29455.64
583.22	29605.44
583.38	29195.84
583.54	29621.82
583.70	29479.05
583.86	29546.92
584.02	28912.64
584.18	29687.36
584.34	29642.88
584.50	29638.20
584.66	29244.99
584.82	29083.50
584.98	29340.96
585.14	29563.31
585.30	29378.40
585.46	29582.03
585.62	29434.58
585.78	29633.52
585.94	29408.83
586.10	29436.92
586.26	29708.42
586.42	29731.83
586.58	30019.71
586.74	29259.04
586.90	29359.68
587.06	29593.73
587.22	29699.06
587.38	29521.18
587.54	29832.47
587.70	29699.06
587.86	29589.05
588.02	29500.11
588.18	29947.15
588.34	29642.88
588.49	29567.99
588.65	29567.99
588.81	29277.76
588.97	29748.21
589.13	29277.76
589.29	29802.04
589.45	29724.80
589.61	29825.45
589.77	29654.59
589.93	30188.23
590.08	29921.41
590.24	30099.29
590.40	30000.99
590.56	30103.97
590.72	29813.74
590.88	29383.09
591.04	29631.18
591.20	30183.55
591.35	30000.99
591.51	30082.91
591.67	30101.63
591.83	29883.96
591.99	30043.12
592.15	29692.04
592.31	30010.35
592.46	30015.03
592.62	29912.05
592.78	29944.81
592.94	29832.47
593.10	29628.84
593.26	30096.95
593.41	30483.14
593.57	30185.89
593.73	29998.65
593.89	30066.52
594.05	30033.75
594.20	29677.99
594.36	30022.05
594.52	29626.50
594.68	29633.52
594.84	29879.28
594.99	29975.24
595.15	29825.45
595.31	30169.51
595.47	29951.84
595.62	30108.65
595.78	30094.61
595.94	29968.22
596.10	29883.96
596.25	29930.77
596.41	29617.14
596.57	29825.45
596.73	29462.66
596.88	29862.90
597.04	30120.35
597.20	30169.51
597.36	30155.46
597.51	30139.08
597.67	29572.67
597.83	29748.21
597.99	30410.58
598.14	29912.05
598.30	30136.74
598.46	29507.13
598.61	30164.82
598.77	29722.46
598.93	29942.47
599.09	30085.25
599.24	30590.80
599.40	30108.65
599.56	30548.67
599.71	30534.63
599.87	30066.52
600.03	29998.65
600.18	30071.20
600.34	29820.77
600.50	30094.61
600.65	30199.93
600.81	30651.66
600.97	30094.61
601.12	30464.41
601.28	30300.58
601.44	29900.34
601.59	30136.74
601.75	29790.34
601.91	30321.64
602.06	30167.16
602.22	30162.48
602.37	30263.13
602.53	30230.36
602.69	30354.41
602.84	30539.31
603.00	30061.84
603.16	30335.68
603.31	30213.98
603.47	29963.54
603.62	30160.14
603.78	30139.08
603.94	30085.25
604.09	30188.23
604.25	29834.81
604.40	29773.95
604.56	29621.82
604.71	30567.40
604.87	30183.55
605.03	30190.57
605.18	30279.51
605.34	30164.82
605.49	29853.53
605.65	30012.69
605.80	29624.16
605.96	29635.86
606.12	29996.31
606.27	30033.75
606.43	29661.61
606.58	30188.23
606.74	30143.76
606.89	29848.85
607.05	30026.73
607.20	30366.11
607.36	29799.70
607.51	30073.54
607.67	30010.35
607.82	29645.23
607.98	30085.25
608.13	30139.08
608.29	30080.56
608.44	29811.40
608.60	29895.66
608.75	30150.78
608.91	30141.42
609.06	29869.92
609.22	29954.18
609.37	29795.02
609.53	29827.79
609.68	29701.40
609.84	29720.12
609.99	29820.77
610.15	29844.17
610.30	29692.04
610.46	29663.95
610.61	29556.28
610.76	29869.92
610.92	30071.20
611.07	29652.25
611.23	29788.00
611.38	29626.50
611.54	29874.60
611.69	29312.87
611.84	29413.51
612.00	29799.70
612.15	29563.31
612.31	30141.42
612.46	30003.33
612.62	29694.38
612.77	29647.57
612.92	30127.38
613.08	29523.52
613.23	29539.90
613.39	29640.54
613.54	29411.17
613.69	29244.99
613.85	29120.95
614.00	29535.22
614.15	29968.22
614.31	29600.76
614.46	29514.16
614.62	29905.02
614.77	29703.74
614.92	29610.12
615.08	29666.29
615.23	29502.45
615.38	29392.45
615.54	29434.58
615.69	29010.94
615.84	29256.70
616.00	29301.17
616.15	29097.54
616.30	29490.75
616.46	29146.69
616.61	29202.86
616.76	29502.45
616.92	29043.71
617.07	29219.25
617.22	29003.92
617.37	29249.67
617.53	29097.54
617.68	29333.93
617.83	29193.50
617.99	29071.79
618.14	29186.48
618.29	29125.63
618.45	29060.09
618.60	29064.77
618.75	29294.14
618.90	29083.50
619.06	29188.82
619.21	29057.75
619.36	29422.87
619.51	29163.08
619.67	28877.53
619.82	28826.04
619.97	28828.38
620.12	28491.34
620.28	29013.28
620.43	29259.04
620.58	28709.01
620.73	29057.75
620.89	28940.72
621.04	29078.82
621.19	28641.14
621.34	28849.44
621.49	28542.83
621.65	28662.20
621.80	29003.92
621.95	28971.15
622.10	29116.26
622.25	28793.27
622.41	28521.77
622.56	28610.71
622.71	28772.21
622.86	28966.47
623.01	28673.90
623.16	28701.99
623.32	28350.91
623.47	28472.62
623.62	28540.49
623.77	28587.30
623.92	28395.38
624.07	28547.51
624.23	28362.61
624.38	28666.88
624.53	28517.09
624.68	28854.12
624.83	28584.96
624.98	28727.74
625.13	28505.38
625.29	28716.03
625.44	28566.24
625.59	28306.44
625.74	28259.63
625.89	28252.61
626.04	28032.60
626.19	28306.44
626.34	28486.66
626.49	28526.45
626.65	28067.70
626.80	28512.41
626.95	28575.60
627.10	28383.68
627.25	28224.52
627.40	28151.96
627.55	28121.54
627.70	27938.97
627.85	27957.70
628.00	27899.19
628.15	28051.32
628.30	27924.93
628.45	27969.40
628.60	27922.59
628.76	27866.42
628.91	27974.08
629.06	27765.78
629.21	27861.74
629.36	28060.68
629.51	28027.92
629.66	27896.85
629.81	27182.98
629.96	27943.66
630.11	27522.36
630.26	27676.83
630.41	27693.22
630.56	27365.54
630.71	27871.10
630.86	28203.46
631.01	28039.62
631.16	27908.55
631.31	27674.49
631.46	27419.38
631.61	27826.63
631.76	27651.09
631.91	27393.63
632.06	27508.32
632.21	27615.98
632.36	27749.39
632.51	27522.36
632.66	27435.76
632.81	27288.31
632.96	27433.42
633.10	27662.79
633.25	27498.95
633.40	27555.13
633.55	27531.72
633.70	27124.47
633.85	27337.46
634.00	27323.41
634.15	27351.50
634.30	27358.52
634.45	27316.39
634.60	27395.97
634.75	27358.52
634.90	27545.76
635.05	27480.23
635.19	27548.11
635.34	27513.00
635.49	27400.65
635.64	26831.90
635.79	27388.95
635.94	27218.09
636.09	27379.59
636.24	27110.43
636.39	27133.83
636.53	27199.37
636.68	27187.66
636.83	26864.67
636.98	27358.52
637.13	27253.20
637.28	27140.85
637.43	27058.93
637.57	27454.48
637.72	27023.83
637.87	26848.29
638.02	26859.99
638.17	27101.06
638.32	26927.86
638.46	26728.92
638.61	26607.21
638.76	26672.74
638.91	26670.40
639.06	26965.31
639.20	27178.30
639.35	26551.04
639.50	26644.66
639.65	27208.73
639.80	26848.29
639.94	26661.04
640.09	26885.73
640.24	26719.56
640.39	26520.61
640.54	26239.75
640.68	26438.69
640.83	26874.03
640.98	26347.41
641.13	26092.29
641.27	26394.22
641.42	26607.21
641.57	26590.83
641.72	26462.10
641.86	26553.38
642.01	26459.76
642.16	26555.72
642.31	26345.07
642.45	26218.68
642.60	26185.91
642.75	25839.51
642.90	25811.43
643.04	26253.79
643.19	26003.35
643.34	26012.71
643.48	26146.12
643.63	26146.12
643.78	26501.89
643.93	26394.22
644.07	26263.15
644.22	26679.77
644.37	26525.29
644.51	26214.00
644.66	26075.91
644.81	26106.34
644.95	26171.87
645.10	26050.16
645.25	26132.08
645.39	26253.79
645.54	26094.63
645.69	25846.54
645.83	26073.57
645.98	26078.25
646.13	26239.75
646.27	26052.50
646.42	26115.70
646.57	26347.41
646.71	25937.82
646.86	25872.28
647.00	26099.31
647.15	25621.84
647.30	26239.75
647.44	26033.78
647.59	25699.08
647.74	25663.97
647.88	25656.95
648.03	25443.96
648.17	26103.99
648.32	25837.17
648.47	26001.01
648.61	25827.81
648.76	25834.83
648.90	25528.22
649.05	25579.71
649.20	25584.40
649.34	25755.26
649.49	25488.43
649.63	25467.37
649.78	25252.04
649.92	25738.87
650.07	25766.96
650.21	25560.99
650.36	25778.66
650.51	25406.52
650.65	25867.60
650.80	25289.49
650.94	25656.95
651.09	25535.24
651.23	25366.73
651.38	25397.15
651.52	25474.39
651.67	25315.23
651.81	25331.62
651.96	25127.99
652.10	25256.72
652.25	25146.72
652.39	25425.24
652.54	25415.88
652.68	25408.86
652.83	25521.20
652.97	25663.97
653.12	25088.20
653.26	25078.84
653.41	25589.08
653.55	25303.53
653.70	25156.08
653.84	25516.52
653.99	24833.08
654.13	25113.95
654.27	25223.95
654.42	25184.16
654.56	24915.00
654.71	25188.85
654.85	25153.74
655.00	25216.93
655.14	25022.67
655.29	25149.06
655.43	24968.84
655.57	24868.19
655.72	24931.39
655.86	24790.95
656.01	24854.15
656.15	25057.78
656.30	24641.16
656.44	24463.28
656.58	24486.68
656.73	24711.38
656.87	24709.04
657.01	25001.60
657.16	24762.87
657.30	24929.05
657.45	24549.88
657.59	24746.48
657.73	24592.01
657.88	24596.69
658.02	24718.40
658.16	24870.53
658.31	24369.66
658.45	24676.27
658.60	24397.74
658.74	24470.30
658.88	24556.90
659.03	23964.75
659.17	24561.58
659.31	24414.13
659.46	24297.10
659.60	24615.41
659.74	24582.65
659.89	24465.62
660.03	24418.81
660.17	24105.18
660.32	24173.05
660.46	24254.97
660.60	24084.11
660.74	23772.82
660.89	24030.28
661.03	24212.84
661.17	23786.86
661.32	24416.47
661.46	24093.47
661.60	23690.90
661.74	24196.46
661.89	23899.21
662.03	24187.10
662.17	24121.56
662.31	23840.70
662.46	24149.65
662.60	23770.48
662.74	23927.30
662.88	23550.47
663.03	23403.02
663.17	23410.04
663.31	23414.72
663.45	23475.57
663.60	23515.36
663.74	23482.59
663.88	23445.15
664.02	23770.48
664.17	23491.96
664.31	23531.75
664.45	23220.45
664.59	23449.83
664.73	23098.75
664.88	23337.48
665.02	23274.29
665.16	22955.97
665.30	23222.80
665.44	23040.23
665.59	22813.20
665.73	23014.49
665.87	22771.07
666.01	23194.71
666.15	22902.14
666.29	22686.81
666.44	22913.84
666.58	22986.40
666.72	22829.59
666.86	22988.74
667.00	23161.94
667.14	22700.86
667.28	22902.14
667.43	22934.91
667.57	22806.18
667.71	22558.08
667.85	22616.60
667.99	22459.78
668.13	22789.80
668.27	22710.22
668.41	22363.82
668.56	22302.96
668.70	22654.05
668.84	22602.55
668.98	22527.66
669.12	22270.20
669.26	22501.91
669.40	22340.41
669.54	22494.89
669.68	22401.27
669.82	22038.48
669.96	21745.92
670.10	21699.11
670.25	22199.98
670.39	21928.48
670.53	21867.63
670.67	22012.74
670.81	22277.22
670.95	21958.91
671.09	21982.31
671.23	22059.55
671.37	21823.16
671.51	21867.63
671.65	21832.52
671.79	21736.56
671.93	21521.23
672.07	21633.57
672.21	21542.29
672.35	21507.18
672.49	21231.00
672.63	21350.37
672.77	21308.24
672.91	21223.98
673.05	21455.69
673.19	21261.43
673.33	21191.21
673.47	21621.87
673.61	21429.94
673.75	21078.86
673.89	21067.16
674.03	21130.36
674.17	21111.63
674.31	21003.97
674.45	20812.04
674.59	20891.62
674.73	20959.50
674.87	20592.03
675.01	20786.30
675.15	20482.03
675.29	20594.37
675.43	20585.01
675.56	20800.34
675.70	20606.08
675.84	20727.78
675.98	20196.48
676.12	20779.28
676.26	20587.35
676.40	20463.30
676.54	20486.71
676.68	20318.19
676.82	20011.58
676.96	19903.92
677.10	19822.00
677.23	20016.26
677.37	20025.62
677.51	19843.06
677.65	19695.61
677.79	19866.47
677.93	19524.75
678.07	19761.14
678.21	19506.02
678.34	19461.55
678.48	19829.02
678.62	19515.39
678.76	19133.88
678.90	19428.79
679.04	19473.26
679.18	19365.59
679.31	18881.10
679.45	19005.15
679.59	18696.20
679.73	18815.57
679.87	18743.01
680.00	18700.88
680.14	18466.83
680.28	18913.87
680.42	18799.18
680.56	18813.23
680.70	18698.54
680.83	18647.05
680.97	18621.30
681.11	18424.70
681.25	18700.88
681.39	18387.25
681.52	18373.21
681.66	17867.65
681.80	18153.20
681.94	17933.18
682.07	17874.67
682.21	17832.54
682.35	17621.89
682.49	17736.58
682.62	17998.72
682.76	18059.57
682.90	17748.28
683.04	17715.51
683.17	17694.45
683.31	17488.48
683.45	17633.60
683.59	17289.54
683.72	17521.25
683.86	17401.88
684.00	17315.28
684.13	17252.09
684.27	17177.19
684.41	17341.03
684.55	16788.66
684.68	16950.16
684.82	17018.04
684.96	16989.95
685.09	17025.06
685.23	16765.26
685.37	16514.82
685.50	16915.05
685.64	16830.79
685.78	16765.26
685.91	16868.24
686.05	16683.34
686.19	16437.58
686.32	16521.84
686.46	16236.30
686.60	16219.91
686.73	15948.41
686.87	16194.17
687.01	16072.46
687.14	16030.33
687.28	16035.01
687.42	15939.05
687.55	15681.59
687.69	15985.86
687.82	15927.35
687.96	15641.80
688.10	15620.74
688.23	15831.38
688.37	15538.82
688.50	15487.32
688.64	15501.37
688.78	15576.27
688.91	15477.96
689.05	15583.29
689.18	15154.97
689.32	14885.81
689.46	15272.00
689.59	15194.76
689.73	15157.31
689.86	14951.34
690.00	14939.64
690.13	15021.56
690.27	14981.77
690.41	15035.60
690.54	14904.53
690.68	14616.65
690.81	14780.48
690.95	14583.88
691.08	14771.12
691.22	14530.05
691.35	14539.41
691.49	14513.66
691.62	14810.91
691.76	14417.70
691.89	14415.36
692.03	14092.37
692.16	14113.43
692.30	13710.86
692.43	14068.96
692.57	13905.12
692.70	14029.17
692.84	14071.30
692.97	13961.30
693.11	13963.64
693.24	13827.88
693.38	13760.01
693.51	13851.29
693.65	13954.27
693.78	13551.70
693.92	13453.40
694.05	13668.73
694.19	13397.23
694.32	13224.03
694.45	13296.58
694.59	13462.76
694.72	13151.47
694.86	13083.59
694.99	12879.97
695.13	12870.61
695.26	13123.38
695.39	12812.09
695.53	12666.98
695.66	12994.65
695.80	12863.58
695.93	12929.12
696.07	12865.92
696.20	12744.22
696.33	12648.26
696.47	12671.66
696.60	12500.80
696.73	12482.08
696.87	12418.88
697.00	12241.00
697.14	12269.09
697.27	12025.67
697.40	11988.22
697.54	12142.70
697.67	11985.88
697.80	11929.71
697.94	11910.99
698.07	11749.49
698.21	11939.07
698.34	11943.75
698.47	12100.57
698.61	12046.74
698.74	11665.23
698.87	11831.41
699.01	11557.57
699.14	11735.45
699.27	11520.12
699.40	11337.56
699.54	11499.05
699.67	11314.15
699.80	11208.83
699.94	11328.19
700.07	11494.37
700.20	11239.25
700.34	11293.08
700.47	11009.88
700.60	11222.87
700.73	11129.25
700.87	10857.75
701.00	10768.80
701.13	11070.73
701.26	11087.12
701.40	10752.42
701.53	10832.00
701.66	10675.18
701.79	10567.52
701.93	10740.72
702.06	10480.92
702.19	10714.97
702.32	10635.39
702.46	10406.02
702.59	10420.06
702.72	10139.20
702.85	10317.08
702.99	10553.48
703.12	10239.84
703.25	10162.61
703.38	10022.17
703.51	9980.04
703.65	10160.27
703.78	10258.57
703.91	10005.79
704.04	10136.86
704.17	10127.50
704.31	9961.32
704.44	9795.14
704.57	9788.12
704.70	9598.54
704.83	9720.24
704.96	9713.22
705.10	9500.23
705.23	9476.83
>>>>>End Processed Spectral Data<<<<<
