SpectraSuite Data File
++++++++++++++++++++++++++++++++++++
Date: Fri Oct 18 13:58:36 GMT-05:00 2013
User: bianchi
Dark Spectrum Present: No
Reference Spectrum Present: No
Number of Sampled Component Spectra: 1
Spectrometers: USB2+H05261
Integration Time (usec): 50000 (USB2+H05261)
Spectra Averaged: 1 (USB2+H05261)
Boxcar Smoothing: 0 (USB2+H05261)
Correct for Electrical Dark: No (USB2+H05261)
Strobe/Lamp Enabled: No (USB2+H05261)
Correct for Detector Non-linearity: No (USB2+H05261)
Correct for Stray Light: No (USB2+H05261)
Number of Pixels in Processed Spectrum: 2048
>>>>>Begin Processed Spectral Data<<<<<
365.73	0.00
365.92	0.00
366.12	0.00
366.32	0.00
366.52	0.00
366.72	0.00
366.91	0.00
367.11	0.00
367.31	0.00
367.51	0.00
367.70	0.00
367.90	0.00
368.10	0.00
368.30	0.00
368.49	0.00
368.69	0.00
368.89	0.00
369.09	0.00
369.28	0.00
369.48	0.00
369.68	0.00
369.87	0.00
370.07	0.00
370.27	0.00
370.47	7.02
370.66	14.04
370.86	9.36
371.06	91.28
371.25	102.98
371.45	128.73
371.65	201.29
371.84	159.16
372.04	215.33
372.24	156.82
372.44	177.88
372.63	166.18
372.83	159.16
373.03	215.33
373.22	220.01
373.42	229.37
373.62	170.86
373.81	220.01
374.01	318.31
374.21	257.46
374.40	283.20
374.60	290.23
374.79	187.24
374.99	304.27
375.19	280.86
375.38	224.69
375.58	201.29
375.78	245.76
375.97	168.52
376.17	269.16
376.37	283.20
376.56	308.95
376.76	313.63
376.95	257.46
377.15	257.46
377.35	322.99
377.54	294.91
377.74	231.71
377.93	238.73
378.13	285.55
378.33	234.05
378.52	301.93
378.72	262.14
378.91	299.59
379.11	280.86
379.31	320.65
379.50	290.23
379.70	290.23
379.89	304.27
380.09	271.50
380.28	337.04
380.48	332.36
380.68	320.65
380.87	346.40
381.07	358.10
381.26	351.08
381.46	285.55
381.65	322.99
381.85	365.12
382.04	311.29
382.24	320.65
382.43	367.46
382.63	334.70
382.83	330.02
383.02	332.36
383.22	414.27
383.41	297.25
383.61	355.76
383.80	355.76
384.00	334.70
384.19	346.40
384.39	339.38
384.58	388.53
384.78	379.17
384.97	337.04
385.17	393.21
385.36	299.59
385.56	493.85
385.75	379.17
385.95	414.27
386.14	397.89
386.34	435.34
386.53	404.91
386.72	535.98
386.92	484.49
387.11	383.85
387.31	386.19
387.50	468.11
387.70	353.42
387.89	386.19
388.09	386.19
388.28	369.80
388.48	409.59
388.67	514.92
388.86	447.04
389.06	510.24
389.25	449.38
389.45	444.70
389.64	479.81
389.84	397.89
390.03	475.13
390.22	528.96
390.42	524.28
390.61	449.38
390.81	528.96
391.00	496.19
391.19	484.49
391.39	550.03
391.58	561.73
391.78	477.47
391.97	472.79
392.16	519.60
392.36	461.09
392.55	531.30
392.75	510.24
392.94	550.03
393.13	533.64
393.33	519.60
393.52	578.11
393.71	524.28
393.91	517.26
394.10	559.39
394.29	512.58
394.49	573.43
394.68	638.97
394.88	650.67
395.07	585.13
395.26	594.50
395.46	622.58
395.65	573.43
395.84	641.31
396.04	674.07
396.23	634.29
396.42	514.92
396.62	653.01
396.81	692.80
397.00	674.07
397.19	667.05
397.39	645.99
397.58	648.33
397.77	695.14
397.97	622.58
398.16	690.46
398.35	631.94
398.55	678.76
398.74	725.57
398.93	695.14
399.12	777.06
399.32	751.31
399.51	737.27
399.70	772.38
399.90	667.05
400.09	816.85
400.28	720.88
400.47	765.36
400.67	851.96
400.86	718.54
401.05	767.70
401.24	727.91
401.44	725.57
401.63	842.59
401.82	795.78
402.01	786.42
402.21	772.38
402.40	784.08
402.59	779.40
402.78	842.59
402.97	947.92
403.17	866.00
403.36	891.74
403.55	833.23
403.74	870.68
403.93	933.87
404.13	926.85
404.32	882.38
404.51	870.68
404.70	901.11
404.89	901.11
405.09	950.26
405.28	1018.13
405.47	901.11
405.66	947.92
405.85	1008.77
406.05	898.77
406.24	929.19
406.43	947.92
406.62	1022.81
406.81	1067.28
407.00	997.07
407.20	1027.50
407.39	1039.20
407.58	1032.18
407.77	990.05
407.96	1011.11
408.15	1069.62
408.34	1069.62
408.54	992.39
408.73	1025.15
408.92	1074.31
409.11	940.90
409.30	1139.84
409.49	1109.41
409.68	1090.69
409.87	1160.91
410.07	1259.21
410.26	1181.97
410.45	1137.50
410.64	1224.10
410.83	1135.16
411.02	1259.21
411.21	1308.36
411.40	1153.88
411.59	1245.16
411.78	1270.91
411.98	1238.14
412.17	1277.93
412.36	1301.34
412.55	1331.76
412.74	1299.00
412.93	1355.17
413.12	1320.06
413.31	1444.11
413.50	1355.17
413.69	1390.28
413.88	1369.21
414.07	1462.83
414.26	1432.41
414.45	1509.65
414.64	1458.15
414.83	1451.13
415.02	1425.39
415.22	1526.03
415.41	1570.50
415.60	1556.46
415.79	1614.97
415.98	1586.88
416.17	1519.01
416.36	1598.59
416.55	1631.35
416.74	1549.43
416.93	1551.78
417.12	1614.97
417.31	1717.95
417.50	1774.13
417.69	1757.74
417.88	1708.59
418.07	1764.76
418.26	1685.19
418.45	1722.63
418.64	1788.17
418.83	1750.72
419.02	1736.68
419.21	1664.12
419.39	1912.22
419.58	1874.77
419.77	1813.92
419.96	1900.52
420.15	1856.04
420.34	1834.98
420.53	1853.70
420.72	1863.07
420.91	1884.13
421.10	1940.30
421.29	1956.69
421.48	1914.56
421.67	1947.33
421.86	1919.24
422.05	1961.37
422.24	1902.86
422.43	2043.29
422.61	1912.22
422.80	1984.77
422.99	1898.17
423.18	1933.28
423.37	1963.71
423.56	1973.07
423.75	1989.46
423.94	1888.81
424.13	1867.75
424.32	1881.79
424.50	1996.48
424.69	1996.48
424.88	2167.34
425.07	1926.26
425.26	1949.67
425.45	2038.61
425.64	2012.86
425.83	1923.92
426.01	1996.48
426.20	2071.37
426.39	1956.69
426.58	2066.69
426.77	2104.14
426.96	2080.74
427.15	1970.73
427.33	2092.44
427.52	2176.70
427.71	2127.55
427.90	2141.59
428.09	2176.70
428.28	2150.95
428.46	2162.66
428.65	2251.60
428.84	2174.36
429.03	2235.21
429.22	2083.08
429.40	2127.55
429.59	2207.13
429.78	2172.02
429.97	2069.03
430.16	2338.20
430.34	2209.47
430.53	2286.70
430.72	2272.66
430.91	2211.81
431.10	2242.23
431.28	2321.81
431.47	2328.83
431.66	2422.45
431.85	2387.35
432.03	2307.77
432.22	2478.63
432.41	2431.82
432.60	2396.71
432.79	2321.81
432.97	2415.43
433.16	2347.56
433.35	2401.39
433.54	2434.16
433.72	2466.92
433.91	2518.42
434.10	2633.10
434.28	2562.89
434.47	2399.05
434.66	2537.14
434.85	2511.39
435.03	2504.37
435.22	2541.82
435.41	2649.49
435.59	2609.70
435.78	2614.38
435.97	2612.04
436.16	2785.24
436.34	2532.46
436.53	2747.79
436.72	2644.81
436.90	2623.74
437.09	2640.12
437.28	2696.30
437.46	2630.76
437.65	2616.72
437.84	2731.41
438.02	2597.99
438.21	2843.75
438.40	2708.00
438.58	2871.84
438.77	2932.69
438.96	2846.09
439.14	2984.18
439.33	2979.50
439.52	2928.01
439.70	2960.78
439.89	2932.69
440.08	3016.95
440.26	2977.16
440.45	2918.65
440.63	3098.87
440.82	3019.29
441.01	3054.40
441.19	3173.77
441.38	3131.64
441.57	3173.77
441.75	3105.89
441.94	3215.90
442.12	3300.16
442.31	3218.24
442.50	3211.22
442.68	3162.06
442.87	3187.81
443.05	3274.41
443.24	3293.13
443.43	3368.03
443.61	3307.18
443.80	3494.42
443.98	3272.07
444.17	3382.07
444.35	3372.71
444.54	3281.43
444.73	3442.93
444.91	3337.60
445.10	3471.01
445.28	3302.50
445.47	3468.67
445.65	3351.65
445.84	3545.91
446.02	3517.83
446.21	3449.95
446.39	3433.57
446.58	3391.44
446.77	3473.36
446.95	3419.52
447.14	3417.18
447.32	3571.66
447.51	3520.17
447.69	3431.23
447.88	3510.80
448.06	3522.51
448.25	3417.18
448.43	3574.00
448.62	3541.23
448.80	3499.10
448.99	3494.42
449.17	3482.72
449.36	3538.89
449.54	3712.09
449.73	3714.43
449.91	3857.20
450.10	3662.94
450.28	3742.52
450.46	3679.32
450.65	3613.79
450.83	3765.92
451.02	3613.79
451.20	3665.28
451.39	3791.67
451.57	3660.60
451.76	3712.09
451.94	3681.66
452.13	3782.31
452.31	3779.97
452.49	3712.09
452.68	3843.16
452.86	3962.53
453.05	3990.61
453.23	3899.33
453.42	3815.07
453.60	3763.58
453.78	3927.42
453.97	3908.69
454.15	3819.75
454.34	3847.84
454.52	3941.46
454.70	3911.04
454.89	3934.44
455.07	4004.66
455.26	4126.36
455.44	4170.83
455.62	4037.42
455.81	3911.04
455.99	4117.00
456.17	4180.20
456.36	4105.30
456.54	4119.34
456.73	4222.33
456.91	4245.73
457.09	4208.28
457.28	4397.87
457.46	4332.33
457.64	4435.32
457.83	4252.75
458.01	4198.92
458.19	4337.01
458.38	4376.80
458.56	4442.34
458.74	4311.27
458.93	4407.23
459.11	4416.59
459.29	4346.37
459.48	4435.32
459.66	4526.60
459.84	4475.10
460.03	4655.33
460.21	4533.62
460.39	4306.59
460.57	4409.57
460.76	4573.41
460.94	4503.19
461.12	4388.50
461.31	4554.68
461.49	4617.88
461.67	4629.58
461.85	4517.23
462.04	4585.11
462.22	4807.46
462.40	4683.41
462.59	4678.73
462.77	4533.62
462.95	4723.20
463.13	4737.24
463.32	4784.06
463.50	4753.63
463.68	4814.48
463.86	4718.52
464.05	4692.77
464.23	4812.14
464.41	4802.78
464.59	4851.93
464.78	4968.96
464.96	4807.46
465.14	4727.88
465.32	4828.53
465.50	4997.04
465.69	4926.83
465.87	4954.91
466.05	4842.57
466.23	4880.02
466.41	5078.96
466.60	5224.08
466.78	4985.34
466.96	4957.25
467.14	5032.15
467.32	5013.43
467.51	4987.68
467.69	5039.17
467.87	5057.90
468.05	5104.71
468.23	5008.75
468.41	5125.77
468.60	5184.29
468.78	5317.70
468.96	4971.30
469.14	5102.37
469.32	5125.77
469.50	5123.43
469.69	5345.78
469.87	5277.91
470.05	5364.51
470.23	5329.40
470.41	5331.74
470.59	5348.12
470.77	5298.97
470.95	5310.68
471.14	5493.24
471.32	5362.17
471.50	5584.52
471.68	5437.06
471.86	5568.13
472.04	5722.61
472.22	5687.50
472.40	5626.65
472.58	5750.70
472.77	5617.29
472.95	5734.31
473.13	6061.99
473.31	5750.70
473.49	5783.46
473.67	5778.78
473.85	5881.77
474.03	5944.96
474.21	6106.46
474.39	5813.89
474.57	5933.26
474.75	5937.94
474.93	6188.38
475.12	6169.65
475.30	6164.97
475.48	6113.48
475.66	6085.39
475.84	6085.39
476.02	6328.81
476.20	6326.47
476.38	6312.42
476.56	6487.96
476.74	6497.33
476.92	6480.94
477.10	6356.90
477.28	6682.23
477.46	6637.76
477.64	6665.85
477.82	6768.83
478.00	6792.23
478.18	6958.41
478.36	6881.18
478.54	6906.92
478.72	7073.10
478.90	7103.53
479.08	7199.49
479.26	7159.70
479.44	7265.02
479.62	6958.41
479.80	7370.35
479.98	7393.75
480.16	7562.27
480.34	7494.40
480.52	7485.03
480.70	7489.71
480.88	7480.35
481.06	7606.74
481.24	7520.14
481.41	7571.63
481.59	7833.77
481.77	7915.69
481.95	8056.12
482.13	8060.80
482.31	8109.96
482.49	8107.62
482.67	8238.69
482.85	8304.22
483.03	8463.38
483.21	8320.60
483.39	8336.99
483.57	8575.72
483.74	8674.03
483.92	8351.03
484.10	8650.62
484.28	8767.65
484.46	8847.22
484.64	9111.71
484.82	8887.01
485.00	8664.66
485.18	9046.17
485.35	9303.63
485.53	9100.00
485.71	9228.73
485.89	9488.53
486.07	9600.88
486.25	9640.67
486.43	9586.83
486.61	9628.96
486.78	9776.42
486.96	9984.73
487.14	10129.84
487.32	10209.42
487.50	10050.26
487.68	10186.01
487.85	10293.68
488.03	10141.54
488.21	10164.95
488.39	10567.52
488.57	10525.39
488.75	10427.09
488.92	10719.65
489.10	10958.39
489.28	10902.22
489.46	10836.68
489.64	11047.33
489.81	11190.10
489.99	11253.30
490.17	11180.74
490.35	11379.68
490.53	11295.43
490.70	11473.31
490.88	11618.42
491.06	11756.51
491.24	11602.04
491.41	11630.12
491.59	11946.09
491.77	11999.93
491.95	12126.32
492.13	12121.63
492.30	12203.55
492.48	12205.89
492.66	12013.97
492.84	12198.87
493.01	12348.67
493.19	12573.36
493.37	12580.38
493.54	12659.96
493.72	12870.61
493.90	12690.38
494.08	12936.14
494.25	13345.73
494.43	13008.70
494.61	13001.68
494.79	12865.92
494.96	13170.19
495.14	13275.52
495.32	13343.39
495.49	13659.37
495.67	13254.45
495.85	13577.45
496.02	13790.44
496.20	13624.26
496.38	13947.25
496.55	13647.66
496.73	14106.41
496.91	14003.43
497.09	14242.16
497.26	14260.88
497.44	13708.52
497.62	14394.29
497.79	14183.65
497.97	14218.75
498.14	14635.37
498.32	14656.43
498.50	14752.40
498.67	14686.86
498.85	14714.95
499.03	14782.82
499.20	15059.01
499.38	14909.21
499.56	15084.75
499.73	15342.21
499.91	15393.70
500.08	15180.71
500.26	15030.92
500.44	15250.93
500.61	15374.98
500.79	15417.11
500.97	15676.91
501.14	15667.55
501.32	15438.17
501.49	15838.41
501.67	15611.37
501.84	15934.37
502.02	15583.29
502.20	15857.13
502.37	16016.29
502.55	15981.18
502.72	15953.09
502.90	15969.48
503.07	15854.79
503.25	16257.36
503.43	16198.85
503.60	16414.18
503.78	16201.19
503.95	16545.25
504.13	16304.17
504.30	16430.56
504.48	16325.24
504.65	16669.30
504.83	16652.91
505.01	16826.11
505.18	16802.71
505.36	17137.40
505.53	16758.24
505.71	16594.40
505.88	17027.40
506.06	16961.86
506.23	17490.82
506.41	17130.38
506.58	17205.28
506.76	16968.88
506.93	17053.14
507.11	17404.22
507.28	17366.78
507.46	17387.84
507.63	17596.15
507.81	17371.46
507.98	17568.06
508.16	17446.35
508.33	17834.88
508.50	17649.98
508.68	17640.62
508.85	17664.02
509.03	18033.83
509.20	18118.09
509.38	18249.16
509.55	18209.37
509.73	18225.75
509.90	18263.20
510.08	18270.22
510.25	17998.72
510.42	18396.61
510.60	18663.43
510.77	18403.63
510.95	18455.12
511.12	18237.45
511.30	18743.01
511.47	18841.31
511.64	18595.56
511.82	18728.97
511.99	18785.14
512.17	18630.66
512.34	18588.53
512.51	18885.78
512.69	19042.60
512.86	19112.81
513.04	19250.91
513.21	19047.28
513.38	18991.11
513.56	19405.38
513.73	19250.91
513.90	19559.86
514.08	19374.95
514.25	19389.00
514.43	19524.75
514.60	19484.96
514.77	19686.25
514.95	20107.54
515.12	19571.56
515.29	19943.70
515.47	19562.20
515.64	20114.56
515.81	19861.79
515.99	19866.47
516.16	20161.37
516.33	19953.07
516.51	20322.87
516.68	20217.55
516.85	19857.10
517.03	20159.03
517.20	20032.65
517.37	20025.62
517.54	20650.55
517.72	20507.77
517.89	20379.04
518.06	20252.66
518.24	20622.46
518.41	20336.91
518.58	20470.33
518.75	20318.19
518.93	20912.69
519.10	20437.56
519.27	20893.96
519.45	20596.71
519.62	20641.18
519.79	20985.24
519.96	20793.32
520.14	20959.50
520.31	20826.09
520.48	21139.72
520.65	21329.30
520.83	21074.18
521.00	21380.79
521.17	21406.54
521.34	21003.97
521.52	21348.03
521.69	21493.14
521.86	21626.55
522.03	21556.33
522.20	21558.67
522.38	21497.82
522.55	21537.61
522.72	21680.38
522.89	21649.96
523.07	21869.97
523.24	21827.84
523.41	21813.79
523.58	21762.30
523.75	21937.84
523.92	21923.80
524.10	21930.82
524.27	22366.16
524.44	22277.22
524.61	22256.15
524.78	22134.45
524.96	21982.31
525.13	22202.32
525.30	22422.33
525.47	22207.00
525.64	22483.19
525.81	22312.33
525.98	22366.16
526.16	22677.45
526.33	22590.85
526.50	23009.81
526.67	22382.54
526.84	22757.03
527.01	22324.03
527.18	22515.95
527.36	22436.38
527.53	23150.24
527.70	22986.40
527.87	23323.44
528.04	22820.22
528.21	22551.06
528.38	23225.14
528.55	23346.84
528.72	22995.76
528.89	23264.92
529.07	22965.34
529.24	23302.37
529.41	23124.49
529.58	23424.08
529.75	23309.40
529.92	23843.04
530.09	23248.54
530.26	23363.23
530.43	23557.49
530.60	23328.12
530.77	23381.95
530.94	23651.11
531.11	23506.00
531.28	23513.02
531.46	23660.48
531.63	23620.69
531.80	23726.01
531.97	23983.47
532.14	24184.76
532.31	23838.36
532.48	23939.00
532.65	23770.48
532.82	23707.29
532.99	24137.94
533.16	23695.58
533.33	24084.11
533.50	24140.29
533.67	24056.03
533.84	24020.92
534.01	24425.83
534.18	23999.85
534.35	24121.56
534.52	24215.18
534.69	24276.04
534.86	24608.39
535.03	24198.80
535.20	24463.28
535.37	24278.38
535.54	24159.01
535.71	24116.88
535.88	24341.57
536.05	24404.77
536.22	24699.67
536.38	24549.88
536.55	24905.64
536.72	24599.03
536.89	24786.27
537.06	24589.67
537.23	24854.15
537.40	24809.68
537.57	24599.03
537.74	24828.40
537.91	25118.63
538.08	25259.06
538.25	25057.78
538.42	24802.66
538.59	25041.39
538.75	25158.42
538.92	25022.67
539.09	25017.99
539.26	25476.73
539.43	25092.88
539.60	25294.17
539.77	25376.09
539.94	25556.31
540.11	25193.53
540.28	25429.92
540.44	25170.12
540.61	24931.39
540.78	25118.63
540.95	25137.35
541.12	25717.81
541.29	25511.84
541.46	25443.96
541.62	25188.85
541.79	25851.22
541.96	25376.09
542.13	25792.70
542.30	25682.70
542.47	25724.83
542.63	25816.11
542.80	25883.98
542.97	26221.02
543.14	25645.25
543.31	25888.67
543.48	25921.43
543.64	26232.72
543.81	26366.13
543.98	26319.32
544.15	26373.16
544.32	26178.89
544.48	26462.10
544.65	26284.22
544.82	26377.84
544.99	25986.97
545.16	26305.28
545.32	26457.42
545.49	26700.83
545.66	26768.71
545.83	26560.40
546.00	26712.53
546.16	26874.03
546.33	26237.41
546.50	25811.43
546.67	26441.03
546.83	26263.15
547.00	26560.40
547.17	26637.64
547.34	26946.59
547.50	26937.23
547.67	26815.52
547.84	26944.25
548.00	26946.59
548.17	26979.36
548.34	26661.04
548.51	26984.04
548.67	27246.18
548.84	26913.82
549.01	27311.71
549.18	27105.74
549.34	26759.34
549.51	27082.34
549.68	27005.10
549.84	26923.18
550.01	27103.40
550.18	26944.25
550.34	27028.51
550.51	27152.55
550.68	27147.87
550.84	27103.40
551.01	27772.80
551.18	27077.66
551.34	27491.93
551.51	27185.32
551.68	27498.95
551.84	27379.59
552.01	27140.85
552.18	27723.65
552.34	27372.57
552.51	27772.80
552.68	27402.99
552.84	27543.42
553.01	27700.24
553.18	27377.25
553.34	27641.73
553.51	27452.14
553.67	28044.30
553.84	28004.51
554.01	27733.01
554.17	27651.09
554.34	27555.13
554.51	27864.08
554.67	27592.58
554.84	27653.43
555.00	28063.02
555.17	27580.87
555.33	27957.70
555.50	27627.68
555.67	27772.80
555.83	27679.18
556.00	27938.97
556.16	28039.62
556.33	28030.26
556.50	28163.67
556.66	27929.61
556.83	27920.25
556.99	27693.22
557.16	28002.17
557.32	28161.33
557.49	28252.61
557.65	28121.54
557.82	27929.61
557.98	28320.48
558.15	28116.86
558.32	28119.20
558.48	28332.18
558.65	28271.33
558.81	28629.43
558.98	28327.50
559.14	28268.99
559.31	28273.67
559.47	28503.04
559.64	28343.89
559.80	28613.05
559.97	28500.70
560.13	28456.23
560.30	28666.88
560.46	28332.18
560.63	28521.77
560.79	28231.54
560.96	28444.53
561.12	28367.29
561.29	28208.14
561.45	28233.88
561.61	28826.04
561.78	28697.31
561.94	28568.58
562.11	28727.74
562.27	28762.84
562.44	28842.42
562.60	28634.11
562.77	28634.11
562.93	28624.75
563.10	28767.52
563.26	28751.14
563.42	28467.94
563.59	29008.60
563.75	28393.04
563.92	28945.41
564.08	28470.28
564.24	28823.70
564.41	28512.41
564.57	28877.53
564.74	28786.25
564.90	28809.65
565.07	29120.95
565.23	28664.54
565.39	29027.32
565.56	29188.82
565.72	29010.94
565.88	28549.85
566.05	28854.12
566.21	28779.23
566.38	29092.86
566.54	28479.64
566.70	29029.66
566.87	29158.39
567.03	29523.52
567.19	29256.70
567.36	29090.52
567.52	28933.70
567.68	29343.30
567.85	29095.20
568.01	28727.74
568.17	28739.44
568.34	29364.36
568.50	29193.50
568.66	29034.35
568.83	29322.23
568.99	28861.15
569.15	28933.70
569.32	29127.97
569.48	28638.80
569.64	28982.85
569.81	28893.91
569.97	28905.62
570.13	29228.61
570.30	29266.06
570.46	29116.26
570.62	29085.84
570.78	28989.88
570.95	29144.35
571.11	29125.63
571.27	29198.18
571.43	29076.48
571.60	28877.53
571.76	29130.31
571.92	29043.71
572.09	29535.22
572.25	29350.32
572.41	29207.55
572.57	29137.33
572.74	29373.72
572.90	29427.56
573.06	29298.83
573.22	28978.17
573.38	29319.89
573.55	29465.00
573.71	29504.79
573.87	29677.99
574.03	29511.81
574.20	29514.16
574.36	28971.15
574.52	29465.00
574.68	29184.14
574.84	29542.24
575.01	29340.96
575.17	29443.94
575.33	29184.14
575.49	29479.05
575.65	29591.39
575.82	29771.61
575.98	29509.47
576.14	29542.24
576.30	29362.02
576.46	29474.37
576.62	29193.50
576.79	29511.81
576.95	29523.52
577.11	29926.09
577.27	29502.45
577.43	29722.46
577.59	29252.02
577.75	29586.71
577.92	29280.10
578.08	29223.93
578.24	29392.45
578.40	29357.34
578.56	29530.54
578.72	29713.10
578.88	29848.85
579.04	29439.26
579.21	29518.84
579.37	29813.74
579.53	29514.16
579.69	29427.56
579.85	29254.36
580.01	29738.85
580.17	29539.90
580.33	29401.81
580.49	29516.50
580.65	29720.12
580.82	29598.41
580.98	29919.07
581.14	29263.72
581.30	29593.73
581.46	29692.04
581.62	29230.95
581.78	29460.32
581.94	29390.11
582.10	29509.47
582.26	29450.96
582.42	29642.88
582.58	29474.37
582.74	29661.61
582.90	29507.13
583.06	29841.83
583.22	29858.21
583.38	29624.16
583.54	29504.79
583.70	29713.10
583.86	29764.59
584.02	29149.03
584.18	29621.82
584.34	29963.54
584.50	29661.61
584.66	29659.27
584.82	29792.68
584.98	29565.65
585.14	29308.19
585.30	29350.32
585.46	29563.31
585.62	29544.58
585.78	29886.30
585.94	29425.22
586.10	29680.33
586.26	29809.06
586.42	29872.26
586.58	29528.20
586.74	29535.22
586.90	29755.23
587.06	29521.18
587.22	29713.10
587.38	29521.18
587.54	29881.62
587.70	29663.95
587.86	29713.10
588.02	29532.88
588.18	30127.38
588.34	29780.98
588.49	29979.92
588.65	29647.57
588.81	29369.04
588.97	29883.96
589.13	29677.99
589.29	29406.49
589.45	29425.22
589.61	30005.67
589.77	30253.76
589.93	30380.15
590.08	30338.02
590.24	29881.62
590.40	30108.65
590.56	29780.98
590.72	29696.72
590.88	29846.51
591.04	29886.30
591.20	30064.18
591.35	30118.01
591.51	30377.81
591.67	30288.87
591.83	30469.09
591.99	30045.46
592.15	29993.97
592.31	30085.25
592.46	29872.26
592.62	29645.23
592.78	29750.55
592.94	30015.03
593.10	29766.93
593.26	30026.73
593.41	30445.69
593.57	30153.12
593.73	29998.65
593.89	30253.76
594.05	30251.42
594.20	29905.02
594.36	30059.50
594.52	29799.70
594.68	30235.04
594.84	29537.56
594.99	30501.86
595.15	29834.81
595.31	30471.43
595.47	30448.03
595.62	30394.20
595.78	30040.78
595.94	30036.09
596.10	30134.40
596.25	30387.18
596.41	29708.42
596.57	29809.06
596.73	29748.21
596.88	29830.13
597.04	30031.41
597.20	30347.39
597.36	30211.64
597.51	30424.62
597.67	30199.93
597.83	30249.08
597.99	30281.85
598.14	30120.35
598.30	30141.42
598.46	30089.93
598.61	30216.32
598.77	29799.70
598.93	30120.35
599.09	30433.99
599.24	30508.88
599.40	30501.86
599.56	30373.13
599.71	29958.86
599.87	30380.15
600.03	29991.62
600.18	30183.55
600.34	30045.46
600.50	29855.87
600.65	30450.37
600.81	30398.88
600.97	30401.22
601.12	30728.89
601.28	30689.10
601.44	30190.57
601.59	30272.49
601.75	30298.23
601.91	30579.10
602.06	29921.41
602.22	30188.23
602.37	29853.53
602.53	30178.87
602.69	30312.28
602.84	30103.97
603.00	30501.86
603.16	30551.01
603.31	30256.11
603.47	30089.93
603.62	29993.97
603.78	30323.98
603.94	29720.12
604.09	29806.72
604.25	29961.20
604.40	30499.52
604.56	29872.26
604.71	30946.56
604.87	30366.11
605.03	30139.08
605.18	30370.79
605.34	29958.86
605.49	30253.76
605.65	30232.70
605.80	29858.21
605.96	30036.09
606.12	30099.29
606.27	30328.66
606.43	30134.40
606.58	30340.36
606.74	30370.79
606.89	30253.76
607.05	30103.97
607.20	30286.53
607.36	30164.82
607.51	30251.42
607.67	29844.17
607.82	30015.03
607.98	29979.92
608.13	29972.90
608.29	29982.26
608.44	30171.85
608.60	30082.91
608.75	29788.00
608.91	30143.76
609.06	30092.27
609.22	30033.75
609.37	30108.65
609.53	29830.13
609.68	30178.87
609.84	29766.93
609.99	29839.49
610.15	29912.05
610.30	30232.70
610.46	29677.99
610.61	29900.34
610.76	30188.23
610.92	29902.68
611.07	29481.39
611.23	29647.57
611.38	29626.50
611.54	29598.41
611.69	29762.25
611.84	29844.17
612.00	29846.51
612.15	30022.05
612.31	29523.52
612.46	29874.60
612.62	30108.65
612.77	29666.29
612.92	30394.20
613.08	29970.56
613.23	29633.52
613.39	29502.45
613.54	29589.05
613.69	29301.17
613.85	29926.09
614.00	29628.84
614.15	29881.62
614.31	29935.45
614.46	29858.21
614.62	29979.92
614.77	29858.21
614.92	29303.51
615.08	29507.13
615.23	29736.51
615.38	29577.35
615.54	29689.70
615.69	29376.06
615.84	29219.25
616.00	29469.69
616.15	29357.34
616.30	29474.37
616.46	29521.18
616.61	29495.43
616.76	29792.68
616.92	29170.10
617.07	29394.79
617.22	29668.63
617.37	29308.19
617.53	29916.73
617.68	29743.53
617.83	29284.78
617.99	29127.97
618.14	29450.96
618.29	29436.92
618.45	29237.97
618.60	29022.64
618.75	29663.95
618.90	29172.44
619.06	29399.47
619.21	29076.48
619.36	29259.04
619.51	29457.98
619.67	29188.82
619.82	29209.89
619.97	29158.39
620.12	28919.66
620.28	28664.54
620.43	29071.79
620.58	29146.69
620.73	29144.35
620.89	29350.32
621.04	29092.86
621.19	29404.15
621.34	29207.55
621.49	28882.21
621.65	28809.65
621.80	29057.75
621.95	28823.70
622.10	28826.04
622.25	29055.41
622.41	28861.15
622.56	28898.59
622.71	29207.55
622.86	28826.04
623.01	29163.08
623.16	28950.09
623.32	28966.47
623.47	28699.65
623.62	28540.49
623.77	28573.26
623.92	28790.93
624.07	28744.12
624.23	28844.76
624.38	28573.26
624.53	28638.80
624.68	28804.97
624.83	28678.58
624.98	28519.43
625.13	28889.23
625.29	28816.68
625.44	28669.22
625.59	28381.34
625.74	28311.12
625.89	28252.61
626.04	28418.78
626.19	28292.40
626.34	28355.59
626.49	28149.62
626.65	28336.87
626.80	28533.47
626.95	28273.67
627.10	28301.76
627.25	27971.74
627.40	28271.33
627.55	28285.37
627.70	27831.31
627.85	27840.67
628.00	27819.61
628.15	28350.91
628.30	27686.20
628.45	28173.03
628.60	28201.11
628.76	28231.54
628.91	28503.04
629.06	27892.16
629.21	28056.00
629.36	27969.40
629.51	28025.57
629.66	28079.41
629.81	27765.78
629.96	27927.27
630.11	27885.14
630.26	27971.74
630.41	27723.65
630.56	27550.45
630.71	27590.24
630.86	27758.75
631.01	27548.11
631.16	27885.14
631.31	28002.17
631.46	27653.43
631.61	27487.25
631.76	28020.89
631.91	27438.10
632.06	27550.45
632.21	27262.56
632.36	27761.09
632.51	27363.20
632.66	27892.16
632.81	27206.39
632.96	27707.26
633.10	27590.24
633.25	27644.07
633.40	27758.75
633.55	27861.74
633.70	27494.27
633.85	27014.46
634.00	27400.65
634.15	27805.56
634.30	27241.50
634.45	27206.39
634.60	27510.66
634.75	27611.30
634.90	27398.31
635.05	27438.10
635.19	27438.10
635.34	27896.85
635.49	27850.03
635.64	27370.22
635.79	27410.01
635.94	27604.28
636.09	27491.93
636.24	27281.28
636.39	27082.34
636.53	27557.47
636.68	26841.26
636.83	27318.73
636.98	27192.34
637.13	27222.77
637.28	27484.91
637.43	27026.17
637.57	27061.27
637.72	27206.39
637.87	26883.39
638.02	27077.66
638.17	27206.39
638.32	27339.80
638.46	26944.25
638.61	27065.96
638.76	27005.10
638.91	26691.47
639.06	26759.34
639.20	26953.61
639.35	26885.73
639.50	27094.04
639.65	27534.06
639.80	27005.10
639.94	26988.72
640.09	27091.70
640.24	27035.53
640.39	26724.24
640.54	26651.68
640.68	26693.81
640.83	26712.53
640.98	26389.54
641.13	26478.48
641.27	26822.54
641.42	26609.55
641.57	26843.60
641.72	26637.64
641.86	26335.71
642.01	26436.35
642.16	26623.59
642.31	26272.51
642.45	26462.10
642.60	26478.48
642.75	26223.36
642.90	25900.37
643.04	26380.18
643.19	26443.37
643.34	26089.95
643.48	26260.81
643.63	26513.59
643.78	26707.85
643.93	26532.31
644.07	26387.20
644.22	26686.79
644.37	26426.99
644.51	26569.76
644.66	26340.39
644.81	26040.80
644.95	26040.80
645.10	25968.24
645.25	26221.02
645.39	26256.13
645.54	26293.58
645.69	26150.81
645.83	26548.70
645.98	26417.63
646.13	26132.08
646.27	26008.03
646.42	25996.33
646.57	25982.29
646.71	25956.54
646.86	25989.31
647.00	26239.75
647.15	26075.91
647.30	26316.98
647.44	25972.92
647.59	26008.03
647.74	25940.16
647.88	25469.71
648.03	26122.72
648.17	26068.89
648.32	26068.89
648.47	26003.35
648.61	25947.18
648.76	25832.49
648.90	26089.95
649.05	25656.95
649.20	25792.70
649.34	25715.47
649.49	25600.78
649.63	25654.61
649.78	25614.82
649.92	25923.77
650.07	25949.52
650.21	25741.21
650.36	25532.90
650.51	25912.07
650.65	25905.05
650.80	25771.64
650.94	25940.16
651.09	25553.97
651.23	25614.82
651.38	25603.12
651.52	25570.35
651.67	25057.78
651.81	25865.26
651.96	25596.10
652.10	25724.83
652.25	25558.65
652.39	25387.79
652.54	25427.58
652.68	25696.74
652.83	25509.50
652.97	25893.35
653.12	25675.68
653.26	25883.98
653.41	25340.98
653.55	25507.16
653.70	25413.54
653.84	25345.66
653.99	25558.65
654.13	25078.84
654.27	25195.87
654.42	25053.09
654.56	25223.95
654.71	25296.51
654.85	25329.28
655.00	25303.53
655.14	25252.04
655.29	25032.03
655.43	25172.46
655.57	24936.07
655.72	24816.70
655.86	25076.50
656.01	24800.32
656.15	25020.33
656.30	24608.39
656.44	25106.93
656.58	24854.15
656.73	25039.05
656.87	24943.09
657.01	24905.64
657.16	25322.26
657.30	24915.00
657.45	25163.10
657.59	24929.05
657.73	24833.08
657.88	24711.38
658.02	24847.13
658.16	24793.29
658.31	24678.61
658.45	24751.17
658.60	24486.68
658.74	24540.52
658.88	24327.53
659.03	24376.68
659.17	24685.63
659.31	24332.21
659.46	24453.92
659.60	24592.01
659.74	24797.98
659.89	24486.68
660.03	24278.38
660.17	24812.02
660.32	24226.89
660.46	24584.99
660.60	24364.98
660.74	24346.25
660.89	24257.31
661.03	24159.01
661.17	24112.20
661.32	24280.72
661.46	24201.14
661.60	24381.36
661.74	24376.68
661.89	24276.04
662.03	24065.39
662.17	23814.95
662.31	23985.81
662.46	23999.85
662.60	23814.95
662.74	23651.11
662.88	23866.44
663.03	23756.44
663.17	23737.71
663.31	23440.47
663.45	23903.89
663.60	23576.22
663.74	23410.04
663.88	23498.98
664.02	23735.37
664.17	23711.97
664.31	23775.16
664.45	23555.15
664.59	23194.71
664.73	23447.49
664.88	23676.86
665.02	23667.50
665.16	23108.11
665.30	23267.27
665.44	23002.78
665.59	22963.00
665.73	23304.71
665.87	23016.83
666.01	23192.37
666.15	23255.56
666.29	23012.15
666.44	23091.73
666.58	22874.06
666.72	22932.57
666.86	23047.26
667.00	22991.08
667.14	22843.63
667.28	22881.08
667.43	22696.17
667.57	23166.62
667.71	22754.69
667.85	22698.52
667.99	22738.30
668.13	22742.99
668.27	22661.07
668.41	22506.59
668.56	22511.27
668.70	22906.82
668.84	22834.27
668.98	22782.77
669.12	22532.34
669.26	22642.34
669.40	22384.88
669.54	22031.46
669.68	22448.08
669.82	22202.32
669.96	22373.18
670.10	22075.93
670.25	22300.62
670.39	22125.08
670.53	22380.20
670.67	21673.36
670.81	22242.11
670.95	22113.38
671.09	22253.81
671.23	21891.03
671.37	21865.28
671.51	22064.23
671.65	21792.73
671.79	21996.35
671.93	21626.55
672.07	22024.44
672.21	21675.70
672.35	21617.19
672.49	21392.50
672.63	21451.01
672.77	21392.50
672.91	21649.96
673.05	21411.22
673.19	21385.47
673.33	21502.50
673.47	21420.58
673.61	21535.27
673.75	21247.38
673.89	21322.28
674.03	21514.20
674.17	21097.59
674.31	21071.84
674.45	20929.07
674.59	21160.78
674.73	21200.57
674.87	20807.36
675.01	21116.31
675.15	20926.73
675.29	20739.49
675.43	20634.16
675.56	20758.21
675.70	20545.22
675.84	20664.59
675.98	20212.87
676.12	20823.75
676.26	20680.97
676.40	20666.93
676.54	20458.62
676.68	20573.31
676.82	20046.69
676.96	20210.53
677.10	20009.24
677.23	20194.14
677.37	19840.72
677.51	20063.07
677.65	19936.68
677.79	19470.92
677.93	19999.88
678.07	19751.78
678.21	19550.49
678.34	19690.93
678.48	19665.18
678.62	19349.21
678.76	19297.72
678.90	19438.15
679.04	19077.71
679.18	19222.82
679.31	19274.31
679.45	19274.31
679.59	18778.12
679.73	18892.80
679.87	18717.26
680.00	18948.98
680.14	18857.70
680.28	19009.83
680.42	18553.43
680.56	18862.38
680.70	18824.93
680.83	19040.26
680.97	18707.90
681.11	18785.14
681.25	18464.49
681.39	18441.08
681.52	18441.08
681.66	18501.93
681.80	18258.52
681.94	18167.24
682.07	18197.67
682.21	18047.87
682.35	18066.60
682.49	17500.19
682.62	17867.65
682.76	18003.40
682.90	18143.83
683.04	17926.16
683.17	17886.37
683.31	18085.32
683.45	17380.82
683.59	17589.13
683.72	17446.35
683.86	17647.64
684.00	17657.00
684.13	17458.06
684.27	17521.25
684.41	17369.12
684.55	17039.10
684.68	17233.36
684.82	16889.31
684.96	17071.87
685.09	16940.80
685.23	17088.25
685.37	16819.09
685.50	16711.42
685.64	17057.82
685.78	17263.79
685.91	16875.26
686.05	16713.77
686.19	16786.32
686.32	16718.45
686.46	16521.84
686.60	16395.45
686.73	16416.52
686.87	16250.34
687.01	16304.17
687.14	16095.86
687.28	16187.14
687.42	16060.76
687.55	16140.33
687.69	15939.05
687.82	15852.45
687.96	15707.34
688.10	15674.57
688.23	15948.41
688.37	15707.34
688.50	15737.76
688.64	15758.83
688.78	15754.15
688.91	15412.43
689.05	15435.83
689.18	15438.17
689.32	15356.25
689.46	15138.58
689.59	15056.67
689.73	15461.58
689.86	15269.66
690.00	15159.65
690.13	15157.31
690.27	15166.67
690.41	15173.69
690.54	15070.71
690.68	14761.76
690.81	15044.96
690.95	14902.19
691.08	14810.91
691.22	14817.93
691.35	14843.68
691.49	14649.41
691.62	14600.26
691.76	14553.45
691.89	14497.28
692.03	14340.46
692.16	14066.62
692.30	14267.91
692.43	14185.99
692.57	14164.92
692.70	13923.85
692.84	13940.23
692.97	13839.59
693.11	14064.28
693.24	13848.95
693.38	13757.67
693.51	13699.16
693.65	13860.65
693.78	13664.05
693.92	13806.82
694.05	13565.74
694.19	13495.53
694.32	13462.76
694.45	13378.50
694.59	13357.44
694.72	13081.25
694.86	13214.66
694.99	12992.31
695.13	13242.75
695.26	13123.38
695.39	13034.44
695.53	13011.04
695.66	13097.64
695.80	12966.57
695.93	13034.44
696.07	12954.87
696.20	13074.23
696.33	12802.73
696.47	12699.75
696.60	12823.80
696.73	12538.25
696.87	12643.57
697.00	12559.31
697.14	12561.66
697.27	12416.54
697.40	12322.92
697.54	12453.99
697.67	12402.50
697.80	12025.67
697.94	12056.10
698.07	11920.35
698.21	11810.34
698.34	11927.37
698.47	12170.79
698.61	12112.27
698.74	11700.34
698.87	11871.20
699.01	11747.15
699.14	11847.79
699.27	11597.35
699.40	11714.38
699.54	11522.46
699.67	11747.15
699.80	11445.22
699.94	11506.07
700.07	11356.28
700.20	11171.38
700.34	11218.19
700.47	11272.02
700.60	11201.80
700.73	11283.72
700.87	10909.24
701.00	10944.34
701.13	10946.69
701.26	10995.84
701.40	11140.95
701.53	10892.85
701.66	10995.84
701.79	10810.93
701.93	10719.65
702.06	10537.09
702.19	10565.18
702.32	10569.86
702.46	10415.38
702.59	10267.93
702.72	10228.14
702.85	10450.49
702.99	10267.93
703.12	10399.00
703.25	10010.47
703.38	10370.91
703.51	10143.88
703.65	10076.01
703.78	10047.92
703.91	10289.00
704.04	10225.80
704.17	10209.42
704.31	10001.11
704.44	9811.53
704.57	9626.62
704.70	9912.17
704.83	9633.64
704.96	9774.08
705.10	9760.03
705.23	9610.24
>>>>>End Processed Spectral Data<<<<<
