SpectraSuite Data File
++++++++++++++++++++++++++++++++++++
Date: Fri Oct 18 13:58:22 GMT-05:00 2013
User: bianchi
Dark Spectrum Present: No
Reference Spectrum Present: No
Number of Sampled Component Spectra: 1
Spectrometers: USB2+H05261
Integration Time (usec): 50000 (USB2+H05261)
Spectra Averaged: 1 (USB2+H05261)
Boxcar Smoothing: 0 (USB2+H05261)
Correct for Electrical Dark: No (USB2+H05261)
Strobe/Lamp Enabled: No (USB2+H05261)
Correct for Detector Non-linearity: No (USB2+H05261)
Correct for Stray Light: No (USB2+H05261)
Number of Pixels in Processed Spectrum: 2048
>>>>>Begin Processed Spectral Data<<<<<
365.73	7.02
365.92	7.02
366.12	7.02
366.32	0.00
366.52	0.00
366.72	0.00
366.91	0.00
367.11	0.00
367.31	0.00
367.51	0.00
367.70	0.00
367.90	0.00
368.10	0.00
368.30	0.00
368.49	0.00
368.69	0.00
368.89	0.00
369.09	0.00
369.28	0.00
369.48	0.00
369.68	0.00
369.87	0.00
370.07	0.00
370.27	0.00
370.47	0.00
370.66	117.03
370.86	107.66
371.06	166.18
371.25	184.90
371.45	126.39
371.65	198.95
371.84	154.48
372.04	147.45
372.24	170.86
372.44	110.01
372.63	264.48
372.83	180.22
373.03	189.58
373.22	241.08
373.42	138.09
373.62	140.43
373.81	198.95
374.01	210.65
374.21	269.16
374.40	159.16
374.60	264.48
374.79	259.80
374.99	236.39
375.19	301.93
375.38	210.65
375.58	212.99
375.78	252.78
375.97	234.05
376.17	374.49
376.37	201.29
376.56	276.18
376.76	273.84
376.95	294.91
377.15	379.17
377.35	276.18
377.54	276.18
377.74	229.37
377.93	224.69
378.13	234.05
378.33	285.55
378.52	278.52
378.72	318.31
378.91	257.46
379.11	313.63
379.31	290.23
379.50	285.55
379.70	294.91
379.89	248.10
380.09	278.52
380.28	255.12
380.48	320.65
380.68	341.72
380.87	280.86
381.07	367.46
381.26	353.42
381.46	318.31
381.65	435.34
381.85	386.19
382.04	266.82
382.24	390.87
382.43	365.12
382.63	294.91
382.83	322.99
383.02	374.49
383.22	341.72
383.41	397.89
383.61	262.14
383.80	330.02
384.00	393.21
384.19	327.68
384.39	421.30
384.58	369.80
384.78	386.19
384.97	414.27
385.17	320.65
385.36	376.83
385.56	351.08
385.75	372.15
385.95	465.77
386.14	517.26
386.34	362.78
386.53	465.77
386.72	409.59
386.92	397.89
387.11	421.30
387.31	407.25
387.50	404.91
387.70	456.40
387.89	451.72
388.09	400.23
388.28	449.38
388.48	386.19
388.67	463.43
388.86	409.59
389.06	458.74
389.25	477.47
389.45	475.13
389.64	402.57
389.84	465.77
390.03	435.34
390.22	468.11
390.42	533.64
390.61	454.06
390.81	477.47
391.00	423.64
391.19	456.40
391.39	517.26
391.58	599.18
391.78	505.56
391.97	468.11
392.16	470.45
392.36	535.98
392.55	496.19
392.75	552.37
392.94	624.92
393.13	479.81
393.33	493.85
393.52	533.64
393.71	573.43
393.91	559.39
394.10	557.05
394.29	566.41
394.49	580.45
394.68	587.47
394.88	587.47
395.07	545.34
395.26	592.16
395.46	606.20
395.65	660.03
395.84	568.75
396.04	650.67
396.23	561.73
396.42	615.56
396.62	613.22
396.81	638.97
397.00	634.29
397.19	617.90
397.39	697.48
397.58	690.46
397.77	683.44
397.97	615.56
398.16	655.35
398.35	716.20
398.55	706.84
398.74	725.57
398.93	650.67
399.12	720.88
399.32	648.33
399.51	802.80
399.70	613.22
399.90	716.20
400.09	758.33
400.28	823.87
400.47	753.65
400.67	734.93
400.86	711.52
401.05	763.01
401.24	793.44
401.44	763.01
401.63	917.49
401.82	844.93
402.01	767.70
402.21	767.70
402.40	840.25
402.59	849.61
402.78	877.70
402.97	866.00
403.17	926.85
403.36	837.91
403.55	887.06
403.74	866.00
403.93	844.93
404.13	961.96
404.32	943.24
404.51	851.96
404.70	966.64
404.89	908.13
405.09	943.24
405.28	894.08
405.47	870.68
405.66	983.02
405.85	1029.84
406.05	1043.88
406.24	999.41
406.43	1081.33
406.62	940.90
406.81	1095.37
407.00	1046.22
407.20	931.53
407.39	1041.54
407.58	999.41
407.77	1130.48
407.96	1048.56
408.15	1083.67
408.34	1006.43
408.54	1055.58
408.73	1055.58
408.92	1086.01
409.11	1167.93
409.30	1217.08
409.49	1083.67
409.68	1081.33
409.87	1107.07
410.07	1177.29
410.26	1165.59
410.45	1188.99
410.64	1172.61
410.83	1130.48
411.02	1233.46
411.21	1137.50
411.40	1235.80
411.59	1249.85
411.78	1261.55
411.98	1242.82
412.17	1423.05
412.36	1240.48
412.55	1303.68
412.74	1315.38
412.93	1336.45
413.12	1418.36
413.31	1420.71
413.50	1366.87
413.69	1303.68
413.88	1418.36
414.07	1488.58
414.26	1420.71
414.45	1500.28
414.64	1479.22
414.83	1467.52
415.02	1437.09
415.22	1521.35
415.41	1643.06
415.60	1495.60
415.79	1652.42
415.98	1603.27
416.17	1633.69
416.36	1596.25
416.55	1483.90
416.74	1696.89
416.93	1647.74
417.12	1629.01
417.31	1659.44
417.50	1621.99
417.69	1778.81
417.88	1720.29
418.07	1715.61
418.26	1739.02
418.45	1760.08
418.64	1884.13
418.83	1771.79
419.02	1732.00
419.21	1729.66
419.39	1851.36
419.58	1820.94
419.77	1806.89
419.96	1853.70
420.15	1870.09
420.34	1804.55
420.53	1895.83
420.72	1813.92
420.91	1757.74
421.10	1919.24
421.29	1956.69
421.48	1975.41
421.67	2008.18
421.86	1872.43
422.05	1980.09
422.24	1900.52
422.43	2054.99
422.61	1970.73
422.80	1963.71
422.99	1954.35
423.18	2022.22
423.37	1973.07
423.56	1907.54
423.75	1975.41
423.94	1928.60
424.13	1858.39
424.32	1877.11
424.50	2024.56
424.69	2064.35
424.88	2097.12
425.07	1996.48
425.26	1989.46
425.45	1935.62
425.64	2017.54
425.83	2043.29
426.01	2085.42
426.20	2040.95
426.39	2120.53
426.58	2165.00
426.77	2106.48
426.96	2092.44
427.15	2087.76
427.33	2139.25
427.52	2005.84
427.71	2162.66
427.90	2125.21
428.09	2165.00
428.28	2207.13
428.46	2106.48
428.65	2197.76
428.84	2200.10
429.03	2239.89
429.22	2157.97
429.40	2239.89
429.59	2193.08
429.78	2267.98
429.97	2057.33
430.16	2270.32
430.34	2345.22
430.53	2377.98
430.72	2312.45
430.91	2246.91
431.10	2263.30
431.28	2375.64
431.47	2399.05
431.66	2300.75
431.85	2284.36
432.03	2551.18
432.22	2579.27
432.41	2396.71
432.60	2492.67
432.79	2436.50
432.97	2523.10
433.16	2438.84
433.35	2527.78
433.54	2555.86
433.72	2537.14
433.91	2525.44
434.10	2518.42
434.28	2516.08
434.47	2511.39
434.66	2633.10
434.85	2640.12
435.03	2560.55
435.22	2539.48
435.41	2712.68
435.59	2630.76
435.78	2548.84
435.97	2616.72
436.16	2731.41
436.34	2621.40
436.53	2656.51
436.72	2803.96
436.90	2679.91
437.09	2717.36
437.28	2738.43
437.46	2708.00
437.65	2815.66
437.84	2799.28
438.02	2810.98
438.21	2719.70
438.40	2715.02
438.58	2820.35
438.77	2850.77
438.96	2848.43
439.14	2782.90
439.33	2846.09
439.52	2909.29
439.70	3038.02
439.89	2909.29
440.08	3084.83
440.26	3021.63
440.45	3089.51
440.63	3047.38
440.82	3136.32
441.01	3063.76
441.19	3138.66
441.38	3145.68
441.57	3122.27
441.75	3243.98
441.94	3276.75
442.12	3201.85
442.31	3405.48
442.50	3236.96
442.68	3229.94
442.87	3316.54
443.05	3433.57
443.24	3571.66
443.43	3346.97
443.61	3438.25
443.80	3559.95
443.98	3449.95
444.17	3201.85
444.35	3323.56
444.54	3454.63
444.73	3431.23
444.91	3492.08
445.10	3398.46
445.28	3456.97
445.47	3246.32
445.65	3384.41
445.84	3517.83
446.02	3337.60
446.21	3536.55
446.39	3485.06
446.58	3382.07
446.77	3480.38
446.95	3419.52
447.14	3454.63
447.32	3651.24
447.51	3485.06
447.69	3499.10
447.88	3389.10
448.06	3545.91
448.25	3646.55
448.43	3471.01
448.62	3522.51
448.80	3688.68
448.99	3555.27
449.17	3571.66
449.36	3658.26
449.54	3534.21
449.73	3651.24
449.91	3552.93
450.10	3754.22
450.28	3634.85
450.46	3747.20
450.65	3794.01
450.83	3794.01
451.02	3794.01
451.20	3758.90
451.39	3623.15
451.57	3770.60
451.76	3758.90
451.94	3852.52
452.13	3920.40
452.31	3648.90
452.49	3765.92
452.68	3911.04
452.86	3920.40
453.05	3946.14
453.23	3995.29
453.42	3824.44
453.60	3885.29
453.78	3946.14
453.97	3899.33
454.15	3836.14
454.34	3962.53
454.52	4124.02
454.70	4021.04
454.89	3927.42
455.07	4109.98
455.26	4023.38
455.44	3988.27
455.62	3934.44
455.81	4114.66
455.99	4074.87
456.17	4109.98
456.36	4184.88
456.54	4187.22
456.73	4278.50
456.91	4332.33
457.09	4287.86
457.28	4308.93
457.46	4231.69
457.64	4388.50
457.83	4386.16
458.01	4236.37
458.19	4601.49
458.38	4297.22
458.56	4519.57
458.74	4440.00
458.93	4414.25
459.11	4337.01
459.29	4311.27
459.48	4456.38
459.66	4489.15
459.84	4376.80
460.03	4547.66
460.21	4667.03
460.39	4533.62
460.57	4554.68
460.76	4690.43
460.94	4648.30
461.12	4692.77
461.31	4634.26
461.49	4580.43
461.67	4620.22
461.85	4704.48
462.04	4786.40
462.22	4784.06
462.40	4903.42
462.59	4695.11
462.77	4681.07
462.95	4727.88
463.13	4702.14
463.32	4821.50
463.50	4723.20
463.68	4720.86
463.86	4894.06
464.05	4753.63
464.23	4931.51
464.41	4926.83
464.59	4877.68
464.78	4990.02
464.96	4980.66
465.14	4851.93
465.32	4863.63
465.50	4992.36
465.69	4987.68
465.87	4936.19
466.05	5057.90
466.23	4924.49
466.41	4968.96
466.60	5207.69
466.78	4861.29
466.96	5032.15
467.14	5015.77
467.32	5104.71
467.51	5128.11
467.69	5217.05
467.87	5139.82
468.05	5214.71
468.23	5231.10
468.41	5121.09
468.60	5093.01
468.78	5231.10
468.96	5172.58
469.14	5259.18
469.32	5315.36
469.50	5170.24
469.69	5317.70
469.87	5542.39
470.05	5462.81
470.23	5465.15
470.41	5380.89
470.59	5521.32
470.77	5469.83
470.95	5439.40
471.14	5397.28
471.32	5362.17
471.50	5504.94
471.68	5479.19
471.86	5540.05
472.04	5750.70
472.22	5643.03
472.40	5640.69
472.58	5640.69
472.77	5741.33
472.95	5776.44
473.13	5966.03
473.31	5741.33
473.49	5841.98
473.67	5888.79
473.85	5944.96
474.03	6047.94
474.21	5893.47
474.39	6026.88
474.57	6139.23
474.75	6211.78
474.93	6101.78
475.12	6207.10
475.30	6015.18
475.48	6265.61
475.66	6277.32
475.84	6256.25
476.02	6228.17
476.20	6403.71
476.38	6396.68
476.56	6595.63
476.74	6593.29
476.92	6546.48
477.10	6509.03
477.28	6562.86
477.46	6565.20
477.64	6761.81
477.82	6843.73
478.00	7145.66
478.18	7014.59
478.36	7005.22
478.54	6967.77
478.72	6965.43
478.90	7047.35
479.08	7295.45
479.26	7274.38
479.44	7211.19
479.62	7276.73
479.80	7330.56
479.98	7398.43
480.16	7702.70
480.34	7456.95
480.52	7482.69
480.70	7772.92
480.88	7552.91
481.06	7571.63
481.24	7639.51
481.41	7873.56
481.59	7843.14
481.77	7974.21
481.95	8049.10
482.13	8166.13
482.31	8177.83
482.49	8287.84
482.67	8358.05
482.85	8334.65
483.03	8514.87
483.21	8631.90
483.39	8559.34
483.57	8561.68
483.74	8830.84
483.92	8697.43
484.10	8559.34
484.28	8758.28
484.46	9036.81
484.64	9114.05
484.82	8952.55
485.00	9015.74
485.18	9186.60
485.35	9418.32
485.53	9474.49
485.71	9544.70
485.89	9465.13
486.07	9575.13
486.25	9696.84
486.43	9659.39
486.61	9872.38
486.78	9970.68
486.96	9825.57
487.14	10045.58
487.32	10045.58
487.50	10242.18
487.68	10155.58
487.85	10307.72
488.03	10382.62
488.21	10469.22
488.39	10504.32
488.57	10579.22
488.75	10567.52
488.92	10932.64
489.10	11063.71
489.28	11049.67
489.46	11098.82
489.64	10902.22
489.81	11389.05
489.99	11353.94
490.17	11375.00
490.35	11377.34
490.53	11545.86
490.70	11660.55
490.88	11424.15
491.06	11831.41
491.24	11847.79
491.41	11805.66
491.59	11990.56
491.77	11971.84
491.95	12046.74
492.13	12049.08
492.30	12086.53
492.48	12409.52
492.66	12339.30
492.84	12374.41
493.01	12439.95
493.19	12437.61
493.37	12776.98
493.54	12606.13
493.72	12781.67
493.90	13057.85
494.08	12664.64
494.25	13027.42
494.43	13334.03
494.61	13465.10
494.79	13394.89
494.96	13373.82
495.14	13359.78
495.32	13525.96
495.49	13507.23
495.67	13598.51
495.85	13855.97
496.02	13532.98
496.20	13745.97
496.38	13886.40
496.55	13666.39
496.73	14097.05
496.91	14045.55
497.09	14111.09
497.26	14464.51
497.44	14354.51
497.62	14260.88
497.79	14525.36
497.97	14560.47
498.14	14457.49
498.32	14579.20
498.50	14689.20
498.67	15033.26
498.85	14913.89
499.03	14958.36
499.20	15140.93
499.38	15103.48
499.56	14963.04
499.73	15138.58
499.91	15449.88
500.08	15501.37
500.26	15220.50
500.44	15494.35
500.61	15548.18
500.79	15768.19
500.97	15466.26
501.14	15969.48
501.32	15742.44
501.49	15815.00
501.67	15901.60
501.84	16004.58
502.02	16027.99
502.20	15866.49
502.37	16053.73
502.55	16114.59
502.72	16037.35
502.90	16229.27
503.07	16088.84
503.25	16187.14
503.43	16290.13
503.60	16327.58
503.78	16332.26
503.95	16519.50
504.13	16519.50
504.30	16423.54
504.48	16601.42
504.65	16519.50
504.83	16922.07
505.01	16980.59
505.18	16947.82
505.36	17322.30
505.53	17008.67
505.71	17043.78
505.88	17240.39
506.06	16931.44
506.23	17326.99
506.41	17507.21
506.58	17273.15
506.76	17249.75
506.93	17495.50
507.11	17329.33
507.28	17500.19
507.46	17579.76
507.63	17701.47
507.81	17462.74
507.98	17479.12
508.16	17912.12
508.33	17521.25
508.50	17928.50
508.68	17715.51
508.85	18097.02
509.03	18040.85
509.20	18298.31
509.38	18387.25
509.55	18436.40
509.73	18338.10
509.90	18319.37
510.08	18300.65
510.25	18436.40
510.42	18286.61
510.60	18579.17
510.77	18579.17
510.95	18394.27
511.12	18438.74
511.30	18747.69
511.47	18841.31
511.64	18862.38
511.82	18944.30
511.99	18670.45
512.17	18771.10
512.34	19117.50
512.51	18948.98
512.69	19145.58
512.86	19176.01
513.04	19421.77
513.21	19389.00
513.38	19499.00
513.56	19529.43
513.73	19466.24
513.90	19499.00
514.08	19571.56
514.25	19587.94
514.43	19637.09
514.60	19899.23
514.77	19969.45
514.95	19807.95
515.12	19744.76
515.29	19917.96
515.47	19943.70
515.64	20318.19
515.81	20030.30
515.99	20350.96
516.16	20367.34
516.33	20273.72
516.51	20400.11
516.68	20067.75
516.85	20320.53
517.03	20315.85
517.20	20573.31
517.37	20397.77
517.54	20910.35
517.72	20507.77
517.89	20554.58
518.06	20702.04
518.24	20772.25
518.41	20577.99
518.58	20718.42
518.75	20601.40
518.93	21003.97
519.10	21200.57
519.27	20788.64
519.45	20945.45
519.62	20652.89
519.79	20893.96
519.96	21057.80
520.14	21453.35
520.31	21067.16
520.48	21439.31
520.65	21116.31
520.83	21490.80
521.00	21238.02
521.17	21242.70
521.34	21507.18
521.52	21645.27
521.69	21717.83
521.86	21628.89
522.03	21778.68
522.20	21593.78
522.38	21701.45
522.55	21713.15
522.72	21853.58
522.89	21589.10
523.07	22108.70
523.24	21706.13
523.41	22139.13
523.58	21774.00
523.75	22061.89
523.92	22155.51
524.10	22052.53
524.27	22363.82
524.44	22125.08
524.61	22422.33
524.78	22363.82
524.96	22637.66
525.13	22284.24
525.30	22539.36
525.47	22637.66
525.64	22520.63
525.81	22721.92
525.98	22965.34
526.16	22986.40
526.33	22534.68
526.50	22754.69
526.67	22904.48
526.84	23061.30
527.01	22824.90
527.18	22618.94
527.36	22766.39
527.53	22860.01
527.70	23309.40
527.87	23178.33
528.04	23005.13
528.21	23180.67
528.38	23285.99
528.55	23349.18
528.72	23309.40
528.89	23234.50
529.07	23255.56
529.24	23637.07
529.41	23405.36
529.58	23180.67
529.75	23726.01
529.92	23590.26
530.09	23309.40
530.26	23646.43
530.43	23646.43
530.60	23311.74
530.77	23555.15
530.94	23658.14
531.11	23522.38
531.28	23718.99
531.46	23714.31
531.63	23964.75
531.80	23999.85
531.97	24147.31
532.14	24051.34
532.31	24156.67
532.48	24233.91
532.65	24187.10
532.82	23775.16
532.99	24414.13
533.16	24004.53
533.33	24191.78
533.50	24524.13
533.67	24355.61
533.84	24067.73
534.01	24318.17
534.18	24156.67
534.35	24453.92
534.52	24182.42
534.69	24755.85
534.86	24797.98
535.03	24451.58
535.20	24718.40
535.37	24940.75
535.54	24959.47
535.71	24587.33
535.88	24685.63
536.05	24769.89
536.22	25116.29
536.38	24924.36
536.55	25170.12
536.72	24910.32
536.89	24931.39
537.06	25135.01
537.23	24830.74
537.40	25139.69
537.57	25116.29
537.74	25427.58
537.91	25427.58
538.08	25064.80
538.25	24875.21
538.42	25167.78
538.59	25113.95
538.75	25156.08
538.92	25287.15
539.09	25263.74
539.26	25284.81
539.43	25359.70
539.60	25441.62
539.77	25198.21
539.94	25312.89
540.11	25731.85
540.28	25654.61
540.44	25607.80
540.61	25607.80
540.78	25247.36
540.95	25678.02
541.12	25914.41
541.29	25902.71
541.46	25755.26
541.62	25516.52
541.79	25907.39
541.96	25551.63
542.13	25617.16
542.30	25640.57
542.47	26150.81
542.63	25989.31
542.80	26178.89
542.97	26787.43
543.14	26015.05
543.31	26419.97
543.48	25996.33
543.64	26637.64
543.81	26284.22
543.98	26700.83
544.15	26396.56
544.32	26359.11
544.48	26637.64
544.65	26384.86
544.82	26607.21
544.99	26450.39
545.16	26185.91
545.32	26480.82
545.49	26871.69
545.66	27047.23
545.83	26820.20
546.00	27344.48
546.16	26548.70
546.33	26513.59
546.50	26487.84
546.67	26911.48
546.83	26279.54
547.00	27035.53
547.17	26852.97
547.34	26848.29
547.50	26955.95
547.67	27082.34
547.84	26604.87
548.00	26988.72
548.17	27033.19
548.34	27065.96
548.51	27388.95
548.67	27510.66
548.84	27262.56
549.01	26918.50
549.18	27051.91
549.34	27421.72
549.51	27030.85
549.68	26841.26
549.84	27264.90
550.01	27204.05
550.18	26995.74
550.34	27730.67
550.51	27388.95
550.68	27777.48
550.84	27241.50
551.01	27599.60
551.18	27548.11
551.34	26941.91
551.51	27400.65
551.68	27683.86
551.84	27534.06
552.01	27590.24
552.18	27768.12
552.34	27700.24
552.51	27578.53
552.68	27941.32
552.84	27587.89
553.01	27770.46
553.18	27484.91
553.34	28175.37
553.51	27789.18
553.67	27861.74
553.84	28144.94
554.01	28058.34
554.17	28077.07
554.34	28063.02
554.51	27988.13
554.67	27749.39
554.84	27941.32
555.00	28100.47
555.17	28503.04
555.33	28091.11
555.50	28219.84
555.67	27873.44
555.83	28161.33
556.00	28011.53
556.16	28615.39
556.33	28065.36
556.50	28418.78
556.66	28451.55
556.83	28039.62
556.99	28388.36
557.16	28556.88
557.32	28758.16
557.49	28493.68
557.65	28346.23
557.82	28428.15
557.98	28231.54
558.15	28254.95
558.32	28519.43
558.48	28465.60
558.65	28774.55
558.81	28383.68
558.98	28629.43
559.14	28390.70
559.31	28077.07
559.47	28411.76
559.64	28240.90
559.80	28545.17
559.97	28739.44
560.13	28676.24
560.30	28849.44
560.46	28863.49
560.63	28837.74
560.79	28987.53
560.96	29127.97
561.12	28418.78
561.29	28383.68
561.45	28692.63
561.61	28645.82
561.78	28739.44
561.94	28594.32
562.11	28893.91
562.27	28907.96
562.44	28886.89
562.60	29057.75
562.77	28669.22
562.93	28718.37
563.10	29010.94
563.26	28973.49
563.42	29359.68
563.59	28929.02
563.75	28730.08
563.92	29022.64
564.08	28687.95
564.24	28802.63
564.41	28875.19
564.57	28760.50
564.74	29184.14
564.90	29605.44
565.07	29186.48
565.23	29132.65
565.39	29240.31
565.56	29411.17
565.72	29268.40
565.88	28966.47
566.05	28959.45
566.21	28687.95
566.38	29336.27
566.54	29450.96
566.70	29223.93
566.87	29223.93
567.03	29319.89
567.19	29642.88
567.36	29184.14
567.52	29247.33
567.68	29420.53
567.85	29277.76
568.01	29575.01
568.17	29048.39
568.34	29467.34
568.50	29137.33
568.66	29558.63
568.83	29401.81
568.99	29401.81
569.15	29481.39
569.32	29081.16
569.48	28807.31
569.64	29319.89
569.81	29324.57
569.97	28975.83
570.13	29757.57
570.30	29603.10
570.46	29322.23
570.62	29266.06
570.78	29130.31
570.95	29198.18
571.11	29376.06
571.27	29081.16
571.43	29221.59
571.60	29539.90
571.76	29556.28
571.92	29511.81
572.09	29504.79
572.25	29509.47
572.41	29502.45
572.57	29603.10
572.74	30125.04
572.90	29294.14
573.06	29287.12
573.22	29060.09
573.38	29472.03
573.55	29591.39
573.71	29846.51
573.87	29694.38
574.03	29546.92
574.20	29586.71
574.36	29600.76
574.52	29553.94
574.68	29287.12
574.84	29715.44
575.01	29680.33
575.17	29563.31
575.33	29408.83
575.49	29795.02
575.65	29495.43
575.82	29546.92
575.98	29610.12
576.14	29837.15
576.30	29984.60
576.46	29741.19
576.62	29820.77
576.79	29504.79
576.95	29144.35
577.11	29631.18
577.27	29275.42
577.43	29937.79
577.59	29759.91
577.75	29507.13
577.92	29504.79
578.08	29443.94
578.24	29467.34
578.40	29670.97
578.56	29750.55
578.72	29633.52
578.88	29893.32
579.04	30096.95
579.21	29598.41
579.37	29755.23
579.53	29961.20
579.69	29762.25
579.85	29656.93
580.01	29406.49
580.17	29795.02
580.33	29816.08
580.49	29266.06
580.65	30115.67
580.82	29642.88
580.98	30024.39
581.14	29898.00
581.30	29858.21
581.46	29535.22
581.62	29809.06
581.78	29448.62
581.94	29659.27
582.10	29701.40
582.26	29549.26
582.42	29834.81
582.58	29713.10
582.74	29734.17
582.90	29951.84
583.06	29890.98
583.22	30188.23
583.38	29905.02
583.54	29731.83
583.70	29392.45
583.86	29708.42
584.02	29720.12
584.18	29986.94
584.34	30403.56
584.50	30068.86
584.66	30235.04
584.82	29802.04
584.98	30045.46
585.14	29696.72
585.30	29605.44
585.46	29670.97
585.62	29521.18
585.78	29446.28
585.94	29546.92
586.10	29788.00
586.26	30022.05
586.42	30197.59
586.58	30202.27
586.74	29479.05
586.90	29893.32
587.06	29860.55
587.22	29848.85
587.38	29378.40
587.54	29780.98
587.70	30174.19
587.86	29853.53
588.02	30209.29
588.18	29759.91
588.34	30066.52
588.49	30148.44
588.65	29905.02
588.81	30073.54
588.97	30333.34
589.13	30129.72
589.29	30043.12
589.45	30099.29
589.61	30192.91
589.77	29895.66
589.93	30167.16
590.08	30462.07
590.24	30345.05
590.40	30450.37
590.56	30150.78
590.72	29844.17
590.88	30031.41
591.04	30321.64
591.20	30192.91
591.35	30209.29
591.51	30459.73
591.67	30553.35
591.83	30445.69
591.99	30146.10
592.15	30494.84
592.31	30066.52
592.46	30206.95
592.62	29921.41
592.78	29879.28
592.94	30305.26
593.10	29984.60
593.26	30443.35
593.41	30312.28
593.57	30139.08
593.73	30548.67
593.89	30253.76
594.05	30511.22
594.20	29956.52
594.36	30382.49
594.52	30176.53
594.68	30015.03
594.84	30066.52
594.99	30401.22
595.15	30433.99
595.31	30438.67
595.47	30314.62
595.62	30312.28
595.78	30515.90
595.94	30426.96
596.10	30511.22
596.25	30359.09
596.41	30235.04
596.57	29851.19
596.73	30258.45
596.88	30171.85
597.04	30637.61
597.20	30969.97
597.36	30785.07
597.51	30469.09
597.67	30057.16
597.83	29867.58
597.99	30590.80
598.14	30099.29
598.30	30202.27
598.46	30506.54
598.61	30225.68
598.77	30246.74
598.93	30405.90
599.09	30448.03
599.24	30815.49
599.40	30492.50
599.56	30389.52
599.71	30361.43
599.87	30639.95
600.03	30602.50
600.18	30211.64
600.34	30731.23
600.50	30183.55
600.65	30258.45
600.81	30756.98
600.97	30630.59
601.12	30518.25
601.28	30672.72
601.44	30366.11
601.59	30183.55
601.75	30342.70
601.91	30607.19
602.06	30560.37
602.22	30106.31
602.37	30204.61
602.53	30373.13
602.69	30850.60
602.84	30279.51
603.00	30370.79
603.16	30768.68
603.31	30237.38
603.47	30377.81
603.62	30415.26
603.78	30092.27
603.94	30132.06
604.09	30087.59
604.25	30239.72
604.40	30419.94
604.56	30555.69
604.71	30670.38
604.87	30389.52
605.03	30806.13
605.18	30387.18
605.34	30558.03
605.49	30445.69
605.65	30424.62
605.80	30068.86
605.96	30326.32
606.12	30150.78
606.27	30476.12
606.43	30246.74
606.58	30707.83
606.74	30597.82
606.89	30118.01
607.05	30171.85
607.20	30581.44
607.36	30382.49
607.51	30419.94
607.67	30326.32
607.82	30073.54
607.98	30190.57
608.13	30448.03
608.29	30244.40
608.44	30160.14
608.60	30433.99
608.75	30614.21
608.91	30347.39
609.06	30548.67
609.22	30429.30
609.37	30136.74
609.53	30106.31
609.68	30160.14
609.84	29792.68
609.99	30368.45
610.15	30270.15
610.30	30031.41
610.46	29993.97
610.61	30132.06
610.76	30368.45
610.92	30412.92
611.07	30202.27
611.23	30113.33
611.38	29876.94
611.54	29881.62
611.69	29916.73
611.84	29921.41
612.00	29797.36
612.15	29748.21
612.31	30118.01
612.46	29706.08
612.62	30228.02
612.77	29799.70
612.92	30307.60
613.08	30146.10
613.23	30099.29
613.39	29853.53
613.54	29778.64
613.69	29844.17
613.85	29233.29
614.00	29841.83
614.15	30120.35
614.31	29577.35
614.46	29780.98
614.62	29965.88
614.77	29834.81
614.92	30022.05
615.08	29876.94
615.23	29542.24
615.38	29743.53
615.54	29633.52
615.69	29443.94
615.84	29682.67
616.00	29582.03
616.15	29858.21
616.30	29764.59
616.46	29867.58
616.61	29523.52
616.76	29785.66
616.92	29556.28
617.07	29516.50
617.22	29841.83
617.37	29160.73
617.53	29422.87
617.68	29710.76
617.83	29635.86
617.99	29556.28
618.14	29277.76
618.29	29252.02
618.45	29790.34
618.60	29474.37
618.75	29614.80
618.90	29359.68
619.06	29476.71
619.21	29373.72
619.36	29682.67
619.51	29261.38
619.67	28753.48
619.82	28760.50
619.97	29170.10
620.12	29146.69
620.28	29153.71
620.43	29237.97
620.58	29209.89
620.73	29362.02
620.89	29586.71
621.04	29645.23
621.19	29226.27
621.34	29142.01
621.49	29074.13
621.65	28959.45
621.80	29312.87
621.95	29008.60
622.10	29041.37
622.25	29081.16
622.41	29111.58
622.56	29256.70
622.71	29106.90
622.86	29362.02
623.01	29034.35
623.16	29118.60
623.32	28950.09
623.47	28720.71
623.62	28718.37
623.77	28849.44
623.92	28950.09
624.07	28531.13
624.23	28603.69
624.38	29172.44
624.53	28582.62
624.68	28795.61
624.83	28952.43
624.98	29062.43
625.13	28730.08
625.29	28872.85
625.44	28926.68
625.59	28350.91
625.74	28465.60
625.89	28418.78
626.04	28713.69
626.19	28968.81
626.34	28545.17
626.49	28573.26
626.65	28498.36
626.80	28418.78
626.95	28514.75
627.10	28837.74
627.25	28561.56
627.40	28226.86
627.55	28336.87
627.70	28533.47
627.85	28070.04
628.00	28149.62
628.15	28491.34
628.30	27960.04
628.45	28147.28
628.60	28339.21
628.76	28325.16
628.91	28290.06
629.06	28240.90
629.21	28086.43
629.36	28547.51
629.51	28500.70
629.66	28582.62
629.81	27981.10
629.96	28208.14
630.11	28025.57
630.26	27695.56
630.41	27967.06
630.56	28215.16
630.71	28215.16
630.86	28313.46
631.01	28046.64
631.16	28093.45
631.31	28067.70
631.46	28016.21
631.61	27899.19
631.76	28095.79
631.91	27707.26
632.06	27770.46
632.21	27693.22
632.36	27674.49
632.51	27875.78
632.66	27718.96
632.81	27707.26
632.96	28105.15
633.10	27906.21
633.25	27740.03
633.40	27924.93
633.55	27564.49
633.70	27473.21
633.85	27377.25
634.00	27138.51
634.15	27828.97
634.30	27534.06
634.45	27604.28
634.60	27473.21
634.75	27702.58
634.90	27613.64
635.05	27681.52
635.19	27557.47
635.34	27765.78
635.49	27615.98
635.64	27552.79
635.79	27482.57
635.94	27276.60
636.09	27424.06
636.24	27482.57
636.39	27091.70
636.53	27978.76
636.68	27215.75
636.83	27330.44
636.98	27475.55
637.13	27498.95
637.28	27515.34
637.43	27400.65
637.57	27608.96
637.72	27260.22
637.87	27337.46
638.02	27187.66
638.17	27302.35
638.32	27278.94
638.46	27101.06
638.61	26934.88
638.76	26930.20
638.91	27063.61
639.06	26780.41
639.20	27646.41
639.35	26960.63
639.50	27145.53
639.65	27065.96
639.80	27255.54
639.94	27271.92
640.09	27087.02
640.24	27435.76
640.39	27098.72
640.54	26639.98
640.68	26827.22
640.83	26675.09
640.98	26522.95
641.13	27096.38
641.27	27178.30
641.42	26918.50
641.57	26859.99
641.72	26735.94
641.86	26595.51
642.01	26527.63
642.16	26902.12
642.31	26544.02
642.45	26391.88
642.60	26293.58
642.75	26565.08
642.90	26340.39
643.04	26635.30
643.19	26689.13
643.34	26642.32
643.48	26712.53
643.63	26693.81
643.78	26897.44
643.93	26455.08
644.07	26757.00
644.22	26920.84
644.37	26553.38
644.51	26845.94
644.66	26249.11
644.81	26434.01
644.95	26223.36
645.10	26309.96
645.25	26403.58
645.39	26689.13
645.54	26345.07
645.69	26235.06
645.83	26169.53
645.98	26705.51
646.13	26436.35
646.27	26724.24
646.42	26553.38
646.57	26415.29
646.71	26377.84
646.86	26153.15
647.00	26204.64
647.15	26256.13
647.30	26188.25
647.44	26181.23
647.59	25776.32
647.74	26359.11
647.88	25879.30
648.03	25851.22
648.17	26349.75
648.32	26359.11
648.47	26050.16
648.61	26429.33
648.76	26354.43
648.90	26010.37
649.05	26480.82
649.20	26375.50
649.34	26300.60
649.49	25839.51
649.63	25825.47
649.78	25731.85
649.92	25678.02
650.07	25921.43
650.21	25743.55
650.36	25872.28
650.51	25408.86
650.65	25809.09
650.80	26029.10
650.94	25811.43
651.09	25825.47
651.23	25841.85
651.38	25762.28
651.52	25523.54
651.67	25357.36
651.81	25778.66
651.96	25823.13
652.10	25399.49
652.25	25944.84
652.39	25673.34
652.54	25572.69
652.68	25914.41
652.83	25907.39
652.97	25919.09
653.12	25678.02
653.26	25268.42
653.41	25675.68
653.55	25266.08
653.70	25523.54
653.84	25263.74
653.99	25490.77
654.13	25289.49
654.27	25483.75
654.42	25493.12
654.56	25509.50
654.71	25570.35
654.85	25614.82
655.00	25544.61
655.14	25476.73
655.29	25259.06
655.43	25546.95
655.57	25109.27
655.72	25207.57
655.86	25179.48
656.01	25275.45
656.15	25333.96
656.30	24868.19
656.44	25336.30
656.58	25219.27
656.73	25013.31
656.87	25291.83
657.01	24828.40
657.16	25439.28
657.30	25242.68
657.45	25362.04
657.59	24996.92
657.73	25338.64
657.88	25025.01
658.02	24971.18
658.16	24725.42
658.31	25113.95
658.45	24856.49
658.60	24531.15
658.74	25025.01
658.88	24809.68
659.03	24765.21
659.17	24657.54
659.31	24812.02
659.46	24730.10
659.60	24872.87
659.74	24896.28
659.89	24662.22
660.03	24528.81
660.17	24334.55
660.32	24638.82
660.46	24594.35
660.60	24116.88
660.74	24320.51
660.89	24306.46
661.03	24266.67
661.17	24091.13
661.32	24451.58
661.46	24467.96
661.60	24528.81
661.74	24194.12
661.89	24479.66
662.03	24353.27
662.17	23931.98
662.31	23978.79
662.46	24320.51
662.60	24133.26
662.74	24140.29
662.88	24074.75
663.03	23674.52
663.17	23784.52
663.31	23676.86
663.45	23693.24
663.60	23733.03
663.74	23997.51
663.88	23934.32
664.02	23978.79
664.17	23749.42
664.31	24149.65
664.45	23536.43
664.59	23503.66
664.73	23758.78
664.88	23367.91
665.02	23211.09
665.16	23138.54
665.30	23274.29
665.44	23323.44
665.59	23002.78
665.73	23431.10
665.87	23262.58
666.01	23194.71
666.15	23461.53
666.29	23393.65
666.44	23136.20
666.58	23192.37
666.72	23264.92
666.86	22946.61
667.00	23257.90
667.14	23082.36
667.28	23056.62
667.43	23220.45
667.57	22995.76
667.71	23049.60
667.85	23030.87
667.99	22644.68
668.13	22855.33
668.27	22930.23
668.41	23126.83
668.56	22848.31
668.70	22782.77
668.84	23161.94
668.98	22494.89
669.12	22967.68
669.26	22457.44
669.40	22417.65
669.54	22487.87
669.68	22548.72
669.82	22621.28
669.96	22258.49
670.10	22237.43
670.25	22188.28
670.39	22366.16
670.53	21944.86
670.67	22064.23
670.81	22122.74
670.95	22305.31
671.09	22160.19
671.23	21947.20
671.37	22225.73
671.51	22312.33
671.65	22260.84
671.79	21750.60
671.93	21891.03
672.07	21879.33
672.21	21802.09
672.35	21582.08
672.49	21635.91
672.63	21762.30
672.77	21598.46
672.91	21413.56
673.05	21153.76
673.19	21603.14
673.33	21476.76
673.47	21516.54
673.61	21193.55
673.75	21186.53
673.89	21312.92
674.03	21238.02
674.17	21394.84
674.31	21018.01
674.45	21418.24
674.59	21027.37
674.73	20910.35
674.87	21034.39
675.01	20812.04
675.15	21018.01
675.29	20786.30
675.43	20849.49
675.56	21008.65
675.70	20673.95
675.84	20814.38
675.98	20168.40
676.12	20833.11
676.26	20552.24
676.40	20552.24
676.54	21050.78
676.68	20294.79
676.82	20278.40
676.96	20027.96
677.10	20056.05
677.23	20063.07
677.37	20435.22
677.51	19901.58
677.65	20215.21
677.79	19943.70
677.93	19763.48
678.07	19932.00
678.21	19517.73
678.34	19878.17
678.48	19522.41
678.62	19609.01
678.76	19545.81
678.90	19309.42
679.04	19637.09
679.18	19274.31
679.31	19248.57
679.45	18953.66
679.59	19161.97
679.73	19082.39
679.87	19168.99
680.00	19131.54
680.14	18986.43
680.28	18986.43
680.42	18810.89
680.56	18806.20
680.70	18665.77
680.83	18853.02
680.97	18705.56
681.11	18871.74
681.25	18368.52
681.39	18410.65
681.52	18375.55
681.66	18597.90
681.80	18611.94
681.94	18427.04
682.07	18506.62
682.21	18075.96
682.35	18045.53
682.49	17886.37
682.62	17722.54
682.76	18054.89
682.90	18087.66
683.04	18104.04
683.17	17872.33
683.31	17792.75
683.45	17851.27
683.59	17565.72
683.72	18026.81
683.86	17748.28
684.00	17561.04
684.13	17624.23
684.27	17317.62
684.41	17472.10
684.55	17266.13
684.68	17158.47
684.82	16889.31
684.96	17142.08
685.09	17231.02
685.23	16812.07
685.37	17214.64
685.50	17273.15
685.64	17074.21
685.78	17205.28
685.91	17146.76
686.05	16952.50
686.19	16826.11
686.32	16903.35
686.46	16655.25
686.60	16341.62
686.73	16404.81
686.87	16264.38
687.01	16400.13
687.14	16627.17
687.28	16119.27
687.42	16292.47
687.55	16053.73
687.69	16212.89
687.82	15932.03
687.96	16046.71
688.10	16088.84
688.23	15833.72
688.37	15845.43
688.50	15831.38
688.64	15782.23
688.78	15873.51
688.91	15992.88
689.05	15538.82
689.18	15616.05
689.32	15377.32
689.46	15325.83
689.59	15349.23
689.73	15264.97
689.86	15257.95
690.00	15218.16
690.13	15190.08
690.27	15112.84
690.41	15110.50
690.54	14937.30
690.68	15108.16
690.81	15066.03
690.95	15201.78
691.08	15110.50
691.22	14939.64
691.35	14918.57
691.49	14551.11
691.62	14869.42
691.76	14511.32
691.89	14511.32
692.03	14396.64
692.16	14160.24
692.30	14265.57
692.43	14443.45
692.57	14288.97
692.70	14267.91
692.84	14111.09
692.97	14185.99
693.11	14068.96
693.24	14012.79
693.38	13982.36
693.51	14022.15
693.65	13818.52
693.78	13731.92
693.92	13661.71
694.05	13750.65
694.19	13621.92
694.32	13425.31
694.45	13682.77
694.59	13621.92
694.72	13327.01
694.86	13228.71
694.99	13224.03
695.13	13291.90
695.26	13067.21
695.39	13104.66
695.53	12910.40
695.66	13137.43
695.80	13081.25
695.93	13123.38
696.07	13132.75
696.20	12943.16
696.33	12954.87
696.47	12814.43
696.60	12624.85
696.73	12919.76
696.87	12449.31
697.00	12814.43
697.14	12301.86
697.27	12290.15
697.40	12381.43
697.54	12238.66
697.67	12231.64
697.80	12081.85
697.94	12042.06
698.07	11831.41
698.21	12191.85
698.34	11882.90
698.47	12327.60
698.61	11992.90
698.74	11941.41
698.87	12072.48
699.01	11740.13
699.14	11569.27
699.27	11648.85
699.40	11634.80
699.54	11569.27
699.67	11655.87
699.80	11819.71
699.94	11405.43
700.07	11477.99
700.20	11192.44
700.34	11112.86
700.47	11185.42
700.60	11290.74
700.73	11339.90
700.87	11164.36
701.00	11052.01
701.13	11054.35
701.26	11283.72
701.40	11283.72
701.53	11082.44
701.66	10986.47
701.79	10902.22
701.93	10731.36
702.06	10757.10
702.19	10707.95
702.32	10511.35
702.46	10410.70
702.59	10391.98
702.72	10532.41
702.85	10476.24
702.99	10501.98
703.12	10279.63
703.25	10303.04
703.38	10237.50
703.51	10097.07
703.65	10195.37
703.78	10256.23
703.91	10157.92
704.04	10141.54
704.17	10232.82
704.31	9956.64
704.44	9886.42
704.57	9942.60
704.70	9682.80
704.83	9511.94
704.96	9795.14
705.10	9771.74
705.23	9413.63
>>>>>End Processed Spectral Data<<<<<
