SpectraSuite Data File
++++++++++++++++++++++++++++++++++++
Date: Fri Oct 18 13:57:53 GMT-05:00 2013
User: bianchi
Dark Spectrum Present: No
Reference Spectrum Present: No
Number of Sampled Component Spectra: 1
Spectrometers: USB2+H05261
Integration Time (usec): 50000 (USB2+H05261)
Spectra Averaged: 1 (USB2+H05261)
Boxcar Smoothing: 0 (USB2+H05261)
Correct for Electrical Dark: No (USB2+H05261)
Strobe/Lamp Enabled: No (USB2+H05261)
Correct for Detector Non-linearity: No (USB2+H05261)
Correct for Stray Light: No (USB2+H05261)
Number of Pixels in Processed Spectrum: 2048
>>>>>Begin Processed Spectral Data<<<<<
365.73	0.00
365.92	0.00
366.12	0.00
366.32	0.00
366.52	0.00
366.72	0.00
366.91	0.00
367.11	0.00
367.31	0.00
367.51	0.00
367.70	0.00
367.90	0.00
368.10	0.00
368.30	0.00
368.49	0.00
368.69	0.00
368.89	0.00
369.09	0.00
369.28	0.00
369.48	0.00
369.68	0.00
369.87	0.00
370.07	0.00
370.27	0.00
370.47	0.00
370.66	7.02
370.86	227.03
371.06	126.39
371.25	163.84
371.45	128.73
371.65	142.77
371.84	93.62
372.04	131.07
372.24	224.69
372.44	198.95
372.63	128.73
372.83	215.33
373.03	205.97
373.22	212.99
373.42	227.03
373.62	234.05
373.81	273.84
374.01	290.23
374.21	252.78
374.40	245.76
374.60	208.31
374.79	187.24
374.99	306.61
375.19	255.12
375.38	327.68
375.58	217.67
375.78	297.25
375.97	189.58
376.17	229.37
376.37	149.79
376.56	273.84
376.76	203.63
376.95	184.90
377.15	322.99
377.35	395.55
377.54	259.80
377.74	313.63
377.93	262.14
378.13	257.46
378.33	325.33
378.52	280.86
378.72	276.18
378.91	273.84
379.11	301.93
379.31	294.91
379.50	241.08
379.70	344.06
379.89	313.63
380.09	243.42
380.28	245.76
380.48	322.99
380.68	297.25
380.87	365.12
381.07	290.23
381.26	301.93
381.46	369.80
381.65	322.99
381.85	325.33
382.04	341.72
382.24	409.59
382.43	339.38
382.63	374.49
382.83	348.74
383.02	337.04
383.22	409.59
383.41	383.85
383.61	301.93
383.80	449.38
384.00	320.65
384.19	390.87
384.39	348.74
384.58	339.38
384.78	341.72
384.97	411.93
385.17	360.44
385.36	362.78
385.56	447.04
385.75	327.68
385.95	353.42
386.14	351.08
386.34	428.32
386.53	393.21
386.72	414.27
386.92	430.66
387.11	435.34
387.31	428.32
387.50	475.13
387.70	411.93
387.89	507.90
388.09	348.74
388.28	411.93
388.48	430.66
388.67	491.51
388.86	496.19
389.06	580.45
389.25	444.70
389.45	489.17
389.64	430.66
389.84	470.45
390.03	430.66
390.22	496.19
390.42	442.36
390.61	517.26
390.81	505.56
391.00	435.34
391.19	479.81
391.39	543.00
391.58	472.79
391.78	543.00
391.97	561.73
392.16	528.96
392.36	594.50
392.55	484.49
392.75	601.52
392.94	554.71
393.13	472.79
393.33	559.39
393.52	526.62
393.71	603.86
393.91	601.52
394.10	571.09
394.29	592.16
394.49	622.58
394.68	631.94
394.88	603.86
395.07	622.58
395.26	622.58
395.46	631.94
395.65	664.71
395.84	669.39
396.04	648.33
396.23	688.12
396.42	695.14
396.62	678.76
396.81	739.61
397.00	676.41
397.19	662.37
397.39	660.03
397.58	744.29
397.77	676.41
397.97	622.58
398.16	664.71
398.35	777.06
398.55	681.10
398.74	692.80
398.93	699.82
399.12	697.48
399.32	704.50
399.51	709.18
399.70	734.93
399.90	723.23
400.09	744.29
400.28	854.30
400.47	819.19
400.67	772.38
400.86	713.86
401.05	786.42
401.24	805.14
401.44	856.64
401.63	866.00
401.82	873.02
402.01	821.53
402.21	744.29
402.40	800.46
402.59	821.53
402.78	798.12
402.97	826.21
403.17	861.32
403.36	851.96
403.55	809.83
403.74	887.06
403.93	828.55
404.13	903.45
404.32	933.87
404.51	877.70
404.70	1032.18
404.89	828.55
405.09	943.24
405.28	1029.84
405.47	926.85
405.66	976.00
405.85	987.71
406.05	994.73
406.24	1055.58
406.43	990.05
406.62	1043.88
406.81	1067.28
407.00	938.55
407.20	1088.35
407.39	945.58
407.58	1081.33
407.77	1095.37
407.96	1102.39
408.15	1071.97
408.34	1008.77
408.54	1029.84
408.73	990.05
408.92	1043.88
409.11	1188.99
409.30	1132.82
409.49	1160.91
409.68	1184.31
409.87	1121.12
410.07	1203.04
410.26	1121.12
410.45	1228.78
410.64	1156.22
410.83	1233.46
411.02	1203.04
411.21	1217.08
411.40	1280.27
411.59	1245.16
411.78	1266.23
411.98	1345.81
412.17	1306.02
412.36	1366.87
412.55	1301.34
412.74	1362.19
412.93	1434.75
413.12	1334.11
413.31	1310.70
413.50	1348.15
413.69	1329.42
413.88	1502.62
414.07	1430.07
414.26	1519.01
414.45	1495.60
414.64	1474.54
414.83	1483.90
415.02	1537.73
415.22	1572.84
415.41	1570.50
415.60	1549.43
415.79	1533.05
415.98	1589.22
416.17	1589.22
416.36	1551.78
416.55	1603.27
416.74	1666.46
416.93	1647.74
417.12	1664.12
417.31	1795.19
417.50	1673.48
417.69	1799.87
417.88	1689.87
418.07	1785.83
418.26	1816.26
418.45	1816.26
418.64	1809.23
418.83	1872.43
419.02	1790.51
419.21	1884.13
419.39	1858.39
419.58	1640.72
419.77	1788.17
419.96	1846.68
420.15	1944.99
420.34	1865.41
420.53	1977.75
420.72	1874.77
420.91	1902.86
421.10	1874.77
421.29	1879.45
421.48	1846.68
421.67	1952.01
421.86	1884.13
422.05	1968.39
422.24	1914.56
422.43	2017.54
422.61	1996.48
422.80	2076.06
422.99	2040.95
423.18	1966.05
423.37	2069.03
423.56	1923.92
423.75	2012.86
423.94	2001.16
424.13	1722.63
424.32	1853.70
424.50	2104.14
424.69	2090.10
424.88	2076.06
425.07	2062.01
425.26	2019.88
425.45	2047.97
425.64	2029.24
425.83	2139.25
426.01	2113.50
426.20	2071.37
426.39	2036.27
426.58	2047.97
426.77	2129.89
426.96	2165.00
427.15	2176.70
427.33	2066.69
427.52	2204.78
427.71	2282.02
427.90	2193.08
428.09	2172.02
428.28	2209.47
428.46	2282.02
428.65	2188.40
428.84	2286.70
429.03	2244.57
429.22	2225.85
429.40	2183.72
429.59	2296.07
429.78	2195.42
429.97	2169.68
430.16	2174.36
430.34	2242.23
430.53	2342.88
430.72	2359.26
430.91	2284.36
431.10	2272.66
431.28	2394.37
431.47	2434.16
431.66	2509.05
431.85	2377.98
432.03	2349.90
432.22	2471.61
432.41	2410.75
432.60	2518.42
432.79	2408.41
432.97	2586.29
433.16	2558.21
433.35	2438.84
433.54	2565.23
433.72	2480.97
433.91	2539.48
434.10	2607.36
434.28	2541.82
434.47	2551.18
434.66	2581.61
434.85	2593.31
435.03	2605.02
435.22	2612.04
435.41	2682.25
435.59	2583.95
435.78	2640.12
435.97	2623.74
436.16	2565.23
436.34	2635.44
436.53	2651.83
436.72	2731.41
436.90	2745.45
437.09	2834.39
437.28	2724.38
437.46	2794.60
437.65	2691.62
437.84	2771.19
438.02	2829.71
438.21	2829.71
438.40	2806.30
438.58	2878.86
438.77	2935.03
438.96	2820.35
439.14	2981.84
439.33	2895.24
439.52	3002.91
439.70	2986.52
439.89	3012.27
440.08	3129.30
440.26	3169.09
440.45	3080.14
440.63	3040.36
440.82	3075.46
441.01	3131.64
441.19	3311.86
441.38	3236.96
441.57	3211.22
441.75	3232.28
441.94	3300.16
442.12	3262.71
442.31	3405.48
442.50	3377.39
442.68	3293.13
442.87	3332.92
443.05	3332.92
443.24	3330.58
443.43	3435.91
443.61	3480.38
443.80	3531.87
443.98	3459.31
444.17	3307.18
444.35	3581.02
444.54	3487.40
444.73	3447.61
444.91	3414.84
445.10	3513.14
445.28	3449.95
445.47	3459.31
445.65	3377.39
445.84	3508.46
446.02	3501.44
446.21	3522.51
446.39	3454.63
446.58	3473.36
446.77	3480.38
446.95	3499.10
447.14	3506.12
447.32	3482.72
447.51	3471.01
447.69	3489.74
447.88	3571.66
448.06	3499.10
448.25	3466.33
448.43	3578.68
448.62	3510.80
448.80	3447.61
448.99	3506.12
449.17	3728.47
449.36	3625.49
449.54	3794.01
449.73	3695.71
449.91	3702.73
450.10	3782.31
450.28	3775.28
450.46	3662.94
450.65	3749.54
450.83	3899.33
451.02	3782.31
451.20	3859.54
451.39	3955.51
451.57	3899.33
451.76	3836.14
451.94	3908.69
452.13	3957.85
452.31	3988.27
452.49	3840.82
452.68	4021.04
452.86	3978.91
453.05	4004.66
453.23	3976.57
453.42	3819.75
453.60	3861.88
453.78	3997.64
453.97	3899.33
454.15	4044.45
454.34	3964.87
454.52	4133.39
454.70	4140.41
454.89	4007.00
455.07	3950.82
455.26	4091.26
455.44	4184.88
455.62	4100.62
455.81	4187.22
455.99	4109.98
456.17	3983.59
456.36	4264.46
456.54	4304.25
456.73	4145.09
456.91	4351.06
457.09	4294.88
457.28	4362.76
457.46	4311.27
457.64	4337.01
457.83	4468.08
458.01	4126.36
458.19	4376.80
458.38	4234.03
458.56	4542.98
458.74	4383.82
458.93	4575.75
459.11	4465.74
459.29	4388.50
459.48	4561.70
459.66	4545.32
459.84	4528.94
460.03	4674.05
460.21	4758.31
460.39	4461.06
460.57	4531.28
460.76	4688.09
460.94	4706.82
461.12	4718.52
461.31	4596.81
461.49	4493.83
461.67	4526.60
461.85	4748.95
462.04	4624.90
462.22	5015.77
462.40	4809.80
462.59	4917.47
462.77	4664.69
462.95	4791.08
463.13	4795.76
463.32	4884.70
463.50	4971.30
463.68	4786.40
463.86	4959.60
464.05	4898.74
464.23	4877.68
464.41	4828.53
464.59	4873.00
464.78	4826.18
464.96	5097.69
465.14	4863.63
465.32	4990.02
465.50	4980.66
465.69	5071.94
465.87	4975.98
466.05	4919.81
466.23	4957.25
466.41	4973.64
466.60	5151.52
466.78	5025.13
466.96	5067.26
467.14	5008.75
467.32	5205.35
467.51	5266.21
467.69	5111.73
467.87	5188.97
468.05	5210.03
468.23	5107.05
468.41	5226.42
468.60	5149.18
468.78	5266.21
468.96	5294.29
469.14	5343.44
469.32	5350.46
469.50	5224.08
469.69	5401.96
469.87	5530.69
470.05	5455.79
470.23	5451.11
470.41	5413.66
470.59	5507.28
470.77	5565.79
470.95	5509.62
471.14	5767.08
471.32	5671.12
471.50	5659.42
471.68	5661.76
471.86	5502.60
472.04	5687.50
472.22	5788.14
472.40	5736.65
472.58	5851.34
472.77	5764.74
472.95	5830.27
473.13	6057.31
473.31	5898.15
473.49	5818.57
473.67	5935.60
473.85	5940.28
474.03	6179.01
474.21	6069.01
474.39	6122.84
474.57	6080.71
474.75	6221.14
474.93	6181.35
475.12	6307.74
475.30	6314.77
475.48	6157.95
475.66	6377.96
475.84	6375.62
476.02	6335.83
476.20	6352.21
476.38	6555.84
476.56	6562.86
476.74	6438.81
476.92	6551.16
477.10	6619.04
477.28	6874.15
477.46	6579.25
477.64	6832.02
477.82	6825.00
478.00	6974.80
478.18	6967.77
478.36	7108.21
478.54	6963.09
478.72	7246.30
478.90	7311.83
479.08	7183.10
479.26	7229.91
479.44	7344.60
479.62	7363.33
479.80	7585.68
479.98	7492.05
480.16	7611.42
480.34	7520.14
480.52	7585.68
480.70	7737.81
480.88	7613.76
481.06	7557.59
481.24	7709.72
481.41	7903.99
481.59	7999.95
481.77	8056.12
481.95	8013.99
482.13	8128.68
482.31	8042.08
482.49	8336.99
482.67	8393.16
482.85	8276.13
483.03	8557.00
483.21	8589.77
483.39	8685.73
483.57	8634.24
483.74	8732.54
483.92	8798.07
484.10	8854.25
484.28	8898.72
484.46	9191.28
484.64	9348.10
484.82	9146.81
485.00	9280.22
485.18	9284.91
485.35	9554.07
485.53	9481.51
485.71	9717.90
485.89	9806.84
486.07	9668.75
486.25	9579.81
486.43	9820.89
486.61	10045.58
486.78	9888.76
486.96	9958.98
487.14	10171.97
487.32	10019.83
487.50	10258.57
487.68	10230.48
487.85	10534.75
488.03	10436.45
488.21	10558.16
488.39	10684.55
488.57	10743.06
488.75	10672.84
488.92	11222.87
489.10	10778.17
489.28	11208.83
489.46	11178.40
489.64	11253.30
489.81	11300.11
489.99	11379.68
490.17	11208.83
490.35	11407.77
490.53	11527.14
490.70	11648.85
490.88	11571.61
491.06	11861.84
491.24	11690.98
491.41	11953.12
491.59	12208.23
491.77	12196.53
491.95	12067.80
492.13	12248.02
492.30	12465.69
492.48	12468.03
492.66	12606.13
492.84	12414.20
493.01	12521.87
493.19	12655.28
493.37	13048.49
493.54	12898.69
493.72	13043.81
493.90	12886.99
494.08	13022.74
494.25	13476.80
494.43	13343.39
494.61	13284.88
494.79	13476.80
494.96	13352.76
495.14	13500.21
495.32	13659.37
495.49	13724.90
495.67	13848.95
495.85	14094.71
496.02	13994.06
496.20	13893.42
496.38	13933.21
496.55	14008.11
496.73	14342.80
496.91	14305.35
497.09	14314.72
497.26	14363.87
497.44	14466.85
497.62	14551.11
497.79	14728.99
497.97	14597.92
498.14	14899.85
498.32	15147.95
498.50	14803.89
498.67	15218.16
498.85	15154.97
499.03	15089.43
499.20	15087.09
499.38	15456.90
499.56	15459.24
499.73	15323.49
499.91	15489.67
500.08	15775.21
500.26	15304.76
500.44	15644.14
500.61	15503.71
500.79	15576.27
500.97	15990.54
501.14	15854.79
501.32	16046.71
501.49	16081.82
501.67	16009.26
501.84	16058.42
502.02	16086.50
502.20	16430.56
502.37	16547.59
502.55	16180.12
502.72	16311.19
502.90	16578.01
503.07	16386.09
503.25	16060.76
503.43	16681.00
503.60	16381.41
503.78	16746.53
503.95	16652.91
504.13	16741.85
504.30	16681.00
504.48	16744.19
504.65	16783.98
504.83	16875.26
505.01	17205.28
505.18	16957.18
505.36	17160.81
505.53	17039.10
505.71	17193.58
505.88	17076.55
506.06	17078.89
506.23	17336.35
506.41	17312.94
506.58	17462.74
506.76	17699.13
506.93	17909.78
507.11	17565.72
507.28	17502.53
507.46	17825.52
507.63	17860.63
507.81	17942.55
507.98	17848.93
508.16	18031.49
508.33	17874.67
508.50	18017.44
508.68	18251.50
508.85	18478.53
509.03	18328.74
509.20	18183.62
509.38	18511.30
509.55	18513.64
509.73	18401.29
509.90	18518.32
510.08	18499.59
510.25	18609.60
510.42	18508.96
510.60	18927.91
510.77	18717.26
510.95	19115.16
511.12	18972.38
511.30	18979.40
511.47	18768.76
511.64	19000.47
511.82	19187.71
511.99	19150.26
512.17	19541.13
512.34	19396.02
512.51	19136.22
512.69	19393.68
512.86	19456.87
513.04	19721.35
513.21	19585.60
513.38	19529.43
513.56	19405.38
513.73	19515.39
513.90	19599.65
514.08	19735.40
514.25	19445.17
514.43	19613.69
514.60	19784.55
514.77	19751.78
514.95	20240.95
515.12	19974.13
515.29	19920.30
515.47	20105.20
515.64	20231.59
515.81	20189.46
515.99	20613.10
516.16	20484.37
516.33	20133.29
516.51	20383.73
516.68	20276.06
516.85	20570.97
517.03	20592.03
517.20	20702.04
517.37	20570.97
517.54	20821.41
517.72	20585.01
517.89	20781.62
518.06	20863.54
518.24	20659.91
518.41	20875.24
518.58	21090.57
518.75	21151.42
518.93	21219.30
519.10	21259.09
519.27	20858.85
519.45	20966.52
519.62	21235.68
519.79	21451.01
519.96	21397.18
520.14	21631.23
520.31	21202.91
520.48	21462.71
520.65	21280.15
520.83	21434.63
521.00	21584.42
521.17	21720.17
521.34	21771.66
521.52	21886.35
521.69	21788.05
521.86	21781.03
522.03	22064.23
522.20	21905.07
522.38	22087.64
522.55	21874.65
522.72	22270.20
522.89	21893.37
523.07	22408.29
523.24	22052.53
523.41	22256.15
523.58	22382.54
523.75	22202.32
523.92	22654.05
524.10	22324.03
524.27	22485.53
524.44	22565.10
524.61	22693.83
524.78	22759.37
524.96	22513.61
525.13	22714.90
525.30	22909.16
525.47	22916.19
525.64	22883.42
525.81	23173.64
525.98	23075.34
526.16	22871.72
526.33	22824.90
526.50	23084.70
526.67	23035.55
526.84	23019.17
527.01	22834.27
527.18	23124.49
527.36	23351.52
527.53	23559.83
527.70	23543.45
527.87	23330.46
528.04	23330.46
528.21	23646.43
528.38	23262.58
528.55	23564.51
528.72	23536.43
528.89	23744.73
529.07	23601.96
529.24	23569.19
529.41	23798.57
529.58	23634.73
529.75	23782.18
529.92	23489.62
530.09	23763.46
530.26	23786.86
530.43	23917.93
530.60	24166.03
530.77	23908.57
530.94	24100.50
531.11	23796.23
531.28	23840.70
531.46	24217.52
531.63	24126.24
531.80	24329.87
531.97	24350.93
532.14	24339.23
532.31	24173.05
532.48	24315.83
532.65	24318.17
532.82	24350.93
532.99	24203.48
533.16	24294.76
533.33	24786.27
533.50	24936.07
533.67	24664.57
533.84	24746.48
534.01	24402.43
534.18	24599.03
534.35	24769.89
534.52	24737.12
534.69	25034.37
534.86	25261.40
535.03	24762.87
535.20	25146.72
535.37	25013.31
535.54	24973.52
535.71	24680.95
535.88	25036.71
536.05	24957.13
536.22	25181.82
536.38	25322.26
536.55	25355.02
536.72	25130.33
536.89	25099.90
537.06	25085.86
537.23	25563.33
537.40	25193.53
537.57	25373.75
537.74	25418.22
537.91	25612.48
538.08	25577.37
538.25	25352.68
538.42	25415.88
538.59	25507.16
538.75	25558.65
538.92	25289.49
539.09	25373.75
539.26	25614.82
539.43	25900.37
539.60	25523.54
539.77	25450.99
539.94	25834.83
540.11	25729.51
540.28	25809.09
540.44	25898.03
540.61	25881.64
540.78	25436.94
540.95	25984.63
541.12	26005.69
541.29	25895.69
541.46	26127.40
541.62	26005.69
541.79	26150.81
541.96	25757.60
542.13	25607.80
542.30	25970.58
542.47	26536.99
542.63	26464.44
542.80	26274.85
542.97	26429.33
543.14	26464.44
543.31	26478.48
543.48	26616.57
543.64	26986.38
543.81	26558.06
543.98	27047.23
544.15	27061.27
544.32	26749.98
544.48	27005.10
544.65	26534.65
544.82	26838.92
544.99	26473.80
545.16	26998.08
545.32	26679.77
545.49	27087.02
545.66	27545.76
545.83	27040.21
546.00	27435.76
546.16	27140.85
546.33	26951.27
546.50	26579.12
546.67	26700.83
546.83	26876.37
547.00	27131.49
547.17	27524.70
547.34	27243.84
547.50	27342.14
547.67	27442.78
547.84	27211.07
548.00	27417.04
548.17	27601.94
548.34	27344.48
548.51	27552.79
548.67	27388.95
548.84	27505.98
549.01	27576.19
549.18	27655.77
549.34	27508.32
549.51	27513.00
549.68	27344.48
549.84	27796.20
550.01	27433.42
550.18	27608.96
550.34	28105.15
550.51	27618.32
550.68	27728.33
550.84	27711.94
551.01	27711.94
551.18	27393.63
551.34	27969.40
551.51	28053.66
551.68	27917.91
551.84	28046.64
552.01	27770.46
552.18	28166.01
552.34	28053.66
552.51	27896.85
552.68	27845.35
552.84	28163.67
553.01	28421.13
553.18	27983.44
553.34	28264.31
553.51	27950.68
553.67	28570.92
553.84	28800.29
554.01	28486.66
554.17	28170.69
554.34	28276.01
554.51	28535.81
554.67	28404.74
554.84	28191.75
555.00	28421.13
555.17	28435.17
555.33	28175.37
555.50	28524.11
555.67	28168.35
555.83	28648.16
556.00	28575.60
556.16	28744.12
556.33	28905.62
556.50	28524.11
556.66	28575.60
556.83	28608.37
556.99	28910.30
557.16	28851.78
557.32	28535.81
557.49	28840.08
557.65	28582.62
557.82	28676.24
557.98	28311.12
558.15	28929.02
558.32	29027.32
558.48	28929.02
558.65	28896.25
558.81	28856.46
558.98	28854.12
559.14	28755.82
559.31	28751.14
559.47	29111.58
559.64	28971.15
559.80	28966.47
559.97	29139.67
560.13	29149.03
560.30	28760.50
560.46	29282.44
560.63	29418.19
560.79	29280.10
560.96	29163.08
561.12	29113.92
561.29	29181.80
561.45	29359.68
561.61	29095.20
561.78	29207.55
561.94	29252.02
562.11	29261.38
562.27	29179.46
562.44	29312.87
562.60	29387.77
562.77	28905.62
562.93	28678.58
563.10	29493.09
563.26	29390.11
563.42	29947.15
563.59	29362.02
563.75	29343.30
563.92	29603.10
564.08	29450.96
564.24	29397.13
564.41	29462.66
564.57	29324.57
564.74	29266.06
564.90	29640.54
565.07	29703.74
565.23	29542.24
565.39	29542.24
565.56	29830.13
565.72	29689.70
565.88	29500.11
566.05	28994.56
566.21	29303.51
566.38	29240.31
566.54	29455.64
566.70	29776.30
566.87	29907.37
567.03	29752.89
567.19	29977.58
567.36	29759.91
567.52	29259.04
567.68	29701.40
567.85	29432.24
568.01	29752.89
568.17	29928.43
568.34	29610.12
568.50	29692.04
568.66	29713.10
568.83	30211.64
568.99	29954.18
569.15	30188.23
569.32	29584.37
569.48	29502.45
569.64	29394.79
569.81	29654.59
569.97	29610.12
570.13	30000.99
570.30	29975.24
570.46	29970.56
570.62	30141.42
570.78	29727.14
570.95	29579.69
571.11	29860.55
571.27	29507.13
571.43	29170.10
571.60	29638.20
571.76	29570.33
571.92	29874.60
572.09	30005.67
572.25	29795.02
572.41	30347.39
572.57	30192.91
572.74	29876.94
572.90	29706.08
573.06	29593.73
573.22	29893.32
573.38	29708.42
573.55	29811.40
573.71	30113.33
573.87	30370.79
574.03	30026.73
574.20	29841.83
574.36	29949.50
574.52	29942.47
574.68	29855.87
574.84	29687.36
575.01	30518.25
575.17	30384.83
575.33	30300.58
575.49	30122.69
575.65	30197.59
575.82	30340.36
575.98	29788.00
576.14	30199.93
576.30	29919.07
576.46	29986.94
576.62	30061.84
576.79	29940.13
576.95	30265.47
577.11	30242.06
577.27	30099.29
577.43	30349.73
577.59	30073.54
577.75	30197.59
577.92	30052.48
578.08	29940.13
578.24	30260.79
578.40	30146.10
578.56	30422.28
578.72	30380.15
578.88	30710.17
579.04	30284.19
579.21	30019.71
579.37	30316.96
579.53	30120.35
579.69	29659.27
579.85	29958.86
580.01	30286.53
580.17	30075.88
580.33	30136.74
580.49	30118.01
580.65	30396.54
580.82	30160.14
580.98	30391.86
581.14	30209.29
581.30	30595.48
581.46	30403.56
581.62	30213.98
581.78	30230.36
581.94	30244.40
582.10	30073.54
582.26	30253.76
582.42	30206.95
582.58	30235.04
582.74	30206.95
582.90	30462.07
583.06	30478.46
583.22	30373.13
583.38	30249.08
583.54	30157.80
583.70	30115.67
583.86	30433.99
584.02	30022.05
584.18	30316.96
584.34	30494.84
584.50	30235.04
584.66	30274.83
584.82	30024.39
584.98	30625.91
585.14	29874.60
585.30	30209.29
585.46	30487.82
585.62	30143.76
585.78	30448.03
585.94	29729.48
586.10	30567.40
586.26	30604.84
586.42	30658.68
586.58	30520.59
586.74	30206.95
586.90	30370.79
587.06	29853.53
587.22	30230.36
587.38	29958.86
587.54	30401.22
587.70	30373.13
587.86	30698.47
588.02	30881.03
588.18	30754.64
588.34	30932.52
588.49	30623.57
588.65	30368.45
588.81	30532.29
588.97	30576.76
589.13	30445.69
589.29	30464.41
589.45	30649.32
589.61	30590.80
589.77	30682.08
589.93	30602.50
590.08	30731.23
590.24	31023.80
590.40	30754.64
590.56	31037.84
590.72	30782.73
590.88	30331.00
591.04	30644.63
591.20	30616.55
591.35	30960.61
591.51	31197.00
591.67	31119.76
591.83	30721.87
591.99	30506.54
592.15	30841.24
592.31	30576.76
592.46	30518.25
592.62	30899.75
592.78	30459.73
592.94	31105.72
593.10	30345.05
593.26	30827.20
593.41	30897.41
593.57	30628.25
593.73	30946.56
593.89	30675.06
594.05	30972.31
594.20	30602.50
594.36	30375.47
594.52	30749.96
594.68	30616.55
594.84	30675.06
594.99	30974.65
595.15	30457.39
595.31	31110.40
595.47	31243.81
595.62	30848.26
595.78	30923.16
595.94	30431.65
596.10	30827.20
596.25	30672.72
596.41	30410.58
596.57	30637.61
596.73	30972.31
596.88	30646.97
597.04	31021.46
597.20	31297.64
597.36	30834.22
597.51	31227.43
597.67	30878.69
597.83	30810.81
597.99	30965.29
598.14	30855.28
598.30	30810.81
598.46	30993.37
598.61	30941.88
598.77	30691.44
598.93	30761.66
599.09	31138.49
599.24	31049.55
599.40	30993.37
599.56	30848.26
599.71	31330.41
599.87	31147.85
600.03	30927.84
600.18	30944.22
600.34	30731.23
600.50	30756.98
600.65	30731.23
600.81	30756.98
600.97	31264.88
601.12	31110.40
601.28	30962.95
601.44	31311.69
601.59	31234.45
601.75	31225.09
601.91	31386.58
602.06	30883.37
602.22	30948.90
602.37	31131.47
602.53	30923.16
602.69	31103.38
602.84	31489.57
603.00	31124.44
603.16	31129.12
603.31	31049.55
603.47	30976.99
603.62	30897.41
603.78	30764.00
603.94	30607.19
604.09	31307.01
604.25	30721.87
604.40	31033.16
604.56	31028.48
604.71	31201.68
604.87	31005.08
605.03	31173.60
605.18	30841.24
605.34	30995.71
605.49	30866.98
605.65	30874.01
605.80	30925.50
605.96	31304.67
606.12	30820.17
606.27	30796.77
606.43	31271.90
606.58	31391.26
606.74	30789.75
606.89	31199.34
607.05	31091.68
607.20	31103.38
607.36	30632.93
607.51	30866.98
607.67	30543.99
607.82	30773.36
607.98	30593.14
608.13	30764.00
608.29	31030.82
608.44	31096.36
608.60	30766.34
608.75	31112.74
608.91	31225.09
609.06	30972.31
609.22	30551.01
609.37	30668.04
609.53	30752.30
609.68	30773.36
609.84	30665.70
609.99	31070.61
610.15	30476.12
610.30	30965.29
610.46	30476.12
610.61	30543.99
610.76	30469.09
610.92	30703.15
611.07	30679.74
611.23	30387.18
611.38	30452.71
611.54	30359.09
611.69	30394.20
611.84	30614.21
612.00	30586.12
612.15	30443.35
612.31	30628.25
612.46	30616.55
612.62	30328.66
612.77	30410.58
612.92	30637.61
613.08	30345.05
613.23	30693.79
613.39	30443.35
613.54	30108.65
613.69	30518.25
613.85	30288.87
614.00	30031.41
614.15	30490.16
614.31	30424.62
614.46	30331.00
614.62	30616.55
614.77	30429.30
614.92	30527.61
615.08	30534.63
615.23	30223.34
615.38	30108.65
615.54	30349.73
615.69	30338.02
615.84	29762.25
616.00	30548.67
616.15	30483.14
616.30	30181.21
616.46	30258.45
616.61	30146.10
616.76	30408.24
616.92	30281.85
617.07	30160.14
617.22	29956.52
617.37	30047.80
617.53	30129.72
617.68	29895.66
617.83	29977.58
617.99	29687.36
618.14	29909.71
618.29	30284.19
618.45	30319.30
618.60	29893.32
618.75	30120.35
618.90	29984.60
619.06	29970.56
619.21	29902.68
619.36	30040.78
619.51	29944.81
619.67	29479.05
619.82	29699.06
619.97	30038.44
620.12	29371.38
620.28	29979.92
620.43	30295.89
620.58	29790.34
620.73	30188.23
620.89	29881.62
621.04	29713.10
621.19	29827.79
621.34	29715.44
621.49	29858.21
621.65	29614.80
621.80	29614.80
621.95	29649.91
622.10	29640.54
622.25	29535.22
622.41	29305.85
622.56	29715.44
622.71	30246.74
622.86	29558.63
623.01	29397.13
623.16	29895.66
623.32	29170.10
623.47	29605.44
623.62	29408.83
623.77	29397.13
623.92	29724.80
624.07	29514.16
624.23	29118.60
624.38	29516.50
624.53	29727.14
624.68	29600.76
624.83	29486.07
624.98	29266.06
625.13	29624.16
625.29	29455.64
625.44	29071.79
625.59	29146.69
625.74	29003.92
625.89	29305.85
626.04	29043.71
626.19	29401.81
626.34	29244.99
626.49	28961.79
626.65	28826.04
626.80	29427.56
626.95	29064.77
627.10	29273.08
627.25	29191.16
627.40	29326.91
627.55	29017.96
627.70	28807.31
627.85	28694.97
628.00	28877.53
628.15	28706.67
628.30	28760.50
628.45	28786.25
628.60	28699.65
628.76	29064.77
628.91	28830.72
629.06	28886.89
629.21	28821.36
629.36	29055.41
629.51	28510.07
629.66	28540.49
629.81	28423.47
629.96	28542.83
630.11	28266.65
630.26	28369.63
630.41	28683.27
630.56	29139.67
630.71	28596.67
630.86	28577.94
631.01	28748.80
631.16	28865.83
631.31	29027.32
631.46	28727.74
631.61	28793.27
631.76	28439.85
631.91	28760.50
632.06	28603.69
632.21	28437.51
632.36	28666.88
632.51	28161.33
632.66	28421.13
632.81	28187.07
632.96	28404.74
633.10	28479.64
633.25	28467.94
633.40	28524.11
633.55	28407.08
633.70	28470.28
633.85	27782.16
634.00	28116.86
634.15	28098.13
634.30	28020.89
634.45	28105.15
634.60	28243.24
634.75	28002.17
634.90	28407.08
635.05	28105.15
635.19	28135.58
635.34	28301.76
635.49	28556.88
635.64	28240.90
635.79	27861.74
635.94	28240.90
636.09	28154.30
636.24	27924.93
636.39	27857.06
636.53	27988.13
636.68	28140.26
636.83	27840.67
636.98	27814.93
637.13	28002.17
637.28	27978.76
637.43	28018.55
637.57	28013.87
637.72	27908.55
637.87	28093.45
638.02	27852.38
638.17	27971.74
638.32	27498.95
638.46	27613.64
638.61	27524.70
638.76	27405.33
638.91	27316.39
639.06	27791.52
639.20	27597.26
639.35	27644.07
639.50	27845.35
639.65	28123.88
639.80	27812.59
639.94	27742.37
640.09	27758.75
640.24	27718.96
640.39	27833.65
640.54	27330.44
640.68	27351.50
640.83	27529.38
640.98	27302.35
641.13	27194.68
641.27	27592.58
641.42	27569.17
641.57	27585.55
641.72	27314.05
641.86	27433.42
642.01	27197.02
642.16	27250.86
642.31	26995.74
642.45	27323.41
642.60	26789.77
642.75	26967.65
642.90	27304.69
643.04	27351.50
643.19	26951.27
643.34	27150.21
643.48	27129.15
643.63	27536.40
643.78	27178.30
643.93	27185.32
644.07	27112.77
644.22	27372.57
644.37	26773.39
644.51	26909.14
644.66	27150.21
644.81	26911.48
644.95	26902.12
645.10	26721.90
645.25	26995.74
645.39	27072.98
645.54	27168.94
645.69	26829.56
645.83	27110.43
645.98	27005.10
646.13	27262.56
646.27	26955.95
646.42	26789.77
646.57	26794.45
646.71	26759.34
646.86	26700.83
647.00	26611.89
647.15	26906.80
647.30	26532.31
647.44	26677.43
647.59	26544.02
647.74	26562.74
647.88	26700.83
648.03	26920.84
648.17	26932.54
648.32	26969.99
648.47	26979.36
648.61	26845.94
648.76	26604.87
648.90	26590.83
649.05	26377.84
649.20	26787.43
649.34	26263.15
649.49	26429.33
649.63	26532.31
649.78	26642.32
649.92	26319.32
650.07	26398.90
650.21	26508.91
650.36	26141.44
650.51	26555.72
650.65	26508.91
650.80	26583.80
650.94	26263.15
651.09	26047.82
651.23	26281.88
651.38	26260.81
651.52	26155.49
651.67	26064.21
651.81	26129.74
651.96	26190.59
652.10	26085.27
652.25	26237.41
652.39	26221.02
652.54	26649.34
652.68	26274.85
652.83	26162.51
652.97	26267.83
653.12	26005.69
653.26	26422.31
653.41	25914.41
653.55	26410.60
653.70	25996.33
653.84	25806.75
653.99	25930.80
654.13	26047.82
654.27	25806.75
654.42	25757.60
654.56	25886.32
654.71	26005.69
654.85	26302.94
655.00	26106.34
655.14	26073.57
655.29	25879.30
655.43	25762.28
655.57	25523.54
655.72	25357.36
655.86	25701.42
656.01	25813.77
656.15	25448.64
656.30	25544.61
656.44	25694.40
656.58	25895.69
656.73	25603.12
656.87	25713.13
657.01	25656.95
657.16	25631.21
657.30	25940.16
657.45	25621.84
657.59	25530.56
657.73	25488.43
657.88	25628.87
658.02	25488.43
658.16	25378.43
658.31	25399.49
658.45	25408.86
658.60	25259.06
658.74	25113.95
658.88	25420.56
659.03	25179.48
659.17	25340.98
659.31	25324.60
659.46	25209.91
659.60	24915.00
659.74	25256.72
659.89	24943.09
660.03	25074.16
660.17	25097.56
660.32	25053.09
660.46	24723.08
660.60	24582.65
660.74	25062.46
660.89	24776.91
661.03	24868.19
661.17	24680.95
661.32	24933.73
661.46	24814.36
661.60	24659.88
661.74	24774.57
661.89	25149.06
662.03	24716.06
662.17	24683.29
662.31	24599.03
662.46	24687.97
662.60	24528.81
662.74	24606.05
662.88	24322.85
663.03	24210.50
663.17	24594.35
663.31	24210.50
663.45	24018.58
663.60	24287.74
663.74	24308.80
663.88	24273.70
664.02	23976.45
664.17	24676.27
664.31	24025.60
664.45	23857.08
664.59	24374.34
664.73	24521.79
664.88	24304.12
665.02	23665.16
665.16	23861.76
665.30	24154.33
665.44	23796.23
665.59	23747.08
665.73	24037.30
665.87	23480.25
666.01	23812.61
666.15	23840.70
666.29	23548.13
666.44	23749.42
666.58	23524.72
666.72	23571.54
666.86	23782.18
667.00	23697.92
667.14	23463.87
667.28	23480.25
667.43	23770.48
667.57	23704.95
667.71	23623.03
667.85	23271.95
667.99	23194.71
668.13	23271.95
668.27	23414.72
668.41	23576.22
668.56	23021.51
668.70	23051.94
668.84	23356.21
668.98	22829.59
669.12	23384.29
669.26	22977.04
669.40	22998.10
669.54	22972.36
669.68	22904.48
669.82	22869.37
669.96	23054.28
670.10	22588.51
670.25	23012.15
670.39	22937.25
670.53	22656.39
670.67	22752.35
670.81	22525.32
670.95	22691.49
671.09	22534.68
671.23	22635.32
671.37	22813.20
671.51	22541.70
671.65	22803.84
671.79	22291.26
671.93	22569.79
672.07	22515.95
672.21	22260.84
672.35	22162.53
672.49	22019.76
672.63	22164.87
672.77	21914.44
672.91	22370.84
673.05	21907.41
673.19	22043.17
673.33	21975.29
673.47	21979.97
673.61	22017.42
673.75	21846.56
673.89	21926.14
674.03	21986.99
674.17	21713.15
674.31	21902.73
674.45	21715.49
674.59	21525.91
674.73	21448.67
674.87	21291.85
675.01	21486.12
675.15	21399.52
675.29	21301.22
675.43	21436.97
675.56	21032.05
675.70	21664.00
675.84	21598.46
675.98	20774.60
676.12	21135.04
676.26	21263.77
676.40	21315.26
676.54	20823.75
676.68	20798.00
676.82	20102.86
676.96	20734.81
677.10	20669.27
677.23	20676.29
677.37	20372.02
677.51	20533.52
677.65	20489.05
677.79	20467.98
677.93	20231.59
678.07	20348.62
678.21	20037.33
678.34	20121.59
678.48	20203.50
678.62	20182.44
678.76	20020.94
678.90	20049.03
679.04	20091.16
679.18	19800.93
679.31	19747.10
679.45	19414.74
679.59	19789.23
679.73	19557.52
679.87	19777.53
680.00	19864.13
680.14	19257.93
680.28	19431.13
680.42	19405.38
680.56	19494.32
680.70	19274.31
680.83	19314.10
680.97	19463.90
681.11	19243.88
681.25	19283.67
681.39	18871.74
681.52	18956.00
681.66	18824.93
681.80	18366.18
681.94	18551.09
682.07	18970.04
682.21	18623.64
682.35	18541.72
682.49	18335.76
682.62	18314.69
682.76	18448.10
682.90	18546.40
683.04	18483.21
683.17	18377.89
683.31	18258.52
683.45	18209.37
683.59	18267.88
683.72	18106.38
683.86	18024.47
684.00	18078.30
684.13	18113.41
684.27	18024.47
684.41	17989.36
684.55	17762.33
684.68	17493.16
684.82	17554.02
684.96	17343.37
685.09	17448.69
685.23	17469.76
685.37	17149.11
685.50	17544.66
685.64	17160.81
685.78	17516.57
685.91	17242.73
686.05	17277.83
686.19	16922.07
686.32	17167.83
686.46	17020.38
686.60	16851.86
686.73	16919.73
686.87	16769.94
687.01	16746.53
687.14	16634.19
687.28	16739.51
687.42	16418.86
687.55	16397.79
687.69	16542.91
687.82	16266.72
687.96	16395.45
688.10	16390.77
688.23	16004.58
688.37	16264.38
688.50	16009.26
688.64	16353.32
688.78	16339.28
688.91	16140.33
689.05	15983.52
689.18	16027.99
689.32	15424.13
689.46	15847.77
689.59	15805.64
689.73	15873.51
689.86	15506.05
690.00	15613.71
690.13	15697.97
690.27	15307.10
690.41	15346.89
690.54	15260.29
690.68	15379.66
690.81	15442.85
690.95	15260.29
691.08	15082.41
691.22	15145.61
691.35	15197.10
691.49	14829.63
691.62	15227.53
691.76	14764.10
691.89	14927.94
692.03	14492.60
692.16	14539.41
692.30	14401.32
692.43	14583.88
692.57	14328.76
692.70	14567.49
692.84	14396.64
692.97	14202.37
693.11	14410.68
693.24	14464.51
693.38	14183.65
693.51	14314.72
693.65	14359.19
693.78	14094.71
693.92	14193.01
694.05	14101.73
694.19	14050.24
694.32	13731.92
694.45	13710.86
694.59	13654.69
694.72	13598.51
694.86	13584.47
694.99	13158.49
695.13	13521.27
695.26	13537.66
695.39	13458.08
695.53	13249.77
695.66	13280.20
695.80	13460.42
695.93	13572.77
696.07	13256.79
696.20	13205.30
696.33	13146.79
696.47	13107.00
696.60	13013.38
696.73	12772.30
696.87	13004.02
697.00	13013.38
697.14	12720.81
697.27	12737.20
697.40	12709.11
697.54	12451.65
697.67	12292.49
697.80	12332.28
697.94	12446.97
698.07	12416.54
698.21	12233.98
698.34	12400.16
698.47	12414.20
698.61	12365.05
698.74	12306.54
698.87	12252.70
699.01	12063.12
699.14	12123.98
699.27	11988.22
699.40	11941.41
699.54	11976.52
699.67	11974.18
699.80	11756.51
699.94	11723.74
700.07	11620.76
700.20	11529.48
700.34	11538.84
700.47	11487.35
700.60	11651.19
700.73	11524.80
700.87	11363.30
701.00	11295.43
701.13	11265.00
701.26	11442.88
701.40	11304.79
701.53	11112.86
701.66	11096.48
701.79	11124.57
701.93	11145.63
702.06	11164.36
702.19	10684.55
702.32	10789.87
702.46	10846.04
702.59	10658.80
702.72	10637.73
702.85	10499.64
702.99	10485.60
703.12	10560.50
703.25	10211.76
703.38	10485.60
703.51	10558.16
703.65	10506.66
703.78	10438.79
703.91	10457.51
704.04	10626.03
704.17	10436.45
704.31	10122.82
704.44	10090.05
704.57	9975.36
704.70	10101.75
704.83	10012.81
704.96	9886.42
705.10	9944.94
705.23	9877.06
>>>>>End Processed Spectral Data<<<<<
