SpectraSuite Data File
++++++++++++++++++++++++++++++++++++
Date: Fri Oct 18 13:58:11 GMT-05:00 2013
User: bianchi
Dark Spectrum Present: No
Reference Spectrum Present: No
Number of Sampled Component Spectra: 1
Spectrometers: USB2+H05261
Integration Time (usec): 50000 (USB2+H05261)
Spectra Averaged: 1 (USB2+H05261)
Boxcar Smoothing: 0 (USB2+H05261)
Correct for Electrical Dark: No (USB2+H05261)
Strobe/Lamp Enabled: No (USB2+H05261)
Correct for Detector Non-linearity: No (USB2+H05261)
Correct for Stray Light: No (USB2+H05261)
Number of Pixels in Processed Spectrum: 2048
>>>>>Begin Processed Spectral Data<<<<<
365.73	0.00
365.92	0.00
366.12	0.00
366.32	0.00
366.52	0.00
366.72	0.00
366.91	0.00
367.11	0.00
367.31	0.00
367.51	0.00
367.70	0.00
367.90	0.00
368.10	0.00
368.30	0.00
368.49	0.00
368.69	0.00
368.89	0.00
369.09	0.00
369.28	0.00
369.48	0.00
369.68	0.00
369.87	0.00
370.07	0.00
370.27	0.00
370.47	0.00
370.66	42.13
370.86	166.18
371.06	63.19
371.25	124.05
371.45	173.20
371.65	182.56
371.84	187.24
372.04	159.16
372.24	236.39
372.44	154.48
372.63	238.73
372.83	236.39
373.03	236.39
373.22	255.12
373.42	250.44
373.62	245.76
373.81	138.09
374.01	243.42
374.21	201.29
374.40	257.46
374.60	273.84
374.79	243.42
374.99	297.25
375.19	262.14
375.38	250.44
375.58	243.42
375.78	255.12
375.97	182.56
376.17	266.82
376.37	208.31
376.56	285.55
376.76	327.68
376.95	220.01
377.15	271.50
377.35	210.65
377.54	280.86
377.74	222.35
377.93	320.65
378.13	262.14
378.33	278.52
378.52	294.91
378.72	304.27
378.91	337.04
379.11	271.50
379.31	280.86
379.50	262.14
379.70	332.36
379.89	355.76
380.09	315.97
380.28	292.57
380.48	308.95
380.68	243.42
380.87	294.91
381.07	259.80
381.26	362.78
381.46	409.59
381.65	423.64
381.85	318.31
382.04	334.70
382.24	351.08
382.43	360.44
382.63	297.25
382.83	433.00
383.02	362.78
383.22	414.27
383.41	369.80
383.61	330.02
383.80	386.19
384.00	393.21
384.19	339.38
384.39	416.62
384.58	381.51
384.78	402.57
384.97	414.27
385.17	442.36
385.36	353.42
385.56	416.62
385.75	355.76
385.95	341.72
386.14	456.40
386.34	409.59
386.53	402.57
386.72	292.57
386.92	454.06
387.11	423.64
387.31	465.77
387.50	458.74
387.70	444.70
387.89	383.85
388.09	498.53
388.28	472.79
388.48	491.51
388.67	472.79
388.86	463.43
389.06	524.28
389.25	475.13
389.45	479.81
389.64	461.09
389.84	557.05
390.03	514.92
390.22	547.69
390.42	510.24
390.61	472.79
390.81	493.85
391.00	547.69
391.19	437.68
391.39	528.96
391.58	557.05
391.78	500.87
391.97	461.09
392.16	547.69
392.36	512.58
392.55	557.05
392.75	538.32
392.94	538.32
393.13	543.00
393.33	524.28
393.52	601.52
393.71	636.63
393.91	629.60
394.10	620.24
394.29	568.75
394.49	587.47
394.68	596.84
394.88	629.60
395.07	613.22
395.26	596.84
395.46	671.73
395.65	573.43
395.84	608.54
396.04	697.48
396.23	561.73
396.42	594.50
396.62	709.18
396.81	748.97
397.00	620.24
397.19	599.18
397.39	685.78
397.58	683.44
397.77	697.48
397.97	720.88
398.16	662.37
398.35	725.57
398.55	681.10
398.74	758.33
398.93	763.01
399.12	765.36
399.32	699.82
399.51	788.76
399.70	868.34
399.90	755.99
400.09	704.50
400.28	816.85
400.47	828.55
400.67	814.51
400.86	793.44
401.05	800.46
401.24	765.36
401.44	873.02
401.63	877.70
401.82	781.74
402.01	781.74
402.21	788.76
402.40	851.96
402.59	863.66
402.78	910.47
402.97	842.59
403.17	908.13
403.36	908.13
403.55	938.55
403.74	952.60
403.93	910.47
404.13	861.32
404.32	922.17
404.51	952.60
404.70	1008.77
404.89	924.51
405.09	1067.28
405.28	1053.24
405.47	959.62
405.66	954.94
405.85	959.62
406.05	1039.20
406.24	1046.22
406.43	1097.71
406.62	1142.18
406.81	1041.54
407.00	1011.11
407.20	973.66
407.39	1008.77
407.58	1062.60
407.77	1057.92
407.96	997.07
408.15	1090.69
408.34	1036.86
408.54	1078.99
408.73	1109.41
408.92	1086.01
409.11	1097.71
409.30	1125.80
409.49	1121.12
409.68	1221.76
409.87	1233.46
410.07	1245.16
410.26	1198.35
410.45	1252.19
410.64	1210.06
410.83	1219.42
411.02	1219.42
411.21	1252.19
411.40	1364.53
411.59	1252.19
411.78	1320.06
411.98	1254.53
412.17	1350.49
412.36	1315.38
412.55	1366.87
412.74	1308.36
412.93	1423.05
413.12	1362.19
413.31	1467.52
413.50	1313.04
413.69	1448.79
413.88	1500.28
414.07	1526.03
414.26	1465.18
414.45	1387.94
414.64	1453.47
414.83	1610.29
415.02	1481.56
415.22	1507.30
415.41	1577.52
415.60	1591.56
415.79	1582.20
415.98	1568.16
416.17	1640.72
416.36	1703.91
416.55	1533.05
416.74	1682.85
416.93	1638.38
417.12	1743.70
417.31	1764.76
417.50	1790.51
417.69	1792.85
417.88	1727.32
418.07	1795.19
418.26	1774.13
418.45	1783.49
418.64	1921.58
418.83	1783.49
419.02	1837.32
419.21	1928.60
419.39	1888.81
419.58	1860.73
419.77	1846.68
419.96	1849.02
420.15	1907.54
420.34	1827.96
420.53	1933.28
420.72	1940.30
420.91	1982.43
421.10	1970.73
421.29	1994.14
421.48	1905.20
421.67	1982.43
421.86	1989.46
422.05	2003.50
422.24	2015.20
422.43	1895.83
422.61	1984.77
422.80	1994.14
422.99	2022.22
423.18	2099.46
423.37	2092.44
423.56	2015.20
423.75	2017.54
423.94	2136.91
424.13	1886.47
424.32	1919.24
424.50	2001.16
424.69	2134.57
424.88	2150.95
425.07	1996.48
425.26	2120.53
425.45	2047.97
425.64	2092.44
425.83	2019.88
426.01	2202.44
426.20	2115.84
426.39	2031.58
426.58	2071.37
426.77	2190.74
426.96	2207.13
427.15	2188.40
427.33	2176.70
427.52	2115.84
427.71	2225.85
427.90	2181.38
428.09	2190.74
428.28	2272.66
428.46	2270.32
428.65	2235.21
428.84	2300.75
429.03	2363.94
429.22	2150.95
429.40	2221.17
429.59	2319.47
429.78	2249.25
429.97	2275.00
430.16	2298.41
430.34	2298.41
430.53	2450.54
430.72	2335.85
430.91	2298.41
431.10	2401.39
431.28	2352.24
431.47	2328.83
431.66	2455.22
431.85	2389.69
432.03	2483.31
432.22	2530.12
432.41	2499.69
432.60	2511.39
432.79	2480.97
432.97	2548.84
433.16	2541.82
433.35	2553.52
433.54	2567.57
433.72	2693.96
433.91	2476.29
434.10	2541.82
434.28	2548.84
434.47	2682.25
434.66	2612.04
434.85	2661.19
435.03	2649.49
435.22	2593.31
435.41	2682.25
435.59	2633.10
435.78	2626.08
435.97	2743.11
436.16	2644.81
436.34	2703.32
436.53	2876.52
436.72	2871.84
436.90	2689.28
437.09	2754.81
437.28	2717.36
437.46	2794.60
437.65	2869.50
437.84	2787.58
438.02	2766.51
438.21	2782.90
438.40	2710.34
438.58	2977.16
438.77	2850.77
438.96	2818.00
439.14	3000.57
439.33	2991.20
439.52	2956.10
439.70	3059.08
439.89	3096.53
440.08	3075.46
440.26	3080.14
440.45	3204.19
440.63	3272.07
440.82	3187.81
441.01	3159.72
441.19	3227.60
441.38	3227.60
441.57	3260.37
441.75	3283.77
441.94	3522.51
442.12	3435.91
442.31	3372.71
442.50	3382.07
442.68	3365.69
442.87	3396.12
443.05	3328.24
443.24	3260.37
443.43	3351.65
443.61	3382.07
443.80	3571.66
443.98	3398.46
444.17	3344.63
444.35	3501.44
444.54	3569.32
444.73	3379.73
444.91	3529.53
445.10	3522.51
445.28	3506.12
445.47	3379.73
445.65	3564.64
445.84	3485.06
446.02	3492.08
446.21	3489.74
446.39	3545.91
446.58	3588.04
446.77	3606.77
446.95	3492.08
447.14	3646.55
447.32	3714.43
447.51	3499.10
447.69	3438.25
447.88	3559.95
448.06	3592.72
448.25	3646.55
448.43	3667.62
448.62	3590.38
448.80	3679.32
448.99	3751.88
449.17	3674.64
449.36	3559.95
449.54	3688.68
449.73	3705.07
449.91	3817.41
450.10	3847.84
450.28	3761.24
450.46	3854.86
450.65	3681.66
450.83	3868.91
451.02	3943.80
451.20	3885.29
451.39	3857.20
451.57	3911.04
451.76	3859.54
451.94	3878.27
452.13	3927.42
452.31	3934.44
452.49	3896.99
452.68	3915.72
452.86	3964.87
453.05	4011.68
453.23	3889.97
453.42	3845.50
453.60	3925.08
453.78	3995.29
453.97	3791.67
454.15	3875.93
454.34	3941.46
454.52	4095.94
454.70	4102.96
454.89	4236.37
455.07	4241.05
455.26	4222.33
455.44	4149.77
455.62	4163.81
455.81	4236.37
455.99	4215.30
456.17	4212.96
456.36	4212.96
456.54	4367.44
456.73	4241.05
456.91	4351.06
457.09	4430.63
457.28	4353.40
457.46	4341.69
457.64	4428.29
457.83	4383.82
458.01	4334.67
458.19	4561.70
458.38	4517.23
458.56	4533.62
458.74	4554.68
458.93	4514.89
459.11	4533.62
459.29	4601.49
459.48	4622.56
459.66	4470.42
459.84	4557.02
460.03	4624.90
460.21	4643.62
460.39	4711.50
460.57	4690.43
460.76	4531.28
460.94	4711.50
461.12	4634.26
461.31	4709.16
461.49	4662.35
461.67	4746.61
461.85	4786.40
462.04	4755.97
462.22	5062.58
462.40	4779.37
462.59	4884.70
462.77	4915.12
462.95	4898.74
463.13	4788.74
463.32	4952.57
463.50	4910.44
463.68	4884.70
463.86	4891.72
464.05	4959.60
464.23	5025.13
464.41	4915.12
464.59	5039.17
464.78	5128.11
464.96	4889.38
465.14	4945.55
465.32	5226.42
465.50	5102.37
465.69	4992.36
465.87	5179.61
466.05	5100.03
466.23	5046.20
466.41	5151.52
466.60	5294.29
466.78	5191.31
466.96	5118.75
467.14	5343.44
467.32	5210.03
467.51	5390.25
467.69	5282.59
467.87	5338.76
468.05	5256.84
468.23	5284.93
468.41	5195.99
468.60	5170.24
468.78	5331.74
468.96	5270.89
469.14	5472.17
469.32	5533.03
469.50	5446.43
469.69	5432.38
469.87	5535.37
470.05	5596.22
470.23	5533.03
470.41	5430.04
470.59	5645.37
470.77	5507.28
470.95	5694.52
471.14	5750.70
471.32	5383.23
471.50	5781.12
471.68	5575.16
471.86	5626.65
472.04	5760.06
472.22	5834.96
472.40	5664.10
472.58	5877.09
472.77	5877.09
472.95	5858.36
473.13	6036.24
473.31	5996.45
473.49	6118.16
473.67	5987.09
473.85	6108.80
474.03	6127.52
474.21	6167.31
474.39	6139.23
474.57	6242.21
474.75	6193.06
474.93	6333.49
475.12	6319.45
475.30	6204.76
475.48	6122.84
475.66	6445.84
475.84	6410.73
476.02	6457.54
476.20	6399.02
476.38	6551.16
476.56	6583.93
476.74	6675.21
476.92	6555.84
477.10	6810.96
477.28	6888.20
477.46	6843.73
477.64	6970.12
477.82	7157.36
478.00	7000.54
478.18	7045.01
478.36	7162.04
478.54	7194.81
478.72	7269.70
478.90	7192.47
479.08	7442.90
479.26	7536.52
479.44	7513.12
479.62	7431.20
479.80	7414.82
479.98	7501.42
480.16	7784.62
480.34	7548.23
480.52	7854.84
480.70	7770.58
480.88	7756.54
481.06	7922.71
481.24	7845.48
481.41	8042.08
481.59	8177.83
481.77	8147.40
481.95	8215.28
482.13	8360.39
482.31	8196.56
482.49	8585.08
482.67	8414.23
482.85	8559.34
483.03	8755.94
483.21	8713.81
483.39	8716.16
483.57	8835.52
483.74	8945.53
483.92	9034.47
484.10	8908.08
484.28	9100.00
484.46	9343.42
484.64	9348.10
484.82	9495.55
485.00	9502.58
485.18	9533.00
485.35	9565.77
485.53	9490.87
485.71	9542.36
485.89	9898.13
486.07	9680.46
486.25	9867.70
486.43	9797.48
486.61	9912.17
486.78	10115.80
486.96	10129.84
487.14	10263.25
487.32	10291.34
487.50	10270.27
487.68	10487.94
487.85	10520.71
488.03	10672.84
488.21	10988.82
488.39	10759.44
488.57	10972.43
488.75	10937.32
488.92	11103.50
489.10	11068.39
489.28	11215.85
489.46	11311.81
489.64	11325.85
489.81	11520.12
489.99	11653.53
490.17	11562.25
490.35	11768.21
490.53	11630.12
490.70	12025.67
490.88	11864.18
491.06	11887.58
491.24	12175.47
491.41	12182.49
491.59	12142.70
491.77	12360.37
491.95	12461.01
492.13	12397.82
492.30	12587.40
492.48	12683.36
492.66	12617.83
492.84	12819.11
493.01	12753.58
493.19	12877.63
493.37	13259.13
493.54	13097.64
493.72	13025.08
493.90	12901.03
494.08	13408.93
494.25	13640.64
494.43	13355.10
494.61	13554.04
494.79	13460.42
494.96	13862.99
495.14	13748.31
495.32	13797.46
495.49	13549.36
495.67	13989.38
495.85	14059.60
496.02	13989.38
496.20	14300.67
496.38	14223.44
496.55	14183.65
496.73	14607.28
496.91	14389.61
497.09	14476.21
497.26	14597.92
497.44	14888.15
497.62	14738.35
497.79	15042.62
497.97	14780.48
498.14	15115.18
498.32	15201.78
498.50	15124.54
498.67	15297.74
498.85	15173.69
499.03	15332.85
499.20	15421.79
499.38	15548.18
499.56	15702.65
499.73	15992.88
499.91	15915.64
500.08	15925.00
500.26	15616.05
500.44	15908.62
500.61	15758.83
500.79	16065.44
500.97	16009.26
501.14	16201.19
501.32	16271.40
501.49	16327.58
501.67	16250.34
501.84	16395.45
502.02	16315.87
502.20	16507.80
502.37	16713.77
502.55	16566.31
502.72	16535.88
502.90	16814.41
503.07	16526.52
503.25	16891.65
503.43	16823.77
503.60	16926.75
503.78	17259.11
503.95	16833.13
504.13	16908.03
504.30	17088.25
504.48	16954.84
504.65	16929.09
504.83	17371.46
505.01	17727.22
505.18	17516.57
505.36	17839.56
505.53	17383.16
505.71	17579.76
505.88	17603.17
506.06	17530.61
506.23	17799.77
506.41	17626.57
506.58	17991.70
506.76	18019.78
506.93	18015.10
507.11	17586.79
507.28	18054.89
507.46	18340.44
507.63	18012.76
507.81	18295.97
507.98	18078.30
508.16	18157.88
508.33	18752.37
508.50	18178.94
508.68	18455.12
508.85	18539.38
509.03	18663.43
509.20	18773.44
509.38	18850.67
509.55	18806.20
509.73	18948.98
509.90	19154.94
510.08	18731.31
510.25	19070.68
510.42	18855.36
510.60	19293.04
510.77	19489.64
510.95	19381.98
511.12	19049.62
511.30	19007.49
511.47	19442.83
511.64	19164.31
511.82	19599.65
511.99	19377.30
512.17	19822.00
512.34	19389.00
512.51	19850.08
512.69	19686.25
512.86	19810.29
513.04	19885.19
513.21	20180.10
513.38	20072.43
513.56	19768.16
513.73	19997.54
513.90	19913.28
514.08	20252.66
514.25	19899.23
514.43	20285.42
514.60	20432.88
514.77	20510.11
514.95	20369.68
515.12	20144.99
515.29	20376.70
515.47	20496.07
515.64	20826.09
515.81	20505.43
515.99	20479.69
516.16	20500.75
516.33	20790.98
516.51	20905.66
516.68	20819.07
516.85	20680.97
517.03	20732.47
517.20	21010.99
517.37	21315.26
517.54	20889.28
517.72	21099.93
517.89	20975.88
518.06	21010.99
518.24	20908.01
518.41	21039.08
518.58	21289.51
518.75	21186.53
518.93	21579.74
519.10	21495.48
519.27	21626.55
519.45	21579.74
519.62	21465.05
519.79	21621.87
519.96	21876.99
520.14	22045.51
520.31	21832.52
520.48	21940.18
520.65	21568.04
520.83	22286.58
521.00	22139.13
521.17	21921.46
521.34	22246.79
521.52	21921.46
521.69	22157.85
521.86	22331.05
522.03	22405.95
522.20	22263.18
522.38	22197.64
522.55	22431.69
522.72	21984.65
522.89	22623.62
523.07	22684.47
523.24	22553.40
523.41	23063.64
523.58	22740.64
523.75	22600.21
523.92	22560.42
524.10	23000.44
524.27	22712.56
524.44	23033.21
524.61	23201.73
524.78	23199.39
524.96	23302.37
525.13	23028.53
525.30	23501.32
525.47	23288.33
525.64	23089.38
525.81	23403.02
525.98	23410.04
526.16	23639.41
526.33	23316.42
526.50	23655.79
526.67	23491.96
526.84	23297.69
527.01	23449.83
527.18	23580.90
527.36	23901.55
527.53	23728.35
527.70	23882.83
527.87	23821.97
528.04	23950.70
528.21	23742.39
528.38	23878.15
528.55	24177.73
528.72	24037.30
528.89	23971.77
529.07	24051.34
529.24	24046.66
529.41	24634.14
529.58	24074.75
529.75	24250.29
529.92	23927.30
530.09	24151.99
530.26	24325.19
530.43	24170.71
530.60	24229.23
530.77	24304.12
530.94	24545.20
531.11	24276.04
531.28	24467.96
531.46	24372.00
531.63	24409.45
531.80	24627.12
531.97	24606.05
532.14	24592.01
532.31	24711.38
532.48	24915.00
532.65	24638.82
532.82	24587.33
532.99	24931.39
533.16	25298.85
533.33	25003.94
533.50	25172.46
533.67	25373.75
533.84	24643.50
534.01	24912.66
534.18	24477.32
534.35	25446.30
534.52	24924.36
534.69	25151.40
534.86	25289.49
535.03	25465.03
535.20	25661.63
535.37	25488.43
535.54	25436.94
535.71	25249.70
535.88	25259.06
536.05	25380.77
536.22	25476.73
536.38	25649.93
536.55	25755.26
536.72	25905.05
536.89	25530.56
537.06	25949.52
537.23	26092.29
537.40	25663.97
537.57	25610.14
537.74	26052.50
537.91	26274.85
538.08	26085.27
538.25	25846.54
538.42	25895.69
538.59	26096.97
538.75	25795.04
538.92	25823.13
539.09	26174.21
539.26	26223.36
539.43	26267.83
539.60	26419.97
539.77	26305.28
539.94	26309.96
540.11	26277.19
540.28	26593.17
540.44	26221.02
540.61	26188.25
540.78	26558.06
540.95	26541.68
541.12	26445.71
541.29	26270.17
541.46	26719.56
541.62	26405.92
541.79	26478.48
541.96	26012.71
542.13	26532.31
542.30	26448.05
542.47	27019.14
542.63	26888.07
542.80	26789.77
542.97	27358.52
543.14	27395.97
543.31	26668.06
543.48	27030.85
543.64	27388.95
543.81	27232.13
543.98	27307.03
544.15	27477.89
544.32	27194.68
544.48	27435.76
544.65	27297.67
544.82	27232.13
544.99	27035.53
545.16	27260.22
545.32	26993.40
545.49	27894.50
545.66	27438.10
545.83	27470.87
546.00	27718.96
546.16	27440.44
546.33	27257.88
546.50	27440.44
546.67	27456.82
546.83	27344.48
547.00	27520.02
547.17	27405.33
547.34	27651.09
547.50	27831.31
547.67	28168.35
547.84	27562.15
548.00	28161.33
548.17	28292.40
548.34	27990.47
548.51	28460.91
548.67	28219.84
548.84	28070.04
549.01	28116.86
549.18	27927.27
549.34	28320.48
549.51	27796.20
549.68	28088.77
549.84	28041.96
550.01	27931.95
550.18	28163.67
550.34	28177.71
550.51	28147.28
550.68	28547.51
550.84	28154.30
551.01	28388.36
551.18	28135.58
551.34	28231.54
551.51	28388.36
551.68	28437.51
551.84	28414.10
552.01	28430.49
552.18	28517.09
552.34	28814.34
552.51	28636.45
552.68	28760.50
552.84	28903.28
553.01	28521.77
553.18	28683.27
553.34	29078.82
553.51	28601.35
553.67	28924.34
553.84	29434.58
554.01	28723.05
554.17	29053.07
554.34	28636.45
554.51	29039.03
554.67	29027.32
554.84	28748.80
555.00	28952.43
555.17	29268.40
555.33	28994.56
555.50	29060.09
555.67	29029.66
555.83	29116.26
556.00	29034.35
556.16	29237.97
556.33	29266.06
556.50	29235.63
556.66	29324.57
556.83	29291.80
556.99	29329.25
557.16	29731.83
557.32	29558.63
557.49	29476.71
557.65	29249.67
557.82	29266.06
557.98	29113.92
558.15	29331.59
558.32	29174.78
558.48	29366.70
558.65	29378.40
558.81	29518.84
558.98	29392.45
559.14	29539.90
559.31	29275.42
559.47	28872.85
559.64	29809.06
559.80	29682.67
559.97	29788.00
560.13	29507.13
560.30	29710.76
560.46	29675.65
560.63	29645.23
560.79	29940.13
560.96	30010.35
561.12	29788.00
561.29	29661.61
561.45	29776.30
561.61	30015.03
561.78	29706.08
561.94	29984.60
562.11	29989.28
562.27	30024.39
562.44	29483.73
562.60	29804.38
562.77	29766.93
562.93	29481.39
563.10	30221.00
563.26	29811.40
563.42	30473.78
563.59	29766.93
563.75	30033.75
563.92	30008.01
564.08	29722.46
564.24	29778.64
564.41	29914.39
564.57	29570.33
564.74	29940.13
564.90	30218.66
565.07	30024.39
565.23	30352.07
565.39	29687.36
565.56	30602.50
565.72	30125.04
565.88	30122.69
566.05	30148.44
566.21	29993.97
566.38	30071.20
566.54	30574.42
566.70	30272.49
566.87	30251.42
567.03	30197.59
567.19	30635.27
567.36	30419.94
567.52	30279.51
567.68	29958.86
567.85	30169.51
568.01	30064.18
568.17	29656.93
568.34	30401.22
568.50	30412.92
568.66	30518.25
568.83	30857.62
568.99	30228.02
569.15	30080.56
569.32	30338.02
569.48	30452.71
569.64	30766.34
569.81	30436.33
569.97	30668.04
570.13	30705.49
570.30	30611.87
570.46	30714.85
570.62	30352.07
570.78	30281.85
570.95	30279.51
571.11	30340.36
571.27	30085.25
571.43	30199.93
571.60	30616.55
571.76	30176.53
571.92	30466.75
572.09	30810.81
572.25	30703.15
572.41	30698.47
572.57	30419.94
572.74	30436.33
572.90	30473.78
573.06	30656.34
573.22	30824.86
573.38	30710.17
573.55	30459.73
573.71	30522.93
573.87	30799.11
574.03	30944.22
574.20	31108.06
574.36	30504.20
574.52	30679.74
574.68	30639.95
574.84	30836.56
575.01	30766.34
575.17	30611.87
575.33	30438.67
575.49	30572.08
575.65	30700.81
575.82	30766.34
575.98	30864.64
576.14	30852.94
576.30	30693.79
576.46	30443.35
576.62	30754.64
576.79	30588.46
576.95	30600.16
577.11	30829.54
577.27	30810.81
577.43	30558.03
577.59	30785.07
577.75	30913.80
577.92	30103.97
578.08	30536.97
578.24	30618.89
578.40	30817.83
578.56	30883.37
578.72	30958.27
578.88	31035.50
579.04	31222.75
579.21	30724.21
579.37	30913.80
579.53	30934.86
579.69	30712.51
579.85	30646.97
580.01	30450.37
580.17	31058.91
580.33	30658.68
580.49	30764.00
580.65	30918.48
580.82	31094.02
580.98	31061.25
581.14	31042.53
581.30	31264.88
581.46	30677.40
581.62	30581.44
581.78	30778.04
581.94	31000.40
582.10	30780.39
582.26	30658.68
582.42	30937.20
582.58	31166.57
582.74	30869.33
582.90	31042.53
583.06	30838.90
583.22	30930.18
583.38	30787.41
583.54	30689.10
583.70	30836.56
583.86	30890.39
584.02	31213.38
584.18	30686.76
584.34	31122.10
584.50	31150.19
584.66	30878.69
584.82	30852.94
584.98	30888.05
585.14	30984.01
585.30	30628.25
585.46	30939.54
585.62	31117.42
585.78	30824.86
585.94	30759.32
586.10	30998.06
586.26	30618.89
586.42	31098.70
586.58	30911.46
586.74	30567.40
586.90	30773.36
587.06	30787.41
587.22	30817.83
587.38	30848.26
587.54	31498.93
587.70	31159.55
587.86	31644.04
588.02	31297.64
588.18	31267.22
588.34	31276.58
588.49	30506.54
588.65	31030.82
588.81	30806.13
588.97	31049.55
589.13	30869.33
589.29	31353.82
589.45	31204.02
589.61	30916.14
589.77	31594.89
589.93	31384.24
590.08	31608.93
590.24	31611.28
590.40	31152.53
590.56	31234.45
590.72	31110.40
590.88	31023.80
591.04	31536.38
591.20	31505.95
591.35	31683.83
591.51	31157.21
591.67	31264.88
591.83	31555.10
591.99	31517.65
592.15	31475.52
592.31	31145.51
592.46	31150.19
592.62	31428.71
592.78	31213.38
592.94	31302.32
593.10	31281.26
593.26	31356.16
593.41	31349.14
593.57	31388.92
593.73	31496.59
593.89	31615.96
594.05	31412.33
594.20	31157.21
594.36	31681.49
594.52	31353.82
594.68	31508.29
594.84	31201.68
594.99	31517.65
595.15	31199.34
595.31	32034.91
595.47	31763.41
595.62	31456.80
595.78	31587.87
595.94	31594.89
596.10	31655.75
596.25	31271.90
596.41	31557.44
596.57	31173.60
596.73	31791.50
596.88	31068.27
597.04	31297.64
597.20	31967.04
597.36	31569.15
597.51	32034.91
597.67	31501.27
597.83	31639.36
597.99	31761.07
598.14	31281.26
598.30	31480.21
598.46	31564.46
598.61	31723.62
598.77	31344.45
598.93	31424.03
599.09	31466.16
599.24	32004.49
599.40	31866.39
599.56	31978.74
599.71	31456.80
599.87	31945.97
600.03	31545.74
600.18	31835.97
600.34	31770.43
600.50	31417.01
600.65	31772.77
600.81	31948.31
600.97	31845.33
601.12	31847.67
601.28	32025.55
601.44	31522.34
601.59	31503.61
601.75	31611.28
601.91	31594.89
602.06	31688.51
602.22	31796.18
602.37	31299.98
602.53	31784.48
602.69	32060.66
602.84	31711.92
603.00	31761.07
603.16	31723.62
603.31	31580.85
603.47	31744.69
603.62	31505.95
603.78	31519.99
603.94	31552.76
604.09	31515.31
604.25	31365.52
604.40	31412.33
604.56	31475.52
604.71	31995.12
604.87	31740.00
605.03	31566.81
605.18	31548.08
605.34	31482.55
605.49	31608.93
605.65	31421.69
605.80	31393.61
605.96	31379.56
606.12	31332.75
606.27	31400.63
606.43	31250.83
606.58	31683.83
606.74	31367.86
606.89	31758.73
607.05	31732.98
607.20	31941.29
607.36	31637.02
607.51	31276.58
607.67	31330.41
607.82	31262.54
607.98	31299.98
608.13	31424.03
608.29	31522.34
608.44	31489.57
608.60	31625.32
608.75	31718.94
608.91	31473.18
609.06	31491.91
609.22	31367.86
609.37	30941.88
609.53	31197.00
609.68	31161.89
609.84	31538.72
609.99	31138.49
610.15	31201.68
610.30	31178.28
610.46	31353.82
610.61	31239.13
610.76	31697.88
610.92	31534.04
611.07	31367.86
611.23	30813.15
611.38	31065.93
611.54	31075.29
611.69	30850.60
611.84	30948.90
612.00	30705.49
612.15	31105.72
612.31	31580.85
612.46	31353.82
612.62	31239.13
612.77	31002.74
612.92	31564.46
613.08	31459.14
613.23	31051.89
613.39	30878.69
613.54	30951.24
613.69	31157.21
613.85	31047.21
614.00	31400.63
614.15	30991.03
614.31	30902.09
614.46	30890.39
614.62	30918.48
614.77	31325.73
614.92	30808.47
615.08	30991.03
615.23	30923.16
615.38	30911.46
615.54	30848.26
615.69	30548.67
615.84	30986.35
616.00	31101.04
616.15	31033.16
616.30	30946.56
616.46	30764.00
616.61	30703.15
616.76	30939.54
616.92	30527.61
617.07	30855.28
617.22	30937.20
617.37	30691.44
617.53	31220.41
617.68	30834.22
617.83	30483.14
617.99	30609.53
618.14	30677.40
618.29	30506.54
618.45	30424.62
618.60	30616.55
618.75	30579.10
618.90	30450.37
619.06	31014.44
619.21	30778.04
619.36	30892.73
619.51	30642.29
619.67	30155.46
619.82	30230.36
619.97	30314.62
620.12	30288.87
620.28	30312.28
620.43	30579.10
620.58	30705.49
620.73	30635.27
620.89	30539.31
621.04	30892.73
621.19	30309.94
621.34	30188.23
621.49	30251.42
621.65	29916.73
621.80	30258.45
621.95	30017.37
622.10	30370.79
622.25	30125.04
622.41	30125.04
622.56	30139.08
622.71	30333.34
622.86	30541.65
623.01	30448.03
623.16	30457.39
623.32	30143.76
623.47	30075.88
623.62	29834.81
623.77	30061.84
623.92	30192.91
624.07	29879.28
624.23	29865.24
624.38	30050.14
624.53	29970.56
624.68	29998.65
624.83	30380.15
624.98	30366.11
625.13	29942.47
625.29	30178.87
625.44	30038.44
625.59	29495.43
625.74	29689.70
625.89	29783.32
626.04	29640.54
626.19	29811.40
626.34	29614.80
626.49	29717.78
626.65	29551.60
626.80	29905.02
626.95	29326.91
627.10	29797.36
627.25	29387.77
627.40	30033.75
627.55	29191.16
627.70	29722.46
627.85	29788.00
628.00	29841.83
628.15	29603.10
628.30	29097.54
628.45	29401.81
628.60	29380.74
628.76	29699.06
628.91	29331.59
629.06	29720.12
629.21	29448.62
629.36	29263.72
629.51	29436.92
629.66	29383.09
629.81	29146.69
629.96	29331.59
630.11	29095.20
630.26	29181.80
630.41	29347.98
630.56	28947.75
630.71	29261.38
630.86	29345.64
631.01	29153.71
631.16	29266.06
631.31	29214.57
631.46	29146.69
631.61	29308.19
631.76	29242.65
631.91	29380.74
632.06	28971.15
632.21	28814.34
632.36	29420.53
632.51	29050.73
632.66	28914.98
632.81	28910.30
632.96	28809.65
633.10	29244.99
633.25	29097.54
633.40	29104.56
633.55	29013.28
633.70	28493.68
633.85	28669.22
634.00	28591.98
634.15	28847.10
634.30	28489.00
634.45	28793.27
634.60	28837.74
634.75	28594.32
634.90	28737.10
635.05	29036.69
635.19	28893.91
635.34	28978.17
635.49	29067.11
635.64	28844.76
635.79	28573.26
635.94	28727.74
636.09	28634.11
636.24	28599.01
636.39	28390.70
636.53	28769.86
636.68	28486.66
636.83	28591.98
636.98	28224.52
637.13	28503.04
637.28	28299.42
637.43	28774.55
637.57	28858.81
637.72	28198.77
637.87	28250.27
638.02	28210.48
638.17	28142.60
638.32	28376.66
638.46	28463.25
638.61	27943.66
638.76	28231.54
638.91	28182.39
639.06	28201.11
639.20	28100.47
639.35	28245.58
639.50	28439.85
639.65	28676.24
639.80	28533.47
639.94	28346.23
640.09	28271.33
640.24	28273.67
640.39	28081.75
640.54	27915.57
640.68	27985.79
640.83	27974.08
640.98	27541.08
641.13	27938.97
641.27	28226.86
641.42	28093.45
641.57	28116.86
641.72	27831.31
641.86	28037.28
642.01	27922.59
642.16	28081.75
642.31	27681.52
642.45	28011.53
642.60	27615.98
642.75	27501.29
642.90	27292.99
643.04	27424.06
643.19	27580.87
643.34	27758.75
643.48	27828.97
643.63	27828.97
643.78	27674.49
643.93	27889.82
644.07	27583.21
644.22	27391.29
644.37	27564.49
644.51	27847.69
644.66	27576.19
644.81	27585.55
644.95	27623.00
645.10	27152.55
645.25	27428.74
645.39	27566.83
645.54	27353.84
645.69	27548.11
645.83	27559.81
645.98	27487.25
646.13	27793.86
646.27	27810.25
646.42	27529.38
646.57	27290.65
646.71	27391.29
646.86	27559.81
647.00	27662.79
647.15	27178.30
647.30	27112.77
647.44	27197.02
647.59	27168.94
647.74	27096.38
647.88	27250.86
648.03	27353.84
648.17	27796.20
648.32	27101.06
648.47	27618.32
648.61	27246.18
648.76	27297.67
648.90	27669.81
649.05	27054.25
649.20	26581.46
649.34	26850.63
649.49	26672.74
649.63	26984.04
649.78	27065.96
649.92	27197.02
650.07	27143.19
650.21	27145.53
650.36	26721.90
650.51	26775.73
650.65	26831.90
650.80	26726.58
650.94	26984.04
651.09	26726.58
651.23	26991.06
651.38	26731.26
651.52	26799.13
651.67	27133.83
651.81	26504.23
651.96	27138.51
652.10	27026.17
652.25	26993.40
652.39	26548.70
652.54	26764.03
652.68	26780.41
652.83	26871.69
652.97	27080.00
653.12	26881.05
653.26	26581.46
653.41	26785.09
653.55	26504.23
653.70	26579.12
653.84	27035.53
653.99	26590.83
654.13	26707.85
654.27	26387.20
654.42	26607.21
654.56	26504.23
654.71	26471.46
654.85	26623.59
655.00	26567.42
655.14	26410.60
655.29	26518.27
655.43	26216.34
655.57	26363.79
655.72	26214.00
655.86	26244.43
656.01	26551.04
656.15	26391.88
656.30	26485.50
656.44	26192.94
656.58	26267.83
656.73	26181.23
656.87	26244.43
657.01	26103.99
657.16	26843.60
657.30	26127.40
657.45	26209.32
657.59	26033.78
657.73	25935.48
657.88	25926.11
658.02	25668.66
658.16	25881.64
658.31	25876.96
658.45	26073.57
658.60	25717.81
658.74	25671.00
658.88	25919.09
659.03	25792.70
659.17	25710.78
659.31	25837.17
659.46	25865.26
659.60	25631.21
659.74	25687.38
659.89	25734.19
660.03	25612.48
660.17	25848.88
660.32	25422.90
660.46	25570.35
660.60	25123.31
660.74	25460.35
660.89	25460.35
661.03	25223.95
661.17	25303.53
661.32	25439.28
661.46	25371.41
661.60	25158.42
661.74	25479.07
661.89	25509.50
662.03	25221.61
662.17	25343.32
662.31	25504.82
662.46	25303.53
662.60	25092.88
662.74	25259.06
662.88	25099.90
663.03	24767.55
663.17	25256.72
663.31	24732.44
663.45	24840.11
663.60	24835.42
663.74	24725.42
663.88	24732.44
664.02	24837.76
664.17	25160.76
664.31	25020.33
664.45	24748.82
664.59	24896.28
664.73	24769.89
664.88	24584.99
665.02	24304.12
665.16	23939.00
665.30	24634.14
665.44	24353.27
665.59	24088.79
665.73	24130.92
665.87	24105.18
666.01	24297.10
666.15	24226.89
666.29	24439.87
666.44	24484.34
666.58	24198.80
666.72	24051.34
666.86	24137.94
667.00	24081.77
667.14	23875.80
667.28	24041.98
667.43	23667.50
667.57	23899.21
667.71	23777.50
667.85	23896.87
667.99	23791.55
668.13	23821.97
668.27	23733.03
668.41	23697.92
668.56	23335.14
668.70	23803.25
668.84	23971.77
668.98	23960.06
669.12	23653.45
669.26	23264.92
669.40	23646.43
669.54	23583.24
669.68	23342.16
669.82	23456.85
669.96	23213.43
670.10	23091.73
670.25	23445.15
670.39	23281.31
670.53	23051.94
670.67	22988.74
670.81	23398.34
670.95	23356.21
671.09	22965.34
671.23	23246.20
671.37	23119.81
671.51	22824.90
671.65	22970.02
671.79	22885.76
671.93	22958.31
672.07	22593.19
672.21	23248.54
672.35	22274.88
672.49	22654.05
672.63	22874.06
672.77	22586.17
672.91	22457.44
673.05	22349.78
673.19	22813.20
673.33	22520.63
673.47	22361.48
673.61	22396.59
673.75	22492.55
673.89	22415.31
674.03	22558.08
674.17	22218.71
674.31	22422.33
674.45	22059.55
674.59	22150.83
674.73	22366.16
674.87	22061.89
675.01	21734.21
675.15	21874.65
675.29	21834.86
675.43	21631.23
675.56	21675.70
675.70	21678.04
675.84	21661.66
675.98	21179.51
676.12	21886.35
676.26	21708.47
676.40	21605.49
676.54	21418.24
676.68	21633.57
676.82	21247.38
676.96	21163.12
677.10	21231.00
677.23	20938.43
677.37	21081.21
677.51	21071.84
677.65	21184.19
677.79	20608.42
677.93	20673.95
678.07	20505.43
678.21	20760.55
678.34	20802.68
678.48	20826.09
678.62	20594.37
678.76	20372.02
678.90	20327.55
679.04	20526.50
679.18	20491.39
679.31	20334.57
679.45	19910.94
679.59	20149.67
679.73	20109.88
679.87	19992.86
680.00	19929.66
680.14	19969.45
680.28	19744.76
680.42	19749.44
680.56	19995.20
680.70	19957.75
680.83	19726.04
680.97	19882.85
681.11	19693.27
681.25	19506.02
681.39	19405.38
681.52	19332.82
681.66	19342.19
681.80	18981.74
681.94	19264.95
682.07	19393.68
682.21	19152.60
682.35	19084.73
682.49	18967.70
682.62	19105.79
682.76	18728.97
682.90	18965.36
683.04	18494.91
683.17	18853.02
683.31	19138.56
683.45	18740.67
683.59	18867.06
683.72	18523.00
683.86	18380.23
684.00	18366.18
684.13	18160.22
684.27	18298.31
684.41	18148.51
684.55	17963.61
684.68	17987.02
684.82	18202.35
684.96	17972.97
685.09	17830.20
685.23	17759.98
685.37	17624.23
685.50	17837.22
685.64	17706.15
685.78	17769.35
685.91	17675.73
686.05	17715.51
686.19	17790.41
686.32	17635.94
686.46	17188.89
686.60	17219.32
686.73	17511.89
686.87	17294.22
687.01	17062.51
687.14	16746.53
687.28	16542.91
687.42	16781.64
687.55	16669.30
687.69	16868.24
687.82	16627.17
687.96	16877.60
688.10	16608.44
688.23	16947.82
688.37	16631.85
688.50	16575.67
688.64	16491.41
688.78	16666.95
688.91	16229.27
689.05	16269.06
689.18	16147.36
689.32	15915.64
689.46	15936.71
689.59	15873.51
689.73	15917.98
689.86	15850.11
690.00	15775.21
690.13	15882.88
690.27	15852.45
690.41	15920.32
690.54	15712.02
690.68	15587.97
690.81	15627.76
690.95	15527.11
691.08	15597.33
691.22	15655.84
691.35	15374.98
691.49	15831.38
691.62	15470.94
691.76	15192.42
691.89	15108.16
692.03	15269.66
692.16	15180.71
692.30	14853.04
692.43	14878.79
692.57	14857.72
692.70	14862.40
692.84	14815.59
692.97	14604.94
693.11	15033.26
693.24	14476.21
693.38	14621.33
693.51	14305.35
693.65	14553.45
693.78	14363.87
693.92	14583.88
694.05	14590.90
694.19	14263.22
694.32	14106.41
694.45	14101.73
694.59	13973.00
694.72	13806.82
694.86	13984.70
694.99	13516.59
695.13	13923.85
695.26	13626.60
695.39	13558.72
695.53	13951.93
695.66	13748.31
695.80	13593.83
695.93	13607.87
696.07	13645.32
696.20	13532.98
696.33	13488.51
696.47	13294.24
696.60	13383.18
696.73	13312.97
696.87	13413.61
697.00	13156.15
697.14	12992.31
697.27	12901.03
697.40	12739.54
697.54	12767.62
697.67	12528.89
697.80	12971.25
697.94	12666.98
698.07	12549.95
698.21	12631.87
698.34	12517.18
698.47	12652.94
698.61	12449.31
698.74	12578.04
698.87	12161.42
699.01	12175.47
699.14	12241.00
699.27	12159.08
699.40	12128.66
699.54	12229.30
699.67	12278.45
699.80	12084.19
699.94	11932.05
700.07	11793.96
700.20	11838.43
700.34	11683.95
700.47	11592.67
700.60	11709.70
700.73	11840.77
700.87	11693.32
701.00	11609.06
701.13	11669.91
701.26	11658.21
701.40	11627.78
701.53	11468.62
701.66	11625.44
701.79	11520.12
701.93	11403.09
702.06	11344.58
702.19	11154.99
702.32	11112.86
702.46	10977.11
702.59	10895.19
702.72	11101.16
702.85	10965.41
702.99	10874.13
703.12	10836.68
703.25	10813.28
703.38	10778.17
703.51	10703.27
703.65	10942.00
703.78	10553.48
703.91	10649.44
704.04	10595.61
704.17	10361.55
704.31	10621.35
704.44	10509.01
704.57	10487.94
704.70	10340.49
704.83	10195.37
704.96	10050.26
705.10	10022.17
705.23	10043.24
>>>>>End Processed Spectral Data<<<<<
