SpectraSuite Data File
++++++++++++++++++++++++++++++++++++
Date: Fri Oct 18 13:58:26 GMT-05:00 2013
User: bianchi
Dark Spectrum Present: No
Reference Spectrum Present: No
Number of Sampled Component Spectra: 1
Spectrometers: USB2+H05261
Integration Time (usec): 50000 (USB2+H05261)
Spectra Averaged: 1 (USB2+H05261)
Boxcar Smoothing: 0 (USB2+H05261)
Correct for Electrical Dark: No (USB2+H05261)
Strobe/Lamp Enabled: No (USB2+H05261)
Correct for Detector Non-linearity: No (USB2+H05261)
Correct for Stray Light: No (USB2+H05261)
Number of Pixels in Processed Spectrum: 2048
>>>>>Begin Processed Spectral Data<<<<<
365.73	0.00
365.92	0.00
366.12	0.00
366.32	0.00
366.52	0.00
366.72	0.00
366.91	0.00
367.11	0.00
367.31	0.00
367.51	0.00
367.70	0.00
367.90	0.00
368.10	0.00
368.30	0.00
368.49	0.00
368.69	0.00
368.89	0.00
369.09	0.00
369.28	0.00
369.48	0.00
369.68	0.00
369.87	0.00
370.07	0.00
370.27	0.00
370.47	0.00
370.66	114.69
370.86	53.83
371.06	140.43
371.25	11.70
371.45	100.64
371.65	159.16
371.84	138.09
372.04	114.69
372.24	236.39
372.44	196.60
372.63	229.37
372.83	168.52
373.03	168.52
373.22	255.12
373.42	180.22
373.62	194.26
373.81	236.39
374.01	231.71
374.21	203.63
374.40	217.67
374.60	238.73
374.79	220.01
374.99	250.44
375.19	234.05
375.38	259.80
375.58	212.99
375.78	229.37
375.97	255.12
376.17	273.84
376.37	224.69
376.56	248.10
376.76	269.16
376.95	264.48
377.15	287.89
377.35	255.12
377.54	248.10
377.74	203.63
377.93	135.75
378.13	301.93
378.33	351.08
378.52	290.23
378.72	290.23
378.91	269.16
379.11	255.12
379.31	355.76
379.50	273.84
379.70	332.36
379.89	367.46
380.09	313.63
380.28	262.14
380.48	222.35
380.68	220.01
380.87	269.16
381.07	227.03
381.26	341.72
381.46	351.08
381.65	315.97
381.85	318.31
382.04	332.36
382.24	278.52
382.43	397.89
382.63	351.08
382.83	369.80
383.02	292.57
383.22	355.76
383.41	306.61
383.61	411.93
383.80	379.17
384.00	353.42
384.19	411.93
384.39	388.53
384.58	355.76
384.78	418.96
384.97	442.36
385.17	337.04
385.36	386.19
385.56	390.87
385.75	383.85
385.95	423.64
386.14	393.21
386.34	358.10
386.53	477.47
386.72	456.40
386.92	414.27
387.11	433.00
387.31	376.83
387.50	376.83
387.70	369.80
387.89	456.40
388.09	362.78
388.28	421.30
388.48	442.36
388.67	379.17
388.86	458.74
389.06	411.93
389.25	505.56
389.45	430.66
389.64	409.59
389.84	454.06
390.03	521.94
390.22	477.47
390.42	491.51
390.61	468.11
390.81	458.74
391.00	472.79
391.19	482.15
391.39	524.28
391.58	507.90
391.78	573.43
391.97	545.34
392.16	528.96
392.36	587.47
392.55	554.71
392.75	493.85
392.94	561.73
393.13	557.05
393.33	566.41
393.52	582.79
393.71	638.97
393.91	533.64
394.10	608.54
394.29	552.37
394.49	535.98
394.68	554.71
394.88	645.99
395.07	580.45
395.26	634.29
395.46	655.35
395.65	650.67
395.84	535.98
396.04	699.82
396.23	713.86
396.42	655.35
396.62	638.97
396.81	636.63
397.00	662.37
397.19	706.84
397.39	709.18
397.58	662.37
397.77	690.46
397.97	683.44
398.16	629.60
398.35	653.01
398.55	671.73
398.74	770.04
398.93	760.67
399.12	748.97
399.32	751.31
399.51	739.61
399.70	809.83
399.90	800.46
400.09	774.72
400.28	748.97
400.47	720.88
400.67	833.23
400.86	793.44
401.05	751.31
401.24	802.80
401.44	795.78
401.63	798.12
401.82	793.44
402.01	784.08
402.21	779.40
402.40	830.89
402.59	767.70
402.78	835.57
402.97	868.34
403.17	851.96
403.36	779.40
403.55	889.40
403.74	922.17
403.93	814.51
404.13	917.49
404.32	812.17
404.51	880.04
404.70	875.36
404.89	992.39
405.09	978.34
405.28	938.55
405.47	922.17
405.66	1006.43
405.85	875.36
406.05	875.36
406.24	980.68
406.43	947.92
406.62	1050.90
406.81	1071.97
407.00	917.49
407.20	1011.11
407.39	1015.79
407.58	961.96
407.77	1004.09
407.96	1041.54
408.15	1142.18
408.34	1132.82
408.54	1109.41
408.73	1039.20
408.92	1076.65
409.11	1121.12
409.30	1137.50
409.49	1146.86
409.68	1135.16
409.87	1128.14
410.07	1139.84
410.26	1151.54
410.45	1188.99
410.64	1142.18
410.83	1270.91
411.02	1224.10
411.21	1196.01
411.40	1273.25
411.59	1273.25
411.78	1235.80
411.98	1163.25
412.17	1289.64
412.36	1301.34
412.55	1317.72
412.74	1294.32
412.93	1277.93
413.12	1406.66
413.31	1345.81
413.50	1364.53
413.69	1362.19
413.88	1481.56
414.07	1350.49
414.26	1411.34
414.45	1434.75
414.64	1511.99
414.83	1446.45
415.02	1390.28
415.22	1425.39
415.41	1605.61
415.60	1600.93
415.79	1500.28
415.98	1589.22
416.17	1589.22
416.36	1547.09
416.55	1516.67
416.74	1633.69
416.93	1535.39
417.12	1771.79
417.31	1767.10
417.50	1748.38
417.69	1706.25
417.88	1722.63
418.07	1741.36
418.26	1739.02
418.45	1788.17
418.64	1736.68
418.83	1762.42
419.02	1788.17
419.21	1802.21
419.39	1774.13
419.58	1746.04
419.77	1888.81
419.96	1926.26
420.15	1907.54
420.34	1867.75
420.53	1877.11
420.72	1902.86
420.91	1820.94
421.10	1902.86
421.29	1949.67
421.48	1830.30
421.67	1909.88
421.86	1956.69
422.05	1984.77
422.24	1923.92
422.43	1968.39
422.61	2017.54
422.80	1996.48
422.99	2029.24
423.18	1996.48
423.37	2010.52
423.56	2043.29
423.75	1970.73
423.94	1947.33
424.13	1994.14
424.32	1816.26
424.50	2050.31
424.69	2146.27
424.88	2005.84
425.07	2012.86
425.26	1989.46
425.45	2066.69
425.64	2097.12
425.83	2057.33
426.01	2092.44
426.20	2033.93
426.39	2045.63
426.58	2029.24
426.77	2090.10
426.96	2101.80
427.15	2026.90
427.33	2092.44
427.52	2015.20
427.71	2155.63
427.90	2106.48
428.09	2106.48
428.28	2127.55
428.46	2150.95
428.65	2169.68
428.84	2326.49
429.03	2193.08
429.22	2195.42
429.40	2193.08
429.59	2172.02
429.78	2150.95
429.97	2155.63
430.16	2134.57
430.34	2242.23
430.53	2335.85
430.72	2253.94
430.91	2237.55
431.10	2275.00
431.28	2347.56
431.47	2445.86
431.66	2303.09
431.85	2380.32
432.03	2347.56
432.22	2520.76
432.41	2338.20
432.60	2392.03
432.79	2420.11
432.97	2438.84
433.16	2385.01
433.35	2410.75
433.54	2569.91
433.72	2502.03
433.91	2424.80
434.10	2445.86
434.28	2471.61
434.47	2684.59
434.66	2590.97
434.85	2476.29
435.03	2523.10
435.22	2553.52
435.41	2567.57
435.59	2614.38
435.78	2551.18
435.97	2621.40
436.16	2764.17
436.34	2609.70
436.53	2677.57
436.72	2808.64
436.90	2530.12
437.09	2626.08
437.28	2693.96
437.46	2682.25
437.65	2663.53
437.84	2750.13
438.02	2696.30
438.21	2689.28
438.40	2782.90
438.58	2764.17
438.77	2935.03
438.96	2782.90
439.14	2848.43
439.33	2841.41
439.52	3012.27
439.70	2970.14
439.89	2974.82
440.08	2928.01
440.26	2977.16
440.45	2958.44
440.63	2944.39
440.82	3073.12
441.01	3138.66
441.19	3054.40
441.38	3201.85
441.57	3145.68
441.75	3052.06
441.94	3082.49
442.12	3265.05
442.31	3199.51
442.50	3255.69
442.68	3258.03
442.87	3351.65
443.05	3403.14
443.24	3445.27
443.43	3412.50
443.61	3220.58
443.80	3431.23
443.98	3321.22
444.17	3332.92
444.35	3356.33
444.54	3396.12
444.73	3414.84
444.91	3304.84
445.10	3351.65
445.28	3414.84
445.47	3396.12
445.65	3365.69
445.84	3501.44
446.02	3471.01
446.21	3407.82
446.39	3314.20
446.58	3618.47
446.77	3574.00
446.95	3316.54
447.14	3426.54
447.32	3496.76
447.51	3501.44
447.69	3435.91
447.88	3534.21
448.06	3536.55
448.25	3538.89
448.43	3391.44
448.62	3592.72
448.80	3480.38
448.99	3524.85
449.17	3550.59
449.36	3543.57
449.54	3641.87
449.73	3585.70
449.91	3639.53
450.10	3744.86
450.28	3695.71
450.46	3819.75
450.65	3712.09
450.83	3801.03
451.02	3616.13
451.20	3723.79
451.39	3772.94
451.57	3719.11
451.76	3634.85
451.94	3950.82
452.13	3789.33
452.31	3845.50
452.49	3700.39
452.68	3728.47
452.86	3915.72
453.05	3798.69
453.23	3840.82
453.42	3665.28
453.60	3852.52
453.78	4039.76
453.97	3913.38
454.15	3871.25
454.34	3906.35
454.52	4046.79
454.70	3901.67
454.89	3918.06
455.07	3899.33
455.26	3929.76
455.44	4131.05
455.62	3981.25
455.81	4021.04
455.99	4124.02
456.17	4222.33
456.36	4117.00
456.54	4098.28
456.73	4191.90
456.91	4369.78
457.09	4161.47
457.28	4447.02
457.46	4208.28
457.64	4273.82
457.83	4273.82
458.01	4283.18
458.19	4337.01
458.38	4367.44
458.56	4440.00
458.74	4416.59
458.93	4304.25
459.11	4376.80
459.29	4273.82
459.48	4388.50
459.66	4440.00
459.84	4451.70
460.03	4484.47
460.21	4379.14
460.39	4472.76
460.57	4458.72
460.76	4484.47
460.94	4667.03
461.12	4592.13
461.31	4690.43
461.49	4442.34
461.67	4510.21
461.85	4652.98
462.04	4526.60
462.22	4678.73
462.40	4702.14
462.59	4657.67
462.77	4667.03
462.95	4863.63
463.13	4723.20
463.32	4631.92
463.50	4816.82
463.68	4762.99
463.86	4788.74
464.05	4777.03
464.23	4812.14
464.41	4884.70
464.59	4795.76
464.78	4994.70
464.96	4793.42
465.14	4814.48
465.32	4908.10
465.50	5022.79
465.69	4936.19
465.87	4943.21
466.05	4842.57
466.23	4905.76
466.41	4896.40
466.60	5146.84
466.78	4931.51
466.96	4971.30
467.14	4961.94
467.32	5104.71
467.51	5057.90
467.69	4947.89
467.87	5062.58
468.05	5261.52
468.23	5046.20
468.41	5081.30
468.60	5172.58
468.78	5364.51
468.96	5114.07
469.14	5214.71
469.32	5238.12
469.50	5142.16
469.69	5455.79
469.87	5434.72
470.05	5338.76
470.23	5469.83
470.41	5528.35
470.59	5362.17
470.77	5423.02
470.95	5317.70
471.14	5558.77
471.32	5518.98
471.50	5607.92
471.68	5628.99
471.86	5544.73
472.04	5659.42
472.22	5617.29
472.40	5462.81
472.58	5664.10
472.77	5563.45
472.95	5818.57
473.13	6017.52
473.31	5872.40
473.49	5930.92
473.67	5863.04
473.85	5806.87
474.03	5867.72
474.21	6076.03
474.39	6071.35
474.57	5907.51
474.75	6141.57
474.93	6179.01
475.12	6139.23
475.30	6085.39
475.48	6174.33
475.66	6186.04
475.84	6225.82
476.02	6209.44
476.20	6277.32
476.38	6265.61
476.56	6609.67
476.74	6597.97
476.92	6434.13
477.10	6340.51
477.28	6553.50
477.46	6431.79
477.64	6635.42
477.82	6703.29
478.00	6944.37
478.18	6876.49
478.36	6888.20
478.54	6998.20
478.72	6988.84
478.90	6965.43
479.08	7026.29
479.26	7222.89
479.44	7323.54
479.62	7140.97
479.80	7187.79
479.98	7417.16
480.16	7379.71
480.34	7470.99
480.52	7616.10
480.70	7606.74
480.88	7611.42
481.06	7669.94
481.24	7602.06
481.41	7742.49
481.59	7796.32
481.77	8044.42
481.95	7906.33
482.13	7943.78
482.31	7953.14
482.49	8191.88
482.67	8011.65
482.85	8299.54
483.03	8585.08
483.21	8603.81
483.39	8592.11
483.57	8390.82
483.74	8580.40
483.92	8704.45
484.10	8819.14
484.28	8746.58
484.46	9128.09
484.64	8959.57
484.82	8931.48
485.00	9104.68
485.18	9170.22
485.35	9186.60
485.53	9282.56
485.71	9214.69
485.89	9612.58
486.07	9516.62
486.25	9469.81
486.43	9411.29
486.61	9818.55
486.78	9998.77
486.96	9996.43
487.14	9823.23
487.32	9982.38
487.50	10125.16
487.68	10289.00
487.85	10274.95
488.03	10083.03
488.21	10558.16
488.39	10408.36
488.57	10675.18
488.75	10499.64
488.92	10824.98
489.10	10810.93
489.28	10942.00
489.46	11108.18
489.64	10890.51
489.81	11012.22
489.99	11096.48
490.17	11103.50
490.35	11550.54
490.53	11403.09
490.70	11599.70
490.88	11428.84
491.06	11599.70
491.24	11492.03
491.41	11793.96
491.59	11955.46
491.77	11854.81
491.95	12140.36
492.13	12252.70
492.30	12128.66
492.48	12149.72
492.66	12411.86
492.84	12297.17
493.01	12395.48
493.19	12341.64
493.37	12512.50
493.54	12704.43
493.72	12947.84
493.90	12856.56
494.08	12849.54
494.25	13022.74
494.43	13191.26
494.61	13268.50
494.79	13198.28
494.96	13107.00
495.14	13179.56
495.32	13565.74
495.49	13385.52
495.67	13219.35
495.85	13507.23
496.02	13591.49
496.20	13745.97
496.38	13738.94
496.55	13853.63
496.73	14277.27
496.91	14281.95
497.09	14246.84
497.26	14310.04
497.44	14239.82
497.62	14303.01
497.79	14270.25
497.97	14352.16
498.14	14438.76
498.32	14389.61
498.50	14609.62
498.67	14743.03
498.85	14796.87
499.03	14883.47
499.20	14834.32
499.38	15206.46
499.56	15021.56
499.73	15007.52
499.91	15166.67
500.08	15300.08
500.26	15154.97
500.44	15225.18
500.61	15400.72
500.79	15470.94
500.97	15700.31
501.14	15960.11
501.32	15667.55
501.49	15695.63
501.67	15866.49
501.84	15728.40
502.02	15733.08
502.20	15751.81
502.37	15854.79
502.55	16187.14
502.72	16271.40
502.90	16032.67
503.07	16039.69
503.25	16252.68
503.43	15992.88
503.60	16472.69
503.78	16388.43
503.95	16201.19
504.13	16594.40
504.30	16545.25
504.48	16505.46
504.65	16596.74
504.83	16950.16
505.01	16875.26
505.18	17046.12
505.36	16858.88
505.53	16837.81
505.71	17078.89
505.88	16788.66
506.06	16709.08
506.23	17170.17
506.41	17078.89
506.58	17273.15
506.76	17139.74
506.93	17273.15
507.11	17214.64
507.28	17500.19
507.46	17397.20
507.63	17511.89
507.81	17685.09
507.98	17645.30
508.16	17390.18
508.33	17617.21
508.50	17881.69
508.68	17755.30
508.85	17905.10
509.03	17757.64
509.20	17909.78
509.38	18125.11
509.55	18279.58
509.73	18314.69
509.90	18192.98
510.08	18352.14
510.25	18422.36
510.42	18204.69
510.60	18607.26
510.77	18574.49
510.95	18511.30
511.12	18410.65
511.30	18515.98
511.47	18710.24
511.64	18827.27
511.82	18782.80
511.99	18682.16
512.17	18757.05
512.34	18747.69
512.51	18658.75
512.69	19208.78
512.86	19278.99
513.04	19206.44
513.21	19283.67
513.38	19583.26
513.56	19297.72
513.73	19325.80
513.90	19335.17
514.08	19227.50
514.25	19424.11
514.43	19501.34
514.60	19711.99
514.77	19674.54
514.95	19800.93
515.12	19716.67
515.29	19611.35
515.47	19690.93
515.64	19988.18
515.81	19960.09
515.99	19850.08
516.16	19941.36
516.33	20355.64
516.51	20042.01
516.68	20018.60
516.85	20084.14
517.03	20386.07
517.20	20346.28
517.37	20140.31
517.54	20554.58
517.72	20603.74
517.89	20451.60
518.06	20304.15
518.24	20477.35
518.41	20720.76
518.58	20833.11
518.75	20594.37
518.93	20769.91
519.10	20765.23
519.27	20798.00
519.45	20851.83
519.62	21046.10
519.79	20690.34
519.96	20748.85
520.14	20919.71
520.31	21071.84
520.48	21443.99
520.65	21001.63
520.83	21310.58
521.00	21207.59
521.17	21390.16
521.34	21184.19
521.52	21369.09
521.69	21680.38
521.86	21474.42
522.03	21359.73
522.20	21329.30
522.38	21633.57
522.55	21851.24
522.72	21825.50
522.89	21731.87
523.07	22115.72
523.24	21638.25
523.41	22040.82
523.58	21949.54
523.75	22101.68
523.92	21827.84
524.10	21970.61
524.27	21900.39
524.44	22249.13
524.61	22370.84
524.78	22272.54
524.96	22197.64
525.13	22459.78
525.30	22251.47
525.47	22438.72
525.64	22487.87
525.81	22883.42
525.98	22366.16
526.16	22672.77
526.33	22403.61
526.50	22651.70
526.67	22733.62
526.84	22368.50
527.01	22398.93
527.18	22705.54
527.36	22796.82
527.53	23089.38
527.70	23073.00
527.87	23051.94
528.04	22920.87
528.21	23140.88
528.38	22988.74
528.55	22871.72
528.72	23056.62
528.89	23391.31
529.07	23323.44
529.24	23452.17
529.41	23173.64
529.58	23253.22
529.75	23365.57
529.92	23363.23
530.09	22927.89
530.26	23393.65
530.43	23571.54
530.60	23669.84
530.77	23688.56
530.94	23730.69
531.11	23405.36
531.28	23318.76
531.46	23459.19
531.63	23733.03
531.80	23857.08
531.97	24233.91
532.14	23793.89
532.31	23810.27
532.48	23833.68
532.65	23828.99
532.82	23927.30
532.99	23660.48
533.16	24130.92
533.33	23962.40
533.50	24322.85
533.67	24500.73
533.84	24046.66
534.01	24121.56
534.18	24156.67
534.35	24514.77
534.52	24311.14
534.69	24318.17
534.86	24416.47
535.03	24449.24
535.20	24287.74
535.37	24423.49
535.54	24797.98
535.71	24318.17
535.88	24418.81
536.05	24425.83
536.22	24599.03
536.38	25186.50
536.55	24900.96
536.72	24430.51
536.89	25036.71
537.06	24886.92
537.23	24711.38
537.40	24570.94
537.57	24898.62
537.74	25008.62
537.91	25340.98
538.08	25102.25
538.25	25022.67
538.42	25048.41
538.59	25137.35
538.75	25142.03
538.92	24982.88
539.09	24847.13
539.26	25158.42
539.43	25757.60
539.60	25338.64
539.77	25383.11
539.94	25146.72
540.11	25378.43
540.28	25355.02
540.44	25413.54
540.61	25357.36
540.78	25474.39
540.95	25312.89
541.12	25355.02
541.29	25483.75
541.46	25600.78
541.62	25401.83
541.79	25689.72
541.96	25212.25
542.13	25326.94
542.30	25886.32
542.47	25516.52
542.63	25961.22
542.80	25820.79
542.97	26129.74
543.14	26258.47
543.31	26040.80
543.48	26054.84
543.64	26345.07
543.81	26096.97
543.98	26237.41
544.15	26225.70
544.32	26448.05
544.48	26637.64
544.65	26162.51
544.82	26019.74
544.99	26572.10
545.16	26078.25
545.32	26466.78
545.49	26675.09
545.66	26529.97
545.83	26733.60
546.00	26127.40
546.16	26649.34
546.33	26637.64
546.50	26080.59
546.67	26520.61
546.83	26665.72
547.00	26595.51
547.17	26691.47
547.34	26696.15
547.50	27016.80
547.67	27227.45
547.84	26803.82
548.00	26644.66
548.17	27012.12
548.34	26859.99
548.51	26878.71
548.67	27089.36
548.84	26998.08
549.01	26801.47
549.18	26766.37
549.34	26689.13
549.51	26820.20
549.68	26993.40
549.84	27042.55
550.01	27365.54
550.18	27019.14
550.34	27187.66
550.51	27250.86
550.68	27185.32
550.84	27016.80
551.01	27302.35
551.18	27316.39
551.34	27248.52
551.51	27264.90
551.68	27206.39
551.84	27529.38
552.01	27463.85
552.18	27784.50
552.34	27501.29
552.51	27672.15
552.68	27255.54
552.84	27164.26
553.01	27594.92
553.18	27295.33
553.34	27395.97
553.51	27559.81
553.67	27693.22
553.84	28271.33
554.01	27819.61
554.17	27503.64
554.34	28070.04
554.51	27391.29
554.67	27543.42
554.84	27648.75
555.00	28180.05
555.17	27814.93
555.33	27674.49
555.50	27784.50
555.67	27707.26
555.83	27590.24
556.00	27524.70
556.16	27924.93
556.33	28151.96
556.50	27953.02
556.66	28379.00
556.83	27960.04
556.99	28294.74
557.16	28304.10
557.32	28486.66
557.49	28362.61
557.65	27938.97
557.82	27793.86
557.98	27847.69
558.15	28196.43
558.32	28542.83
558.48	28610.71
558.65	28194.09
558.81	28311.12
558.98	28467.94
559.14	28645.82
559.31	28510.07
559.47	28268.99
559.64	28634.11
559.80	28226.86
559.97	28395.38
560.13	28496.02
560.30	28542.83
560.46	28498.36
560.63	28498.36
560.79	28673.90
560.96	28652.84
561.12	28505.38
561.29	28519.43
561.45	28395.38
561.61	28833.06
561.78	28379.00
561.94	28694.97
562.11	28484.32
562.27	28762.84
562.44	28489.00
562.60	28606.03
562.77	28465.60
562.93	28753.48
563.10	28720.71
563.26	29137.33
563.42	28833.06
563.59	28744.12
563.75	28566.24
563.92	28379.00
564.08	28933.70
564.24	28741.78
564.41	28479.64
564.57	28968.81
564.74	28718.37
564.90	28723.05
565.07	28652.84
565.23	28826.04
565.39	28929.02
565.56	29067.11
565.72	28804.97
565.88	29015.62
566.05	28774.55
566.21	28547.51
566.38	28889.23
566.54	28875.19
566.70	29235.63
566.87	29076.48
567.03	29252.02
567.19	29460.32
567.36	29043.71
567.52	29317.55
567.68	29432.24
567.85	28994.56
568.01	29193.50
568.17	28814.34
568.34	29158.39
568.50	28936.04
568.66	29003.92
568.83	29539.90
568.99	28837.74
569.15	29181.80
569.32	28786.25
569.48	29020.30
569.64	29113.92
569.81	29043.71
569.97	29179.46
570.13	29174.78
570.30	28870.51
570.46	29090.52
570.62	29137.33
570.78	28816.68
570.95	29027.32
571.11	28999.24
571.27	29102.22
571.43	28914.98
571.60	29455.64
571.76	29165.42
571.92	29041.37
572.09	29184.14
572.25	29184.14
572.41	29163.08
572.57	29387.77
572.74	29324.57
572.90	29511.81
573.06	29418.19
573.22	29518.84
573.38	29186.48
573.55	29404.15
573.71	29483.73
573.87	29738.85
574.03	29450.96
574.20	29596.07
574.36	29230.95
574.52	29029.66
574.68	29392.45
574.84	29659.27
575.01	29677.99
575.17	29635.86
575.33	29151.37
575.49	29198.18
575.65	29326.91
575.82	29532.88
575.98	29340.96
576.14	29415.85
576.30	29652.25
576.46	29249.67
576.62	29425.22
576.79	29434.58
576.95	28917.32
577.11	29528.20
577.27	29394.79
577.43	29614.80
577.59	29223.93
577.75	29322.23
577.92	29488.41
578.08	29626.50
578.24	29352.66
578.40	29509.47
578.56	29420.53
578.72	29586.71
578.88	29535.22
579.04	30155.46
579.21	29556.28
579.37	29652.25
579.53	29509.47
579.69	29193.50
579.85	29500.11
580.01	29806.72
580.17	29156.05
580.33	29912.05
580.49	29200.52
580.65	29603.10
580.82	29759.91
580.98	29483.73
581.14	29390.11
581.30	29734.17
581.46	29827.79
581.62	29619.48
581.78	29153.71
581.94	29619.48
582.10	29118.60
582.26	29720.12
582.42	29397.13
582.58	29717.78
582.74	29495.43
582.90	29734.17
583.06	29600.76
583.22	29504.79
583.38	29771.61
583.54	29434.58
583.70	29450.96
583.86	30017.37
584.02	29549.26
584.18	29762.25
584.34	29998.65
584.50	29928.43
584.66	29446.28
584.82	29518.84
584.98	29469.69
585.14	29537.56
585.30	29460.32
585.46	29273.08
585.62	29605.44
585.78	29373.72
585.94	29371.38
586.10	29680.33
586.26	29813.74
586.42	29809.06
586.58	29862.90
586.74	29790.34
586.90	29411.17
587.06	29371.38
587.22	29476.71
587.38	29308.19
587.54	29635.86
587.70	29979.92
587.86	29848.85
588.02	29764.59
588.18	29909.71
588.34	29816.08
588.49	29930.77
588.65	29682.67
588.81	30010.35
588.97	29762.25
589.13	29788.00
589.29	29570.33
589.45	29647.57
589.61	29809.06
589.77	30033.75
589.93	30363.77
590.08	30012.69
590.24	30155.46
590.40	30045.46
590.56	29912.05
590.72	29619.48
590.88	29858.21
591.04	29701.40
591.20	29883.96
591.35	30045.46
591.51	30249.08
591.67	30134.40
591.83	30511.22
591.99	30298.23
592.15	29954.18
592.31	29879.28
592.46	29724.80
592.62	29720.12
592.78	29640.54
592.94	29837.15
593.10	30150.78
593.26	30242.06
593.41	30466.75
593.57	30052.48
593.73	29869.92
593.89	29972.90
594.05	30251.42
594.20	29851.19
594.36	30223.34
594.52	29968.22
594.68	30005.67
594.84	29811.40
594.99	30277.17
595.15	30216.32
595.31	30597.82
595.47	30211.64
595.62	30265.47
595.78	30141.42
595.94	30122.69
596.10	30223.34
596.25	30094.61
596.41	29867.58
596.57	30005.67
596.73	30291.21
596.88	30050.14
597.04	29914.39
597.20	30029.07
597.36	29900.34
597.51	29841.83
597.67	30190.57
597.83	30480.80
597.99	30237.38
598.14	30066.52
598.30	30192.91
598.46	30204.61
598.61	29888.64
598.77	29972.90
598.93	30403.56
599.09	30363.77
599.24	30391.86
599.40	30061.84
599.56	30218.66
599.71	30251.42
599.87	30560.37
600.03	30419.94
600.18	30333.34
600.34	30235.04
600.50	30272.49
600.65	30321.64
600.81	30431.65
600.97	30419.94
601.12	30113.33
601.28	30403.56
601.44	30370.79
601.59	30291.21
601.75	30239.72
601.91	30146.10
602.06	30103.97
602.22	30003.33
602.37	29935.45
602.53	30300.58
602.69	30490.16
602.84	30092.27
603.00	30221.00
603.16	30136.74
603.31	30300.58
603.47	30246.74
603.62	30143.76
603.78	30066.52
603.94	29916.73
604.09	30167.16
604.25	30155.46
604.40	30389.52
604.56	30228.02
604.71	30174.19
604.87	30260.79
605.03	30368.45
605.18	30522.93
605.34	30162.48
605.49	29933.11
605.65	30136.74
605.80	29989.28
605.96	29879.28
606.12	29652.25
606.27	29872.26
606.43	29790.34
606.58	30213.98
606.74	29862.90
606.89	30171.85
607.05	30141.42
607.20	29912.05
607.36	30038.44
607.51	30164.82
607.67	29984.60
607.82	29958.86
607.98	30237.38
608.13	30368.45
608.29	29785.66
608.44	29626.50
608.60	29970.56
608.75	30176.53
608.91	30174.19
609.06	29982.26
609.22	30176.53
609.37	29902.68
609.53	29825.45
609.68	29933.11
609.84	29883.96
609.99	30059.50
610.15	29741.19
610.30	30000.99
610.46	29750.55
610.61	29883.96
610.76	29766.93
610.92	29699.06
611.07	30148.44
611.23	30391.86
611.38	29626.50
611.54	29600.76
611.69	29645.23
611.84	29324.57
612.00	29879.28
612.15	29848.85
612.31	29951.84
612.46	29572.67
612.62	29940.13
612.77	29706.08
612.92	29921.41
613.08	29495.43
613.23	29479.05
613.39	29249.67
613.54	29600.76
613.69	29663.95
613.85	29329.25
614.00	29930.77
614.15	29919.07
614.31	29649.91
614.46	29883.96
614.62	29738.85
614.77	29457.98
614.92	29677.99
615.08	29465.00
615.23	29766.93
615.38	29521.18
615.54	29170.10
615.69	29223.93
615.84	29319.89
616.00	29497.77
616.15	29355.00
616.30	29874.60
616.46	29766.93
616.61	29572.67
616.76	29450.96
616.92	29722.46
617.07	29612.46
617.22	29259.04
617.37	29067.11
617.53	29017.96
617.68	29284.78
617.83	29532.88
617.99	29338.62
618.14	29116.26
618.29	28912.64
618.45	29214.57
618.60	29113.92
618.75	28933.70
618.90	29273.08
619.06	29319.89
619.21	29347.98
619.36	29167.76
619.51	29142.01
619.67	29043.71
619.82	28929.02
619.97	28996.90
620.12	28826.04
620.28	28783.91
620.43	29156.05
620.58	28800.29
620.73	29214.57
620.89	29118.60
621.04	28971.15
621.19	29390.11
621.34	29015.62
621.49	28755.82
621.65	29001.58
621.80	29130.31
621.95	28856.46
622.10	28842.42
622.25	28879.87
622.41	28613.05
622.56	28821.36
622.71	28936.04
622.86	28652.84
623.01	28783.91
623.16	28744.12
623.32	29024.98
623.47	28517.09
623.62	28734.76
623.77	28680.92
623.92	28886.89
624.07	28889.23
624.23	28840.08
624.38	28779.23
624.53	28657.52
624.68	28781.57
624.83	28491.34
624.98	28608.37
625.13	28477.30
625.29	28540.49
625.44	28830.72
625.59	28547.51
625.74	28402.40
625.89	28402.40
626.04	28294.74
626.19	28334.53
626.34	28130.90
626.49	28151.96
626.65	28041.96
626.80	28676.24
626.95	28245.58
627.10	28374.31
627.25	28149.62
627.40	28238.56
627.55	28091.11
627.70	28034.94
627.85	27969.40
628.00	28369.63
628.15	28283.03
628.30	28266.65
628.45	27740.03
628.60	27803.22
628.76	28198.77
628.91	27803.22
629.06	27997.49
629.21	28486.66
629.36	28194.09
629.51	28013.87
629.66	28189.41
629.81	27740.03
629.96	27908.55
630.11	27681.52
630.26	27828.97
630.41	27721.30
630.56	27716.62
630.71	27847.69
630.86	27611.30
631.01	28011.53
631.16	27665.13
631.31	27740.03
631.46	27576.19
631.61	27634.71
631.76	27454.48
631.91	27857.06
632.06	27646.41
632.21	27407.67
632.36	27267.24
632.51	27772.80
632.66	27749.39
632.81	27665.13
632.96	27391.29
633.10	27777.48
633.25	27700.24
633.40	27812.59
633.55	27950.68
633.70	27278.94
633.85	27421.72
634.00	27587.89
634.15	27477.89
634.30	27133.83
634.45	27360.86
634.60	27431.08
634.75	27566.83
634.90	27508.32
635.05	27737.69
635.19	27496.61
635.34	28002.17
635.49	27775.14
635.64	27798.54
635.79	27508.32
635.94	27297.67
636.09	27274.26
636.24	26993.40
636.39	27136.17
636.53	27344.48
636.68	27204.05
636.83	27080.00
636.98	27278.94
637.13	27023.83
637.28	27096.38
637.43	26967.65
637.57	27220.43
637.72	27227.45
637.87	27269.58
638.02	27267.24
638.17	27192.34
638.32	27159.58
638.46	27250.86
638.61	26799.13
638.76	26693.81
638.91	26787.43
639.06	26848.29
639.20	26871.69
639.35	26930.20
639.50	26918.50
639.65	27103.40
639.80	26822.54
639.94	26958.29
640.09	26923.18
640.24	27089.36
640.39	26293.58
640.54	26569.76
640.68	26387.20
640.83	26721.90
640.98	26539.33
641.13	26349.75
641.27	26766.37
641.42	26576.78
641.57	26637.64
641.72	26820.20
641.86	26483.16
642.01	26216.34
642.16	26473.80
642.31	26328.69
642.45	26438.69
642.60	26101.65
642.75	26366.13
642.90	26043.14
643.04	26249.11
643.19	26328.69
643.34	26305.28
643.48	26206.98
643.63	26148.46
643.78	26398.90
643.93	26541.68
644.07	26574.44
644.22	26632.96
644.37	26387.20
644.51	26525.29
644.66	26155.49
644.81	26094.63
644.95	26183.57
645.10	26333.37
645.25	26153.15
645.39	26298.26
645.54	26178.89
645.69	26181.23
645.83	26340.39
645.98	26216.34
646.13	26370.82
646.27	26307.62
646.42	26363.79
646.57	26150.81
646.71	26167.19
646.86	26087.61
647.00	26066.55
647.15	25736.53
647.30	25879.30
647.44	25879.30
647.59	25876.96
647.74	25689.72
647.88	25825.47
648.03	25862.92
648.17	26277.19
648.32	26157.83
648.47	25706.10
648.61	25804.41
648.76	25935.48
648.90	25926.11
649.05	26171.87
649.20	25720.15
649.34	25544.61
649.49	25612.48
649.63	25240.34
649.78	25383.11
649.92	25345.66
650.07	25832.49
650.21	25631.21
650.36	25722.49
650.51	25750.57
650.65	25809.09
650.80	25692.06
650.94	25752.91
651.09	25399.49
651.23	25579.71
651.38	25275.45
651.52	25542.27
651.67	25362.04
651.81	25425.24
651.96	25441.62
652.10	25357.36
652.25	25118.63
652.39	25560.99
652.54	25652.27
652.68	25495.46
652.83	25563.33
652.97	25781.00
653.12	25179.48
653.26	25230.98
653.41	25259.06
653.55	25385.45
653.70	24985.22
653.84	25476.73
653.99	25118.63
654.13	25472.05
654.27	24929.05
654.42	25205.23
654.56	25329.28
654.71	25532.90
654.85	25160.76
655.00	25102.25
655.14	25118.63
655.29	25186.50
655.43	25132.67
655.57	25085.86
655.72	24968.84
655.86	25387.79
656.01	24730.10
656.15	24886.92
656.30	24692.65
656.44	25025.01
656.58	24842.45
656.73	24992.24
656.87	25062.46
657.01	24891.60
657.16	25013.31
657.30	25282.47
657.45	24748.82
657.59	25226.29
657.73	24592.01
657.88	24961.81
658.02	24517.11
658.16	24737.12
658.31	24446.90
658.45	24755.85
658.60	24280.72
658.74	24479.66
658.88	24421.15
659.03	24699.67
659.17	24493.71
659.31	24613.07
659.46	24350.93
659.60	24702.01
659.74	24786.27
659.89	24205.82
660.03	24521.79
660.17	24460.94
660.32	23950.70
660.46	24123.90
660.60	23810.27
660.74	24032.62
660.89	23934.32
661.03	24133.26
661.17	24161.35
661.32	24175.39
661.46	23985.81
661.60	24114.54
661.74	24210.50
661.89	23917.93
662.03	23964.75
662.17	24180.07
662.31	23658.14
662.46	24004.53
662.60	23831.33
662.74	23857.08
662.88	23517.70
663.03	23520.04
663.17	23606.64
663.31	23667.50
663.45	23789.20
663.60	23470.89
663.74	23309.40
663.88	23758.78
664.02	23412.38
664.17	23868.78
664.31	23269.61
664.45	23688.56
664.59	23658.14
664.73	23323.44
664.88	23356.21
665.02	23183.01
665.16	23166.62
665.30	23201.73
665.44	23400.68
665.59	23190.03
665.73	23269.61
665.87	22977.04
666.01	23171.30
666.15	23367.91
666.29	23124.49
666.44	23218.11
666.58	22955.97
666.72	23075.34
666.86	23009.81
667.00	23222.80
667.14	22923.21
667.28	22843.63
667.43	22705.54
667.57	22717.24
667.71	23033.21
667.85	22635.32
667.99	22590.85
668.13	22735.96
668.27	22476.16
668.41	22728.94
668.56	22415.31
668.70	22782.77
668.84	22588.51
668.98	22328.71
669.12	22532.34
669.26	22291.26
669.40	22649.36
669.54	22429.35
669.68	22506.59
669.82	22097.00
669.96	22101.68
670.10	21811.45
670.25	21839.54
670.39	22061.89
670.53	22073.59
670.67	21895.71
670.81	21982.31
670.95	21804.43
671.09	22260.84
671.23	21724.85
671.37	22249.13
671.51	21982.31
671.65	21942.52
671.79	21834.86
671.93	21858.26
672.07	21759.96
672.21	21460.37
672.35	21254.40
672.49	21610.17
672.63	21355.05
672.77	21366.75
672.91	21422.92
673.05	21692.08
673.19	21546.97
673.33	21303.56
673.47	21537.61
673.61	21317.60
673.75	21102.27
673.89	21214.62
674.03	21453.35
674.17	20905.66
674.31	21289.51
674.45	21116.31
674.59	20809.70
674.73	21345.69
674.87	21195.89
675.01	20875.24
675.15	20559.27
675.29	20477.35
675.43	20744.17
675.56	20226.91
675.70	20374.36
675.84	20765.23
675.98	20152.01
676.12	20570.97
676.26	20954.82
676.40	20655.23
676.54	20318.19
676.68	20709.06
676.82	19751.78
676.96	20325.21
677.10	20011.58
677.23	20098.18
677.37	19967.11
677.51	19501.34
677.65	20142.65
677.79	19690.93
677.93	19417.08
678.07	19541.13
678.21	19473.26
678.34	19854.76
678.48	19318.78
678.62	19564.54
678.76	19328.14
678.90	19601.99
679.04	19213.46
679.18	19335.17
679.31	19122.18
679.45	19117.50
679.59	19129.20
679.73	19054.30
679.87	18705.56
680.00	18810.89
680.14	18633.00
680.28	18689.18
680.42	19002.81
680.56	18801.52
680.70	18724.29
680.83	18738.33
680.97	18579.17
681.11	18611.94
681.25	18665.77
681.39	18377.89
681.52	18314.69
681.66	18317.03
681.80	18019.78
681.94	18200.01
682.07	18300.65
682.21	17905.10
682.35	18008.08
682.49	17804.46
682.62	17582.10
682.76	17905.10
682.90	17912.12
683.04	17701.47
683.17	17951.91
683.31	17764.67
683.45	17563.38
683.59	17696.79
683.72	17820.84
683.86	17619.55
684.00	17575.08
684.13	17399.54
684.27	17497.84
684.41	17123.36
684.55	17039.10
684.68	17174.85
684.82	17099.95
684.96	16807.39
685.09	16856.54
685.23	16819.09
685.37	16709.08
685.50	17104.64
685.64	17083.57
685.78	16645.89
685.91	16795.68
686.05	16594.40
686.19	16641.21
686.32	16725.47
686.46	16236.30
686.60	16159.06
686.73	16161.40
686.87	16030.33
687.01	16203.53
687.14	16053.73
687.28	16137.99
687.42	15730.74
687.55	15983.52
687.69	16163.74
687.82	15742.44
687.96	16018.63
688.10	15929.69
688.23	16102.89
688.37	15786.91
688.50	15686.27
688.64	15517.75
688.78	15824.36
688.91	15751.81
689.05	15534.14
689.18	15576.27
689.32	15026.24
689.46	15262.63
689.59	15344.55
689.73	15061.35
689.86	14918.57
690.00	15257.95
690.13	15103.48
690.27	14932.62
690.41	14892.83
690.54	14836.66
690.68	14731.33
690.81	14977.09
690.95	15026.24
691.08	14773.46
691.22	14773.46
691.35	14738.35
691.49	14855.38
691.62	14626.01
691.76	14492.60
691.89	14286.63
692.03	14438.76
692.16	14249.18
692.30	14164.92
692.43	14303.01
692.57	14120.45
692.70	14071.30
692.84	14164.92
692.97	13933.21
693.11	13884.06
693.24	13865.33
693.38	13741.29
693.51	13745.97
693.65	13696.82
693.78	13650.00
693.92	13469.78
694.05	13460.42
694.19	13413.61
694.32	13327.01
694.45	13392.55
694.59	13305.95
694.72	13242.75
694.86	13057.85
694.99	13123.38
695.13	13085.94
695.26	12973.59
695.39	13032.10
695.53	12945.50
695.66	13144.45
695.80	12842.52
695.93	12662.30
696.07	13001.68
696.20	12891.67
696.33	12835.50
696.47	12746.56
696.60	12538.25
696.73	12475.06
696.87	12278.45
697.00	12510.16
697.14	12383.77
697.27	11948.43
697.40	12116.95
697.54	12238.66
697.67	12215.26
697.80	12025.67
697.94	12018.65
698.07	11754.17
698.21	11985.88
698.34	12023.33
698.47	11946.09
698.61	11775.24
698.74	11910.99
698.87	11908.65
699.01	11630.12
699.14	11672.25
699.27	11733.11
699.40	11590.33
699.54	11705.02
699.67	11679.27
699.80	11342.24
699.94	11365.64
700.07	11398.41
700.20	11164.36
700.34	11183.08
700.47	11112.86
700.60	11080.10
700.73	11094.14
700.87	11049.67
701.00	10853.06
701.13	11077.76
701.26	11117.54
701.40	11021.58
701.53	10853.06
701.66	10909.24
701.79	10619.01
701.93	10635.39
702.06	10794.55
702.19	10478.58
702.32	10469.22
702.46	10230.48
702.59	10230.48
702.72	10363.89
702.85	10307.72
702.99	10153.24
703.12	10127.50
703.25	10008.13
703.38	10036.22
703.51	10171.97
703.65	10410.70
703.78	10162.61
703.91	9998.77
704.04	10050.26
704.17	9715.56
704.31	9905.15
704.44	9837.27
704.57	9870.04
704.70	9530.66
704.83	9743.65
704.96	9561.09
705.10	9511.94
705.23	9575.13
>>>>>End Processed Spectral Data<<<<<
