SpectraSuite Data File
++++++++++++++++++++++++++++++++++++
Date: Fri Oct 18 13:58:29 GMT-05:00 2013
User: bianchi
Dark Spectrum Present: No
Reference Spectrum Present: No
Number of Sampled Component Spectra: 1
Spectrometers: USB2+H05261
Integration Time (usec): 50000 (USB2+H05261)
Spectra Averaged: 1 (USB2+H05261)
Boxcar Smoothing: 0 (USB2+H05261)
Correct for Electrical Dark: No (USB2+H05261)
Strobe/Lamp Enabled: No (USB2+H05261)
Correct for Detector Non-linearity: No (USB2+H05261)
Correct for Stray Light: No (USB2+H05261)
Number of Pixels in Processed Spectrum: 2048
>>>>>Begin Processed Spectral Data<<<<<
365.73	0.00
365.92	0.00
366.12	0.00
366.32	0.00
366.52	0.00
366.72	0.00
366.91	0.00
367.11	0.00
367.31	0.00
367.51	0.00
367.70	0.00
367.90	0.00
368.10	0.00
368.30	0.00
368.49	0.00
368.69	0.00
368.89	0.00
369.09	0.00
369.28	0.00
369.48	0.00
369.68	0.00
369.87	0.00
370.07	0.00
370.27	0.00
370.47	0.00
370.66	145.11
370.86	67.88
371.06	119.37
371.25	142.77
371.45	102.98
371.65	159.16
371.84	152.13
372.04	72.56
372.24	168.52
372.44	187.24
372.63	222.35
372.83	227.03
373.03	114.69
373.22	147.45
373.42	194.26
373.62	224.69
373.81	177.88
374.01	168.52
374.21	227.03
374.40	198.95
374.60	294.91
374.79	161.50
374.99	212.99
375.19	234.05
375.38	259.80
375.58	212.99
375.78	285.55
375.97	313.63
376.17	262.14
376.37	290.23
376.56	243.42
376.76	238.73
376.95	280.86
377.15	341.72
377.35	271.50
377.54	285.55
377.74	227.03
377.93	273.84
378.13	245.76
378.33	201.29
378.52	259.80
378.72	297.25
378.91	252.78
379.11	299.59
379.31	311.29
379.50	259.80
379.70	320.65
379.89	308.95
380.09	238.73
380.28	308.95
380.48	311.29
380.68	308.95
380.87	285.55
381.07	325.33
381.26	330.02
381.46	278.52
381.65	306.61
381.85	301.93
382.04	344.06
382.24	294.91
382.43	304.27
382.63	318.31
382.83	337.04
383.02	332.36
383.22	294.91
383.41	280.86
383.61	332.36
383.80	351.08
384.00	318.31
384.19	388.53
384.39	351.08
384.58	330.02
384.78	475.13
384.97	367.46
385.17	461.09
385.36	388.53
385.56	325.33
385.75	409.59
385.95	374.49
386.14	428.32
386.34	301.93
386.53	463.43
386.72	369.80
386.92	442.36
387.11	428.32
387.31	388.53
387.50	353.42
387.70	367.46
387.89	489.17
388.09	360.44
388.28	500.87
388.48	407.25
388.67	430.66
388.86	407.25
389.06	423.64
389.25	512.58
389.45	425.98
389.64	449.38
389.84	451.72
390.03	414.27
390.22	486.83
390.42	444.70
390.61	538.32
390.81	428.32
391.00	475.13
391.19	517.26
391.39	447.04
391.58	498.53
391.78	521.94
391.97	531.30
392.16	545.34
392.36	596.84
392.55	582.79
392.75	571.09
392.94	461.09
393.13	550.03
393.33	514.92
393.52	512.58
393.71	559.39
393.91	557.05
394.10	580.45
394.29	517.26
394.49	535.98
394.68	634.29
394.88	510.24
395.07	603.86
395.26	596.84
395.46	547.69
395.65	620.24
395.84	535.98
396.04	613.22
396.23	526.62
396.42	601.52
396.62	545.34
396.81	610.88
397.00	685.78
397.19	683.44
397.39	634.29
397.58	610.88
397.77	662.37
397.97	671.73
398.16	601.52
398.35	643.65
398.55	657.69
398.74	699.82
398.93	727.91
399.12	606.20
399.32	664.71
399.51	669.39
399.70	751.31
399.90	716.20
400.09	725.57
400.28	765.36
400.47	709.18
400.67	779.40
400.86	699.82
401.05	823.87
401.24	800.46
401.44	830.89
401.63	837.91
401.82	910.47
402.01	795.78
402.21	786.42
402.40	809.83
402.59	748.97
402.78	826.21
402.97	793.44
403.17	795.78
403.36	807.48
403.55	826.21
403.74	905.79
403.93	891.74
404.13	847.27
404.32	896.43
404.51	875.36
404.70	947.92
404.89	858.98
405.09	938.55
405.28	915.15
405.47	968.98
405.66	985.37
405.85	987.71
406.05	980.68
406.24	940.90
406.43	947.92
406.62	999.41
406.81	1128.14
407.00	1006.43
407.20	1008.77
407.39	1015.79
407.58	1018.13
407.77	1078.99
407.96	1088.35
408.15	1064.94
408.34	1027.50
408.54	1022.81
408.73	922.17
408.92	1086.01
409.11	1158.57
409.30	1135.16
409.49	1090.69
409.68	1064.94
409.87	1219.42
410.07	1226.44
410.26	1151.54
410.45	1205.38
410.64	1151.54
410.83	1226.44
411.02	1254.53
411.21	1231.12
411.40	1207.72
411.59	1275.59
411.78	1289.64
411.98	1200.69
412.17	1310.70
412.36	1233.46
412.55	1376.24
412.74	1324.74
412.93	1268.57
413.12	1240.48
413.31	1430.07
413.50	1341.13
413.69	1280.27
413.88	1406.66
414.07	1366.87
414.26	1460.49
414.45	1528.37
414.64	1533.05
414.83	1589.22
415.02	1434.75
415.22	1490.92
415.41	1544.75
415.60	1533.05
415.79	1544.75
415.98	1624.33
416.17	1605.61
416.36	1540.07
416.55	1537.73
416.74	1568.16
416.93	1661.78
417.12	1671.14
417.31	1638.38
417.50	1736.68
417.69	1830.30
417.88	1778.81
418.07	1694.55
418.26	1708.59
418.45	1692.21
418.64	1764.76
418.83	1753.06
419.02	1724.97
419.21	1856.04
419.39	1823.28
419.58	1809.23
419.77	1795.19
419.96	1753.06
420.15	1872.43
420.34	1823.28
420.53	1823.28
420.72	1837.32
420.91	1867.75
421.10	1902.86
421.29	2083.08
421.48	1956.69
421.67	1975.41
421.86	1942.64
422.05	2099.46
422.24	2052.65
422.43	1963.71
422.61	1991.80
422.80	2019.88
422.99	1959.03
423.18	2010.52
423.37	2047.97
423.56	1982.43
423.75	2022.22
423.94	1991.80
424.13	1818.60
424.32	1937.96
424.50	1900.52
424.69	2125.21
424.88	2047.97
425.07	2062.01
425.26	2031.58
425.45	2019.88
425.64	2017.54
425.83	2087.76
426.01	2111.16
426.20	2029.24
426.39	2169.68
426.58	2054.99
426.77	2071.37
426.96	2132.23
427.15	2073.71
427.33	2186.06
427.52	2066.69
427.71	2134.57
427.90	2071.37
428.09	2165.00
428.28	2132.23
428.46	2186.06
428.65	2214.15
428.84	2275.00
429.03	2190.74
429.22	2211.81
429.40	2251.60
429.59	2190.74
429.78	2225.85
429.97	2097.12
430.16	2195.42
430.34	2244.57
430.53	2225.85
430.72	2300.75
430.91	2321.81
431.10	2321.81
431.28	2361.60
431.47	2347.56
431.66	2366.28
431.85	2275.00
432.03	2480.97
432.22	2377.98
432.41	2373.30
432.60	2413.09
432.79	2321.81
432.97	2471.61
433.16	2413.09
433.35	2478.63
433.54	2401.39
433.72	2387.35
433.91	2466.92
434.10	2490.33
434.28	2516.08
434.47	2466.92
434.66	2497.35
434.85	2590.97
435.03	2534.80
435.22	2497.35
435.41	2576.93
435.59	2562.89
435.78	2703.32
435.97	2661.19
436.16	2670.55
436.34	2495.01
436.53	2642.46
436.72	2640.12
436.90	2686.94
437.09	2733.75
437.28	2670.55
437.46	2696.30
437.65	2684.59
437.84	2682.25
438.02	2771.19
438.21	2888.22
438.40	2654.17
438.58	2815.66
438.77	2841.41
438.96	2923.33
439.14	3009.93
439.33	2939.71
439.52	2946.73
439.70	2991.20
439.89	2909.29
440.08	3105.89
440.26	3082.49
440.45	3054.40
440.63	2883.54
440.82	3068.44
441.01	2970.14
441.19	3141.00
441.38	3129.30
441.57	3232.28
441.75	3176.11
441.94	3328.24
442.12	3283.77
442.31	3258.03
442.50	3325.90
442.68	3260.37
442.87	3321.22
443.05	3267.39
443.24	3368.03
443.43	3363.35
443.61	3372.71
443.80	3314.20
443.98	3314.20
444.17	3239.30
444.35	3393.78
444.54	3377.39
444.73	3489.74
444.91	3365.69
445.10	3314.20
445.28	3473.36
445.47	3433.57
445.65	3330.58
445.84	3393.78
446.02	3531.87
446.21	3414.84
446.39	3459.31
446.58	3543.57
446.77	3559.95
446.95	3318.88
447.14	3431.23
447.32	3363.35
447.51	3527.19
447.69	3403.14
447.88	3487.40
448.06	3482.72
448.25	3513.14
448.43	3517.83
448.62	3412.50
448.80	3417.18
448.99	3609.11
449.17	3520.17
449.36	3468.67
449.54	3691.02
449.73	3688.68
449.91	3721.45
450.10	3548.25
450.28	3756.56
450.46	3660.60
450.65	3702.73
450.83	3651.24
451.02	3784.65
451.20	3894.65
451.39	3630.17
451.57	3742.52
451.76	3709.75
451.94	3843.16
452.13	3744.86
452.31	3810.39
452.49	3791.67
452.68	3801.03
452.86	3801.03
453.05	3878.27
453.23	4023.38
453.42	3899.33
453.60	3840.82
453.78	3786.99
453.97	3857.20
454.15	3941.46
454.34	3859.54
454.52	4002.32
454.70	3927.42
454.89	3983.59
455.07	4009.34
455.26	3964.87
455.44	3885.29
455.62	4095.94
455.81	3974.23
455.99	4133.39
456.17	4100.62
456.36	4161.47
456.54	4063.17
456.73	4060.83
456.91	4238.71
457.09	4112.32
457.28	4308.93
457.46	4388.50
457.64	4327.65
457.83	4241.05
458.01	4245.73
458.19	4376.80
458.38	4236.37
458.56	4348.72
458.74	4299.56
458.93	4447.02
459.11	4404.89
459.29	4365.10
459.48	4503.19
459.66	4526.60
459.84	4512.55
460.03	4566.39
460.21	4444.68
460.39	4264.46
460.57	4475.10
460.76	4432.97
460.94	4634.26
461.12	4594.47
461.31	4655.33
461.49	4507.87
461.67	4491.49
461.85	4664.69
462.04	4535.96
462.22	4779.37
462.40	4844.91
462.59	4793.42
462.77	4795.76
462.95	4842.57
463.13	4690.43
463.32	4713.84
463.50	4798.10
463.68	4784.06
463.86	4734.90
464.05	4856.61
464.23	4734.90
464.41	4858.95
464.59	4788.74
464.78	4947.89
464.96	4793.42
465.14	4887.04
465.32	4908.10
465.50	5001.72
465.69	4957.25
465.87	4807.46
466.05	4802.78
466.23	4828.53
466.41	5067.26
466.60	4997.04
466.78	5036.83
466.96	4917.47
467.14	4968.96
467.32	5018.11
467.51	5128.11
467.69	4973.64
467.87	5043.85
468.05	5179.61
468.23	5071.94
468.41	5076.62
468.60	5088.32
468.78	5233.44
468.96	5135.14
469.14	5179.61
469.32	5069.60
469.50	5195.99
469.69	5261.52
469.87	5331.74
470.05	5516.64
470.23	5341.10
470.41	5184.29
470.59	5526.00
470.77	5357.49
470.95	5378.55
471.14	5341.10
471.32	5465.15
471.50	5544.73
471.68	5591.54
471.86	5554.09
472.04	5603.24
472.22	5748.36
472.40	5542.39
472.58	5699.20
472.77	5668.78
472.95	5689.84
473.13	5954.32
473.31	5804.53
473.49	5783.46
473.67	5764.74
473.85	5750.70
474.03	5951.98
474.21	5982.41
474.39	6017.52
474.57	5968.37
474.75	6059.65
474.93	6090.07
475.12	6064.33
475.30	6150.93
475.48	6012.84
475.66	6090.07
475.84	6157.95
476.02	6214.12
476.20	6263.27
476.38	6377.96
476.56	6483.28
476.74	6384.98
476.92	6478.60
477.10	6527.75
477.28	6576.91
477.46	6602.65
477.64	6705.63
477.82	6691.59
478.00	6855.43
478.18	6909.26
478.36	6993.52
478.54	7152.68
478.72	6925.65
478.90	6944.37
479.08	7068.42
479.26	7290.77
479.44	7241.62
479.62	7229.91
479.80	7421.84
479.98	7403.11
480.16	7386.73
480.34	7463.97
480.52	7623.12
480.70	7763.56
480.88	7550.57
481.06	7637.17
481.24	7653.55
481.41	7765.90
481.59	7716.75
481.77	7971.86
481.95	8079.53
482.13	7941.44
482.31	8119.32
482.49	8119.32
482.67	8210.60
482.85	8411.89
483.03	8327.63
483.21	8402.52
483.39	8353.37
483.57	8421.25
483.74	8615.51
483.92	8737.22
484.10	8636.58
484.28	8819.14
484.46	8975.95
484.64	9055.53
484.82	8884.67
485.00	9004.04
485.18	9221.71
485.35	9352.78
485.53	9362.14
485.71	9378.53
485.89	9312.99
486.07	9605.56
486.25	9565.77
486.43	9621.94
486.61	9556.41
486.78	9884.08
486.96	9898.13
487.14	10026.86
487.32	10171.97
487.50	10181.33
487.68	10129.84
487.85	10258.57
488.03	10394.32
488.21	10539.43
488.39	10471.56
488.57	10616.67
488.75	10485.60
488.92	10668.16
489.10	10745.40
489.28	10719.65
489.46	11000.52
489.64	11070.73
489.81	11162.01
489.99	11234.57
490.17	11012.22
490.35	11255.64
490.53	11466.28
490.70	11412.45
490.88	11449.90
491.06	11714.38
491.24	11616.08
491.41	11852.47
491.59	11995.25
491.77	11854.81
491.95	12037.38
492.13	12016.31
492.30	12135.68
492.48	12025.67
492.66	12358.03
492.84	11971.84
493.01	12442.29
493.19	12493.78
493.37	12634.21
493.54	12800.39
493.72	12608.47
493.90	12807.41
494.08	12835.50
494.25	12915.08
494.43	12940.82
494.61	13343.39
494.79	12992.31
494.96	13310.63
495.14	13221.69
495.32	13631.28
495.49	13476.80
495.67	13523.62
495.85	13645.32
496.02	13774.05
496.20	13841.93
496.38	14155.56
496.55	13862.99
496.73	14216.41
496.91	14267.91
497.09	14040.87
497.26	14223.44
497.44	14183.65
497.62	14033.85
497.79	14101.73
497.97	14403.66
498.14	14981.77
498.32	14768.78
498.50	14757.08
498.67	14904.53
498.85	14747.72
499.03	14523.02
499.20	14787.50
499.38	15070.71
499.56	15066.03
499.73	15229.87
499.91	15154.97
500.08	15335.19
500.26	15108.16
500.44	15150.29
500.61	15218.16
500.79	15433.49
500.97	15529.45
501.14	15477.96
501.32	15522.43
501.49	15201.78
501.67	15707.34
501.84	15700.31
502.02	15719.04
502.20	16020.97
502.37	16105.23
502.55	15791.59
502.72	15960.11
502.90	15868.83
503.07	16339.28
503.25	16046.71
503.43	16215.23
503.60	16259.70
503.78	16414.18
503.95	16479.71
504.13	16547.59
504.30	16575.67
504.48	16659.93
504.65	16664.61
504.83	16737.17
505.01	16599.08
505.18	17067.19
505.36	16926.75
505.53	16776.96
505.71	16875.26
505.88	17046.12
506.06	16868.24
506.23	16996.97
506.41	16938.46
506.58	17345.71
506.76	17432.31
506.93	17099.95
507.11	17177.19
507.28	17324.65
507.46	17076.55
507.63	17610.19
507.81	17795.09
507.98	17284.86
508.16	17486.14
508.33	17614.87
508.50	17827.86
508.68	17813.82
508.85	17802.11
509.03	17968.29
509.20	18080.64
509.38	18148.51
509.55	18113.41
509.73	18143.83
509.90	17970.63
510.08	18078.30
510.25	18356.82
510.42	18515.98
510.60	18504.28
510.77	18382.57
510.95	18523.00
511.12	18246.82
511.30	18347.46
511.47	18415.34
511.64	18717.26
511.82	18845.99
511.99	19009.83
512.17	19227.50
512.34	18780.46
512.51	19159.63
512.69	18937.27
512.86	19000.47
513.04	19236.86
513.21	19044.94
513.38	18857.70
513.56	19262.61
513.73	19236.86
513.90	19197.07
514.08	19201.76
514.25	19513.05
514.43	19550.49
514.60	19660.50
514.77	19711.99
514.95	19814.98
515.12	19742.42
515.29	19829.02
515.47	19796.25
515.64	19908.60
515.81	20053.71
515.99	20109.88
516.16	20011.58
516.33	20067.75
516.51	20093.50
516.68	20245.63
516.85	20070.09
517.03	20105.20
517.20	20273.72
517.37	20327.55
517.54	20379.04
517.72	20247.97
517.89	20175.42
518.06	20130.95
518.24	20538.20
518.41	20329.89
518.58	20746.51
518.75	20753.53
518.93	20762.89
519.10	20662.25
519.27	20608.42
519.45	20552.24
519.62	20760.55
519.79	20699.70
519.96	20926.73
520.14	20638.84
520.31	21149.08
520.48	21350.37
520.65	20793.32
520.83	21118.65
521.00	21238.02
521.17	21160.78
521.34	21078.86
521.52	21488.46
521.69	21486.12
521.86	21392.50
522.03	21528.25
522.20	21741.24
522.38	21656.98
522.55	21483.78
522.72	21486.12
522.89	21790.39
523.07	22010.40
523.24	21830.18
523.41	21703.79
523.58	22125.08
523.75	22106.36
523.92	21958.91
524.10	22008.06
524.27	22171.89
524.44	21851.24
524.61	22244.45
524.78	22207.00
524.96	22216.36
525.13	22267.86
525.30	22185.94
525.47	22192.96
525.64	22298.28
525.81	22391.91
525.98	22897.46
526.16	22621.28
526.33	22586.17
526.50	22651.70
526.67	22476.16
526.84	22464.46
527.01	22658.73
527.18	22710.22
527.36	22993.42
527.53	22904.48
527.70	23063.64
527.87	23035.55
528.04	23175.98
528.21	23075.34
528.38	23009.81
528.55	23225.14
528.72	23204.07
528.89	23129.17
529.07	23126.83
529.24	23082.36
529.41	23484.94
529.58	23098.75
529.75	23187.69
529.92	23311.74
530.09	23480.25
530.26	23564.51
530.43	23269.61
530.60	23580.90
530.77	23293.01
530.94	23639.41
531.11	23204.07
531.28	23335.14
531.46	23761.12
531.63	23726.01
531.80	23550.47
531.97	24065.39
532.14	24184.76
532.31	23756.44
532.48	24006.87
532.65	24109.86
532.82	24273.70
532.99	23859.42
533.16	24013.90
533.33	24315.83
533.50	24507.75
533.67	24077.09
533.84	23763.46
534.01	24098.16
534.18	24100.50
534.35	24379.02
534.52	24098.16
534.69	24465.62
534.86	24334.55
535.03	24491.37
535.20	24306.46
535.37	24573.28
535.54	24758.19
535.71	24346.25
535.88	24360.30
536.05	24224.54
536.22	24610.73
536.38	24893.94
536.55	24474.98
536.72	24535.84
536.89	24725.42
537.06	24938.41
537.23	24938.41
537.40	24683.29
537.57	24847.13
537.74	24929.05
537.91	25153.74
538.08	24833.08
538.25	24526.47
538.42	25097.56
538.59	25240.34
538.75	24971.18
538.92	25081.18
539.09	25022.67
539.26	25078.84
539.43	24987.56
539.60	24945.43
539.77	25387.79
539.94	25680.36
540.11	25083.52
540.28	25450.99
540.44	25497.80
540.61	25455.67
540.78	25015.65
540.95	25268.42
541.12	25254.38
541.29	25020.33
541.46	24975.86
541.62	25523.54
541.79	25493.12
541.96	25081.18
542.13	25074.16
542.30	25373.75
542.47	25516.52
542.63	25769.30
542.80	25685.04
542.97	26209.32
543.14	26155.49
543.31	25869.94
543.48	26043.14
543.64	26267.83
543.81	26342.73
543.98	26368.48
544.15	26398.90
544.32	26338.05
544.48	26242.09
544.65	25888.67
544.82	26408.26
544.99	26003.35
545.16	26309.96
545.32	26216.34
545.49	26396.56
545.66	26452.73
545.83	26693.81
546.00	26586.15
546.16	26298.26
546.33	26185.91
546.50	26345.07
546.67	26593.17
546.83	26286.56
547.00	26403.58
547.17	26103.99
547.34	26581.46
547.50	26852.97
547.67	27419.38
547.84	26539.33
548.00	26625.93
548.17	26497.20
548.34	26984.04
548.51	27225.11
548.67	27321.07
548.84	26834.24
549.01	27042.55
549.18	26958.29
549.34	26794.45
549.51	26904.46
549.68	27047.23
549.84	26761.69
550.01	27091.70
550.18	26934.88
550.34	27168.94
550.51	27098.72
550.68	27271.92
550.84	26991.06
551.01	27328.10
551.18	27014.46
551.34	27126.81
551.51	27353.84
551.68	26993.40
551.84	27358.52
552.01	27101.06
552.18	27536.40
552.34	27190.00
552.51	27630.02
552.68	27438.10
552.84	27433.42
553.01	27695.56
553.18	27828.97
553.34	27805.56
553.51	27218.09
553.67	27669.81
553.84	27725.99
554.01	27524.70
554.17	27307.03
554.34	27634.71
554.51	27697.90
554.67	27866.42
554.84	27733.01
555.00	27770.46
555.17	27770.46
555.33	27772.80
555.50	27826.63
555.67	27772.80
555.83	27529.38
556.00	27608.96
556.16	28053.66
556.33	27672.15
556.50	27831.31
556.66	28018.55
556.83	28063.02
556.99	28224.52
557.16	28568.58
557.32	28039.62
557.49	28467.94
557.65	28247.93
557.82	28123.88
557.98	27791.52
558.15	28175.37
558.32	28123.88
558.48	27995.15
558.65	28353.25
558.81	28231.54
558.98	28517.09
559.14	28086.43
559.31	27915.57
559.47	28180.05
559.64	28170.69
559.80	28339.21
559.97	28762.84
560.13	28524.11
560.30	28561.56
560.46	28631.77
560.63	28280.69
560.79	27978.76
560.96	28463.25
561.12	28442.19
561.29	28063.02
561.45	28451.55
561.61	28744.12
561.78	28800.29
561.94	28393.04
562.11	28809.65
562.27	28636.45
562.44	28481.98
562.60	28615.39
562.77	28416.44
562.93	28573.26
563.10	28699.65
563.26	28659.86
563.42	28683.27
563.59	28926.68
563.75	28922.00
563.92	29017.96
564.08	28900.94
564.24	28636.45
564.41	28739.44
564.57	28577.94
564.74	28542.83
564.90	28781.57
565.07	28568.58
565.23	29060.09
565.39	28507.72
565.56	28811.99
565.72	28760.50
565.88	28964.13
566.05	28591.98
566.21	28870.51
566.38	28463.25
566.54	28648.16
566.70	29163.08
566.87	29127.97
567.03	28900.94
567.19	29266.06
567.36	29268.40
567.52	28713.69
567.68	28889.23
567.85	28929.02
568.01	28884.55
568.17	29097.54
568.34	28769.86
568.50	28910.30
568.66	29163.08
568.83	28945.41
568.99	29085.84
569.15	28961.79
569.32	28929.02
569.48	28804.97
569.64	28856.46
569.81	28910.30
569.97	29008.60
570.13	29186.48
570.30	29057.75
570.46	29429.90
570.62	29270.74
570.78	29083.50
570.95	28835.40
571.11	29111.58
571.27	28563.90
571.43	28947.75
571.60	29127.97
571.76	28861.15
571.92	29551.60
572.09	29441.60
572.25	29425.22
572.41	29212.23
572.57	29146.69
572.74	29366.70
572.90	29174.78
573.06	29151.37
573.22	29130.31
573.38	29535.22
573.55	29088.18
573.71	29673.31
573.87	29291.80
574.03	29446.28
574.20	29275.42
574.36	29542.24
574.52	29378.40
574.68	28940.72
574.84	29069.45
575.01	29106.90
575.17	29177.12
575.33	29474.37
575.49	29242.65
575.65	29443.94
575.82	29457.98
575.98	29156.05
576.14	29654.59
576.30	29488.41
576.46	29432.24
576.62	29163.08
576.79	29329.25
576.95	29373.72
577.11	29593.73
577.27	29450.96
577.43	29490.75
577.59	29542.24
577.75	29558.63
577.92	29439.26
578.08	29247.33
578.24	29207.55
578.40	29446.28
578.56	29504.79
578.72	29469.69
578.88	29628.84
579.04	29582.03
579.21	29308.19
579.37	29230.95
579.53	29359.68
579.69	29312.87
579.85	29041.37
580.01	29331.59
580.17	28985.19
580.33	29797.36
580.49	29383.09
580.65	29539.90
580.82	29160.73
580.98	29495.43
581.14	29390.11
581.30	29635.86
581.46	29230.95
581.62	29212.23
581.78	29497.77
581.94	29373.72
582.10	29572.67
582.26	29036.69
582.42	29804.38
582.58	29497.77
582.74	29699.06
582.90	29642.88
583.06	29563.31
583.22	29572.67
583.38	29479.05
583.54	29535.22
583.70	29589.05
583.86	29420.53
584.02	29046.05
584.18	29656.93
584.34	29261.38
584.50	29759.91
584.66	29558.63
584.82	28973.49
584.98	29818.42
585.14	29401.81
585.30	29460.32
585.46	29120.95
585.62	29298.83
585.78	29626.50
585.94	29303.51
586.10	29921.41
586.26	29652.25
586.42	29785.66
586.58	29457.98
586.74	29579.69
586.90	29308.19
587.06	29146.69
587.22	29839.49
587.38	29474.37
587.54	29357.34
587.70	29596.07
587.86	29886.30
588.02	29673.31
588.18	30543.99
588.34	29780.98
588.49	30012.69
588.65	29230.95
588.81	29544.58
588.97	29642.88
589.13	29376.06
589.29	29848.85
589.45	29860.55
589.61	29706.08
589.77	29951.84
589.93	30106.31
590.08	29853.53
590.24	29509.47
590.40	30239.72
590.56	29729.48
590.72	29722.46
590.88	29839.49
591.04	29816.08
591.20	29654.59
591.35	30272.49
591.51	30132.06
591.67	30167.16
591.83	30347.39
591.99	30153.12
592.15	30143.76
592.31	29956.52
592.46	29881.62
592.62	30155.46
592.78	29956.52
592.94	29659.27
593.10	30106.31
593.26	30230.36
593.41	30103.97
593.57	30181.21
593.73	30010.35
593.89	30181.21
594.05	29865.24
594.20	29949.50
594.36	29743.53
594.52	29773.95
594.68	29820.77
594.84	29802.04
594.99	29614.80
595.15	30033.75
595.31	30553.35
595.47	30050.14
595.62	30272.49
595.78	29998.65
595.94	29972.90
596.10	29928.43
596.25	30316.96
596.41	29827.79
596.57	29724.80
596.73	30003.33
596.88	29780.98
597.04	29858.21
597.20	29783.32
597.36	30036.09
597.51	30438.67
597.67	30218.66
597.83	30230.36
597.99	30139.08
598.14	29898.00
598.30	30160.14
598.46	30171.85
598.61	30141.42
598.77	29970.56
598.93	30333.34
599.09	30235.04
599.24	30384.83
599.40	30319.30
599.56	30541.65
599.71	30199.93
599.87	29998.65
600.03	29935.45
600.18	30043.12
600.34	29979.92
600.50	30199.93
600.65	29991.62
600.81	30300.58
600.97	30459.73
601.12	30366.11
601.28	30476.12
601.44	30221.00
601.59	30197.59
601.75	30242.06
601.91	30419.94
602.06	30096.95
602.22	29792.68
602.37	29979.92
602.53	29759.91
602.69	30195.25
602.84	29958.86
603.00	30000.99
603.16	30106.31
603.31	30403.56
603.47	30061.84
603.62	30029.07
603.78	29961.20
603.94	29858.21
604.09	30174.19
604.25	29598.41
604.40	30251.42
604.56	29954.18
604.71	30300.58
604.87	29886.30
605.03	30195.25
605.18	30263.13
605.34	30389.52
605.49	29865.24
605.65	29961.20
605.80	29741.19
605.96	30167.16
606.12	29738.85
606.27	30110.99
606.43	29572.67
606.58	30410.58
606.74	29947.15
606.89	30134.40
607.05	30012.69
607.20	30033.75
607.36	30450.37
607.51	30036.09
607.67	29745.87
607.82	29795.02
607.98	29766.93
608.13	29979.92
608.29	29820.77
608.44	29809.06
608.60	30143.76
608.75	29879.28
608.91	30361.43
609.06	29839.49
609.22	29865.24
609.37	29663.95
609.53	29830.13
609.68	29355.00
609.84	29991.62
609.99	29497.77
610.15	29923.75
610.30	29750.55
610.46	29839.49
610.61	29832.47
610.76	30033.75
610.92	29780.98
611.07	29968.22
611.23	29738.85
611.38	29752.89
611.54	29406.49
611.69	29514.16
611.84	29673.31
612.00	29687.36
612.15	29535.22
612.31	29586.71
612.46	29694.38
612.62	29703.74
612.77	29799.70
612.92	29860.55
613.08	30059.50
613.23	29853.53
613.39	29769.27
613.54	29383.09
613.69	29717.78
613.85	29771.61
614.00	29745.87
614.15	29687.36
614.31	29495.43
614.46	29900.34
614.62	29369.04
614.77	29710.76
614.92	29792.68
615.08	29696.72
615.23	29668.63
615.38	29673.31
615.54	28999.24
615.69	28985.19
615.84	29261.38
616.00	29193.50
616.15	29287.12
616.30	29490.75
616.46	29134.99
616.61	29385.43
616.76	29715.44
616.92	29467.34
617.07	29244.99
617.22	29177.12
617.37	28973.49
617.53	29142.01
617.68	28999.24
617.83	28746.46
617.99	28980.51
618.14	29221.59
618.29	28952.43
618.45	29153.71
618.60	28987.53
618.75	29638.20
618.90	29027.32
619.06	29062.43
619.21	29266.06
619.36	29439.26
619.51	28900.94
619.67	28664.54
619.82	28807.31
619.97	28985.19
620.12	28641.14
620.28	28919.66
620.43	28922.00
620.58	29097.54
620.73	29069.45
620.89	29036.69
621.04	29151.37
621.19	28709.01
621.34	29090.52
621.49	28753.48
621.65	29050.73
621.80	28856.46
621.95	28767.52
622.10	28807.31
622.25	28620.07
622.41	28678.58
622.56	28905.62
622.71	28875.19
622.86	28933.70
623.01	28751.14
623.16	28570.92
623.32	28264.31
623.47	28554.54
623.62	28650.50
623.77	28524.11
623.92	28659.86
624.07	28446.87
624.23	28732.42
624.38	28617.73
624.53	28900.94
624.68	28929.02
624.83	28559.22
624.98	28987.53
625.13	28732.42
625.29	28699.65
625.44	28727.74
625.59	28435.17
625.74	28479.64
625.89	27957.70
626.04	28166.01
626.19	28189.41
626.34	28224.52
626.49	28009.19
626.65	28233.88
626.80	28687.95
626.95	28198.77
627.10	28140.26
627.25	28168.35
627.40	28268.99
627.55	28390.70
627.70	27906.21
627.85	27913.23
628.00	28023.23
628.15	28093.45
628.30	27772.80
628.45	27564.49
628.60	27913.23
628.76	28109.83
628.91	28060.68
629.06	28044.30
629.21	28170.69
629.36	27831.31
629.51	27985.79
629.66	27889.82
629.81	27810.25
629.96	27955.36
630.11	28091.11
630.26	27754.07
630.41	27704.92
630.56	27737.69
630.71	27513.00
630.86	27674.49
631.01	27800.88
631.16	27866.42
631.31	27522.36
631.46	27440.44
631.61	27756.41
631.76	27786.84
631.91	27737.69
632.06	27742.37
632.21	27459.16
632.36	27417.04
632.51	27761.09
632.66	27503.64
632.81	27344.48
632.96	27342.14
633.10	27690.88
633.25	27367.88
633.40	27587.89
633.55	27522.36
633.70	27044.89
633.85	27068.30
634.00	27491.93
634.15	27356.18
634.30	27087.02
634.45	26920.84
634.60	27360.86
634.75	27454.48
634.90	27206.39
635.05	27400.65
635.19	27484.91
635.34	27269.58
635.49	27328.10
635.64	27395.97
635.79	27288.31
635.94	27419.38
636.09	27484.91
636.24	26948.93
636.39	27136.17
636.53	26871.69
636.68	27002.76
636.83	26988.72
636.98	27094.04
637.13	27489.59
637.28	27229.79
637.43	27175.96
637.57	26862.33
637.72	26717.22
637.87	27339.80
638.02	26920.84
638.17	27208.73
638.32	26930.20
638.46	26843.60
638.61	26700.83
638.76	26504.23
638.91	26838.92
639.06	26436.35
639.20	27002.76
639.35	26838.92
639.50	27058.93
639.65	27274.26
639.80	26937.23
639.94	27054.25
640.09	26939.57
640.24	26583.80
640.39	26286.56
640.54	26693.81
640.68	26490.18
640.83	26487.84
640.98	26277.19
641.13	26293.58
641.27	26527.63
641.42	26541.68
641.57	26742.96
641.72	26588.49
641.86	26277.19
642.01	26122.72
642.16	26284.22
642.31	26469.12
642.45	26354.43
642.60	26197.62
642.75	26349.75
642.90	26316.98
643.04	26251.45
643.19	26298.26
643.34	26508.91
643.48	26256.13
643.63	26448.05
643.78	26157.83
643.93	26405.92
644.07	26324.01
644.22	26551.04
644.37	26328.69
644.51	26649.34
644.66	26431.67
644.81	25687.38
644.95	25998.67
645.10	26111.02
645.25	26160.17
645.39	26225.70
645.54	26223.36
645.69	25802.07
645.83	26363.79
645.98	26267.83
646.13	26087.61
646.27	26242.09
646.42	26087.61
646.57	26199.96
646.71	26085.27
646.86	25773.98
647.00	26045.48
647.15	25820.79
647.30	25586.74
647.44	25598.44
647.59	25872.28
647.74	25841.85
647.88	25841.85
648.03	25895.69
648.17	26188.25
648.32	25986.97
648.47	25947.18
648.61	26092.29
648.76	26391.88
648.90	26036.12
649.05	25832.49
649.20	25940.16
649.34	25687.38
649.49	25689.72
649.63	25720.15
649.78	25659.29
649.92	25654.61
650.07	26148.46
650.21	25731.85
650.36	25570.35
650.51	25303.53
650.65	25621.84
650.80	25446.30
650.94	25256.72
651.09	25563.33
651.23	25736.53
651.38	25633.55
651.52	25172.46
651.67	25439.28
651.81	25635.89
651.96	25149.06
652.10	25523.54
652.25	25455.67
652.39	25383.11
652.54	25795.04
652.68	25656.95
652.83	25656.95
652.97	25359.70
653.12	25640.57
653.26	25277.79
653.41	25165.44
653.55	25359.70
653.70	25207.57
653.84	25261.40
653.99	25308.21
654.13	25104.59
654.27	25127.99
654.42	25095.22
654.56	25340.98
654.71	24945.43
654.85	25109.27
655.00	25383.11
655.14	25029.69
655.29	25167.78
655.43	25202.89
655.57	24837.76
655.72	24870.53
655.86	25125.65
656.01	25130.33
656.15	25048.41
656.30	24868.19
656.44	24795.64
656.58	24800.32
656.73	24865.85
656.87	24723.08
657.01	24861.17
657.16	24947.77
657.30	25226.29
657.45	24664.57
657.59	24912.66
657.73	24702.01
657.88	24650.52
658.02	24851.81
658.16	24678.61
658.31	24580.31
658.45	24851.81
658.60	24311.14
658.74	24320.51
658.88	24254.97
659.03	24451.58
659.17	24486.68
659.31	24428.17
659.46	24706.70
659.60	24767.55
659.74	24449.24
659.89	24542.86
660.03	24482.00
660.17	24547.54
660.32	24563.92
660.46	24156.67
660.60	24100.50
660.74	24414.13
660.89	24552.22
661.03	23779.84
661.17	24049.00
661.32	24231.57
661.46	24081.77
661.60	24100.50
661.74	23744.73
661.89	24250.29
662.03	24095.82
662.17	23899.21
662.31	23927.30
662.46	23812.61
662.60	23838.36
662.74	23768.14
662.88	23414.72
663.03	23700.26
663.17	23597.28
663.31	23419.40
663.45	23693.24
663.60	23711.97
663.74	23580.90
663.88	23594.94
664.02	23548.13
664.17	23709.63
664.31	23126.83
664.45	23559.83
664.59	23597.28
664.73	23477.91
664.88	23367.91
665.02	23278.97
665.16	23047.26
665.30	23089.38
665.44	23096.41
665.59	23131.51
665.73	22913.84
665.87	23122.15
666.01	22953.63
666.15	23260.24
666.29	23098.75
666.44	23187.69
666.58	22778.09
666.72	23094.07
666.86	22810.86
667.00	22852.99
667.14	22628.30
667.28	22686.81
667.43	22094.66
667.57	22979.38
667.71	22808.52
667.85	22654.05
667.99	22869.37
668.13	22389.56
668.27	22347.44
668.41	22398.93
668.56	22239.77
668.70	22448.08
668.84	22326.37
668.98	22377.86
669.12	22735.96
669.26	22256.15
669.40	22333.39
669.54	22518.29
669.68	22242.11
669.82	21970.61
669.96	21776.34
670.10	21994.01
670.25	22434.03
670.39	22087.64
670.53	22066.57
670.67	21706.13
670.81	22038.48
670.95	21869.97
671.09	22008.06
671.23	22216.36
671.37	21666.34
671.51	21771.66
671.65	22089.98
671.79	21785.71
671.93	21624.21
672.07	21647.61
672.21	21546.97
672.35	21345.69
672.49	21399.52
672.63	21387.82
672.77	21326.96
672.91	21247.38
673.05	21268.45
673.19	21385.47
673.33	21193.55
673.47	21151.42
673.61	21137.38
673.75	21120.99
673.89	21216.96
674.03	21315.26
674.17	21116.31
674.31	21036.74
674.45	21383.13
674.59	21078.86
674.73	21006.31
674.87	20683.31
675.01	20772.25
675.15	20945.45
675.29	20620.12
675.43	20266.70
675.56	20889.28
675.70	20900.98
675.84	20641.18
675.98	19709.65
676.12	20662.25
676.26	20573.31
676.40	20329.89
676.54	20475.01
676.68	20255.00
676.82	19988.18
676.96	20121.59
677.10	19901.58
677.23	19711.99
677.37	19634.75
677.51	20119.24
677.65	19660.50
677.79	19538.79
677.93	19236.86
678.07	19845.40
678.21	19227.50
678.34	19564.54
678.48	19318.78
678.62	19461.55
678.76	19405.38
678.90	19087.07
679.04	19267.29
679.18	19356.23
679.31	18853.02
679.45	18934.93
679.59	18860.04
679.73	19026.21
679.87	18677.48
680.00	18750.03
680.14	18349.80
680.28	18682.16
680.42	18752.37
680.56	19016.85
680.70	18382.57
680.83	18869.40
680.97	18520.66
681.11	18441.08
681.25	18420.02
681.39	18569.81
681.52	18572.15
681.66	18190.64
681.80	18288.95
681.94	18125.11
682.07	18354.48
682.21	18003.40
682.35	17748.28
682.49	17926.16
682.62	18017.44
682.76	17785.73
682.90	17607.85
683.04	17631.26
683.17	17851.27
683.31	17689.77
683.45	17767.01
683.59	17554.02
683.72	17598.49
683.86	17598.49
684.00	17465.08
684.13	17401.88
684.27	17343.37
684.41	17334.01
684.55	17198.26
684.68	17144.42
684.82	16975.91
684.96	17083.57
685.09	16561.63
685.23	16730.15
685.37	16769.94
685.50	16870.58
685.64	16793.34
685.78	16666.95
685.91	16732.49
686.05	16580.36
686.19	16475.03
686.32	16800.37
686.46	16596.74
686.60	15995.22
686.73	16299.49
686.87	16119.27
687.01	16145.02
687.14	15971.82
687.28	15932.03
687.42	15981.18
687.55	16128.63
687.69	15885.22
687.82	15857.13
687.96	15658.18
688.10	15751.81
688.23	15585.63
688.37	15625.42
688.50	15786.91
688.64	15585.63
688.78	15674.57
688.91	15517.75
689.05	15253.27
689.18	15241.57
689.32	15365.62
689.46	15442.85
689.59	15201.78
689.73	15342.21
689.86	14958.36
690.00	14909.21
690.13	14927.94
690.27	14944.32
690.41	14874.10
690.54	15059.01
690.68	14888.15
690.81	14857.72
690.95	15016.88
691.08	14562.81
691.22	15140.93
691.35	14661.12
691.49	14738.35
691.62	14621.33
691.76	14420.04
691.89	14403.66
692.03	14218.75
692.16	14045.55
692.30	14108.75
692.43	14281.95
692.57	13912.14
692.70	13930.87
692.84	13987.04
692.97	13823.20
693.11	14052.58
693.24	13544.68
693.38	13760.01
693.51	13579.79
693.65	13797.46
693.78	13317.65
693.92	13745.97
694.05	13752.99
694.19	13741.29
694.32	13549.36
694.45	13308.29
694.59	13174.88
694.72	13060.19
694.86	13296.58
694.99	13139.77
695.13	12961.89
695.26	13043.81
695.39	12952.52
695.53	12917.42
695.66	13057.85
695.80	12793.37
695.93	12776.98
696.07	12872.95
696.20	12917.42
696.33	12830.82
696.47	12498.46
696.60	12486.76
696.73	12559.31
696.87	12191.85
697.00	12285.47
697.14	12222.28
697.27	12278.45
697.40	12217.60
697.54	12105.25
697.67	12173.13
697.80	11997.59
697.94	12058.44
698.07	11941.41
698.21	11920.35
698.34	11969.50
698.47	12159.08
698.61	11747.15
698.74	12072.48
698.87	11859.49
699.01	11616.08
699.14	11719.06
699.27	11550.54
699.40	11707.36
699.54	11508.41
699.67	11375.00
699.80	11480.33
699.94	11286.06
700.07	11330.53
700.20	11405.43
700.34	11035.63
700.47	11199.46
700.60	11023.92
700.73	10986.47
700.87	11007.54
701.00	11052.01
701.13	10967.75
701.26	11042.65
701.40	10874.13
701.53	10995.84
701.66	10771.15
701.79	10607.31
701.93	10647.10
702.06	10635.39
702.19	10424.75
702.32	10356.87
702.46	10284.31
702.59	10455.17
702.72	10251.55
702.85	10431.77
702.99	10317.08
703.12	10296.02
703.25	10118.14
703.38	9994.09
703.51	10310.06
703.65	10122.82
703.78	10043.24
703.91	10134.52
704.04	10230.48
704.17	9912.17
704.31	9996.43
704.44	9736.63
704.57	9865.36
704.70	9497.89
704.83	9635.99
704.96	9715.56
705.10	9540.02
705.23	9467.47
>>>>>End Processed Spectral Data<<<<<
