SpectraSuite Data File
++++++++++++++++++++++++++++++++++++
Date: Fri Oct 18 13:58:17 GMT-05:00 2013
User: bianchi
Dark Spectrum Present: No
Reference Spectrum Present: No
Number of Sampled Component Spectra: 1
Spectrometers: USB2+H05261
Integration Time (usec): 50000 (USB2+H05261)
Spectra Averaged: 1 (USB2+H05261)
Boxcar Smoothing: 0 (USB2+H05261)
Correct for Electrical Dark: No (USB2+H05261)
Strobe/Lamp Enabled: No (USB2+H05261)
Correct for Detector Non-linearity: No (USB2+H05261)
Correct for Stray Light: No (USB2+H05261)
Number of Pixels in Processed Spectrum: 2048
>>>>>Begin Processed Spectral Data<<<<<
365.73	0.00
365.92	0.00
366.12	0.00
366.32	0.00
366.52	0.00
366.72	0.00
366.91	0.00
367.11	0.00
367.31	0.00
367.51	0.00
367.70	0.00
367.90	0.00
368.10	0.00
368.30	0.00
368.49	0.00
368.69	0.00
368.89	0.00
369.09	0.00
369.28	0.00
369.48	0.00
369.68	0.00
369.87	0.00
370.07	0.00
370.27	0.00
370.47	0.00
370.66	25.75
370.86	131.07
371.06	156.82
371.25	98.30
371.45	84.26
371.65	102.98
371.84	117.03
372.04	156.82
372.24	154.48
372.44	145.11
372.63	152.13
372.83	166.18
373.03	159.16
373.22	131.07
373.42	189.58
373.62	220.01
373.81	126.39
374.01	217.67
374.21	180.22
374.40	222.35
374.60	222.35
374.79	264.48
374.99	217.67
375.19	205.97
375.38	201.29
375.58	252.78
375.78	269.16
375.97	308.95
376.17	287.89
376.37	224.69
376.56	189.58
376.76	287.89
376.95	313.63
377.15	245.76
377.35	271.50
377.54	238.73
377.74	322.99
377.93	318.31
378.13	234.05
378.33	339.38
378.52	339.38
378.72	269.16
378.91	292.57
379.11	334.70
379.31	322.99
379.50	341.72
379.70	306.61
379.89	308.95
380.09	337.04
380.28	308.95
380.48	259.80
380.68	306.61
380.87	236.39
381.07	344.06
381.26	320.65
381.46	266.82
381.65	404.91
381.85	285.55
382.04	325.33
382.24	278.52
382.43	334.70
382.63	276.18
382.83	355.76
383.02	266.82
383.22	393.21
383.41	287.89
383.61	308.95
383.80	367.46
384.00	367.46
384.19	320.65
384.39	315.97
384.58	411.93
384.78	337.04
384.97	372.15
385.17	428.32
385.36	400.23
385.56	367.46
385.75	348.74
385.95	402.57
386.14	482.15
386.34	308.95
386.53	355.76
386.72	393.21
386.92	435.34
387.11	416.62
387.31	456.40
387.50	447.04
387.70	440.02
387.89	383.85
388.09	435.34
388.28	365.12
388.48	475.13
388.67	416.62
388.86	507.90
389.06	374.49
389.25	491.51
389.45	409.59
389.64	528.96
389.84	514.92
390.03	447.04
390.22	463.43
390.42	482.15
390.61	496.19
390.81	486.83
391.00	454.06
391.19	454.06
391.39	554.71
391.58	444.70
391.78	477.47
391.97	475.13
392.16	538.32
392.36	526.62
392.55	650.67
392.75	463.43
392.94	575.77
393.13	475.13
393.33	573.43
393.52	578.11
393.71	573.43
393.91	545.34
394.10	531.30
394.29	547.69
394.49	507.90
394.68	554.71
394.88	596.84
395.07	702.16
395.26	594.50
395.46	514.92
395.65	631.94
395.84	601.52
396.04	681.10
396.23	578.11
396.42	664.71
396.62	650.67
396.81	711.52
397.00	601.52
397.19	667.05
397.39	678.76
397.58	702.16
397.77	706.84
397.97	627.26
398.16	660.03
398.35	634.29
398.55	709.18
398.74	744.29
398.93	723.23
399.12	671.73
399.32	702.16
399.51	732.59
399.70	807.48
399.90	716.20
400.09	760.67
400.28	706.84
400.47	727.91
400.67	725.57
400.86	917.49
401.05	653.01
401.24	741.95
401.44	809.83
401.63	791.10
401.82	711.52
402.01	814.51
402.21	763.01
402.40	880.04
402.59	849.61
402.78	877.70
402.97	880.04
403.17	840.25
403.36	877.70
403.55	851.96
403.74	837.91
403.93	835.57
404.13	912.81
404.32	894.08
404.51	917.49
404.70	994.73
404.89	877.70
405.09	992.39
405.28	971.32
405.47	983.02
405.66	992.39
405.85	908.13
406.05	1015.79
406.24	964.30
406.43	973.66
406.62	919.83
406.81	1062.60
407.00	1006.43
407.20	961.96
407.39	1041.54
407.58	1029.84
407.77	999.41
407.96	1048.56
408.15	1048.56
408.34	1064.94
408.54	1125.80
408.73	1074.31
408.92	1184.31
409.11	1132.82
409.30	1069.62
409.49	1151.54
409.68	1062.60
409.87	1177.29
410.07	1128.14
410.26	1100.05
410.45	1177.29
410.64	1193.67
410.83	1128.14
411.02	1144.52
411.21	1228.78
411.40	1174.95
411.59	1205.38
411.78	1308.36
411.98	1184.31
412.17	1263.89
412.36	1313.04
412.55	1348.15
412.74	1376.24
412.93	1301.34
413.12	1247.51
413.31	1526.03
413.50	1352.83
413.69	1355.17
413.88	1411.34
414.07	1467.52
414.26	1427.73
414.45	1481.56
414.64	1547.09
414.83	1577.52
415.02	1397.30
415.22	1549.43
415.41	1551.78
415.60	1586.88
415.79	1561.14
415.98	1586.88
416.17	1554.12
416.36	1521.35
416.55	1607.95
416.74	1673.48
416.93	1558.80
417.12	1607.95
417.31	1603.27
417.50	1661.78
417.69	1785.83
417.88	1682.85
418.07	1720.29
418.26	1764.76
418.45	1729.66
418.64	1746.04
418.83	1771.79
419.02	1783.49
419.21	1858.39
419.39	1682.85
419.58	1739.02
419.77	1804.55
419.96	1846.68
420.15	1799.87
420.34	1825.62
420.53	1874.77
420.72	1980.09
420.91	1888.81
421.10	1858.39
421.29	2087.76
421.48	1851.36
421.67	1933.28
421.86	1907.54
422.05	1863.07
422.24	2026.90
422.43	1874.77
422.61	1825.62
422.80	2001.16
422.99	1933.28
423.18	2045.63
423.37	1980.09
423.56	2001.16
423.75	1975.41
423.94	1919.24
424.13	1851.36
424.32	1870.09
424.50	1975.41
424.69	2064.35
424.88	2069.03
425.07	1989.46
425.26	2026.90
425.45	2003.50
425.64	1949.67
425.83	1998.82
426.01	2010.52
426.20	1921.58
426.39	2040.95
426.58	2031.58
426.77	2097.12
426.96	2073.71
427.15	2094.78
427.33	2029.24
427.52	2076.06
427.71	2169.68
427.90	2181.38
428.09	2174.36
428.28	2188.40
428.46	2155.63
428.65	2204.78
428.84	2260.96
429.03	2312.45
429.22	2012.86
429.40	2303.09
429.59	2197.76
429.78	2097.12
429.97	2160.31
430.16	2118.18
430.34	2279.68
430.53	2438.84
430.72	2331.17
430.91	2193.08
431.10	2356.92
431.28	2373.30
431.47	2312.45
431.66	2392.03
431.85	2370.96
432.03	2471.61
432.22	2480.97
432.41	2438.84
432.60	2455.22
432.79	2403.73
432.97	2509.05
433.16	2513.74
433.35	2368.62
433.54	2441.18
433.72	2548.84
433.91	2464.58
434.10	2527.78
434.28	2513.74
434.47	2562.89
434.66	2602.68
434.85	2586.29
435.03	2612.04
435.22	2621.40
435.41	2670.55
435.59	2546.50
435.78	2703.32
435.97	2572.25
436.16	2656.51
436.34	2637.78
436.53	2684.59
436.72	2775.88
436.90	2595.65
437.09	2670.55
437.28	2628.42
437.46	2614.38
437.65	2731.41
437.84	2836.73
438.02	2729.06
438.21	2888.22
438.40	2644.81
438.58	2874.18
438.77	2906.95
438.96	2691.62
439.14	2878.86
439.33	2853.11
439.52	3056.74
439.70	3023.97
439.89	2986.52
440.08	2883.54
440.26	3038.02
440.45	3131.64
440.63	3145.68
440.82	3173.77
441.01	3178.45
441.19	3101.21
441.38	3166.74
441.57	3068.44
441.75	3096.53
441.94	3370.37
442.12	3274.41
442.31	3372.71
442.50	3262.71
442.68	3323.56
442.87	3222.92
443.05	3339.94
443.24	3412.50
443.43	3368.03
443.61	3361.01
443.80	3557.61
443.98	3428.88
444.17	3141.00
444.35	3417.18
444.54	3396.12
444.73	3353.99
444.91	3314.20
445.10	3396.12
445.28	3426.54
445.47	3431.23
445.65	3356.33
445.84	3417.18
446.02	3468.67
446.21	3435.91
446.39	3405.48
446.58	3513.14
446.77	3562.30
446.95	3454.63
447.14	3456.97
447.32	3393.78
447.51	3492.08
447.69	3454.63
447.88	3515.48
448.06	3475.70
448.25	3325.90
448.43	3583.36
448.62	3515.48
448.80	3447.61
448.99	3576.34
449.17	3487.40
449.36	3494.42
449.54	3651.24
449.73	3742.52
449.91	3658.26
450.10	3672.30
450.28	3742.52
450.46	3770.60
450.65	3698.05
450.83	3714.43
451.02	3693.37
451.20	3925.08
451.39	3686.34
451.57	3686.34
451.76	3733.15
451.94	3698.05
452.13	3822.09
452.31	3770.60
452.49	3761.24
452.68	3901.67
452.86	3777.62
453.05	3918.06
453.23	3906.35
453.42	3779.97
453.60	3822.09
453.78	3850.18
453.97	3866.56
454.15	3948.48
454.34	3810.39
454.52	3913.38
454.70	4070.19
454.89	3939.12
455.07	4007.00
455.26	3992.95
455.44	4119.34
455.62	4070.19
455.81	4128.70
455.99	4023.38
456.17	4156.79
456.36	4231.69
456.54	4128.70
456.73	4170.83
456.91	4395.53
457.09	4304.25
457.28	4369.78
457.46	4217.65
457.64	4360.42
457.83	4276.16
458.01	4224.67
458.19	4224.67
458.38	4219.99
458.56	4407.23
458.74	4341.69
458.93	4421.27
459.11	4304.25
459.29	4430.63
459.48	4395.53
459.66	4428.29
459.84	4381.48
460.03	4610.86
460.21	4660.01
460.39	4498.51
460.57	4414.25
460.76	4559.36
460.94	4690.43
461.12	4568.73
461.31	4503.19
461.49	4617.88
461.67	4594.47
461.85	4755.97
462.04	4657.67
462.22	4877.68
462.40	4734.90
462.59	4634.26
462.77	4723.20
462.95	4788.74
463.13	4863.63
463.32	4711.50
463.50	4683.41
463.68	4905.76
463.86	4730.22
464.05	4854.27
464.23	4746.61
464.41	4880.02
464.59	4931.51
464.78	5062.58
464.96	4964.28
465.14	4880.02
465.32	4877.68
465.50	5071.94
465.69	4915.12
465.87	4975.98
466.05	5057.90
466.23	4898.74
466.41	5034.49
466.60	5231.10
466.78	4985.34
466.96	5053.22
467.14	4910.44
467.32	4929.17
467.51	5226.42
467.69	5177.26
467.87	5170.24
468.05	5149.18
468.23	5121.09
468.41	5109.39
468.60	5083.64
468.78	5296.63
468.96	5270.89
469.14	5132.79
469.32	5376.21
469.50	5085.98
469.69	5205.35
469.87	5448.77
470.05	5305.99
470.23	5303.65
470.41	5483.88
470.59	5565.79
470.77	5535.37
470.95	5416.00
471.14	5516.64
471.32	5439.40
471.50	5607.92
471.68	5493.24
471.86	5533.03
472.04	5575.16
472.22	5736.65
472.40	5650.05
472.58	5703.89
472.77	5701.54
472.95	5823.25
473.13	5956.66
473.31	5753.04
473.49	5746.02
473.67	5860.70
473.85	5781.12
474.03	5802.19
474.21	5991.77
474.39	6169.65
474.57	5987.09
474.75	6083.05
474.93	6179.01
475.12	6218.80
475.30	6071.35
475.48	6139.23
475.66	6333.49
475.84	6251.57
476.02	6171.99
476.20	6438.81
476.38	6345.19
476.56	6485.62
476.74	6539.46
476.92	6539.46
477.10	6284.34
477.28	6682.23
477.46	6616.69
477.64	6647.12
477.82	6825.00
478.00	6794.58
478.18	6953.73
478.36	7087.14
478.54	7119.91
478.72	6981.82
478.90	7005.22
479.08	7208.85
479.26	7363.33
479.44	7187.79
479.62	7433.54
479.80	7281.41
479.98	7454.61
480.16	7431.20
480.34	7517.80
480.52	7721.43
480.70	7396.09
480.88	7681.64
481.06	7566.95
481.24	7798.66
481.41	8011.65
481.59	7978.89
481.77	7971.86
481.95	7948.46
482.13	8074.85
482.31	8058.46
482.49	8145.06
482.67	8369.76
482.85	8271.45
483.03	8547.64
483.21	8599.13
483.39	8468.06
483.57	8418.91
483.74	8514.87
483.92	8793.39
484.10	8510.19
484.28	8727.86
484.46	8908.08
484.64	9217.03
484.82	8961.91
485.00	8908.08
485.18	9085.96
485.35	9423.00
485.53	9249.80
485.71	9334.06
485.89	9797.48
486.07	9460.45
486.25	9771.74
486.43	9603.22
486.61	9713.22
486.78	9820.89
486.96	10111.11
487.14	10108.77
487.32	9966.00
487.50	10097.07
487.68	10298.36
487.85	10272.61
488.03	10455.17
488.21	10684.55
488.39	10551.14
488.57	10635.39
488.75	10698.59
488.92	10853.06
489.10	10836.68
489.28	10939.66
489.46	10972.43
489.64	11112.86
489.81	11197.12
489.99	11197.12
490.17	11201.80
490.35	11358.62
490.53	11555.22
490.70	11477.99
490.88	11543.52
491.06	11445.22
491.24	11782.26
491.41	11698.00
491.59	12077.16
491.77	11822.05
491.95	12208.23
492.13	12011.63
492.30	12304.20
492.48	12304.20
492.66	12109.93
492.84	12149.72
493.01	12444.63
493.19	12411.86
493.37	12725.49
493.54	12713.79
493.72	12725.49
493.90	12634.21
494.08	13226.37
494.25	12971.25
494.43	12901.03
494.61	13399.57
494.79	13406.59
494.96	13298.92
495.14	13177.22
495.32	13628.94
495.49	13305.95
495.67	13760.01
495.85	13530.64
496.02	13898.10
496.20	13853.63
496.38	13778.73
496.55	13706.18
496.73	14113.43
496.91	14031.51
497.09	14281.95
497.26	14445.79
497.44	14331.10
497.62	14188.33
497.79	14546.43
497.97	14469.19
498.14	14576.86
498.32	14993.47
498.50	14871.76
498.67	15016.88
498.85	15037.94
499.03	15037.94
499.20	15089.43
499.38	15166.67
499.56	15002.83
499.73	15384.34
499.91	15279.02
500.08	15484.98
500.26	15302.42
500.44	15503.71
500.61	15510.73
500.79	15550.52
500.97	15571.58
501.14	15920.32
501.32	15798.62
501.49	15906.28
501.67	15793.94
501.84	15714.36
502.02	15899.26
502.20	15871.17
502.37	16130.97
502.55	15983.52
502.72	16299.49
502.90	16091.18
503.07	16079.48
503.25	16313.53
503.43	16191.83
503.60	16561.63
503.78	16556.95
503.95	16482.05
504.13	16648.23
504.30	16643.55
504.48	16517.16
504.65	16697.38
504.83	16664.61
505.01	16938.46
505.18	17348.05
505.36	17226.34
505.53	16924.41
505.71	16994.63
505.88	17270.81
506.06	16938.46
506.23	17282.52
506.41	17078.89
506.58	17603.17
506.76	17261.45
506.93	17530.61
507.11	17390.18
507.28	17493.16
507.46	17797.43
507.63	17816.16
507.81	17717.86
507.98	17848.93
508.16	17837.22
508.33	17816.16
508.50	17769.35
508.68	17600.83
508.85	18052.55
509.03	18050.21
509.20	18239.79
509.38	18143.83
509.55	18291.29
509.73	18125.11
509.90	18010.42
510.08	18366.18
510.25	18214.05
510.42	18649.39
510.60	18668.11
510.77	18752.37
510.95	18572.15
511.12	18733.65
511.30	18618.96
511.47	18974.72
511.64	18920.89
511.82	18850.67
511.99	18841.31
512.17	18977.06
512.34	19075.37
512.51	19066.00
512.69	19318.78
512.86	19197.07
513.04	19136.22
513.21	19337.51
513.38	19325.80
513.56	19421.77
513.73	19346.87
513.90	19447.51
514.08	19454.53
514.25	19660.50
514.43	19669.86
514.60	19836.04
514.77	19653.48
514.95	20168.40
515.12	19854.76
515.29	19737.74
515.47	19789.23
515.64	20226.91
515.81	20006.90
515.99	19985.83
516.16	20299.47
516.33	20549.90
516.51	20425.86
516.68	20276.06
516.85	20177.76
517.03	20421.17
517.20	20467.98
517.37	20383.73
517.54	20697.36
517.72	20617.78
517.89	20779.28
518.06	20407.13
518.24	20624.80
518.41	20629.48
518.58	20599.05
518.75	20856.51
518.93	21120.99
519.10	20891.62
519.27	21069.50
519.45	20842.47
519.62	20870.56
519.79	20870.56
519.96	20905.66
520.14	21455.69
520.31	21202.91
520.48	21202.91
520.65	21404.20
520.83	21160.78
521.00	21233.34
521.17	21128.02
521.34	21453.35
521.52	21642.93
521.69	21418.24
521.86	21687.40
522.03	21769.32
522.20	21731.87
522.38	21909.75
522.55	21448.67
522.72	21727.19
522.89	22143.81
523.07	22567.45
523.24	22153.17
523.41	22092.32
523.58	21724.85
523.75	22242.11
523.92	21994.01
524.10	22115.72
524.27	21876.99
524.44	22249.13
524.61	22541.70
524.78	22506.59
524.96	22508.93
525.13	22480.85
525.30	22412.97
525.47	22419.99
525.64	22377.86
525.81	22829.59
525.98	22771.07
526.16	22567.45
526.33	22459.78
526.50	22733.62
526.67	22527.66
526.84	22778.09
527.01	22553.40
527.18	22773.41
527.36	22909.16
527.53	23075.34
527.70	23115.13
527.87	22841.29
528.04	23133.86
528.21	23438.12
528.38	23372.59
528.55	23143.22
528.72	23190.03
528.89	23330.46
529.07	23243.86
529.24	23379.61
529.41	23580.90
529.58	23623.03
529.75	23414.72
529.92	23634.73
530.09	23573.88
530.26	23927.30
530.43	23833.68
530.60	23559.83
530.77	23461.53
530.94	24123.90
531.11	23630.05
531.28	23541.11
531.46	24018.58
531.63	23866.44
531.80	23878.15
531.97	23922.62
532.14	23960.06
532.31	23768.14
532.48	24156.67
532.65	23960.06
532.82	24049.00
532.99	24168.37
533.16	24065.39
533.33	24280.72
533.50	24634.14
533.67	24472.64
533.84	24070.07
534.01	24512.43
534.18	23948.36
534.35	24472.64
534.52	24362.64
534.69	24334.55
534.86	25085.86
535.03	24367.32
535.20	24467.96
535.37	24379.02
535.54	24418.81
535.71	24432.85
535.88	24772.23
536.05	24589.67
536.22	24994.58
536.38	24933.73
536.55	24940.75
536.72	25064.80
536.89	25020.33
537.06	25055.43
537.23	24926.71
537.40	24999.26
537.57	25043.73
537.74	25200.55
537.91	25303.53
538.08	25319.92
538.25	25153.74
538.42	25130.33
538.59	24938.41
538.75	24915.00
538.92	25120.97
539.09	25366.73
539.26	25483.75
539.43	25317.57
539.60	25390.13
539.77	25642.91
539.94	25624.18
540.11	25645.25
540.28	25422.90
540.44	26008.03
540.61	25837.17
540.78	25773.98
540.95	25816.11
541.12	25472.05
541.29	25806.75
541.46	25600.78
541.62	25607.80
541.79	25551.63
541.96	25586.74
542.13	25715.47
542.30	25872.28
542.47	25898.03
542.63	26237.41
542.80	26171.87
542.97	26647.00
543.14	26375.50
543.31	26284.22
543.48	26043.14
543.64	26555.72
543.81	26665.72
543.98	26462.10
544.15	26588.49
544.32	26656.36
544.48	26890.41
544.65	26595.51
544.82	26183.57
544.99	26031.44
545.16	26536.99
545.32	26279.54
545.49	26925.52
545.66	26899.78
545.83	26494.86
546.00	27136.17
546.16	26572.10
546.33	26565.08
546.50	26583.80
546.67	26958.29
546.83	26518.27
547.00	26548.70
547.17	26740.62
547.34	26796.79
547.50	27091.70
547.67	27218.09
547.84	27098.72
548.00	26806.16
548.17	26822.54
548.34	27164.26
548.51	26925.52
548.67	26911.48
548.84	27119.79
549.01	26862.33
549.18	27082.34
549.34	26995.74
549.51	27587.89
549.68	27009.78
549.84	27211.07
550.01	27215.75
550.18	27150.21
550.34	27379.59
550.51	27644.07
550.68	27695.56
550.84	27353.84
551.01	27770.46
551.18	27030.85
551.34	27367.88
551.51	27274.26
551.68	27946.00
551.84	27665.13
552.01	27517.68
552.18	27796.20
552.34	27388.95
552.51	27906.21
552.68	27513.00
552.84	27903.87
553.01	27723.65
553.18	27725.99
553.34	27737.69
553.51	27875.78
553.67	27838.33
553.84	27749.39
554.01	27833.65
554.17	27843.01
554.34	27866.42
554.51	27875.78
554.67	28067.70
554.84	28027.92
555.00	28168.35
555.17	28264.31
555.33	28116.86
555.50	27976.42
555.67	28276.01
555.83	28039.62
556.00	28615.39
556.16	28479.64
556.33	28044.30
556.50	28283.03
556.66	28685.61
556.83	28205.80
556.99	28219.84
557.16	28489.00
557.32	28893.91
557.49	28765.18
557.65	28023.23
557.82	28254.95
557.98	28479.64
558.15	28273.67
558.32	28683.27
558.48	28613.05
558.65	28800.29
558.81	28545.17
558.98	28512.41
559.14	28250.27
559.31	28587.30
559.47	28503.04
559.64	28842.42
559.80	29013.28
559.97	28697.31
560.13	28390.70
560.30	28952.43
560.46	28680.92
560.63	29076.48
560.79	28912.64
560.96	28638.80
561.12	28582.62
561.29	28718.37
561.45	28657.52
561.61	28957.11
561.78	28765.18
561.94	28821.36
562.11	28999.24
562.27	28795.61
562.44	28957.11
562.60	28680.92
562.77	28678.58
562.93	28594.32
563.10	29127.97
563.26	28613.05
563.42	29207.55
563.59	29528.20
563.75	28980.51
563.92	29252.02
564.08	28758.16
564.24	29188.82
564.41	28879.87
564.57	28793.27
564.74	28599.01
564.90	29343.30
565.07	29247.33
565.23	29544.58
565.39	29142.01
565.56	29092.86
565.72	29125.63
565.88	28889.23
566.05	29008.60
566.21	29317.55
566.38	29240.31
566.54	29284.78
566.70	29198.18
566.87	29619.48
567.03	29214.57
567.19	29390.11
567.36	29275.42
567.52	29249.67
567.68	29551.60
567.85	29039.03
568.01	29200.52
568.17	29778.64
568.34	29352.66
568.50	29518.84
568.66	29670.97
568.83	29722.46
568.99	29579.69
569.15	29497.77
569.32	29244.99
569.48	29539.90
569.64	29179.46
569.81	29331.59
569.97	29369.04
570.13	29441.60
570.30	29448.62
570.46	29518.84
570.62	29598.41
570.78	29813.74
570.95	29619.48
571.11	29806.72
571.27	29249.67
571.43	29324.57
571.60	29888.64
571.76	29432.24
571.92	29413.51
572.09	29867.58
572.25	29380.74
572.41	29422.87
572.57	29722.46
572.74	29542.24
572.90	29212.23
573.06	29427.56
573.22	29380.74
573.38	29670.97
573.55	29397.13
573.71	29378.40
573.87	29472.03
574.03	29898.00
574.20	29600.76
574.36	29336.27
574.52	29848.85
574.68	29490.75
574.84	30005.67
575.01	29713.10
575.17	29738.85
575.33	29647.57
575.49	29596.07
575.65	29724.80
575.82	29476.71
575.98	29387.77
576.14	30005.67
576.30	30064.18
576.46	29565.65
576.62	29706.08
576.79	30052.48
576.95	29752.89
577.11	29790.34
577.27	29738.85
577.43	29902.68
577.59	29818.42
577.75	30089.93
577.92	29378.40
578.08	29422.87
578.24	29383.09
578.40	30019.71
578.56	29722.46
578.72	30075.88
578.88	29949.50
579.04	30050.14
579.21	29462.66
579.37	29617.14
579.53	29888.64
579.69	29465.00
579.85	29495.43
580.01	29703.74
580.17	29717.78
580.33	29689.70
580.49	29752.89
580.65	29963.54
580.82	29823.11
580.98	29752.89
581.14	29949.50
581.30	29631.18
581.46	29965.88
581.62	29755.23
581.78	29441.60
581.94	29670.97
582.10	29563.31
582.26	29596.07
582.42	29996.31
582.58	30054.82
582.74	29797.36
582.90	29979.92
583.06	29696.72
583.22	29549.26
583.38	29710.76
583.54	30129.72
583.70	29596.07
583.86	30026.73
584.02	29436.92
584.18	30026.73
584.34	30312.28
584.50	29905.02
584.66	29706.08
584.82	29523.52
584.98	29898.00
585.14	29949.50
585.30	29654.59
585.46	30108.65
585.62	30190.57
585.78	30270.15
585.94	29441.60
586.10	29909.71
586.26	30157.80
586.42	30281.85
586.58	30178.87
586.74	29813.74
586.90	30132.06
587.06	29549.26
587.22	29893.32
587.38	30066.52
587.54	29790.34
587.70	30178.87
587.86	30284.19
588.02	30338.02
588.18	30452.71
588.34	30003.33
588.49	30110.99
588.65	30045.46
588.81	29783.32
588.97	30160.14
589.13	30103.97
589.29	30017.37
589.45	29895.66
589.61	30101.63
589.77	30356.75
589.93	30106.31
590.08	30316.96
590.24	30672.72
590.40	30532.29
590.56	30497.18
590.72	30160.14
590.88	29614.80
591.04	30450.37
591.20	30218.66
591.35	30646.97
591.51	30370.79
591.67	30614.21
591.83	30675.06
591.99	30422.28
592.15	30307.60
592.31	29986.94
592.46	30216.32
592.62	30382.49
592.78	30125.04
592.94	30190.57
593.10	30167.16
593.26	30448.03
593.41	30646.97
593.57	30897.41
593.73	30410.58
593.89	30841.24
594.05	30668.04
594.20	30206.95
594.36	30284.19
594.52	30281.85
594.68	30410.58
594.84	30546.33
594.99	30892.73
595.15	30778.04
595.31	30595.48
595.47	30438.67
595.62	30286.53
595.78	30110.99
595.94	30466.75
596.10	30501.86
596.25	30593.14
596.41	30604.84
596.57	30024.39
596.73	30934.86
596.88	30288.87
597.04	30443.35
597.20	30780.39
597.36	30581.44
597.51	30932.52
597.67	30316.96
597.83	30132.06
597.99	30441.01
598.14	30445.69
598.30	30569.74
598.46	30394.20
598.61	30525.27
598.77	30719.53
598.93	30789.75
599.09	30682.08
599.24	30852.94
599.40	30740.60
599.56	30955.93
599.71	30738.26
599.87	30103.97
600.03	30438.67
600.18	30581.44
600.34	30408.24
600.50	30588.46
600.65	30658.68
600.81	30850.60
600.97	30866.98
601.12	30581.44
601.28	30712.51
601.44	30616.55
601.59	30707.83
601.75	30586.12
601.91	30672.72
602.06	30448.03
602.22	30522.93
602.37	30586.12
602.53	30494.84
602.69	30920.82
602.84	30710.17
603.00	30529.95
603.16	30808.47
603.31	30373.13
603.47	30787.41
603.62	30628.25
603.78	30672.72
603.94	30305.26
604.09	30366.11
604.25	30597.82
604.40	30443.35
604.56	30614.21
604.71	30543.99
604.87	30426.96
605.03	30764.00
605.18	30726.55
605.34	30794.43
605.49	30490.16
605.65	30352.07
605.80	30043.12
605.96	30469.09
606.12	30480.80
606.27	30724.21
606.43	30340.36
606.58	30469.09
606.74	30391.86
606.89	30230.36
607.05	30583.78
607.20	30703.15
607.36	30654.00
607.51	30527.61
607.67	30469.09
607.82	30218.66
607.98	30209.29
608.13	30061.84
608.29	30403.56
608.44	30441.01
608.60	30555.69
608.75	30419.94
608.91	30394.20
609.06	30417.60
609.22	30087.59
609.37	30555.69
609.53	29888.64
609.68	30010.35
609.84	30185.89
609.99	30291.21
610.15	30059.50
610.30	30206.95
610.46	30087.59
610.61	30583.78
610.76	30562.72
610.92	30682.08
611.07	30555.69
611.23	30190.57
611.38	29977.58
611.54	29734.17
611.69	29963.54
611.84	30031.41
612.00	30122.69
612.15	30188.23
612.31	30167.16
612.46	30223.34
612.62	30223.34
612.77	29874.60
612.92	30527.61
613.08	30082.91
613.23	29635.86
613.39	30218.66
613.54	30089.93
613.69	29951.84
613.85	29692.04
614.00	30094.61
614.15	30167.16
614.31	30146.10
614.46	29982.26
614.62	29951.84
614.77	30012.69
614.92	29837.15
615.08	29848.85
615.23	30012.69
615.38	29582.03
615.54	29607.78
615.69	29668.63
615.84	29944.81
616.00	29944.81
616.15	29766.93
616.30	29944.81
616.46	29851.19
616.61	30045.46
616.76	29975.24
616.92	29921.41
617.07	29694.38
617.22	29362.02
617.37	29888.64
617.53	29668.63
617.68	29722.46
617.83	29422.87
617.99	29813.74
618.14	29699.06
618.29	29572.67
618.45	29596.07
618.60	29476.71
618.75	29556.28
618.90	29556.28
619.06	29563.31
619.21	29507.13
619.36	29869.92
619.51	29092.86
619.67	29001.58
619.82	29053.07
619.97	29420.53
620.12	29219.25
620.28	29134.99
620.43	29427.56
620.58	29539.90
620.73	29631.18
620.89	29586.71
621.04	29369.04
621.19	29422.87
621.34	29359.68
621.49	29242.65
621.65	29067.11
621.80	29434.58
621.95	29008.60
622.10	29069.45
622.25	28982.85
622.41	29413.51
622.56	28779.23
622.71	29333.93
622.86	28917.32
623.01	29125.63
623.16	29202.86
623.32	28734.76
623.47	29282.44
623.62	29315.21
623.77	29036.69
623.92	29017.96
624.07	29076.48
624.23	29078.82
624.38	29053.07
624.53	28781.57
624.68	29212.23
624.83	29165.42
624.98	29036.69
625.13	29149.03
625.29	28463.25
625.44	28772.21
625.59	28769.86
625.74	28790.93
625.89	28517.09
626.04	28606.03
626.19	28374.31
626.34	28577.94
626.49	28472.62
626.65	28577.94
626.80	29097.54
626.95	28713.69
627.10	28648.16
627.25	28329.84
627.40	28589.64
627.55	28587.30
627.70	28521.77
627.85	28107.49
628.00	28430.49
628.15	28397.72
628.30	28133.24
628.45	28542.83
628.60	28140.26
628.76	28563.90
628.91	28697.31
629.06	28439.85
629.21	28341.55
629.36	28388.36
629.51	28318.14
629.66	28116.86
629.81	28060.68
629.96	28201.11
630.11	28084.09
630.26	28072.39
630.41	28032.60
630.56	28041.96
630.71	28233.88
630.86	28147.28
631.01	28013.87
631.16	28318.14
631.31	28032.60
631.46	28336.87
631.61	28257.29
631.76	28135.58
631.91	28247.93
632.06	27789.18
632.21	27740.03
632.36	27835.99
632.51	27424.06
632.66	27929.61
632.81	28142.60
632.96	28011.53
633.10	27805.56
633.25	28011.53
633.40	27784.50
633.55	27873.44
633.70	27655.77
633.85	27894.50
634.00	27924.93
634.15	27360.86
634.30	27648.75
634.45	27456.82
634.60	27782.16
634.75	27541.08
634.90	27669.81
635.05	27927.27
635.19	27747.05
635.34	28294.74
635.49	27693.22
635.64	27917.91
635.79	27859.40
635.94	27545.76
636.09	27775.14
636.24	27632.36
636.39	27063.61
636.53	27646.41
636.68	27552.79
636.83	27599.60
636.98	27564.49
637.13	27344.48
637.28	27803.22
637.43	27445.12
637.57	27452.14
637.72	27510.66
637.87	27250.86
638.02	27569.17
638.17	27234.47
638.32	27407.67
638.46	27054.25
638.61	27182.98
638.76	27243.84
638.91	27206.39
639.06	27154.90
639.20	26984.04
639.35	27108.08
639.50	27302.35
639.65	27206.39
639.80	27501.29
639.94	27295.33
640.09	27211.07
640.24	27461.51
640.39	26944.25
640.54	26941.91
640.68	27012.12
640.83	26845.94
640.98	26590.83
641.13	26464.44
641.27	27367.88
641.42	26686.79
641.57	27117.45
641.72	27005.10
641.86	26890.41
642.01	26757.00
642.16	26906.80
642.31	26778.07
642.45	26696.15
642.60	26562.74
642.75	26616.57
642.90	26328.69
643.04	26724.24
643.19	26647.00
643.34	26775.73
643.48	26637.64
643.63	26792.11
643.78	26635.30
643.93	26766.37
644.07	26822.54
644.22	26841.26
644.37	26408.26
644.51	26778.07
644.66	26588.49
644.81	26211.66
644.95	26721.90
645.10	26272.51
645.25	26096.97
645.39	26441.03
645.54	26075.91
645.69	26256.13
645.83	26246.77
645.98	26614.23
646.13	26574.44
646.27	26555.72
646.42	26757.00
646.57	26691.47
646.71	26125.06
646.86	26410.60
647.00	26525.29
647.15	26319.32
647.30	26164.85
647.44	26132.08
647.59	26061.87
647.74	26134.42
647.88	26237.41
648.03	26361.45
648.17	26263.15
648.32	26464.44
648.47	26368.48
648.61	26293.58
648.76	26452.73
648.90	26450.39
649.05	26396.56
649.20	26150.81
649.34	25909.73
649.49	25453.33
649.63	25926.11
649.78	26050.16
649.92	26071.23
650.07	26157.83
650.21	25949.52
650.36	25839.51
650.51	25607.80
650.65	26024.42
650.80	25954.20
650.94	25715.47
651.09	25820.79
651.23	25809.09
651.38	25937.82
651.52	25750.57
651.67	25720.15
651.81	26036.12
651.96	25979.95
652.10	25757.60
652.25	25930.80
652.39	26071.23
652.54	25926.11
652.68	25680.36
652.83	25469.71
652.97	26164.85
653.12	25542.27
653.26	25797.38
653.41	25713.13
653.55	25577.37
653.70	25397.15
653.84	25537.59
653.99	25385.45
654.13	25408.86
654.27	25481.41
654.42	25362.04
654.56	25628.87
654.71	25797.38
654.85	25448.64
655.00	25537.59
655.14	25731.85
655.29	25359.70
655.43	25685.04
655.57	25525.88
655.72	25682.70
655.86	25418.22
656.01	25610.14
656.15	25209.91
656.30	25010.96
656.44	25628.87
656.58	25336.30
656.73	25256.72
656.87	25022.67
657.01	25277.79
657.16	25179.48
657.30	25345.66
657.45	25184.16
657.59	25415.88
657.73	24938.41
657.88	24929.05
658.02	25132.67
658.16	24741.80
658.31	24875.21
658.45	24709.04
658.60	24966.49
658.74	24821.38
658.88	24680.95
659.03	25053.09
659.17	24957.13
659.31	25057.78
659.46	24751.17
659.60	25006.28
659.74	24910.32
659.89	24788.61
660.03	24587.33
660.17	24589.67
660.32	24840.11
660.46	24482.00
660.60	24631.80
660.74	24535.84
660.89	24383.70
661.03	24652.86
661.17	24453.92
661.32	24521.79
661.46	24872.87
661.60	24238.59
661.74	24580.31
661.89	24465.62
662.03	24236.25
662.17	24198.80
662.31	23971.77
662.46	24112.20
662.60	23953.04
662.74	24219.86
662.88	24123.90
663.03	23976.45
663.17	23800.91
663.31	23676.86
663.45	23929.64
663.60	23786.86
663.74	23538.77
663.88	23887.51
664.02	23730.69
664.17	23749.42
664.31	24126.24
664.45	23758.78
664.59	23779.84
664.73	23864.10
664.88	23517.70
665.02	23513.02
665.16	23580.90
665.30	23358.55
665.44	23419.40
665.59	23498.98
665.73	23381.95
665.87	23213.43
666.01	23185.35
666.15	23419.40
666.29	23314.08
666.44	23489.62
666.58	23225.14
666.72	23175.98
666.86	23328.12
667.00	23054.28
667.14	23161.94
667.28	23103.43
667.43	23030.87
667.57	23328.12
667.71	23080.02
667.85	23077.68
667.99	22850.65
668.13	22951.29
668.27	22668.09
668.41	22817.88
668.56	22544.04
668.70	22719.58
668.84	23101.09
668.98	22850.65
669.12	22815.54
669.26	22841.29
669.40	22597.87
669.54	22766.39
669.68	22806.18
669.82	22319.35
669.96	22642.34
670.10	22333.39
670.25	22466.80
670.39	22281.90
670.53	22321.69
670.67	22169.55
670.81	22211.68
670.95	22260.84
671.09	22272.54
671.23	22300.62
671.37	21984.65
671.51	22382.54
671.65	22064.23
671.79	22342.75
671.93	21972.95
672.07	21816.13
672.21	21989.33
672.35	21577.40
672.49	21696.77
672.63	21605.49
672.77	21530.59
672.91	21474.42
673.05	21357.39
673.19	22125.08
673.33	21675.70
673.47	21685.06
673.61	21628.89
673.75	21633.57
673.89	21724.85
674.03	21605.49
674.17	21427.60
674.31	21280.15
674.45	21048.44
674.59	21429.94
674.73	21207.59
674.87	21383.13
675.01	21067.16
675.15	20805.02
675.29	20779.28
675.43	20952.48
675.56	21137.38
675.70	20929.07
675.84	20662.25
675.98	20601.40
676.12	20673.95
676.26	21006.31
676.40	20603.74
676.54	20460.96
676.68	20760.55
676.82	20388.41
676.96	20255.00
677.10	20404.79
677.23	20285.42
677.37	20327.55
677.51	20168.40
677.65	20212.87
677.79	20121.59
677.93	20065.41
678.07	20067.75
678.21	19686.25
678.34	19740.08
678.48	19885.19
678.62	19812.63
678.76	19475.60
678.90	19623.05
679.04	19367.93
679.18	19288.35
679.31	19190.05
679.45	19405.38
679.59	18979.40
679.73	19185.37
679.87	18934.93
680.00	19185.37
680.14	18764.07
680.28	19119.84
680.42	19421.77
680.56	18766.42
680.70	19213.46
680.83	19037.92
680.97	19014.51
681.11	18836.63
681.25	18675.13
681.39	18700.88
681.52	18740.67
681.66	18403.63
681.80	18546.40
681.94	18384.91
682.07	18635.35
682.21	18122.77
682.35	18073.62
682.49	18150.85
682.62	18141.49
682.76	18064.25
682.90	18377.89
683.04	18267.88
683.17	17834.88
683.31	17792.75
683.45	18090.00
683.59	18040.85
683.72	17839.56
683.86	17832.54
684.00	17458.06
684.13	17750.62
684.27	17362.09
684.41	17434.65
684.55	17111.66
684.68	17493.16
684.82	16980.59
684.96	17046.12
685.09	17235.70
685.23	17233.36
685.37	16753.55
685.50	17249.75
685.64	16980.59
685.78	16940.80
685.91	17064.85
686.05	17074.21
686.19	17069.53
686.32	16699.72
686.46	16596.74
686.60	16379.07
686.73	16730.15
686.87	16372.05
687.01	16622.48
687.14	16645.89
687.28	16070.12
687.42	16283.11
687.55	16065.44
687.69	16149.70
687.82	16285.45
687.96	16011.60
688.10	16231.62
688.23	16145.02
688.37	15925.00
688.50	15927.35
688.64	16035.01
688.78	15913.30
688.91	15768.19
689.05	15555.20
689.18	15447.54
689.32	15272.00
689.46	15304.76
689.59	15508.39
689.73	15257.95
689.86	15360.94
690.00	14979.43
690.13	15281.36
690.27	15138.58
690.41	15470.94
690.54	15119.86
690.68	15101.14
690.81	15365.62
690.95	15014.54
691.08	14951.34
691.22	15021.56
691.35	14906.87
691.49	14977.09
691.62	14759.42
691.76	14565.15
691.89	14431.74
692.03	14487.92
692.16	14267.91
692.30	14141.52
692.43	14415.36
692.57	14284.29
692.70	14036.19
692.84	14136.84
692.97	13956.61
693.11	14139.18
693.24	14120.45
693.38	13912.14
693.51	13783.41
693.65	14075.98
693.78	13589.15
693.92	13860.65
694.05	13855.97
694.19	13640.64
694.32	13642.98
694.45	13713.20
694.59	13411.27
694.72	13380.84
694.86	13394.89
694.99	13172.54
695.13	13261.48
695.26	13415.95
695.39	13057.85
695.53	13198.28
695.66	13294.24
695.80	13006.36
695.93	13268.50
696.07	13125.72
696.20	13029.76
696.33	13060.19
696.47	12692.73
696.60	13018.06
696.73	12484.42
696.87	12835.50
697.00	12610.81
697.14	12690.38
697.27	12468.03
697.40	12308.88
697.54	12322.92
697.67	12191.85
697.80	12264.41
697.94	12133.34
698.07	12067.80
698.21	12226.96
698.34	12009.29
698.47	12173.13
698.61	11927.37
698.74	12025.67
698.87	11786.94
699.01	11824.39
699.14	11946.09
699.27	11754.17
699.40	11777.58
699.54	11967.16
699.67	11728.42
699.80	11566.93
699.94	11435.86
700.07	11440.54
700.20	11545.86
700.34	11183.08
700.47	11286.06
700.60	11220.53
700.73	11314.15
700.87	11255.64
701.00	11098.82
701.13	11122.23
701.26	11140.95
701.40	11197.12
701.53	11052.01
701.66	11063.71
701.79	11033.29
701.93	10916.26
702.06	10820.30
702.19	10626.03
702.32	10810.93
702.46	10626.03
702.59	10396.66
702.72	10469.22
702.85	10279.63
702.99	10417.72
703.12	10340.49
703.25	10441.13
703.38	10443.47
703.51	10338.15
703.65	10139.20
703.78	10244.52
703.91	10111.11
704.04	10232.82
704.17	10108.77
704.31	10183.67
704.44	10092.39
704.57	9804.50
704.70	9956.64
704.83	9762.37
704.96	9682.80
705.10	9710.88
705.23	9607.90
>>>>>End Processed Spectral Data<<<<<
