SpectraSuite Data File
++++++++++++++++++++++++++++++++++++
Date: Fri Oct 18 13:58:42 GMT-05:00 2013
User: bianchi
Dark Spectrum Present: No
Reference Spectrum Present: No
Number of Sampled Component Spectra: 1
Spectrometers: USB2+H05261
Integration Time (usec): 50000 (USB2+H05261)
Spectra Averaged: 1 (USB2+H05261)
Boxcar Smoothing: 0 (USB2+H05261)
Correct for Electrical Dark: No (USB2+H05261)
Strobe/Lamp Enabled: No (USB2+H05261)
Correct for Detector Non-linearity: No (USB2+H05261)
Correct for Stray Light: No (USB2+H05261)
Number of Pixels in Processed Spectrum: 2048
>>>>>Begin Processed Spectral Data<<<<<
365.73	58.51
365.92	58.51
366.12	58.51
366.32	0.00
366.52	0.00
366.72	0.00
366.91	0.00
367.11	0.00
367.31	0.00
367.51	0.00
367.70	0.00
367.90	0.00
368.10	0.00
368.30	0.00
368.49	0.00
368.69	0.00
368.89	0.00
369.09	0.00
369.28	0.00
369.48	0.00
369.68	0.00
369.87	0.00
370.07	0.00
370.27	0.00
370.47	0.00
370.66	49.15
370.86	23.41
371.06	114.69
371.25	145.11
371.45	112.35
371.65	182.56
371.84	138.09
372.04	156.82
372.24	173.20
372.44	156.82
372.63	177.88
372.83	262.14
373.03	189.58
373.22	304.27
373.42	248.10
373.62	187.24
373.81	222.35
374.01	231.71
374.21	238.73
374.40	248.10
374.60	306.61
374.79	217.67
374.99	264.48
375.19	330.02
375.38	278.52
375.58	212.99
375.78	248.10
375.97	215.33
376.17	271.50
376.37	229.37
376.56	337.04
376.76	264.48
376.95	196.60
377.15	255.12
377.35	259.80
377.54	320.65
377.74	304.27
377.93	217.67
378.13	201.29
378.33	308.95
378.52	276.18
378.72	278.52
378.91	294.91
379.11	332.36
379.31	236.39
379.50	250.44
379.70	330.02
379.89	255.12
380.09	269.16
380.28	358.10
380.48	299.59
380.68	294.91
380.87	264.48
381.07	234.05
381.26	266.82
381.46	264.48
381.65	334.70
381.85	297.25
382.04	311.29
382.24	287.89
382.43	365.12
382.63	376.83
382.83	362.78
383.02	407.25
383.22	386.19
383.41	344.06
383.61	374.49
383.80	383.85
384.00	339.38
384.19	308.95
384.39	400.23
384.58	318.31
384.78	306.61
384.97	344.06
385.17	411.93
385.36	358.10
385.56	332.36
385.75	400.23
385.95	318.31
386.14	407.25
386.34	430.66
386.53	414.27
386.72	470.45
386.92	444.70
387.11	503.22
387.31	383.85
387.50	461.09
387.70	400.23
387.89	463.43
388.09	400.23
388.28	463.43
388.48	428.32
388.67	449.38
388.86	451.72
389.06	404.91
389.25	479.81
389.45	386.19
389.64	423.64
389.84	414.27
390.03	411.93
390.22	475.13
390.42	491.51
390.61	442.36
390.81	559.39
391.00	423.64
391.19	493.85
391.39	409.59
391.58	454.06
391.78	496.19
391.97	498.53
392.16	486.83
392.36	552.37
392.55	564.07
392.75	554.71
392.94	524.28
393.13	575.77
393.33	554.71
393.52	484.49
393.71	547.69
393.91	503.22
394.10	580.45
394.29	500.87
394.49	573.43
394.68	543.00
394.88	564.07
395.07	622.58
395.26	653.01
395.46	571.09
395.65	535.98
395.84	624.92
396.04	697.48
396.23	643.65
396.42	690.46
396.62	610.88
396.81	734.93
397.00	592.16
397.19	638.97
397.39	695.14
397.58	669.39
397.77	631.94
397.97	641.31
398.16	695.14
398.35	690.46
398.55	678.76
398.74	692.80
398.93	706.84
399.12	702.16
399.32	737.27
399.51	669.39
399.70	669.39
399.90	676.41
400.09	763.01
400.28	765.36
400.47	702.16
400.67	814.51
400.86	751.31
401.05	774.72
401.24	718.54
401.44	802.80
401.63	763.01
401.82	844.93
402.01	788.76
402.21	793.44
402.40	814.51
402.59	819.19
402.78	816.85
402.97	791.10
403.17	896.43
403.36	833.23
403.55	910.47
403.74	849.61
403.93	898.77
404.13	908.13
404.32	903.45
404.51	947.92
404.70	842.59
404.89	866.00
405.09	898.77
405.28	929.19
405.47	887.06
405.66	1050.90
405.85	1013.45
406.05	938.55
406.24	943.24
406.43	947.92
406.62	990.05
406.81	1062.60
407.00	978.34
407.20	915.15
407.39	994.73
407.58	1050.90
407.77	1025.15
407.96	1043.88
408.15	1034.52
408.34	1076.65
408.54	1015.79
408.73	1086.01
408.92	1067.28
409.11	1088.35
409.30	1100.05
409.49	1116.44
409.68	1191.33
409.87	1118.78
410.07	1198.35
410.26	1224.10
410.45	1022.81
410.64	1238.14
410.83	1219.42
411.02	1153.88
411.21	1231.12
411.40	1210.06
411.59	1287.29
411.78	1301.34
411.98	1334.11
412.17	1273.25
412.36	1275.59
412.55	1310.70
412.74	1336.45
412.93	1310.70
413.12	1320.06
413.31	1404.32
413.50	1270.91
413.69	1455.81
413.88	1488.58
414.07	1462.83
414.26	1448.79
414.45	1437.09
414.64	1434.75
414.83	1455.81
415.02	1465.18
415.22	1612.63
415.41	1504.96
415.60	1413.68
415.79	1664.12
415.98	1556.46
416.17	1619.65
416.36	1490.92
416.55	1603.27
416.74	1619.65
416.93	1629.01
417.12	1682.85
417.31	1715.61
417.50	1619.65
417.69	1795.19
417.88	1813.92
418.07	1692.21
418.26	1607.95
418.45	1668.80
418.64	1811.57
418.83	1825.62
419.02	1734.34
419.21	1739.02
419.39	1732.00
419.58	1710.93
419.77	1755.40
419.96	1874.77
420.15	1827.96
420.34	1856.04
420.53	1895.83
420.72	1909.88
420.91	1851.36
421.10	1753.06
421.29	2052.65
421.48	1930.94
421.67	1851.36
421.86	1926.26
422.05	1937.96
422.24	1898.17
422.43	1973.07
422.61	1952.01
422.80	1982.43
422.99	1998.82
423.18	2012.86
423.37	2012.86
423.56	2031.58
423.75	1940.30
423.94	1973.07
424.13	1844.34
424.32	1954.35
424.50	2085.42
424.69	2033.93
424.88	2057.33
425.07	1921.58
425.26	1919.24
425.45	1933.28
425.64	2040.95
425.83	2026.90
426.01	2134.57
426.20	1994.14
426.39	1975.41
426.58	2054.99
426.77	2113.50
426.96	2019.88
427.15	2143.93
427.33	2099.46
427.52	2101.80
427.71	2157.97
427.90	2148.61
428.09	2122.87
428.28	2155.63
428.46	2293.72
428.65	2275.00
428.84	2193.08
429.03	2230.53
429.22	2230.53
429.40	2298.41
429.59	2167.34
429.78	2083.08
429.97	2108.82
430.16	2265.64
430.34	2321.81
430.53	2253.94
430.72	2340.54
430.91	2363.94
431.10	2361.60
431.28	2387.35
431.47	2385.01
431.66	2401.39
431.85	2335.85
432.03	2366.28
432.22	2487.99
432.41	2392.03
432.60	2363.94
432.79	2436.50
432.97	2464.58
433.16	2497.35
433.35	2476.29
433.54	2527.78
433.72	2551.18
433.91	2534.80
434.10	2551.18
434.28	2511.39
434.47	2555.86
434.66	2588.63
434.85	2621.40
435.03	2527.78
435.22	2621.40
435.41	2649.49
435.59	2537.14
435.78	2539.48
435.97	2560.55
436.16	2656.51
436.34	2621.40
436.53	2633.10
436.72	2693.96
436.90	2616.72
437.09	2579.27
437.28	2647.15
437.46	2799.28
437.65	2778.22
437.84	2841.41
438.02	2757.15
438.21	2759.49
438.40	2717.36
438.58	2939.71
438.77	2902.26
438.96	2818.00
439.14	2930.35
439.33	3019.29
439.52	2972.48
439.70	2974.82
439.89	3009.93
440.08	3035.67
440.26	2988.86
440.45	3110.57
440.63	3021.63
440.82	3054.40
441.01	3141.00
441.19	3155.04
441.38	3105.89
441.57	3098.87
441.75	3225.26
441.94	3148.02
442.12	3281.43
442.31	3307.18
442.50	3398.46
442.68	3311.86
442.87	3274.41
443.05	3379.73
443.24	3463.99
443.43	3344.63
443.61	3185.47
443.80	3447.61
443.98	3272.07
444.17	3190.15
444.35	3421.86
444.54	3361.01
444.73	3358.67
444.91	3330.58
445.10	3431.23
445.28	3382.07
445.47	3548.25
445.65	3506.12
445.84	3494.42
446.02	3417.18
446.21	3527.19
446.39	3421.86
446.58	3538.89
446.77	3480.38
446.95	3400.80
447.14	3515.48
447.32	3637.19
447.51	3517.83
447.69	3496.76
447.88	3445.27
448.06	3557.61
448.25	3543.57
448.43	3435.91
448.62	3620.81
448.80	3510.80
448.99	3541.23
449.17	3639.53
449.36	3499.10
449.54	3606.77
449.73	3576.34
449.91	3744.86
450.10	3805.71
450.28	3707.41
450.46	3658.26
450.65	3779.97
450.83	3875.93
451.02	3709.75
451.20	3927.42
451.39	3843.16
451.57	3712.09
451.76	3625.49
451.94	3815.07
452.13	3852.52
452.31	3791.67
452.49	3779.97
452.68	3667.62
452.86	3873.59
453.05	3808.05
453.23	3978.91
453.42	3873.59
453.60	3908.69
453.78	3866.56
453.97	3925.08
454.15	3878.27
454.34	3929.76
454.52	3967.21
454.70	3962.53
454.89	4107.64
455.07	4119.34
455.26	3955.51
455.44	4091.26
455.62	3974.23
455.81	3985.93
455.99	4025.72
456.17	4102.96
456.36	4159.13
456.54	4086.58
456.73	4177.86
456.91	4339.35
457.09	4255.09
457.28	4432.97
457.46	4196.58
457.64	4292.54
457.83	4344.03
458.01	4217.65
458.19	4428.29
458.38	4255.09
458.56	4430.63
458.74	4425.95
458.93	4339.35
459.11	4360.42
459.29	4451.70
459.48	4315.95
459.66	4496.17
459.84	4498.51
460.03	4505.53
460.21	4421.27
460.39	4547.66
460.57	4437.66
460.76	4557.02
460.94	4610.86
461.12	4650.64
461.31	4648.30
461.49	4479.79
461.67	4519.57
461.85	4692.77
462.04	4554.68
462.22	4711.50
462.40	4762.99
462.59	4823.84
462.77	4732.56
462.95	4671.71
463.13	4926.83
463.32	4685.75
463.50	4770.01
463.68	4664.69
463.86	4840.23
464.05	4833.21
464.23	4898.74
464.41	4896.40
464.59	4828.53
464.78	4987.68
464.96	4954.91
465.14	4793.42
465.32	5043.85
465.50	4994.70
465.69	5022.79
465.87	4767.67
466.05	5029.81
466.23	4973.64
466.41	4940.87
466.60	5160.88
466.78	5074.28
466.96	5055.56
467.14	5085.98
467.32	5039.17
467.51	5008.75
467.69	5029.81
467.87	5195.99
468.05	5259.18
468.23	5160.88
468.41	4980.66
468.60	5156.20
468.78	5291.95
468.96	5322.38
469.14	5195.99
469.32	5193.65
469.50	5160.88
469.69	5390.25
469.87	5348.12
470.05	5371.53
470.23	5341.10
470.41	5186.63
470.59	5275.57
470.77	5369.19
470.95	5413.66
471.14	5509.62
471.32	5399.62
471.50	5619.63
471.68	5654.73
471.86	5671.12
472.04	5600.90
472.22	5762.40
472.40	5692.18
472.58	5570.48
472.77	5717.93
472.95	5678.14
473.13	5961.34
473.31	5659.42
473.49	5827.93
473.67	5820.91
473.85	5895.81
474.03	6036.24
474.21	5930.92
474.39	5940.28
474.57	6019.86
474.75	6064.33
474.93	6052.63
475.12	6108.80
475.30	6146.25
475.48	6146.25
475.66	6141.57
475.84	6333.49
476.02	6324.13
476.20	6282.00
476.38	6328.81
476.56	6370.94
476.74	6384.98
476.92	6686.91
477.10	6539.46
477.28	6658.82
477.46	6672.87
477.64	6867.13
477.82	6686.91
478.00	7002.88
478.18	6806.28
478.36	6965.43
478.54	6925.65
478.72	7080.12
478.90	6895.22
479.08	7119.91
479.26	7077.78
479.44	7290.77
479.62	7152.68
479.80	7293.11
479.98	7431.20
480.16	7393.75
480.34	7506.10
480.52	7485.03
480.70	7536.52
480.88	7606.74
481.06	7786.96
481.24	7866.54
481.41	7831.43
481.59	7786.96
481.77	8021.02
481.95	8032.72
482.13	8107.62
482.31	8119.32
482.49	8208.26
482.67	8336.99
482.85	8276.13
483.03	8479.76
483.21	8500.83
483.39	8575.72
483.57	8589.77
483.74	8610.83
483.92	8823.82
484.10	8432.95
484.28	9011.06
484.46	9179.58
484.64	9109.36
484.82	9050.85
485.00	9125.75
485.18	9144.47
485.35	9446.40
485.53	9282.56
485.71	9582.15
485.89	9741.31
486.07	9455.76
486.25	9605.56
486.43	9544.70
486.61	9650.03
486.78	9549.39
486.96	9951.96
487.14	10001.11
487.32	10207.08
487.50	10115.80
487.68	10038.56
487.85	10265.59
488.03	10413.04
488.21	10668.16
488.39	10469.22
488.57	10548.79
488.75	10633.05
488.92	10663.48
489.10	10736.04
489.28	10876.47
489.46	11140.95
489.64	10970.09
489.81	11159.67
489.99	11272.02
490.17	11218.19
490.35	11286.06
490.53	11630.12
490.70	11477.99
490.88	11473.31
491.06	11723.74
491.24	11754.17
491.41	11641.82
491.59	11831.41
491.77	12088.87
491.95	12086.53
492.13	12135.68
492.30	11936.73
492.48	12376.75
492.66	12348.67
492.84	12397.82
493.01	12468.03
493.19	12610.81
493.37	12453.99
493.54	12676.34
493.72	12734.85
493.90	12842.52
494.08	12816.77
494.25	13125.72
494.43	13198.28
494.61	13366.80
494.79	13640.64
494.96	13121.04
495.14	13371.48
495.32	13568.09
495.49	13385.52
495.67	13514.25
495.85	13605.53
496.02	13650.00
496.20	13973.00
496.38	13860.65
496.55	13743.63
496.73	14359.19
496.91	14143.86
497.09	14518.34
497.26	14319.40
497.44	14317.06
497.62	14319.40
497.79	14902.19
497.97	14434.08
498.14	14712.61
498.32	14560.47
498.50	14794.53
498.67	14909.21
498.85	14963.04
499.03	15044.96
499.20	14682.18
499.38	15080.07
499.56	15154.97
499.73	15110.50
499.91	15389.02
500.08	15440.51
500.26	15152.63
500.44	15382.00
500.61	15604.35
500.79	15658.18
500.97	15445.20
501.14	15805.64
501.32	15807.98
501.49	15527.11
501.67	15880.53
501.84	16027.99
502.02	15658.18
502.20	16336.94
502.37	16311.19
502.55	15981.18
502.72	16255.02
502.90	16081.82
503.07	16252.68
503.25	16067.78
503.43	16116.93
503.60	16601.42
503.78	16505.46
503.95	16573.33
504.13	16187.14
504.30	16802.71
504.48	16575.67
504.65	16886.97
504.83	16772.28
505.01	16779.30
505.18	17043.78
505.36	16943.14
505.53	16760.58
505.71	17165.49
505.88	17359.75
506.06	16915.05
506.23	17556.36
506.41	17334.01
506.58	17397.20
506.76	17343.37
506.93	17607.85
507.11	17315.28
507.28	17521.25
507.46	17568.06
507.63	17554.02
507.81	17720.20
507.98	17441.67
508.16	17558.70
508.33	17528.27
508.50	17682.75
508.68	17820.84
508.85	18045.53
509.03	18174.26
509.20	18101.70
509.38	18249.16
509.55	18176.60
509.73	18190.64
509.90	18139.15
510.08	18300.65
510.25	18104.04
510.42	18431.72
510.60	18611.94
510.77	18625.98
510.95	18714.92
511.12	18396.61
511.30	18464.49
511.47	18810.89
511.64	18766.42
511.82	18824.93
511.99	18892.80
512.17	19103.45
512.34	18679.82
512.51	19302.40
512.69	18932.59
512.86	18979.40
513.04	19435.81
513.21	19501.34
513.38	19552.84
513.56	19618.37
513.73	19271.97
513.90	19606.67
514.08	19400.70
514.25	19594.96
514.43	19803.27
514.60	19447.51
514.77	19676.88
514.95	19763.48
515.12	19646.46
515.29	19716.67
515.47	19969.45
515.64	19976.47
515.81	20067.75
515.99	19770.51
516.16	20339.26
516.33	20149.67
516.51	20423.51
516.68	20004.56
516.85	20133.29
517.03	20264.36
517.20	20306.49
517.37	20713.74
517.54	20456.28
517.72	20393.09
517.89	20526.50
518.06	20556.93
518.24	20475.01
518.41	20744.17
518.58	20542.88
518.75	20386.07
518.93	20903.32
519.10	20971.20
519.27	21125.68
519.45	20931.41
519.62	20959.50
519.79	20872.90
519.96	20835.45
520.14	21495.48
520.31	20706.72
520.48	21294.19
520.65	21252.06
520.83	21165.46
521.00	21383.13
521.17	21563.36
521.34	21287.17
521.52	21453.35
521.69	21521.23
521.86	21598.46
522.03	21621.87
522.20	21781.03
522.38	21884.01
522.55	21488.46
522.72	21628.89
522.89	21752.94
523.07	21743.58
523.24	21933.16
523.41	22136.79
523.58	21827.84
523.75	22061.89
523.92	22178.92
524.10	22129.77
524.27	22291.26
524.44	22707.88
524.61	22555.74
524.78	22600.21
524.96	22579.15
525.13	22569.79
525.30	22565.10
525.47	22473.82
525.64	22455.10
525.81	22527.66
525.98	22986.40
526.16	22808.52
526.33	22775.75
526.50	22623.62
526.67	22747.67
526.84	22810.86
527.01	22745.33
527.18	22883.42
527.36	22951.29
527.53	23304.71
527.70	22960.66
527.87	22796.82
528.04	22862.35
528.21	23248.54
528.38	23300.03
528.55	23154.92
528.72	23051.94
528.89	23131.51
529.07	23274.29
529.24	22991.08
529.41	23288.33
529.58	23653.45
529.75	23192.37
529.92	23335.14
530.09	23503.66
530.26	23754.10
530.43	23604.30
530.60	23515.36
530.77	23658.14
530.94	23662.82
531.11	23548.13
531.28	23777.50
531.46	23711.97
531.63	23683.88
531.80	23978.79
531.97	23950.70
532.14	24198.80
532.31	23913.25
532.48	24212.84
532.65	23866.44
532.82	23812.61
532.99	23990.49
533.16	23693.24
533.33	24119.22
533.50	24404.77
533.67	24723.08
533.84	23976.45
534.01	24299.44
534.18	24112.20
534.35	24123.90
534.52	24474.98
534.69	24760.53
534.86	24690.31
535.03	24367.32
535.20	24414.13
535.37	24484.34
535.54	24559.24
535.71	24423.49
535.88	24573.28
536.05	24671.59
536.22	24746.48
536.38	25036.71
536.55	24802.66
536.72	25130.33
536.89	24755.85
537.06	24865.85
537.23	25137.35
537.40	25188.85
537.57	24917.34
537.74	24854.15
537.91	25053.09
538.08	25123.31
538.25	24989.90
538.42	25238.00
538.59	25003.94
538.75	25008.62
538.92	24943.09
539.09	25355.02
539.26	25448.64
539.43	25441.62
539.60	25415.88
539.77	25568.01
539.94	25385.45
540.11	25771.64
540.28	25661.63
540.44	25488.43
540.61	25645.25
540.78	25582.06
540.95	25446.30
541.12	25755.26
541.29	25530.56
541.46	25542.27
541.62	25518.86
541.79	25752.91
541.96	25380.77
542.13	25823.13
542.30	25640.57
542.47	26225.70
542.63	26057.18
542.80	25813.77
542.97	26291.24
543.14	26387.20
543.31	26429.33
543.48	26410.60
543.64	26359.11
543.81	26436.35
543.98	26464.44
544.15	26309.96
544.32	26520.61
544.48	26354.43
544.65	26260.81
544.82	26331.03
544.99	26111.02
545.16	26017.40
545.32	26260.81
545.49	26668.06
545.66	26864.67
545.83	27070.64
546.00	26548.70
546.16	26850.63
546.33	26766.37
546.50	26389.54
546.67	26574.44
546.83	26436.35
547.00	26726.58
547.17	26773.39
547.34	26836.58
547.50	26934.88
547.67	27304.69
547.84	26810.84
548.00	26913.82
548.17	26977.01
548.34	26806.16
548.51	27122.13
548.67	26878.71
548.84	27323.41
549.01	27344.48
549.18	27119.79
549.34	26913.82
549.51	27072.98
549.68	27274.26
549.84	26874.03
550.01	27187.66
550.18	26941.91
550.34	27168.94
550.51	27410.01
550.68	27695.56
550.84	26916.16
551.01	27527.04
551.18	27255.54
551.34	27171.28
551.51	27527.04
551.68	27538.74
551.84	27536.40
552.01	27538.74
552.18	27606.62
552.34	27304.69
552.51	27431.08
552.68	27321.07
552.84	27672.15
553.01	27967.06
553.18	27770.46
553.34	27716.62
553.51	27728.33
553.67	28364.95
553.84	28063.02
554.01	27796.20
554.17	27955.36
554.34	27662.79
554.51	27828.97
554.67	27814.93
554.84	27775.14
555.00	28009.19
555.17	28084.09
555.33	28243.24
555.50	28170.69
555.67	27889.82
555.83	27697.90
556.00	28243.24
556.16	28334.53
556.33	27817.27
556.50	28329.84
556.66	28395.38
556.83	28364.95
556.99	28634.11
557.16	28580.28
557.32	28336.87
557.49	28870.51
557.65	28009.19
557.82	28027.92
557.98	28294.74
558.15	28360.27
558.32	28676.24
558.48	28489.00
558.65	28725.39
558.81	28479.64
558.98	28587.30
559.14	28657.52
559.31	28767.52
559.47	28353.25
559.64	28687.95
559.80	28851.78
559.97	28875.19
560.13	28357.93
560.30	28507.72
560.46	28669.22
560.63	29020.30
560.79	28987.53
560.96	28809.65
561.12	28231.54
561.29	28622.41
561.45	28561.56
561.61	28746.46
561.78	28919.66
561.94	28624.75
562.11	29001.58
562.27	28514.75
562.44	28814.34
562.60	28741.78
562.77	28699.65
562.93	28809.65
563.10	28662.20
563.26	29179.46
563.42	29160.73
563.59	29027.32
563.75	28648.16
563.92	28978.17
564.08	28608.37
564.24	28776.89
564.41	28772.21
564.57	28809.65
564.74	28830.72
564.90	28985.19
565.07	29057.75
565.23	29315.21
565.39	29170.10
565.56	29102.22
565.72	29329.25
565.88	29134.99
566.05	28893.91
566.21	28884.55
566.38	28790.93
566.54	29240.31
566.70	29244.99
566.87	29247.33
567.03	29153.71
567.19	29247.33
567.36	29244.99
567.52	29432.24
567.68	29345.64
567.85	28886.89
568.01	29207.55
568.17	29305.85
568.34	29244.99
568.50	29219.25
568.66	29350.32
568.83	29338.62
568.99	29455.64
569.15	28811.99
569.32	29088.18
569.48	29099.88
569.64	29523.52
569.81	29198.18
569.97	29532.88
570.13	29020.30
570.30	29202.86
570.46	29034.35
570.62	29252.02
570.78	29209.89
570.95	29352.66
571.11	28964.13
571.27	29366.70
571.43	29041.37
571.60	29223.93
571.76	29570.33
571.92	29584.37
572.09	29457.98
572.25	29357.34
572.41	29724.80
572.57	29443.94
572.74	29759.91
572.90	29439.26
573.06	29523.52
573.22	29390.11
573.38	29408.83
573.55	29317.55
573.71	29806.72
573.87	29472.03
574.03	29757.57
574.20	29457.98
574.36	29663.95
574.52	29233.29
574.68	29619.48
574.84	29249.67
575.01	29205.20
575.17	29343.30
575.33	29724.80
575.49	29369.04
575.65	29331.59
575.82	30012.69
575.98	29977.58
576.14	29497.77
576.30	29357.34
576.46	29432.24
576.62	29298.83
576.79	29565.65
576.95	29600.76
577.11	29668.63
577.27	29472.03
577.43	29823.11
577.59	29677.99
577.75	29799.70
577.92	29486.07
578.08	29575.01
578.24	29694.38
578.40	29357.34
578.56	29706.08
578.72	29521.18
578.88	30221.00
579.04	29996.31
579.21	29745.87
579.37	29504.79
579.53	29628.84
579.69	29441.60
579.85	29689.70
580.01	29509.47
580.17	29446.28
580.33	29310.53
580.49	29827.79
580.65	29645.23
580.82	30012.69
580.98	29827.79
581.14	29954.18
581.30	29654.59
581.46	29476.71
581.62	29860.55
581.78	29518.84
581.94	29738.85
582.10	29575.01
582.26	29748.21
582.42	29596.07
582.58	29862.90
582.74	29661.61
582.90	29776.30
583.06	30024.39
583.22	29556.28
583.38	29322.23
583.54	29626.50
583.70	29881.62
583.86	29825.45
584.02	29352.66
584.18	29699.06
584.34	29661.61
584.50	29916.73
584.66	29830.13
584.82	29551.60
584.98	30148.44
585.14	29610.12
585.30	29331.59
585.46	29589.05
585.62	29848.85
585.78	30178.87
585.94	29652.25
586.10	29736.51
586.26	29792.68
586.42	29839.49
586.58	30087.59
586.74	29780.98
586.90	29762.25
587.06	29717.78
587.22	29982.26
587.38	29804.38
587.54	29921.41
587.70	30253.76
587.86	30171.85
588.02	30253.76
588.18	29886.30
588.34	29947.15
588.49	30015.03
588.65	29886.30
588.81	29736.51
588.97	30015.03
589.13	30092.27
589.29	29865.24
589.45	30277.17
589.61	29944.81
589.77	30316.96
589.93	30288.87
590.08	30302.92
590.24	30583.78
590.40	30139.08
590.56	30356.75
590.72	30228.02
590.88	30167.16
591.04	30033.75
591.20	30237.38
591.35	30015.03
591.51	30190.57
591.67	30162.48
591.83	30698.47
591.99	30277.17
592.15	30473.78
592.31	30356.75
592.46	30160.14
592.62	30125.04
592.78	30419.94
592.94	30295.89
593.10	30279.51
593.26	30022.05
593.41	30022.05
593.57	30162.48
593.73	30132.06
593.89	30202.27
594.05	30422.28
594.20	30141.42
594.36	30260.79
594.52	30218.66
594.68	30181.21
594.84	29528.20
594.99	30429.30
595.15	29996.31
595.31	30293.55
595.47	30153.12
595.62	30621.23
595.78	30661.02
595.94	30003.33
596.10	30494.84
596.25	30471.43
596.41	29972.90
596.57	30424.62
596.73	30368.45
596.88	30417.60
597.04	30808.47
597.20	30478.46
597.36	30473.78
597.51	30363.77
597.67	30277.17
597.83	30033.75
597.99	30747.62
598.14	30167.16
598.30	30125.04
598.46	30396.54
598.61	30059.50
598.77	30431.65
598.93	30665.70
599.09	30263.13
599.24	30824.86
599.40	30452.71
599.56	30415.26
599.71	30457.39
599.87	30497.18
600.03	30490.16
600.18	30080.56
600.34	29816.08
600.50	30211.64
600.65	30068.86
600.81	30560.37
600.97	30586.12
601.12	30279.51
601.28	30726.55
601.44	30831.88
601.59	30448.03
601.75	30525.27
601.91	30513.56
602.06	30375.47
602.22	30195.25
602.37	30522.93
602.53	29989.28
602.69	30546.33
602.84	30586.12
603.00	30850.60
603.16	30464.41
603.31	30375.47
603.47	30574.42
603.62	30354.41
603.78	30099.29
603.94	30345.05
604.09	30342.70
604.25	30143.76
604.40	30382.49
604.56	30333.34
604.71	30707.83
604.87	30354.41
605.03	30387.18
605.18	30560.37
605.34	30600.16
605.49	30026.73
605.65	30223.34
605.80	29916.73
605.96	30508.88
606.12	30377.81
606.27	30403.56
606.43	30012.69
606.58	30410.58
606.74	30426.96
606.89	30506.54
607.05	30436.33
607.20	30639.95
607.36	30377.81
607.51	30040.78
607.67	30096.95
607.82	30202.27
607.98	30026.73
608.13	30054.82
608.29	30270.15
608.44	30611.87
608.60	30178.87
608.75	30363.77
608.91	29813.74
609.06	29991.62
609.22	30174.19
609.37	30150.78
609.53	30319.30
609.68	30253.76
609.84	29975.24
609.99	30160.14
610.15	30185.89
610.30	29949.50
610.46	29692.04
610.61	30281.85
610.76	30305.26
610.92	29837.15
611.07	30174.19
611.23	30012.69
611.38	30129.72
611.54	29900.34
611.69	29827.79
611.84	29518.84
612.00	29776.30
612.15	29804.38
612.31	30302.92
612.46	30087.59
612.62	29811.40
612.77	29837.15
612.92	30092.27
613.08	29816.08
613.23	29785.66
613.39	29783.32
613.54	29535.22
613.69	30082.91
613.85	29584.37
614.00	29668.63
614.15	29509.47
614.31	29556.28
614.46	29710.76
614.62	29865.24
614.77	30122.69
614.92	29916.73
615.08	29841.83
615.23	29780.98
615.38	29633.52
615.54	29673.31
615.69	29493.09
615.84	29486.07
616.00	29493.09
616.15	29998.65
616.30	29694.38
616.46	29701.40
616.61	29738.85
616.76	29757.57
616.92	29720.12
617.07	29689.70
617.22	29434.58
617.37	29266.06
617.53	29324.57
617.68	29116.26
617.83	29532.88
617.99	29598.41
618.14	29528.20
618.29	29355.00
618.45	29834.81
618.60	29605.44
618.75	29502.45
618.90	29408.83
619.06	29607.78
619.21	29481.39
619.36	29287.12
619.51	28884.55
619.67	29195.84
619.82	28795.61
619.97	29542.24
620.12	29329.25
620.28	28980.51
620.43	29942.47
620.58	29296.49
620.73	29277.76
620.89	29640.54
621.04	29432.24
621.19	29296.49
621.34	29240.31
621.49	28933.70
621.65	29181.80
621.80	29434.58
621.95	29163.08
622.10	29083.50
622.25	28528.79
622.41	29380.74
622.56	28914.98
622.71	29146.69
622.86	28664.54
623.01	29200.52
623.16	28957.11
623.32	29104.56
623.47	29104.56
623.62	28795.61
623.77	28863.49
623.92	28933.70
624.07	28662.20
624.23	28510.07
624.38	29034.35
624.53	28685.61
624.68	28875.19
624.83	29235.63
624.98	29158.39
625.13	28641.14
625.29	28814.34
625.44	28542.83
625.59	28526.45
625.74	27995.15
625.89	28568.58
626.04	28561.56
626.19	28325.16
626.34	29020.30
626.49	28507.72
626.65	28531.13
626.80	28556.88
626.95	28657.52
627.10	28634.11
627.25	28617.73
627.40	28711.35
627.55	28563.90
627.70	28425.81
627.85	28240.90
628.00	28346.23
628.15	28222.18
628.30	28245.58
628.45	28212.82
628.60	28091.11
628.76	28374.31
628.91	28381.34
629.06	28304.10
629.21	28224.52
629.36	28203.46
629.51	28180.05
629.66	28238.56
629.81	28046.64
629.96	28023.23
630.11	28355.59
630.26	27920.25
630.41	27988.13
630.56	28095.79
630.71	28620.07
630.86	28072.39
631.01	28383.68
631.16	28353.25
631.31	28053.66
631.46	27828.97
631.61	27852.38
631.76	27915.57
631.91	27929.61
632.06	27920.25
632.21	27718.96
632.36	27967.06
632.51	27459.16
632.66	27864.08
632.81	27754.07
632.96	27803.22
633.10	27576.19
633.25	28093.45
633.40	27948.34
633.55	27676.83
633.70	27676.83
633.85	27541.08
634.00	27644.07
634.15	27665.13
634.30	27791.52
634.45	27812.59
634.60	27943.66
634.75	27903.87
634.90	27295.33
635.05	27798.54
635.19	27852.38
635.34	27323.41
635.49	27620.66
635.64	27697.90
635.79	27721.30
635.94	27548.11
636.09	27386.61
636.24	27309.37
636.39	27508.32
636.53	27330.44
636.68	27014.46
636.83	27178.30
636.98	27505.98
637.13	27321.07
637.28	27332.78
637.43	27578.53
637.57	27541.08
637.72	27414.69
637.87	27412.35
638.02	26995.74
638.17	27147.87
638.32	27208.73
638.46	26869.35
638.61	27021.48
638.76	27000.42
638.91	26754.66
639.06	26923.18
639.20	27000.42
639.35	26974.67
639.50	27358.52
639.65	27164.26
639.80	27108.08
639.94	27030.85
640.09	27119.79
640.24	26988.72
640.39	26930.20
640.54	26691.47
640.68	26698.49
640.83	27199.37
640.98	26651.68
641.13	26279.54
641.27	27108.08
641.42	27044.89
641.57	26934.88
641.72	27028.51
641.86	26628.27
642.01	26724.24
642.16	26675.09
642.31	26721.90
642.45	27035.53
642.60	26740.62
642.75	26300.60
642.90	26560.40
643.04	26197.62
643.19	26597.85
643.34	26754.66
643.48	26618.91
643.63	26525.29
643.78	26888.07
643.93	26815.52
644.07	26787.43
644.22	26913.82
644.37	26436.35
644.51	26529.97
644.66	26658.70
644.81	26438.69
644.95	26183.57
645.10	26279.54
645.25	25982.29
645.39	26548.70
645.54	26284.22
645.69	26429.33
645.83	26661.04
645.98	26441.03
646.13	26356.77
646.27	26480.82
646.42	26338.05
646.57	26288.90
646.71	26274.85
646.86	25900.37
647.00	26108.68
647.15	26300.60
647.30	26085.27
647.44	26038.46
647.59	25785.68
647.74	26162.51
647.88	25986.97
648.03	26019.74
648.17	26426.99
648.32	26148.46
648.47	26565.08
648.61	25998.67
648.76	26153.15
648.90	26022.08
649.05	26345.07
649.20	25809.09
649.34	25778.66
649.49	25813.77
649.63	25867.60
649.78	25497.80
649.92	25448.64
650.07	26019.74
650.21	26071.23
650.36	25710.78
650.51	25762.28
650.65	25855.90
650.80	25841.85
650.94	25483.75
651.09	25837.17
651.23	25715.47
651.38	25818.45
651.52	25488.43
651.67	25731.85
651.81	25296.51
651.96	25467.37
652.10	25799.73
652.25	26103.99
652.39	25696.74
652.54	25841.85
652.68	25565.67
652.83	25656.95
652.97	25633.55
653.12	25558.65
653.26	25668.66
653.41	25680.36
653.55	25184.16
653.70	25556.31
653.84	25455.67
653.99	25855.90
654.13	25439.28
654.27	25565.67
654.42	25282.47
654.56	25383.11
654.71	25500.14
654.85	25563.33
655.00	25591.42
655.14	25486.09
655.29	25493.12
655.43	25507.16
655.57	25465.03
655.72	25296.51
655.86	24999.26
656.01	25364.39
656.15	24994.58
656.30	25085.86
656.44	24807.34
656.58	24807.34
656.73	25268.42
656.87	25422.90
657.01	25032.03
657.16	25099.90
657.30	25462.69
657.45	24938.41
657.59	25296.51
657.73	24765.21
657.88	24980.54
658.02	24870.53
658.16	25025.01
658.31	24533.50
658.45	24807.34
658.60	24570.94
658.74	24702.01
658.88	24659.88
659.03	24706.70
659.17	24545.20
659.31	24376.68
659.46	24680.95
659.60	24900.96
659.74	24554.56
659.89	24680.95
660.03	24526.47
660.17	24439.87
660.32	24615.41
660.46	24386.04
660.60	24341.57
660.74	24407.11
660.89	24273.70
661.03	24149.65
661.17	24184.76
661.32	24374.34
661.46	24362.64
661.60	24149.65
661.74	24264.33
661.89	23936.66
662.03	24582.65
662.17	24163.69
662.31	23978.79
662.46	24208.16
662.60	24159.01
662.74	24025.60
662.88	23690.90
663.03	23775.16
663.17	23782.18
663.31	23702.61
663.45	24039.64
663.60	23873.46
663.74	23433.44
663.88	23634.73
664.02	23899.21
664.17	23807.93
664.31	23936.66
664.45	23445.15
664.59	23695.58
664.73	23667.50
664.88	23498.98
665.02	23461.53
665.16	23122.15
665.30	23452.17
665.44	23419.40
665.59	23143.22
665.73	23370.25
665.87	23260.24
666.01	23419.40
666.15	22848.31
666.29	23468.55
666.44	23183.01
666.58	23194.71
666.72	23180.67
666.86	22986.40
667.00	23285.99
667.14	23138.54
667.28	23051.94
667.43	22918.53
667.57	22902.14
667.71	22616.60
667.85	23037.89
667.99	22705.54
668.13	22764.05
668.27	23000.44
668.41	22742.99
668.56	22860.01
668.70	22995.76
668.84	22883.42
668.98	22436.38
669.12	22752.35
669.26	22422.33
669.40	22532.34
669.54	22459.78
669.68	22576.81
669.82	22389.56
669.96	22340.41
670.10	22192.96
670.25	22181.26
670.39	21933.16
670.53	22408.29
670.67	22216.36
670.81	22286.58
670.95	22366.16
671.09	22106.36
671.23	22338.07
671.37	22118.06
671.51	22157.85
671.65	21926.14
671.79	21818.47
671.93	22192.96
672.07	22033.80
672.21	21434.63
672.35	21633.57
672.49	21614.85
672.63	21792.73
672.77	21612.51
672.91	21474.42
673.05	21811.45
673.19	21642.93
673.33	21879.33
673.47	21429.94
673.61	21441.65
673.75	21532.93
673.89	21277.81
674.03	21465.05
674.17	21317.60
674.31	21350.37
674.45	21120.99
674.59	21003.97
674.73	20779.28
674.87	20678.63
675.01	20973.54
675.15	20812.04
675.29	20844.81
675.43	20870.56
675.56	20929.07
675.70	20971.20
675.84	20856.51
675.98	20276.06
676.12	20844.81
676.26	20858.85
676.40	20603.74
676.54	20723.10
676.68	20465.64
676.82	20144.99
676.96	20313.51
677.10	20112.22
677.23	20332.23
677.37	20336.91
677.51	19913.28
677.65	19943.70
677.79	19850.08
677.93	20034.99
678.07	19756.46
678.21	19756.46
678.34	20102.86
678.48	19637.09
678.62	19571.56
678.76	19384.32
678.90	19601.99
679.04	19690.93
679.18	19318.78
679.31	19157.28
679.45	19302.40
679.59	19101.11
679.73	19143.24
679.87	18635.35
680.00	19271.97
680.14	18845.99
680.28	18691.52
680.42	18937.27
680.56	18761.73
680.70	19143.24
680.83	19288.35
680.97	18946.64
681.11	18857.70
681.25	18396.61
681.39	18520.66
681.52	18597.90
681.66	18539.38
681.80	18380.23
681.94	18321.71
682.07	18167.24
682.21	18422.36
682.35	18090.00
682.49	18064.25
682.62	17872.33
682.76	17984.68
682.90	18101.70
683.04	18071.28
683.17	17825.52
683.31	18026.81
683.45	18054.89
683.59	17703.81
683.72	17682.75
683.86	17706.15
684.00	17434.65
684.13	17614.87
684.27	17345.71
684.41	17345.71
684.55	17411.25
684.68	17216.98
684.82	16807.39
684.96	16884.62
685.09	17088.25
685.23	17125.70
685.37	16929.09
685.50	16849.52
685.64	16882.28
685.78	17032.08
685.91	17006.33
686.05	17011.01
686.19	16737.17
686.32	16800.37
686.46	16636.53
686.60	16741.85
686.73	16369.71
686.87	16409.50
687.01	16159.06
687.14	16561.63
687.28	16168.42
687.42	16189.49
687.55	16116.93
687.69	16189.49
687.82	16011.60
687.96	15995.22
688.10	15953.09
688.23	15939.05
688.37	15899.26
688.50	15681.59
688.64	15719.04
688.78	15854.79
688.91	15679.25
689.05	15707.34
689.18	15552.86
689.32	15410.09
689.46	15410.09
689.59	15580.95
689.73	15159.65
689.86	15353.91
690.00	15070.71
690.13	15180.71
690.27	15002.83
690.41	15192.42
690.54	15049.64
690.68	15129.22
690.81	14977.09
690.95	15129.22
691.08	15246.25
691.22	14965.39
691.35	14794.53
691.49	14827.29
691.62	14726.65
691.76	14422.38
691.89	14499.62
692.03	14293.65
692.16	14249.18
692.30	14057.26
692.43	14394.29
692.57	14108.75
692.70	14312.38
692.84	14061.94
692.97	13818.52
693.11	13954.27
693.24	14218.75
693.38	14024.49
693.51	13998.74
693.65	13603.19
693.78	13958.96
693.92	13797.46
694.05	13818.52
694.19	13462.76
694.32	13493.19
694.45	13488.51
694.59	13411.27
694.72	13125.72
694.86	13221.69
694.99	13107.00
695.13	13245.09
695.26	13270.84
695.39	13174.88
695.53	13212.32
695.66	12980.61
695.80	12994.65
695.93	12975.93
696.07	12985.29
696.20	12924.44
696.33	12959.55
696.47	12840.18
696.60	12648.26
696.73	12599.10
696.87	12692.73
697.00	12519.53
697.14	12226.96
697.27	12138.02
697.40	12077.16
697.54	12168.45
697.67	12128.66
697.80	12224.62
697.94	12147.38
698.07	11894.60
698.21	11953.12
698.34	12121.63
698.47	11948.43
698.61	12126.32
698.74	11985.88
698.87	11974.18
699.01	11915.67
699.14	11824.39
699.27	11749.49
699.40	11810.34
699.54	11623.10
699.67	11407.77
699.80	11541.18
699.94	11531.82
700.07	11370.32
700.20	11419.47
700.34	11351.60
700.47	11136.27
700.60	11403.09
700.73	11349.26
700.87	11220.53
701.00	11030.94
701.13	11059.03
701.26	11171.38
701.40	11054.35
701.53	11033.29
701.66	10974.77
701.79	10855.40
701.93	10691.57
702.06	10604.97
702.19	10773.49
702.32	10677.52
702.46	10539.43
702.59	10373.25
702.72	10366.23
702.85	10471.56
702.99	10312.40
703.12	10391.98
703.25	10303.04
703.38	10127.50
703.51	10132.18
703.65	10160.27
703.78	10054.94
703.91	10193.03
704.04	10202.40
704.17	10167.29
704.31	9886.42
704.44	10139.20
704.57	10033.88
704.70	9919.19
704.83	9872.38
704.96	9888.76
705.10	9540.02
705.23	9692.16
>>>>>End Processed Spectral Data<<<<<
