SpectraSuite Data File
++++++++++++++++++++++++++++++++++++
Date: Fri Oct 18 13:58:35 GMT-05:00 2013
User: bianchi
Dark Spectrum Present: No
Reference Spectrum Present: No
Number of Sampled Component Spectra: 1
Spectrometers: USB2+H05261
Integration Time (usec): 50000 (USB2+H05261)
Spectra Averaged: 1 (USB2+H05261)
Boxcar Smoothing: 0 (USB2+H05261)
Correct for Electrical Dark: No (USB2+H05261)
Strobe/Lamp Enabled: No (USB2+H05261)
Correct for Detector Non-linearity: No (USB2+H05261)
Correct for Stray Light: No (USB2+H05261)
Number of Pixels in Processed Spectrum: 2048
>>>>>Begin Processed Spectral Data<<<<<
365.73	11.70
365.92	11.70
366.12	11.70
366.32	0.00
366.52	0.00
366.72	0.00
366.91	0.00
367.11	0.00
367.31	0.00
367.51	0.00
367.70	0.00
367.90	0.00
368.10	0.00
368.30	0.00
368.49	0.00
368.69	0.00
368.89	0.00
369.09	0.00
369.28	0.00
369.48	0.00
369.68	0.00
369.87	0.00
370.07	0.00
370.27	0.00
370.47	16.38
370.66	117.03
370.86	86.60
371.06	117.03
371.25	149.79
371.45	102.98
371.65	163.84
371.84	173.20
372.04	135.75
372.24	187.24
372.44	152.13
372.63	203.63
372.83	182.56
373.03	187.24
373.22	210.65
373.42	238.73
373.62	285.55
373.81	152.13
374.01	191.92
374.21	255.12
374.40	283.20
374.60	250.44
374.79	217.67
374.99	280.86
375.19	203.63
375.38	194.26
375.58	330.02
375.78	212.99
375.97	299.59
376.17	341.72
376.37	231.71
376.56	280.86
376.76	220.01
376.95	252.78
377.15	271.50
377.35	299.59
377.54	201.29
377.74	266.82
377.93	299.59
378.13	250.44
378.33	262.14
378.52	271.50
378.72	276.18
378.91	299.59
379.11	297.25
379.31	259.80
379.50	245.76
379.70	311.29
379.89	252.78
380.09	231.71
380.28	264.48
380.48	332.36
380.68	287.89
380.87	308.95
381.07	355.76
381.26	229.37
381.46	318.31
381.65	334.70
381.85	299.59
382.04	372.15
382.24	308.95
382.43	360.44
382.63	273.84
382.83	355.76
383.02	454.06
383.22	358.10
383.41	372.15
383.61	430.66
383.80	330.02
384.00	341.72
384.19	341.72
384.39	313.63
384.58	362.78
384.78	414.27
384.97	369.80
385.17	442.36
385.36	463.43
385.56	416.62
385.75	367.46
385.95	435.34
386.14	451.72
386.34	402.57
386.53	435.34
386.72	367.46
386.92	400.23
387.11	418.96
387.31	428.32
387.50	418.96
387.70	428.32
387.89	400.23
388.09	449.38
388.28	411.93
388.48	451.72
388.67	418.96
388.86	449.38
389.06	421.30
389.25	470.45
389.45	463.43
389.64	461.09
389.84	521.94
390.03	484.49
390.22	559.39
390.42	454.06
390.61	393.21
390.81	517.26
391.00	505.56
391.19	559.39
391.39	540.66
391.58	500.87
391.78	538.32
391.97	519.60
392.16	582.79
392.36	545.34
392.55	564.07
392.75	550.03
392.94	489.17
393.13	585.13
393.33	517.26
393.52	519.60
393.71	601.52
393.91	573.43
394.10	585.13
394.29	493.85
394.49	554.71
394.68	594.50
394.88	545.34
395.07	653.01
395.26	603.86
395.46	535.98
395.65	631.94
395.84	561.73
396.04	599.18
396.23	608.54
396.42	695.14
396.62	638.97
396.81	655.35
397.00	641.31
397.19	727.91
397.39	601.52
397.58	620.24
397.77	734.93
397.97	674.07
398.16	643.65
398.35	765.36
398.55	699.82
398.74	716.20
398.93	795.78
399.12	732.59
399.32	746.63
399.51	800.46
399.70	688.12
399.90	767.70
400.09	765.36
400.28	821.53
400.47	755.99
400.67	861.32
400.86	805.14
401.05	770.04
401.24	826.21
401.44	793.44
401.63	784.08
401.82	725.57
402.01	856.64
402.21	833.23
402.40	763.01
402.59	837.91
402.78	802.80
402.97	795.78
403.17	847.27
403.36	915.15
403.55	954.94
403.74	957.28
403.93	840.25
404.13	947.92
404.32	800.46
404.51	823.87
404.70	917.49
404.89	877.70
405.09	966.64
405.28	868.34
405.47	971.32
405.66	990.05
405.85	945.58
406.05	1060.26
406.24	978.34
406.43	1074.31
406.62	1041.54
406.81	1013.45
407.00	983.02
407.20	1004.09
407.39	1053.24
407.58	1125.80
407.77	1015.79
407.96	1071.97
408.15	1015.79
408.34	1090.69
408.54	1029.84
408.73	1144.52
408.92	1160.91
409.11	1149.20
409.30	1111.75
409.49	1088.35
409.68	1111.75
409.87	1118.78
410.07	1177.29
410.26	1261.55
410.45	1205.38
410.64	1233.46
410.83	1151.54
411.02	1238.14
411.21	1118.78
411.40	1181.97
411.59	1205.38
411.78	1299.00
411.98	1268.57
412.17	1345.81
412.36	1348.15
412.55	1322.40
412.74	1296.66
412.93	1329.42
413.12	1352.83
413.31	1390.28
413.50	1376.24
413.69	1380.92
413.88	1476.88
414.07	1338.79
414.26	1467.52
414.45	1444.11
414.64	1401.98
414.83	1535.39
415.02	1437.09
415.22	1500.28
415.41	1446.45
415.60	1593.90
415.79	1486.24
415.98	1570.50
416.17	1631.35
416.36	1619.65
416.55	1626.67
416.74	1654.76
416.93	1685.19
417.12	1591.56
417.31	1614.97
417.50	1633.69
417.69	1769.44
417.88	1689.87
418.07	1732.00
418.26	1741.36
418.45	1792.85
418.64	1769.44
418.83	1830.30
419.02	1830.30
419.21	1849.02
419.39	1785.83
419.58	1827.96
419.77	1781.15
419.96	1849.02
420.15	1914.56
420.34	1825.62
420.53	2008.18
420.72	1956.69
420.91	1912.22
421.10	1816.26
421.29	1970.73
421.48	1891.15
421.67	1980.09
421.86	1930.94
422.05	2012.86
422.24	1930.94
422.43	2005.84
422.61	1949.67
422.80	1977.75
422.99	2073.71
423.18	1998.82
423.37	2101.80
423.56	2071.37
423.75	1987.11
423.94	1977.75
424.13	1858.39
424.32	1949.67
424.50	1966.05
424.69	1973.07
424.88	2188.40
425.07	1935.62
425.26	2022.22
425.45	1952.01
425.64	2008.18
425.83	2017.54
426.01	2118.18
426.20	2057.33
426.39	1998.82
426.58	2076.06
426.77	2106.48
426.96	2134.57
427.15	2040.95
427.33	2204.78
427.52	2183.72
427.71	2106.48
427.90	2157.97
428.09	2157.97
428.28	2115.84
428.46	2223.51
428.65	2303.09
428.84	2272.66
429.03	2298.41
429.22	2204.78
429.40	2183.72
429.59	2314.79
429.78	2172.02
429.97	2165.00
430.16	2202.44
430.34	2368.62
430.53	2370.96
430.72	2340.54
430.91	2190.74
431.10	2377.98
431.28	2396.71
431.47	2312.45
431.66	2385.01
431.85	2270.32
432.03	2349.90
432.22	2347.56
432.41	2459.90
432.60	2452.88
432.79	2356.92
432.97	2483.31
433.16	2392.03
433.35	2464.58
433.54	2551.18
433.72	2462.24
433.91	2473.95
434.10	2445.86
434.28	2492.67
434.47	2532.46
434.66	2483.31
434.85	2647.15
435.03	2705.66
435.22	2562.89
435.41	2736.09
435.59	2609.70
435.78	2623.74
435.97	2450.54
436.16	2497.35
436.34	2682.25
436.53	2832.05
436.72	2843.75
436.90	2759.49
437.09	2787.58
437.28	2647.15
437.46	2766.51
437.65	2719.70
437.84	2827.37
438.02	2644.81
438.21	2752.47
438.40	2862.48
438.58	2841.41
438.77	2902.26
438.96	2937.37
439.14	3012.27
439.33	2986.52
439.52	3014.61
439.70	2965.46
439.89	3028.65
440.08	2895.24
440.26	3082.49
440.45	2995.89
440.63	3103.55
440.82	3052.06
441.01	3080.14
441.19	3152.70
441.38	3045.04
441.57	3251.00
441.75	3213.56
441.94	3246.32
442.12	3272.07
442.31	3372.71
442.50	3234.62
442.68	3368.03
442.87	3342.28
443.05	3337.60
443.24	3400.80
443.43	3403.14
443.61	3459.31
443.80	3459.31
443.98	3356.33
444.17	3253.34
444.35	3314.20
444.54	3442.93
444.73	3447.61
444.91	3337.60
445.10	3454.63
445.28	3410.16
445.47	3379.73
445.65	3442.93
445.84	3412.50
446.02	3578.68
446.21	3485.06
446.39	3489.74
446.58	3344.63
446.77	3431.23
446.95	3501.44
447.14	3506.12
447.32	3574.00
447.51	3604.42
447.69	3569.32
447.88	3604.42
448.06	3475.70
448.25	3581.02
448.43	3478.04
448.62	3555.27
448.80	3492.08
448.99	3667.62
449.17	3538.89
449.36	3555.27
449.54	3609.11
449.73	3782.31
449.91	3667.62
450.10	3712.09
450.28	3742.52
450.46	3779.97
450.65	3742.52
450.83	3796.35
451.02	3779.97
451.20	3887.63
451.39	3702.73
451.57	3789.33
451.76	3723.79
451.94	3918.06
452.13	3831.46
452.31	3915.72
452.49	3929.76
452.68	4074.87
452.86	3829.12
453.05	3864.22
453.23	4007.00
453.42	3831.46
453.60	4037.42
453.78	3918.06
453.97	3894.65
454.15	4032.74
454.34	3990.61
454.52	4032.74
454.70	3770.60
454.89	4093.60
455.07	4009.34
455.26	4161.47
455.44	4114.66
455.62	4180.20
455.81	4058.49
455.99	4208.28
456.17	4140.41
456.36	4170.83
456.54	4290.20
456.73	4198.92
456.91	4339.35
457.09	4369.78
457.28	4346.37
457.46	4381.48
457.64	4430.63
457.83	4311.27
458.01	4362.76
458.19	4227.01
458.38	4402.55
458.56	4554.68
458.74	4348.72
458.93	4407.23
459.11	4484.47
459.29	4521.92
459.48	4440.00
459.66	4440.00
459.84	4688.09
460.03	4718.52
460.21	4587.45
460.39	4538.30
460.57	4432.97
460.76	4552.34
460.94	4678.73
461.12	4669.37
461.31	4629.58
461.49	4704.48
461.67	4601.49
461.85	4676.39
462.04	4753.63
462.22	4891.72
462.40	4809.80
462.59	4739.58
462.77	4559.36
462.95	4826.18
463.13	4884.70
463.32	4875.34
463.50	4856.61
463.68	4973.64
463.86	4877.68
464.05	4748.95
464.23	4828.53
464.41	4905.76
464.59	4828.53
464.78	4966.62
464.96	5013.43
465.14	4929.17
465.32	4936.19
465.50	5036.83
465.69	4968.96
465.87	4985.34
466.05	5011.09
466.23	4938.53
466.41	4943.21
466.60	4966.62
466.78	5097.69
466.96	4966.62
467.14	5174.92
467.32	5132.79
467.51	5249.82
467.69	5085.98
467.87	5191.31
468.05	5172.58
468.23	5055.56
468.41	5210.03
468.60	5357.49
468.78	5261.52
468.96	5191.31
469.14	5284.93
469.32	5336.42
469.50	5296.63
469.69	5404.30
469.87	5327.06
470.05	5507.28
470.23	5462.81
470.41	5514.30
470.59	5453.45
470.77	5383.23
470.95	5540.05
471.14	5813.89
471.32	5420.68
471.50	5706.23
471.68	5659.42
471.86	5659.42
472.04	5757.72
472.22	5837.30
472.40	5624.31
472.58	5799.85
472.77	5935.60
472.95	5933.26
473.13	5839.64
473.31	5734.31
473.49	5893.47
473.67	5771.76
473.85	6111.14
474.03	5930.92
474.21	5916.87
474.39	6087.73
474.57	6078.37
474.75	6115.82
474.93	6183.70
475.12	6148.59
475.30	6195.40
475.48	6286.68
475.66	6141.57
475.84	6466.90
476.02	6420.09
476.20	6436.47
476.38	6490.31
476.56	6621.38
476.74	6637.76
476.92	6520.73
477.10	6609.67
477.28	6726.70
477.46	6658.82
477.64	6707.98
477.82	6813.30
478.00	6918.62
478.18	7073.10
478.36	6974.80
478.54	7157.36
478.72	6897.56
478.90	7138.63
479.08	7265.02
479.26	7386.73
479.44	7368.01
479.62	7410.14
479.80	7473.33
479.98	7375.03
480.16	7470.99
480.34	7573.97
480.52	7632.49
480.70	7719.09
480.88	7534.18
481.06	7777.60
481.24	7747.17
481.41	7861.86
481.59	7992.93
481.77	8112.30
481.95	8093.57
482.13	8156.77
482.31	8189.53
482.49	8283.16
482.67	8208.26
482.85	8547.64
483.03	8517.21
483.21	8568.70
483.39	8587.43
483.57	8650.62
483.74	8786.37
483.92	8819.14
484.10	8674.03
484.28	9008.72
484.46	9151.49
484.64	9121.07
484.82	9095.32
485.00	9186.60
485.18	9167.88
485.35	9240.44
485.53	9439.38
485.71	9394.91
485.89	9755.35
486.07	9715.56
486.25	9743.65
486.43	9706.20
486.61	9809.19
486.78	9790.46
486.96	9926.21
487.14	9989.41
487.32	10050.26
487.50	10228.14
487.68	10230.48
487.85	10298.36
488.03	10443.47
488.21	10675.18
488.39	10588.58
488.57	10452.83
488.75	10927.96
488.92	10785.19
489.10	10817.96
489.28	10932.64
489.46	10944.34
489.64	11096.48
489.81	11309.47
489.99	11332.87
490.17	11375.00
490.35	11552.88
490.53	11419.47
490.70	11800.98
490.88	11812.68
491.06	11920.35
491.24	11826.73
491.41	11742.47
491.59	11859.49
491.77	11971.84
491.95	12182.49
492.13	12121.63
492.30	12390.80
492.48	12339.30
492.66	12301.86
492.84	12496.12
493.01	12802.73
493.19	12624.85
493.37	12882.31
493.54	12568.68
493.72	12767.62
493.90	12877.63
494.08	12924.44
494.25	13186.58
494.43	13280.20
494.61	13432.33
494.79	13441.70
494.96	13090.62
495.14	13429.99
495.32	13703.84
495.49	13727.24
495.67	13767.03
495.85	13933.21
496.02	13764.69
496.20	13745.97
496.38	13909.80
496.55	14050.24
496.73	14312.38
496.91	14115.77
497.09	14406.00
497.26	14616.65
497.44	14125.13
497.62	14387.27
497.79	14714.95
497.97	14752.40
498.14	14848.36
498.32	14670.48
498.50	15030.92
498.67	14979.43
498.85	15073.05
499.03	15014.54
499.20	15117.52
499.38	15358.60
499.56	15325.83
499.73	15421.79
499.91	15562.22
500.08	15735.42
500.26	15239.23
500.44	15192.42
500.61	15517.75
500.79	15417.11
500.97	15712.02
501.14	15754.15
501.32	16060.76
501.49	15978.84
501.67	15871.17
501.84	16027.99
502.02	16035.01
502.20	16156.72
502.37	16507.80
502.55	16044.37
502.72	16276.09
502.90	16343.96
503.07	16039.69
503.25	16439.92
503.43	16255.02
503.60	16587.38
503.78	16681.00
503.95	16393.11
504.13	16538.23
504.30	16849.52
504.48	16538.23
504.65	16896.33
504.83	17191.23
505.01	17088.25
505.18	16971.22
505.36	17233.36
505.53	17135.06
505.71	17163.15
505.88	16940.80
506.06	16980.59
506.23	17329.33
506.41	17390.18
506.58	17465.08
506.76	17436.99
506.93	17525.93
507.11	17528.27
507.28	17628.92
507.46	17767.01
507.63	17738.92
507.81	17923.82
507.98	18066.60
508.16	17577.42
508.33	17996.38
508.50	18139.15
508.68	18043.19
508.85	18225.75
509.03	18321.71
509.20	18370.86
509.38	18525.34
509.55	18408.31
509.73	18452.78
509.90	18424.70
510.08	18548.75
510.25	18391.93
510.42	18583.85
510.60	18684.50
510.77	18761.73
510.95	18867.06
511.12	18820.25
511.30	18743.01
511.47	18773.44
511.64	18951.32
511.82	19190.05
511.99	19012.17
512.17	19414.74
512.34	18930.25
512.51	19194.73
512.69	19201.76
512.86	19192.39
513.04	19611.35
513.21	19723.69
513.38	19510.71
513.56	19424.11
513.73	19616.03
513.90	19620.71
514.08	19562.20
514.25	19880.51
514.43	19826.68
514.60	19719.01
514.77	19730.72
514.95	19922.64
515.12	19735.40
515.29	19920.30
515.47	20135.63
515.64	19850.08
515.81	19927.32
515.99	20105.20
516.16	20187.12
516.33	20425.86
516.51	20599.05
516.68	20437.56
516.85	20608.42
517.03	20428.20
517.20	20486.71
517.37	20561.61
517.54	20573.31
517.72	20910.35
517.89	20643.52
518.06	20673.95
518.24	20835.45
518.41	20664.59
518.58	20938.43
518.75	20823.75
518.93	20908.01
519.10	20851.83
519.27	20823.75
519.45	21078.86
519.62	20851.83
519.79	21216.96
519.96	21102.27
520.14	21362.07
520.31	21263.77
520.48	21343.35
520.65	21312.92
520.83	21673.36
521.00	21500.16
521.17	21160.78
521.34	21408.88
521.52	21521.23
521.69	21387.82
521.86	21949.54
522.03	21638.25
522.20	21851.24
522.38	22167.21
522.55	21642.93
522.72	21743.58
522.89	22036.14
523.07	22258.49
523.24	21656.98
523.41	22438.72
523.58	21935.50
523.75	22775.75
523.92	22162.53
524.10	22340.41
524.27	22087.64
524.44	22207.00
524.61	22647.02
524.78	22504.25
524.96	22501.91
525.13	22691.49
525.30	22670.43
525.47	22857.67
525.64	22632.98
525.81	22677.45
525.98	22499.57
526.16	22689.15
526.33	22668.09
526.50	23152.58
526.67	22766.39
526.84	23075.34
527.01	22595.53
527.18	23061.30
527.36	23058.96
527.53	23414.72
527.70	23293.01
527.87	23414.72
528.04	23510.68
528.21	23358.55
528.38	23405.36
528.55	23452.17
528.72	23384.29
528.89	23646.43
529.07	23386.63
529.24	23562.17
529.41	23587.92
529.58	23660.48
529.75	23601.96
529.92	23800.91
530.09	23374.93
530.26	23908.57
530.43	23695.58
530.60	23618.35
530.77	23442.81
530.94	23948.36
531.11	23793.89
531.28	23360.89
531.46	23836.02
531.63	23803.25
531.80	23812.61
531.97	24198.80
532.14	24229.23
532.31	23917.93
532.48	24067.73
532.65	24496.05
532.82	24292.42
532.99	24432.85
533.16	24091.13
533.33	24308.80
533.50	24634.14
533.67	24327.53
533.84	24355.61
534.01	24470.30
534.18	24287.74
534.35	24601.37
534.52	24563.92
534.69	24797.98
534.86	24676.27
535.03	24610.73
535.20	24840.11
535.37	24648.18
535.54	24802.66
535.71	24549.88
535.88	24493.71
536.05	24879.89
536.22	25132.67
536.38	25280.13
536.55	24938.41
536.72	25123.31
536.89	25020.33
537.06	25144.38
537.23	25116.29
537.40	24987.56
537.57	25214.59
537.74	25319.92
537.91	25703.76
538.08	25582.06
538.25	25333.96
538.42	25329.28
538.59	25338.64
538.75	25441.62
538.92	25429.92
539.09	25408.86
539.26	25575.03
539.43	25338.64
539.60	25277.79
539.77	25795.04
539.94	25708.44
540.11	25514.18
540.28	26054.84
540.44	25511.84
540.61	25621.84
540.78	25553.97
540.95	25722.49
541.12	25837.17
541.29	25778.66
541.46	25713.13
541.62	26005.69
541.79	26206.98
541.96	25600.78
542.13	25429.92
542.30	26169.53
542.47	25895.69
542.63	26368.48
542.80	26347.41
542.97	26658.70
543.14	26354.43
543.31	26476.14
543.48	26300.60
543.64	26623.59
543.81	26506.57
543.98	26244.43
544.15	26576.78
544.32	26731.26
544.48	26876.37
544.65	26506.57
544.82	26548.70
544.99	26464.44
545.16	26628.27
545.32	26448.05
545.49	26944.25
545.66	27012.12
545.83	26684.45
546.00	26932.54
546.16	27236.81
546.33	27063.61
546.50	26553.38
546.67	26916.16
546.83	26656.36
547.00	27087.02
547.17	26981.70
547.34	27112.77
547.50	27328.10
547.67	27316.39
547.84	27033.19
548.00	27262.56
548.17	27271.92
548.34	27297.67
548.51	27243.84
548.67	27267.24
548.84	27171.28
549.01	27117.45
549.18	27300.01
549.34	27248.52
549.51	27395.97
549.68	27353.84
549.84	27421.72
550.01	27431.08
550.18	27395.97
550.34	27601.94
550.51	27395.97
550.68	27852.38
550.84	27342.14
551.01	27608.96
551.18	27562.15
551.34	27442.78
551.51	27831.31
551.68	27562.15
551.84	27885.14
552.01	27772.80
552.18	27819.61
552.34	27873.44
552.51	27817.27
552.68	27924.93
552.84	28201.11
553.01	27765.78
553.18	27857.06
553.34	28158.99
553.51	27857.06
553.67	28070.04
553.84	28383.68
554.01	28189.41
554.17	28215.16
554.34	28229.20
554.51	28126.22
554.67	28147.28
554.84	28170.69
555.00	28016.21
555.17	28095.79
555.33	28456.23
555.50	28226.86
555.67	28205.80
555.83	28528.79
556.00	28004.51
556.16	28526.45
556.33	28474.96
556.50	28517.09
556.66	28257.29
556.83	28215.16
556.99	28402.40
557.16	28699.65
557.32	28704.33
557.49	28407.08
557.65	28744.12
557.82	28315.80
557.98	28524.11
558.15	28339.21
558.32	28521.77
558.48	28788.59
558.65	28950.09
558.81	28645.82
558.98	28706.67
559.14	28971.15
559.31	28547.51
559.47	28905.62
559.64	28470.28
559.80	28922.00
559.97	29214.57
560.13	28882.21
560.30	28790.93
560.46	28802.63
560.63	28961.79
560.79	28910.30
560.96	28978.17
561.12	28849.44
561.29	28711.35
561.45	28900.94
561.61	28655.18
561.78	28821.36
561.94	29010.94
562.11	29294.14
562.27	28985.19
562.44	29067.11
562.60	28835.40
562.77	28718.37
562.93	28891.57
563.10	29333.93
563.26	28959.45
563.42	29111.58
563.59	29214.57
563.75	29003.92
563.92	29097.54
564.08	28989.88
564.24	28746.46
564.41	28898.59
564.57	29029.66
564.74	29118.60
564.90	29296.49
565.07	29111.58
565.23	29017.96
565.39	29317.55
565.56	29511.81
565.72	29088.18
565.88	29083.50
566.05	29523.52
566.21	28973.49
566.38	29198.18
566.54	29326.91
566.70	29661.61
566.87	29514.16
567.03	29455.64
567.19	29621.82
567.36	29488.41
567.52	29273.08
567.68	29584.37
567.85	29469.69
568.01	29727.14
568.17	29076.48
568.34	29460.32
568.50	29259.04
568.66	29759.91
568.83	29689.70
568.99	29481.39
569.15	29476.71
569.32	29488.41
569.48	29139.67
569.64	29191.16
569.81	29706.08
569.97	29841.83
570.13	29853.53
570.30	29589.05
570.46	29427.56
570.62	29680.33
570.78	29408.83
570.95	29434.58
571.11	29722.46
571.27	29427.56
571.43	29668.63
571.60	29874.60
571.76	29460.32
571.92	29811.40
572.09	29600.76
572.25	29521.18
572.41	29591.39
572.57	29776.30
572.74	29914.39
572.90	29268.40
573.06	29811.40
573.22	29638.20
573.38	29830.13
573.55	29453.30
573.71	30064.18
573.87	29905.02
574.03	29862.90
574.20	29493.09
574.36	29670.97
574.52	29757.57
574.68	29551.60
574.84	29839.49
575.01	29668.63
575.17	29656.93
575.33	29830.13
575.49	29472.03
575.65	29736.51
575.82	30150.78
575.98	30092.27
576.14	29745.87
576.30	29958.86
576.46	29455.64
576.62	29780.98
576.79	29659.27
576.95	30127.38
577.11	29788.00
577.27	30078.22
577.43	29558.63
577.59	30082.91
577.75	30073.54
577.92	29546.92
578.08	30125.04
578.24	29708.42
578.40	30003.33
578.56	30096.95
578.72	29902.68
578.88	30263.13
579.04	30195.25
579.21	30103.97
579.37	29745.87
579.53	30019.71
579.69	30089.93
579.85	30005.67
580.01	30038.44
580.17	29757.57
580.33	29923.75
580.49	30057.16
580.65	29699.06
580.82	30211.64
580.98	30134.40
581.14	30300.58
581.30	30188.23
581.46	29860.55
581.62	29654.59
581.78	29771.61
581.94	30340.36
582.10	29869.92
582.26	29802.04
582.42	30174.19
582.58	30260.79
582.74	29963.54
582.90	30031.41
583.06	29811.40
583.22	30022.05
583.38	29792.68
583.54	30061.84
583.70	29930.77
583.86	29865.24
584.02	29715.44
584.18	30218.66
584.34	30445.69
584.50	29888.64
584.66	29876.94
584.82	29998.65
584.98	30045.46
585.14	29916.73
585.30	29696.72
585.46	30008.01
585.62	29961.20
585.78	29869.92
585.94	30019.71
586.10	29921.41
586.26	30326.32
586.42	30075.88
586.58	30040.78
586.74	30019.71
586.90	29996.31
587.06	30146.10
587.22	30024.39
587.38	29928.43
587.54	30087.59
587.70	30181.21
587.86	29968.22
588.02	30265.47
588.18	30338.02
588.34	30347.39
588.49	30338.02
588.65	29984.60
588.81	30031.41
588.97	30010.35
589.13	30340.36
589.29	30213.98
589.45	30464.41
589.61	30464.41
589.77	30396.54
589.93	30590.80
590.08	30464.41
590.24	30403.56
590.40	30314.62
590.56	30590.80
590.72	30122.69
590.88	30221.00
591.04	30340.36
591.20	30455.05
591.35	30363.77
591.51	30410.58
591.67	30801.45
591.83	30572.08
591.99	30799.11
592.15	30167.16
592.31	30543.99
592.46	30572.08
592.62	30260.79
592.78	30382.49
592.94	30293.55
593.10	30551.01
593.26	30665.70
593.41	30286.53
593.57	30150.78
593.73	30745.28
593.89	30462.07
594.05	30492.50
594.20	30256.11
594.36	30494.84
594.52	30279.51
594.68	30326.32
594.84	30567.40
594.99	30749.96
595.15	30534.63
595.31	30820.17
595.47	30558.03
595.62	30656.34
595.78	30953.58
595.94	30225.68
596.10	30422.28
596.25	30183.55
596.41	30218.66
596.57	30431.65
596.73	30541.65
596.88	30394.20
597.04	30831.88
597.20	30885.71
597.36	30714.85
597.51	30909.11
597.67	30672.72
597.83	30574.42
597.99	30164.82
598.14	30635.27
598.30	30438.67
598.46	30206.95
598.61	30881.03
598.77	30663.36
598.93	31047.21
599.09	31098.70
599.24	31215.72
599.40	30490.16
599.56	30885.71
599.71	30253.76
599.87	30728.89
600.03	30689.10
600.18	30525.27
600.34	30553.35
600.50	30462.07
600.65	30838.90
600.81	30745.28
600.97	30792.09
601.12	31126.78
601.28	30937.20
601.44	31140.83
601.59	30670.38
601.75	30799.11
601.91	31030.82
602.06	30333.34
602.22	30806.13
602.37	30639.95
602.53	30623.57
602.69	31061.25
602.84	30789.75
603.00	30958.27
603.16	31068.27
603.31	30672.72
603.47	30277.17
603.62	30679.74
603.78	30452.71
603.94	30333.34
604.09	30422.28
604.25	30331.00
604.40	30768.68
604.56	30405.90
604.71	30796.77
604.87	30670.38
605.03	30558.03
605.18	30487.82
605.34	30628.25
605.49	30368.45
605.65	30761.66
605.80	30085.25
605.96	30473.78
606.12	30560.37
606.27	30469.09
606.43	30497.18
606.58	30778.04
606.74	30731.23
606.89	30649.32
607.05	30778.04
607.20	30319.30
607.36	30199.93
607.51	30345.05
607.67	30319.30
607.82	30492.50
607.98	30551.01
608.13	30567.40
608.29	30600.16
608.44	30394.20
608.60	30658.68
608.75	30628.25
608.91	30672.72
609.06	30520.59
609.22	30778.04
609.37	30108.65
609.53	30511.22
609.68	30551.01
609.84	30232.70
609.99	30192.91
610.15	30314.62
610.30	30518.25
610.46	30389.52
610.61	30153.12
610.76	30539.31
610.92	30335.68
611.07	30164.82
611.23	30022.05
611.38	30352.07
611.54	30197.59
611.69	30359.09
611.84	30209.29
612.00	29905.02
612.15	30225.68
612.31	30480.80
612.46	30096.95
612.62	30349.73
612.77	30232.70
612.92	30422.28
613.08	30120.35
613.23	30361.43
613.39	30029.07
613.54	29958.86
613.69	29874.60
613.85	29776.30
614.00	30157.80
614.15	30031.41
614.31	30003.33
614.46	30302.92
614.62	29900.34
614.77	30338.02
614.92	29921.41
615.08	29855.87
615.23	29991.62
615.38	29825.45
615.54	29958.86
615.69	29841.83
615.84	29701.40
616.00	29963.54
616.15	29792.68
616.30	30110.99
616.46	30012.69
616.61	29720.12
616.76	30164.82
616.92	29699.06
617.07	29722.46
617.22	29387.77
617.37	29586.71
617.53	30052.48
617.68	29752.89
617.83	29865.24
617.99	29584.37
618.14	29359.68
618.29	29476.71
618.45	30089.93
618.60	29766.93
618.75	29804.38
618.90	29748.21
619.06	29668.63
619.21	29483.73
619.36	29429.90
619.51	29247.33
619.67	29137.33
619.82	29663.95
619.97	29434.58
620.12	29355.00
620.28	29408.83
620.43	29378.40
620.58	29717.78
620.73	29448.62
620.89	29792.68
621.04	29675.65
621.19	29598.41
621.34	29406.49
621.49	29383.09
621.65	29046.05
621.80	29191.16
621.95	29102.22
622.10	29362.02
622.25	29013.28
622.41	29156.05
622.56	29219.25
622.71	29387.77
622.86	29254.36
623.01	29233.29
623.16	29022.64
623.32	29294.14
623.47	28943.06
623.62	29263.72
623.77	28891.57
623.92	29230.95
624.07	28870.51
624.23	29219.25
624.38	29240.31
624.53	29181.80
624.68	29167.76
624.83	29319.89
624.98	29104.56
625.13	28744.12
625.29	29015.62
625.44	28973.49
625.59	28746.46
625.74	28987.53
625.89	28861.15
626.04	28816.68
626.19	28395.38
626.34	28947.75
626.49	28538.15
626.65	29053.07
626.80	28903.28
626.95	28575.60
627.10	28856.46
627.25	28603.69
627.40	28769.86
627.55	28608.37
627.70	28168.35
627.85	28196.43
628.00	28477.30
628.15	28601.35
628.30	28425.81
628.45	28680.92
628.60	28428.15
628.76	28591.98
628.91	28989.88
629.06	28437.51
629.21	28999.24
629.36	28783.91
629.51	28439.85
629.66	28180.05
629.81	27978.76
629.96	28444.53
630.11	28388.36
630.26	28254.95
630.41	28297.08
630.56	28297.08
630.71	28432.83
630.86	28224.52
631.01	28416.44
631.16	28386.02
631.31	28149.62
631.46	27733.01
631.61	28168.35
631.76	28346.23
631.91	28086.43
632.06	27852.38
632.21	28126.22
632.36	28088.77
632.51	27899.19
632.66	28063.02
632.81	27843.01
632.96	28390.70
633.10	28208.14
633.25	27990.47
633.40	28224.52
633.55	27920.25
633.70	27548.11
633.85	27962.38
634.00	27758.75
634.15	27702.58
634.30	27903.87
634.45	27632.36
634.60	27648.75
634.75	27754.07
634.90	28058.34
635.05	27885.14
635.19	27938.97
635.34	28034.94
635.49	27824.29
635.64	27903.87
635.79	27913.23
635.94	27594.92
636.09	27747.05
636.24	27566.83
636.39	27417.04
636.53	27402.99
636.68	27620.66
636.83	27428.74
636.98	27611.30
637.13	27220.43
637.28	27913.23
637.43	27538.74
637.57	27669.81
637.72	27220.43
637.87	27702.58
638.02	27292.99
638.17	27714.28
638.32	27194.68
638.46	27377.25
638.61	27271.92
638.76	27182.98
638.91	27335.12
639.06	26859.99
639.20	27543.42
639.35	27505.98
639.50	27358.52
639.65	27356.18
639.80	27505.98
639.94	27482.57
640.09	27105.74
640.24	27138.51
640.39	27445.12
640.54	26871.69
640.68	27119.79
640.83	26946.59
640.98	26764.03
641.13	26515.93
641.27	26876.37
641.42	26717.22
641.57	27288.31
641.72	26829.56
641.86	27119.79
642.01	26937.23
642.16	26794.45
642.31	27028.51
642.45	26953.61
642.60	26728.92
642.75	26937.23
642.90	26714.87
643.04	26771.05
643.19	26492.52
643.34	26469.12
643.48	26609.55
643.63	26572.10
643.78	26801.47
643.93	27225.11
644.07	27058.93
644.22	26761.69
644.37	26834.24
644.51	26944.25
644.66	26960.63
644.81	26698.49
644.95	26471.46
645.10	26611.89
645.25	26089.95
645.39	26436.35
645.54	26576.78
645.69	26878.71
645.83	26511.25
645.98	26799.13
646.13	26892.76
646.27	26647.00
646.42	26497.20
646.57	26134.42
646.71	26595.51
646.86	26604.87
647.00	26450.39
647.15	26647.00
647.30	26284.22
647.44	26328.69
647.59	26267.83
647.74	26319.32
647.88	26480.82
648.03	26352.09
648.17	26026.76
648.32	26331.03
648.47	26529.97
648.61	25991.65
648.76	26176.55
648.90	26689.13
649.05	26185.91
649.20	26024.42
649.34	26101.65
649.49	26036.12
649.63	25933.14
649.78	26185.91
649.92	26040.80
650.07	26061.87
650.21	25909.73
650.36	26005.69
650.51	26026.76
650.65	26302.94
650.80	26113.36
650.94	26274.85
651.09	26019.74
651.23	26022.08
651.38	25979.95
651.52	25816.11
651.67	25790.36
651.81	25979.95
651.96	25926.11
652.10	25771.64
652.25	25600.78
652.39	25916.75
652.54	26061.87
652.68	26040.80
652.83	25848.88
652.97	25865.26
653.12	26464.44
653.26	25575.03
653.41	25610.14
653.55	25230.98
653.70	25474.39
653.84	25715.47
653.99	25259.06
654.13	25680.36
654.27	25532.90
654.42	25486.09
654.56	25455.67
654.71	25579.71
654.85	25593.76
655.00	25797.38
655.14	25832.49
655.29	25340.98
655.43	25715.47
655.57	25319.92
655.72	26043.14
655.86	25174.80
656.01	25249.70
656.15	24896.28
656.30	25373.75
656.44	25247.36
656.58	25186.50
656.73	25102.25
656.87	25259.06
657.01	25411.20
657.16	25743.55
657.30	25366.73
657.45	24931.39
657.59	25357.36
657.73	24975.86
657.88	25172.46
658.02	25226.29
658.16	25219.27
658.31	25057.78
658.45	25132.67
658.60	24833.08
658.74	24938.41
658.88	24975.86
659.03	24694.99
659.17	24915.00
659.31	24919.68
659.46	24847.13
659.60	24971.18
659.74	25053.09
659.89	24844.79
660.03	24872.87
660.17	24929.05
660.32	24631.80
660.46	24797.98
660.60	24456.26
660.74	24549.88
660.89	24503.07
661.03	23988.15
661.17	24238.59
661.32	24236.25
661.46	24395.40
661.60	24671.59
661.74	24496.05
661.89	24917.34
662.03	24587.33
662.17	24332.21
662.31	24034.96
662.46	24400.08
662.60	24407.11
662.74	24194.12
662.88	24074.75
663.03	23936.66
663.17	23852.40
663.31	23744.73
663.45	24159.01
663.60	23988.15
663.74	23953.04
663.88	23826.65
664.02	23840.70
664.17	23946.02
664.31	23906.23
664.45	23611.32
664.59	24030.28
664.73	23807.93
664.88	23931.98
665.02	23667.50
665.16	23693.24
665.30	23344.50
665.44	23571.54
665.59	23232.16
665.73	23601.96
665.87	23480.25
666.01	23845.38
666.15	23358.55
666.29	23405.36
666.44	23641.75
666.58	23236.84
666.72	23384.29
666.86	23508.34
667.00	23288.33
667.14	23122.15
667.28	23005.13
667.43	22932.57
667.57	23267.27
667.71	22691.49
667.85	22939.59
667.99	22728.94
668.13	22845.97
668.27	22623.62
668.41	23271.95
668.56	22544.04
668.70	23108.11
668.84	22939.59
668.98	22815.54
669.12	22895.12
669.26	22843.63
669.40	22937.25
669.54	22986.40
669.68	22934.91
669.82	22635.32
669.96	22719.58
670.10	22324.03
670.25	22279.56
670.39	22443.40
670.53	22530.00
670.67	22178.92
670.81	22441.06
670.95	22352.12
671.09	22324.03
671.23	22614.26
671.37	22305.31
671.51	22345.09
671.65	22541.70
671.79	22274.88
671.93	21956.57
672.07	22010.40
672.21	21860.60
672.35	22038.48
672.49	21649.96
672.63	21909.75
672.77	21956.57
672.91	21715.49
673.05	21795.07
673.19	21607.83
673.33	21647.61
673.47	21467.39
673.61	21905.07
673.75	21326.96
673.89	21350.37
674.03	21441.65
674.17	21551.65
674.31	21387.82
674.45	21301.22
674.59	21158.44
674.73	21446.33
674.87	21151.42
675.01	21018.01
675.15	21219.30
675.29	21099.93
675.43	21069.50
675.56	20800.34
675.70	20952.48
675.84	21263.77
675.98	20460.96
676.12	20968.86
676.26	20978.22
676.40	20879.92
676.54	20929.07
676.68	20812.04
676.82	20273.72
676.96	20414.15
677.10	20093.50
677.23	20475.01
677.37	20379.04
677.51	20531.18
677.65	20093.50
677.79	20049.03
677.93	20231.59
678.07	19822.00
678.21	19630.07
678.34	19786.89
678.48	19552.84
678.62	19829.02
678.76	19826.68
678.90	19407.72
679.04	19686.25
679.18	19838.38
679.31	19463.90
679.45	19159.63
679.59	19105.79
679.73	19274.31
679.87	19197.07
680.00	19281.33
680.14	19047.28
680.28	19009.83
680.42	18965.36
680.56	19241.54
680.70	19051.96
680.83	19063.66
680.97	18960.68
681.11	18735.99
681.25	19058.98
681.39	18995.79
681.52	18710.24
681.66	18450.44
681.80	18368.52
681.94	18810.89
682.07	18658.75
682.21	18326.39
682.35	18349.80
682.49	18310.01
682.62	18097.02
682.76	18118.09
682.90	18288.95
683.04	18242.14
683.17	17987.02
683.31	18059.57
683.45	17937.87
683.59	17809.14
683.72	17949.57
683.86	18101.70
684.00	17764.67
684.13	17722.54
684.27	17654.66
684.41	17652.32
684.55	17336.35
684.68	17401.88
684.82	17006.33
684.96	17378.48
685.09	17207.62
685.23	17268.47
685.37	17195.92
685.50	17252.09
685.64	17151.45
685.78	17118.68
685.91	17305.92
686.05	17434.65
686.19	16992.29
686.32	17015.69
686.46	16807.39
686.60	16496.10
686.73	16556.95
686.87	16400.13
687.01	16669.30
687.14	16676.32
687.28	16446.94
687.42	16130.97
687.55	15824.36
687.69	16147.36
687.82	16112.25
687.96	16067.78
688.10	15887.56
688.23	15878.19
688.37	15995.22
688.50	16187.14
688.64	15765.85
688.78	15719.04
688.91	15878.19
689.05	15564.56
689.18	15730.74
689.32	15372.64
689.46	15552.86
689.59	15332.85
689.73	15681.59
689.86	15325.83
690.00	15410.09
690.13	15365.62
690.27	15169.01
690.41	15459.24
690.54	15023.90
690.68	14913.89
690.81	14843.68
690.95	15084.75
691.08	15206.46
691.22	14899.85
691.35	14941.98
691.49	14771.12
691.62	14869.42
691.76	14712.61
691.89	14602.60
692.03	14356.85
692.16	14328.76
692.30	14221.10
692.43	14263.22
692.57	14228.12
692.70	14099.39
692.84	14291.31
692.97	14197.69
693.11	14310.04
693.24	14003.43
693.38	13834.91
693.51	14132.15
693.65	13998.74
693.78	14132.15
693.92	13792.78
694.05	13724.90
694.19	13797.46
694.32	13668.73
694.45	13673.41
694.59	13568.09
694.72	13284.88
694.86	13607.87
694.99	13437.02
695.13	13298.92
695.26	13144.45
695.39	13219.35
695.53	13284.88
695.66	13200.62
695.80	12982.95
695.93	12964.23
696.07	13233.39
696.20	13095.30
696.33	12858.90
696.47	12877.63
696.60	12978.27
696.73	12739.54
696.87	12690.38
697.00	12704.43
697.14	12564.00
697.27	12573.36
697.40	12322.92
697.54	12521.87
697.67	12435.27
697.80	12105.25
697.94	12236.32
698.07	12257.39
698.21	11999.93
698.34	12170.79
698.47	12203.55
698.61	12030.35
698.74	11922.69
698.87	11920.35
699.01	11920.35
699.14	11800.98
699.27	11892.26
699.40	11723.74
699.54	11672.25
699.67	11714.38
699.80	11391.39
699.94	11487.35
700.07	11400.75
700.20	11229.89
700.34	11314.15
700.47	11206.48
700.60	11339.90
700.73	11367.98
700.87	11215.85
701.00	11262.66
701.13	11257.98
701.26	11325.85
701.40	10963.07
701.53	10925.62
701.66	11159.67
701.79	10611.99
701.93	10834.34
702.06	10721.99
702.19	10665.82
702.32	10436.45
702.46	10658.80
702.59	10363.89
702.72	10509.01
702.85	10504.32
702.99	10520.71
703.12	10574.54
703.25	10319.42
703.38	10574.54
703.51	10434.11
703.65	10347.51
703.78	10216.44
703.91	10197.71
704.04	10134.52
704.17	10265.59
704.31	10267.93
704.44	10066.64
704.57	9891.10
704.70	9832.59
704.83	9942.60
704.96	9785.78
705.10	9643.01
705.23	9687.48
>>>>>End Processed Spectral Data<<<<<
