SpectraSuite Data File
++++++++++++++++++++++++++++++++++++
Date: Fri Oct 18 13:58:23 GMT-05:00 2013
User: bianchi
Dark Spectrum Present: No
Reference Spectrum Present: No
Number of Sampled Component Spectra: 1
Spectrometers: USB2+H05261
Integration Time (usec): 50000 (USB2+H05261)
Spectra Averaged: 1 (USB2+H05261)
Boxcar Smoothing: 0 (USB2+H05261)
Correct for Electrical Dark: No (USB2+H05261)
Strobe/Lamp Enabled: No (USB2+H05261)
Correct for Detector Non-linearity: No (USB2+H05261)
Correct for Stray Light: No (USB2+H05261)
Number of Pixels in Processed Spectrum: 2048
>>>>>Begin Processed Spectral Data<<<<<
365.73	0.00
365.92	0.00
366.12	0.00
366.32	0.00
366.52	0.00
366.72	0.00
366.91	0.00
367.11	0.00
367.31	0.00
367.51	0.00
367.70	0.00
367.90	0.00
368.10	0.00
368.30	0.00
368.49	0.00
368.69	0.00
368.89	0.00
369.09	0.00
369.28	0.00
369.48	0.00
369.68	0.00
369.87	0.00
370.07	0.00
370.27	0.00
370.47	0.00
370.66	114.69
370.86	74.90
371.06	119.37
371.25	187.24
371.45	114.69
371.65	107.66
371.84	105.32
372.04	128.73
372.24	112.35
372.44	212.99
372.63	142.77
372.83	248.10
373.03	152.13
373.22	140.43
373.42	271.50
373.62	201.29
373.81	238.73
374.01	255.12
374.21	236.39
374.40	231.71
374.60	245.76
374.79	224.69
374.99	201.29
375.19	222.35
375.38	210.65
375.58	231.71
375.78	318.31
375.97	271.50
376.17	334.70
376.37	271.50
376.56	224.69
376.76	271.50
376.95	292.57
377.15	341.72
377.35	257.46
377.54	299.59
377.74	259.80
377.93	297.25
378.13	283.20
378.33	332.36
378.52	215.33
378.72	255.12
378.91	294.91
379.11	262.14
379.31	315.97
379.50	257.46
379.70	301.93
379.89	292.57
380.09	266.82
380.28	257.46
380.48	217.67
380.68	294.91
380.87	315.97
381.07	311.29
381.26	334.70
381.46	344.06
381.65	355.76
381.85	292.57
382.04	332.36
382.24	327.68
382.43	257.46
382.63	353.42
382.83	322.99
383.02	332.36
383.22	395.55
383.41	330.02
383.61	358.10
383.80	334.70
384.00	414.27
384.19	372.15
384.39	402.57
384.58	416.62
384.78	435.34
384.97	437.68
385.17	388.53
385.36	358.10
385.56	355.76
385.75	402.57
385.95	334.70
386.14	411.93
386.34	390.87
386.53	397.89
386.72	449.38
386.92	390.87
387.11	451.72
387.31	470.45
387.50	376.83
387.70	374.49
387.89	400.23
388.09	512.58
388.28	482.15
388.48	388.53
388.67	482.15
388.86	409.59
389.06	477.47
389.25	440.02
389.45	430.66
389.64	475.13
389.84	435.34
390.03	505.56
390.22	533.64
390.42	475.13
390.61	472.79
390.81	465.77
391.00	517.26
391.19	531.30
391.39	489.17
391.58	468.11
391.78	610.88
391.97	547.69
392.16	521.94
392.36	482.15
392.55	559.39
392.75	500.87
392.94	559.39
393.13	620.24
393.33	580.45
393.52	585.13
393.71	627.26
393.91	599.18
394.10	571.09
394.29	524.28
394.49	545.34
394.68	603.86
394.88	552.37
395.07	610.88
395.26	671.73
395.46	592.16
395.65	615.56
395.84	622.58
396.04	678.76
396.23	624.92
396.42	540.66
396.62	627.26
396.81	702.16
397.00	622.58
397.19	648.33
397.39	627.26
397.58	674.07
397.77	645.99
397.97	638.97
398.16	695.14
398.35	727.91
398.55	739.61
398.74	720.88
398.93	622.58
399.12	727.91
399.32	709.18
399.51	767.70
399.70	777.06
399.90	791.10
400.09	816.85
400.28	802.80
400.47	800.46
400.67	873.02
400.86	763.01
401.05	805.14
401.24	793.44
401.44	868.34
401.63	833.23
401.82	779.40
402.01	723.23
402.21	889.40
402.40	898.77
402.59	873.02
402.78	875.36
402.97	823.87
403.17	896.43
403.36	866.00
403.55	896.43
403.74	826.21
403.93	887.06
404.13	884.72
404.32	936.21
404.51	828.55
404.70	990.05
404.89	877.70
405.09	968.98
405.28	931.53
405.47	1001.75
405.66	1006.43
405.85	1074.31
406.05	1015.79
406.24	936.21
406.43	1020.47
406.62	997.07
406.81	1083.67
407.00	1008.77
407.20	1104.73
407.39	1067.28
407.58	1034.52
407.77	1025.15
407.96	1097.71
408.15	1107.07
408.34	1078.99
408.54	1032.18
408.73	1093.03
408.92	1130.48
409.11	1097.71
409.30	1181.97
409.49	1146.86
409.68	1193.67
409.87	1207.72
410.07	1245.16
410.26	1167.93
410.45	1240.48
410.64	1078.99
410.83	1249.85
411.02	1238.14
411.21	1296.66
411.40	1261.55
411.59	1252.19
411.78	1196.01
411.98	1350.49
412.17	1306.02
412.36	1273.25
412.55	1277.93
412.74	1324.74
412.93	1387.94
413.12	1322.40
413.31	1479.22
413.50	1350.49
413.69	1383.26
413.88	1404.32
414.07	1462.83
414.26	1547.09
414.45	1441.77
414.64	1476.88
414.83	1523.69
415.02	1537.73
415.22	1533.05
415.41	1533.05
415.60	1540.07
415.79	1523.69
415.98	1554.12
416.17	1596.25
416.36	1657.10
416.55	1610.29
416.74	1703.91
416.93	1661.78
417.12	1715.61
417.31	1675.82
417.50	1668.80
417.69	1715.61
417.88	1830.30
418.07	1771.79
418.26	1717.95
418.45	1675.82
418.64	1834.98
418.83	1823.28
419.02	1849.02
419.21	1785.83
419.39	1823.28
419.58	1771.79
419.77	1785.83
419.96	1949.67
420.15	1907.54
420.34	1849.02
420.53	1827.96
420.72	2047.97
420.91	1888.81
421.10	1905.20
421.29	1937.96
421.48	1834.98
421.67	1961.37
421.86	1998.82
422.05	2045.63
422.24	1954.35
422.43	1970.73
422.61	1895.83
422.80	2015.20
422.99	1987.11
423.18	1970.73
423.37	2031.58
423.56	2066.69
423.75	2024.56
423.94	1940.30
424.13	1928.60
424.32	1921.58
424.50	2071.37
424.69	2111.16
424.88	2052.65
425.07	2029.24
425.26	1923.92
425.45	1944.99
425.64	1959.03
425.83	2092.44
426.01	2127.55
426.20	2047.97
426.39	2097.12
426.58	2141.59
426.77	2120.53
426.96	2033.93
427.15	2043.29
427.33	2108.82
427.52	2108.82
427.71	2188.40
427.90	2157.97
428.09	2267.98
428.28	2272.66
428.46	2239.89
428.65	2239.89
428.84	2143.93
429.03	2340.54
429.22	2148.61
429.40	2265.64
429.59	2202.44
429.78	2179.04
429.97	2076.06
430.16	2237.55
430.34	2289.04
430.53	2328.83
430.72	2359.26
430.91	2359.26
431.10	2349.90
431.28	2298.41
431.47	2490.33
431.66	2420.11
431.85	2424.80
432.03	2466.92
432.22	2420.11
432.41	2459.90
432.60	2530.12
432.79	2532.46
432.97	2399.05
433.16	2392.03
433.35	2483.31
433.54	2534.80
433.72	2602.68
433.91	2539.48
434.10	2462.24
434.28	2457.56
434.47	2544.16
434.66	2544.16
434.85	2663.53
435.03	2485.65
435.22	2478.63
435.41	2630.76
435.59	2661.19
435.78	2668.21
435.97	2562.89
436.16	2621.40
436.34	2633.10
436.53	2581.61
436.72	2775.88
436.90	2672.89
437.09	2757.15
437.28	2726.72
437.46	2761.83
437.65	2764.17
437.84	2675.23
438.02	2764.17
438.21	2860.13
438.40	2806.30
438.58	2869.50
438.77	3052.06
438.96	2796.94
439.14	2953.76
439.33	2998.23
439.52	2920.99
439.70	2963.12
439.89	3110.57
440.08	3133.98
440.26	2993.55
440.45	3199.51
440.63	3105.89
440.82	3056.74
441.01	3150.36
441.19	3129.30
441.38	3279.09
441.57	3241.64
441.75	3171.43
441.94	3407.82
442.12	3204.19
442.31	3375.05
442.50	3351.65
442.68	3424.20
442.87	3297.81
443.05	3454.63
443.24	3428.88
443.43	3386.76
443.61	3363.35
443.80	3527.19
443.98	3251.00
444.17	3321.22
444.35	3351.65
444.54	3389.10
444.73	3393.78
444.91	3377.39
445.10	3412.50
445.28	3501.44
445.47	3452.29
445.65	3510.80
445.84	3471.01
446.02	3609.11
446.21	3466.33
446.39	3627.83
446.58	3578.68
446.77	3501.44
446.95	3414.84
447.14	3583.36
447.32	3604.42
447.51	3599.74
447.69	3562.30
447.88	3449.95
448.06	3506.12
448.25	3442.93
448.43	3726.13
448.62	3564.64
448.80	3620.81
448.99	3564.64
449.17	3574.00
449.36	3611.45
449.54	3836.14
449.73	3719.11
449.91	3709.75
450.10	3716.77
450.28	3721.45
450.46	3712.09
450.65	3758.90
450.83	3815.07
451.02	3803.37
451.20	3768.26
451.39	3744.86
451.57	3819.75
451.76	3864.22
451.94	3765.92
452.13	3929.76
452.31	3932.10
452.49	3899.33
452.68	3974.23
452.86	3978.91
453.05	3875.93
453.23	3999.98
453.42	3850.18
453.60	3932.10
453.78	3962.53
453.97	3859.54
454.15	3875.93
454.34	3962.53
454.52	4025.72
454.70	3920.40
454.89	3889.97
455.07	4102.96
455.26	4133.39
455.44	4170.83
455.62	4159.13
455.81	4091.26
455.99	4114.66
456.17	4245.73
456.36	4292.54
456.54	4313.61
456.73	4161.47
456.91	4393.19
457.09	4344.03
457.28	4461.06
457.46	4341.69
457.64	4386.16
457.83	4393.19
458.01	4332.33
458.19	4463.40
458.38	4519.57
458.56	4482.13
458.74	4386.16
458.93	4447.02
459.11	4514.89
459.29	4402.55
459.48	4400.21
459.66	4489.15
459.84	4557.02
460.03	4638.94
460.21	4582.77
460.39	4592.13
460.57	4720.86
460.76	4566.39
460.94	4695.11
461.12	4615.54
461.31	4554.68
461.49	4477.44
461.67	4547.66
461.85	4753.63
462.04	4559.36
462.22	4905.76
462.40	4774.69
462.59	4924.49
462.77	4688.09
462.95	4781.71
463.13	4856.61
463.32	4636.60
463.50	4777.03
463.68	4826.18
463.86	4943.21
464.05	4805.12
464.23	4856.61
464.41	4950.23
464.59	4985.34
464.78	5032.15
464.96	4753.63
465.14	4861.29
465.32	5018.11
465.50	5121.09
465.69	5013.43
465.87	5088.32
466.05	5041.51
466.23	5004.07
466.41	5083.64
466.60	5074.28
466.78	5025.13
466.96	5177.26
467.14	4961.94
467.32	5125.77
467.51	5284.93
467.69	5006.41
467.87	5219.39
468.05	5163.22
468.23	5195.99
468.41	5310.68
468.60	5233.44
468.78	5254.50
468.96	5132.79
469.14	5268.55
469.32	5394.93
469.50	5217.05
469.69	5460.47
469.87	5390.25
470.05	5493.24
470.23	5528.35
470.41	5460.47
470.59	5500.26
470.77	5418.34
470.95	5511.96
471.14	5570.48
471.32	5575.16
471.50	5572.82
471.68	5582.18
471.86	5870.06
472.04	5645.37
472.22	5919.21
472.40	5671.12
472.58	5717.93
472.77	5743.67
472.95	5832.62
473.13	5916.87
473.31	5809.21
473.49	5907.51
473.67	5940.28
473.85	5916.87
474.03	5982.41
474.21	6071.35
474.39	6001.13
474.57	6052.63
474.75	6139.23
474.93	6214.12
475.12	6076.03
475.30	6242.21
475.48	6282.00
475.66	6403.71
475.84	6338.17
476.02	6293.70
476.20	6239.87
476.38	6511.37
476.56	6705.63
476.74	6576.91
476.92	6513.71
477.10	6773.51
477.28	6832.02
477.46	6712.66
477.64	6619.04
477.82	6876.49
478.00	7096.50
478.18	6970.12
478.36	7070.76
478.54	6988.84
478.72	6993.52
478.90	7162.04
479.08	7206.51
479.26	7290.77
479.44	7276.73
479.62	7297.79
479.80	7595.04
479.98	7513.12
480.16	7480.35
480.34	7466.31
480.52	7503.76
480.70	7784.62
480.88	7599.72
481.06	7702.70
481.24	7740.15
481.41	7683.98
481.59	8021.02
481.77	8056.12
481.95	8173.15
482.13	8119.32
482.31	8109.96
482.49	8367.42
482.67	8437.63
482.85	8369.76
483.03	8615.51
483.21	8645.94
483.39	8821.48
483.57	8667.00
483.74	8847.22
483.92	8807.44
484.10	8573.38
484.28	9156.18
484.46	9118.73
484.64	9277.88
484.82	8975.95
485.00	9240.44
485.18	9432.36
485.35	9572.79
485.53	9486.19
485.71	9418.32
485.89	9900.47
486.07	9628.96
486.25	9734.29
486.43	9748.33
486.61	9664.07
486.78	9865.36
486.96	9797.48
487.14	10153.24
487.32	10097.07
487.50	10101.75
487.68	10289.00
487.85	10408.36
488.03	10464.54
488.21	10714.97
488.39	10511.35
488.57	10581.56
488.75	10836.68
488.92	10822.64
489.10	11002.86
489.28	11122.23
489.46	11192.44
489.64	11150.31
489.81	11410.11
489.99	11421.81
490.17	11370.32
490.35	11520.12
490.53	11559.91
490.70	11639.48
490.88	11695.66
491.06	11793.96
491.24	11892.26
491.41	11953.12
491.59	12329.94
491.77	12037.38
491.95	12486.76
492.13	12262.07
492.30	12432.93
492.48	12341.64
492.66	12374.41
492.84	12521.87
493.01	12559.31
493.19	12868.27
493.37	12746.56
493.54	12957.21
493.72	13076.57
493.90	12842.52
494.08	13004.02
494.25	13130.41
494.43	13350.42
494.61	13392.55
494.79	13446.38
494.96	13048.49
495.14	13420.63
495.32	13474.46
495.49	13638.30
495.67	13647.66
495.85	13916.83
496.02	13755.33
496.20	14141.52
496.38	14012.79
496.55	14040.87
496.73	14178.97
496.91	14480.89
497.09	14476.21
497.26	14300.67
497.44	14303.01
497.62	14310.04
497.79	14553.45
497.97	14764.10
498.14	14932.62
498.32	14920.92
498.50	14934.96
498.67	15286.04
498.85	15105.82
499.03	15192.42
499.20	15218.16
499.38	15201.78
499.56	15089.43
499.73	15295.40
499.91	15571.58
500.08	15543.50
500.26	15358.60
500.44	15227.53
500.61	15580.95
500.79	15674.57
500.97	15847.77
501.14	15988.20
501.32	15831.38
501.49	15922.66
501.67	15805.64
501.84	15969.48
502.02	15826.70
502.20	16152.04
502.37	16322.90
502.55	16358.00
502.72	16695.04
502.90	16123.95
503.07	16163.74
503.25	16519.50
503.43	16475.03
503.60	16634.19
503.78	16842.50
503.95	16617.80
504.13	16755.90
504.30	16608.44
504.48	16702.06
504.65	16922.07
504.83	16971.22
505.01	17219.32
505.18	17401.88
505.36	17266.13
505.53	17268.47
505.71	17146.76
505.88	17296.56
506.06	16943.14
506.23	17556.36
506.41	17170.17
506.58	17406.56
506.76	17439.33
506.93	17657.00
507.11	17514.23
507.28	17682.75
507.46	17996.38
507.63	17727.22
507.81	17930.84
507.98	18225.75
508.16	17989.36
508.33	17937.87
508.50	18118.09
508.68	17996.38
508.85	17970.63
509.03	18265.54
509.20	18471.51
509.38	18188.30
509.55	18548.75
509.73	18794.50
509.90	18562.79
510.08	18548.75
510.25	18658.75
510.42	18813.23
510.60	18857.70
510.77	19040.26
510.95	19096.43
511.12	18625.98
511.30	18621.30
511.47	18991.11
511.64	18871.74
511.82	19253.25
511.99	18853.02
512.17	19349.21
512.34	18878.76
512.51	19499.00
512.69	19496.66
512.86	19428.79
513.04	19494.32
513.21	19571.56
513.38	19623.05
513.56	19782.21
513.73	19484.96
513.90	19658.16
514.08	19623.05
514.25	19882.85
514.43	19779.87
514.60	20168.40
514.77	20002.22
514.95	20369.68
515.12	19843.06
515.29	19850.08
515.47	20201.16
515.64	20252.66
515.81	20421.17
515.99	20119.24
516.16	20655.23
516.33	20762.89
516.51	20306.49
516.68	20318.19
516.85	20077.12
517.03	20610.76
517.20	20585.01
517.37	20975.88
517.54	20788.64
517.72	20823.75
517.89	20805.02
518.06	20718.42
518.24	20641.18
518.41	20482.03
518.58	21006.31
518.75	20856.51
518.93	21238.02
519.10	21008.65
519.27	20809.70
519.45	21146.74
519.62	21273.13
519.79	21130.36
519.96	21282.49
520.14	21336.32
520.31	21458.03
520.48	21832.52
520.65	21240.36
520.83	21624.21
521.00	21687.40
521.17	21823.16
521.34	21717.83
521.52	21696.77
521.69	21921.46
521.86	21778.68
522.03	21975.29
522.20	22113.38
522.38	22207.00
522.55	22012.74
522.72	21776.34
522.89	22068.91
523.07	22441.06
523.24	22197.64
523.41	22558.08
523.58	22008.06
523.75	22471.48
523.92	22108.70
524.10	22541.70
524.27	22490.21
524.44	22714.90
524.61	23026.19
524.78	22766.39
524.96	22632.98
525.13	22665.75
525.30	22665.75
525.47	22857.67
525.64	22649.36
525.81	22843.63
525.98	22960.66
526.16	22771.07
526.33	22747.67
526.50	23178.33
526.67	22813.20
526.84	22782.77
527.01	23014.49
527.18	23461.53
527.36	23260.24
527.53	23658.14
527.70	23604.30
527.87	23386.63
528.04	23260.24
528.21	23608.98
528.38	23278.97
528.55	23503.66
528.72	23627.71
528.89	23807.93
529.07	23639.41
529.24	23426.42
529.41	23606.64
529.58	23608.98
529.75	23637.07
529.92	23943.68
530.09	23653.45
530.26	23791.55
530.43	24109.86
530.60	23711.97
530.77	24123.90
530.94	23702.61
531.11	23779.84
531.28	23971.77
531.46	24166.03
531.63	24079.43
531.80	24128.58
531.97	24168.37
532.14	24208.16
532.31	24159.01
532.48	24215.18
532.65	24837.76
532.82	24393.06
532.99	24393.06
533.16	24592.01
533.33	24416.47
533.50	24561.58
533.67	24666.91
533.84	24638.82
534.01	24608.39
534.18	24276.04
534.35	24760.53
534.52	25027.35
534.69	24702.01
534.86	24732.44
535.03	25205.23
535.20	24751.17
535.37	24868.19
535.54	25146.72
535.71	24971.18
535.88	24769.89
536.05	24861.17
536.22	25319.92
536.38	25036.71
536.55	25144.38
536.72	25266.08
536.89	25186.50
537.06	25167.78
537.23	25259.06
537.40	25261.40
537.57	25736.53
537.74	25593.76
537.91	25645.25
538.08	25453.33
538.25	25195.87
538.42	25350.34
538.59	25322.26
538.75	25181.82
538.92	25806.75
539.09	25589.08
539.26	25619.50
539.43	25790.36
539.60	25736.53
539.77	25825.47
539.94	25743.55
540.11	25685.04
540.28	25668.66
540.44	25825.47
540.61	25619.50
540.78	25851.22
540.95	25624.18
541.12	25757.60
541.29	25717.81
541.46	26125.06
541.62	25935.48
541.79	25970.58
541.96	25626.53
542.13	26094.63
542.30	26434.01
542.47	26061.87
542.63	26373.16
542.80	26565.08
542.97	26548.70
543.14	26721.90
543.31	26118.04
543.48	26658.70
543.64	26735.94
543.81	26977.01
543.98	26483.16
544.15	26874.03
544.32	26717.22
544.48	26768.71
544.65	26789.77
544.82	26862.33
544.99	26565.08
545.16	26686.79
545.32	27026.17
545.49	27063.61
545.66	27290.65
545.83	27297.67
546.00	27133.83
546.16	26946.59
546.33	26817.86
546.50	26874.03
546.67	26927.86
546.83	26810.84
547.00	27372.57
547.17	26988.72
547.34	26984.04
547.50	27150.21
547.67	27342.14
547.84	27339.80
548.00	27543.42
548.17	27541.08
548.34	27234.47
548.51	27344.48
548.67	27632.36
548.84	27747.05
549.01	27180.64
549.18	27447.46
549.34	27246.18
549.51	27573.85
549.68	27426.40
549.84	27531.72
550.01	27545.76
550.18	27302.35
550.34	27410.01
550.51	27751.73
550.68	27749.39
550.84	27639.39
551.01	28020.89
551.18	27501.29
551.34	27814.93
551.51	27819.61
551.68	27667.47
551.84	27948.34
552.01	28030.26
552.18	28130.90
552.34	28142.60
552.51	28056.00
552.68	27875.78
552.84	27864.08
553.01	28210.48
553.18	27946.00
553.34	28304.10
553.51	28294.74
553.67	28196.43
553.84	28596.67
554.01	28868.17
554.17	28503.04
554.34	28070.04
554.51	28201.11
554.67	28540.49
554.84	28088.77
555.00	28105.15
555.17	28222.18
555.33	28325.16
555.50	28486.66
555.67	28189.41
555.83	28472.62
556.00	28390.70
556.16	28489.00
556.33	28184.73
556.50	28594.32
556.66	28453.89
556.83	28601.35
556.99	28706.67
557.16	29008.60
557.32	28594.32
557.49	28643.48
557.65	28666.88
557.82	28769.86
557.98	28510.07
558.15	28811.99
558.32	28849.44
558.48	28903.28
558.65	28694.97
558.81	29048.39
558.98	28947.75
559.14	28947.75
559.31	28645.82
559.47	28589.64
559.64	28819.02
559.80	28975.83
559.97	29099.88
560.13	28734.76
560.30	29191.16
560.46	28938.38
560.63	28821.36
560.79	29071.79
560.96	29024.98
561.12	28760.50
561.29	28903.28
561.45	29032.00
561.61	29425.22
561.78	29284.78
561.94	29076.48
562.11	28987.53
562.27	29165.42
562.44	29303.51
562.60	29020.30
562.77	28926.68
562.93	29329.25
563.10	29670.97
563.26	29036.69
563.42	29127.97
563.59	28828.38
563.75	29465.00
563.92	29352.66
564.08	29336.27
564.24	29418.19
564.41	29111.58
564.57	29474.37
564.74	28985.19
564.90	29612.46
565.07	29369.04
565.23	29345.64
565.39	29453.30
565.56	29750.55
565.72	29399.47
565.88	29277.76
566.05	29259.04
566.21	29717.78
566.38	29336.27
566.54	29516.50
566.70	29661.61
566.87	29738.85
567.03	29624.16
567.19	29560.97
567.36	29399.47
567.52	29039.03
567.68	29427.56
567.85	29521.18
568.01	29551.60
568.17	29584.37
568.34	29773.95
568.50	29813.74
568.66	29839.49
568.83	29773.95
568.99	29497.77
569.15	29472.03
569.32	29268.40
569.48	29570.33
569.64	29607.78
569.81	29991.62
569.97	29792.68
570.13	30022.05
570.30	29729.48
570.46	29853.53
570.62	29436.92
570.78	29860.55
570.95	29586.71
571.11	29584.37
571.27	29369.04
571.43	29762.25
571.60	29802.04
571.76	29743.53
571.92	30008.01
572.09	29766.93
572.25	29919.07
572.41	29764.59
572.57	29827.79
572.74	29785.66
572.90	29837.15
573.06	29699.06
573.22	29567.99
573.38	29425.22
573.55	29748.21
573.71	30176.53
573.87	30160.14
574.03	29645.23
574.20	29479.05
574.36	29642.88
574.52	29434.58
574.68	29649.91
574.84	29858.21
575.01	30335.68
575.17	29853.53
575.33	29888.64
575.49	29919.07
575.65	30300.58
575.82	30017.37
575.98	29696.72
576.14	30349.73
576.30	29874.60
576.46	29937.79
576.62	30029.07
576.79	29858.21
576.95	29928.43
577.11	30181.21
577.27	30162.48
577.43	30616.55
577.59	29825.45
577.75	30167.16
577.92	29977.58
578.08	29926.09
578.24	30064.18
578.40	29750.55
578.56	30096.95
578.72	30394.20
578.88	30132.06
579.04	30529.95
579.21	30471.43
579.37	30340.36
579.53	30036.09
579.69	29591.39
579.85	29933.11
580.01	30101.63
580.17	29799.70
580.33	29942.47
580.49	29893.32
580.65	30492.50
580.82	29961.20
580.98	30061.84
581.14	30125.04
581.30	30221.00
581.46	29860.55
581.62	29827.79
581.78	29928.43
581.94	30253.76
582.10	29954.18
582.26	30134.40
582.42	30045.46
582.58	30253.76
582.74	30132.06
582.90	30003.33
583.06	30621.23
583.22	30183.55
583.38	29972.90
583.54	30293.55
583.70	29944.81
583.86	30000.99
584.02	29942.47
584.18	30597.82
584.34	30520.59
584.50	30244.40
584.66	30354.41
584.82	30045.46
584.98	30286.53
585.14	30139.08
585.30	30026.73
585.46	30335.68
585.62	29860.55
585.78	30082.91
585.94	30103.97
586.10	30359.09
586.26	30436.33
586.42	30363.77
586.58	29937.79
586.74	30132.06
586.90	30178.87
587.06	30008.01
587.22	30307.60
587.38	29965.88
587.54	30314.62
587.70	30513.56
587.86	30527.61
588.02	30522.93
588.18	30195.25
588.34	30235.04
588.49	30204.61
588.65	30527.61
588.81	30054.82
588.97	30366.11
589.13	30244.40
589.29	30342.70
589.45	30625.91
589.61	30270.15
589.77	30529.95
589.93	30799.11
590.08	30616.55
590.24	30796.77
590.40	30604.84
590.56	30497.18
590.72	30190.57
590.88	30356.75
591.04	30698.47
591.20	30787.41
591.35	30834.22
591.51	30897.41
591.67	30480.80
591.83	30946.56
591.99	30508.88
592.15	30499.52
592.31	30490.16
592.46	30747.62
592.62	30448.03
592.78	30726.55
592.94	30731.23
593.10	31042.53
593.26	30817.83
593.41	30228.02
593.57	30792.09
593.73	30859.96
593.89	30745.28
594.05	30705.49
594.20	30845.92
594.36	30572.08
594.52	30122.69
594.68	30543.99
594.84	30733.57
594.99	30719.53
595.15	30724.21
595.31	30981.67
595.47	30754.64
595.62	30902.09
595.78	30658.68
595.94	30984.01
596.10	30333.34
596.25	30803.79
596.41	30525.27
596.57	30478.46
596.73	30651.66
596.88	30267.81
597.04	30745.28
597.20	30911.46
597.36	30934.86
597.51	30352.07
597.67	30792.09
597.83	30700.81
597.99	30967.63
598.14	30396.54
598.30	30281.85
598.46	30466.75
598.61	30590.80
598.77	30710.17
598.93	30822.51
599.09	30675.06
599.24	31187.64
599.40	31021.46
599.56	30747.62
599.71	30850.60
599.87	30827.20
600.03	31009.76
600.18	30478.46
600.34	30752.30
600.50	30981.67
600.65	30644.63
600.81	31164.23
600.97	31112.74
601.12	30981.67
601.28	30991.03
601.44	31061.25
601.59	30623.57
601.75	30932.52
601.91	30831.88
602.06	30778.04
602.22	30815.49
602.37	30712.51
602.53	30646.97
602.69	31129.12
602.84	31140.83
603.00	30843.58
603.16	31131.47
603.31	30710.17
603.47	30682.08
603.62	31082.31
603.78	30876.35
603.94	30480.80
604.09	30560.37
604.25	30331.00
604.40	30675.06
604.56	30749.96
604.71	31005.08
604.87	30621.23
605.03	31051.89
605.18	30806.13
605.34	30775.70
605.49	30579.10
605.65	30586.12
605.80	30651.66
605.96	30969.97
606.12	30431.65
606.27	30593.14
606.43	30553.35
606.58	31264.88
606.74	31161.89
606.89	30436.33
607.05	30684.42
607.20	30394.20
607.36	30754.64
607.51	30859.96
607.67	30398.88
607.82	30363.77
607.98	30586.12
608.13	30635.27
608.29	30448.03
608.44	30845.92
608.60	30705.49
608.75	30892.73
608.91	30726.55
609.06	30522.93
609.22	30639.95
609.37	30403.56
609.53	30370.79
609.68	30501.86
609.84	30242.06
609.99	30096.95
610.15	30668.04
610.30	30485.48
610.46	30700.81
610.61	30408.24
610.76	30780.39
610.92	30424.62
611.07	30522.93
611.23	30506.54
611.38	30455.05
611.54	30052.48
611.69	30181.21
611.84	30118.01
612.00	30216.32
612.15	30199.93
612.31	30562.72
612.46	30153.12
612.62	30574.42
612.77	30338.02
612.92	30937.20
613.08	29895.66
613.23	30639.95
613.39	30141.42
613.54	29977.58
613.69	30408.24
613.85	30237.38
614.00	30036.09
614.15	30433.99
614.31	29937.79
614.46	30335.68
614.62	30436.33
614.77	30108.65
614.92	30342.70
615.08	30190.57
615.23	30146.10
615.38	30221.00
615.54	30115.67
615.69	29890.98
615.84	30195.25
616.00	30162.48
616.15	29811.40
616.30	30258.45
616.46	30263.13
616.61	29956.52
616.76	30110.99
616.92	29762.25
617.07	29820.77
617.22	29830.13
617.37	29780.98
617.53	30129.72
617.68	29888.64
617.83	30160.14
617.99	29802.04
618.14	30031.41
618.29	29661.61
618.45	29982.26
618.60	29731.83
618.75	29809.06
618.90	29687.36
619.06	29694.38
619.21	29724.80
619.36	29715.44
619.51	29556.28
619.67	29862.90
619.82	29385.43
619.97	29869.92
620.12	29596.07
620.28	29600.76
620.43	29942.47
620.58	29539.90
620.73	29537.56
620.89	30073.54
621.04	29926.09
621.19	30029.07
621.34	29455.64
621.49	29624.16
621.65	29113.92
621.80	29567.99
621.95	29242.65
622.10	29661.61
622.25	29041.37
622.41	29179.46
622.56	29495.43
622.71	29205.20
622.86	29186.48
623.01	29296.49
623.16	29212.23
623.32	28952.43
623.47	29261.38
623.62	29207.55
623.77	29078.82
623.92	29249.67
624.07	28922.00
624.23	29113.92
624.38	29027.32
624.53	29111.58
624.68	28975.83
624.83	29165.42
624.98	29237.97
625.13	29172.44
625.29	29504.79
625.44	29294.14
625.59	28816.68
625.74	29092.86
625.89	28882.21
626.04	29017.96
626.19	28786.25
626.34	28842.42
626.49	28718.37
626.65	28837.74
626.80	28959.45
626.95	28975.83
627.10	28950.09
627.25	28769.86
627.40	28584.96
627.55	28769.86
627.70	28924.34
627.85	28568.58
628.00	28528.79
628.15	28898.59
628.30	28458.57
628.45	28521.77
628.60	28711.35
628.76	28479.64
628.91	28467.94
629.06	28706.67
629.21	28793.27
629.36	28456.23
629.51	28540.49
629.66	28451.55
629.81	28240.90
629.96	28435.17
630.11	28432.83
630.26	28641.14
630.41	28533.47
630.56	28166.01
630.71	28411.76
630.86	28648.16
631.01	28432.83
631.16	28325.16
631.31	28308.78
631.46	28224.52
631.61	28491.34
631.76	28116.86
631.91	27929.61
632.06	28060.68
632.21	28032.60
632.36	28240.90
632.51	27728.33
632.66	28201.11
632.81	28247.93
632.96	28018.55
633.10	28327.50
633.25	28339.21
633.40	28360.27
633.55	27765.78
633.70	27906.21
633.85	28210.48
634.00	27915.57
634.15	28144.94
634.30	28034.94
634.45	27960.04
634.60	27946.00
634.75	27845.35
634.90	28072.39
635.05	28128.56
635.19	28032.60
635.34	27985.79
635.49	28191.75
635.64	28084.09
635.79	27798.54
635.94	28091.11
636.09	27674.49
636.24	27463.85
636.39	27693.22
636.53	27665.13
636.68	27667.47
636.83	27175.96
636.98	28081.75
637.13	27449.80
637.28	27887.48
637.43	28187.07
637.57	28095.79
637.72	27693.22
637.87	27456.82
638.02	27903.87
638.17	27924.93
638.32	27695.56
638.46	27395.97
638.61	27435.76
638.76	26974.67
638.91	27194.68
639.06	27393.63
639.20	27325.75
639.35	27887.48
639.50	27601.94
639.65	27733.01
639.80	27742.37
639.94	27658.11
640.09	27482.57
640.24	27463.85
640.39	27030.85
640.54	27082.34
640.68	27072.98
640.83	27204.05
640.98	27143.19
641.13	27115.11
641.27	27520.02
641.42	27136.17
641.57	27047.23
641.72	27161.92
641.86	27292.99
642.01	26841.26
642.16	27194.68
642.31	27143.19
642.45	27225.11
642.60	26686.79
642.75	26799.13
642.90	26859.99
643.04	26787.43
643.19	26724.24
643.34	26518.27
643.48	26909.14
643.63	26932.54
643.78	27264.90
643.93	27154.90
644.07	26988.72
644.22	26986.38
644.37	26890.41
644.51	27171.28
644.66	26754.66
644.81	26689.13
644.95	26848.29
645.10	26377.84
645.25	26689.13
645.39	26452.73
645.54	26373.16
645.69	26403.58
645.83	26639.98
645.98	27061.27
646.13	26871.69
646.27	26862.33
646.42	26572.10
646.57	26448.05
646.71	26698.49
646.86	26941.91
647.00	26672.74
647.15	26335.71
647.30	26277.19
647.44	26019.74
647.59	26366.13
647.74	26321.66
647.88	26721.90
648.03	26494.86
648.17	26586.15
648.32	26796.79
648.47	26721.90
648.61	26155.49
648.76	26242.09
648.90	26745.30
649.05	26522.95
649.20	26253.79
649.34	26410.60
649.49	26160.17
649.63	26125.06
649.78	26169.53
649.92	25804.41
650.07	26539.33
650.21	26019.74
650.36	25926.11
650.51	25933.14
650.65	26314.64
650.80	26118.04
650.94	26209.32
651.09	26272.51
651.23	26089.95
651.38	26331.03
651.52	26246.77
651.67	25965.90
651.81	26286.56
651.96	25930.80
652.10	25979.95
652.25	26239.75
652.39	26183.57
652.54	26111.02
652.68	26176.55
652.83	25891.01
652.97	26199.96
653.12	26019.74
653.26	25846.54
653.41	26029.10
653.55	25947.18
653.70	25853.56
653.84	25628.87
653.99	25837.17
654.13	25937.82
654.27	25837.17
654.42	25659.29
654.56	25891.01
654.71	25823.13
654.85	25788.02
655.00	25795.04
655.14	25804.41
655.29	25773.98
655.43	25731.85
655.57	25626.53
655.72	25528.22
655.86	25596.10
656.01	25575.03
656.15	25387.79
656.30	25195.87
656.44	25329.28
656.58	25270.76
656.73	25418.22
656.87	25586.74
657.01	25308.21
657.16	25689.72
657.30	25287.15
657.45	25427.58
657.59	25483.75
657.73	25333.96
657.88	25500.14
658.02	25301.19
658.16	24938.41
658.31	24865.85
658.45	25301.19
658.60	25366.73
658.74	25036.71
658.88	25043.73
659.03	25139.69
659.17	25020.33
659.31	24648.18
659.46	24952.45
659.60	25390.13
659.74	25282.47
659.89	24999.26
660.03	24936.07
660.17	25228.63
660.32	24716.06
660.46	24973.52
660.60	24594.35
660.74	24800.32
660.89	24702.01
661.03	24634.14
661.17	24851.81
661.32	24627.12
661.46	24713.72
661.60	25027.35
661.74	24790.95
661.89	24531.15
662.03	24709.04
662.17	24493.71
662.31	24339.23
662.46	24549.88
662.60	24189.44
662.74	24498.39
662.88	24489.03
663.03	24041.98
663.17	24126.24
663.31	23857.08
663.45	24180.07
663.60	24280.72
663.74	23981.13
663.88	24355.61
664.02	24510.09
664.17	24636.48
664.31	23955.38
664.45	23646.43
664.59	24067.73
664.73	24107.52
664.88	23845.38
665.02	23587.92
665.16	23840.70
665.30	23644.09
665.44	23924.96
665.59	23576.22
665.73	23702.61
665.87	23281.31
666.01	23793.89
666.15	23545.79
666.29	23571.54
666.44	23293.01
666.58	23452.17
666.72	23330.46
666.86	23541.11
667.00	23405.36
667.14	23325.78
667.28	23199.39
667.43	23651.11
667.57	23489.62
667.71	22918.53
667.85	23374.93
667.99	23253.22
668.13	22852.99
668.27	23220.45
668.41	23307.05
668.56	23183.01
668.70	22883.42
668.84	23269.61
668.98	22848.31
669.12	23070.66
669.26	23173.64
669.40	23091.73
669.54	22958.31
669.68	22862.35
669.82	23077.68
669.96	23063.64
670.10	22436.38
670.25	22780.43
670.39	22581.49
670.53	22478.50
670.67	22476.16
670.81	22476.16
670.95	22263.18
671.09	22434.03
671.23	22740.64
671.37	22380.20
671.51	22260.84
671.65	22640.00
671.79	22375.52
671.93	22017.42
672.07	22412.97
672.21	22005.72
672.35	21834.86
672.49	21806.77
672.63	22092.32
672.77	21759.96
672.91	22047.85
673.05	21914.44
673.19	22012.74
673.33	21682.72
673.47	21900.39
673.61	22045.51
673.75	21748.26
673.89	21638.25
674.03	21481.44
674.17	21776.34
674.31	21343.35
674.45	21680.38
674.59	21088.23
674.73	21469.73
674.87	21443.99
675.01	21219.30
675.15	21113.97
675.29	21460.37
675.43	21013.33
675.56	21022.69
675.70	21181.85
675.84	21270.79
675.98	20718.42
676.12	21149.08
676.26	21209.93
676.40	21123.33
676.54	20903.32
676.68	20800.34
676.82	20475.01
676.96	20535.86
677.10	20549.90
677.23	20341.60
677.37	20620.12
677.51	20210.53
677.65	20056.05
677.79	20053.71
677.93	19922.64
678.07	20226.91
678.21	20060.73
678.34	19924.98
678.48	20009.24
678.62	19995.20
678.76	19978.81
678.90	19618.37
679.04	19775.19
679.18	19861.79
679.31	19660.50
679.45	19435.81
679.59	19487.30
679.73	19412.40
679.87	19391.34
680.00	19077.71
680.14	19400.70
680.28	19124.52
680.42	19208.78
680.56	19171.33
680.70	19075.37
680.83	19131.54
680.97	19143.24
681.11	19023.87
681.25	18799.18
681.39	18764.07
681.52	18745.35
681.66	18745.35
681.80	18750.03
681.94	18640.03
682.07	18558.11
682.21	18370.86
682.35	18471.51
682.49	18090.00
682.62	18354.48
682.76	18281.92
682.90	18349.80
683.04	18181.28
683.17	18197.67
683.31	18232.77
683.45	17877.01
683.59	18115.75
683.72	17874.67
683.86	18157.88
684.00	18022.12
684.13	17909.78
684.27	17614.87
684.41	17759.98
684.55	17640.62
684.68	17429.97
684.82	17378.48
684.96	17378.48
685.09	17282.52
685.23	17441.67
685.37	17280.18
685.50	17106.98
685.64	17116.34
685.78	17287.20
685.91	17123.36
686.05	17158.47
686.19	17055.48
686.32	17043.78
686.46	16872.92
686.60	16678.66
686.73	16627.17
686.87	16388.43
687.01	16627.17
687.14	16500.78
687.28	16402.47
687.42	16486.73
687.55	16421.20
687.69	16517.16
687.82	16215.23
687.96	16301.83
688.10	16276.09
688.23	16460.99
688.37	16023.31
688.50	15953.09
688.64	16255.02
688.78	15779.89
688.91	16044.37
689.05	15740.10
689.18	15817.34
689.32	15602.01
689.46	15557.54
689.59	15676.91
689.73	15583.29
689.86	15494.35
690.00	15356.25
690.13	15672.23
690.27	15463.92
690.41	15295.40
690.54	15222.84
690.68	15400.72
690.81	15187.74
690.95	15255.61
691.08	15370.30
691.22	14813.25
691.35	14920.92
691.49	14885.81
691.62	14881.13
691.76	14656.43
691.89	14665.80
692.03	14590.90
692.16	14581.54
692.30	14459.83
692.43	14265.57
692.57	14183.65
692.70	14553.45
692.84	14073.64
692.97	14272.59
693.11	14398.98
693.24	14012.79
693.38	14036.19
693.51	14169.60
693.65	14083.00
693.78	13937.89
693.92	14045.55
694.05	13994.06
694.19	13514.25
694.32	13593.83
694.45	13673.41
694.59	13586.81
694.72	13575.11
694.86	13642.98
694.99	13261.48
695.13	13289.56
695.26	13429.99
695.39	13432.33
695.53	13425.31
695.66	13331.69
695.80	13242.75
695.93	13191.26
696.07	13383.18
696.20	13329.35
696.33	13156.15
696.47	13076.57
696.60	12793.37
696.73	12849.54
696.87	12894.01
697.00	12765.28
697.14	12746.56
697.27	12498.46
697.40	12446.97
697.54	12627.19
697.67	12334.62
697.80	12273.77
697.94	12493.78
698.07	12189.51
698.21	12133.34
698.34	12311.22
698.47	12184.83
698.61	12442.29
698.74	12257.39
698.87	12159.08
699.01	11936.73
699.14	11843.11
699.27	11791.62
699.40	11887.58
699.54	11779.92
699.67	11583.31
699.80	11609.06
699.94	11796.30
700.07	11375.00
700.20	11356.28
700.34	11370.32
700.47	11398.41
700.60	11637.14
700.73	11506.07
700.87	11407.77
701.00	11166.70
701.13	11232.23
701.26	11225.21
701.40	11213.51
701.53	11169.04
701.66	11143.29
701.79	10944.34
701.93	11014.56
702.06	10916.26
702.19	10731.36
702.32	10698.59
702.46	10640.08
702.59	10560.50
702.72	10518.37
702.85	10375.59
702.99	10661.14
703.12	10530.07
703.25	10431.77
703.38	10354.53
703.51	10256.23
703.65	10167.29
703.78	10235.16
703.91	10256.23
704.04	10258.57
704.17	10291.34
704.31	10054.94
704.44	10139.20
704.57	10047.92
704.70	9834.93
704.83	9940.26
704.96	9907.49
705.10	9820.89
705.23	9834.93
>>>>>End Processed Spectral Data<<<<<
