SpectraSuite Data File
++++++++++++++++++++++++++++++++++++
Date: Fri Oct 18 13:58:31 GMT-05:00 2013
User: bianchi
Dark Spectrum Present: No
Reference Spectrum Present: No
Number of Sampled Component Spectra: 1
Spectrometers: USB2+H05261
Integration Time (usec): 50000 (USB2+H05261)
Spectra Averaged: 1 (USB2+H05261)
Boxcar Smoothing: 0 (USB2+H05261)
Correct for Electrical Dark: No (USB2+H05261)
Strobe/Lamp Enabled: No (USB2+H05261)
Correct for Detector Non-linearity: No (USB2+H05261)
Correct for Stray Light: No (USB2+H05261)
Number of Pixels in Processed Spectrum: 2048
>>>>>Begin Processed Spectral Data<<<<<
365.73	0.00
365.92	0.00
366.12	0.00
366.32	0.00
366.52	0.00
366.72	0.00
366.91	0.00
367.11	0.00
367.31	0.00
367.51	0.00
367.70	0.00
367.90	0.00
368.10	0.00
368.30	0.00
368.49	0.00
368.69	0.00
368.89	0.00
369.09	0.00
369.28	0.00
369.48	0.00
369.68	0.00
369.87	0.00
370.07	0.00
370.27	0.00
370.47	14.04
370.66	91.28
370.86	114.69
371.06	147.45
371.25	112.35
371.45	133.41
371.65	105.32
371.84	142.77
372.04	177.88
372.24	138.09
372.44	217.67
372.63	262.14
372.83	205.97
373.03	145.11
373.22	217.67
373.42	217.67
373.62	205.97
373.81	250.44
374.01	231.71
374.21	311.29
374.40	257.46
374.60	276.18
374.79	255.12
374.99	227.03
375.19	236.39
375.38	273.84
375.58	238.73
375.78	194.26
375.97	276.18
376.17	278.52
376.37	212.99
376.56	248.10
376.76	264.48
376.95	278.52
377.15	276.18
377.35	220.01
377.54	327.68
377.74	299.59
377.93	271.50
378.13	318.31
378.33	229.37
378.52	322.99
378.72	252.78
378.91	290.23
379.11	273.84
379.31	236.39
379.50	266.82
379.70	248.10
379.89	290.23
380.09	299.59
380.28	351.08
380.48	318.31
380.68	306.61
380.87	344.06
381.07	362.78
381.26	383.85
381.46	301.93
381.65	325.33
381.85	273.84
382.04	313.63
382.24	299.59
382.43	271.50
382.63	304.27
382.83	339.38
383.02	332.36
383.22	322.99
383.41	292.57
383.61	360.44
383.80	346.40
384.00	339.38
384.19	397.89
384.39	294.91
384.58	362.78
384.78	395.55
384.97	369.80
385.17	294.91
385.36	393.21
385.56	458.74
385.75	264.48
385.95	280.86
386.14	306.61
386.34	374.49
386.53	337.04
386.72	402.57
386.92	449.38
387.11	451.72
387.31	400.23
387.50	400.23
387.70	414.27
387.89	393.21
388.09	404.91
388.28	383.85
388.48	477.47
388.67	404.91
388.86	423.64
389.06	463.43
389.25	498.53
389.45	465.77
389.64	416.62
389.84	435.34
390.03	472.79
390.22	472.79
390.42	510.24
390.61	393.21
390.81	472.79
391.00	414.27
391.19	503.22
391.39	486.83
391.58	449.38
391.78	470.45
391.97	578.11
392.16	477.47
392.36	559.39
392.55	535.98
392.75	444.70
392.94	491.51
393.13	540.66
393.33	503.22
393.52	531.30
393.71	568.75
393.91	592.16
394.10	650.67
394.29	592.16
394.49	491.51
394.68	543.00
394.88	557.05
395.07	573.43
395.26	547.69
395.46	505.56
395.65	638.97
395.84	617.90
396.04	704.50
396.23	716.20
396.42	653.01
396.62	638.97
396.81	615.56
397.00	727.91
397.19	688.12
397.39	657.69
397.58	727.91
397.77	655.35
397.97	678.76
398.16	683.44
398.35	676.41
398.55	648.33
398.74	781.74
398.93	751.31
399.12	720.88
399.32	748.97
399.51	755.99
399.70	779.40
399.90	739.61
400.09	739.61
400.28	828.55
400.47	784.08
400.67	755.99
400.86	753.65
401.05	697.48
401.24	828.55
401.44	760.67
401.63	856.64
401.82	723.23
402.01	791.10
402.21	753.65
402.40	791.10
402.59	755.99
402.78	844.93
402.97	781.74
403.17	849.61
403.36	779.40
403.55	805.14
403.74	896.43
403.93	903.45
404.13	868.34
404.32	779.40
404.51	868.34
404.70	945.58
404.89	844.93
405.09	898.77
405.28	882.38
405.47	866.00
405.66	954.94
405.85	889.40
406.05	919.83
406.24	891.74
406.43	964.30
406.62	1018.13
406.81	1006.43
407.00	966.64
407.20	905.79
407.39	954.94
407.58	1071.97
407.77	968.98
407.96	990.05
408.15	1090.69
408.34	1046.22
408.54	1062.60
408.73	1039.20
408.92	1027.50
409.11	1076.65
409.30	1074.31
409.49	1090.69
409.68	1116.44
409.87	1069.62
410.07	1181.97
410.26	1109.41
410.45	1142.18
410.64	1130.48
410.83	1123.46
411.02	1226.44
411.21	1121.12
411.40	1191.33
411.59	1170.27
411.78	1249.85
411.98	1263.89
412.17	1149.20
412.36	1217.08
412.55	1378.58
412.74	1287.29
412.93	1322.40
413.12	1299.00
413.31	1373.89
413.50	1399.64
413.69	1247.51
413.88	1341.13
414.07	1409.00
414.26	1345.81
414.45	1331.76
414.64	1383.26
414.83	1474.54
415.02	1385.60
415.22	1497.94
415.41	1575.18
415.60	1584.54
415.79	1523.69
415.98	1509.65
416.17	1474.54
416.36	1617.31
416.55	1626.67
416.74	1636.03
416.93	1619.65
417.12	1465.18
417.31	1640.72
417.50	1626.67
417.69	1732.00
417.88	1774.13
418.07	1696.89
418.26	1736.68
418.45	1764.76
418.64	1764.76
418.83	1757.74
419.02	1757.74
419.21	1778.81
419.39	1909.88
419.58	1771.79
419.77	1755.40
419.96	1757.74
420.15	1757.74
420.34	1813.92
420.53	1902.86
420.72	1877.11
420.91	1881.79
421.10	1954.35
421.29	1916.90
421.48	1947.33
421.67	1827.96
421.86	1895.83
422.05	1977.75
422.24	1944.99
422.43	1834.98
422.61	1987.11
422.80	2052.65
422.99	1954.35
423.18	2012.86
423.37	1940.30
423.56	1996.48
423.75	2005.84
423.94	1842.00
424.13	1830.30
424.32	1944.99
424.50	2104.14
424.69	2010.52
424.88	2040.95
425.07	1902.86
425.26	2099.46
425.45	2031.58
425.64	2064.35
425.83	1968.39
426.01	2038.61
426.20	1973.07
426.39	2029.24
426.58	2026.90
426.77	1930.94
426.96	2008.18
427.15	2083.08
427.33	2085.42
427.52	2101.80
427.71	2076.06
427.90	2062.01
428.09	2132.23
428.28	2235.21
428.46	2113.50
428.65	2111.16
428.84	2230.53
429.03	2223.51
429.22	2136.91
429.40	2207.13
429.59	2242.23
429.78	2111.16
429.97	2141.59
430.16	2263.30
430.34	2277.34
430.53	2366.28
430.72	2321.81
430.91	2251.60
431.10	2359.26
431.28	2380.32
431.47	2303.09
431.66	2319.47
431.85	2310.11
432.03	2441.18
432.22	2434.16
432.41	2300.75
432.60	2368.62
432.79	2417.77
432.97	2380.32
433.16	2459.90
433.35	2394.37
433.54	2427.14
433.72	2317.13
433.91	2445.86
434.10	2420.11
434.28	2394.37
434.47	2429.48
434.66	2558.21
434.85	2483.31
435.03	2586.29
435.22	2499.69
435.41	2583.95
435.59	2590.97
435.78	2497.35
435.97	2576.93
436.16	2614.38
436.34	2583.95
436.53	2597.99
436.72	2668.21
436.90	2670.55
437.09	2757.15
437.28	2684.59
437.46	2656.51
437.65	2729.06
437.84	2715.02
438.02	2839.07
438.21	2684.59
438.40	2663.53
438.58	2836.73
438.77	2801.62
438.96	2796.94
439.14	2846.09
439.33	2902.26
439.52	2981.84
439.70	2988.86
439.89	2960.78
440.08	3005.25
440.26	2883.54
440.45	2963.12
440.63	3026.31
440.82	2913.97
441.01	3042.70
441.19	3122.27
441.38	3061.42
441.57	3176.11
441.75	3155.04
441.94	3178.45
442.12	3265.05
442.31	3267.39
442.50	3323.56
442.68	3199.51
442.87	3248.66
443.05	3236.96
443.24	3246.32
443.43	3405.48
443.61	3309.52
443.80	3382.07
443.98	3307.18
444.17	3150.36
444.35	3363.35
444.54	3337.60
444.73	3393.78
444.91	3407.82
445.10	3492.08
445.28	3461.65
445.47	3424.20
445.65	3253.34
445.84	3297.81
446.02	3386.76
446.21	3435.91
446.39	3414.84
446.58	3468.67
446.77	3309.52
446.95	3454.63
447.14	3456.97
447.32	3475.70
447.51	3506.12
447.69	3424.20
447.88	3513.14
448.06	3585.70
448.25	3440.59
448.43	3358.67
448.62	3438.25
448.80	3527.19
448.99	3590.38
449.17	3669.96
449.36	3480.38
449.54	3634.85
449.73	3581.02
449.91	3686.34
450.10	3604.42
450.28	3782.31
450.46	3758.90
450.65	3681.66
450.83	3803.37
451.02	3648.90
451.20	3700.39
451.39	3658.26
451.57	3719.11
451.76	3585.70
451.94	3719.11
452.13	3749.54
452.31	3737.84
452.49	3695.71
452.68	3843.16
452.86	3852.52
453.05	3758.90
453.23	3763.58
453.42	3836.14
453.60	3777.62
453.78	3861.88
453.97	3894.65
454.15	3772.94
454.34	3761.24
454.52	3908.69
454.70	3894.65
454.89	3908.69
455.07	4021.04
455.26	3948.48
455.44	4004.66
455.62	4056.15
455.81	3962.53
455.99	3904.01
456.17	4030.40
456.36	4100.62
456.54	4067.85
456.73	4074.87
456.91	4170.83
457.09	4095.94
457.28	4269.14
457.46	4119.34
457.64	4372.12
457.83	4182.54
458.01	4217.65
458.19	4229.35
458.38	4280.84
458.56	4308.93
458.74	4344.03
458.93	4287.86
459.11	4407.23
459.29	4395.53
459.48	4285.52
459.66	4262.12
459.84	4423.61
460.03	4638.94
460.21	4379.14
460.39	4414.25
460.57	4325.31
460.76	4517.23
460.94	4503.19
461.12	4526.60
461.31	4514.89
461.49	4573.41
461.67	4580.43
461.85	4589.79
462.04	4580.43
462.22	4727.88
462.40	4580.43
462.59	4554.68
462.77	4786.40
462.95	4716.18
463.13	4634.26
463.32	4800.44
463.50	4760.65
463.68	4620.22
463.86	4842.57
464.05	4851.93
464.23	4863.63
464.41	4835.55
464.59	4798.10
464.78	5027.47
464.96	4765.33
465.14	4849.59
465.32	4910.44
465.50	4777.03
465.69	4870.65
465.87	4973.64
466.05	4861.29
466.23	4940.87
466.41	4936.19
466.60	5015.77
466.78	4926.83
466.96	4959.60
467.14	4999.38
467.32	5029.81
467.51	5001.72
467.69	4800.44
467.87	5025.13
468.05	5081.30
468.23	5036.83
468.41	5132.79
468.60	5200.67
468.78	5205.35
468.96	5102.37
469.14	5221.74
469.32	5088.32
469.50	5067.26
469.69	5109.39
469.87	5263.86
470.05	5336.42
470.23	5259.18
470.41	5238.12
470.59	5413.66
470.77	5420.68
470.95	5390.25
471.14	5542.39
471.32	5324.72
471.50	5738.99
471.68	5378.55
471.86	5516.64
472.04	5556.43
472.22	5788.14
472.40	5561.11
472.58	5748.36
472.77	5675.80
472.95	5600.90
473.13	5813.89
473.31	5827.93
473.49	5596.22
473.67	5666.44
473.85	5717.93
474.03	5930.92
474.21	6005.81
474.39	5818.57
474.57	5905.17
474.75	5951.98
474.93	6193.06
475.12	6181.35
475.30	6066.67
475.48	6069.01
475.66	6097.10
475.84	6162.63
476.02	6200.08
476.20	6207.10
476.38	6436.47
476.56	6399.02
476.74	6438.81
476.92	6466.90
477.10	6483.28
477.28	6658.82
477.46	6502.01
477.64	6314.77
477.82	6642.44
478.00	6691.59
478.18	6799.26
478.36	6799.26
478.54	6953.73
478.72	7110.55
478.90	7162.04
479.08	7178.42
479.26	7063.74
479.44	7152.68
479.62	7059.06
479.80	7372.69
479.98	7206.51
480.16	7166.72
480.34	7297.79
480.52	7463.97
480.70	7651.21
480.88	7529.50
481.06	7503.76
481.24	7456.95
481.41	7651.21
481.59	7805.69
481.77	7688.66
481.95	7967.18
482.13	7889.95
482.31	7943.78
482.49	8236.35
482.67	7962.50
482.85	8028.04
483.03	8421.25
483.21	8320.60
483.39	8280.82
483.57	8617.85
483.74	8486.78
483.92	8643.60
484.10	8711.47
484.28	8676.37
484.46	8954.89
484.64	8798.07
484.82	8669.34
485.00	8706.79
485.18	9011.06
485.35	9149.15
485.53	9039.15
485.71	9226.39
485.89	9427.68
486.07	9420.66
486.25	9231.07
486.43	9579.81
486.61	9359.80
486.78	9565.77
486.96	9863.02
487.14	9834.93
487.32	9942.60
487.50	10183.67
487.68	10001.11
487.85	10015.15
488.03	10244.52
488.21	10363.89
488.39	10408.36
488.57	10530.07
488.75	10532.41
488.92	10438.79
489.10	10808.59
489.28	10661.14
489.46	10829.66
489.64	10855.40
489.81	10967.75
489.99	11075.42
490.17	11117.54
490.35	11250.96
490.53	11405.43
490.70	11573.95
490.88	11138.61
491.06	11250.96
491.24	11424.15
491.41	11557.57
491.59	11536.50
491.77	11723.74
491.95	12100.57
492.13	11880.56
492.30	11990.56
492.48	12128.66
492.66	12114.61
492.84	12119.29
493.01	12114.61
493.19	12358.03
493.37	12465.69
493.54	12547.61
493.72	12372.07
493.90	12587.40
494.08	12559.31
494.25	12886.99
494.43	12741.88
494.61	12858.90
494.79	13181.90
494.96	13284.88
495.14	12901.03
495.32	13242.75
495.49	13174.88
495.67	13090.62
495.85	13617.24
496.02	13362.12
496.20	13645.32
496.38	13762.35
496.55	13563.40
496.73	14101.73
496.91	13619.58
497.09	13973.00
497.26	13940.23
497.44	13984.70
497.62	14094.71
497.79	14326.42
497.97	14118.11
498.14	14204.71
498.32	14703.25
498.50	14487.92
498.67	14642.39
498.85	14621.33
499.03	14387.27
499.20	14731.33
499.38	14864.74
499.56	14761.76
499.73	14733.67
499.91	15061.35
500.08	15044.96
500.26	15040.28
500.44	15161.99
500.61	14883.47
500.79	15208.80
500.97	15159.65
501.14	15190.08
501.32	15484.98
501.49	15594.99
501.67	15492.01
501.84	15669.89
502.02	15667.55
502.20	15611.37
502.37	15817.34
502.55	15812.66
502.72	15683.93
502.90	15859.47
503.07	15702.65
503.25	15754.15
503.43	16032.67
503.60	16306.51
503.78	16095.86
503.95	16219.91
504.13	16327.58
504.30	16285.45
504.48	16266.72
504.65	16435.24
504.83	16575.67
505.01	16791.00
505.18	16685.68
505.36	16734.83
505.53	16514.82
505.71	16690.36
505.88	16849.52
506.06	16837.81
506.23	17163.15
506.41	17139.74
506.58	17020.38
506.76	17240.39
506.93	17067.19
507.11	17109.32
507.28	17425.29
507.46	17216.98
507.63	17163.15
507.81	17584.44
507.98	17305.92
508.16	17193.58
508.33	17465.08
508.50	17425.29
508.68	17518.91
508.85	17652.32
509.03	17666.36
509.20	17881.69
509.38	18066.60
509.55	18057.23
509.73	17921.48
509.90	18033.83
510.08	17844.24
510.25	18073.62
510.42	18010.42
510.60	18118.09
510.77	18515.98
510.95	18508.96
511.12	18284.26
511.30	18363.84
511.47	18347.46
511.64	18420.02
511.82	18642.37
511.99	18583.85
512.17	18663.43
512.34	18558.11
512.51	18649.39
512.69	18562.79
512.86	18752.37
513.04	18857.70
513.21	18904.51
513.38	19115.16
513.56	19171.33
513.73	18768.76
513.90	19138.56
514.08	19108.13
514.25	19042.60
514.43	19187.71
514.60	19227.50
514.77	19475.60
514.95	19543.47
515.12	19564.54
515.29	19213.46
515.47	19491.98
515.64	19566.88
515.81	19454.53
515.99	19817.32
516.16	19817.32
516.33	19697.95
516.51	19812.63
516.68	19737.74
516.85	19892.21
517.03	19999.88
517.20	19908.60
517.37	20074.77
517.54	19948.39
517.72	20348.62
517.89	19974.13
518.06	20503.09
518.24	20247.97
518.41	20121.59
518.58	20264.36
518.75	20126.27
518.93	20273.72
519.10	20613.10
519.27	20786.30
519.45	20472.67
519.62	20173.08
519.79	20535.86
519.96	20577.99
520.14	20908.01
520.31	20496.07
520.48	20877.58
520.65	20816.72
520.83	20968.86
521.00	20943.11
521.17	21008.65
521.34	20627.14
521.52	21085.89
521.69	21539.95
521.86	21436.97
522.03	21589.10
522.20	21277.81
522.38	21214.62
522.55	21326.96
522.72	21289.51
522.89	21221.64
523.07	21607.83
523.24	21713.15
523.41	21781.03
523.58	21467.39
523.75	21621.87
523.92	21467.39
524.10	21652.30
524.27	21694.43
524.44	21542.29
524.61	21937.84
524.78	21862.94
524.96	22155.51
525.13	22263.18
525.30	21998.70
525.47	21888.69
525.64	21879.33
525.81	22345.09
525.98	22429.35
526.16	21963.59
526.33	22029.12
526.50	22068.91
526.67	22199.98
526.84	22281.90
527.01	22307.65
527.18	22148.49
527.36	22487.87
527.53	22600.21
527.70	22899.80
527.87	22700.86
528.04	22640.00
528.21	22789.80
528.38	22471.48
528.55	22628.30
528.72	22860.01
528.89	23012.15
529.07	22677.45
529.24	23012.15
529.41	22860.01
529.58	22913.84
529.75	22958.31
529.92	22883.42
530.09	22995.76
530.26	22862.35
530.43	23061.30
530.60	22848.31
530.77	23108.11
530.94	23594.94
531.11	23157.26
531.28	23119.81
531.46	23229.82
531.63	23297.69
531.80	23527.06
531.97	23569.19
532.14	23562.17
532.31	23646.43
532.48	23646.43
532.65	23953.04
532.82	23358.55
532.99	23578.56
533.16	23381.95
533.33	23985.81
533.50	24053.69
533.67	23901.55
533.84	23697.92
534.01	23714.31
534.18	23718.99
534.35	24032.62
534.52	23578.56
534.69	24142.63
534.86	23854.74
535.03	23798.57
535.20	24140.29
535.37	24379.02
535.54	23887.51
535.71	24093.47
535.88	23929.64
536.05	24098.16
536.22	24458.60
536.38	24587.33
536.55	24367.32
536.72	24173.05
536.89	24166.03
537.06	24641.16
537.23	24112.20
537.40	24507.75
537.57	24418.81
537.74	24400.08
537.91	24926.71
538.08	24882.24
538.25	24460.94
538.42	24474.98
538.59	24826.06
538.75	24521.79
538.92	24669.25
539.09	24765.21
539.26	24898.62
539.43	24868.19
539.60	24936.07
539.77	25120.97
539.94	24840.11
540.11	25163.10
540.28	25228.63
540.44	25254.38
540.61	24772.23
540.78	25034.37
540.95	24779.25
541.12	24985.22
541.29	25371.41
541.46	25102.25
541.62	25315.23
541.79	25151.40
541.96	24732.44
542.13	25029.69
542.30	25277.79
542.47	25511.84
542.63	25696.74
542.80	25832.49
542.97	25610.14
543.14	25905.05
543.31	25556.31
543.48	25626.53
543.64	25825.47
543.81	26352.09
543.98	25883.98
544.15	25743.55
544.32	26080.59
544.48	25935.48
544.65	25785.68
544.82	26139.10
544.99	25668.66
545.16	26022.08
545.32	26078.25
545.49	26326.35
545.66	26199.96
545.83	26307.62
546.00	26157.83
546.16	26270.17
546.33	26391.88
546.50	25743.55
546.67	26214.00
546.83	26082.93
547.00	26253.79
547.17	26354.43
547.34	26204.64
547.50	26546.36
547.67	26665.72
547.84	26478.48
548.00	26520.61
548.17	26349.75
548.34	26834.24
548.51	26424.65
548.67	26656.36
548.84	26532.31
549.01	26705.51
549.18	26270.17
549.34	26691.47
549.51	26525.29
549.68	26663.38
549.84	26689.13
550.01	27009.78
550.18	26593.17
550.34	26757.00
550.51	27026.17
550.68	26740.62
550.84	26314.64
551.01	26967.65
551.18	26927.86
551.34	26651.68
551.51	26918.50
551.68	27367.88
551.84	27227.45
552.01	27080.00
552.18	27143.19
552.34	26497.20
552.51	27236.81
552.68	26848.29
552.84	26969.99
553.01	27122.13
553.18	26988.72
553.34	27002.76
553.51	27337.46
553.67	27676.83
553.84	27599.60
554.01	27484.91
554.17	27185.32
554.34	27070.64
554.51	27477.89
554.67	27454.48
554.84	27557.47
555.00	27075.32
555.17	27323.41
555.33	27789.18
555.50	27496.61
555.67	27438.10
555.83	27297.67
556.00	27175.96
556.16	27735.35
556.33	27681.52
556.50	27814.93
556.66	27662.79
556.83	27108.08
556.99	27821.95
557.16	27772.80
557.32	27962.38
557.49	28177.71
557.65	27641.73
557.82	27667.47
557.98	27763.43
558.15	27531.72
558.32	28070.04
558.48	27697.90
558.65	28325.16
558.81	27861.74
558.98	27931.95
559.14	27852.38
559.31	27623.00
559.47	27859.40
559.64	28229.20
559.80	28046.64
559.97	28196.43
560.13	28060.68
560.30	28088.77
560.46	27936.63
560.63	27950.68
560.79	28039.62
560.96	28259.63
561.12	28140.26
561.29	27971.74
561.45	27550.45
561.61	28517.09
561.78	27974.08
561.94	28208.14
562.11	28538.15
562.27	28596.67
562.44	27957.70
562.60	28196.43
562.77	28254.95
562.93	27990.47
563.10	28535.81
563.26	28556.88
563.42	28535.81
563.59	28084.09
563.75	28294.74
563.92	28301.76
564.08	28046.64
564.24	28208.14
564.41	27962.38
564.57	28105.15
564.74	28514.75
564.90	28322.82
565.07	28304.10
565.23	28594.32
565.39	28481.98
565.56	28734.76
565.72	28257.29
565.88	28404.74
566.05	28311.12
566.21	28481.98
566.38	28615.39
566.54	28603.69
566.70	28584.96
566.87	28521.77
567.03	28613.05
567.19	28716.03
567.36	28259.63
567.52	28428.15
567.68	28650.50
567.85	28554.54
568.01	28643.48
568.17	28489.00
568.34	28648.16
568.50	28664.54
568.66	28685.61
568.83	28734.76
568.99	28428.15
569.15	28725.39
569.32	28662.20
569.48	28187.07
569.64	28540.49
569.81	28781.57
569.97	28795.61
570.13	28730.08
570.30	28666.88
570.46	28533.47
570.62	28877.53
570.78	28879.87
570.95	28463.25
571.11	28716.03
571.27	28774.55
571.43	28701.99
571.60	28603.69
571.76	28751.14
571.92	28886.89
572.09	28517.09
572.25	28659.86
572.41	28849.44
572.57	28924.34
572.74	28926.68
572.90	28320.48
573.06	28788.59
573.22	28779.23
573.38	28858.81
573.55	28643.48
573.71	29032.00
573.87	28903.28
574.03	28870.51
574.20	28992.22
574.36	28940.72
574.52	28664.54
574.68	28772.21
574.84	28631.77
575.01	29067.11
575.17	28760.50
575.33	28779.23
575.49	28692.63
575.65	29013.28
575.82	29032.00
575.98	29088.18
576.14	29085.84
576.30	29298.83
576.46	28608.37
576.62	28760.50
576.79	28720.71
576.95	28737.10
577.11	28851.78
577.27	29132.65
577.43	29158.39
577.59	29097.54
577.75	28947.75
577.92	28940.72
578.08	28940.72
578.24	28587.30
578.40	28975.83
578.56	28900.94
578.72	29467.34
578.88	29467.34
579.04	29219.25
579.21	29326.91
579.37	29324.57
579.53	28833.06
579.69	28912.64
579.85	28786.25
580.01	29343.30
580.17	28936.04
580.33	28430.49
580.49	29284.78
580.65	29237.97
580.82	29027.32
580.98	29270.74
581.14	28922.00
581.30	29200.52
581.46	29151.37
581.62	29046.05
581.78	29053.07
581.94	28877.53
582.10	28748.80
582.26	29289.46
582.42	29048.39
582.58	29071.79
582.74	29280.10
582.90	29312.87
583.06	29462.66
583.22	29153.71
583.38	29102.22
583.54	28821.36
583.70	28753.48
583.86	28978.17
584.02	29362.02
584.18	29490.75
584.34	29324.57
584.50	29235.63
584.66	29099.88
584.82	28723.05
584.98	29284.78
585.14	29158.39
585.30	28786.25
585.46	28807.31
585.62	29064.77
585.78	29071.79
585.94	28680.92
586.10	29343.30
586.26	28999.24
586.42	29364.36
586.58	29289.46
586.74	29261.38
586.90	29221.59
587.06	28954.77
587.22	29137.33
587.38	29179.46
587.54	29221.59
587.70	29420.53
587.86	29249.67
588.02	29390.11
588.18	29439.26
588.34	29352.66
588.49	29322.23
588.65	29336.27
588.81	29593.73
588.97	28992.22
589.13	29305.85
589.29	29104.56
589.45	29111.58
589.61	29392.45
589.77	29315.21
589.93	29373.72
590.08	29729.48
590.24	29558.63
590.40	29446.28
590.56	29228.61
590.72	29301.17
590.88	29502.45
591.04	29259.04
591.20	29902.68
591.35	29809.06
591.51	29909.71
591.67	29575.01
591.83	29715.44
591.99	29252.02
592.15	29610.12
592.31	29663.95
592.46	29624.16
592.62	29448.62
592.78	29488.41
592.94	29940.13
593.10	29163.08
593.26	29614.80
593.41	29837.15
593.57	29282.44
593.73	29556.28
593.89	29736.51
594.05	29546.92
594.20	29577.35
594.36	29450.96
594.52	29610.12
594.68	29495.43
594.84	29214.57
594.99	29638.20
595.15	29607.78
595.31	30092.27
595.47	29610.12
595.62	29898.00
595.78	29579.69
595.94	29493.09
596.10	29537.56
596.25	29586.71
596.41	29308.19
596.57	29270.74
596.73	29469.69
596.88	29631.18
597.04	29827.79
597.20	29708.42
597.36	29858.21
597.51	29944.81
597.67	29682.67
597.83	29282.44
597.99	29783.32
598.14	29502.45
598.30	29479.05
598.46	29584.37
598.61	29617.14
598.77	29289.46
598.93	29949.50
599.09	29977.58
599.24	29628.84
599.40	30277.17
599.56	29666.29
599.71	29715.44
599.87	29720.12
600.03	29551.60
600.18	29680.33
600.34	29827.79
600.50	29619.48
600.65	29598.41
600.81	29898.00
600.97	29685.01
601.12	29565.65
601.28	29680.33
601.44	29738.85
601.59	29710.76
601.75	30068.86
601.91	29731.83
602.06	29535.22
602.22	29773.95
602.37	29537.56
602.53	29722.46
602.69	29799.70
602.84	29804.38
603.00	29851.19
603.16	29736.51
603.31	29589.05
603.47	29902.68
603.62	29530.54
603.78	29879.28
603.94	29219.25
604.09	29465.00
604.25	29378.40
604.40	29738.85
604.56	29666.29
604.71	29886.30
604.87	29745.87
605.03	29411.17
605.18	29413.51
605.34	29893.32
605.49	29457.98
605.65	29659.27
605.80	29593.73
605.96	29453.30
606.12	29589.05
606.27	29483.73
606.43	29727.14
606.58	29507.13
606.74	29736.51
606.89	29610.12
607.05	29647.57
607.20	29780.98
607.36	29280.10
607.51	29661.61
607.67	29359.68
607.82	29355.00
607.98	29270.74
608.13	29752.89
608.29	29642.88
608.44	29577.35
608.60	29701.40
608.75	30045.46
608.91	29521.18
609.06	29399.47
609.22	29399.47
609.37	28961.79
609.53	29256.70
609.68	29202.86
609.84	29230.95
609.99	29584.37
610.15	29212.23
610.30	29455.64
610.46	29387.77
610.61	29371.38
610.76	29556.28
610.92	29511.81
611.07	29706.08
611.23	29558.63
611.38	29340.96
611.54	29060.09
611.69	28950.09
611.84	29055.41
612.00	29123.29
612.15	28999.24
612.31	29406.49
612.46	29223.93
612.62	29387.77
612.77	29092.86
612.92	29261.38
613.08	29390.11
613.23	29404.15
613.39	29163.08
613.54	29003.92
613.69	29509.47
613.85	28961.79
614.00	29010.94
614.15	29088.18
614.31	29127.97
614.46	29418.19
614.62	29195.84
614.77	29144.35
614.92	29001.58
615.08	29179.46
615.23	29083.50
615.38	28858.81
615.54	28608.37
615.69	29074.13
615.84	28783.91
616.00	28774.55
616.15	28980.51
616.30	28704.33
616.46	28924.34
616.61	28992.22
616.76	29167.76
616.92	28826.04
617.07	29266.06
617.22	28493.68
617.37	28751.14
617.53	28985.19
617.68	28826.04
617.83	28746.46
617.99	28315.80
618.14	29022.64
618.29	28961.79
618.45	28706.67
618.60	28718.37
618.75	28837.74
618.90	28500.70
619.06	28868.17
619.21	28786.25
619.36	28554.54
619.51	28458.57
619.67	28430.49
619.82	28449.21
619.97	28629.43
620.12	28243.24
620.28	28004.51
620.43	28360.27
620.58	28835.40
620.73	28446.87
620.89	28680.92
621.04	28701.99
621.19	28545.17
621.34	28554.54
621.49	28194.09
621.65	28458.57
621.80	28400.06
621.95	28493.68
622.10	27976.42
622.25	28528.79
622.41	28439.85
622.56	28463.25
622.71	28638.80
622.86	28243.24
623.01	28276.01
623.16	27997.49
623.32	27908.55
623.47	28287.71
623.62	28542.83
623.77	28268.99
623.92	28182.39
624.07	28048.98
624.23	27962.38
624.38	28067.70
624.53	28489.00
624.68	28077.07
624.83	28432.83
624.98	28072.39
625.13	28037.28
625.29	28402.40
625.44	28039.62
625.59	27674.49
625.74	28231.54
625.89	27812.59
626.04	27613.64
626.19	27777.48
626.34	27871.10
626.49	28027.92
626.65	27452.14
626.80	27866.42
626.95	27871.10
627.10	28123.88
627.25	27702.58
627.40	27754.07
627.55	27871.10
627.70	27470.87
627.85	27587.89
628.00	27220.43
628.15	27646.41
628.30	27393.63
628.45	27681.52
628.60	27810.25
628.76	27950.68
628.91	28020.89
629.06	27733.01
629.21	27442.78
629.36	27513.00
629.51	27477.89
629.66	27365.54
629.81	27332.78
629.96	27426.40
630.11	27667.47
630.26	27232.13
630.41	27182.98
630.56	27529.38
630.71	27653.43
630.86	27349.16
631.01	27552.79
631.16	27573.85
631.31	27339.80
631.46	27323.41
631.61	27608.96
631.76	27182.98
631.91	27204.05
632.06	26939.57
632.21	27005.10
632.36	26998.08
632.51	26927.86
632.66	27218.09
632.81	27014.46
632.96	27442.78
633.10	27307.03
633.25	27330.44
633.40	27606.62
633.55	27192.34
633.70	26876.37
633.85	26852.97
634.00	26927.86
634.15	26965.31
634.30	26890.41
634.45	26738.28
634.60	26815.52
634.75	26953.61
634.90	26871.69
635.05	26824.88
635.19	26838.92
635.34	27070.64
635.49	27087.02
635.64	26927.86
635.79	26693.81
635.94	26881.05
636.09	26801.47
636.24	26522.95
636.39	26742.96
636.53	26632.96
636.68	26703.17
636.83	26541.68
636.98	26752.32
637.13	26686.79
637.28	26642.32
637.43	26824.88
637.57	26658.70
637.72	26499.55
637.87	26536.99
638.02	26466.78
638.17	26845.94
638.32	26469.12
638.46	26476.14
638.61	26359.11
638.76	26412.95
638.91	26522.95
639.06	26050.16
639.20	26328.69
639.35	26705.51
639.50	26359.11
639.65	26700.83
639.80	26356.77
639.94	26518.27
640.09	26501.89
640.24	26232.72
640.39	26586.15
640.54	26080.59
640.68	25996.33
640.83	26221.02
640.98	26085.27
641.13	26038.46
641.27	26223.36
641.42	25762.28
641.57	26340.39
641.72	26295.92
641.86	26129.74
642.01	26171.87
642.16	26153.15
642.31	26314.64
642.45	25977.61
642.60	25783.34
642.75	25837.17
642.90	25694.40
643.04	25635.89
643.19	25724.83
643.34	25685.04
643.48	26197.62
643.63	25785.68
643.78	25586.74
643.93	26141.44
644.07	26075.91
644.22	25949.52
644.37	25965.90
644.51	25678.02
644.66	25968.24
644.81	25928.45
644.95	25535.24
645.10	25575.03
645.25	25736.53
645.39	25645.25
645.54	25741.21
645.69	25619.50
645.83	26230.38
645.98	25497.80
646.13	26024.42
646.27	25717.81
646.42	25771.64
646.57	25649.93
646.71	25769.30
646.86	25682.70
647.00	25488.43
647.15	25879.30
647.30	25511.84
647.44	25504.82
647.59	25558.65
647.74	25654.61
647.88	25322.26
648.03	25486.09
648.17	25589.08
648.32	25858.24
648.47	25729.51
648.61	25060.12
648.76	25621.84
648.90	25366.73
649.05	25357.36
649.20	25282.47
649.34	25303.53
649.49	24664.57
649.63	25390.13
649.78	25109.27
649.92	24837.76
650.07	25689.72
650.21	25301.19
650.36	25343.32
650.51	25116.29
650.65	25266.08
650.80	24975.86
650.94	25170.12
651.09	25156.08
651.23	24697.33
651.38	25336.30
651.52	25319.92
651.67	25116.29
651.81	25113.95
651.96	24762.87
652.10	24769.89
652.25	25099.90
652.39	25003.94
652.54	25193.53
652.68	25163.10
652.83	25191.19
652.97	25151.40
653.12	24924.36
653.26	24816.70
653.41	25046.07
653.55	25118.63
653.70	24716.06
653.84	24842.45
653.99	24776.91
654.13	24664.57
654.27	24821.38
654.42	24772.23
654.56	24568.60
654.71	24943.09
654.85	24716.06
655.00	25062.46
655.14	24561.58
655.29	24912.66
655.43	24907.98
655.57	24694.99
655.72	24563.92
655.86	24315.83
656.01	24446.90
656.15	24596.69
656.30	24524.13
656.44	24524.13
656.58	24278.38
656.73	24786.27
656.87	24648.18
657.01	24341.57
657.16	24472.64
657.30	24603.71
657.45	24587.33
657.59	24510.09
657.73	24503.07
657.88	24142.63
658.02	24400.08
658.16	24212.84
658.31	24194.12
658.45	24346.25
658.60	23817.29
658.74	24130.92
658.88	24030.28
659.03	23824.31
659.17	24077.09
659.31	24287.74
659.46	24177.73
659.60	24121.56
659.74	23777.50
659.89	23789.20
660.03	23749.42
660.17	24116.88
660.32	24196.46
660.46	23761.12
660.60	23655.79
660.74	23946.02
660.89	24023.26
661.03	23426.42
661.17	23597.28
661.32	23576.22
661.46	23889.85
661.60	23861.76
661.74	23779.84
661.89	23892.19
662.03	24009.22
662.17	23524.72
662.31	23707.29
662.46	23737.71
662.60	23260.24
662.74	23669.84
662.88	23606.64
663.03	22785.12
663.17	23101.09
663.31	23082.36
663.45	23075.34
663.60	23426.42
663.74	23061.30
663.88	23243.86
664.02	23199.39
664.17	23035.55
664.31	23094.07
664.45	23199.39
664.59	22946.61
664.73	23075.34
664.88	23063.64
665.02	22850.65
665.16	22948.95
665.30	23073.00
665.44	22602.55
665.59	22738.30
665.73	22569.79
665.87	22539.36
666.01	22651.70
666.15	22647.02
666.29	22799.16
666.44	22347.44
666.58	22801.50
666.72	22497.23
666.86	22228.07
667.00	22548.72
667.14	22480.85
667.28	22363.82
667.43	22518.29
667.57	22253.81
667.71	22349.78
667.85	22295.94
667.99	22071.25
668.13	22441.06
668.27	22094.66
668.41	22321.69
668.56	21942.52
668.70	22071.25
668.84	22181.26
668.98	22356.80
669.12	22317.01
669.26	22328.71
669.40	22059.55
669.54	21788.05
669.68	21928.48
669.82	21675.70
669.96	21589.10
670.10	21546.97
670.25	21568.04
670.39	21563.36
670.53	21418.24
670.67	21530.59
670.81	21591.44
670.95	21769.32
671.09	21701.45
671.23	21469.73
671.37	21563.36
671.51	21186.53
671.65	21813.79
671.79	21179.51
671.93	21434.63
672.07	21249.72
672.21	21006.31
672.35	20947.79
672.49	20940.77
672.63	21144.40
672.77	20952.48
672.91	20858.85
673.05	21046.10
673.19	20821.41
673.33	21046.10
673.47	20720.76
673.61	21256.75
673.75	20582.67
673.89	20772.25
674.03	20861.19
674.17	20732.47
674.31	20929.07
674.45	20587.35
674.59	20697.36
674.73	20917.37
674.87	20278.40
675.01	20201.16
675.15	20177.76
675.29	20285.42
675.43	20187.12
675.56	20273.72
675.70	20343.94
675.84	20472.67
675.98	19634.75
676.12	20484.37
676.26	19999.88
676.40	20212.87
676.54	20077.12
676.68	19885.19
676.82	19651.14
676.96	19765.82
677.10	19772.85
677.23	19786.89
677.37	19424.11
677.51	19424.11
677.65	19407.72
677.79	19049.62
677.93	19129.20
678.07	19468.58
678.21	19286.01
678.34	19129.20
678.48	19014.51
678.62	19220.48
678.76	19168.99
678.90	18920.89
679.04	18857.70
679.18	19183.03
679.31	18633.00
679.45	18691.52
679.59	18958.34
679.73	18642.37
679.87	18410.65
680.00	18656.41
680.14	18401.29
680.28	18478.53
680.42	18476.19
680.56	18656.41
680.70	18370.86
680.83	18551.09
680.97	18265.54
681.11	18464.49
681.25	18178.94
681.39	18242.14
681.52	18195.32
681.66	17935.53
681.80	17696.79
681.94	17792.75
682.07	17830.20
682.21	18040.85
682.35	17659.34
682.49	17776.37
682.62	17638.28
682.76	17549.34
682.90	17404.22
683.04	17717.86
683.17	17563.38
683.31	17441.67
683.45	17488.48
683.59	17528.27
683.72	17174.85
683.86	17390.18
684.00	17172.51
684.13	16910.37
684.27	16971.22
684.41	17085.91
684.55	16779.30
684.68	16556.95
684.82	16500.78
684.96	16697.38
685.09	16599.08
685.23	16355.66
685.37	16507.80
685.50	16828.45
685.64	16554.61
685.78	16465.67
685.91	16201.19
686.05	16446.94
686.19	16358.00
686.32	16418.86
686.46	15995.22
686.60	16084.16
686.73	16290.13
686.87	15896.92
687.01	15964.79
687.14	15651.16
687.28	15594.99
687.42	15618.39
687.55	15559.88
687.69	15672.23
687.82	15611.37
687.96	15349.23
688.10	15580.95
688.23	15531.80
688.37	15740.10
688.50	15295.40
688.64	15407.75
688.78	15255.61
688.91	15105.82
689.05	15154.97
689.18	15173.69
689.32	15021.56
689.46	14548.77
689.59	15061.35
689.73	14991.13
689.86	14693.88
690.00	14618.99
690.13	15077.73
690.27	14874.10
690.41	14640.05
690.54	14682.18
690.68	14431.74
690.81	14934.96
690.95	14534.73
691.08	14483.24
691.22	14223.44
691.35	14181.31
691.49	14501.96
691.62	14459.83
691.76	14190.67
691.89	14202.37
692.03	13855.97
692.16	13944.91
692.30	13816.18
692.43	13947.25
692.57	13806.82
692.70	13909.80
692.84	13682.77
692.97	13547.02
693.11	13776.39
693.24	13813.84
693.38	13708.52
693.51	13685.11
693.65	13469.78
693.78	13212.32
693.92	13490.85
694.05	13444.04
694.19	12945.50
694.32	13331.69
694.45	13209.98
694.59	12828.48
694.72	13107.00
694.86	12868.27
694.99	12732.51
695.13	13041.46
695.26	12772.30
695.39	12568.68
695.53	12409.52
695.66	12453.99
695.80	12730.17
695.93	12596.76
696.07	12608.47
696.20	12582.72
696.33	12535.91
696.47	12262.07
696.60	12465.69
696.73	12273.77
696.87	12320.58
697.00	12194.19
697.14	12409.52
697.27	12013.97
697.40	11941.41
697.54	12107.59
697.67	12013.97
697.80	11901.62
697.94	11613.74
698.07	11810.34
698.21	11583.31
698.34	11836.09
698.47	11592.67
698.61	11571.61
698.74	11817.36
698.87	11644.17
699.01	11344.58
699.14	11552.88
699.27	11496.71
699.40	11325.85
699.54	11407.77
699.67	11262.66
699.80	11269.68
699.94	11061.37
700.07	11183.08
700.20	10993.50
700.34	10768.80
700.47	10883.49
700.60	10820.30
700.73	11054.35
700.87	10740.72
701.00	10771.15
701.13	10729.02
701.26	10920.94
701.40	11035.63
701.53	10494.96
701.66	10532.41
701.79	10581.56
701.93	10590.92
702.06	10399.00
702.19	10443.47
702.32	10413.04
702.46	10068.98
702.59	10085.37
702.72	10064.30
702.85	10183.67
702.99	10111.11
703.12	9982.38
703.25	10036.22
703.38	9940.26
703.51	10064.30
703.65	10005.79
703.78	9692.16
703.91	9928.55
704.04	10104.09
704.17	9951.96
704.31	9813.87
704.44	9621.94
704.57	9785.78
704.70	9441.72
704.83	9509.60
704.96	9451.08
705.10	9399.59
705.23	9233.41
>>>>>End Processed Spectral Data<<<<<
