SpectraSuite Data File
++++++++++++++++++++++++++++++++++++
Date: Fri Oct 18 13:58:33 GMT-05:00 2013
User: bianchi
Dark Spectrum Present: No
Reference Spectrum Present: No
Number of Sampled Component Spectra: 1
Spectrometers: USB2+H05261
Integration Time (usec): 50000 (USB2+H05261)
Spectra Averaged: 1 (USB2+H05261)
Boxcar Smoothing: 0 (USB2+H05261)
Correct for Electrical Dark: No (USB2+H05261)
Strobe/Lamp Enabled: No (USB2+H05261)
Correct for Detector Non-linearity: No (USB2+H05261)
Correct for Stray Light: No (USB2+H05261)
Number of Pixels in Processed Spectrum: 2048
>>>>>Begin Processed Spectral Data<<<<<
365.73	0.00
365.92	0.00
366.12	0.00
366.32	0.00
366.52	0.00
366.72	0.00
366.91	0.00
367.11	0.00
367.31	0.00
367.51	0.00
367.70	0.00
367.90	0.00
368.10	0.00
368.30	0.00
368.49	0.00
368.69	0.00
368.89	0.00
369.09	0.00
369.28	0.00
369.48	0.00
369.68	0.00
369.87	0.00
370.07	0.00
370.27	0.00
370.47	0.00
370.66	133.41
370.86	77.24
371.06	177.88
371.25	220.01
371.45	72.56
371.65	65.54
371.84	152.13
372.04	175.54
372.24	72.56
372.44	234.05
372.63	170.86
372.83	184.90
373.03	77.24
373.22	205.97
373.42	234.05
373.62	262.14
373.81	264.48
374.01	208.31
374.21	220.01
374.40	271.50
374.60	175.54
374.79	215.33
374.99	245.76
375.19	224.69
375.38	201.29
375.58	156.82
375.78	252.78
375.97	304.27
376.17	243.42
376.37	189.58
376.56	257.46
376.76	224.69
376.95	257.46
377.15	285.55
377.35	308.95
377.54	311.29
377.74	248.10
377.93	269.16
378.13	189.58
378.33	322.99
378.52	294.91
378.72	313.63
378.91	318.31
379.11	339.38
379.31	259.80
379.50	283.20
379.70	290.23
379.89	348.74
380.09	280.86
380.28	337.04
380.48	358.10
380.68	320.65
380.87	276.18
381.07	292.57
381.26	334.70
381.46	351.08
381.65	320.65
381.85	285.55
382.04	280.86
382.24	348.74
382.43	294.91
382.63	360.44
382.83	334.70
383.02	224.69
383.22	390.87
383.41	315.97
383.61	318.31
383.80	358.10
384.00	458.74
384.19	475.13
384.39	423.64
384.58	341.72
384.78	414.27
384.97	367.46
385.17	409.59
385.36	330.02
385.56	344.06
385.75	355.76
385.95	334.70
386.14	447.04
386.34	414.27
386.53	369.80
386.72	404.91
386.92	451.72
387.11	463.43
387.31	470.45
387.50	433.00
387.70	425.98
387.89	493.85
388.09	496.19
388.28	379.17
388.48	409.59
388.67	510.24
388.86	468.11
389.06	447.04
389.25	449.38
389.45	486.83
389.64	442.36
389.84	547.69
390.03	524.28
390.22	418.96
390.42	493.85
390.61	547.69
390.81	404.91
391.00	461.09
391.19	571.09
391.39	519.60
391.58	550.03
391.78	557.05
391.97	531.30
392.16	489.17
392.36	533.64
392.55	573.43
392.75	524.28
392.94	535.98
393.13	571.09
393.33	514.92
393.52	503.22
393.71	559.39
393.91	592.16
394.10	554.71
394.29	559.39
394.49	622.58
394.68	599.18
394.88	601.52
395.07	545.34
395.26	664.71
395.46	585.13
395.65	613.22
395.84	592.16
396.04	645.99
396.23	631.94
396.42	578.11
396.62	603.86
396.81	606.20
397.00	617.90
397.19	608.54
397.39	688.12
397.58	669.39
397.77	638.97
397.97	624.92
398.16	723.23
398.35	795.78
398.55	734.93
398.74	688.12
398.93	758.33
399.12	699.82
399.32	727.91
399.51	704.50
399.70	746.63
399.90	763.01
400.09	777.06
400.28	807.48
400.47	706.84
400.67	833.23
400.86	847.27
401.05	828.55
401.24	706.84
401.44	809.83
401.63	826.21
401.82	774.72
402.01	781.74
402.21	800.46
402.40	873.02
402.59	772.38
402.78	809.83
402.97	812.17
403.17	884.72
403.36	866.00
403.55	830.89
403.74	842.59
403.93	889.40
404.13	882.38
404.32	940.90
404.51	833.23
404.70	851.96
404.89	903.45
405.09	891.74
405.28	952.60
405.47	896.43
405.66	933.87
405.85	938.55
406.05	929.19
406.24	1001.75
406.43	894.08
406.62	1048.56
406.81	1064.94
407.00	1041.54
407.20	833.23
407.39	957.28
407.58	976.00
407.77	1071.97
407.96	1086.01
408.15	1109.41
408.34	964.30
408.54	1055.58
408.73	1062.60
408.92	1032.18
409.11	1109.41
409.30	1076.65
409.49	1114.10
409.68	1020.47
409.87	1153.88
410.07	1109.41
410.26	1247.51
410.45	1139.84
410.64	1186.65
410.83	1291.98
411.02	1125.80
411.21	1151.54
411.40	1193.67
411.59	1263.89
411.78	1291.98
411.98	1306.02
412.17	1348.15
412.36	1245.16
412.55	1306.02
412.74	1313.04
412.93	1348.15
413.12	1296.66
413.31	1378.58
413.50	1317.72
413.69	1390.28
413.88	1397.30
414.07	1406.66
414.26	1387.94
414.45	1366.87
414.64	1500.28
414.83	1490.92
415.02	1469.86
415.22	1467.52
415.41	1614.97
415.60	1540.07
415.79	1544.75
415.98	1643.06
416.17	1673.48
416.36	1645.40
416.55	1589.22
416.74	1706.25
416.93	1596.25
417.12	1668.80
417.31	1692.21
417.50	1722.63
417.69	1706.25
417.88	1720.29
418.07	1743.70
418.26	1654.76
418.45	1743.70
418.64	1755.40
418.83	1781.15
419.02	1713.27
419.21	1710.93
419.39	1783.49
419.58	1912.22
419.77	1764.76
419.96	1813.92
420.15	1860.73
420.34	1746.04
420.53	1834.98
420.72	1949.67
420.91	1851.36
421.10	1966.05
421.29	1973.07
421.48	1919.24
421.67	1919.24
421.86	1874.77
422.05	1912.22
422.24	1886.47
422.43	1949.67
422.61	1926.26
422.80	2005.84
422.99	1982.43
423.18	1987.11
423.37	2057.33
423.56	2050.31
423.75	2012.86
423.94	1902.86
424.13	1804.55
424.32	1886.47
424.50	2038.61
424.69	2019.88
424.88	2073.71
425.07	1947.33
425.26	1989.46
425.45	2045.63
425.64	2005.84
425.83	2122.87
426.01	2054.99
426.20	1998.82
426.39	1959.03
426.58	2001.16
426.77	2047.97
426.96	2083.08
427.15	2073.71
427.33	2125.21
427.52	2097.12
427.71	2174.36
427.90	2052.65
428.09	2223.51
428.28	2197.76
428.46	2134.57
428.65	2211.81
428.84	2204.78
429.03	2160.31
429.22	2169.68
429.40	2202.44
429.59	2179.04
429.78	2059.67
429.97	2183.72
430.16	2197.76
430.34	2188.40
430.53	2200.10
430.72	2352.24
430.91	2359.26
431.10	2331.17
431.28	2464.58
431.47	2401.39
431.66	2256.28
431.85	2406.07
432.03	2466.92
432.22	2431.82
432.41	2438.84
432.60	2450.54
432.79	2389.69
432.97	2466.92
433.16	2490.33
433.35	2525.44
433.54	2455.22
433.72	2471.61
433.91	2450.54
434.10	2485.65
434.28	2518.42
434.47	2485.65
434.66	2509.05
434.85	2469.27
435.03	2579.27
435.22	2537.14
435.41	2539.48
435.59	2539.48
435.78	2520.76
435.97	2616.72
436.16	2775.88
436.34	2626.08
436.53	2619.06
436.72	2778.22
436.90	2658.85
437.09	2689.28
437.28	2525.44
437.46	2661.19
437.65	2647.15
437.84	2654.17
438.02	2806.30
438.21	2736.09
438.40	2670.55
438.58	2874.18
438.77	2916.31
438.96	2890.56
439.14	3021.63
439.33	2857.79
439.52	3021.63
439.70	2932.69
439.89	2869.50
440.08	2841.41
440.26	2869.50
440.45	3047.38
440.63	3047.38
440.82	3141.00
441.01	3045.04
441.19	3068.44
441.38	3126.96
441.57	3241.64
441.75	3248.66
441.94	3272.07
442.12	3187.81
442.31	3342.28
442.50	3311.86
442.68	3269.73
442.87	3293.13
443.05	3375.05
443.24	3293.13
443.43	3328.24
443.61	3379.73
443.80	3419.52
443.98	3321.22
444.17	3241.64
444.35	3290.79
444.54	3403.14
444.73	3349.31
444.91	3452.29
445.10	3543.57
445.28	3468.67
445.47	3372.71
445.65	3480.38
445.84	3442.93
446.02	3548.25
446.21	3407.82
446.39	3396.12
446.58	3463.99
446.77	3398.46
446.95	3393.78
447.14	3382.07
447.32	3475.70
447.51	3503.78
447.69	3412.50
447.88	3536.55
448.06	3585.70
448.25	3473.36
448.43	3534.21
448.62	3611.45
448.80	3456.97
448.99	3489.74
449.17	3618.47
449.36	3595.06
449.54	3616.13
449.73	3665.28
449.91	3726.13
450.10	3712.09
450.28	3796.35
450.46	3616.13
450.65	3651.24
450.83	3763.58
451.02	3669.96
451.20	3700.39
451.39	3808.05
451.57	3712.09
451.76	3676.98
451.94	3817.41
452.13	3712.09
452.31	3754.22
452.49	3740.18
452.68	3873.59
452.86	3796.35
453.05	3899.33
453.23	3932.10
453.42	3801.03
453.60	3824.44
453.78	3885.29
453.97	3929.76
454.15	3922.74
454.34	3960.19
454.52	3939.12
454.70	4058.49
454.89	4095.94
455.07	3988.27
455.26	3967.21
455.44	4222.33
455.62	3957.85
455.81	4079.55
455.99	4142.75
456.17	4159.13
456.36	4159.13
456.54	4205.94
456.73	4365.10
456.91	4365.10
457.09	4318.29
457.28	4297.22
457.46	4215.30
457.64	4271.48
457.83	4175.52
458.01	4163.81
458.19	4381.48
458.38	4273.82
458.56	4404.89
458.74	4503.19
458.93	4351.06
459.11	4521.92
459.29	4379.14
459.48	4362.76
459.66	4479.79
459.84	4486.81
460.03	4606.17
460.21	4631.92
460.39	4510.21
460.57	4507.87
460.76	4470.42
460.94	4561.70
461.12	4510.21
461.31	4463.40
461.49	4662.35
461.67	4629.58
461.85	4807.46
462.04	4606.17
462.22	4641.28
462.40	4615.54
462.59	4720.86
462.77	4737.24
462.95	4847.25
463.13	4809.80
463.32	4821.50
463.50	4840.23
463.68	4840.23
463.86	4816.82
464.05	4889.38
464.23	4896.40
464.41	4805.12
464.59	4664.69
464.78	5020.45
464.96	4938.53
465.14	4774.69
465.32	5034.49
465.50	4999.38
465.69	4915.12
465.87	4945.55
466.05	4959.60
466.23	4910.44
466.41	5020.45
466.60	5144.50
466.78	4940.87
466.96	4833.21
467.14	5053.22
467.32	5107.05
467.51	4908.10
467.69	4896.40
467.87	5029.81
468.05	5170.24
468.23	4966.62
468.41	5060.24
468.60	5062.58
468.78	5156.20
468.96	5174.92
469.14	5266.21
469.32	5317.70
469.50	5224.08
469.69	5247.48
469.87	5336.42
470.05	5364.51
470.23	5399.62
470.41	5334.08
470.59	5425.36
470.77	5331.74
470.95	5404.30
471.14	5514.30
471.32	5336.42
471.50	5474.51
471.68	5474.51
471.86	5628.99
472.04	5591.54
472.22	5748.36
472.40	5687.50
472.58	5708.57
472.77	5703.89
472.95	5767.08
473.13	5994.11
473.31	5628.99
473.49	5706.23
473.67	5776.44
473.85	5921.56
474.03	5907.51
474.21	5867.72
474.39	5893.47
474.57	6078.37
474.75	6043.26
474.93	6024.54
475.12	6094.76
475.30	6045.60
475.48	6019.86
475.66	6436.47
475.84	6174.33
476.02	6422.43
476.20	6291.36
476.38	6464.56
476.56	6569.88
476.74	6499.67
476.92	6445.84
477.10	6546.48
477.28	6588.61
477.46	6525.41
477.64	6473.92
477.82	6808.62
478.00	7012.24
478.18	6874.15
478.36	7112.89
478.54	6979.48
478.72	6935.01
478.90	7084.80
479.08	7068.42
479.26	7389.07
479.44	7171.40
479.62	7316.51
479.80	7363.33
479.98	7218.21
480.16	7412.48
480.34	7578.65
480.52	7527.16
480.70	7581.00
480.88	7456.95
481.06	7658.23
481.24	7613.76
481.41	7744.83
481.59	7777.60
481.77	7873.56
481.95	7932.08
482.13	7922.71
482.31	7962.50
482.49	8297.20
482.67	8266.77
482.85	8234.00
483.03	8662.32
483.21	8472.74
483.39	8514.87
483.57	8634.24
483.74	8758.28
483.92	8461.04
484.10	8622.53
484.28	8919.78
484.46	8994.68
484.64	8971.27
484.82	8854.25
485.00	9064.89
485.18	9109.36
485.35	9277.88
485.53	9350.44
485.71	9369.16
485.89	9589.17
486.07	9451.08
486.25	9359.80
486.43	9596.20
486.61	9694.50
486.78	9991.75
486.96	9785.78
487.14	10171.97
487.32	9888.76
487.50	10094.73
487.68	10218.78
487.85	10214.10
488.03	10387.30
488.21	10574.54
488.39	10626.03
488.57	10422.41
488.75	10473.90
488.92	10984.13
489.10	10916.26
489.28	10789.87
489.46	10904.56
489.64	11059.03
489.81	11194.78
489.99	11136.27
490.17	11176.06
490.35	11208.83
490.53	11597.35
490.70	11592.67
490.88	11473.31
491.06	11878.22
491.24	11522.46
491.41	11606.72
491.59	11822.05
491.77	11939.07
491.95	11964.82
492.13	12100.57
492.30	12006.95
492.48	12145.04
492.66	12283.13
492.84	12217.60
493.01	12376.75
493.19	12645.91
493.37	12514.84
493.54	12638.89
493.72	12760.60
493.90	12863.58
494.08	12634.21
494.25	13036.78
494.43	13163.17
494.61	13205.30
494.79	13336.37
494.96	12961.89
495.14	13275.52
495.32	13376.16
495.49	13266.16
495.67	13516.59
495.85	13507.23
496.02	13750.65
496.20	13907.46
496.38	13453.40
496.55	13954.27
496.73	14040.87
496.91	13888.74
497.09	14083.00
497.26	14305.35
497.44	13982.36
497.62	14200.03
497.79	14726.65
497.97	14462.17
498.14	14672.82
498.32	14274.93
498.50	14934.96
498.67	14595.58
498.85	14904.53
499.03	14953.68
499.20	14771.12
499.38	14939.64
499.56	15103.48
499.73	15332.85
499.91	15283.70
500.08	15250.93
500.26	15117.52
500.44	15344.55
500.61	15187.74
500.79	15056.67
500.97	15398.38
501.14	15651.16
501.32	15620.74
501.49	15613.71
501.67	15627.76
501.84	15604.35
502.02	15744.78
502.20	15894.58
502.37	15988.20
502.55	16114.59
502.72	15969.48
502.90	16025.65
503.07	15878.19
503.25	15969.48
503.43	16060.76
503.60	16329.92
503.78	16425.88
503.95	16325.24
504.13	16589.72
504.30	16657.59
504.48	16308.85
504.65	16671.64
504.83	16741.85
505.01	16800.37
505.18	16765.26
505.36	16919.73
505.53	16896.33
505.71	16830.79
505.88	16655.25
506.06	16758.24
506.23	17355.07
506.41	17179.53
506.58	17153.79
506.76	17053.14
506.93	17111.66
507.11	17111.66
507.28	17294.22
507.46	17579.76
507.63	17394.86
507.81	17713.17
507.98	17507.21
508.16	17373.80
508.33	17493.16
508.50	17488.48
508.68	17759.98
508.85	17788.07
509.03	18101.70
509.20	17781.05
509.38	18071.28
509.55	18218.73
509.73	18141.49
509.90	18389.59
510.08	18192.98
510.25	18347.46
510.42	18410.65
510.60	18448.10
510.77	18300.65
510.95	18476.19
511.12	18548.75
511.30	18476.19
511.47	18686.84
511.64	18544.06
511.82	18888.12
511.99	18649.39
512.17	19262.61
512.34	18593.22
512.51	19094.09
512.69	18885.78
512.86	18752.37
513.04	19166.65
513.21	19054.30
513.38	19353.89
513.56	19328.14
513.73	19211.12
513.90	19330.48
514.08	19316.44
514.25	19159.63
514.43	19693.27
514.60	19604.33
514.77	19770.51
514.95	19845.40
515.12	19609.01
515.29	19646.46
515.47	19889.87
515.64	19988.18
515.81	20027.96
515.99	20006.90
516.16	20002.22
516.33	20486.71
516.51	20067.75
516.68	19964.77
516.85	19871.15
517.03	20327.55
517.20	20098.18
517.37	20292.44
517.54	20184.78
517.72	20428.20
517.89	20479.69
518.06	20559.27
518.24	20556.93
518.41	20276.06
518.58	20617.78
518.75	20587.35
518.93	20589.69
519.10	20954.82
519.27	20910.35
519.45	20580.33
519.62	20491.39
519.79	20961.84
519.96	20704.38
520.14	21010.99
520.31	21142.06
520.48	21212.28
520.65	20821.41
520.83	21184.19
521.00	21355.05
521.17	20936.09
521.34	21064.82
521.52	21497.82
521.69	21336.32
521.86	21678.04
522.03	21399.52
522.20	21642.93
522.38	21661.66
522.55	21776.34
522.72	21404.20
522.89	21715.49
523.07	21837.20
523.24	21701.45
523.41	22012.74
523.58	21621.87
523.75	22181.26
523.92	21802.09
524.10	21781.03
524.27	22192.96
524.44	22059.55
524.61	22471.48
524.78	22218.71
524.96	22199.98
525.13	22274.88
525.30	22160.19
525.47	22291.26
525.64	22335.73
525.81	21989.33
525.98	22551.06
526.16	22216.36
526.33	22635.32
526.50	22923.21
526.67	22394.25
526.84	22527.66
527.01	22586.17
527.18	22845.97
527.36	22766.39
527.53	23000.44
527.70	23168.96
527.87	23000.44
528.04	22712.56
528.21	22651.70
528.38	22895.12
528.55	23295.35
528.72	23124.49
528.89	23152.58
529.07	23063.64
529.24	23578.56
529.41	23140.88
529.58	23187.69
529.75	23276.63
529.92	23349.18
530.09	23606.64
530.26	23426.42
530.43	23314.08
530.60	23229.82
530.77	23419.40
530.94	23433.44
531.11	23262.58
531.28	23229.82
531.46	23566.85
531.63	23819.63
531.80	23927.30
531.97	23981.13
532.14	23768.14
532.31	23590.26
532.48	23777.50
532.65	23690.90
532.82	23697.92
532.99	23655.79
533.16	23807.93
533.33	24084.11
533.50	24510.09
533.67	23976.45
533.84	23648.77
534.01	24374.34
534.18	23913.25
534.35	24114.54
534.52	24231.57
534.69	24203.48
534.86	24524.13
535.03	24540.52
535.20	24390.72
535.37	24545.20
535.54	24601.37
535.71	24758.19
535.88	24411.79
536.05	24467.96
536.22	24823.72
536.38	24938.41
536.55	24709.04
536.72	24837.76
536.89	24694.99
537.06	24828.40
537.23	25043.73
537.40	24704.35
537.57	24861.17
537.74	25106.93
537.91	25383.11
538.08	25123.31
538.25	25036.71
538.42	24893.94
538.59	24877.55
538.75	24861.17
538.92	25179.48
539.09	25242.68
539.26	24833.08
539.43	25317.57
539.60	25188.85
539.77	24989.90
539.94	25383.11
540.11	25458.01
540.28	25635.89
540.44	25268.42
540.61	25383.11
540.78	25280.13
540.95	25549.29
541.12	25041.39
541.29	25539.93
541.46	25486.09
541.62	25348.00
541.79	25254.38
541.96	25404.17
542.13	25565.67
542.30	25214.59
542.47	25689.72
542.63	25706.10
542.80	25759.94
542.97	26127.40
543.14	26050.16
543.31	25919.09
543.48	25626.53
543.64	26136.76
543.81	26230.38
543.98	26232.72
544.15	26326.35
544.32	26319.32
544.48	26412.95
544.65	26087.61
544.82	26265.49
544.99	25563.33
545.16	26349.75
545.32	26260.81
545.49	26611.89
545.66	26609.55
545.83	26263.15
546.00	26602.53
546.16	26169.53
546.33	26242.09
546.50	26246.77
546.67	26616.57
546.83	26232.72
547.00	26487.84
547.17	26539.33
547.34	26822.54
547.50	26838.92
547.67	27035.53
547.84	26686.79
548.00	26876.37
548.17	26979.36
548.34	26913.82
548.51	26859.99
548.67	26810.84
548.84	26951.27
549.01	26852.97
549.18	26771.05
549.34	26733.60
549.51	26920.84
549.68	26803.82
549.84	26768.71
550.01	27028.51
550.18	27075.32
550.34	27082.34
550.51	27503.64
550.68	27283.62
550.84	27042.55
551.01	27136.17
551.18	26941.91
551.34	27253.20
551.51	27332.78
551.68	27412.35
551.84	27374.91
552.01	27491.93
552.18	27775.14
552.34	27365.54
552.51	27297.67
552.68	27620.66
552.84	27683.86
553.01	27559.81
553.18	27283.62
553.34	27714.28
553.51	27395.97
553.67	27604.28
553.84	28070.04
554.01	27761.09
554.17	27426.40
554.34	27505.98
554.51	27503.64
554.67	27623.00
554.84	27969.40
555.00	27899.19
555.17	27707.26
555.33	27651.09
555.50	27646.41
555.67	27826.63
555.83	27821.95
556.00	27983.44
556.16	27999.83
556.33	27784.50
556.50	28369.63
556.66	28210.48
556.83	28446.87
556.99	27976.42
557.16	28154.30
557.32	28086.43
557.49	28563.90
557.65	27630.02
557.82	27931.95
557.98	28201.11
558.15	27814.93
558.32	28348.57
558.48	28149.62
558.65	28456.23
558.81	28009.19
558.98	28552.20
559.14	28573.26
559.31	28196.43
559.47	28395.38
559.64	28318.14
559.80	28243.24
559.97	28655.18
560.13	28252.61
560.30	28568.58
560.46	28386.02
560.63	28329.84
560.79	28863.49
560.96	28503.04
561.12	28414.10
561.29	28074.73
561.45	28442.19
561.61	28723.05
561.78	28884.55
561.94	28531.13
562.11	28861.15
562.27	28683.27
562.44	28463.25
562.60	28568.58
562.77	28552.20
562.93	28624.75
563.10	28596.67
563.26	28489.00
563.42	28446.87
563.59	28634.11
563.75	28751.14
563.92	28533.47
564.08	28676.24
564.24	28671.56
564.41	28416.44
564.57	28957.11
564.74	29113.92
564.90	28978.17
565.07	28929.02
565.23	28725.39
565.39	28929.02
565.56	29376.06
565.72	29060.09
565.88	28952.43
566.05	28657.52
566.21	28751.14
566.38	28641.14
566.54	28889.23
566.70	29284.78
566.87	29050.73
567.03	29406.49
567.19	29200.52
567.36	28790.93
567.52	28929.02
567.68	29355.00
567.85	29275.42
568.01	28645.82
568.17	28737.10
568.34	29017.96
568.50	29017.96
568.66	28996.90
568.83	29209.89
568.99	29032.00
569.15	29556.28
569.32	28882.21
569.48	28643.48
569.64	28737.10
569.81	28994.56
569.97	29347.98
570.13	29268.40
570.30	28910.30
570.46	29235.63
570.62	29207.55
570.78	28975.83
570.95	29053.07
571.11	29036.69
571.27	28954.77
571.43	28978.17
571.60	29507.13
571.76	29380.74
571.92	29113.92
572.09	29177.12
572.25	29085.84
572.41	29142.01
572.57	29338.62
572.74	29364.36
572.90	28882.21
573.06	29247.33
573.22	29144.35
573.38	29383.09
573.55	29149.03
573.71	29436.92
573.87	29305.85
574.03	29441.60
574.20	29085.84
574.36	29640.54
574.52	29284.78
574.68	29422.87
574.84	29322.23
575.01	29666.29
575.17	29364.36
575.33	29149.03
575.49	29312.87
575.65	29364.36
575.82	29247.33
575.98	29537.56
576.14	29509.47
576.30	29577.35
576.46	29362.02
576.62	29333.93
576.79	29570.33
576.95	29270.74
577.11	29715.44
577.27	29254.36
577.43	29516.50
577.59	29350.32
577.75	29766.93
577.92	29083.50
578.08	29280.10
578.24	29273.08
578.40	29385.43
578.56	29422.87
578.72	29577.35
578.88	29619.48
579.04	29628.84
579.21	29401.81
579.37	29249.67
579.53	29584.37
579.69	29495.43
579.85	29631.18
580.01	29254.36
580.17	29273.08
580.33	29516.50
580.49	29418.19
580.65	29666.29
580.82	29315.21
580.98	29858.21
581.14	29294.14
581.30	29720.12
581.46	28959.45
581.62	29336.27
581.78	29352.66
581.94	29776.30
582.10	29879.28
582.26	29511.81
582.42	29724.80
582.58	29528.20
582.74	29280.10
582.90	29479.05
583.06	29518.84
583.22	29670.97
583.38	29692.04
583.54	29771.61
583.70	29734.17
583.86	29432.24
584.02	29465.00
584.18	29710.76
584.34	29834.81
584.50	30017.37
584.66	29766.93
584.82	29675.65
584.98	29591.39
585.14	29797.36
585.30	29537.56
585.46	29724.80
585.62	29523.52
585.78	29628.84
585.94	29593.73
586.10	29841.83
586.26	29685.01
586.42	29570.33
586.58	29940.13
586.74	29577.35
586.90	29364.36
587.06	29759.91
587.22	29638.20
587.38	29481.39
587.54	29525.86
587.70	30033.75
587.86	30000.99
588.02	29841.83
588.18	30139.08
588.34	29731.83
588.49	29619.48
588.65	29809.06
588.81	29579.69
588.97	29439.26
589.13	29773.95
589.29	29708.42
589.45	29818.42
589.61	29799.70
589.77	29823.11
589.93	29916.73
590.08	30071.20
590.24	29788.00
590.40	29788.00
590.56	30022.05
590.72	29633.52
590.88	29413.51
591.04	29748.21
591.20	30218.66
591.35	30370.79
591.51	30195.25
591.67	30129.72
591.83	30345.05
591.99	30235.04
592.15	30101.63
592.31	29898.00
592.46	29895.66
592.62	30197.59
592.78	29537.56
592.94	30061.84
593.10	30122.69
593.26	29888.64
593.41	29790.34
593.57	30029.07
593.73	30178.87
593.89	29893.32
594.05	30377.81
594.20	30579.10
594.36	30192.91
594.52	29764.59
594.68	29813.74
594.84	29862.90
594.99	29797.36
595.15	30101.63
595.31	30216.32
595.47	30363.77
595.62	29989.28
595.78	30345.05
595.94	29963.54
596.10	29837.15
596.25	29919.07
596.41	30000.99
596.57	29708.42
596.73	30183.55
596.88	30043.12
597.04	30136.74
597.20	30370.79
597.36	30335.68
597.51	30347.39
597.67	30340.36
597.83	30115.67
597.99	30155.46
598.14	30024.39
598.30	30000.99
598.46	30525.27
598.61	30075.88
598.77	30211.64
598.93	30295.89
599.09	30211.64
599.24	30218.66
599.40	30312.28
599.56	30410.58
599.71	29998.65
599.87	30230.36
600.03	30295.89
600.18	29949.50
600.34	30087.59
600.50	30047.80
600.65	30139.08
600.81	30134.40
600.97	30398.88
601.12	30366.11
601.28	30403.56
601.44	30118.01
601.59	30590.80
601.75	29991.62
601.91	30391.86
602.06	30089.93
602.22	30122.69
602.37	29888.64
602.53	30246.74
602.69	30249.08
602.84	30134.40
603.00	30326.32
603.16	30480.80
603.31	30160.14
603.47	30148.44
603.62	30113.33
603.78	30026.73
603.94	29869.92
604.09	30216.32
604.25	29755.23
604.40	29944.81
604.56	30452.71
604.71	30326.32
604.87	30506.54
605.03	30426.96
605.18	29883.96
605.34	30415.26
605.49	29942.47
605.65	30272.49
605.80	30082.91
605.96	29984.60
606.12	30101.63
606.27	30340.36
606.43	29979.92
606.58	30080.56
606.74	30373.13
606.89	30073.54
607.05	30228.02
607.20	30218.66
607.36	30204.61
607.51	30265.47
607.67	30082.91
607.82	29942.47
607.98	30148.44
608.13	30054.82
608.29	29771.61
608.44	30008.01
608.60	30167.16
608.75	30221.00
608.91	30078.22
609.06	29788.00
609.22	29872.26
609.37	29560.97
609.53	29614.80
609.68	30143.76
609.84	29542.24
609.99	29965.88
610.15	29689.70
610.30	30331.00
610.46	30099.29
610.61	29764.59
610.76	29766.93
610.92	29855.87
611.07	29752.89
611.23	29603.10
611.38	29972.90
611.54	29624.16
611.69	29827.79
611.84	29675.65
612.00	29495.43
612.15	29738.85
612.31	30038.44
612.46	29633.52
612.62	30003.33
612.77	29912.05
612.92	29895.66
613.08	29549.26
613.23	29783.32
613.39	29839.49
613.54	29668.63
613.69	29663.95
613.85	29748.21
614.00	29376.06
614.15	29799.70
614.31	29572.67
614.46	29895.66
614.62	29612.46
614.77	29717.78
614.92	29940.13
615.08	29490.75
615.23	29766.93
615.38	29614.80
615.54	29544.58
615.69	29521.18
615.84	29181.80
616.00	29053.07
616.15	28992.22
616.30	29656.93
616.46	29443.94
616.61	29371.38
616.76	29383.09
616.92	29532.88
617.07	29509.47
617.22	29275.42
617.37	29240.31
617.53	29567.99
617.68	29237.97
617.83	29104.56
617.99	29324.57
618.14	29312.87
618.29	29184.14
618.45	29266.06
618.60	29537.56
618.75	29532.88
618.90	29212.23
619.06	29172.44
619.21	29165.42
619.36	29331.59
619.51	28704.33
619.67	28790.93
619.82	28573.26
619.97	29113.92
620.12	28933.70
620.28	28994.56
620.43	28964.13
620.58	29181.80
620.73	29006.26
620.89	29046.05
621.04	29069.45
621.19	29088.18
621.34	28996.90
621.49	29048.39
621.65	28875.19
621.80	29015.62
621.95	29102.22
622.10	28762.84
622.25	28896.25
622.41	28718.37
622.56	28905.62
622.71	28807.31
622.86	28779.23
623.01	29046.05
623.16	28865.83
623.32	28811.99
623.47	28842.42
623.62	28723.05
623.77	28804.97
623.92	28657.52
624.07	28765.18
624.23	28671.56
624.38	28498.36
624.53	28774.55
624.68	28854.12
624.83	28678.58
624.98	28849.44
625.13	28360.27
625.29	28439.85
625.44	28606.03
625.59	28720.71
625.74	28257.29
625.89	28322.82
626.04	28390.70
626.19	28147.28
626.34	28198.77
626.49	28315.80
626.65	28084.09
626.80	28294.74
626.95	28313.46
627.10	28039.62
627.25	28119.20
627.40	28435.17
627.55	28240.90
627.70	27866.42
627.85	27946.00
628.00	27868.76
628.15	27929.61
628.30	28266.65
628.45	28060.68
628.60	27936.63
628.76	28074.73
628.91	27913.23
629.06	27990.47
629.21	28116.86
629.36	28254.95
629.51	28018.55
629.66	27665.13
629.81	27988.13
629.96	27967.06
630.11	27690.88
630.26	27840.67
630.41	27861.74
630.56	27651.09
630.71	28030.26
630.86	27826.63
631.01	27733.01
631.16	27913.23
631.31	27597.26
631.46	27571.51
631.61	27789.18
631.76	27494.27
631.91	27527.04
632.06	27456.82
632.21	27843.01
632.36	27576.19
632.51	27253.20
632.66	27714.28
632.81	27620.66
632.96	27515.34
633.10	27693.22
633.25	27786.84
633.40	27494.27
633.55	27899.19
633.70	27388.95
633.85	27281.28
634.00	27211.07
634.15	27154.90
634.30	27204.05
634.45	27578.53
634.60	27580.87
634.75	27367.88
634.90	27321.07
635.05	27379.59
635.19	27407.67
635.34	27513.00
635.49	27541.08
635.64	27550.45
635.79	27693.22
635.94	27199.37
636.09	27498.95
636.24	26951.27
636.39	27028.51
636.53	27264.90
636.68	27220.43
636.83	27152.55
636.98	27185.32
637.13	26937.23
637.28	27566.83
637.43	27288.31
637.57	27133.83
637.72	26955.95
637.87	27061.27
638.02	26855.31
638.17	26955.95
638.32	27075.32
638.46	26852.97
638.61	26639.98
638.76	26625.93
638.91	27002.76
639.06	26852.97
639.20	26932.54
639.35	26813.18
639.50	26920.84
639.65	27105.74
639.80	26827.22
639.94	26670.40
640.09	26719.56
640.24	26761.69
640.39	26672.74
640.54	26714.87
640.68	26745.30
640.83	26817.86
640.98	26703.17
641.13	26632.96
641.27	26522.95
641.42	26431.67
641.57	26291.24
641.72	26604.87
641.86	26597.85
642.01	26209.32
642.16	26380.18
642.31	26544.02
642.45	26665.72
642.60	26141.44
642.75	26176.55
642.90	26089.95
643.04	26415.29
643.19	26422.31
643.34	26218.68
643.48	26314.64
643.63	26424.65
643.78	26221.02
643.93	26649.34
644.07	26689.13
644.22	26595.51
644.37	26118.04
644.51	26324.01
644.66	26384.86
644.81	26199.96
644.95	25942.50
645.10	26022.08
645.25	26230.38
645.39	26258.47
645.54	25841.85
645.69	26359.11
645.83	26057.18
645.98	26242.09
646.13	26319.32
646.27	26562.74
646.42	26225.70
646.57	26181.23
646.71	26111.02
646.86	25979.95
647.00	26373.16
647.15	26192.94
647.30	26015.05
647.44	25820.79
647.59	25968.24
647.74	26005.69
647.88	26031.44
648.03	25813.77
648.17	26143.78
648.32	25970.58
648.47	26132.08
648.61	25795.04
648.76	25942.50
648.90	25956.54
649.05	25778.66
649.20	25799.73
649.34	25628.87
649.49	25940.16
649.63	25685.04
649.78	25685.04
649.92	25472.05
650.07	25762.28
650.21	25296.51
650.36	25406.52
650.51	25673.34
650.65	25481.41
650.80	25565.67
650.94	25614.82
651.09	25401.83
651.23	25348.00
651.38	25366.73
651.52	25603.12
651.67	25247.36
651.81	25661.63
651.96	25689.72
652.10	25596.10
652.25	25600.78
652.39	25715.47
652.54	25572.69
652.68	25198.21
652.83	25486.09
652.97	25518.86
653.12	25310.55
653.26	24987.56
653.41	25406.52
653.55	25518.86
653.70	25074.16
653.84	25298.85
653.99	25160.76
654.13	25064.80
654.27	24865.85
654.42	25099.90
654.56	25252.04
654.71	25120.97
654.85	25305.87
655.00	25364.39
655.14	25191.19
655.29	25099.90
655.43	25006.28
655.57	25135.01
655.72	24973.52
655.86	24720.74
656.01	24919.68
656.15	24482.00
656.30	25216.93
656.44	24973.52
656.58	25109.27
656.73	25010.96
656.87	24683.29
657.01	24734.78
657.16	24877.55
657.30	24711.38
657.45	24868.19
657.59	25097.56
657.73	24601.37
657.88	24372.00
658.02	24828.40
658.16	24596.69
658.31	24720.74
658.45	24903.30
658.60	24428.17
658.74	24650.52
658.88	24559.24
659.03	24393.06
659.17	24606.05
659.31	24432.85
659.46	24577.97
659.60	24486.68
659.74	24713.72
659.89	24261.99
660.03	24364.98
660.17	24418.81
660.32	24280.72
660.46	24212.84
660.60	24163.69
660.74	24114.54
660.89	24135.60
661.03	24079.43
661.17	24531.15
661.32	24304.12
661.46	24292.42
661.60	24168.37
661.74	24184.76
661.89	23908.57
662.03	24608.39
662.17	23906.23
662.31	23821.97
662.46	23873.46
662.60	23648.77
662.74	23751.76
662.88	23494.30
663.03	23810.27
663.17	23557.49
663.31	23173.64
663.45	23515.36
663.60	23791.55
663.74	23536.43
663.88	23599.62
664.02	23606.64
664.17	23726.01
664.31	23283.65
664.45	23686.22
664.59	23489.62
664.73	23630.05
664.88	23344.50
665.02	22988.74
665.16	23302.37
665.30	23342.16
665.44	23433.44
665.59	23246.20
665.73	22948.95
665.87	23037.89
666.01	23285.99
666.15	23271.95
666.29	23370.25
666.44	23168.96
666.58	23009.81
666.72	23087.04
666.86	23105.77
667.00	23185.35
667.14	22885.76
667.28	22852.99
667.43	23023.85
667.57	22941.93
667.71	22539.36
667.85	22754.69
667.99	22637.66
668.13	22368.50
668.27	22609.58
668.41	22883.42
668.56	22300.62
668.70	22494.89
668.84	22518.29
668.98	22438.72
669.12	22618.94
669.26	22541.70
669.40	22401.27
669.54	22455.10
669.68	21942.52
669.82	22171.89
669.96	22302.96
670.10	22052.53
670.25	22073.59
670.39	21804.43
670.53	22209.34
670.67	21991.67
670.81	22258.49
670.95	22176.58
671.09	21876.99
671.23	21790.39
671.37	22097.00
671.51	21776.34
671.65	22073.59
671.79	21682.72
671.93	21649.96
672.07	21495.48
672.21	21535.27
672.35	21565.70
672.49	21661.66
672.63	21507.18
672.77	21355.05
672.91	21556.33
673.05	21188.87
673.19	21214.62
673.33	21195.89
673.47	21238.02
673.61	21638.25
673.75	21216.96
673.89	21434.63
674.03	21514.20
674.17	20931.41
674.31	20868.22
674.45	21205.25
674.59	21039.08
674.73	20755.87
674.87	20933.75
675.01	20713.74
675.15	20926.73
675.29	20727.78
675.43	20903.32
675.56	20781.62
675.70	20388.41
675.84	20713.74
675.98	19910.94
676.12	20556.93
676.26	20753.53
676.40	20580.33
676.54	20463.30
676.68	20449.26
676.82	19749.44
676.96	20294.79
677.10	20088.82
677.23	19857.10
677.37	19957.75
677.51	20088.82
677.65	19758.80
677.79	19592.62
677.93	19552.84
678.07	19857.10
678.21	19754.12
678.34	19700.29
678.48	19536.45
678.62	19634.75
678.76	19199.41
678.90	19419.42
679.04	19171.33
679.18	19421.77
679.31	18892.80
679.45	19138.56
679.59	19199.41
679.73	19049.62
679.87	18909.19
680.00	19033.24
680.14	18867.06
680.28	18719.60
680.42	18593.22
680.56	18843.65
680.70	18705.56
680.83	18497.25
680.97	18448.10
681.11	18618.96
681.25	18466.83
681.39	18394.27
681.52	18448.10
681.66	18342.78
681.80	18335.76
681.94	18253.84
682.07	18288.95
682.21	18321.71
682.35	18019.78
682.49	17956.59
682.62	17996.38
682.76	17731.90
682.90	17689.77
683.04	17607.85
683.17	17610.19
683.31	17748.28
683.45	17865.31
683.59	17542.32
683.72	17509.55
683.86	17125.70
684.00	17593.81
684.13	17357.41
684.27	17343.37
684.41	17411.25
684.55	17111.66
684.68	17205.28
684.82	16556.95
684.96	17003.99
685.09	16854.20
685.23	17057.82
685.37	16716.11
685.50	17020.38
685.64	16734.83
685.78	16608.44
685.91	16959.52
686.05	16889.31
686.19	16762.92
686.32	16774.62
686.46	16297.15
686.60	16163.74
686.73	16500.78
686.87	16123.95
687.01	16070.12
687.14	16081.82
687.28	15969.48
687.42	16016.29
687.55	15953.09
687.69	16098.20
687.82	16063.10
687.96	16018.63
688.10	15882.88
688.23	15880.53
688.37	16009.26
688.50	15978.84
688.64	15899.26
688.78	15723.72
688.91	15363.28
689.05	15487.32
689.18	15267.31
689.32	15091.77
689.46	15396.04
689.59	15152.63
689.73	15159.65
689.86	15300.08
690.00	15080.07
690.13	15129.22
690.27	15014.54
690.41	14944.32
690.54	14909.21
690.68	14621.33
690.81	15005.17
690.95	14808.57
691.08	15051.99
691.22	14839.00
691.35	14651.75
691.49	14906.87
691.62	14398.98
691.76	14190.67
691.89	14150.88
692.03	14157.90
692.16	14111.09
692.30	14087.68
692.43	13947.25
692.57	14085.34
692.70	14120.45
692.84	13980.02
692.97	13977.68
693.11	14108.75
693.24	14122.79
693.38	13757.67
693.51	13635.96
693.65	13685.11
693.78	13752.99
693.92	13687.45
694.05	13774.05
694.19	13476.80
694.32	13530.64
694.45	13214.66
694.59	13029.76
694.72	13116.36
694.86	12999.34
694.99	12938.48
695.13	13334.03
695.26	12898.69
695.39	12861.24
695.53	13034.44
695.66	12994.65
695.80	12809.75
695.93	12992.31
696.07	12980.61
696.20	12936.14
696.33	12753.58
696.47	12439.95
696.60	12592.08
696.73	12643.57
696.87	12517.18
697.00	12503.14
697.14	12411.86
697.27	12196.53
697.40	12163.76
697.54	12135.68
697.67	12023.33
697.80	12119.29
697.94	12365.05
698.07	12077.16
698.21	11775.24
698.34	11941.41
698.47	12210.57
698.61	11719.06
698.74	11826.73
698.87	11719.06
699.01	11695.66
699.14	11866.52
699.27	11475.65
699.40	11613.74
699.54	11698.00
699.67	11440.54
699.80	11349.26
699.94	11459.26
700.07	11173.72
700.20	11339.90
700.34	11307.13
700.47	11054.35
700.60	11169.04
700.73	11201.80
700.87	11145.63
701.00	10932.64
701.13	10862.43
701.26	10986.47
701.40	10832.00
701.53	10909.24
701.66	10888.17
701.79	10703.27
701.93	10890.51
702.06	10408.36
702.19	10572.20
702.32	10324.10
702.46	10406.02
702.59	10415.38
702.72	10296.02
702.85	10178.99
702.99	10186.01
703.12	10349.85
703.25	10033.88
703.38	10270.27
703.51	10181.33
703.65	10122.82
703.78	10120.48
703.91	10171.97
704.04	10073.67
704.17	10223.46
704.31	9839.61
704.44	9935.57
704.57	9682.80
704.70	9664.07
704.83	9853.66
704.96	9610.24
705.10	9537.68
705.23	9397.25
>>>>>End Processed Spectral Data<<<<<
