SpectraSuite Data File
++++++++++++++++++++++++++++++++++++
Date: Fri Oct 18 13:57:53 GMT-05:00 2013
User: bianchi
Dark Spectrum Present: No
Reference Spectrum Present: No
Number of Sampled Component Spectra: 1
Spectrometers: USB2+H05261
Integration Time (usec): 50000 (USB2+H05261)
Spectra Averaged: 1 (USB2+H05261)
Boxcar Smoothing: 0 (USB2+H05261)
Correct for Electrical Dark: No (USB2+H05261)
Strobe/Lamp Enabled: No (USB2+H05261)
Correct for Detector Non-linearity: No (USB2+H05261)
Correct for Stray Light: No (USB2+H05261)
Number of Pixels in Processed Spectrum: 2048
>>>>>Begin Processed Spectral Data<<<<<
365.73	0.00
365.92	0.00
366.12	0.00
366.32	0.00
366.52	0.00
366.72	0.00
366.91	0.00
367.11	0.00
367.31	0.00
367.51	0.00
367.70	0.00
367.90	0.00
368.10	0.00
368.30	0.00
368.49	0.00
368.69	0.00
368.89	0.00
369.09	0.00
369.28	0.00
369.48	0.00
369.68	0.00
369.87	0.00
370.07	0.00
370.27	0.00
370.47	0.00
370.66	95.96
370.86	58.51
371.06	105.32
371.25	182.56
371.45	95.96
371.65	147.45
371.84	119.37
372.04	177.88
372.24	184.90
372.44	163.84
372.63	236.39
372.83	191.92
373.03	220.01
373.22	168.52
373.42	177.88
373.62	175.54
373.81	159.16
374.01	182.56
374.21	292.57
374.40	210.65
374.60	250.44
374.79	191.92
374.99	241.08
375.19	252.78
375.38	241.08
375.58	212.99
375.78	243.42
375.97	224.69
376.17	327.68
376.37	283.20
376.56	222.35
376.76	332.36
376.95	236.39
377.15	294.91
377.35	210.65
377.54	325.33
377.74	290.23
377.93	252.78
378.13	290.23
378.33	273.84
378.52	337.04
378.72	273.84
378.91	355.76
379.11	322.99
379.31	311.29
379.50	306.61
379.70	231.71
379.89	320.65
380.09	238.73
380.28	313.63
380.48	280.86
380.68	273.84
380.87	290.23
381.07	245.76
381.26	304.27
381.46	257.46
381.65	318.31
381.85	304.27
382.04	390.87
382.24	369.80
382.43	334.70
382.63	348.74
382.83	344.06
383.02	348.74
383.22	386.19
383.41	341.72
383.61	315.97
383.80	337.04
384.00	416.62
384.19	379.17
384.39	395.55
384.58	365.12
384.78	409.59
384.97	470.45
385.17	400.23
385.36	414.27
385.56	365.12
385.75	447.04
385.95	414.27
386.14	404.91
386.34	393.21
386.53	348.74
386.72	348.74
386.92	444.70
387.11	383.85
387.31	315.97
387.50	369.80
387.70	472.79
387.89	444.70
388.09	496.19
388.28	449.38
388.48	416.62
388.67	472.79
388.86	465.77
389.06	470.45
389.25	437.68
389.45	484.49
389.64	395.55
389.84	559.39
390.03	463.43
390.22	547.69
390.42	545.34
390.61	444.70
390.81	557.05
391.00	477.47
391.19	573.43
391.39	526.62
391.58	416.62
391.78	554.71
391.97	524.28
392.16	559.39
392.36	606.20
392.55	596.84
392.75	517.26
392.94	535.98
393.13	587.47
393.33	505.56
393.52	624.92
393.71	622.58
393.91	552.37
394.10	575.77
394.29	568.75
394.49	538.32
394.68	587.47
394.88	580.45
395.07	550.03
395.26	550.03
395.46	557.05
395.65	627.26
395.84	573.43
396.04	650.67
396.23	519.60
396.42	737.27
396.62	617.90
396.81	681.10
397.00	699.82
397.19	713.86
397.39	638.97
397.58	638.97
397.77	662.37
397.97	732.59
398.16	697.48
398.35	727.91
398.55	690.46
398.74	688.12
398.93	774.72
399.12	692.80
399.32	704.50
399.51	779.40
399.70	683.44
399.90	671.73
400.09	716.20
400.28	713.86
400.47	791.10
400.67	837.91
400.86	697.48
401.05	791.10
401.24	844.93
401.44	849.61
401.63	793.44
401.82	910.47
402.01	730.25
402.21	793.44
402.40	875.36
402.59	798.12
402.78	866.00
402.97	854.30
403.17	814.51
403.36	847.27
403.55	887.06
403.74	896.43
403.93	926.85
404.13	896.43
404.32	1025.15
404.51	866.00
404.70	968.98
404.89	863.66
405.09	915.15
405.28	915.15
405.47	966.64
405.66	980.68
405.85	1008.77
406.05	1036.86
406.24	947.92
406.43	973.66
406.62	1055.58
406.81	978.34
407.00	929.19
407.20	978.34
407.39	1001.75
407.58	1062.60
407.77	1027.50
407.96	1107.07
408.15	1078.99
408.34	1100.05
408.54	1160.91
408.73	1069.62
408.92	1095.37
409.11	1231.12
409.30	1123.46
409.49	1128.14
409.68	1107.07
409.87	1221.76
410.07	1214.74
410.26	1214.74
410.45	1170.27
410.64	1277.93
410.83	1200.69
411.02	1238.14
411.21	1301.34
411.40	1247.51
411.59	1296.66
411.78	1322.40
411.98	1240.48
412.17	1317.72
412.36	1235.80
412.55	1359.85
412.74	1348.15
412.93	1327.08
413.12	1439.43
413.31	1490.92
413.50	1380.92
413.69	1483.90
413.88	1439.43
414.07	1437.09
414.26	1394.96
414.45	1535.39
414.64	1472.20
414.83	1399.64
415.02	1549.43
415.22	1717.95
415.41	1589.22
415.60	1652.42
415.79	1549.43
415.98	1603.27
416.17	1540.07
416.36	1640.72
416.55	1685.19
416.74	1631.35
416.93	1563.48
417.12	1657.10
417.31	1661.78
417.50	1797.53
417.69	1652.42
417.88	1757.74
418.07	1813.92
418.26	1741.36
418.45	1790.51
418.64	1774.13
418.83	1757.74
419.02	1813.92
419.21	1820.94
419.39	1804.55
419.58	1797.53
419.77	1851.36
419.96	1863.07
420.15	1909.88
420.34	1795.19
420.53	1888.81
420.72	1982.43
420.91	1907.54
421.10	1942.64
421.29	1884.13
421.48	2029.24
421.67	2017.54
421.86	1942.64
422.05	1879.45
422.24	1949.67
422.43	1902.86
422.61	1968.39
422.80	2017.54
422.99	1968.39
423.18	2033.93
423.37	2031.58
423.56	2017.54
423.75	2015.20
423.94	1961.37
424.13	1895.83
424.32	1865.41
424.50	1996.48
424.69	2050.31
424.88	2104.14
425.07	2005.84
425.26	1937.96
425.45	1968.39
425.64	2090.10
425.83	1980.09
426.01	2136.91
426.20	2179.04
426.39	2010.52
426.58	2080.74
426.77	2078.40
426.96	2036.27
427.15	2153.29
427.33	2118.18
427.52	2129.89
427.71	2104.14
427.90	2157.97
428.09	2172.02
428.28	2197.76
428.46	2157.97
428.65	2202.44
428.84	2249.25
429.03	2335.85
429.22	2265.64
429.40	2230.53
429.59	2328.83
429.78	2279.68
429.97	2148.61
430.16	2270.32
430.34	2211.81
430.53	2293.72
430.72	2359.26
430.91	2335.85
431.10	2347.56
431.28	2452.88
431.47	2300.75
431.66	2417.77
431.85	2382.67
432.03	2373.30
432.22	2619.06
432.41	2265.64
432.60	2452.88
432.79	2420.11
432.97	2466.92
433.16	2511.39
433.35	2513.74
433.54	2506.71
433.72	2448.20
433.91	2485.65
434.10	2640.12
434.28	2537.14
434.47	2644.81
434.66	2597.99
434.85	2693.96
435.03	2555.86
435.22	2459.90
435.41	2672.89
435.59	2663.53
435.78	2635.44
435.97	2696.30
436.16	2679.91
436.34	2656.51
436.53	2663.53
436.72	2764.17
436.90	2567.57
437.09	2616.72
437.28	2654.17
437.46	2810.98
437.65	2820.35
437.84	2780.56
438.02	2785.24
438.21	2834.39
438.40	2839.07
438.58	3035.67
438.77	3035.67
438.96	2874.18
439.14	2818.00
439.33	3026.31
439.52	2979.50
439.70	2972.48
439.89	2993.55
440.08	2967.80
440.26	2988.86
440.45	2988.86
440.63	3094.19
440.82	3117.59
441.01	3131.64
441.19	3173.77
441.38	3176.11
441.57	3180.79
441.75	3115.25
441.94	3265.05
442.12	3138.66
442.31	3363.35
442.50	3276.75
442.68	3328.24
442.87	3337.60
443.05	3297.81
443.24	3330.58
443.43	3353.99
443.61	3384.41
443.80	3534.21
443.98	3353.99
444.17	3290.79
444.35	3428.88
444.54	3480.38
444.73	3445.27
444.91	3459.31
445.10	3342.28
445.28	3449.95
445.47	3339.94
445.65	3435.91
445.84	3531.87
446.02	3403.14
446.21	3501.44
446.39	3365.69
446.58	3536.55
446.77	3571.66
446.95	3417.18
447.14	3452.29
447.32	3517.83
447.51	3499.10
447.69	3550.59
447.88	3653.58
448.06	3475.70
448.25	3492.08
448.43	3466.33
448.62	3534.21
448.80	3571.66
448.99	3581.02
449.17	3569.32
449.36	3648.90
449.54	3662.94
449.73	3796.35
449.91	3620.81
450.10	3625.49
450.28	3770.60
450.46	3721.45
450.65	3709.75
450.83	3822.09
451.02	3639.53
451.20	3728.47
451.39	3822.09
451.57	3775.28
451.76	3693.37
451.94	3854.86
452.13	3852.52
452.31	3833.80
452.49	3794.01
452.68	3716.77
452.86	3700.39
453.05	3960.19
453.23	3946.14
453.42	3817.41
453.60	3824.44
453.78	3936.78
453.97	3791.67
454.15	3932.10
454.34	3962.53
454.52	4091.26
454.70	4070.19
454.89	4112.32
455.07	4243.39
455.26	4004.66
455.44	4058.49
455.62	3995.29
455.81	4109.98
455.99	4201.26
456.17	4196.58
456.36	4156.79
456.54	4198.92
456.73	4430.63
456.91	4547.66
457.09	4332.33
457.28	4292.54
457.46	4292.54
457.64	4334.67
457.83	4329.99
458.01	4304.25
458.19	4344.03
458.38	4320.63
458.56	4407.23
458.74	4500.85
458.93	4447.02
459.11	4477.44
459.29	4332.33
459.48	4470.42
459.66	4608.51
459.84	4559.36
460.03	4533.62
460.21	4545.32
460.39	4603.83
460.57	4550.00
460.76	4617.88
460.94	4606.17
461.12	4496.17
461.31	4620.22
461.49	4545.32
461.67	4657.67
461.85	4622.56
462.04	4765.33
462.22	4877.68
462.40	4716.18
462.59	4788.74
462.77	4652.98
462.95	5006.41
463.13	4798.10
463.32	4847.25
463.50	5025.13
463.68	4964.28
463.86	4844.91
464.05	4849.59
464.23	4964.28
464.41	5018.11
464.59	4971.30
464.78	5071.94
464.96	5036.83
465.14	4952.57
465.32	4903.42
465.50	4947.89
465.69	5048.54
465.87	4917.47
466.05	4964.28
466.23	5022.79
466.41	5195.99
466.60	5160.88
466.78	5090.67
466.96	5048.54
467.14	5158.54
467.32	5053.22
467.51	5167.90
467.69	5069.60
467.87	5090.67
468.05	5268.55
468.23	5198.33
468.41	5212.37
468.60	5144.50
468.78	5228.76
468.96	5055.56
469.14	5259.18
469.32	5296.63
469.50	5235.78
469.69	5394.93
469.87	5472.17
470.05	5369.19
470.23	5540.05
470.41	5446.43
470.59	5476.85
470.77	5472.17
470.95	5453.45
471.14	5640.69
471.32	5521.32
471.50	5753.04
471.68	5682.82
471.86	5792.83
472.04	5731.97
472.22	5764.74
472.40	5509.62
472.58	5778.78
472.77	5753.04
472.95	5916.87
473.13	6141.57
473.31	5760.06
473.49	5973.05
473.67	5849.00
473.85	6008.16
474.03	6031.56
474.21	5888.79
474.39	6017.52
474.57	6155.61
474.75	6188.38
474.93	6321.79
475.12	6303.06
475.30	6157.95
475.48	6169.65
475.66	6293.70
475.84	6286.68
476.02	6291.36
476.20	6225.82
476.38	6494.99
476.56	6537.12
476.74	6689.25
476.92	6612.01
477.10	6623.72
477.28	6590.95
477.46	6567.54
477.64	6679.89
477.82	6913.94
478.00	6918.62
478.18	7040.33
478.36	7056.72
478.54	7155.02
478.72	7103.53
478.90	7035.65
479.08	7325.88
479.26	7325.88
479.44	7375.03
479.62	7442.90
479.80	7515.46
479.98	7431.20
480.16	7698.02
480.34	7492.05
480.52	7754.19
480.70	7644.19
480.88	7606.74
481.06	7686.32
481.24	7676.96
481.41	7934.42
481.59	7997.61
481.77	8058.46
481.95	7967.18
482.13	8142.72
482.31	8095.91
482.49	8063.15
482.67	8198.90
482.85	8528.91
483.03	8500.83
483.21	8435.29
483.39	8711.47
483.57	8704.45
483.74	8891.70
483.92	8704.45
484.10	8791.05
484.28	9029.79
484.46	8961.91
484.64	9177.24
484.82	9001.70
485.00	8982.98
485.18	9448.74
485.35	9298.95
485.53	9390.23
485.71	9490.87
485.89	9586.83
486.07	9579.81
486.25	9652.37
486.43	9762.37
486.61	9998.77
486.78	9921.53
486.96	9998.77
487.14	9989.41
487.32	10108.77
487.50	10099.41
487.68	10249.21
487.85	10083.03
488.03	10520.71
488.21	10623.69
488.39	10759.44
488.57	10654.12
488.75	10864.77
488.92	10633.05
489.10	10965.41
489.28	10888.17
489.46	10789.87
489.64	11199.46
489.81	11171.38
489.99	11431.18
490.17	11538.84
490.35	11623.10
490.53	11433.52
490.70	11775.24
490.88	11648.85
491.06	11742.47
491.24	11679.27
491.41	11953.12
491.59	11901.62
491.77	11892.26
491.95	12325.26
492.13	12343.99
492.30	12479.74
492.48	12395.48
492.66	12451.65
492.84	12446.97
493.01	12549.95
493.19	12519.53
493.37	12870.61
493.54	12807.41
493.72	12917.42
493.90	12835.50
494.08	13139.77
494.25	12922.10
494.43	13422.97
494.61	13214.66
494.79	13128.06
494.96	13329.35
495.14	13394.89
495.32	13305.95
495.49	13654.69
495.67	13561.06
495.85	13671.07
496.02	13916.83
496.20	13914.48
496.38	14118.11
496.55	14050.24
496.73	14352.16
496.91	14349.82
497.09	14270.25
497.26	14293.65
497.44	14356.85
497.62	14286.63
497.79	14534.73
497.97	14644.73
498.14	14848.36
498.32	14853.04
498.50	14733.67
498.67	14946.66
498.85	14909.21
499.03	15140.93
499.20	15176.03
499.38	15192.42
499.56	15384.34
499.73	14956.02
499.91	15765.85
500.08	15475.62
500.26	15248.59
500.44	15541.16
500.61	15721.38
500.79	15681.59
500.97	15707.34
501.14	15988.20
501.32	15850.11
501.49	15943.73
501.67	15786.91
501.84	15896.92
502.02	15983.52
502.20	16105.23
502.37	16208.21
502.55	16102.89
502.72	16404.81
502.90	16198.85
503.07	16594.40
503.25	16362.69
503.43	16187.14
503.60	16692.70
503.78	16416.52
503.95	16840.15
504.13	16795.68
504.30	16739.51
504.48	16690.36
504.65	16896.33
504.83	17111.66
505.01	17167.83
505.18	17027.40
505.36	17291.88
505.53	17032.08
505.71	17188.89
505.88	17216.98
506.06	16776.96
506.23	17123.36
506.41	17355.07
506.58	17544.66
506.76	17664.02
506.93	17390.18
507.11	17694.45
507.28	17762.33
507.46	17759.98
507.63	18003.40
507.81	17867.65
507.98	17624.23
508.16	17666.36
508.33	17865.31
508.50	17884.03
508.68	17942.55
508.85	17987.02
509.03	17977.65
509.20	18548.75
509.38	18560.45
509.55	18354.48
509.73	18415.34
509.90	18565.13
510.08	18405.97
510.25	18345.12
510.42	18775.78
510.60	19026.21
510.77	19007.49
510.95	18881.10
511.12	18761.73
511.30	18773.44
511.47	19227.50
511.64	18757.05
511.82	19070.68
511.99	18967.70
512.17	19035.58
512.34	19044.94
512.51	19374.95
512.69	19417.08
512.86	19391.34
513.04	19475.60
513.21	19522.41
513.38	19489.64
513.56	19688.59
513.73	19442.83
513.90	19915.62
514.08	19733.06
514.25	19807.95
514.43	19807.95
514.60	20060.73
514.77	19824.34
514.95	20060.73
515.12	19803.27
515.29	19536.45
515.47	19854.76
515.64	20367.34
515.81	20053.71
515.99	20294.79
516.16	20531.18
516.33	20365.00
516.51	20526.50
516.68	20561.61
516.85	20215.21
517.03	20650.55
517.20	20779.28
517.37	20451.60
517.54	20720.76
517.72	20620.12
517.89	20695.02
518.06	20819.07
518.24	20823.75
518.41	20720.76
518.58	20840.13
518.75	20650.55
518.93	21186.53
519.10	21029.71
519.27	21053.12
519.45	21071.84
519.62	21439.31
519.79	21125.68
519.96	21221.64
520.14	21387.82
520.31	21149.08
520.48	21565.70
520.65	21757.62
520.83	21748.26
521.00	21420.58
521.17	21488.46
521.34	21291.85
521.52	21661.66
521.69	21687.40
521.86	21977.63
522.03	21776.34
522.20	21996.35
522.38	22256.15
522.55	21806.77
522.72	21876.99
522.89	22143.81
523.07	22167.21
523.24	22132.11
523.41	22391.91
523.58	22270.20
523.75	21984.65
523.92	22052.53
524.10	22155.51
524.27	22249.13
524.44	22745.33
524.61	22625.96
524.78	22750.01
524.96	22614.26
525.13	22567.45
525.30	22642.34
525.47	22672.77
525.64	22698.52
525.81	22803.84
525.98	22888.10
526.16	22618.94
526.33	23164.28
526.50	22852.99
526.67	22801.50
526.84	22820.22
527.01	22759.37
527.18	23131.51
527.36	22965.34
527.53	23332.80
527.70	23627.71
527.87	23442.81
528.04	23578.56
528.21	23414.72
528.38	23410.04
528.55	23138.54
528.72	23257.90
528.89	23838.36
529.07	23714.31
529.24	23585.58
529.41	23758.78
529.58	23665.16
529.75	23524.72
529.92	23403.02
530.09	23749.42
530.26	24018.58
530.43	24299.44
530.60	23833.68
530.77	24250.29
530.94	24196.46
531.11	23845.38
531.28	23955.38
531.46	23948.36
531.63	24056.03
531.80	24269.01
531.97	23967.09
532.14	24315.83
532.31	24102.84
532.48	23847.72
532.65	24482.00
532.82	24166.03
532.99	24259.65
533.16	24474.98
533.33	24442.21
533.50	24573.28
533.67	24601.37
533.84	24273.70
534.01	24510.09
534.18	24320.51
534.35	24755.85
534.52	24563.92
534.69	24854.15
534.86	24954.79
535.03	24320.51
535.20	24900.96
535.37	24877.55
535.54	24919.68
535.71	24514.77
535.88	24924.36
536.05	24992.24
536.22	24996.92
536.38	24711.38
536.55	24877.55
536.72	25537.59
536.89	25085.86
537.06	25078.84
537.23	25275.45
537.40	25247.36
537.57	25179.48
537.74	25560.99
537.91	25579.71
538.08	25046.07
538.25	25284.81
538.42	25776.32
538.59	25565.67
538.75	25137.35
538.92	25252.04
539.09	25633.55
539.26	25748.23
539.43	25486.09
539.60	25872.28
539.77	25591.42
539.94	25560.99
540.11	25984.63
540.28	25584.40
540.44	25472.05
540.61	25851.22
540.78	25640.57
540.95	25848.88
541.12	25710.78
541.29	25958.88
541.46	26068.89
541.62	25914.41
541.79	25811.43
541.96	25748.23
542.13	25947.18
542.30	26050.16
542.47	26408.26
542.63	26183.57
542.80	26352.09
542.97	26890.41
543.14	26347.41
543.31	26377.84
543.48	26499.55
543.64	26487.84
543.81	26457.42
543.98	26611.89
544.15	26682.11
544.32	26946.59
544.48	26916.16
544.65	26862.33
544.82	26422.31
544.99	26511.25
545.16	26522.95
545.32	26710.19
545.49	27101.06
545.66	27026.17
545.83	27087.02
546.00	27360.86
546.16	26902.12
546.33	26761.69
546.50	26237.41
546.67	27241.50
546.83	26693.81
547.00	26899.78
547.17	26988.72
547.34	26911.48
547.50	27126.81
547.67	27480.23
547.84	27311.71
548.00	27534.06
548.17	27204.05
548.34	27309.37
548.51	27835.99
548.67	27400.65
548.84	27672.15
549.01	27318.73
549.18	27077.66
549.34	27367.88
549.51	27253.20
549.68	27527.04
549.84	27372.57
550.01	27700.24
550.18	27857.06
550.34	27367.88
550.51	27929.61
550.68	27868.76
550.84	27253.20
551.01	27826.63
551.18	27328.10
551.34	27260.22
551.51	27618.32
551.68	27702.58
551.84	27791.52
552.01	28051.32
552.18	27658.11
552.34	27651.09
552.51	27931.95
552.68	27819.61
552.84	28032.60
553.01	28208.14
553.18	28163.67
553.34	27955.36
553.51	28191.75
553.67	28400.06
553.84	28095.79
554.01	28182.39
554.17	28512.41
554.34	28474.96
554.51	27929.61
554.67	28638.80
554.84	28011.53
555.00	28219.84
555.17	28470.28
555.33	28481.98
555.50	28332.18
555.67	28379.00
555.83	28163.67
556.00	28294.74
556.16	28577.94
556.33	28589.64
556.50	28575.60
556.66	28608.37
556.83	28528.79
556.99	28606.03
557.16	28919.66
557.32	28760.50
557.49	28329.84
557.65	28486.66
557.82	28765.18
557.98	28589.64
558.15	28854.12
558.32	29060.09
558.48	28463.25
558.65	28917.32
558.81	28657.52
558.98	29109.24
559.14	28837.74
559.31	28718.37
559.47	28610.71
559.64	28793.27
559.80	29085.84
559.97	29050.73
560.13	28945.41
560.30	29156.05
560.46	28847.10
560.63	29027.32
560.79	29174.78
560.96	29113.92
561.12	28807.31
561.29	28804.97
561.45	28596.67
561.61	29134.99
561.78	29247.33
561.94	29062.43
562.11	29331.59
562.27	28858.81
562.44	28980.51
562.60	29237.97
562.77	28800.29
562.93	28875.19
563.10	29310.53
563.26	28821.36
563.42	29355.00
563.59	29125.63
563.75	29282.44
563.92	29259.04
564.08	29090.52
564.24	29219.25
564.41	28875.19
564.57	29046.05
564.74	29399.47
564.90	29343.30
565.07	29266.06
565.23	29546.92
565.39	29502.45
565.56	29436.92
565.72	29312.87
565.88	29476.71
566.05	29469.69
566.21	29142.01
566.38	29266.06
566.54	29560.97
566.70	29832.47
566.87	29521.18
567.03	29846.51
567.19	29748.21
567.36	29921.41
567.52	29226.27
567.68	29420.53
567.85	29401.81
568.01	29553.94
568.17	29420.53
568.34	29556.28
568.50	29790.34
568.66	29654.59
568.83	29970.56
568.99	29675.65
569.15	29446.28
569.32	29420.53
569.48	29326.91
569.64	29783.32
569.81	29729.48
569.97	29855.87
570.13	29649.91
570.30	29818.42
570.46	29376.06
570.62	29495.43
570.78	29628.84
570.95	29542.24
571.11	29532.88
571.27	29750.55
571.43	28926.68
571.60	29647.57
571.76	29802.04
571.92	29605.44
572.09	29699.06
572.25	29947.15
572.41	29883.96
572.57	29645.23
572.74	29989.28
572.90	29521.18
573.06	29731.83
573.22	29687.36
573.38	29619.48
573.55	29930.77
573.71	29764.59
573.87	30300.58
574.03	29846.51
574.20	29692.04
574.36	29738.85
574.52	29876.94
574.68	29839.49
574.84	29773.95
575.01	30141.42
575.17	29996.31
575.33	29905.02
575.49	29724.80
575.65	29928.43
575.82	30281.85
575.98	29731.83
576.14	30143.76
576.30	30118.01
576.46	29937.79
576.62	29605.44
576.79	30146.10
576.95	30008.01
577.11	30136.74
577.27	30075.88
577.43	30122.69
577.59	29837.15
577.75	29991.62
577.92	29741.19
578.08	29996.31
578.24	29647.57
578.40	29996.31
578.56	30096.95
578.72	29961.20
578.88	30309.94
579.04	30389.52
579.21	30071.20
579.37	29837.15
579.53	30635.27
579.69	29900.34
579.85	30115.67
580.01	30019.71
580.17	29717.78
580.33	30206.95
580.49	30026.73
580.65	30052.48
580.82	29956.52
580.98	30174.19
581.14	30080.56
581.30	30230.36
581.46	30066.52
581.62	30015.03
581.78	30181.21
581.94	30054.82
582.10	29874.60
582.26	30108.65
582.42	30312.28
582.58	30139.08
582.74	30258.45
582.90	30246.74
583.06	30235.04
583.22	30136.74
583.38	29727.14
583.54	30017.37
583.70	29724.80
583.86	30015.03
584.02	29898.00
584.18	30321.64
584.34	30331.00
584.50	30366.11
584.66	30087.59
584.82	29593.73
584.98	30331.00
585.14	30040.78
585.30	30040.78
585.46	30143.76
585.62	30204.61
585.78	30340.36
585.94	29750.55
586.10	30085.25
586.26	29963.54
586.42	30803.79
586.58	30398.88
586.74	30221.00
586.90	30148.44
587.06	29783.32
587.22	29933.11
587.38	30480.80
587.54	30726.55
587.70	30513.56
587.86	30476.12
588.02	30258.45
588.18	30871.67
588.34	30583.78
588.49	30279.51
588.65	30305.26
588.81	30008.01
588.97	30199.93
589.13	30094.61
589.29	30401.22
589.45	29738.85
589.61	30661.02
589.77	30630.59
589.93	30792.09
590.08	31049.55
590.24	30473.78
590.40	30424.62
590.56	30679.74
590.72	30441.01
590.88	30279.51
591.04	30679.74
591.20	30637.61
591.35	30895.07
591.51	30955.93
591.67	30923.16
591.83	30740.60
591.99	30665.70
592.15	30614.21
592.31	31077.63
592.46	30864.64
592.62	30827.20
592.78	30630.59
592.94	30455.05
593.10	30497.18
593.26	30803.79
593.41	30586.12
593.57	30375.47
593.73	30796.77
593.89	30946.56
594.05	30490.16
594.20	30621.23
594.36	30766.34
594.52	30534.63
594.68	30345.05
594.84	30541.65
594.99	30815.49
595.15	30728.89
595.31	30808.47
595.47	30773.36
595.62	30976.99
595.78	30670.38
595.94	30471.43
596.10	30609.53
596.25	30441.01
596.41	30403.56
596.57	30525.27
596.73	30775.70
596.88	30756.98
597.04	30735.92
597.20	30735.92
597.36	30785.07
597.51	31267.22
597.67	30920.82
597.83	30838.90
597.99	30911.46
598.14	30438.67
598.30	30747.62
598.46	30625.91
598.61	30433.99
598.77	30925.50
598.93	30827.20
599.09	31051.89
599.24	31009.76
599.40	31007.42
599.56	30934.86
599.71	30885.71
599.87	30932.52
600.03	30506.54
600.18	30508.88
600.34	30948.90
600.50	30721.87
600.65	30773.36
600.81	31166.57
600.97	30951.24
601.12	31204.02
601.28	30869.33
601.44	31138.49
601.59	30749.96
601.75	31108.06
601.91	30885.71
602.06	30984.01
602.22	30778.04
602.37	30721.87
602.53	30717.19
602.69	31405.31
602.84	30890.39
603.00	30522.93
603.16	31033.16
603.31	30642.29
603.47	30874.01
603.62	30794.43
603.78	30569.74
603.94	30590.80
604.09	30939.54
604.25	30361.43
604.40	30635.27
604.56	31197.00
604.71	31117.42
604.87	30888.05
605.03	31213.38
605.18	30689.10
605.34	31182.96
605.49	30637.61
605.65	30632.93
605.80	30562.72
605.96	30382.49
606.12	30642.29
606.27	30827.20
606.43	30448.03
606.58	30759.32
606.74	30654.00
606.89	30560.37
607.05	30579.10
607.20	31318.71
607.36	30518.25
607.51	30960.61
607.67	30639.95
607.82	30326.32
607.98	30586.12
608.13	30689.10
608.29	30623.57
608.44	30845.92
608.60	30483.14
608.75	30756.98
608.91	30752.30
609.06	30518.25
609.22	30560.37
609.37	30675.06
609.53	30239.72
609.68	30293.55
609.84	30611.87
609.99	30569.74
610.15	30246.74
610.30	30422.28
610.46	30735.92
610.61	30764.00
610.76	30565.06
610.92	30441.01
611.07	30532.29
611.23	30700.81
611.38	30293.55
611.54	30270.15
611.69	30199.93
611.84	30611.87
612.00	30054.82
612.15	30244.40
612.31	30511.22
612.46	30567.40
612.62	30719.53
612.77	30202.27
612.92	30401.22
613.08	30394.20
613.23	30733.57
613.39	30211.64
613.54	30176.53
613.69	30466.75
613.85	30534.63
614.00	30466.75
614.15	30319.30
614.31	30429.30
614.46	30366.11
614.62	30286.53
614.77	30331.00
614.92	30286.53
615.08	30541.65
615.23	30263.13
615.38	30171.85
615.54	30000.99
615.69	30029.07
615.84	29916.73
616.00	29867.58
616.15	29991.62
616.30	30251.42
616.46	30218.66
616.61	30452.71
616.76	30323.98
616.92	30038.44
617.07	29928.43
617.22	29703.74
617.37	30096.95
617.53	30295.89
617.68	29860.55
617.83	30029.07
617.99	29776.30
618.14	29469.69
618.29	30017.37
618.45	29799.70
618.60	29809.06
618.75	29837.15
618.90	29788.00
619.06	30263.13
619.21	29738.85
619.36	29865.24
619.51	29465.00
619.67	29612.46
619.82	29322.23
619.97	29673.31
620.12	29532.88
620.28	29656.93
620.43	29516.50
620.58	30043.12
620.73	30015.03
620.89	30052.48
621.04	29797.36
621.19	29479.05
621.34	29926.09
621.49	29542.24
621.65	29560.97
621.80	29666.29
621.95	29488.41
622.10	29570.33
622.25	29069.45
622.41	29359.68
622.56	29383.09
622.71	29633.52
622.86	29198.18
623.01	29427.56
623.16	29455.64
623.32	29465.00
623.47	29195.84
623.62	29572.67
623.77	29413.51
623.92	29575.01
624.07	29092.86
624.23	29200.52
624.38	29326.91
624.53	29289.46
624.68	29509.47
624.83	29408.83
624.98	29039.03
625.13	29174.78
625.29	29202.86
625.44	29212.23
625.59	29146.69
625.74	29022.64
625.89	29256.70
626.04	29055.41
626.19	29022.64
626.34	29013.28
626.49	29020.30
626.65	28989.88
626.80	29064.77
626.95	28776.89
627.10	29064.77
627.25	28772.21
627.40	28959.45
627.55	28910.30
627.70	28723.05
627.85	28472.62
628.00	28723.05
628.15	28739.44
628.30	28952.43
628.45	28699.65
628.60	28659.86
628.76	28669.22
628.91	28512.41
629.06	28496.02
629.21	28655.18
629.36	28725.39
629.51	28666.88
629.66	28390.70
629.81	28510.07
629.96	28531.13
630.11	28362.61
630.26	28489.00
630.41	28283.03
630.56	28425.81
630.71	28694.97
630.86	28662.20
631.01	28563.90
631.16	28648.16
631.31	28414.10
631.46	28198.77
631.61	28432.83
631.76	28517.09
631.91	28041.96
632.06	28299.42
632.21	28128.56
632.36	28364.95
632.51	27889.82
632.66	28044.30
632.81	27880.46
632.96	28222.18
633.10	27962.38
633.25	28166.01
633.40	27920.25
633.55	28011.53
633.70	28144.94
633.85	28180.05
634.00	27917.91
634.15	28311.12
634.30	27723.65
634.45	28051.32
634.60	27894.50
634.75	28051.32
634.90	27953.02
635.05	28030.26
635.19	27999.83
635.34	28154.30
635.49	28025.57
635.64	27957.70
635.79	28170.69
635.94	27824.29
636.09	28079.41
636.24	27887.48
636.39	27854.72
636.53	27744.71
636.68	27662.79
636.83	28009.19
636.98	28261.97
637.13	28177.71
637.28	28119.20
637.43	27817.27
637.57	27941.32
637.72	27707.26
637.87	27524.70
638.02	27714.28
638.17	27665.13
638.32	27716.62
638.46	27426.40
638.61	27597.26
638.76	27246.18
638.91	27145.53
639.06	27438.10
639.20	27346.82
639.35	27573.85
639.50	27644.07
639.65	27728.33
639.80	27644.07
639.94	27503.64
640.09	27545.76
640.24	27597.26
640.39	27124.47
640.54	27304.69
640.68	27309.37
640.83	27550.45
640.98	27136.17
641.13	26932.54
641.27	27349.16
641.42	27136.17
641.57	26939.57
641.72	27737.69
641.86	27185.32
642.01	27185.32
642.16	27234.47
642.31	26897.44
642.45	26906.80
642.60	26946.59
642.75	26815.52
642.90	26689.13
643.04	27173.62
643.19	26967.65
643.34	26993.40
643.48	26864.67
643.63	27143.19
643.78	27262.56
643.93	27119.79
644.07	27234.47
644.22	27129.15
644.37	26969.99
644.51	26993.40
644.66	26792.11
644.81	26820.20
644.95	26548.70
645.10	27080.00
645.25	26422.31
645.39	26520.61
645.54	26801.47
645.69	26789.77
645.83	26967.65
645.98	26654.02
646.13	26677.43
646.27	26911.48
646.42	26618.91
646.57	26607.21
646.71	26415.29
646.86	26953.61
647.00	26691.47
647.15	26616.57
647.30	26478.48
647.44	26654.02
647.59	26560.40
647.74	26506.57
647.88	26600.19
648.03	26464.44
648.17	26801.47
648.32	26480.82
648.47	26534.65
648.61	26487.84
648.76	26471.46
648.90	26766.37
649.05	26426.99
649.20	26214.00
649.34	25989.31
649.49	25914.41
649.63	26253.79
649.78	26366.13
649.92	26178.89
650.07	26590.83
650.21	25956.54
650.36	26551.04
650.51	25991.65
650.65	26396.56
650.80	26185.91
650.94	26684.45
651.09	26178.89
651.23	26036.12
651.38	26066.55
651.52	25937.82
651.67	26047.82
651.81	26080.59
651.96	26387.20
652.10	26284.22
652.25	25635.89
652.39	26417.63
652.54	26342.73
652.68	25806.75
652.83	26089.95
652.97	26228.04
653.12	25816.11
653.26	25797.38
653.41	26022.08
653.55	25759.94
653.70	25792.70
653.84	25593.76
653.99	25685.04
654.13	25762.28
654.27	26047.82
654.42	25802.07
654.56	25993.99
654.71	25781.00
654.85	26157.83
655.00	25788.02
655.14	25799.73
655.29	25298.85
655.43	25563.33
655.57	25715.47
655.72	25656.95
655.86	25912.07
656.01	25495.46
656.15	25565.67
656.30	25624.18
656.44	25642.91
656.58	25570.35
656.73	25153.74
656.87	25415.88
657.01	25462.69
657.16	25558.65
657.30	25626.53
657.45	25837.17
657.59	25366.73
657.73	25537.59
657.88	25102.25
658.02	25184.16
658.16	25514.18
658.31	25174.80
658.45	25392.47
658.60	24912.66
658.74	24957.13
658.88	25048.41
659.03	25069.48
659.17	24996.92
659.31	25055.43
659.46	25172.46
659.60	25153.74
659.74	25226.29
659.89	24753.51
660.03	24847.13
660.17	24966.49
660.32	24748.82
660.46	24807.34
660.60	24826.06
660.74	24664.57
660.89	24694.99
661.03	24472.64
661.17	24662.22
661.32	24795.64
661.46	24694.99
661.60	24533.50
661.74	24727.76
661.89	24496.05
662.03	24592.01
662.17	24425.83
662.31	24711.38
662.46	24645.84
662.60	24456.26
662.74	24219.86
662.88	24505.41
663.03	24402.43
663.17	24177.73
663.31	24341.57
663.45	24044.32
663.60	24105.18
663.74	24142.63
663.88	24086.45
664.02	23997.51
664.17	24144.97
664.31	23800.91
664.45	23672.18
664.59	23974.11
664.73	23967.09
664.88	24102.84
665.02	23571.54
665.16	23868.78
665.30	23896.87
665.44	23681.54
665.59	23934.32
665.73	23943.68
665.87	23316.42
666.01	23737.71
666.15	23559.83
666.29	23800.91
666.44	23452.17
666.58	23482.59
666.72	23208.75
666.86	23206.41
667.00	23543.45
667.14	23557.49
667.28	23398.34
667.43	23236.84
667.57	23288.33
667.71	23007.47
667.85	23047.26
667.99	23180.67
668.13	23236.84
668.27	23154.92
668.41	23049.60
668.56	22960.66
668.70	23173.64
668.84	23513.02
668.98	23054.28
669.12	22698.52
669.26	22778.09
669.40	22794.48
669.54	22904.48
669.68	22845.97
669.82	22520.63
669.96	22600.21
670.10	22579.15
670.25	22600.21
670.39	22427.01
670.53	22302.96
670.67	22366.16
670.81	22429.35
670.95	22565.10
671.09	22871.72
671.23	22590.85
671.37	22480.85
671.51	22515.95
671.65	22588.51
671.79	22347.44
671.93	22202.32
672.07	22153.17
672.21	22012.74
672.35	21748.26
672.49	22176.58
672.63	22450.42
672.77	22029.12
672.91	21598.46
673.05	21968.27
673.19	21994.01
673.33	21879.33
673.47	22106.36
673.61	22111.04
673.75	21853.58
673.89	21745.92
674.03	21535.27
674.17	21935.50
674.31	21504.84
674.45	21514.20
674.59	21282.49
674.73	21383.13
674.87	21212.28
675.01	21359.73
675.15	21167.80
675.29	21097.59
675.43	21282.49
675.56	21022.69
675.70	21118.65
675.84	21308.24
675.98	20795.66
676.12	21163.12
676.26	21322.28
676.40	21235.68
676.54	20807.36
676.68	20954.82
676.82	20641.18
676.96	20493.73
677.10	20353.30
677.23	20531.18
677.37	20386.07
677.51	20365.00
677.65	20528.84
677.79	20402.45
677.93	20208.19
678.07	20301.81
678.21	19632.41
678.34	19962.43
678.48	20152.01
678.62	20147.33
678.76	19606.67
678.90	20114.56
679.04	19637.09
679.18	19791.57
679.31	19660.50
679.45	19747.10
679.59	19297.72
679.73	19592.62
679.87	19386.66
680.00	19187.71
680.14	19463.90
680.28	19414.74
680.42	19215.80
680.56	19269.63
680.70	19215.80
680.83	19274.31
680.97	19396.02
681.11	19262.61
681.25	18782.80
681.39	18899.83
681.52	18640.03
681.66	18625.98
681.80	18686.84
681.94	18438.74
682.07	18368.52
682.21	18302.99
682.35	18162.56
682.49	18548.75
682.62	18326.39
682.76	18066.60
682.90	18317.03
683.04	18340.44
683.17	17984.68
683.31	18061.91
683.45	18242.14
683.59	17951.91
683.72	17905.10
683.86	17834.88
684.00	18120.43
684.13	17914.46
684.27	17532.95
684.41	17724.88
684.55	17563.38
684.68	17465.08
684.82	17493.16
684.96	17048.46
685.09	17144.42
685.23	17221.66
685.37	17179.53
685.50	17483.80
685.64	17020.38
685.78	17254.43
685.91	17282.52
686.05	17146.76
686.19	17043.78
686.32	16922.07
686.46	16966.54
686.60	16896.33
686.73	17078.89
686.87	16877.60
687.01	16673.98
687.14	16585.04
687.28	16444.60
687.42	16411.84
687.55	16327.58
687.69	16547.59
687.82	16432.90
687.96	16170.76
688.10	16149.70
688.23	16521.84
688.37	16322.90
688.50	16166.08
688.64	16105.23
688.78	16044.37
688.91	15810.32
689.05	15817.34
689.18	15733.08
689.32	15431.15
689.46	15515.41
689.59	15672.23
689.73	15594.99
689.86	15609.03
690.00	15358.60
690.13	15513.07
690.27	15494.35
690.41	15428.81
690.54	15255.61
690.68	15229.87
690.81	15257.95
690.95	15407.75
691.08	15318.81
691.22	15021.56
691.35	15035.60
691.49	15089.43
691.62	15150.29
691.76	14640.05
691.89	14806.23
692.03	14635.37
692.16	14466.85
692.30	14354.51
692.43	14626.01
692.57	14476.21
692.70	14239.82
692.84	14452.81
692.97	14434.08
693.11	14232.80
693.24	14160.24
693.38	14155.56
693.51	13881.72
693.65	14207.05
693.78	13984.70
693.92	13844.27
694.05	14036.19
694.19	14115.77
694.32	13729.58
694.45	13813.84
694.59	13710.86
694.72	13647.66
694.86	13511.91
694.99	13387.86
695.13	13448.72
695.26	13561.06
695.39	13401.91
695.53	13422.97
695.66	13568.09
695.80	13186.58
695.93	13212.32
696.07	13441.70
696.20	13041.46
696.33	13198.28
696.47	13121.04
696.60	12926.78
696.73	12798.05
696.87	13074.23
697.00	12805.07
697.14	12725.49
697.27	12596.76
697.40	12465.69
697.54	12629.53
697.67	12458.67
697.80	12194.19
697.94	12463.35
698.07	12121.63
698.21	12409.52
698.34	12320.58
698.47	12184.83
698.61	12278.45
698.74	12154.40
698.87	11854.81
699.01	12278.45
699.14	12039.72
699.27	11826.73
699.40	11978.86
699.54	11946.09
699.67	11686.29
699.80	11672.25
699.94	11667.57
700.07	11501.39
700.20	11468.62
700.34	11466.28
700.47	11199.46
700.60	11665.23
700.73	11375.00
700.87	11328.19
701.00	11220.53
701.13	11433.52
701.26	11360.96
701.40	11641.82
701.53	11265.00
701.66	11234.57
701.79	10953.71
701.93	11164.36
702.06	10803.91
702.19	10796.89
702.32	10817.96
702.46	10567.52
702.59	10644.76
702.72	10841.36
702.85	10326.44
702.99	10707.95
703.12	10300.70
703.25	10471.56
703.38	10216.44
703.51	10209.42
703.65	10150.90
703.78	10312.40
703.91	10427.09
704.04	10417.72
704.17	10162.61
704.31	10321.76
704.44	10321.76
704.57	10066.64
704.70	10068.98
704.83	9846.63
704.96	9795.14
705.10	9755.35
705.23	9783.44
>>>>>End Processed Spectral Data<<<<<
