SpectraSuite Data File
++++++++++++++++++++++++++++++++++++
Date: Fri Oct 18 13:58:39 GMT-05:00 2013
User: bianchi
Dark Spectrum Present: No
Reference Spectrum Present: No
Number of Sampled Component Spectra: 1
Spectrometers: USB2+H05261
Integration Time (usec): 50000 (USB2+H05261)
Spectra Averaged: 1 (USB2+H05261)
Boxcar Smoothing: 0 (USB2+H05261)
Correct for Electrical Dark: No (USB2+H05261)
Strobe/Lamp Enabled: No (USB2+H05261)
Correct for Detector Non-linearity: No (USB2+H05261)
Correct for Stray Light: No (USB2+H05261)
Number of Pixels in Processed Spectrum: 2048
>>>>>Begin Processed Spectral Data<<<<<
365.73	0.00
365.92	0.00
366.12	0.00
366.32	0.00
366.52	0.00
366.72	0.00
366.91	0.00
367.11	0.00
367.31	0.00
367.51	0.00
367.70	0.00
367.90	0.00
368.10	0.00
368.30	0.00
368.49	0.00
368.69	0.00
368.89	0.00
369.09	0.00
369.28	0.00
369.48	0.00
369.68	0.00
369.87	0.00
370.07	0.00
370.27	0.00
370.47	0.00
370.66	93.62
370.86	72.56
371.06	110.01
371.25	140.43
371.45	147.45
371.65	149.79
371.84	217.67
372.04	152.13
372.24	159.16
372.44	189.58
372.63	248.10
372.83	231.71
373.03	166.18
373.22	215.33
373.42	243.42
373.62	191.92
373.81	231.71
374.01	194.26
374.21	241.08
374.40	203.63
374.60	287.89
374.79	210.65
374.99	191.92
375.19	234.05
375.38	273.84
375.58	285.55
375.78	322.99
375.97	222.35
376.17	304.27
376.37	252.78
376.56	287.89
376.76	250.44
376.95	278.52
377.15	266.82
377.35	238.73
377.54	278.52
377.74	248.10
377.93	273.84
378.13	245.76
378.33	266.82
378.52	294.91
378.72	250.44
378.91	304.27
379.11	283.20
379.31	245.76
379.50	301.93
379.70	330.02
379.89	337.04
380.09	248.10
380.28	297.25
380.48	304.27
380.68	297.25
380.87	393.21
381.07	351.08
381.26	287.89
381.46	301.93
381.65	346.40
381.85	297.25
382.04	306.61
382.24	217.67
382.43	290.23
382.63	280.86
382.83	365.12
383.02	404.91
383.22	402.57
383.41	344.06
383.61	266.82
383.80	393.21
384.00	304.27
384.19	351.08
384.39	367.46
384.58	381.51
384.78	376.83
384.97	400.23
385.17	386.19
385.36	423.64
385.56	353.42
385.75	358.10
385.95	435.34
386.14	430.66
386.34	353.42
386.53	404.91
386.72	379.17
386.92	447.04
387.11	437.68
387.31	435.34
387.50	339.38
387.70	425.98
387.89	458.74
388.09	463.43
388.28	447.04
388.48	395.55
388.67	510.24
388.86	514.92
389.06	470.45
389.25	411.93
389.45	428.32
389.64	456.40
389.84	528.96
390.03	454.06
390.22	528.96
390.42	512.58
390.61	498.53
390.81	489.17
391.00	561.73
391.19	540.66
391.39	500.87
391.58	575.77
391.78	496.19
391.97	503.22
392.16	505.56
392.36	566.41
392.55	535.98
392.75	564.07
392.94	528.96
393.13	554.71
393.33	540.66
393.52	442.36
393.71	575.77
393.91	550.03
394.10	498.53
394.29	624.92
394.49	627.26
394.68	650.67
394.88	543.00
395.07	631.94
395.26	571.09
395.46	582.79
395.65	709.18
395.84	645.99
396.04	676.41
396.23	648.33
396.42	653.01
396.62	624.92
396.81	690.46
397.00	615.56
397.19	545.34
397.39	657.69
397.58	664.71
397.77	716.20
397.97	601.52
398.16	645.99
398.35	638.97
398.55	755.99
398.74	660.03
398.93	734.93
399.12	699.82
399.32	699.82
399.51	667.05
399.70	734.93
399.90	709.18
400.09	755.99
400.28	851.96
400.47	709.18
400.67	697.48
400.86	770.04
401.05	697.48
401.24	805.14
401.44	835.57
401.63	777.06
401.82	763.01
402.01	767.70
402.21	798.12
402.40	798.12
402.59	748.97
402.78	919.83
402.97	842.59
403.17	901.11
403.36	767.70
403.55	833.23
403.74	894.08
403.93	978.34
404.13	973.66
404.32	915.15
404.51	861.32
404.70	933.87
404.89	882.38
405.09	887.06
405.28	940.90
405.47	978.34
405.66	959.62
405.85	959.62
406.05	987.71
406.24	978.34
406.43	1022.81
406.62	1008.77
406.81	1153.88
407.00	1083.67
407.20	1018.13
407.39	1062.60
407.58	1001.75
407.77	999.41
407.96	1011.11
408.15	1039.20
408.34	1029.84
408.54	1053.24
408.73	1102.39
408.92	1184.31
409.11	1104.73
409.30	1142.18
409.49	1060.26
409.68	1184.31
409.87	1191.33
410.07	1128.14
410.26	1196.01
410.45	1142.18
410.64	1116.44
410.83	1181.97
411.02	1184.31
411.21	1174.95
411.40	1172.61
411.59	1235.80
411.78	1205.38
411.98	1273.25
412.17	1261.55
412.36	1313.04
412.55	1329.42
412.74	1355.17
412.93	1320.06
413.12	1362.19
413.31	1376.24
413.50	1392.62
413.69	1320.06
413.88	1409.00
414.07	1343.47
414.26	1432.41
414.45	1413.68
414.64	1458.15
414.83	1584.54
415.02	1432.41
415.22	1444.11
415.41	1600.93
415.60	1528.37
415.79	1540.07
415.98	1486.24
416.17	1582.20
416.36	1680.50
416.55	1610.29
416.74	1582.20
416.93	1636.03
417.12	1603.27
417.31	1720.29
417.50	1680.50
417.69	1743.70
417.88	1685.19
418.07	1643.06
418.26	1643.06
418.45	1823.28
418.64	1771.79
418.83	1680.50
419.02	1713.27
419.21	1870.09
419.39	1788.17
419.58	1764.76
419.77	1783.49
419.96	1797.53
420.15	1870.09
420.34	1778.81
420.53	1816.26
420.72	1849.02
420.91	1994.14
421.10	1952.01
421.29	1952.01
421.48	1984.77
421.67	1963.71
421.86	1975.41
422.05	1926.26
422.24	1933.28
422.43	1912.22
422.61	2005.84
422.80	1970.73
422.99	1984.77
423.18	1881.79
423.37	1959.03
423.56	1989.46
423.75	1970.73
423.94	1933.28
424.13	1884.13
424.32	1984.77
424.50	2029.24
424.69	2031.58
424.88	2076.06
425.07	2012.86
425.26	1994.14
425.45	2157.97
425.64	1893.49
425.83	1996.48
426.01	2150.95
426.20	1975.41
426.39	2076.06
426.58	2008.18
426.77	2071.37
426.96	2050.31
427.15	2069.03
427.33	2040.95
427.52	2038.61
427.71	2073.71
427.90	2190.74
428.09	2291.38
428.28	2225.85
428.46	2104.14
428.65	2148.61
428.84	2260.96
429.03	2214.15
429.22	2195.42
429.40	2277.34
429.59	2169.68
429.78	2186.06
429.97	2057.33
430.16	2260.96
430.34	2256.28
430.53	2296.07
430.72	2303.09
430.91	2347.56
431.10	2186.06
431.28	2490.33
431.47	2401.39
431.66	2333.51
431.85	2340.54
432.03	2321.81
432.22	2408.41
432.41	2349.90
432.60	2438.84
432.79	2462.24
432.97	2497.35
433.16	2441.18
433.35	2441.18
433.54	2523.10
433.72	2551.18
433.91	2607.36
434.10	2443.52
434.28	2455.22
434.47	2544.16
434.66	2595.65
434.85	2560.55
435.03	2614.38
435.22	2654.17
435.41	2649.49
435.59	2658.85
435.78	2569.91
435.97	2548.84
436.16	2771.19
436.34	2534.80
436.53	2661.19
436.72	2771.19
436.90	2513.74
437.09	2712.68
437.28	2731.41
437.46	2658.85
437.65	2787.58
437.84	2672.89
438.02	2789.92
438.21	2752.47
438.40	2766.51
438.58	2874.18
438.77	2944.39
438.96	2822.69
439.14	2888.22
439.33	2923.33
439.52	2920.99
439.70	2935.03
439.89	3068.44
440.08	3030.99
440.26	2925.67
440.45	2986.52
440.63	3110.57
440.82	3091.85
441.01	3061.42
441.19	3176.11
441.38	3197.17
441.57	3136.32
441.75	3187.81
441.94	3248.66
442.12	3283.77
442.31	3325.90
442.50	3318.88
442.68	3208.87
442.87	3279.09
443.05	3307.18
443.24	3391.44
443.43	3531.87
443.61	3449.95
443.80	3351.65
443.98	3225.26
444.17	3166.74
444.35	3321.22
444.54	3344.63
444.73	3419.52
444.91	3384.41
445.10	3456.97
445.28	3459.31
445.47	3346.97
445.65	3372.71
445.84	3456.97
446.02	3487.40
446.21	3419.52
446.39	3389.10
446.58	3412.50
446.77	3471.01
446.95	3442.93
447.14	3438.25
447.32	3452.29
447.51	3449.95
447.69	3435.91
447.88	3431.23
448.06	3482.72
448.25	3377.39
448.43	3445.27
448.62	3466.33
448.80	3480.38
448.99	3485.06
449.17	3576.34
449.36	3510.80
449.54	3555.27
449.73	3648.90
449.91	3733.15
450.10	3705.07
450.28	3709.75
450.46	3700.39
450.65	3623.15
450.83	3822.09
451.02	3761.24
451.20	3674.64
451.39	3744.86
451.57	3772.94
451.76	3740.18
451.94	3960.19
452.13	3908.69
452.31	3812.73
452.49	3798.69
452.68	3861.88
452.86	3784.65
453.05	3880.61
453.23	3894.65
453.42	3850.18
453.60	3810.39
453.78	3978.91
453.97	3831.46
454.15	3955.51
454.34	3871.25
454.52	3831.46
454.70	3999.98
454.89	4196.58
455.07	4121.68
455.26	4035.08
455.44	4067.85
455.62	4065.51
455.81	4035.08
455.99	4037.42
456.17	4259.78
456.36	4205.94
456.54	4173.18
456.73	4091.26
456.91	4409.57
457.09	4191.90
457.28	4215.30
457.46	4203.60
457.64	4383.82
457.83	4231.69
458.01	4339.35
458.19	4297.22
458.38	4351.06
458.56	4344.03
458.74	4423.61
458.93	4376.80
459.11	4339.35
459.29	4521.92
459.48	4404.89
459.66	4369.78
459.84	4402.55
460.03	4627.24
460.21	4542.98
460.39	4425.95
460.57	4290.20
460.76	4617.88
460.94	4627.24
461.12	4589.79
461.31	4592.13
461.49	4641.28
461.67	4531.28
461.85	4645.96
462.04	4655.33
462.22	4877.68
462.40	4781.71
462.59	4709.16
462.77	4758.31
462.95	4711.50
463.13	4734.90
463.32	4809.80
463.50	4748.95
463.68	4919.81
463.86	4880.02
464.05	4863.63
464.23	4884.70
464.41	4910.44
464.59	4823.84
464.78	4875.34
464.96	4926.83
465.14	4767.67
465.32	4985.34
465.50	4917.47
465.69	5011.09
465.87	4978.32
466.05	4903.42
466.23	5022.79
466.41	4880.02
466.60	5074.28
466.78	5048.54
466.96	5034.49
467.14	4922.15
467.32	4901.08
467.51	5193.65
467.69	5102.37
467.87	5158.54
468.05	5050.88
468.23	5165.56
468.41	5221.74
468.60	5013.43
468.78	5142.16
468.96	5048.54
469.14	5186.63
469.32	5174.92
469.50	5172.58
469.69	5287.27
469.87	5380.89
470.05	5397.28
470.23	5224.08
470.41	5179.61
470.59	5603.24
470.77	5359.83
470.95	5434.72
471.14	5509.62
471.32	5261.52
471.50	5589.20
471.68	5671.12
471.86	5432.38
472.04	5565.79
472.22	5624.31
472.40	5528.35
472.58	5652.39
472.77	5818.57
472.95	5727.29
473.13	5874.74
473.31	5722.61
473.49	5682.82
473.67	5813.89
473.85	5949.64
474.03	5912.19
474.21	5959.00
474.39	6008.16
474.57	5951.98
474.75	6031.56
474.93	6160.29
475.12	6171.99
475.30	6186.04
475.48	6045.60
475.66	6228.17
475.84	6349.87
476.02	6338.17
476.20	6319.45
476.38	6520.73
476.56	6471.58
476.74	6331.15
476.92	6349.87
477.10	6415.41
477.28	6572.22
477.46	6504.35
477.64	6761.81
477.82	6792.23
478.00	6782.87
478.18	6988.84
478.36	6923.30
478.54	7096.50
478.72	6862.45
478.90	7112.89
479.08	7047.35
479.26	7185.44
479.44	7173.74
479.62	7342.26
479.80	7356.30
479.98	7344.60
480.16	7475.67
480.34	7555.25
480.52	7597.38
480.70	7421.84
480.88	7573.97
481.06	7482.69
481.24	7770.58
481.41	7709.72
481.59	7882.92
481.77	7894.63
481.95	7871.22
482.13	8056.12
482.31	8011.65
482.49	7997.61
482.67	8332.31
482.85	8348.69
483.03	8414.23
483.21	8538.27
483.39	8344.01
483.57	8575.72
483.74	8669.34
483.92	8430.61
484.10	8716.16
484.28	8931.48
484.46	8875.31
484.64	9121.07
484.82	9074.26
485.00	8973.61
485.18	9132.77
485.35	9146.81
485.53	9193.62
485.71	9453.42
485.89	9575.13
486.07	9537.68
486.25	9509.60
486.43	9535.34
486.61	9661.73
486.78	9748.33
486.96	9865.36
487.14	9783.44
487.32	9928.55
487.50	10157.92
487.68	10111.11
487.85	10349.85
488.03	10494.96
488.21	10604.97
488.39	10480.92
488.57	10703.27
488.75	10455.17
488.92	10733.70
489.10	10799.23
489.28	10953.71
489.46	10951.37
489.64	10927.96
489.81	11262.66
489.99	11192.44
490.17	11281.38
490.35	11314.15
490.53	11162.01
490.70	11632.46
490.88	11517.78
491.06	11634.80
491.24	11737.79
491.41	11576.29
491.59	11948.43
491.77	11803.32
491.95	12086.53
492.13	12056.10
492.30	12217.60
492.48	12229.30
492.66	12067.80
492.84	12285.47
493.01	12198.87
493.19	12383.77
493.37	12690.38
493.54	12664.64
493.72	12645.91
493.90	12596.76
494.08	12971.25
494.25	13032.10
494.43	12840.18
494.61	13029.76
494.79	13163.17
494.96	13366.80
495.14	13221.69
495.32	13481.49
495.49	13448.72
495.67	13610.22
495.85	13586.81
496.02	13738.94
496.20	13717.88
496.38	13832.57
496.55	13818.52
496.73	13708.52
496.91	14178.97
497.09	14052.58
497.26	14452.81
497.44	14122.79
497.62	14148.54
497.79	14546.43
497.97	14466.85
498.14	14389.61
498.32	14633.03
498.50	14869.42
498.67	14843.68
498.85	14736.01
499.03	15042.62
499.20	14743.03
499.38	15110.50
499.56	15096.46
499.73	15255.61
499.91	15426.47
500.08	15330.51
500.26	15061.35
500.44	15187.74
500.61	15363.28
500.79	15250.93
500.97	15559.88
501.14	15662.86
501.32	15473.28
501.49	15702.65
501.67	15400.72
501.84	16060.76
502.02	15906.28
502.20	15871.17
502.37	16025.65
502.55	15815.00
502.72	16240.98
502.90	16037.35
503.07	16025.65
503.25	16388.43
503.43	16166.08
503.60	16376.73
503.78	16177.78
503.95	16229.27
504.13	16397.79
504.30	16606.10
504.48	16285.45
504.65	16589.72
504.83	16856.54
505.01	16912.71
505.18	17011.01
505.36	16872.92
505.53	16720.79
505.71	16725.47
505.88	16734.83
506.06	16966.54
506.23	17135.06
506.41	17179.53
506.58	17186.55
506.76	17020.38
506.93	17280.18
507.11	17345.71
507.28	17568.06
507.46	17135.06
507.63	17614.87
507.81	17727.22
507.98	17633.60
508.16	17528.27
508.33	17795.09
508.50	17591.47
508.68	17898.08
508.85	17951.91
509.03	18120.43
509.20	18136.81
509.38	18139.15
509.55	18185.96
509.73	17916.80
509.90	18352.14
510.08	18279.58
510.25	17994.04
510.42	18260.86
510.60	18471.51
510.77	18436.40
510.95	18895.14
511.12	18466.83
511.30	18366.18
511.47	18630.66
511.64	18565.13
511.82	18827.27
511.99	18845.99
512.17	19019.19
512.34	18780.46
512.51	19066.00
512.69	18932.59
512.86	18991.11
513.04	19101.11
513.21	19243.88
513.38	19337.51
513.56	19419.42
513.73	19374.95
513.90	19318.78
514.08	19068.34
514.25	19433.47
514.43	19473.26
514.60	19707.31
514.77	19868.81
514.95	19749.44
515.12	19641.78
515.29	19513.05
515.47	19693.27
515.64	19880.51
515.81	19889.87
515.99	19941.36
516.16	20086.48
516.33	20210.53
516.51	20159.03
516.68	19981.15
516.85	20224.57
517.03	19983.49
517.20	20367.34
517.37	20545.22
517.54	20360.32
517.72	20065.41
517.89	20486.71
518.06	20224.57
518.24	20634.16
518.41	20444.58
518.58	20498.41
518.75	20636.50
518.93	20699.70
519.10	20662.25
519.27	20737.15
519.45	20570.97
519.62	21076.52
519.79	20893.96
519.96	21057.80
520.14	21015.67
520.31	21109.29
520.48	21366.75
520.65	20987.58
520.83	21270.79
521.00	21200.57
521.17	21390.16
521.34	21448.67
521.52	21411.22
521.69	21270.79
521.86	21607.83
522.03	21432.29
522.20	21399.52
522.38	21600.80
522.55	21617.19
522.72	21483.78
522.89	21446.33
523.07	21841.88
523.24	21748.26
523.41	21933.16
523.58	21752.94
523.75	21884.01
523.92	21701.45
524.10	22089.98
524.27	21830.18
524.44	22207.00
524.61	22157.85
524.78	22050.19
524.96	22349.78
525.13	22211.68
525.30	22251.47
525.47	22597.87
525.64	22260.84
525.81	22211.68
525.98	22443.40
526.16	22356.80
526.33	22604.89
526.50	22625.96
526.67	22827.24
526.84	22630.64
527.01	22431.69
527.18	22609.58
527.36	22827.24
527.53	23014.49
527.70	23171.30
527.87	23101.09
528.04	22632.98
528.21	23194.71
528.38	22932.57
528.55	23323.44
528.72	23075.34
528.89	23339.82
529.07	22963.00
529.24	23262.58
529.41	23491.96
529.58	23220.45
529.75	23157.26
529.92	23236.84
530.09	23215.77
530.26	23208.75
530.43	23597.28
530.60	23206.41
530.77	23262.58
530.94	23608.98
531.11	23225.14
531.28	23447.49
531.46	23452.17
531.63	23709.63
531.80	23974.11
531.97	23936.66
532.14	24002.19
532.31	24137.94
532.48	24034.96
532.65	24163.69
532.82	23702.61
532.99	23878.15
533.16	23838.36
533.33	24149.65
533.50	24395.40
533.67	23985.81
533.84	24297.10
534.01	23637.07
534.18	23892.19
534.35	24381.36
534.52	24217.52
534.69	24606.05
534.86	24486.68
535.03	24442.21
535.20	24297.10
535.37	24739.46
535.54	24325.19
535.71	24287.74
535.88	24484.34
536.05	24357.96
536.22	24479.66
536.38	24868.19
536.55	24725.42
536.72	24835.42
536.89	24606.05
537.06	25109.27
537.23	24776.91
537.40	24776.91
537.57	24711.38
537.74	25118.63
537.91	24957.13
538.08	25219.27
538.25	24936.07
538.42	25207.57
538.59	25008.62
538.75	24947.77
538.92	25127.99
539.09	25544.61
539.26	25465.03
539.43	25273.10
539.60	25284.81
539.77	24910.32
539.94	25319.92
540.11	25212.25
540.28	25462.69
540.44	25214.59
540.61	25570.35
540.78	25743.55
540.95	25280.13
541.12	25525.88
541.29	25666.31
541.46	25605.46
541.62	25207.57
541.79	25876.96
541.96	25448.64
542.13	25776.32
542.30	25799.73
542.47	25986.97
542.63	26071.23
542.80	26038.46
542.97	25914.41
543.14	26171.87
543.31	25886.32
543.48	25982.29
543.64	26705.51
543.81	26342.73
543.98	25869.94
544.15	26199.96
544.32	26398.90
544.48	26649.34
544.65	26160.17
544.82	26047.82
544.99	26321.66
545.16	26134.42
545.32	26265.49
545.49	26490.18
545.66	26654.02
545.83	26703.17
546.00	26593.17
546.16	26555.72
546.33	26567.42
546.50	26190.59
546.67	26579.12
546.83	26499.55
547.00	26518.27
547.17	26518.27
547.34	26284.22
547.50	26740.62
547.67	26815.52
547.84	26754.66
548.00	26789.77
548.17	26955.95
548.34	27208.73
548.51	26916.16
548.67	27040.21
548.84	26909.14
549.01	27077.66
549.18	27089.36
549.34	27051.91
549.51	26941.91
549.68	27166.60
549.84	27274.26
550.01	27164.26
550.18	26925.52
550.34	27126.81
550.51	27080.00
550.68	26988.72
550.84	27000.42
551.01	27606.62
551.18	27307.03
551.34	26859.99
551.51	26829.56
551.68	27520.02
551.84	27552.79
552.01	27601.94
552.18	27557.47
552.34	27587.89
552.51	27700.24
552.68	27314.05
552.84	27718.96
553.01	27630.02
553.18	27859.40
553.34	27847.69
553.51	27662.79
553.67	27721.30
553.84	27955.36
554.01	27744.71
554.17	27744.71
554.34	27632.36
554.51	27604.28
554.67	27513.00
554.84	27835.99
555.00	27931.95
555.17	27630.02
555.33	28013.87
555.50	27761.09
555.67	27983.44
555.83	28009.19
556.00	28077.07
556.16	27908.55
556.33	28046.64
556.50	27920.25
556.66	28243.24
556.83	27997.49
556.99	28112.17
557.16	28208.14
557.32	28348.57
557.49	28299.42
557.65	28091.11
557.82	28212.82
557.98	28566.24
558.15	28081.75
558.32	28311.12
558.48	28250.27
558.65	27988.13
558.81	28470.28
558.98	28444.53
559.14	28217.50
559.31	28177.71
559.47	28381.34
559.64	28566.24
559.80	28451.55
559.97	28449.21
560.13	28320.48
560.30	28357.93
560.46	28636.45
560.63	28797.95
560.79	28353.25
560.96	28491.34
561.12	28074.73
561.29	28432.83
561.45	28737.10
561.61	28776.89
561.78	28568.58
561.94	28610.71
562.11	28905.62
562.27	28830.72
562.44	28463.25
562.60	28463.25
562.77	28517.09
562.93	28299.42
563.10	28622.41
563.26	28610.71
563.42	29015.62
563.59	28486.66
563.75	29024.98
563.92	28877.53
564.08	28542.83
564.24	28332.18
564.41	28858.81
564.57	28758.16
564.74	28865.83
564.90	29036.69
565.07	28980.51
565.23	28758.16
565.39	29010.94
565.56	29017.96
565.72	28786.25
565.88	29134.99
566.05	28720.71
566.21	28964.13
566.38	29252.02
566.54	29046.05
566.70	29034.35
566.87	29219.25
567.03	29083.50
567.19	29572.67
567.36	28905.62
567.52	29032.00
567.68	29420.53
567.85	28828.38
568.01	29118.60
568.17	29198.18
568.34	29233.29
568.50	29432.24
568.66	29205.20
568.83	29151.37
568.99	28840.08
569.15	28828.38
569.32	28882.21
569.48	28765.18
569.64	29186.48
569.81	29242.65
569.97	28961.79
570.13	29614.80
570.30	28741.78
570.46	29273.08
570.62	28814.34
570.78	28807.31
570.95	28989.88
571.11	28783.91
571.27	29048.39
571.43	28954.77
571.60	29294.14
571.76	29214.57
571.92	29301.17
572.09	29036.69
572.25	29289.46
572.41	29160.73
572.57	29479.05
572.74	29420.53
572.90	28847.10
573.06	29202.86
573.22	29095.20
573.38	29432.24
573.55	29528.20
573.71	29296.49
573.87	29221.59
574.03	29090.52
574.20	29504.79
574.36	29301.17
574.52	29614.80
574.68	28840.08
574.84	29181.80
575.01	29387.77
575.17	29287.12
575.33	29102.22
575.49	29057.75
575.65	29294.14
575.82	29628.84
575.98	29434.58
576.14	29523.52
576.30	29149.03
576.46	29406.49
576.62	29017.96
576.79	29350.32
576.95	29369.04
577.11	29355.00
577.27	29769.27
577.43	29263.72
577.59	29364.36
577.75	29593.73
577.92	29427.56
578.08	29518.84
578.24	29355.00
578.40	29570.33
578.56	29443.94
578.72	29682.67
578.88	29390.11
579.04	29584.37
579.21	29558.63
579.37	29415.85
579.53	29937.79
579.69	29591.39
579.85	29263.72
580.01	29497.77
580.17	29312.87
580.33	29352.66
580.49	29560.97
580.65	29773.95
580.82	29706.08
580.98	29521.18
581.14	29357.34
581.30	29811.40
581.46	29406.49
581.62	29617.14
581.78	29345.64
581.94	29621.82
582.10	29170.10
582.26	29263.72
582.42	29443.94
582.58	29497.77
582.74	29589.05
582.90	29986.94
583.06	29474.37
583.22	29614.80
583.38	29727.14
583.54	29680.33
583.70	29614.80
583.86	29509.47
584.02	29818.42
584.18	29450.96
584.34	29422.87
584.50	29759.91
584.66	29677.99
584.82	29228.61
584.98	29996.31
585.14	29851.19
585.30	29738.85
585.46	29301.17
585.62	29179.46
585.78	29441.60
585.94	29420.53
586.10	29546.92
586.26	29729.48
586.42	29682.67
586.58	29766.93
586.74	29486.07
586.90	29514.16
587.06	29621.82
587.22	29645.23
587.38	29614.80
587.54	29806.72
587.70	29720.12
587.86	29692.04
588.02	30162.48
588.18	30052.48
588.34	29757.57
588.49	29738.85
588.65	29752.89
588.81	29701.40
588.97	30075.88
589.13	29717.78
589.29	29376.06
589.45	29970.56
589.61	29792.68
589.77	30022.05
589.93	30103.97
590.08	29666.29
590.24	30129.72
590.40	30218.66
590.56	29984.60
590.72	29832.47
590.88	29497.77
591.04	29736.51
591.20	30113.33
591.35	30178.87
591.51	30235.04
591.67	30115.67
591.83	30272.49
591.99	30293.55
592.15	30108.65
592.31	29785.66
592.46	29769.27
592.62	29394.79
592.78	29900.34
592.94	30125.04
593.10	29710.76
593.26	30242.06
593.41	30118.01
593.57	30150.78
593.73	29949.50
593.89	30672.72
594.05	30073.54
594.20	29914.39
594.36	30298.23
594.52	30155.46
594.68	29965.88
594.84	29596.07
594.99	30288.87
595.15	29677.99
595.31	30323.98
595.47	30237.38
595.62	29902.68
595.78	30146.10
595.94	29954.18
596.10	30153.12
596.25	30092.27
596.41	30146.10
596.57	29652.25
596.73	30019.71
596.88	30253.76
597.04	30438.67
597.20	30501.86
597.36	30267.81
597.51	30478.46
597.67	30181.21
597.83	29809.06
597.99	29937.79
598.14	30066.52
598.30	30377.81
598.46	30068.86
598.61	30319.30
598.77	29883.96
598.93	30319.30
599.09	30199.93
599.24	30316.96
599.40	30295.89
599.56	30300.58
599.71	30113.33
599.87	30567.40
600.03	30232.70
600.18	30029.07
600.34	29989.28
600.50	30036.09
600.65	30279.51
600.81	30551.01
600.97	30199.93
601.12	30588.46
601.28	30183.55
601.44	30375.47
601.59	30036.09
601.75	30443.35
601.91	30335.68
602.06	30258.45
602.22	30235.04
602.37	29909.71
602.53	30459.73
602.69	30686.76
602.84	30441.01
603.00	30195.25
603.16	29977.58
603.31	30251.42
603.47	30204.61
603.62	30682.08
603.78	30213.98
603.94	30082.91
604.09	30284.19
604.25	30050.14
604.40	30384.83
604.56	30560.37
604.71	30368.45
604.87	30476.12
605.03	30258.45
605.18	30527.61
605.34	30192.91
605.49	30232.70
605.65	29827.79
605.80	29883.96
605.96	30490.16
606.12	30586.12
606.27	30064.18
606.43	30312.28
606.58	29963.54
606.74	30202.27
606.89	30195.25
607.05	30518.25
607.20	30616.55
607.36	30115.67
607.51	30099.29
607.67	30010.35
607.82	29731.83
607.98	30251.42
608.13	30071.20
608.29	29949.50
608.44	30323.98
608.60	29830.13
608.75	30225.68
608.91	30396.54
609.06	30478.46
609.22	29916.73
609.37	29631.18
609.53	30101.63
609.68	29855.87
609.84	30118.01
609.99	29837.15
610.15	29706.08
610.30	30265.47
610.46	29462.66
610.61	29982.26
610.76	30022.05
610.92	29788.00
611.07	29881.62
611.23	29790.34
611.38	29986.94
611.54	29558.63
611.69	29631.18
611.84	29666.29
612.00	29844.17
612.15	29717.78
612.31	29935.45
612.46	29626.50
612.62	29984.60
612.77	29940.13
612.92	29703.74
613.08	29773.95
613.23	29708.42
613.39	29420.53
613.54	29495.43
613.69	29816.08
613.85	29890.98
614.00	29860.55
614.15	29780.98
614.31	29509.47
614.46	29727.14
614.62	29670.97
614.77	29663.95
614.92	29680.33
615.08	29160.73
615.23	29579.69
615.38	29881.62
615.54	29343.30
615.69	29399.47
615.84	29434.58
616.00	29582.03
616.15	29441.60
616.30	29640.54
616.46	29902.68
616.61	29163.08
616.76	29518.84
616.92	29383.09
617.07	29649.91
617.22	29453.30
617.37	29057.75
617.53	29340.96
617.68	29195.84
617.83	29076.48
617.99	29165.42
618.14	29364.36
618.29	29287.12
618.45	29020.30
618.60	28964.13
618.75	29043.71
618.90	29324.57
619.06	29226.27
619.21	29074.13
619.36	28973.49
619.51	28842.42
619.67	29071.79
619.82	28924.34
619.97	29216.91
620.12	28842.42
620.28	29010.94
620.43	29064.77
620.58	28940.72
620.73	29137.33
620.89	29170.10
621.04	29259.04
621.19	29088.18
621.34	29130.31
621.49	28978.17
621.65	28882.21
621.80	28655.18
621.95	28814.34
622.10	28720.71
622.25	28957.11
622.41	28769.86
622.56	29167.76
622.71	29008.60
622.86	28793.27
623.01	28952.43
623.16	28662.20
623.32	28896.25
623.47	28706.67
623.62	28772.21
623.77	28938.38
623.92	28776.89
624.07	28624.75
624.23	28407.08
624.38	28872.85
624.53	28526.45
624.68	28914.98
624.83	28627.09
624.98	28737.10
625.13	28404.74
625.29	28673.90
625.44	28683.27
625.59	28381.34
625.74	28577.94
625.89	28458.57
626.04	28318.14
626.19	28371.97
626.34	28362.61
626.49	27997.49
626.65	28608.37
626.80	28449.21
626.95	28655.18
627.10	28355.59
627.25	28056.00
627.40	28481.98
627.55	28261.97
627.70	27920.25
627.85	27962.38
628.00	28020.89
628.15	28027.92
628.30	27990.47
628.45	28283.03
628.60	28034.94
628.76	28397.72
628.91	27779.82
629.06	27988.13
629.21	27873.44
629.36	27894.50
629.51	27803.22
629.66	27903.87
629.81	27831.31
629.96	27955.36
630.11	27817.27
630.26	27747.05
630.41	27775.14
630.56	27812.59
630.71	27623.00
630.86	27875.78
631.01	28133.24
631.16	27955.36
631.31	27882.80
631.46	27583.21
631.61	27835.99
631.76	27850.03
631.91	27819.61
632.06	27765.78
632.21	27608.96
632.36	27550.45
632.51	27438.10
632.66	27438.10
632.81	27337.46
632.96	27859.40
633.10	27363.20
633.25	27906.21
633.40	27468.53
633.55	27250.86
633.70	26845.94
633.85	27402.99
634.00	27637.05
634.15	27372.57
634.30	27295.33
634.45	27676.83
634.60	27566.83
634.75	27321.07
634.90	27419.38
635.05	27424.06
635.19	27180.64
635.34	27681.52
635.49	27585.55
635.64	27410.01
635.79	27304.69
635.94	27314.05
636.09	27410.01
636.24	27503.64
636.39	27131.49
636.53	27063.61
636.68	27318.73
636.83	27545.76
636.98	27168.94
637.13	27234.47
637.28	27300.01
637.43	27257.88
637.57	27300.01
637.72	27140.85
637.87	26764.03
638.02	27353.84
638.17	27288.31
638.32	26955.95
638.46	26380.18
638.61	27058.93
638.76	26717.22
638.91	26611.89
639.06	26728.92
639.20	26817.86
639.35	26998.08
639.50	26829.56
639.65	26951.27
639.80	26923.18
639.94	26824.88
640.09	26958.29
640.24	27021.48
640.39	27075.32
640.54	26757.00
640.68	26595.51
640.83	26684.45
640.98	26272.51
641.13	26541.68
641.27	26735.94
641.42	26359.11
641.57	26696.15
641.72	26555.72
641.86	26518.27
642.01	26426.99
642.16	26092.29
642.31	26485.50
642.45	26452.73
642.60	26216.34
642.75	26017.40
642.90	26136.76
643.04	26291.24
643.19	26176.55
643.34	26515.93
643.48	26202.30
643.63	26635.30
643.78	26384.86
643.93	26511.25
644.07	26424.65
644.22	26661.04
644.37	26422.31
644.51	26113.36
644.66	26111.02
644.81	26045.48
644.95	26244.43
645.10	26223.36
645.25	26274.85
645.39	26239.75
645.54	26143.78
645.69	26015.05
645.83	26401.24
645.98	25986.97
646.13	26457.42
646.27	26319.32
646.42	26015.05
646.57	26230.38
646.71	26197.62
646.86	26036.12
647.00	26192.94
647.15	26136.76
647.30	25895.69
647.44	25947.18
647.59	25792.70
647.74	25858.24
647.88	26188.25
648.03	26141.44
648.17	26082.93
648.32	25607.80
648.47	26185.91
648.61	25785.68
648.76	25855.90
648.90	26333.37
649.05	25820.79
649.20	26010.37
649.34	25624.18
649.49	25549.29
649.63	25296.51
649.78	25350.34
649.92	25415.88
650.07	25523.54
650.21	25785.68
650.36	25986.97
650.51	25589.08
650.65	26274.85
650.80	25781.00
650.94	25596.10
651.09	25582.06
651.23	25525.88
651.38	25635.89
651.52	25275.45
651.67	25661.63
651.81	25612.48
651.96	25324.60
652.10	25661.63
652.25	25619.50
652.39	25582.06
652.54	25560.99
652.68	25249.70
652.83	25694.40
652.97	25621.84
653.12	25425.24
653.26	25284.81
653.41	25268.42
653.55	25397.15
653.70	25214.59
653.84	25336.30
653.99	25387.79
654.13	25357.36
654.27	25125.65
654.42	25228.63
654.56	25399.49
654.71	25223.95
654.85	25572.69
655.00	25287.15
655.14	25207.57
655.29	25394.81
655.43	25090.54
655.57	25174.80
655.72	25013.31
655.86	25235.66
656.01	25298.85
656.15	25135.01
656.30	25015.65
656.44	24746.48
656.58	24938.41
656.73	25022.67
656.87	25184.16
657.01	24877.55
657.16	25397.15
657.30	25404.17
657.45	24528.81
657.59	24830.74
657.73	24608.39
657.88	25008.62
658.02	24741.80
658.16	24893.94
658.31	24922.02
658.45	24751.17
658.60	24538.18
658.74	24652.86
658.88	24500.73
659.03	24477.32
659.17	24797.98
659.31	24580.31
659.46	24334.55
659.60	24376.68
659.74	24390.72
659.89	24734.78
660.03	24451.58
660.17	24325.19
660.32	24229.23
660.46	24224.54
660.60	24041.98
660.74	24100.50
660.89	24491.37
661.03	24107.52
661.17	23920.28
661.32	24173.05
661.46	24030.28
661.60	24182.42
661.74	23744.73
661.89	24149.65
662.03	24395.40
662.17	24074.75
662.31	24013.90
662.46	24147.31
662.60	23920.28
662.74	23639.41
662.88	23552.81
663.03	23688.56
663.17	23903.89
663.31	23447.49
663.45	23431.10
663.60	23885.17
663.74	23477.91
663.88	23679.20
664.02	23445.15
664.17	23789.20
664.31	23349.18
664.45	23470.89
664.59	23749.42
664.73	23543.45
664.88	23267.27
665.02	23307.05
665.16	23407.70
665.30	23187.69
665.44	23248.54
665.59	23325.78
665.73	23033.21
665.87	23211.09
666.01	23271.95
666.15	23323.44
666.29	23075.34
666.44	23316.42
666.58	23173.64
666.72	22752.35
666.86	22838.95
667.00	23225.14
667.14	23124.49
667.28	22845.97
667.43	22537.02
667.57	22855.33
667.71	22640.00
667.85	22576.81
667.99	22232.75
668.13	22537.02
668.27	22698.52
668.41	22764.05
668.56	22860.01
668.70	22216.36
668.84	22689.15
668.98	22539.36
669.12	22497.23
669.26	22532.34
669.40	22485.53
669.54	22731.28
669.68	22466.80
669.82	22508.93
669.96	22040.82
670.10	22043.17
670.25	22068.91
670.39	22305.31
670.53	21996.35
670.67	21898.05
670.81	22089.98
670.95	21839.54
671.09	22185.94
671.23	22038.48
671.37	22300.62
671.51	21806.77
671.65	21970.61
671.79	21582.08
671.93	21766.98
672.07	22001.04
672.21	21621.87
672.35	21614.85
672.49	21331.64
672.63	21467.39
672.77	21216.96
672.91	21678.04
673.05	21362.07
673.19	21359.73
673.33	21516.54
673.47	21404.20
673.61	21528.25
673.75	21090.57
673.89	21343.35
674.03	20798.00
674.17	20936.09
674.31	20961.84
674.45	20994.61
674.59	20980.56
674.73	21104.61
674.87	20680.97
675.01	20790.98
675.15	20849.49
675.29	20718.42
675.43	20903.32
675.56	20975.88
675.70	20673.95
675.84	20645.87
675.98	20301.81
676.12	20650.55
676.26	20699.70
676.40	20695.02
676.54	20423.51
676.68	20203.50
676.82	19566.88
676.96	19798.59
677.10	20196.48
677.23	19861.79
677.37	19978.81
677.51	19683.91
677.65	19789.23
677.79	19564.54
677.93	19814.98
678.07	19875.83
678.21	19351.55
678.34	19459.21
678.48	19625.39
678.62	19510.71
678.76	19676.88
678.90	19538.79
679.04	19213.46
679.18	19414.74
679.31	19192.39
679.45	18970.04
679.59	18799.18
679.73	18925.57
679.87	18906.85
680.00	19073.03
680.14	18544.06
680.28	18693.86
680.42	18963.02
680.56	19035.58
680.70	18764.07
680.83	19070.68
680.97	18663.43
681.11	18572.15
681.25	18628.32
681.39	18628.32
681.52	18939.62
681.66	18225.75
681.80	18178.94
681.94	18405.97
682.07	18185.96
682.21	18061.91
682.35	17905.10
682.49	18010.42
682.62	17914.46
682.76	17706.15
682.90	17907.44
683.04	17832.54
683.17	17692.11
683.31	18061.91
683.45	17596.15
683.59	17734.24
683.72	17818.50
683.86	17678.07
684.00	17488.48
684.13	17088.25
684.27	17523.59
684.41	17418.27
684.55	17041.44
684.68	16872.92
684.82	17039.10
684.96	17090.59
685.09	16931.44
685.23	16681.00
685.37	16648.23
685.50	17032.08
685.64	16877.60
685.78	16594.40
685.91	16835.47
686.05	16915.05
686.19	16608.44
686.32	16533.54
686.46	16308.85
686.60	16367.37
686.73	16746.53
686.87	16159.06
687.01	16460.99
687.14	16051.39
687.28	16168.42
687.42	15845.43
687.55	15946.07
687.69	15843.09
687.82	16016.29
687.96	15995.22
688.10	15733.08
688.23	15737.76
688.37	15662.86
688.50	15714.36
688.64	15571.58
688.78	15599.67
688.91	15623.08
689.05	15648.82
689.18	15283.70
689.32	15033.26
689.46	15197.10
689.59	14808.57
689.73	15211.14
689.86	15173.69
690.00	15030.92
690.13	15257.95
690.27	15108.16
690.41	14972.41
690.54	15012.20
690.68	14876.44
690.81	14958.36
690.95	14555.79
691.08	14895.17
691.22	14724.31
691.35	14668.14
691.49	14693.88
691.62	14736.01
691.76	14429.40
691.89	14614.30
692.03	14319.40
692.16	14141.52
692.30	14253.86
692.43	14143.86
692.57	14073.64
692.70	14066.62
692.84	13984.70
692.97	13844.27
693.11	13886.40
693.24	13692.13
693.38	13848.95
693.51	13832.57
693.65	13839.59
693.78	13790.44
693.92	13752.99
694.05	13444.04
694.19	13804.48
694.32	13233.39
694.45	13298.92
694.59	13259.13
694.72	13177.22
694.86	13071.89
694.99	13303.60
695.13	12964.23
695.26	13104.66
695.39	12952.52
695.53	13039.12
695.66	13041.46
695.80	12821.45
695.93	13132.75
696.07	12940.82
696.20	12994.65
696.33	12819.11
696.47	12662.30
696.60	12610.81
696.73	12564.00
696.87	12566.34
697.00	12559.31
697.14	12393.14
697.27	12095.89
697.40	12231.64
697.54	12320.58
697.67	12283.13
697.80	11950.78
697.94	11885.24
698.07	11896.94
698.21	11918.01
698.34	11962.48
698.47	11962.48
698.61	11833.75
698.74	11927.37
698.87	11964.82
699.01	11831.41
699.14	11503.73
699.27	11653.53
699.40	11800.98
699.54	11576.29
699.67	11384.37
699.80	11403.09
699.94	11307.13
700.07	11417.13
700.20	11257.98
700.34	11314.15
700.47	11206.48
700.60	11391.39
700.73	11342.24
700.87	11075.42
701.00	10934.98
701.13	10864.77
701.26	10871.79
701.40	10972.43
701.53	10855.40
701.66	10640.08
701.79	10707.95
701.93	10675.18
702.06	10665.82
702.19	10546.45
702.32	10654.12
702.46	10616.67
702.59	10464.54
702.72	10204.74
702.85	10267.93
702.99	10335.81
703.12	10232.82
703.25	10267.93
703.38	10181.33
703.51	10132.18
703.65	10218.78
703.78	10169.63
703.91	9968.34
704.04	10080.69
704.17	10120.48
704.31	10015.15
704.44	9923.87
704.57	9900.47
704.70	9699.18
704.83	9696.84
704.96	9750.67
705.10	9530.66
705.23	9561.09
>>>>>End Processed Spectral Data<<<<<
