SpectraSuite Data File
++++++++++++++++++++++++++++++++++++
Date: Fri Oct 18 13:58:38 GMT-05:00 2013
User: bianchi
Dark Spectrum Present: No
Reference Spectrum Present: No
Number of Sampled Component Spectra: 1
Spectrometers: USB2+H05261
Integration Time (usec): 50000 (USB2+H05261)
Spectra Averaged: 1 (USB2+H05261)
Boxcar Smoothing: 0 (USB2+H05261)
Correct for Electrical Dark: No (USB2+H05261)
Strobe/Lamp Enabled: No (USB2+H05261)
Correct for Detector Non-linearity: No (USB2+H05261)
Correct for Stray Light: No (USB2+H05261)
Number of Pixels in Processed Spectrum: 2048
>>>>>Begin Processed Spectral Data<<<<<
365.73	0.00
365.92	0.00
366.12	0.00
366.32	0.00
366.52	0.00
366.72	0.00
366.91	0.00
367.11	0.00
367.31	0.00
367.51	0.00
367.70	0.00
367.90	0.00
368.10	0.00
368.30	0.00
368.49	0.00
368.69	0.00
368.89	0.00
369.09	0.00
369.28	0.00
369.48	0.00
369.68	0.00
369.87	0.00
370.07	0.00
370.27	0.00
370.47	0.00
370.66	142.77
370.86	93.62
371.06	128.73
371.25	152.13
371.45	189.58
371.65	154.48
371.84	112.35
372.04	128.73
372.24	131.07
372.44	159.16
372.63	236.39
372.83	222.35
373.03	187.24
373.22	217.67
373.42	212.99
373.62	273.84
373.81	262.14
374.01	224.69
374.21	208.31
374.40	212.99
374.60	191.92
374.79	187.24
374.99	229.37
375.19	269.16
375.38	224.69
375.58	280.86
375.78	187.24
375.97	264.48
376.17	208.31
376.37	177.88
376.56	262.14
376.76	266.82
376.95	287.89
377.15	327.68
377.35	353.42
377.54	304.27
377.74	294.91
377.93	222.35
378.13	255.12
378.33	292.57
378.52	220.01
378.72	327.68
378.91	306.61
379.11	301.93
379.31	294.91
379.50	278.52
379.70	294.91
379.89	304.27
380.09	360.44
380.28	351.08
380.48	269.16
380.68	334.70
380.87	353.42
381.07	215.33
381.26	327.68
381.46	318.31
381.65	381.51
381.85	365.12
382.04	292.57
382.24	346.40
382.43	304.27
382.63	358.10
382.83	292.57
383.02	369.80
383.22	397.89
383.41	386.19
383.61	358.10
383.80	393.21
384.00	358.10
384.19	393.21
384.39	358.10
384.58	365.12
384.78	388.53
384.97	397.89
385.17	355.76
385.36	393.21
385.56	465.77
385.75	376.83
385.95	339.38
386.14	444.70
386.34	425.98
386.53	346.40
386.72	395.55
386.92	379.17
387.11	404.91
387.31	369.80
387.50	381.51
387.70	404.91
387.89	458.74
388.09	451.72
388.28	404.91
388.48	416.62
388.67	402.57
388.86	348.74
389.06	461.09
389.25	411.93
389.45	486.83
389.64	465.77
389.84	479.81
390.03	482.15
390.22	526.62
390.42	454.06
390.61	437.68
390.81	458.74
391.00	573.43
391.19	519.60
391.39	472.79
391.58	484.49
391.78	552.37
391.97	568.75
392.16	500.87
392.36	617.90
392.55	538.32
392.75	531.30
392.94	653.01
393.13	493.85
393.33	580.45
393.52	550.03
393.71	566.41
393.91	585.13
394.10	505.56
394.29	573.43
394.49	617.90
394.68	531.30
394.88	554.71
395.07	660.03
395.26	622.58
395.46	610.88
395.65	653.01
395.84	543.00
396.04	678.76
396.23	636.63
396.42	671.73
396.62	610.88
396.81	615.56
397.00	610.88
397.19	627.26
397.39	690.46
397.58	805.14
397.77	660.03
397.97	634.29
398.16	671.73
398.35	699.82
398.55	774.72
398.74	690.46
398.93	638.97
399.12	669.39
399.32	718.54
399.51	664.71
399.70	636.63
399.90	798.12
400.09	807.48
400.28	798.12
400.47	653.01
400.67	798.12
400.86	788.76
401.05	725.57
401.24	868.34
401.44	816.85
401.63	763.01
401.82	758.33
402.01	833.23
402.21	887.06
402.40	781.74
402.59	791.10
402.78	854.30
402.97	814.51
403.17	849.61
403.36	858.98
403.55	819.19
403.74	830.89
403.93	894.08
404.13	884.72
404.32	891.74
404.51	910.47
404.70	802.80
404.89	968.98
405.09	856.64
405.28	903.45
405.47	894.08
405.66	1053.24
405.85	1020.47
406.05	889.40
406.24	924.51
406.43	978.34
406.62	952.60
406.81	980.68
407.00	1011.11
407.20	1008.77
407.39	1027.50
407.58	1125.80
407.77	1053.24
407.96	1078.99
408.15	1048.56
408.34	1043.88
408.54	1006.43
408.73	1116.44
408.92	1116.44
409.11	1231.12
409.30	1125.80
409.49	1165.59
409.68	1177.29
409.87	1151.54
410.07	1188.99
410.26	1181.97
410.45	1240.48
410.64	1212.40
410.83	1149.20
411.02	1242.82
411.21	1233.46
411.40	1221.76
411.59	1174.95
411.78	1200.69
411.98	1153.88
412.17	1289.64
412.36	1357.51
412.55	1277.93
412.74	1366.87
412.93	1338.79
413.12	1329.42
413.31	1458.15
413.50	1446.45
413.69	1371.55
413.88	1423.05
414.07	1371.55
414.26	1392.62
414.45	1455.81
414.64	1483.90
414.83	1472.20
415.02	1465.18
415.22	1455.81
415.41	1481.56
415.60	1547.09
415.79	1565.82
415.98	1504.96
416.17	1614.97
416.36	1521.35
416.55	1643.06
416.74	1495.60
416.93	1666.46
417.12	1610.29
417.31	1661.78
417.50	1743.70
417.69	1771.79
417.88	1788.17
418.07	1720.29
418.26	1762.42
418.45	1729.66
418.64	1806.89
418.83	1750.72
419.02	1874.77
419.21	1811.57
419.39	1820.94
419.58	1837.32
419.77	1923.92
419.96	1785.83
420.15	1959.03
420.34	1813.92
420.53	1907.54
420.72	1891.15
420.91	1893.49
421.10	1895.83
421.29	1933.28
421.48	1891.15
421.67	1968.39
421.86	1944.99
422.05	1923.92
422.24	1799.87
422.43	1961.37
422.61	1973.07
422.80	1963.71
422.99	1991.80
423.18	1973.07
423.37	2085.42
423.56	1935.62
423.75	1944.99
423.94	1935.62
424.13	1846.68
424.32	1926.26
424.50	1963.71
424.69	2115.84
424.88	2148.61
425.07	2005.84
425.26	1968.39
425.45	1984.77
425.64	2005.84
425.83	2062.01
426.01	2073.71
426.20	2090.10
426.39	2090.10
426.58	2066.69
426.77	2001.16
426.96	2092.44
427.15	2040.95
427.33	2094.78
427.52	2064.35
427.71	2230.53
427.90	2242.23
428.09	2108.82
428.28	2190.74
428.46	2242.23
428.65	2253.94
428.84	2221.17
429.03	2310.11
429.22	2143.93
429.40	2129.89
429.59	2197.76
429.78	2165.00
429.97	2167.34
430.16	2225.85
430.34	2298.41
430.53	2200.10
430.72	2298.41
430.91	2300.75
431.10	2279.68
431.28	2310.11
431.47	2359.26
431.66	2338.20
431.85	2291.38
432.03	2431.82
432.22	2382.67
432.41	2335.85
432.60	2581.61
432.79	2401.39
432.97	2499.69
433.16	2427.14
433.35	2502.03
433.54	2478.63
433.72	2553.52
433.91	2473.95
434.10	2490.33
434.28	2567.57
434.47	2612.04
434.66	2553.52
434.85	2593.31
435.03	2621.40
435.22	2651.83
435.41	2612.04
435.59	2637.78
435.78	2497.35
435.97	2553.52
436.16	2647.15
436.34	2626.08
436.53	2609.70
436.72	2775.88
436.90	2572.25
437.09	2698.64
437.28	2551.18
437.46	2506.71
437.65	2726.72
437.84	2696.30
438.02	2766.51
438.21	2722.04
438.40	2619.06
438.58	2867.16
438.77	2923.33
438.96	2897.58
439.14	2953.76
439.33	3028.65
439.52	2913.97
439.70	2885.88
439.89	3030.99
440.08	2937.37
440.26	3009.93
440.45	2911.63
440.63	3213.56
440.82	3084.83
441.01	3148.02
441.19	3075.46
441.38	3145.68
441.57	3047.38
441.75	3241.64
441.94	3197.17
442.12	3117.59
442.31	3309.52
442.50	3325.90
442.68	3302.50
442.87	3241.64
443.05	3356.33
443.24	3269.73
443.43	3304.84
443.61	3295.47
443.80	3574.00
443.98	3405.48
444.17	3215.90
444.35	3419.52
444.54	3325.90
444.73	3398.46
444.91	3400.80
445.10	3529.53
445.28	3421.86
445.47	3440.59
445.65	3442.93
445.84	3386.76
446.02	3473.36
446.21	3492.08
446.39	3461.65
446.58	3578.68
446.77	3520.17
446.95	3382.07
447.14	3618.47
447.32	3522.51
447.51	3550.59
447.69	3571.66
447.88	3564.64
448.06	3618.47
448.25	3646.55
448.43	3428.88
448.62	3517.83
448.80	3499.10
448.99	3510.80
449.17	3492.08
449.36	3538.89
449.54	3616.13
449.73	3637.19
449.91	3714.43
450.10	3824.44
450.28	3686.34
450.46	3660.60
450.65	3676.98
450.83	3637.19
451.02	3660.60
451.20	3854.86
451.39	3648.90
451.57	3660.60
451.76	3791.67
451.94	3770.60
452.13	3796.35
452.31	3843.16
452.49	3798.69
452.68	3789.33
452.86	3698.05
453.05	3782.31
453.23	3868.91
453.42	3857.20
453.60	3925.08
453.78	3815.07
453.97	3943.80
454.15	3887.63
454.34	3789.33
454.52	3985.93
454.70	3941.46
454.89	4067.85
455.07	4142.75
455.26	3974.23
455.44	4128.70
455.62	4140.41
455.81	4079.55
455.99	4131.05
456.17	4046.79
456.36	4060.83
456.54	4320.63
456.73	4114.66
456.91	4236.37
457.09	4329.99
457.28	4222.33
457.46	4290.20
457.64	4301.90
457.83	4245.73
458.01	4163.81
458.19	4531.28
458.38	4259.78
458.56	4287.86
458.74	4491.49
458.93	4454.04
459.11	4299.56
459.29	4339.35
459.48	4505.53
459.66	4348.72
459.84	4561.70
460.03	4519.57
460.21	4430.63
460.39	4447.02
460.57	4554.68
460.76	4503.19
460.94	4648.30
461.12	4575.75
461.31	4557.02
461.49	4585.11
461.67	4641.28
461.85	4601.49
462.04	4585.11
462.22	4613.20
462.40	4744.27
462.59	4868.31
462.77	4795.76
462.95	4814.48
463.13	4681.07
463.32	4835.55
463.50	4786.40
463.68	4643.62
463.86	4826.18
464.05	4823.84
464.23	4821.50
464.41	5039.17
464.59	4744.27
464.78	4915.12
464.96	4873.00
465.14	4718.52
465.32	4837.89
465.50	4978.32
465.69	4858.95
465.87	5074.28
466.05	4770.01
466.23	4896.40
466.41	5163.22
466.60	4966.62
466.78	4947.89
466.96	4975.98
467.14	4997.04
467.32	4975.98
467.51	5062.58
467.69	4840.23
467.87	5275.57
468.05	5247.48
468.23	5212.37
468.41	5090.67
468.60	5111.73
468.78	5280.25
468.96	4915.12
469.14	5270.89
469.32	5177.26
469.50	5266.21
469.69	5350.46
469.87	5528.35
470.05	5497.92
470.23	5392.59
470.41	5380.89
470.59	5329.40
470.77	5504.94
470.95	5341.10
471.14	5451.11
471.32	5343.44
471.50	5483.88
471.68	5558.77
471.86	5411.32
472.04	5799.85
472.22	5774.10
472.40	5621.97
472.58	5631.33
472.77	5673.46
472.95	5795.17
473.13	5984.75
473.31	5846.66
473.49	5624.31
473.67	5921.56
473.85	5905.17
474.03	5996.45
474.21	6059.65
474.39	6111.14
474.57	6005.81
474.75	6031.56
474.93	6148.59
475.12	6164.97
475.30	6069.01
475.48	6064.33
475.66	6207.10
475.84	6200.08
476.02	6293.70
476.20	6403.71
476.38	6480.94
476.56	6483.28
476.74	6406.05
476.92	6480.94
477.10	6431.79
477.28	6431.79
477.46	6513.71
477.64	6715.00
477.82	6672.87
478.00	7063.74
478.18	6902.24
478.36	6850.75
478.54	7052.03
478.72	7105.87
478.90	6841.39
479.08	7180.76
479.26	7087.14
479.44	7152.68
479.62	7297.79
479.80	7258.00
479.98	7513.12
480.16	7698.02
480.34	7531.84
480.52	7470.99
480.70	7747.17
480.88	7597.38
481.06	7578.65
481.24	7564.61
481.41	7765.90
481.59	7782.28
481.77	8116.98
481.95	7901.65
482.13	8124.00
482.31	8004.63
482.49	8170.81
482.67	8135.70
482.85	8493.80
483.03	8463.38
483.21	8507.85
483.39	8601.47
483.57	8306.56
483.74	8594.45
483.92	8690.41
484.10	8620.19
484.28	8615.51
484.46	8884.67
484.64	9132.77
484.82	8912.76
485.00	8858.93
485.18	9261.50
485.35	9385.55
485.53	9362.14
485.71	9523.64
485.89	9554.07
486.07	9570.45
486.25	9479.17
486.43	9404.27
486.61	9769.40
486.78	9724.93
486.96	9823.23
487.14	10097.07
487.32	9811.53
487.50	10139.20
487.68	10076.01
487.85	10253.89
488.03	10286.65
488.21	10466.88
488.39	10370.91
488.57	10721.99
488.75	10363.89
488.92	10808.59
489.10	10796.89
489.28	10925.62
489.46	10988.82
489.64	11014.56
489.81	11129.25
489.99	11398.41
490.17	11274.36
490.35	11459.26
490.53	11328.19
490.70	11545.86
490.88	11281.38
491.06	11672.25
491.24	11756.51
491.41	11847.79
491.59	11927.37
491.77	11723.74
491.95	12004.61
492.13	11988.22
492.30	12325.26
492.48	12262.07
492.66	12217.60
492.84	12580.38
493.01	12475.06
493.19	12416.54
493.37	12589.74
493.54	12638.89
493.72	12725.49
493.90	12662.30
494.08	13053.17
494.25	12755.92
494.43	13146.79
494.61	13191.26
494.79	13291.90
494.96	13146.79
495.14	13284.88
495.32	13345.73
495.49	13235.73
495.67	13408.93
495.85	13547.02
496.02	13535.32
496.20	13762.35
496.38	14059.60
496.55	13886.40
496.73	14033.85
496.91	13919.17
497.09	14265.57
497.26	14324.08
497.44	14455.15
497.62	14324.08
497.79	14413.02
497.97	14377.91
498.14	14513.66
498.32	14675.16
498.50	14611.96
498.67	14843.68
498.85	14637.71
499.03	14834.32
499.20	15033.26
499.38	15051.99
499.56	14831.97
499.73	15033.26
499.91	15360.94
500.08	15286.04
500.26	15213.48
500.44	15295.40
500.61	15620.74
500.79	15405.41
500.97	15461.58
501.14	15630.10
501.32	15899.26
501.49	15800.96
501.67	15466.26
501.84	15807.98
502.02	16098.20
502.20	16175.44
502.37	16039.69
502.55	16058.42
502.72	16042.03
502.90	16173.10
503.07	16018.63
503.25	16248.00
503.43	16116.93
503.60	16582.70
503.78	16191.83
503.95	16500.78
504.13	16477.37
504.30	16561.63
504.48	16240.98
504.65	16830.79
504.83	16629.51
505.01	16912.71
505.18	16882.28
505.36	17116.34
505.53	16711.42
505.71	16727.81
505.88	16718.45
506.06	16783.98
506.23	17083.57
506.41	17179.53
506.58	17146.76
506.76	17139.74
506.93	17132.72
507.11	17160.81
507.28	17530.61
507.46	17343.37
507.63	17415.93
507.81	17797.43
507.98	17516.57
508.16	17958.93
508.33	17413.59
508.50	17689.77
508.68	17886.37
508.85	17891.06
509.03	18043.19
509.20	18111.07
509.38	18207.03
509.55	18368.52
509.73	18274.90
509.90	18054.89
510.08	18054.89
510.25	18153.20
510.42	18298.31
510.60	18314.69
510.77	18434.06
510.95	18520.66
511.12	18525.34
511.30	18462.15
511.47	18520.66
511.64	18817.91
511.82	19157.28
511.99	18881.10
512.17	18796.84
512.34	18771.10
512.51	18956.00
512.69	18885.78
512.86	19112.81
513.04	19243.88
513.21	19304.74
513.38	19346.87
513.56	19527.09
513.73	19077.71
513.90	19080.05
514.08	19445.17
514.25	19468.58
514.43	19676.88
514.60	19721.35
514.77	19709.65
514.95	19814.98
515.12	19616.03
515.29	19396.02
515.47	19924.98
515.64	19901.58
515.81	19941.36
515.99	20107.54
516.16	20102.86
516.33	20107.54
516.51	20140.31
516.68	20182.44
516.85	19882.85
517.03	20018.60
517.20	20400.11
517.37	20582.67
517.54	20400.11
517.72	20294.79
517.89	20273.72
518.06	20212.87
518.24	20161.37
518.41	20212.87
518.58	20547.56
518.75	20306.49
518.93	20699.70
519.10	20601.40
519.27	20812.04
519.45	20755.87
519.62	20823.75
519.79	20638.84
519.96	20470.33
520.14	21074.18
520.31	20922.05
520.48	21195.89
520.65	21163.12
520.83	21111.63
521.00	21558.67
521.17	21083.55
521.34	21238.02
521.52	21525.91
521.69	21488.46
521.86	21963.59
522.03	21584.42
522.20	21736.56
522.38	21654.64
522.55	21465.05
522.72	21617.19
522.89	21671.02
523.07	21954.22
523.24	21647.61
523.41	21998.70
523.58	21532.93
523.75	21813.79
523.92	22258.49
524.10	22132.11
524.27	22153.17
524.44	22045.51
524.61	22403.61
524.78	22293.60
524.96	22232.75
525.13	22370.84
525.30	22483.19
525.47	22366.16
525.64	22656.39
525.81	22630.64
525.98	22501.91
526.16	22965.34
526.33	22604.89
526.50	22614.26
526.67	22363.82
526.84	22869.37
527.01	22682.13
527.18	22998.10
527.36	22698.52
527.53	23049.60
527.70	23126.83
527.87	22993.42
528.04	22860.01
528.21	23204.07
528.38	23119.81
528.55	22883.42
528.72	22906.82
528.89	23316.42
529.07	23360.89
529.24	23241.52
529.41	23613.66
529.58	23403.02
529.75	23290.67
529.92	23267.27
530.09	23569.19
530.26	23623.03
530.43	23548.13
530.60	23428.76
530.77	23541.11
530.94	23782.18
531.11	23510.68
531.28	23440.47
531.46	23440.47
531.63	23887.51
531.80	23953.04
531.97	24051.34
532.14	24051.34
532.31	23534.09
532.48	24250.29
532.65	23906.23
532.82	24025.60
532.99	24233.91
533.16	23927.30
533.33	24489.03
533.50	23981.13
533.67	24491.37
533.84	24074.75
534.01	24142.63
534.18	24203.48
534.35	24599.03
534.52	24210.50
534.69	24348.59
534.86	24542.86
535.03	24657.54
535.20	24758.19
535.37	24482.00
535.54	24599.03
535.71	24517.11
535.88	24463.28
536.05	24524.13
536.22	24332.21
536.38	24704.35
536.55	24697.33
536.72	24945.43
536.89	24570.94
537.06	24683.29
537.23	24783.93
537.40	24762.87
537.57	24898.62
537.74	25069.48
537.91	25263.74
538.08	24954.79
538.25	25186.50
538.42	24905.64
538.59	25149.06
538.75	24912.66
538.92	25301.19
539.09	25177.14
539.26	25343.32
539.43	25127.99
539.60	25270.76
539.77	25490.77
539.94	25441.62
540.11	25312.89
540.28	25458.01
540.44	25149.06
540.61	25193.53
540.78	25692.06
540.95	25523.54
541.12	25266.08
541.29	25743.55
541.46	25233.32
541.62	25631.21
541.79	25462.69
541.96	25401.83
542.13	25628.87
542.30	25474.39
542.47	26139.10
542.63	26202.30
542.80	26153.15
542.97	26125.06
543.14	26120.38
543.31	26071.23
543.48	25769.30
543.64	26277.19
543.81	26263.15
543.98	26450.39
544.15	26422.31
544.32	26225.70
544.48	26590.83
544.65	26424.65
544.82	26316.98
544.99	26003.35
545.16	26024.42
545.32	26195.28
545.49	26785.09
545.66	26726.58
545.83	26609.55
546.00	26345.07
546.16	26576.78
546.33	26185.91
546.50	25914.41
546.67	26604.87
546.83	26569.76
547.00	26696.15
547.17	26761.69
547.34	26850.63
547.50	26544.02
547.67	27084.68
547.84	26871.69
548.00	26808.50
548.17	27358.52
548.34	26792.11
548.51	26998.08
548.67	27222.77
548.84	27157.24
549.01	26930.20
549.18	26993.40
549.34	27154.90
549.51	27143.19
549.68	27014.46
549.84	26813.18
550.01	27257.88
550.18	27168.94
550.34	26986.38
550.51	27002.76
550.68	27302.35
550.84	27246.18
551.01	27674.49
551.18	27122.13
551.34	27040.21
551.51	27218.09
551.68	27236.81
551.84	27384.27
552.01	27398.31
552.18	27688.54
552.34	27197.02
552.51	27592.58
552.68	27421.72
552.84	27428.74
553.01	27630.02
553.18	27431.08
553.34	28109.83
553.51	27211.07
553.67	27644.07
553.84	27950.68
554.01	28168.35
554.17	27997.49
554.34	27241.50
554.51	27995.15
554.67	27428.74
554.84	27917.91
555.00	27573.85
555.17	27786.84
555.33	27683.86
555.50	27768.12
555.67	27681.52
555.83	28292.40
556.00	27906.21
556.16	28151.96
556.33	28051.32
556.50	27878.12
556.66	28254.95
556.83	28011.53
556.99	28276.01
557.16	28233.88
557.32	28044.30
557.49	28233.88
557.65	27913.23
557.82	28161.33
557.98	27728.33
558.15	28210.48
558.32	28280.69
558.48	28266.65
558.65	28414.10
558.81	28074.73
558.98	28446.87
559.14	28266.65
559.31	28739.44
559.47	28776.89
559.64	28243.24
559.80	28388.36
559.97	28807.31
560.13	28367.29
560.30	28435.17
560.46	28737.10
560.63	28451.55
560.79	28538.15
560.96	28716.03
561.12	28446.87
561.29	28243.24
561.45	28280.69
561.61	28381.34
561.78	28748.80
561.94	28348.57
562.11	28828.38
562.27	28341.55
562.44	28435.17
562.60	28776.89
562.77	28830.72
562.93	28264.31
563.10	28802.63
563.26	28617.73
563.42	28985.19
563.59	28940.72
563.75	28924.34
563.92	28641.14
564.08	28804.97
564.24	28706.67
564.41	28870.51
564.57	28959.45
564.74	28877.53
564.90	28797.95
565.07	28762.84
565.23	29010.94
565.39	29233.29
565.56	29322.23
565.72	28739.44
565.88	28914.98
566.05	28758.16
566.21	28751.14
566.38	28900.94
566.54	29242.65
566.70	29205.20
566.87	29139.67
567.03	28912.64
567.19	29493.09
567.36	29460.32
567.52	29067.11
567.68	29792.68
567.85	28697.31
568.01	29294.14
568.17	29085.84
568.34	29177.12
568.50	29064.77
568.66	29244.99
568.83	29422.87
568.99	28891.57
569.15	29364.36
569.32	29139.67
569.48	28891.57
569.64	28973.49
569.81	29303.51
569.97	28968.81
570.13	29153.71
570.30	29118.60
570.46	29050.73
570.62	29308.19
570.78	29266.06
570.95	28865.83
571.11	29280.10
571.27	28978.17
571.43	28891.57
571.60	29788.00
571.76	29537.56
571.92	29055.41
572.09	29537.56
572.25	29474.37
572.41	29118.60
572.57	29060.09
572.74	29633.52
572.90	29364.36
573.06	29158.39
573.22	29214.57
573.38	29457.98
573.55	29165.42
573.71	29308.19
573.87	29385.43
574.03	29563.31
574.20	29069.45
574.36	29479.05
574.52	29413.51
574.68	29216.91
574.84	29191.16
575.01	29270.74
575.17	29193.50
575.33	29064.77
575.49	28931.36
575.65	29860.55
575.82	29577.35
575.98	29488.41
576.14	29851.19
576.30	29600.76
576.46	29472.03
576.62	29008.60
576.79	29050.73
576.95	29490.75
577.11	29769.27
577.27	29750.55
577.43	29132.65
577.59	29149.03
577.75	29364.36
577.92	29397.13
578.08	29649.91
578.24	29362.02
578.40	29338.62
578.56	29235.63
578.72	29291.80
578.88	29677.99
579.04	29631.18
579.21	29448.62
579.37	29479.05
579.53	29558.63
579.69	29439.26
579.85	29230.95
580.01	29881.62
580.17	29446.28
580.33	29298.83
580.49	29373.72
580.65	29626.50
580.82	29500.11
580.98	29603.10
581.14	29301.17
581.30	29780.98
581.46	29619.48
581.62	29696.72
581.78	29469.69
581.94	29420.53
582.10	29287.12
582.26	29284.78
582.42	29305.85
582.58	30005.67
582.74	29872.26
582.90	29315.21
583.06	29766.93
583.22	29296.49
583.38	29778.64
583.54	29956.52
583.70	29305.85
583.86	29408.83
584.02	29612.46
584.18	29682.67
584.34	29895.66
584.50	29916.73
584.66	29804.38
584.82	29598.41
584.98	29610.12
585.14	29624.16
585.30	29331.59
585.46	29324.57
585.62	29570.33
585.78	29972.90
585.94	29198.18
586.10	29626.50
586.26	29446.28
586.42	29905.02
586.58	29649.91
586.74	29357.34
586.90	29488.41
587.06	29425.22
587.22	29467.34
587.38	29539.90
587.54	29935.45
587.70	30251.42
587.86	30008.01
588.02	30059.50
588.18	29764.59
588.34	29752.89
588.49	29670.97
588.65	29446.28
588.81	29628.84
588.97	29748.21
589.13	29741.19
589.29	29668.63
589.45	29715.44
589.61	29895.66
589.77	29773.95
589.93	30008.01
590.08	30136.74
590.24	30153.12
590.40	29816.08
590.56	30178.87
590.72	29759.91
590.88	29832.47
591.04	29626.50
591.20	30141.42
591.35	29905.02
591.51	30492.50
591.67	29876.94
591.83	30314.62
591.99	30054.82
592.15	30312.28
592.31	30000.99
592.46	29593.73
592.62	29696.72
592.78	29823.11
592.94	29993.97
593.10	30050.14
593.26	30202.27
593.41	30064.18
593.57	29813.74
593.73	29750.55
593.89	30153.12
594.05	30171.85
594.20	30092.27
594.36	29958.86
594.52	29912.05
594.68	30122.69
594.84	29766.93
594.99	30377.81
595.15	30134.40
595.31	30134.40
595.47	30527.61
595.62	30302.92
595.78	30206.95
595.94	30230.36
596.10	30305.26
596.25	29769.27
596.41	29764.59
596.57	29958.86
596.73	30506.54
596.88	29745.87
597.04	30457.39
597.20	30073.54
597.36	30099.29
597.51	30511.22
597.67	30321.64
597.83	30424.62
597.99	30389.52
598.14	30260.79
598.30	30148.44
598.46	30363.77
598.61	30490.16
598.77	29914.39
598.93	30284.19
599.09	30071.20
599.24	30417.60
599.40	30553.35
599.56	30160.14
599.71	30342.70
599.87	30478.46
600.03	30356.75
600.18	30295.89
600.34	30345.05
600.50	30347.39
600.65	30213.98
600.81	30644.63
600.97	30340.36
601.12	30429.30
601.28	30265.47
601.44	30522.93
601.59	30363.77
601.75	30164.82
601.91	30462.07
602.06	30256.11
602.22	29991.62
602.37	30068.86
602.53	30197.59
602.69	30209.29
602.84	30036.09
603.00	29933.11
603.16	30218.66
603.31	30724.21
603.47	30321.64
603.62	30368.45
603.78	30206.95
603.94	30139.08
604.09	30092.27
604.25	30323.98
604.40	30120.35
604.56	30232.70
604.71	30450.37
604.87	29961.20
605.03	30527.61
605.18	30108.65
605.34	29888.64
605.49	29872.26
605.65	30174.19
605.80	30237.38
605.96	30237.38
606.12	29813.74
606.27	29930.77
606.43	30195.25
606.58	30576.76
606.74	30284.19
606.89	30368.45
607.05	30181.21
607.20	30656.34
607.36	30354.41
607.51	30143.76
607.67	29914.39
607.82	29771.61
607.98	30036.09
608.13	30125.04
608.29	29682.67
608.44	30064.18
608.60	29743.53
608.75	30000.99
608.91	29928.43
609.06	30164.82
609.22	30064.18
609.37	29813.74
609.53	29771.61
609.68	29921.41
609.84	29900.34
609.99	30036.09
610.15	30008.01
610.30	30125.04
610.46	29916.73
610.61	30438.67
610.76	30008.01
610.92	30216.32
611.07	29893.32
611.23	29956.52
611.38	29773.95
611.54	29596.07
611.69	29685.01
611.84	29773.95
612.00	30237.38
612.15	29233.29
612.31	30167.16
612.46	30195.25
612.62	30089.93
612.77	29741.19
612.92	29979.92
613.08	29628.84
613.23	30040.78
613.39	29813.74
613.54	29364.36
613.69	29392.45
613.85	29731.83
614.00	29453.30
614.15	29752.89
614.31	29479.05
614.46	29710.76
614.62	29586.71
614.77	29708.42
614.92	29474.37
615.08	29156.05
615.23	29500.11
615.38	29495.43
615.54	29408.83
615.69	28975.83
615.84	29514.16
616.00	29221.59
616.15	29373.72
616.30	29610.12
616.46	29420.53
616.61	29556.28
616.76	29727.14
616.92	29493.09
617.07	29841.83
617.22	29219.25
617.37	29277.76
617.53	29504.79
617.68	29317.55
617.83	29024.98
617.99	29406.49
618.14	29240.31
618.29	29200.52
618.45	29139.67
618.60	29460.32
618.75	29102.22
618.90	29186.48
619.06	29397.13
619.21	29287.12
619.36	28711.35
619.51	28936.04
619.67	28877.53
619.82	28797.95
619.97	28886.89
620.12	29050.73
620.28	28519.43
620.43	29181.80
620.58	29142.01
620.73	29060.09
620.89	29193.50
621.04	29268.40
621.19	29081.16
621.34	28790.93
621.49	28629.43
621.65	28795.61
621.80	29221.59
621.95	28931.36
622.10	29046.05
622.25	28648.16
622.41	29046.05
622.56	28952.43
622.71	29006.26
622.86	28744.12
623.01	29116.26
623.16	28924.34
623.32	28446.87
623.47	28711.35
623.62	28814.34
623.77	28826.04
623.92	28606.03
624.07	28549.85
624.23	28748.80
624.38	28931.36
624.53	28816.68
624.68	28833.06
624.83	28800.29
624.98	28758.16
625.13	28582.62
625.29	28446.87
625.44	28100.47
625.59	28528.79
625.74	28622.41
625.89	28510.07
626.04	28603.69
626.19	27920.25
626.34	28030.26
626.49	28320.48
626.65	27969.40
626.80	28622.41
626.95	28414.10
627.10	28177.71
627.25	28388.36
627.40	28418.78
627.55	27735.35
627.70	28154.30
627.85	27908.55
628.00	28053.66
628.15	28400.06
628.30	28009.19
628.45	27924.93
628.60	28072.39
628.76	27950.68
628.91	28215.16
629.06	28098.13
629.21	28481.98
629.36	27669.81
629.51	28004.51
629.66	28187.07
629.81	27997.49
629.96	27957.70
630.11	27946.00
630.26	27744.71
630.41	27915.57
630.56	27658.11
630.71	28166.01
630.86	27693.22
631.01	27697.90
631.16	27861.74
631.31	27527.04
631.46	27763.43
631.61	27938.97
631.76	27810.25
631.91	27627.68
632.06	27491.93
632.21	27651.09
632.36	27704.92
632.51	27257.88
632.66	27505.98
632.81	27597.26
632.96	27859.40
633.10	27737.69
633.25	27812.59
633.40	27742.37
633.55	27915.57
633.70	27414.69
633.85	27323.41
634.00	27360.86
634.15	27522.36
634.30	27229.79
634.45	27077.66
634.60	27318.73
634.75	27407.67
634.90	27178.30
635.05	27817.27
635.19	27658.11
635.34	27445.12
635.49	27398.31
635.64	27529.38
635.79	27173.62
635.94	27353.84
636.09	27351.50
636.24	27250.86
636.39	27520.02
636.53	27225.11
636.68	27068.30
636.83	27213.41
636.98	27288.31
637.13	27255.54
637.28	27098.72
637.43	27262.56
637.57	27108.08
637.72	26803.82
637.87	27070.64
638.02	27009.78
638.17	27131.49
638.32	27115.11
638.46	26953.61
638.61	26927.86
638.76	26789.77
638.91	26733.60
639.06	27126.81
639.20	27129.15
639.35	26845.94
639.50	26986.38
639.65	27026.17
639.80	26785.09
639.94	26618.91
640.09	26941.91
640.24	26986.38
640.39	26513.59
640.54	26555.72
640.68	26649.34
640.83	26815.52
640.98	26387.20
641.13	26555.72
641.27	26487.84
641.42	26202.30
641.57	26455.08
641.72	26768.71
641.86	26553.38
642.01	26424.65
642.16	26382.52
642.31	26405.92
642.45	26527.63
642.60	26445.71
642.75	26347.41
642.90	26576.78
643.04	26185.91
643.19	26340.39
643.34	26361.45
643.48	26462.10
643.63	26305.28
643.78	26738.28
643.93	26719.56
644.07	26567.42
644.22	26314.64
644.37	26211.66
644.51	26099.31
644.66	26562.74
644.81	26057.18
644.95	26029.10
645.10	25991.65
645.25	26066.55
645.39	25759.94
645.54	25797.38
645.69	26005.69
645.83	26251.45
645.98	26190.59
646.13	26221.02
646.27	26064.21
646.42	26300.60
646.57	26242.09
646.71	26265.49
646.86	25806.75
647.00	25921.43
647.15	26155.49
647.30	26066.55
647.44	25619.50
647.59	25593.76
647.74	26122.72
647.88	26150.81
648.03	25986.97
648.17	25883.98
648.32	25942.50
648.47	26223.36
648.61	25631.21
648.76	26073.57
648.90	25940.16
649.05	25734.19
649.20	25532.90
649.34	25820.79
649.49	25605.46
649.63	25537.59
649.78	25757.60
649.92	25689.72
650.07	25893.35
650.21	25724.83
650.36	25563.33
650.51	25745.89
650.65	26019.74
650.80	25799.73
650.94	25811.43
651.09	25558.65
651.23	25280.13
651.38	25441.62
651.52	25518.86
651.67	25350.34
651.81	25699.08
651.96	25511.84
652.10	25687.38
652.25	25607.80
652.39	25549.29
652.54	25570.35
652.68	25549.29
652.83	25343.32
652.97	25619.50
653.12	25315.23
653.26	25177.14
653.41	25827.81
653.55	25120.97
653.70	25273.10
653.84	25418.22
653.99	25165.44
654.13	25287.15
654.27	25106.93
654.42	25111.61
654.56	25355.02
654.71	25298.85
654.85	25209.91
655.00	25418.22
655.14	25238.00
655.29	24685.63
655.43	25202.89
655.57	24922.02
655.72	24919.68
655.86	24802.66
656.01	24886.92
656.15	24809.68
656.30	24987.56
656.44	24737.12
656.58	25139.69
656.73	24730.10
656.87	24592.01
657.01	24861.17
657.16	25039.05
657.30	24994.58
657.45	25055.43
657.59	24989.90
657.73	24917.34
657.88	24905.64
658.02	24479.66
658.16	24931.39
658.31	24425.83
658.45	24617.75
658.60	24313.48
658.74	24744.14
658.88	24725.42
659.03	24500.73
659.17	24519.45
659.31	24582.65
659.46	24535.84
659.60	24673.93
659.74	24549.88
659.89	24140.29
660.03	24336.89
660.17	24467.96
660.32	23967.09
660.46	24364.98
660.60	24194.12
660.74	24088.79
660.89	24151.99
661.03	23857.08
661.17	23967.09
661.32	24505.41
661.46	24144.97
661.60	24547.54
661.74	24627.12
661.89	24163.69
662.03	23868.78
662.17	24376.68
662.31	23995.17
662.46	24348.59
662.60	24280.72
662.74	23887.51
662.88	23613.66
663.03	23838.36
663.17	23756.44
663.31	23838.36
663.45	23557.49
663.60	23597.28
663.74	23791.55
663.88	23318.76
664.02	23627.71
664.17	23728.35
664.31	23536.43
664.45	23747.08
664.59	23789.20
664.73	23484.94
664.88	23491.96
665.02	23058.96
665.16	23178.33
665.30	23232.16
665.44	22913.84
665.59	23339.82
665.73	22991.08
665.87	22944.27
666.01	23248.54
666.15	23323.44
666.29	23302.37
666.44	22888.10
666.58	22878.74
666.72	22555.74
666.86	23229.82
667.00	23363.23
667.14	23063.64
667.28	22625.96
667.43	22661.07
667.57	22920.87
667.71	22693.83
667.85	22654.05
667.99	22595.53
668.13	22745.33
668.27	22595.53
668.41	22548.72
668.56	22576.81
668.70	22459.78
668.84	22553.40
668.98	22623.62
669.12	22888.10
669.26	22478.50
669.40	22251.47
669.54	22464.46
669.68	22082.95
669.82	22387.22
669.96	22164.87
670.10	22043.17
670.25	22183.60
670.39	22197.64
670.53	22162.53
670.67	22157.85
670.81	22047.85
670.95	22066.57
671.09	21823.16
671.23	21916.78
671.37	22099.34
671.51	21956.57
671.65	21610.17
671.79	21862.94
671.93	21844.22
672.07	21839.54
672.21	21420.58
672.35	21706.13
672.49	21441.65
672.63	21656.98
672.77	21252.06
672.91	21268.45
673.05	21507.18
673.19	21137.38
673.33	21610.17
673.47	21525.91
673.61	21029.71
673.75	21102.27
673.89	20973.54
674.03	21273.13
674.17	21151.42
674.31	21266.11
674.45	21104.61
674.59	20933.75
674.73	20947.79
674.87	20788.64
675.01	20762.89
675.15	20615.44
675.29	20587.35
675.43	20606.08
675.56	20582.67
675.70	20627.14
675.84	20456.28
675.98	20091.16
676.12	20725.44
676.26	20463.30
676.40	20479.69
676.54	20374.36
676.68	20479.69
676.82	19751.78
676.96	19955.41
677.10	20292.44
677.23	19978.81
677.37	19812.63
677.51	19807.95
677.65	19882.85
677.79	19782.21
677.93	19611.35
678.07	19470.92
678.21	19353.89
678.34	19604.33
678.48	19522.41
678.62	19484.96
678.76	19295.38
678.90	19431.13
679.04	19594.96
679.18	19126.86
679.31	19168.99
679.45	19007.49
679.59	19405.38
679.73	19157.28
679.87	18623.64
680.00	18682.16
680.14	18789.82
680.28	18981.74
680.42	18679.82
680.56	18977.06
680.70	18808.54
680.83	18478.53
680.97	18799.18
681.11	18745.35
681.25	18174.26
681.39	18611.94
681.52	18298.31
681.66	18429.38
681.80	18122.77
681.94	18005.74
682.07	18279.58
682.21	17972.97
682.35	17706.15
682.49	17886.37
682.62	17556.36
682.76	17886.37
682.90	17970.63
683.04	17912.12
683.17	17886.37
683.31	17593.81
683.45	17706.15
683.59	17605.51
683.72	17577.42
683.86	17596.15
684.00	17448.69
684.13	17273.15
684.27	17488.48
684.41	16861.22
684.55	17408.90
684.68	17245.07
684.82	17106.98
684.96	17041.44
685.09	16908.03
685.23	17118.68
685.37	16922.07
685.50	17172.51
685.64	16924.41
685.78	16964.20
685.91	17018.04
686.05	16917.39
686.19	16610.78
686.32	16809.73
686.46	16519.50
686.60	16353.32
686.73	16299.49
686.87	16404.81
687.01	16170.76
687.14	15793.94
687.28	16201.19
687.42	16030.33
687.55	16077.14
687.69	15873.51
687.82	16023.31
687.96	16027.99
688.10	15800.96
688.23	16168.42
688.37	15913.30
688.50	15503.71
688.64	15693.29
688.78	15594.99
688.91	15627.76
689.05	15541.16
689.18	15424.13
689.32	15288.38
689.46	15506.05
689.59	14920.92
689.73	15206.46
689.86	15260.29
690.00	14918.57
690.13	15234.55
690.27	15019.22
690.41	15030.92
690.54	14960.70
690.68	15051.99
690.81	14986.45
690.95	14867.08
691.08	14829.63
691.22	14848.36
691.35	14670.48
691.49	14733.67
691.62	14637.71
691.76	14382.59
691.89	14326.42
692.03	14129.81
692.16	14331.10
692.30	14157.90
692.43	14061.94
692.57	14094.71
692.70	13951.93
692.84	14073.64
692.97	14253.86
693.11	14164.92
693.24	13886.40
693.38	13947.25
693.51	13951.93
693.65	13701.50
693.78	13699.16
693.92	13841.93
694.05	13764.69
694.19	13359.78
694.32	13537.66
694.45	13329.35
694.59	13006.36
694.72	13378.50
694.86	12987.63
694.99	13062.53
695.13	13025.08
695.26	13025.08
695.39	13011.04
695.53	13067.21
695.66	12966.57
695.80	12978.27
695.93	13025.08
696.07	12695.07
696.20	12865.92
696.33	12608.47
696.47	12730.17
696.60	12542.93
696.73	12692.73
696.87	12720.81
697.00	12542.93
697.14	12421.22
697.27	12388.46
697.40	12304.20
697.54	12301.86
697.67	12032.69
697.80	12175.47
697.94	12102.91
698.07	11838.43
698.21	11747.15
698.34	11798.64
698.47	11796.30
698.61	12030.35
698.74	11719.06
698.87	11667.57
699.01	11812.68
699.14	11559.91
699.27	11667.57
699.40	11587.99
699.54	11557.57
699.67	11466.28
699.80	11550.54
699.94	11297.77
700.07	11199.46
700.20	11262.66
700.34	11187.76
700.47	11087.12
700.60	11339.90
700.73	11112.86
700.87	11030.94
701.00	11276.70
701.13	11091.80
701.26	10934.98
701.40	10932.64
701.53	10892.85
701.66	10970.09
701.79	10815.62
701.93	10768.80
702.06	10614.33
702.19	10443.47
702.32	10768.80
702.46	10649.44
702.59	10389.64
702.72	10317.08
702.85	10335.81
702.99	10228.14
703.12	10384.96
703.25	10214.10
703.38	10291.34
703.51	10160.27
703.65	10289.00
703.78	10059.62
703.91	10104.09
704.04	10193.03
704.17	10015.15
704.31	9954.30
704.44	9884.08
704.57	9804.50
704.70	9741.31
704.83	9764.72
704.96	9694.50
705.10	9680.46
705.23	9678.12
>>>>>End Processed Spectral Data<<<<<
