SpectraSuite Data File
++++++++++++++++++++++++++++++++++++
Date: Fri Oct 18 13:57:56 GMT-05:00 2013
User: bianchi
Dark Spectrum Present: No
Reference Spectrum Present: No
Number of Sampled Component Spectra: 1
Spectrometers: USB2+H05261
Integration Time (usec): 50000 (USB2+H05261)
Spectra Averaged: 1 (USB2+H05261)
Boxcar Smoothing: 0 (USB2+H05261)
Correct for Electrical Dark: No (USB2+H05261)
Strobe/Lamp Enabled: No (USB2+H05261)
Correct for Detector Non-linearity: No (USB2+H05261)
Correct for Stray Light: No (USB2+H05261)
Number of Pixels in Processed Spectrum: 2048
>>>>>Begin Processed Spectral Data<<<<<
365.73	0.00
365.92	0.00
366.12	0.00
366.32	0.00
366.52	0.00
366.72	0.00
366.91	0.00
367.11	0.00
367.31	0.00
367.51	0.00
367.70	0.00
367.90	0.00
368.10	0.00
368.30	0.00
368.49	0.00
368.69	0.00
368.89	0.00
369.09	0.00
369.28	0.00
369.48	0.00
369.68	0.00
369.87	0.00
370.07	0.00
370.27	0.00
370.47	11.70
370.66	107.66
370.86	126.39
371.06	135.75
371.25	128.73
371.45	149.79
371.65	156.82
371.84	194.26
372.04	191.92
372.24	271.50
372.44	135.75
372.63	238.73
372.83	161.50
373.03	238.73
373.22	149.79
373.42	236.39
373.62	201.29
373.81	175.54
374.01	161.50
374.21	224.69
374.40	229.37
374.60	173.20
374.79	241.08
374.99	222.35
375.19	180.22
375.38	208.31
375.58	236.39
375.78	327.68
375.97	301.93
376.17	276.18
376.37	156.82
376.56	280.86
376.76	280.86
376.95	210.65
377.15	276.18
377.35	248.10
377.54	236.39
377.74	236.39
377.93	280.86
378.13	299.59
378.33	292.57
378.52	191.92
378.72	362.78
378.91	355.76
379.11	287.89
379.31	292.57
379.50	276.18
379.70	287.89
379.89	344.06
380.09	322.99
380.28	252.78
380.48	374.49
380.68	306.61
380.87	276.18
381.07	297.25
381.26	381.51
381.46	304.27
381.65	360.44
381.85	315.97
382.04	311.29
382.24	435.34
382.43	313.63
382.63	372.15
382.83	365.12
383.02	376.83
383.22	332.36
383.41	327.68
383.61	344.06
383.80	454.06
384.00	369.80
384.19	292.57
384.39	400.23
384.58	362.78
384.78	418.96
384.97	353.42
385.17	435.34
385.36	397.89
385.56	472.79
385.75	395.55
385.95	372.15
386.14	367.46
386.34	477.47
386.53	407.25
386.72	444.70
386.92	365.12
387.11	421.30
387.31	468.11
387.50	484.49
387.70	475.13
387.89	416.62
388.09	386.19
388.28	409.59
388.48	458.74
388.67	440.02
388.86	423.64
389.06	498.53
389.25	440.02
389.45	533.64
389.64	482.15
389.84	538.32
390.03	468.11
390.22	461.09
390.42	533.64
390.61	505.56
390.81	559.39
391.00	456.40
391.19	592.16
391.39	545.34
391.58	500.87
391.78	531.30
391.97	545.34
392.16	545.34
392.36	489.17
392.55	641.31
392.75	482.15
392.94	559.39
393.13	601.52
393.33	550.03
393.52	538.32
393.71	566.41
393.91	512.58
394.10	519.60
394.29	552.37
394.49	596.84
394.68	507.90
394.88	543.00
395.07	634.29
395.26	622.58
395.46	671.73
395.65	723.23
395.84	704.50
396.04	674.07
396.23	589.82
396.42	645.99
396.62	631.94
396.81	645.99
397.00	650.67
397.19	774.72
397.39	713.86
397.58	702.16
397.77	748.97
397.97	660.03
398.16	678.76
398.35	692.80
398.55	622.58
398.74	674.07
398.93	772.38
399.12	753.65
399.32	734.93
399.51	779.40
399.70	784.08
399.90	779.40
400.09	774.72
400.28	772.38
400.47	816.85
400.67	861.32
400.86	748.97
401.05	765.36
401.24	737.27
401.44	763.01
401.63	763.01
401.82	819.19
402.01	858.98
402.21	725.57
402.40	877.70
402.59	800.46
402.78	821.53
402.97	844.93
403.17	877.70
403.36	837.91
403.55	870.68
403.74	812.17
403.93	898.77
404.13	898.77
404.32	933.87
404.51	847.27
404.70	919.83
404.89	985.37
405.09	940.90
405.28	1025.15
405.47	1020.47
405.66	999.41
405.85	1050.90
406.05	1036.86
406.24	1008.77
406.43	912.81
406.62	1137.50
406.81	1121.12
407.00	959.62
407.20	987.71
407.39	1090.69
407.58	1100.05
407.77	1088.35
407.96	1142.18
408.15	1114.10
408.34	1093.03
408.54	1181.97
408.73	1153.88
408.92	1116.44
409.11	1231.12
409.30	1151.54
409.49	1146.86
409.68	1139.84
409.87	1217.08
410.07	1291.98
410.26	1291.98
410.45	1212.40
410.64	1301.34
410.83	1212.40
411.02	1217.08
411.21	1256.87
411.40	1245.16
411.59	1317.72
411.78	1313.04
411.98	1303.68
412.17	1392.62
412.36	1366.87
412.55	1334.11
412.74	1387.94
412.93	1341.13
413.12	1376.24
413.31	1514.33
413.50	1320.06
413.69	1409.00
413.88	1465.18
414.07	1455.81
414.26	1540.07
414.45	1526.03
414.64	1462.83
414.83	1600.93
415.02	1451.13
415.22	1519.01
415.41	1647.74
415.60	1614.97
415.79	1619.65
415.98	1561.14
416.17	1605.61
416.36	1600.93
416.55	1659.44
416.74	1671.14
416.93	1610.29
417.12	1682.85
417.31	1645.40
417.50	1708.59
417.69	1816.26
417.88	1769.44
418.07	1797.53
418.26	1886.47
418.45	1856.04
418.64	1863.07
418.83	1825.62
419.02	1774.13
419.21	1809.23
419.39	1856.04
419.58	1799.87
419.77	1802.21
419.96	1872.43
420.15	1853.70
420.34	1907.54
420.53	1926.26
420.72	2054.99
420.91	1970.73
421.10	1956.69
421.29	1968.39
421.48	1956.69
421.67	2005.84
421.86	1923.92
422.05	1923.92
422.24	1975.41
422.43	1921.58
422.61	1966.05
422.80	2040.95
422.99	2036.27
423.18	2043.29
423.37	2066.69
423.56	2127.55
423.75	2094.78
423.94	1944.99
424.13	1937.96
424.32	2003.50
424.50	2064.35
424.69	2073.71
424.88	2012.86
425.07	2083.08
425.26	2001.16
425.45	2017.54
425.64	2054.99
425.83	2087.76
426.01	2167.34
426.20	1937.96
426.39	2104.14
426.58	2062.01
426.77	2043.29
426.96	2150.95
427.15	2172.02
427.33	2167.34
427.52	2160.31
427.71	2188.40
427.90	2291.38
428.09	2237.55
428.28	2235.21
428.46	2279.68
428.65	2282.02
428.84	2422.45
429.03	2385.01
429.22	2218.83
429.40	2188.40
429.59	2335.85
429.78	2202.44
429.97	2232.87
430.16	2267.98
430.34	2399.05
430.53	2413.09
430.72	2380.32
430.91	2225.85
431.10	2314.79
431.28	2438.84
431.47	2403.73
431.66	2420.11
431.85	2377.98
432.03	2429.48
432.22	2619.06
432.41	2368.62
432.60	2392.03
432.79	2523.10
432.97	2473.95
433.16	2424.80
433.35	2558.21
433.54	2619.06
433.72	2586.29
433.91	2457.56
434.10	2560.55
434.28	2619.06
434.47	2670.55
434.66	2670.55
434.85	2668.21
435.03	2609.70
435.22	2612.04
435.41	2607.36
435.59	2799.28
435.78	2698.64
435.97	2787.58
436.16	2757.15
436.34	2647.15
436.53	2782.90
436.72	2815.66
436.90	2689.28
437.09	2815.66
437.28	2651.83
437.46	2855.45
437.65	2789.92
437.84	2832.05
438.02	2764.17
438.21	2792.26
438.40	2757.15
438.58	2991.20
438.77	2906.95
438.96	2883.54
439.14	2876.52
439.33	3021.63
439.52	3110.57
439.70	2918.65
439.89	3075.46
440.08	3040.36
440.26	3150.36
440.45	3045.04
440.63	3110.57
440.82	3323.56
441.01	3150.36
441.19	3171.43
441.38	3288.45
441.57	3265.05
441.75	3218.24
441.94	3309.52
442.12	3342.28
442.31	3442.93
442.50	3283.77
442.68	3297.81
442.87	3304.84
443.05	3400.80
443.24	3332.92
443.43	3517.83
443.61	3480.38
443.80	3428.88
443.98	3410.16
444.17	3321.22
444.35	3529.53
444.54	3442.93
444.73	3494.42
444.91	3688.68
445.10	3552.93
445.28	3611.45
445.47	3428.88
445.65	3510.80
445.84	3555.27
446.02	3562.30
446.21	3531.87
446.39	3428.88
446.58	3662.94
446.77	3641.87
446.95	3459.31
447.14	3569.32
447.32	3471.01
447.51	3574.00
447.69	3611.45
447.88	3623.15
448.06	3667.62
448.25	3644.21
448.43	3543.57
448.62	3674.64
448.80	3555.27
448.99	3606.77
449.17	3775.28
449.36	3667.62
449.54	3794.01
449.73	3742.52
449.91	3843.16
450.10	3829.12
450.28	3772.94
450.46	3782.31
450.65	3716.77
450.83	3873.59
451.02	3782.31
451.20	3847.84
451.39	3969.55
451.57	3822.09
451.76	3805.71
451.94	3873.59
452.13	4046.79
452.31	3974.23
452.49	3927.42
452.68	4084.23
452.86	3838.48
453.05	3941.46
453.23	4100.62
453.42	3915.72
453.60	3943.80
453.78	4091.26
453.97	4058.49
454.15	4117.00
454.34	3932.10
454.52	3913.38
454.70	4016.36
454.89	4114.66
455.07	4236.37
455.26	4086.58
455.44	4182.54
455.62	4262.12
455.81	4042.11
455.99	4297.22
456.17	4166.15
456.36	4414.25
456.54	4365.10
456.73	4376.80
456.91	4447.02
457.09	4404.89
457.28	4425.95
457.46	4461.06
457.64	4414.25
457.83	4503.19
458.01	4355.74
458.19	4430.63
458.38	4512.55
458.56	4650.64
458.74	4486.81
458.93	4500.85
459.11	4638.94
459.29	4540.64
459.48	4606.17
459.66	4447.02
459.84	4610.86
460.03	4760.65
460.21	4615.54
460.39	4732.56
460.57	4664.69
460.76	4835.55
460.94	4732.56
461.12	4835.55
461.31	4781.71
461.49	4713.84
461.67	4755.97
461.85	4894.06
462.04	4891.72
462.22	5116.41
462.40	4938.53
462.59	4959.60
462.77	4830.87
462.95	5001.72
463.13	4889.38
463.32	5032.15
463.50	5018.11
463.68	4997.04
463.86	5008.75
464.05	4887.04
464.23	5039.17
464.41	4940.87
464.59	4842.57
464.78	5004.07
464.96	5011.09
465.14	5114.07
465.32	5074.28
465.50	5088.32
465.69	5107.05
465.87	5060.24
466.05	5057.90
466.23	5107.05
466.41	5195.99
466.60	5350.46
466.78	5221.74
466.96	5160.88
467.14	5280.25
467.32	5137.48
467.51	5310.68
467.69	5224.08
467.87	5132.79
468.05	5263.86
468.23	5277.91
468.41	5217.05
468.60	5163.22
468.78	5341.10
468.96	5282.59
469.14	5310.68
469.32	5430.04
469.50	5186.63
469.69	5444.09
469.87	5493.24
470.05	5537.71
470.23	5430.04
470.41	5481.53
470.59	5579.84
470.77	5589.20
470.95	5467.49
471.14	5518.98
471.32	5502.60
471.50	5657.07
471.68	5671.12
471.86	5788.14
472.04	5678.14
472.22	5902.83
472.40	5715.59
472.58	5926.24
472.77	5764.74
472.95	6069.01
473.13	6207.10
473.31	6017.52
473.49	5834.96
473.67	5944.96
473.85	6069.01
474.03	6043.26
474.21	6183.70
474.39	6139.23
474.57	6251.57
474.75	6396.68
474.93	6551.16
475.12	6267.95
475.30	6438.81
475.48	6326.47
475.66	6485.62
475.84	6450.52
476.02	6445.84
476.20	6757.13
476.38	6637.76
476.56	6647.12
476.74	6593.29
476.92	6464.56
477.10	6759.47
477.28	6682.23
477.46	6778.19
477.64	7023.95
477.82	6864.79
478.00	7087.14
478.18	7059.06
478.36	7115.23
478.54	7096.50
478.72	7122.25
478.90	7229.91
479.08	7414.82
479.26	7473.33
479.44	7648.87
479.62	7470.99
479.80	7456.95
479.98	7456.95
480.16	7658.23
480.34	7644.19
480.52	7873.56
480.70	7793.98
480.88	7939.10
481.06	7836.11
481.24	7899.31
481.41	7901.65
481.59	8133.36
481.77	8322.94
481.95	8224.64
482.13	8325.29
482.31	8189.53
482.49	8549.98
482.67	8486.78
482.85	8578.06
483.03	8606.15
483.21	8819.14
483.39	8926.80
483.57	8772.33
483.74	8912.76
483.92	9083.62
484.10	8868.29
484.28	9011.06
484.46	9240.44
484.64	9238.09
484.82	9195.96
485.00	9247.46
485.18	9327.03
485.35	9753.01
485.53	9650.03
485.71	9659.39
485.89	9884.08
486.07	9738.97
486.25	9839.61
486.43	9870.04
486.61	9834.93
486.78	10057.28
486.96	10375.59
487.14	10111.11
487.32	10115.80
487.50	10289.00
487.68	10497.30
487.85	10569.86
488.03	10885.83
488.21	10883.49
488.39	10920.94
488.57	10953.71
488.75	10878.81
488.92	10956.05
489.10	11164.36
489.28	11225.21
489.46	11424.15
489.64	11454.58
489.81	11545.86
489.99	11431.18
490.17	11510.75
490.35	11910.99
490.53	11625.44
490.70	11978.86
490.88	11889.92
491.06	12058.44
491.24	11974.18
491.41	12252.70
491.59	12470.37
491.77	12348.67
491.95	12346.33
492.13	12479.74
492.30	12568.68
492.48	12634.21
492.66	12573.36
492.84	12613.15
493.01	12828.48
493.19	13076.57
493.37	12894.01
493.54	13034.44
493.72	13174.88
493.90	13090.62
494.08	13277.86
494.25	13603.19
494.43	13745.97
494.61	13558.72
494.79	13427.65
494.96	13689.79
495.14	13720.22
495.32	13865.33
495.49	13666.39
495.67	13767.03
495.85	14132.15
496.02	14223.44
496.20	14164.92
496.38	14195.35
496.55	14370.89
496.73	14733.67
496.91	14443.45
497.09	14803.89
497.26	14824.95
497.44	14579.20
497.62	14878.79
497.79	14963.04
497.97	14806.23
498.14	15161.99
498.32	15281.36
498.50	15323.49
498.67	15461.58
498.85	15398.38
499.03	15389.02
499.20	15541.16
499.38	15578.61
499.56	15517.75
499.73	15494.35
499.91	15906.28
500.08	16011.60
500.26	15587.97
500.44	15721.38
500.61	15894.58
500.79	15683.93
500.97	16088.84
501.14	16418.86
501.32	16624.83
501.49	16133.31
501.67	16079.48
501.84	16395.45
502.02	16102.89
502.20	16332.26
502.37	16542.91
502.55	16561.63
502.72	16505.46
502.90	16643.55
503.07	16336.94
503.25	16622.48
503.43	16692.70
503.60	16720.79
503.78	17099.95
503.95	17020.38
504.13	17011.01
504.30	17020.38
504.48	16943.14
504.65	17472.10
504.83	17476.78
505.01	17486.14
505.18	17167.83
505.36	17769.35
505.53	17462.74
505.71	17460.40
505.88	17888.71
506.06	17509.55
506.23	17790.41
506.41	17820.84
506.58	17642.96
506.76	17886.37
506.93	18064.25
507.11	17851.27
507.28	18033.83
507.46	17844.24
507.63	18302.99
507.81	18288.95
507.98	18052.55
508.16	18410.65
508.33	17972.97
508.50	18263.20
508.68	18429.38
508.85	18520.66
509.03	18656.41
509.20	18394.27
509.38	18665.77
509.55	18572.15
509.73	19241.54
509.90	18841.31
510.08	18911.53
510.25	18920.89
510.42	18923.23
510.60	19339.85
510.77	19248.57
510.95	19124.52
511.12	19145.58
511.30	18981.74
511.47	19234.52
511.64	19236.86
511.82	19573.90
511.99	19538.79
512.17	19749.44
512.34	19269.63
512.51	19536.45
512.69	19702.63
512.86	19494.32
513.04	20002.22
513.21	20161.37
513.38	19992.86
513.56	20098.18
513.73	19967.11
513.90	20056.05
514.08	20095.84
514.25	19730.72
514.43	20081.80
514.60	20208.19
514.77	20631.82
514.95	20332.23
515.12	20437.56
515.29	20458.62
515.47	20709.06
515.64	20425.86
515.81	20774.60
515.99	20592.03
516.16	20889.28
516.33	20968.86
516.51	20814.38
516.68	20856.51
516.85	20748.85
517.03	20739.49
517.20	21160.78
517.37	20868.22
517.54	20781.62
517.72	21137.38
517.89	21174.83
518.06	21275.47
518.24	21263.77
518.41	21223.98
518.58	21310.58
518.75	21268.45
518.93	21565.70
519.10	21345.69
519.27	21619.53
519.45	21371.43
519.62	21626.55
519.79	21633.57
519.96	21706.13
520.14	21867.63
520.31	21640.59
520.48	21963.59
520.65	22143.81
520.83	22019.76
521.00	21802.09
521.17	21989.33
521.34	21965.93
521.52	21921.46
521.69	21834.86
521.86	21937.84
522.03	22295.94
522.20	22506.59
522.38	22228.07
522.55	22380.20
522.72	22448.08
522.89	22403.61
523.07	22574.47
523.24	22665.75
523.41	22721.92
523.58	22621.28
523.75	22960.66
523.92	22483.19
524.10	22927.89
524.27	22796.82
524.44	23070.66
524.61	22792.14
524.78	23033.21
524.96	22958.31
525.13	23117.47
525.30	23012.15
525.47	23051.94
525.64	23356.21
525.81	23367.91
525.98	23522.38
526.16	23562.17
526.33	23023.85
526.50	23454.51
526.67	23257.90
526.84	23477.91
527.01	23548.13
527.18	23709.63
527.36	23632.39
527.53	23728.35
527.70	23974.11
527.87	23751.76
528.04	23941.34
528.21	23655.79
528.38	23466.21
528.55	23946.02
528.72	23522.38
528.89	24063.05
529.07	23960.06
529.24	23992.83
529.41	24313.48
529.58	23962.40
529.75	23915.59
529.92	24077.09
530.09	24280.72
530.26	24273.70
530.43	24599.03
530.60	24133.26
530.77	24133.26
530.94	24556.90
531.11	24308.80
531.28	24362.64
531.46	24327.53
531.63	24341.57
531.80	24772.23
531.97	24720.74
532.14	24924.36
532.31	24849.47
532.48	24847.13
532.65	24847.13
532.82	24451.58
532.99	24999.26
533.16	24699.67
533.33	24699.67
533.50	24912.66
533.67	25149.06
533.84	25106.93
534.01	24917.34
534.18	24582.65
534.35	25376.09
534.52	25050.75
534.69	25282.47
534.86	25458.01
535.03	25118.63
535.20	25135.01
535.37	25823.13
535.54	25294.17
535.71	25530.56
535.88	25537.59
536.05	25612.48
536.22	25891.01
536.38	25898.03
536.55	25621.84
536.72	25628.87
536.89	25570.35
537.06	25703.76
537.23	25813.77
537.40	25549.29
537.57	25642.91
537.74	25989.31
537.91	26089.95
538.08	26113.36
538.25	25720.15
538.42	26171.87
538.59	26057.18
538.75	25687.38
538.92	25542.27
539.09	25729.51
539.26	25942.50
539.43	25869.94
539.60	26185.91
539.77	25898.03
539.94	26506.57
540.11	26300.60
540.28	26373.16
540.44	26183.57
540.61	26321.66
540.78	26354.43
540.95	26630.62
541.12	26525.29
541.29	26642.32
541.46	26508.91
541.62	26546.36
541.79	26614.23
541.96	26412.95
542.13	26600.19
542.30	26356.77
542.47	26527.63
542.63	26675.09
542.80	26766.37
542.97	27192.34
543.14	27168.94
543.31	27084.68
543.48	26874.03
543.64	27014.46
543.81	27105.74
543.98	27225.11
544.15	27159.58
544.32	27388.95
544.48	27367.88
544.65	27285.97
544.82	27243.84
544.99	26686.79
545.16	27239.15
545.32	27433.42
545.49	27784.50
545.66	27569.17
545.83	27828.97
546.00	27435.76
546.16	27520.02
546.33	27559.81
546.50	27445.12
546.67	27468.53
546.83	27337.46
547.00	27264.90
547.17	27590.24
547.34	27859.40
547.50	27859.40
547.67	28252.61
547.84	27538.74
548.00	27798.54
548.17	28105.15
548.34	27946.00
548.51	27915.57
548.67	27730.67
548.84	28266.65
549.01	27894.50
549.18	27964.72
549.34	27754.07
549.51	28123.88
549.68	28224.52
549.84	28156.64
550.01	27950.68
550.18	27763.43
550.34	28379.00
550.51	28128.56
550.68	28140.26
550.84	28027.92
551.01	28465.60
551.18	28587.30
551.34	27962.38
551.51	28348.57
551.68	28357.93
551.84	28388.36
552.01	28477.30
552.18	28357.93
552.34	28439.85
552.51	28615.39
552.68	28203.46
552.84	28542.83
553.01	28596.67
553.18	28180.05
553.34	28814.34
553.51	28610.71
553.67	29142.01
553.84	28779.23
554.01	28823.70
554.17	28582.62
554.34	29029.66
554.51	28603.69
554.67	29034.35
554.84	28622.41
555.00	28823.70
555.17	28788.59
555.33	28917.32
555.50	28952.43
555.67	29233.29
555.83	29230.95
556.00	29088.18
556.16	29233.29
556.33	28898.59
556.50	29104.56
556.66	29177.12
556.83	29095.20
556.99	29369.04
557.16	29099.88
557.32	29380.74
557.49	29146.69
557.65	29198.18
557.82	28964.13
557.98	28856.46
558.15	29312.87
558.32	29425.22
558.48	29378.40
558.65	29453.30
558.81	29312.87
558.98	29472.03
559.14	29130.31
559.31	29355.00
559.47	29125.63
559.64	29486.07
559.80	29411.17
559.97	29603.10
560.13	29652.25
560.30	29720.12
560.46	29326.91
560.63	29710.76
560.79	29525.86
560.96	29593.73
561.12	29446.28
561.29	29331.59
561.45	29542.24
561.61	29661.61
561.78	29575.01
561.94	29769.27
562.11	29752.89
562.27	29565.65
562.44	29727.14
562.60	29898.00
562.77	29972.90
562.93	29687.36
563.10	29968.22
563.26	29619.48
563.42	30192.91
563.59	29820.77
563.75	29762.25
563.92	29926.09
564.08	29624.16
564.24	29809.06
564.41	30059.50
564.57	29577.35
564.74	29954.18
564.90	30033.75
565.07	29839.49
565.23	30141.42
565.39	30213.98
565.56	30244.40
565.72	29631.18
565.88	30082.91
566.05	29860.55
566.21	30064.18
566.38	29872.26
566.54	30029.07
566.70	30396.54
566.87	30232.70
567.03	29975.24
567.19	30719.53
567.36	30356.75
567.52	30218.66
567.68	30228.02
567.85	30242.06
568.01	30340.36
568.17	30288.87
568.34	30328.66
568.50	30309.94
568.66	30394.20
568.83	30677.40
568.99	30424.62
569.15	30244.40
569.32	30263.13
569.48	29841.83
569.64	30185.89
569.81	30150.78
569.97	30728.89
570.13	30569.74
570.30	30122.69
570.46	30586.12
570.62	30532.29
570.78	30352.07
570.95	30103.97
571.11	29738.85
571.27	30429.30
571.43	30574.42
571.60	30298.23
571.76	30515.90
571.92	30181.21
572.09	30244.40
572.25	30438.67
572.41	30431.65
572.57	30558.03
572.74	30562.72
572.90	30803.79
573.06	30150.78
573.22	30190.57
573.38	30068.86
573.55	30052.48
573.71	30911.46
573.87	30710.17
574.03	30321.64
574.20	30656.34
574.36	30340.36
574.52	30132.06
574.68	30623.57
574.84	30494.84
575.01	30848.26
575.17	30520.59
575.33	30588.46
575.49	30335.68
575.65	30597.82
575.82	30707.83
575.98	30794.43
576.14	30536.97
576.30	30693.79
576.46	30635.27
576.62	30684.42
576.79	30672.72
576.95	30644.63
577.11	30841.24
577.27	30698.47
577.43	31016.78
577.59	30553.35
577.75	30670.38
577.92	30345.05
578.08	30309.94
578.24	30967.63
578.40	30635.27
578.56	31152.53
578.72	30675.06
578.88	30899.75
579.04	31070.61
579.21	30668.04
579.37	30916.14
579.53	30991.03
579.69	30195.25
579.85	30686.76
580.01	30623.57
580.17	30277.17
580.33	30607.19
580.49	30583.78
580.65	31150.19
580.82	30703.15
580.98	30796.77
581.14	30906.77
581.30	30899.75
581.46	30974.65
581.62	30632.93
581.78	30913.80
581.94	30913.80
582.10	30426.96
582.26	30714.85
582.42	30429.30
582.58	30902.09
582.74	30745.28
582.90	31379.56
583.06	30628.25
583.22	30632.93
583.38	30515.90
583.54	30782.73
583.70	30611.87
583.86	30848.26
584.02	30724.21
584.18	30836.56
584.34	30749.96
584.50	31091.68
584.66	30958.27
584.82	30331.00
584.98	30876.35
585.14	30848.26
585.30	30546.33
585.46	30565.06
585.62	30876.35
585.78	30625.91
585.94	30672.72
586.10	30934.86
586.26	30909.11
586.42	31115.08
586.58	30792.09
586.74	30913.80
586.90	30817.83
587.06	31054.23
587.22	30712.51
587.38	31243.81
587.54	30714.85
587.70	30888.05
587.86	31049.55
588.02	31075.29
588.18	30948.90
588.34	31484.89
588.49	30796.77
588.65	30925.50
588.81	30967.63
588.97	30625.91
589.13	30986.35
589.29	30953.58
589.45	30862.30
589.61	31325.73
589.77	31442.76
589.93	31290.62
590.08	31288.28
590.24	31138.49
590.40	31094.02
590.56	31171.25
590.72	31335.09
590.88	30799.11
591.04	31510.63
591.20	31274.24
591.35	31601.91
591.51	31761.07
591.67	31466.16
591.83	31419.35
591.99	31215.72
592.15	31372.54
592.31	31023.80
592.46	31105.72
592.62	31297.64
592.78	31040.18
592.94	31180.62
593.10	31084.65
593.26	31358.50
593.41	31512.97
593.57	31051.89
593.73	31241.47
593.89	31311.69
594.05	31267.22
594.20	31241.47
594.36	31412.33
594.52	31021.46
594.68	31386.58
594.84	31131.47
594.99	31309.35
595.15	31311.69
595.31	31695.53
595.47	31573.83
595.62	31548.08
595.78	30969.97
595.94	31468.50
596.10	31541.06
596.25	31154.87
596.41	31304.67
596.57	30764.00
596.73	31630.00
596.88	31353.82
597.04	31578.51
597.20	31505.95
597.36	31494.25
597.51	31978.74
597.67	31274.24
597.83	31248.49
597.99	31557.44
598.14	30958.27
598.30	31381.90
598.46	30958.27
598.61	31402.97
598.77	31175.94
598.93	31470.84
599.09	31901.50
599.24	31807.88
599.40	31782.13
599.56	31477.86
599.71	31800.86
599.87	31644.04
600.03	31009.76
600.18	31126.78
600.34	31241.47
600.50	31360.84
600.65	31599.57
600.81	31845.33
600.97	31803.20
601.12	31838.31
601.28	31531.70
601.44	31655.75
601.59	31847.67
601.75	31318.71
601.91	31889.80
602.06	31793.84
602.22	31693.19
602.37	31405.31
602.53	31524.68
602.69	31784.48
602.84	31742.35
603.00	31714.26
603.16	31606.59
603.31	31779.79
603.47	31548.08
603.62	31494.25
603.78	31180.62
603.94	31519.99
604.09	31377.22
604.25	31697.88
604.40	30988.69
604.56	31386.58
604.71	31578.51
604.87	31637.02
605.03	31187.64
605.18	31482.55
605.34	31351.48
605.49	31314.03
605.65	31290.62
605.80	31161.89
605.96	31281.26
606.12	31213.38
606.27	31208.70
606.43	31569.15
606.58	31845.33
606.74	31407.65
606.89	31442.76
607.05	31634.68
607.20	31639.36
607.36	31400.63
607.51	31328.07
607.67	31246.15
607.82	31201.68
607.98	31477.86
608.13	31426.37
608.29	31227.43
608.44	31398.29
608.60	31615.96
608.75	31622.98
608.91	31510.63
609.06	31197.00
609.22	31449.78
609.37	31115.08
609.53	31070.61
609.68	31236.79
609.84	31384.24
609.99	31225.09
610.15	31304.67
610.30	31295.30
610.46	30916.14
610.61	30991.03
610.76	31662.77
610.92	30967.63
611.07	31159.55
611.23	30962.95
611.38	30902.09
611.54	31206.36
611.69	30483.14
611.84	30995.71
612.00	30960.61
612.15	31000.40
612.31	31122.10
612.46	31229.77
612.62	31096.36
612.77	31180.62
612.92	31295.30
613.08	31227.43
613.23	31459.14
613.39	30803.79
613.54	30848.26
613.69	31131.47
613.85	31091.68
614.00	30803.79
614.15	31096.36
614.31	30911.46
614.46	30899.75
614.62	30775.70
614.77	30787.41
614.92	31173.60
615.08	30944.22
615.23	30876.35
615.38	30888.05
615.54	30352.07
615.69	31023.80
615.84	30632.93
616.00	30820.17
616.15	30551.01
616.30	30932.52
616.46	30890.39
616.61	31068.27
616.76	31014.44
616.92	30703.15
617.07	30700.81
617.22	30876.35
617.37	30462.07
617.53	30478.46
617.68	30527.61
617.83	30441.01
617.99	30204.61
618.14	30370.79
618.29	30782.73
618.45	30249.08
618.60	30656.34
618.75	30532.29
618.90	30389.52
619.06	30628.25
619.21	30618.89
619.36	30733.57
619.51	30122.69
619.67	30162.48
619.82	30003.33
619.97	30457.39
620.12	30178.87
620.28	29837.15
620.43	30431.65
620.58	30312.28
620.73	30735.92
620.89	30506.54
621.04	30429.30
621.19	30441.01
621.34	30331.00
621.49	29666.29
621.65	30359.09
621.80	30169.51
621.95	30068.86
622.10	30258.45
622.25	29867.58
622.41	30260.79
622.56	29975.24
622.71	30061.84
622.86	29947.15
623.01	30209.29
623.16	29926.09
623.32	29792.68
623.47	30183.55
623.62	30026.73
623.77	29572.67
623.92	30366.11
624.07	29825.45
624.23	29944.81
624.38	29872.26
624.53	29743.53
624.68	30029.07
624.83	30242.06
624.98	30211.64
625.13	29685.01
625.29	30059.50
625.44	29703.74
625.59	29408.83
625.74	29628.84
625.89	29413.51
626.04	29607.78
626.19	29216.91
626.34	29670.97
626.49	29500.11
626.65	29235.63
626.80	29457.98
626.95	29610.12
627.10	29537.56
627.25	29799.70
627.40	29333.93
627.55	29677.99
627.70	29563.31
627.85	29041.37
628.00	29429.90
628.15	29399.47
628.30	29179.46
628.45	29347.98
628.60	29347.98
628.76	29589.05
628.91	29324.57
629.06	29132.65
629.21	29745.87
629.36	29404.15
629.51	29003.92
629.66	29020.30
629.81	29188.82
629.96	29310.53
630.11	29146.69
630.26	28982.85
630.41	29039.03
630.56	28879.87
630.71	29214.57
630.86	29214.57
631.01	29312.87
631.16	29151.37
631.31	29198.18
631.46	28809.65
631.61	29390.11
631.76	29387.77
631.91	29123.29
632.06	28711.35
632.21	28985.19
632.36	28891.57
632.51	28767.52
632.66	28875.19
632.81	28811.99
632.96	29179.46
633.10	29284.78
633.25	28971.15
633.40	29043.71
633.55	28837.74
633.70	28652.84
633.85	28540.49
634.00	28751.14
634.15	28423.47
634.30	28645.82
634.45	28456.23
634.60	28769.86
634.75	28121.54
634.90	28430.49
635.05	28732.42
635.19	28601.35
635.34	28868.17
635.49	28772.21
635.64	28795.61
635.79	28264.31
635.94	28470.28
636.09	28500.70
636.24	28350.91
636.39	28212.82
636.53	28877.53
636.68	28308.78
636.83	28432.83
636.98	28730.08
637.13	29020.30
637.28	28758.16
637.43	28631.77
637.57	28603.69
637.72	28357.93
637.87	28011.53
638.02	28491.34
638.17	28226.86
638.32	28322.82
638.46	28149.62
638.61	28177.71
638.76	27988.13
638.91	28058.34
639.06	28027.92
639.20	28292.40
639.35	28371.97
639.50	28158.99
639.65	28449.21
639.80	28048.98
639.94	27976.42
640.09	28259.63
640.24	28285.37
640.39	27697.90
640.54	27676.83
640.68	27566.83
640.83	27929.61
640.98	27751.73
641.13	27433.42
641.27	27889.82
641.42	28039.62
641.57	27859.40
641.72	27908.55
641.86	27763.43
642.01	27683.86
642.16	27723.65
642.31	27524.70
642.45	27807.90
642.60	27405.33
642.75	27501.29
642.90	27346.82
643.04	27564.49
643.19	27852.38
643.34	27655.77
643.48	28023.23
643.63	28020.89
643.78	27531.72
643.93	27730.67
644.07	27651.09
644.22	27503.64
644.37	27644.07
644.51	27887.48
644.66	27625.34
644.81	27431.08
644.95	27211.07
645.10	27335.12
645.25	27082.34
645.39	27241.50
645.54	27484.91
645.69	27023.83
645.83	27264.90
645.98	27466.19
646.13	27468.53
646.27	27854.72
646.42	27412.35
646.57	27164.26
646.71	27281.28
646.86	27613.64
647.00	26934.88
647.15	27182.98
647.30	26962.97
647.44	26918.50
647.59	27075.32
647.74	27143.19
647.88	26831.90
648.03	27225.11
648.17	27449.80
648.32	27023.83
648.47	27438.10
648.61	27005.10
648.76	27112.77
648.90	27386.61
649.05	27122.13
649.20	27044.89
649.34	27342.14
649.49	26827.22
649.63	26490.18
649.78	26848.29
649.92	26778.07
650.07	26815.52
650.21	26801.47
650.36	27028.51
650.51	26632.96
650.65	26808.50
650.80	26913.82
650.94	26827.22
651.09	26918.50
651.23	27028.51
651.38	26506.57
651.52	26614.23
651.67	26918.50
651.81	26855.31
651.96	26579.12
652.10	26623.59
652.25	26731.26
652.39	26902.12
652.54	26698.49
652.68	26359.11
652.83	26459.76
652.97	26925.52
653.12	26471.46
653.26	26707.85
653.41	26389.54
653.55	26132.08
653.70	26434.01
653.84	26429.33
653.99	26501.89
654.13	26349.75
654.27	26087.61
654.42	26356.77
654.56	26356.77
654.71	26239.75
654.85	26281.88
655.00	26764.03
655.14	26377.84
655.29	26539.33
655.43	26249.11
655.57	26312.30
655.72	26478.48
655.86	25937.82
656.01	26405.92
656.15	25979.95
656.30	25886.32
656.44	26045.48
656.58	25823.13
656.73	25764.62
656.87	25776.32
657.01	25956.54
657.16	25891.01
657.30	26094.63
657.45	26249.11
657.59	25841.85
657.73	25940.16
657.88	26265.49
658.02	25701.42
658.16	25792.70
658.31	25907.39
658.45	25736.53
658.60	25694.40
658.74	25834.83
658.88	25855.90
659.03	25883.98
659.17	25741.21
659.31	25713.13
659.46	25776.32
659.60	25766.96
659.74	25450.99
659.89	25668.66
660.03	25099.90
660.17	25788.02
660.32	25259.06
660.46	25469.71
660.60	25345.66
660.74	25624.18
660.89	25387.79
661.03	24905.64
661.17	25116.29
661.32	25333.96
661.46	25500.14
661.60	25350.34
661.74	25560.99
661.89	25287.15
662.03	25308.21
662.17	25633.55
662.31	25135.01
662.46	25383.11
662.60	24929.05
662.74	24826.06
662.88	24690.31
663.03	24631.80
663.17	24702.01
663.31	24510.09
663.45	24847.13
663.60	24641.16
663.74	24816.70
663.88	24762.87
664.02	24680.95
664.17	24872.87
664.31	24650.52
664.45	24334.55
664.59	24596.69
664.73	24716.06
664.88	24767.55
665.02	24388.38
665.16	23955.38
665.30	24489.03
665.44	24416.47
665.59	24196.46
665.73	24463.28
665.87	24119.22
666.01	24411.79
666.15	24205.82
666.29	24198.80
666.44	24397.74
666.58	24159.01
666.72	24070.07
666.86	24166.03
667.00	24156.67
667.14	23679.20
667.28	23999.85
667.43	24077.09
667.57	23384.29
667.71	23704.95
667.85	23885.17
667.99	23625.37
668.13	23672.18
668.27	23770.48
668.41	23896.87
668.56	23477.91
668.70	23985.81
668.84	23461.53
668.98	23400.68
669.12	23573.88
669.26	23608.98
669.40	23569.19
669.54	23398.34
669.68	23590.26
669.82	23061.30
669.96	23105.77
670.10	22822.56
670.25	23084.70
670.39	22960.66
670.53	23374.93
670.67	22794.48
670.81	22892.78
670.95	23171.30
671.09	23117.47
671.23	23262.58
671.37	22869.37
671.51	23089.38
671.65	22735.96
671.79	23094.07
671.93	22632.98
672.07	23005.13
672.21	22361.48
672.35	22490.21
672.49	22625.96
672.63	22462.12
672.77	22214.02
672.91	22361.48
673.05	22520.63
673.19	22188.28
673.33	22251.47
673.47	22204.66
673.61	22553.40
673.75	22279.56
673.89	22679.79
674.03	22314.67
674.17	22328.71
674.31	22216.36
674.45	22017.42
674.59	22174.24
674.73	22214.02
674.87	21671.02
675.01	21621.87
675.15	21891.03
675.29	21607.83
675.43	21303.56
675.56	21881.67
675.70	21795.07
675.84	21488.46
675.98	21317.60
676.12	21750.60
676.26	21607.83
676.40	22029.12
676.54	21472.07
676.68	21476.76
676.82	21149.08
676.96	20889.28
677.10	21322.28
677.23	20697.36
677.37	21188.87
677.51	20947.79
677.65	20924.39
677.79	20521.82
677.93	21039.08
678.07	20332.23
678.21	20318.19
678.34	20563.95
678.48	20285.42
678.62	20327.55
678.76	20276.06
678.90	20037.33
679.04	20318.19
679.18	20198.82
679.31	19866.47
679.45	19901.58
679.59	20023.28
679.73	20095.84
679.87	19707.31
680.00	19630.07
680.14	19793.91
680.28	19679.22
680.42	19681.56
680.56	19953.07
680.70	19630.07
680.83	19807.95
680.97	19384.32
681.11	19407.72
681.25	19520.07
681.39	19166.65
681.52	19487.30
681.66	19499.00
681.80	18913.87
681.94	19030.90
682.07	19269.63
682.21	19321.12
682.35	18939.62
682.49	19159.63
682.62	18670.45
682.76	18750.03
682.90	18773.44
683.04	18551.09
683.17	18696.20
683.31	18541.72
683.45	18698.54
683.59	18574.49
683.72	18499.59
683.86	18527.68
684.00	18401.29
684.13	18127.45
684.27	18263.20
684.41	18029.15
684.55	17912.12
684.68	17586.79
684.82	17895.74
684.96	18012.76
685.09	17757.64
685.23	17731.90
685.37	17596.15
685.50	17895.74
685.64	17605.51
685.78	17579.76
685.91	17776.37
686.05	17750.62
686.19	17404.22
686.32	17532.95
686.46	17296.56
686.60	17252.09
686.73	17221.66
686.87	16868.24
687.01	16952.50
687.14	16893.99
687.28	16889.31
687.42	16655.25
687.55	16636.53
687.69	16624.83
687.82	16688.02
687.96	16725.47
688.10	16535.88
688.23	16507.80
688.37	16573.33
688.50	16428.22
688.64	16552.27
688.78	16514.82
688.91	16421.20
689.05	16573.33
689.18	16273.74
689.32	15852.45
689.46	15796.28
689.59	15941.39
689.73	15627.76
689.86	16079.48
690.00	15960.11
690.13	16091.18
690.27	15531.80
690.41	15868.83
690.54	15506.05
690.68	15817.34
690.81	15726.06
690.95	15517.75
691.08	15461.58
691.22	15433.49
691.35	15325.83
691.49	15356.25
691.62	15295.40
691.76	15112.84
691.89	14986.45
692.03	14867.08
692.16	15005.17
692.30	14890.49
692.43	14780.48
692.57	14932.62
692.70	14747.72
692.84	14581.54
692.97	14501.96
693.11	14649.41
693.24	14651.75
693.38	14310.04
693.51	14544.09
693.65	14469.19
693.78	14286.63
693.92	14335.78
694.05	14319.40
694.19	13858.31
694.32	14099.39
694.45	13823.20
694.59	13834.91
694.72	13968.32
694.86	13841.93
694.99	13839.59
695.13	13968.32
695.26	13558.72
695.39	13565.74
695.53	13607.87
695.66	13621.92
695.80	13366.80
695.93	13642.98
696.07	13710.86
696.20	13640.64
696.33	13582.13
696.47	13275.52
696.60	13523.62
696.73	13362.12
696.87	13095.30
697.00	13207.64
697.14	13104.66
697.27	12936.14
697.40	12821.45
697.54	12952.52
697.67	12692.73
697.80	12622.51
697.94	12526.55
698.07	12666.98
698.21	12423.56
698.34	12535.91
698.47	12599.10
698.61	12273.77
698.74	12587.40
698.87	12674.00
699.01	12358.03
699.14	12306.54
699.27	12395.48
699.40	12243.34
699.54	12138.02
699.67	12049.08
699.80	11999.93
699.94	11887.58
700.07	11810.34
700.20	11833.75
700.34	11707.36
700.47	11761.19
700.60	11676.93
700.73	11630.12
700.87	11487.35
701.00	11468.62
701.13	11365.64
701.26	11667.57
701.40	11529.48
701.53	11487.35
701.66	11468.62
701.79	11407.77
701.93	11445.22
702.06	11265.00
702.19	11293.08
702.32	10967.75
702.46	11136.27
702.59	10883.49
702.72	10754.76
702.85	10775.83
702.99	10970.09
703.12	10527.73
703.25	10710.29
703.38	10771.15
703.51	10761.78
703.65	10677.52
703.78	10604.97
703.91	10478.58
704.04	10773.49
704.17	10331.12
704.31	10562.84
704.44	10319.42
704.57	10300.70
704.70	10267.93
704.83	10059.62
704.96	10064.30
705.10	10141.54
705.23	9813.87
>>>>>End Processed Spectral Data<<<<<
