SpectraSuite Data File
++++++++++++++++++++++++++++++++++++
Date: Fri Oct 18 13:58:16 GMT-05:00 2013
User: bianchi
Dark Spectrum Present: No
Reference Spectrum Present: No
Number of Sampled Component Spectra: 1
Spectrometers: USB2+H05261
Integration Time (usec): 50000 (USB2+H05261)
Spectra Averaged: 1 (USB2+H05261)
Boxcar Smoothing: 0 (USB2+H05261)
Correct for Electrical Dark: No (USB2+H05261)
Strobe/Lamp Enabled: No (USB2+H05261)
Correct for Detector Non-linearity: No (USB2+H05261)
Correct for Stray Light: No (USB2+H05261)
Number of Pixels in Processed Spectrum: 2048
>>>>>Begin Processed Spectral Data<<<<<
365.73	0.00
365.92	0.00
366.12	0.00
366.32	0.00
366.52	0.00
366.72	0.00
366.91	0.00
367.11	0.00
367.31	0.00
367.51	0.00
367.70	0.00
367.90	0.00
368.10	0.00
368.30	0.00
368.49	0.00
368.69	0.00
368.89	0.00
369.09	0.00
369.28	0.00
369.48	0.00
369.68	0.00
369.87	0.00
370.07	0.00
370.27	0.00
370.47	0.00
370.66	86.60
370.86	124.05
371.06	110.01
371.25	159.16
371.45	107.66
371.65	107.66
371.84	177.88
372.04	112.35
372.24	161.50
372.44	147.45
372.63	168.52
372.83	271.50
373.03	227.03
373.22	229.37
373.42	187.24
373.62	229.37
373.81	325.33
374.01	210.65
374.21	205.97
374.40	203.63
374.60	299.59
374.79	252.78
374.99	294.91
375.19	220.01
375.38	238.73
375.58	304.27
375.78	334.70
375.97	276.18
376.17	128.73
376.37	177.88
376.56	259.80
376.76	222.35
376.95	283.20
377.15	280.86
377.35	285.55
377.54	325.33
377.74	238.73
377.93	208.31
378.13	299.59
378.33	334.70
378.52	351.08
378.72	360.44
378.91	250.44
379.11	266.82
379.31	238.73
379.50	280.86
379.70	297.25
379.89	297.25
380.09	280.86
380.28	327.68
380.48	273.84
380.68	259.80
380.87	322.99
381.07	271.50
381.26	276.18
381.46	311.29
381.65	304.27
381.85	308.95
382.04	423.64
382.24	395.55
382.43	414.27
382.63	348.74
382.83	299.59
383.02	257.46
383.22	409.59
383.41	337.04
383.61	337.04
383.80	388.53
384.00	442.36
384.19	393.21
384.39	381.51
384.58	332.36
384.78	344.06
384.97	411.93
385.17	330.02
385.36	365.12
385.56	341.72
385.75	388.53
385.95	451.72
386.14	379.17
386.34	390.87
386.53	454.06
386.72	411.93
386.92	353.42
387.11	379.17
387.31	411.93
387.50	411.93
387.70	444.70
387.89	444.70
388.09	362.78
388.28	444.70
388.48	388.53
388.67	379.17
388.86	414.27
389.06	489.17
389.25	528.96
389.45	498.53
389.64	407.25
389.84	418.96
390.03	400.23
390.22	566.41
390.42	477.47
390.61	465.77
390.81	468.11
391.00	472.79
391.19	449.38
391.39	528.96
391.58	463.43
391.78	528.96
391.97	486.83
392.16	552.37
392.36	489.17
392.55	526.62
392.75	496.19
392.94	524.28
393.13	512.58
393.33	547.69
393.52	538.32
393.71	594.50
393.91	589.82
394.10	552.37
394.29	519.60
394.49	538.32
394.68	519.60
394.88	594.50
395.07	587.47
395.26	557.05
395.46	617.90
395.65	613.22
395.84	638.97
396.04	571.09
396.23	648.33
396.42	706.84
396.62	716.20
396.81	692.80
397.00	657.69
397.19	596.84
397.39	697.48
397.58	688.12
397.77	671.73
397.97	702.16
398.16	748.97
398.35	739.61
398.55	683.44
398.74	690.46
398.93	683.44
399.12	638.97
399.32	688.12
399.51	727.91
399.70	877.70
399.90	655.35
400.09	669.39
400.28	851.96
400.47	734.93
400.67	772.38
400.86	819.19
401.05	814.51
401.24	809.83
401.44	807.48
401.63	781.74
401.82	770.04
402.01	699.82
402.21	713.86
402.40	800.46
402.59	844.93
402.78	903.45
402.97	894.08
403.17	861.32
403.36	823.87
403.55	819.19
403.74	933.87
403.93	854.30
404.13	915.15
404.32	901.11
404.51	950.26
404.70	999.41
404.89	833.23
405.09	891.74
405.28	971.32
405.47	940.90
405.66	968.98
405.85	994.73
406.05	931.53
406.24	1107.07
406.43	1015.79
406.62	1062.60
406.81	1013.45
407.00	997.07
407.20	1004.09
407.39	985.37
407.58	929.19
407.77	1006.43
407.96	1046.22
408.15	1104.73
408.34	1109.41
408.54	1057.92
408.73	1107.07
408.92	1184.31
409.11	1086.01
409.30	1083.67
409.49	1172.61
409.68	1184.31
409.87	1111.75
410.07	1221.76
410.26	1207.72
410.45	1177.29
410.64	1104.73
410.83	1217.08
411.02	1235.80
411.21	1315.38
411.40	1198.35
411.59	1247.51
411.78	1203.04
411.98	1284.95
412.17	1280.27
412.36	1226.44
412.55	1284.95
412.74	1343.47
412.93	1277.93
413.12	1437.09
413.31	1341.13
413.50	1409.00
413.69	1336.45
413.88	1516.67
414.07	1397.30
414.26	1465.18
414.45	1476.88
414.64	1451.13
414.83	1406.66
415.02	1453.47
415.22	1509.65
415.41	1582.20
415.60	1439.43
415.79	1521.35
415.98	1593.90
416.17	1605.61
416.36	1633.69
416.55	1640.72
416.74	1638.38
416.93	1607.95
417.12	1696.89
417.31	1694.55
417.50	1666.46
417.69	1785.83
417.88	1760.08
418.07	1621.99
418.26	1802.21
418.45	1724.97
418.64	1830.30
418.83	1820.94
419.02	1851.36
419.21	1870.09
419.39	1849.02
419.58	1781.15
419.77	1741.36
419.96	1797.53
420.15	1839.66
420.34	1881.79
420.53	1895.83
420.72	1933.28
420.91	1870.09
421.10	1959.03
421.29	2054.99
421.48	1832.64
421.67	1982.43
421.86	1954.35
422.05	2015.20
422.24	1940.30
422.43	2040.95
422.61	2024.56
422.80	2054.99
422.99	2005.84
423.18	2059.67
423.37	1935.62
423.56	1970.73
423.75	2017.54
423.94	2001.16
424.13	1877.11
424.32	1956.69
424.50	1982.43
424.69	2069.03
424.88	2001.16
425.07	2003.50
425.26	1902.86
425.45	1923.92
425.64	2003.50
425.83	1942.64
426.01	2047.97
426.20	2017.54
426.39	1998.82
426.58	2111.16
426.77	2033.93
426.96	2228.19
427.15	2040.95
427.33	2038.61
427.52	2076.06
427.71	2111.16
427.90	2172.02
428.09	2244.57
428.28	2090.10
428.46	2277.34
428.65	2218.83
428.84	2239.89
429.03	2279.68
429.22	2113.50
429.40	2115.84
429.59	2235.21
429.78	2104.14
429.97	2143.93
430.16	2279.68
430.34	2342.88
430.53	2333.51
430.72	2363.94
430.91	2326.49
431.10	2232.87
431.28	2335.85
431.47	2335.85
431.66	2289.04
431.85	2319.47
432.03	2424.80
432.22	2628.42
432.41	2504.37
432.60	2452.88
432.79	2347.56
432.97	2480.97
433.16	2403.73
433.35	2502.03
433.54	2583.95
433.72	2661.19
433.91	2427.14
434.10	2565.23
434.28	2450.54
434.47	2590.97
434.66	2516.08
434.85	2670.55
435.03	2684.59
435.22	2565.23
435.41	2640.12
435.59	2738.43
435.78	2710.34
435.97	2588.63
436.16	2647.15
436.34	2717.36
436.53	2633.10
436.72	2815.66
436.90	2757.15
437.09	2799.28
437.28	2675.23
437.46	2703.32
437.65	2670.55
437.84	2715.02
438.02	2733.75
438.21	2773.53
438.40	2733.75
438.58	2876.52
438.77	2958.44
438.96	2860.13
439.14	2778.22
439.33	2984.18
439.52	2960.78
439.70	2869.50
439.89	2916.31
440.08	2991.20
440.26	3040.36
440.45	2923.33
440.63	3136.32
440.82	3091.85
441.01	2963.12
441.19	3236.96
441.38	3138.66
441.57	3077.80
441.75	3012.27
441.94	3311.86
442.12	3183.13
442.31	3253.34
442.50	3330.58
442.68	3272.07
442.87	3234.62
443.05	3344.63
443.24	3463.99
443.43	3346.97
443.61	3494.42
443.80	3456.97
443.98	3286.11
444.17	3243.98
444.35	3424.20
444.54	3372.71
444.73	3258.03
444.91	3353.99
445.10	3234.62
445.28	3424.20
445.47	3426.54
445.65	3499.10
445.84	3393.78
446.02	3578.68
446.21	3466.33
446.39	3475.70
446.58	3431.23
446.77	3463.99
446.95	3597.40
447.14	3400.80
447.32	3433.57
447.51	3466.33
447.69	3459.31
447.88	3564.64
448.06	3459.31
448.25	3361.01
448.43	3513.14
448.62	3562.30
448.80	3548.25
448.99	3559.95
449.17	3667.62
449.36	3522.51
449.54	3583.36
449.73	3686.34
449.91	3651.24
450.10	3651.24
450.28	3637.19
450.46	3637.19
450.65	3756.56
450.83	3737.84
451.02	3859.54
451.20	3904.01
451.39	3791.67
451.57	3775.28
451.76	3742.52
451.94	3817.41
452.13	3859.54
452.31	3784.65
452.49	3829.12
452.68	3925.08
452.86	3822.09
453.05	3932.10
453.23	3866.56
453.42	3873.59
453.60	3852.52
453.78	3920.40
453.97	3794.01
454.15	3978.91
454.34	3894.65
454.52	3957.85
454.70	4072.53
454.89	4028.06
455.07	3957.85
455.26	3990.61
455.44	4067.85
455.62	4065.51
455.81	4133.39
455.99	4081.89
456.17	4074.87
456.36	4102.96
456.54	4241.05
456.73	4236.37
456.91	4341.69
457.09	4255.09
457.28	4292.54
457.46	4269.14
457.64	4440.00
457.83	4290.20
458.01	4156.79
458.19	4290.20
458.38	4231.69
458.56	4578.09
458.74	4297.22
458.93	4514.89
459.11	4341.69
459.29	4491.49
459.48	4503.19
459.66	4369.78
459.84	4486.81
460.03	4683.41
460.21	4521.92
460.39	4414.25
460.57	4507.87
460.76	4554.68
460.94	4538.30
461.12	4440.00
461.31	4678.73
461.49	4634.26
461.67	4660.01
461.85	4645.96
462.04	4552.34
462.22	4823.84
462.40	4727.88
462.59	4809.80
462.77	4629.58
462.95	4695.11
463.13	4863.63
463.32	4760.65
463.50	4779.37
463.68	4931.51
463.86	4901.08
464.05	4802.78
464.23	4858.95
464.41	4894.06
464.59	4809.80
464.78	4966.62
464.96	4753.63
465.14	4959.60
465.32	5280.25
465.50	5032.15
465.69	5013.43
465.87	5029.81
466.05	4978.32
466.23	5097.69
466.41	5053.22
466.60	5263.86
466.78	5043.85
466.96	4964.28
467.14	4997.04
467.32	5097.69
467.51	5142.16
467.69	5067.26
467.87	5071.94
468.05	5280.25
468.23	5235.78
468.41	5116.41
468.60	5149.18
468.78	5235.78
468.96	5125.77
469.14	5156.20
469.32	5383.23
469.50	5156.20
469.69	5324.72
469.87	5490.90
470.05	5305.99
470.23	5427.70
470.41	5336.42
470.59	5544.73
470.77	5268.55
470.95	5301.31
471.14	5584.52
471.32	5430.04
471.50	5678.14
471.68	5486.22
471.86	5575.16
472.04	5579.84
472.22	5696.86
472.40	5612.60
472.58	5746.02
472.77	5750.70
472.95	5762.40
473.13	6024.54
473.31	5741.33
473.49	5813.89
473.67	5919.21
473.85	5804.53
474.03	5879.43
474.21	5996.45
474.39	5898.15
474.57	6106.46
474.75	6099.44
474.93	6127.52
475.12	6164.97
475.30	6143.91
475.48	6274.98
475.66	6270.30
475.84	6487.96
476.02	6499.67
476.20	6410.73
476.38	6497.33
476.56	6494.99
476.74	6560.52
476.92	6553.50
477.10	6569.88
477.28	6619.04
477.46	6389.66
477.64	6513.71
477.82	6789.89
478.00	6722.02
478.18	6738.40
478.36	6939.69
478.54	6967.77
478.72	7052.03
478.90	7115.23
479.08	7173.74
479.26	7171.40
479.44	7382.05
479.62	7344.60
479.80	7325.88
479.98	7456.95
480.16	7618.44
480.34	7581.00
480.52	7548.23
480.70	7644.19
480.88	7583.34
481.06	7676.96
481.24	7751.85
481.41	7672.28
481.59	8070.17
481.77	8051.44
481.95	8248.05
482.13	8070.17
482.31	8138.04
482.49	8329.97
482.67	8397.84
482.85	8397.84
483.03	8648.28
483.21	8519.55
483.39	8355.71
483.57	8416.57
483.74	8559.34
483.92	8671.68
484.10	8669.34
484.28	8688.07
484.46	8975.95
484.64	9025.11
484.82	9128.09
485.00	8957.23
485.18	9163.20
485.35	9247.46
485.53	9561.09
485.71	9352.78
485.89	9542.36
486.07	9458.10
486.25	9652.37
486.43	9848.97
486.61	9750.67
486.78	9848.97
486.96	9788.12
487.14	10122.82
487.32	9872.38
487.50	10200.05
487.68	10209.42
487.85	10333.47
488.03	10497.30
488.21	10611.99
488.39	10658.80
488.57	10658.80
488.75	10630.71
488.92	10944.34
489.10	10892.85
489.28	11040.31
489.46	11159.67
489.64	11009.88
489.81	11253.30
489.99	11199.46
490.17	11248.61
490.35	11501.39
490.53	11644.17
490.70	11824.39
490.88	11513.10
491.06	11592.67
491.24	11751.83
491.41	11777.58
491.59	12088.87
491.77	11915.67
491.95	12311.22
492.13	12028.01
492.30	12163.76
492.48	12215.26
492.66	12381.43
492.84	12252.70
493.01	12669.32
493.19	12498.46
493.37	12816.77
493.54	12898.69
493.72	12802.73
493.90	13046.15
494.08	12884.65
494.25	13004.02
494.43	13195.94
494.61	13338.71
494.79	13542.34
494.96	12996.99
495.14	13390.20
495.32	13291.90
495.49	13497.87
495.67	13659.37
495.85	13710.86
496.02	13685.11
496.20	13844.27
496.38	14108.75
496.55	13895.76
496.73	14333.44
496.91	14178.97
497.09	14157.90
497.26	14389.61
497.44	14342.80
497.62	14579.20
497.79	14611.96
497.97	14703.25
498.14	14693.88
498.32	14813.25
498.50	14855.38
498.67	14881.13
498.85	14972.41
499.03	14934.96
499.20	15047.30
499.38	15187.74
499.56	14988.79
499.73	15035.60
499.91	15264.97
500.08	15700.31
500.26	15190.08
500.44	15302.42
500.61	15524.77
500.79	15517.75
500.97	15538.82
501.14	16166.08
501.32	15770.53
501.49	15770.53
501.67	15662.86
501.84	15770.53
502.02	15676.91
502.20	16023.31
502.37	16203.53
502.55	16313.53
502.72	16177.78
502.90	16264.38
503.07	16133.31
503.25	16002.24
503.43	16336.94
503.60	16615.46
503.78	16301.83
503.95	16879.94
504.13	16690.36
504.30	16451.63
504.48	16725.47
504.65	16437.58
504.83	16889.31
505.01	16959.52
505.18	16793.34
505.36	16872.92
505.53	17099.95
505.71	16994.63
505.88	17228.68
506.06	17046.12
506.23	17502.53
506.41	17116.34
506.58	17284.86
506.76	17151.45
506.93	17486.14
507.11	17317.62
507.28	17619.55
507.46	17479.12
507.63	17495.50
507.81	17724.88
507.98	17544.66
508.16	17752.96
508.33	17827.86
508.50	17884.03
508.68	17788.07
508.85	17926.16
509.03	17806.80
509.20	18265.54
509.38	18331.08
509.55	18052.55
509.73	18471.51
509.90	18270.22
510.08	18253.84
510.25	18387.25
510.42	18752.37
510.60	18733.65
510.77	18665.77
510.95	18658.75
511.12	18469.17
511.30	18773.44
511.47	18813.23
511.64	18890.46
511.82	19206.44
511.99	18810.89
512.17	19068.34
512.34	19115.16
512.51	19005.15
512.69	19108.13
512.86	19243.88
513.04	19187.71
513.21	19723.69
513.38	19342.19
513.56	19344.53
513.73	19260.27
513.90	19646.46
514.08	19384.32
514.25	19775.19
514.43	19637.09
514.60	19653.48
514.77	19917.96
514.95	19786.89
515.12	19557.52
515.29	19669.86
515.47	19864.13
515.64	19824.34
515.81	19852.42
515.99	20020.94
516.16	20357.98
516.33	20229.25
516.51	20336.91
516.68	20119.24
516.85	20177.76
517.03	20568.63
517.20	20198.82
517.37	20418.83
517.54	20517.14
517.72	20805.02
517.89	20428.20
518.06	20678.63
518.24	20582.67
518.41	20702.04
518.58	20922.05
518.75	20744.17
518.93	21060.14
519.10	20746.51
519.27	21046.10
519.45	20886.94
519.62	20826.09
519.79	21048.44
519.96	20772.25
520.14	21355.05
520.31	21130.36
520.48	21738.90
520.65	21050.78
520.83	21341.00
521.00	21619.53
521.17	21284.83
521.34	21245.04
521.52	21589.10
521.69	21364.41
521.86	21568.04
522.03	21954.22
522.20	21635.91
522.38	21809.11
522.55	21752.94
522.72	21802.09
522.89	21912.10
523.07	21986.99
523.24	21989.33
523.41	22005.72
523.58	21832.52
523.75	22118.06
523.92	22164.87
524.10	22398.93
524.27	21921.46
524.44	22218.71
524.61	22654.05
524.78	22309.99
524.96	22525.32
525.13	22611.92
525.30	22415.31
525.47	22361.48
525.64	22429.35
525.81	22450.42
525.98	22785.12
526.16	22588.51
526.33	22822.56
526.50	23037.89
526.67	22443.40
526.84	22918.53
527.01	22546.38
527.18	22661.07
527.36	23033.21
527.53	23016.83
527.70	23452.17
527.87	22972.36
528.04	23136.20
528.21	22803.84
528.38	23028.53
528.55	23255.56
528.72	23129.17
528.89	23183.01
529.07	23344.50
529.24	23304.71
529.41	23344.50
529.58	23108.11
529.75	23686.22
529.92	23365.57
530.09	23536.43
530.26	23396.00
530.43	23618.35
530.60	23482.59
530.77	23524.72
530.94	24163.69
531.11	23791.55
531.28	23608.98
531.46	23831.33
531.63	24016.24
531.80	24049.00
531.97	23854.74
532.14	24250.29
532.31	23812.61
532.48	23988.15
532.65	24367.32
532.82	24215.18
532.99	24044.32
533.16	23887.51
533.33	24112.20
533.50	24610.73
533.67	24088.79
533.84	24269.01
534.01	24496.05
534.18	24367.32
534.35	24376.68
534.52	24388.38
534.69	24500.73
534.86	24439.87
535.03	24599.03
535.20	24800.32
535.37	24477.32
535.54	24606.05
535.71	24594.35
535.88	24531.15
536.05	24776.91
536.22	24666.91
536.38	24720.74
536.55	24985.22
536.72	25193.53
536.89	24484.34
537.06	24886.92
537.23	25106.93
537.40	25221.61
537.57	24957.13
537.74	25200.55
537.91	25034.37
538.08	25104.59
538.25	25118.63
538.42	25397.15
538.59	25113.95
538.75	25336.30
538.92	25504.82
539.09	25781.00
539.26	25546.95
539.43	25305.87
539.60	25645.25
539.77	25338.64
539.94	25560.99
540.11	25404.17
540.28	25422.90
540.44	25425.24
540.61	25523.54
540.78	25467.37
540.95	25413.54
541.12	25790.36
541.29	25539.93
541.46	25727.17
541.62	25806.75
541.79	25759.94
541.96	25422.90
542.13	25841.85
542.30	25921.43
542.47	25680.36
542.63	26309.96
542.80	26319.32
542.97	26291.24
543.14	25977.61
543.31	26424.65
543.48	26211.66
543.64	26415.29
543.81	26581.46
543.98	26417.63
544.15	26513.59
544.32	26476.14
544.48	26611.89
544.65	26181.23
544.82	26658.70
544.99	26253.79
545.16	26831.90
545.32	26632.96
545.49	26682.11
545.66	26920.84
545.83	26672.74
546.00	27140.85
546.16	26733.60
546.33	26478.48
546.50	26302.94
546.67	26864.67
546.83	26775.73
547.00	26801.47
547.17	26588.49
547.34	26838.92
547.50	26967.65
547.67	27274.26
547.84	26848.29
548.00	27138.51
548.17	26857.65
548.34	27089.36
548.51	27489.59
548.67	27571.51
548.84	27262.56
549.01	26911.48
549.18	27311.71
549.34	27381.93
549.51	27091.70
549.68	27257.88
549.84	27213.41
550.01	27379.59
550.18	27154.90
550.34	27489.59
550.51	27480.23
550.68	27498.95
550.84	27402.99
551.01	27276.60
551.18	27473.21
551.34	27484.91
551.51	27199.37
551.68	27599.60
551.84	27948.34
552.01	27337.46
552.18	27480.23
552.34	27337.46
552.51	27934.29
552.68	27775.14
552.84	27461.51
553.01	27559.81
553.18	27770.46
553.34	27805.56
553.51	27828.97
553.67	27740.03
553.84	27824.29
554.01	27871.10
554.17	28048.98
554.34	27983.44
554.51	28112.17
554.67	27742.37
554.84	28226.86
555.00	28201.11
555.17	27969.40
555.33	27908.55
555.50	28121.54
555.67	28109.83
555.83	27924.93
556.00	28201.11
556.16	28175.37
556.33	27974.08
556.50	28109.83
556.66	28381.34
556.83	28222.18
556.99	28526.45
557.16	28404.74
557.32	28006.85
557.49	28072.39
557.65	28297.08
557.82	28198.77
557.98	28271.33
558.15	28238.56
558.32	28538.15
558.48	28393.04
558.65	28699.65
558.81	28449.21
558.98	28568.58
559.14	28599.01
559.31	28205.80
559.47	28594.32
559.64	28535.81
559.80	28404.74
559.97	28664.54
560.13	28620.07
560.30	28634.11
560.46	28671.56
560.63	28886.89
560.79	28561.56
560.96	28694.97
561.12	28725.39
561.29	28489.00
561.45	28479.64
561.61	28854.12
561.78	28631.77
561.94	28865.83
562.11	28959.45
562.27	29006.26
562.44	28481.98
562.60	28596.67
562.77	29064.77
562.93	28893.91
563.10	29130.31
563.26	28912.64
563.42	29034.35
563.59	29273.08
563.75	29446.28
563.92	29116.26
564.08	28870.51
564.24	29039.03
564.41	28886.89
564.57	28563.90
564.74	29039.03
564.90	29205.20
565.07	29310.53
565.23	29357.34
565.39	28912.64
565.56	29088.18
565.72	28907.96
565.88	28926.68
566.05	28886.89
566.21	29223.93
566.38	29404.15
566.54	28919.66
566.70	29390.11
566.87	29200.52
567.03	29118.60
567.19	29834.81
567.36	29530.54
567.52	29474.37
567.68	29495.43
567.85	29132.65
568.01	28933.70
568.17	29020.30
568.34	29558.63
568.50	29195.84
568.66	29277.76
568.83	29343.30
568.99	29333.93
569.15	29504.79
569.32	29226.27
569.48	29303.51
569.64	29635.86
569.81	29757.57
569.97	29603.10
570.13	29198.18
570.30	29184.14
570.46	29146.69
570.62	29237.97
570.78	29394.79
570.95	29071.79
571.11	29373.72
571.27	29439.26
571.43	29329.25
571.60	29249.67
571.76	29212.23
571.92	29205.20
572.09	29516.50
572.25	29600.76
572.41	29603.10
572.57	29656.93
572.74	29504.79
572.90	29322.23
573.06	29404.15
573.22	29254.36
573.38	29565.65
573.55	29390.11
573.71	29607.78
573.87	29928.43
574.03	29371.38
574.20	29214.57
574.36	29399.47
574.52	29336.27
574.68	29198.18
574.84	29476.71
575.01	29626.50
575.17	29546.92
575.33	29729.48
575.49	29766.93
575.65	29996.31
575.82	29872.26
575.98	29460.32
576.14	29617.14
576.30	29535.22
576.46	29235.63
576.62	29460.32
576.79	29811.40
576.95	29504.79
577.11	29764.59
577.27	29855.87
577.43	29696.72
577.59	29923.75
577.75	29577.35
577.92	29289.46
578.08	29542.24
578.24	29853.53
578.40	29261.38
578.56	29841.83
578.72	29535.22
578.88	30134.40
579.04	30270.15
579.21	29631.18
579.37	29792.68
579.53	30164.82
579.69	29727.14
579.85	29144.35
580.01	29656.93
580.17	29502.45
580.33	29392.45
580.49	29862.90
580.65	29692.04
580.82	30085.25
580.98	29420.53
581.14	29930.77
581.30	30134.40
581.46	29923.75
581.62	29687.36
581.78	29654.59
581.94	29944.81
582.10	29687.36
582.26	29900.34
582.42	29312.87
582.58	30075.88
582.74	29881.62
582.90	29991.62
583.06	29575.01
583.22	29556.28
583.38	29858.21
583.54	29776.30
583.70	29841.83
583.86	29638.20
584.02	29404.15
584.18	30192.91
584.34	29998.65
584.50	29921.41
584.66	30291.21
584.82	29532.88
584.98	29687.36
585.14	29603.10
585.30	29631.18
585.46	29668.63
585.62	29869.92
585.78	29537.56
585.94	29907.37
586.10	29820.77
586.26	29785.66
586.42	30047.80
586.58	29764.59
586.74	30026.73
586.90	29738.85
587.06	29579.69
587.22	30066.52
587.38	29472.03
587.54	29998.65
587.70	29984.60
587.86	29802.04
588.02	29984.60
588.18	30370.79
588.34	29886.30
588.49	29720.12
588.65	30071.20
588.81	30052.48
588.97	30015.03
589.13	29979.92
589.29	29673.31
589.45	30043.12
589.61	29965.88
589.77	30228.02
589.93	30141.42
590.08	30349.73
590.24	30396.54
590.40	29837.15
590.56	30190.57
590.72	30209.29
590.88	30190.57
591.04	30092.27
591.20	30167.16
591.35	30251.42
591.51	30553.35
591.67	30146.10
591.83	30630.59
591.99	30504.20
592.15	29888.64
592.31	30192.91
592.46	30508.88
592.62	30043.12
592.78	29961.20
592.94	30382.49
593.10	29975.24
593.26	30658.68
593.41	30492.50
593.57	30469.09
593.73	30340.36
593.89	30108.65
594.05	30188.23
594.20	30424.62
594.36	30799.11
594.52	30298.23
594.68	29764.59
594.84	29673.31
594.99	30438.67
595.15	30288.87
595.31	30597.82
595.47	30541.65
595.62	30331.00
595.78	30281.85
595.94	30443.35
596.10	30279.51
596.25	30022.05
596.41	30103.97
596.57	30012.69
596.73	30424.62
596.88	30354.41
597.04	30265.47
597.20	30560.37
597.36	30078.22
597.51	30813.15
597.67	30204.61
597.83	30485.48
597.99	30066.52
598.14	30148.44
598.30	30366.11
598.46	30082.91
598.61	30141.42
598.77	30513.56
598.93	30831.88
599.09	30120.35
599.24	30714.85
599.40	30298.23
599.56	30448.03
599.71	30579.10
599.87	30539.31
600.03	30501.86
600.18	30602.50
600.34	30284.19
600.50	30527.61
600.65	30396.54
600.81	30581.44
600.97	30710.17
601.12	30918.48
601.28	30656.34
601.44	30068.86
601.59	30703.15
601.75	30546.33
601.91	30808.47
602.06	30150.78
602.22	30787.41
602.37	30419.94
602.53	30525.27
602.69	30525.27
602.84	30323.98
603.00	30089.93
603.16	30368.45
603.31	30419.94
603.47	30551.01
603.62	30532.29
603.78	30197.59
603.94	30492.50
604.09	30312.28
604.25	30235.04
604.40	30120.35
604.56	30445.69
604.71	30466.75
604.87	30747.62
605.03	30686.76
605.18	30625.91
605.34	30515.90
605.49	30293.55
605.65	30199.93
605.80	30370.79
605.96	30335.68
606.12	30319.30
606.27	30426.96
606.43	30094.61
606.58	30616.55
606.74	30705.49
606.89	30651.66
607.05	30284.19
607.20	30469.09
607.36	30572.08
607.51	30478.46
607.67	29963.54
607.82	30656.34
607.98	30005.67
608.13	30487.82
608.29	30064.18
608.44	30000.99
608.60	30181.21
608.75	30504.20
608.91	30047.80
609.06	30012.69
609.22	30726.55
609.37	30038.44
609.53	30525.27
609.68	30033.75
609.84	30113.33
609.99	30113.33
610.15	29991.62
610.30	30120.35
610.46	29408.83
610.61	30134.40
610.76	30267.81
610.92	30038.44
611.07	30110.99
611.23	29926.09
611.38	29923.75
611.54	29776.30
611.69	29699.06
611.84	30132.06
612.00	29853.53
612.15	30199.93
612.31	30017.37
612.46	30127.38
612.62	29998.65
612.77	30029.07
612.92	30267.81
613.08	30045.46
613.23	29970.56
613.39	30237.38
613.54	29916.73
613.69	30216.32
613.85	29729.48
614.00	29600.76
614.15	30066.52
614.31	29727.14
614.46	29979.92
614.62	30082.91
614.77	30171.85
614.92	30122.69
615.08	29898.00
615.23	29539.90
615.38	29837.15
615.54	29584.37
615.69	29308.19
615.84	29600.76
616.00	29727.14
616.15	29766.93
616.30	29776.30
616.46	29408.83
616.61	29788.00
616.76	29862.90
616.92	29778.64
617.07	29652.25
617.22	29898.00
617.37	29443.94
617.53	29862.90
617.68	29558.63
617.83	29376.06
617.99	29535.22
618.14	29511.81
618.29	29380.74
618.45	29947.15
618.60	29422.87
618.75	29631.18
618.90	29593.73
619.06	29474.37
619.21	29708.42
619.36	29465.00
619.51	29230.95
619.67	29221.59
619.82	29039.03
619.97	29186.48
620.12	29317.55
620.28	28893.91
620.43	29078.82
620.58	29565.65
620.73	29448.62
620.89	29563.31
621.04	29619.48
621.19	29479.05
621.34	29064.77
621.49	29450.96
621.65	29275.42
621.80	29153.71
621.95	29490.75
622.10	28896.25
622.25	29046.05
622.41	29106.90
622.56	29242.65
622.71	29371.38
622.86	29191.16
623.01	29355.00
623.16	29223.93
623.32	28985.19
623.47	29221.59
623.62	29001.58
623.77	28781.57
623.92	28992.22
624.07	28306.44
624.23	28975.83
624.38	29240.31
624.53	28816.68
624.68	28739.44
624.83	29064.77
624.98	28879.87
625.13	28718.37
625.29	28980.51
625.44	28687.95
625.59	28575.60
625.74	28758.16
625.89	28666.88
626.04	28603.69
626.19	28748.80
626.34	28615.39
626.49	28278.35
626.65	28568.58
626.80	28542.83
626.95	28521.77
627.10	28304.10
627.25	28374.31
627.40	28701.99
627.55	28465.60
627.70	28292.40
627.85	28222.18
628.00	28374.31
628.15	28390.70
628.30	28311.12
628.45	28556.88
628.60	28297.08
628.76	28297.08
628.91	28063.02
629.06	28266.65
629.21	28463.25
629.36	28393.04
629.51	28591.98
629.66	28538.15
629.81	27983.44
629.96	28070.04
630.11	28119.20
630.26	27967.06
630.41	28236.22
630.56	28144.94
630.71	28123.88
630.86	28070.04
631.01	28180.05
631.16	28011.53
631.31	28060.68
631.46	27915.57
631.61	28320.48
631.76	28121.54
631.91	28098.13
632.06	27924.93
632.21	28027.92
632.36	27936.63
632.51	27496.61
632.66	27578.53
632.81	27201.71
632.96	27618.32
633.10	27733.01
633.25	28086.43
633.40	27927.27
633.55	27688.54
633.70	27482.57
633.85	27655.77
634.00	27878.12
634.15	27351.50
634.30	27742.37
634.45	27880.46
634.60	27557.47
634.75	27665.13
634.90	27447.46
635.05	27672.15
635.19	27814.93
635.34	27908.55
635.49	27587.89
635.64	27372.57
635.79	27517.68
635.94	27239.15
636.09	27253.20
636.24	27487.25
636.39	27466.19
636.53	27344.48
636.68	27335.12
636.83	27590.24
636.98	27381.93
637.13	27332.78
637.28	27225.11
637.43	27227.45
637.57	27833.65
637.72	27218.09
637.87	27564.49
638.02	27660.45
638.17	27562.15
638.32	27232.13
638.46	27213.41
638.61	27070.64
638.76	26757.00
638.91	27524.70
639.06	26799.13
639.20	27208.73
639.35	27049.57
639.50	27080.00
639.65	27253.20
639.80	27232.13
639.94	27103.40
640.09	27218.09
640.24	27035.53
640.39	26759.34
640.54	26649.34
640.68	27080.00
640.83	27028.51
640.98	26654.02
641.13	26813.18
641.27	26902.12
641.42	26909.14
641.57	26700.83
641.72	26782.75
641.86	26944.25
642.01	26621.25
642.16	26684.45
642.31	27087.02
642.45	26560.40
642.60	26483.16
642.75	26518.27
642.90	26595.51
643.04	26314.64
643.19	26471.46
643.34	26693.81
643.48	26588.49
643.63	26703.17
643.78	27035.53
643.93	26380.18
644.07	26677.43
644.22	27168.94
644.37	26560.40
644.51	26679.77
644.66	26459.76
644.81	26504.23
644.95	26639.98
645.10	26539.33
645.25	26157.83
645.39	26450.39
645.54	26305.28
645.69	26658.70
645.83	26314.64
645.98	26534.65
646.13	26153.15
646.27	26288.90
646.42	26480.82
646.57	26419.97
646.71	26511.25
646.86	26345.07
647.00	26246.77
647.15	25839.51
647.30	26103.99
647.44	26204.64
647.59	25788.02
647.74	26043.14
647.88	26045.48
648.03	25956.54
648.17	26122.72
648.32	26225.70
648.47	26551.04
648.61	26260.81
648.76	26288.90
648.90	26267.83
649.05	26031.44
649.20	25935.48
649.34	25708.44
649.49	25926.11
649.63	25759.94
649.78	25919.09
649.92	25544.61
650.07	26118.04
650.21	26010.37
650.36	25764.62
650.51	26106.34
650.65	25614.82
650.80	26108.68
650.94	25757.60
651.09	25713.13
651.23	25415.88
651.38	25883.98
651.52	25668.66
651.67	25668.66
651.81	26087.61
651.96	25720.15
652.10	25678.02
652.25	25844.20
652.39	25685.04
652.54	25961.22
652.68	25598.44
652.83	25769.30
652.97	26309.96
653.12	25640.57
653.26	25502.48
653.41	25944.84
653.55	25610.14
653.70	25355.02
653.84	25476.73
653.99	25507.16
654.13	25329.28
654.27	25319.92
654.42	25369.07
654.56	25584.40
654.71	25404.17
654.85	25294.17
655.00	25453.33
655.14	25371.41
655.29	25200.55
655.43	25469.71
655.57	25591.42
655.72	25247.36
655.86	25380.77
656.01	25160.76
656.15	25252.04
656.30	25324.60
656.44	25373.75
656.58	25074.16
656.73	25074.16
656.87	25408.86
657.01	25202.89
657.16	25015.65
657.30	25589.08
657.45	25270.76
657.59	24905.64
657.73	25003.94
657.88	25149.06
658.02	25062.46
658.16	25015.65
658.31	24783.93
658.45	24819.04
658.60	24617.75
658.74	24861.17
658.88	24758.19
659.03	24893.94
659.17	24776.91
659.31	24830.74
659.46	24713.72
659.60	25209.91
659.74	24720.74
659.89	24643.50
660.03	24645.84
660.17	24580.31
660.32	24414.13
660.46	24446.90
660.60	24322.85
660.74	24264.33
660.89	24510.09
661.03	23992.83
661.17	24870.53
661.32	24472.64
661.46	24458.60
661.60	23875.80
661.74	24332.21
661.89	24350.93
662.03	24299.44
662.17	24184.76
662.31	24446.90
662.46	24638.82
662.60	23992.83
662.74	24023.26
662.88	23882.83
663.03	23800.91
663.17	24009.22
663.31	23758.78
663.45	23768.14
663.60	23805.59
663.74	23836.02
663.88	23758.78
664.02	23927.30
664.17	24025.60
664.31	23674.52
664.45	23934.32
664.59	23772.82
664.73	23735.37
664.88	23538.77
665.02	23426.42
665.16	23524.72
665.30	23309.40
665.44	23433.44
665.59	23028.53
665.73	23274.29
665.87	23267.27
666.01	23367.91
666.15	23555.15
666.29	23410.04
666.44	23456.85
666.58	22918.53
666.72	23248.54
666.86	22951.29
667.00	23234.50
667.14	22930.23
667.28	23396.00
667.43	23204.07
667.57	23356.21
667.71	22780.43
667.85	22630.64
667.99	22946.61
668.13	22675.11
668.27	23049.60
668.41	22780.43
668.56	22553.40
668.70	22951.29
668.84	22593.19
668.98	22913.84
669.12	22958.31
669.26	22712.56
669.40	22909.16
669.54	22436.38
669.68	22434.03
669.82	22288.92
669.96	22317.01
670.10	22403.61
670.25	22424.67
670.39	22228.07
670.53	22017.42
670.67	22160.19
670.81	22223.39
670.95	22417.65
671.09	22242.11
671.23	22295.94
671.37	22073.59
671.51	22331.05
671.65	22078.27
671.79	21947.20
671.93	21820.81
672.07	22012.74
672.21	21968.27
672.35	21956.57
672.49	21476.76
672.63	21715.49
672.77	21664.00
672.91	21479.10
673.05	21586.76
673.19	21610.17
673.33	21343.35
673.47	21539.95
673.61	21673.36
673.75	21565.70
673.89	21418.24
674.03	21179.51
674.17	21160.78
674.31	21207.59
674.45	20994.61
674.59	21113.97
674.73	21270.79
674.87	21179.51
675.01	20915.03
675.15	21172.49
675.29	20826.09
675.43	20915.03
675.56	20992.26
675.70	20463.30
675.84	20519.48
675.98	20004.56
676.12	20648.21
676.26	20783.96
676.40	20772.25
676.54	20402.45
676.68	20727.78
676.82	19962.43
676.96	20332.23
677.10	20360.32
677.23	20273.72
677.37	20196.48
677.51	20226.91
677.65	20175.42
677.79	19866.47
677.93	19843.06
678.07	20149.67
678.21	19782.21
678.34	19503.68
678.48	19599.65
678.62	19761.14
678.76	19379.64
678.90	19557.52
679.04	19552.84
679.18	19424.11
679.31	19428.79
679.45	19016.85
679.59	19176.01
679.73	19386.66
679.87	18984.09
680.00	19215.80
680.14	18820.25
680.28	19049.62
680.42	19096.43
680.56	19307.08
680.70	19084.73
680.83	18881.10
680.97	18513.64
681.11	18981.74
681.25	18864.72
681.39	18881.10
681.52	18647.05
681.66	18513.64
681.80	18270.22
681.94	18148.51
682.07	18347.46
682.21	18401.29
682.35	18300.65
682.49	18033.83
682.62	17963.61
682.76	18010.42
682.90	18127.45
683.04	18064.25
683.17	17781.05
683.31	17811.48
683.45	17942.55
683.59	17664.02
683.72	17759.98
683.86	17696.79
684.00	17589.13
684.13	17685.09
684.27	17668.70
684.41	17287.20
684.55	17266.13
684.68	17205.28
684.82	17348.05
684.96	17090.59
685.09	17095.27
685.23	17053.14
685.37	16765.26
685.50	16992.29
685.64	17200.60
685.78	16943.14
685.91	16793.34
686.05	16718.45
686.19	16774.62
686.32	17008.67
686.46	16369.71
686.60	16570.99
686.73	16379.07
686.87	16425.88
687.01	16177.78
687.14	16287.79
687.28	16292.47
687.42	16006.92
687.55	16086.50
687.69	16147.36
687.82	16161.40
687.96	16409.50
688.10	15932.03
688.23	16060.76
688.37	15875.85
688.50	15847.77
688.64	15737.76
688.78	15662.86
688.91	15807.98
689.05	15609.03
689.18	15475.62
689.32	15257.95
689.46	15246.25
689.59	15386.68
689.73	15522.43
689.86	15264.97
690.00	15286.04
690.13	15255.61
690.27	15279.02
690.41	15269.66
690.54	14834.32
690.68	15227.53
690.81	15098.80
690.95	15246.25
691.08	15019.22
691.22	14712.61
691.35	14888.15
691.49	14848.36
691.62	14796.87
691.76	14588.56
691.89	14534.73
692.03	14487.92
692.16	14342.80
692.30	14518.34
692.43	14127.47
692.57	14097.05
692.70	14099.39
692.84	14160.24
692.97	14097.05
693.11	13970.66
693.24	14127.47
693.38	13701.50
693.51	13804.48
693.65	13961.30
693.78	13846.61
693.92	13980.02
694.05	13619.58
694.19	13628.94
694.32	13444.04
694.45	13310.63
694.59	13415.95
694.72	13500.21
694.86	13490.85
694.99	12905.71
695.13	13362.12
695.26	13095.30
695.39	13268.50
695.53	12994.65
695.66	13294.24
695.80	12945.50
695.93	12886.99
696.07	13165.51
696.20	13254.45
696.33	12945.50
696.47	12760.60
696.60	12767.62
696.73	12645.91
696.87	12938.48
697.00	12966.57
697.14	12489.10
697.27	12397.82
697.40	12395.48
697.54	12437.61
697.67	12355.69
697.80	12379.09
697.94	12086.53
698.07	12131.00
698.21	12004.61
698.34	12320.58
698.47	12119.29
698.61	12170.79
698.74	12126.32
698.87	11709.70
699.01	11735.45
699.14	11798.64
699.27	11740.13
699.40	11477.99
699.54	11543.52
699.67	11445.22
699.80	11571.61
699.94	11138.61
700.07	11470.97
700.20	11185.42
700.34	11220.53
700.47	11243.93
700.60	11227.55
700.73	11412.45
700.87	11243.93
701.00	11218.19
701.13	11009.88
701.26	11096.48
701.40	11098.82
701.53	10918.60
701.66	11070.73
701.79	10895.19
701.93	10801.57
702.06	10525.39
702.19	10551.14
702.32	10630.71
702.46	10377.94
702.59	10604.97
702.72	10389.64
702.85	10438.79
702.99	10326.44
703.12	10363.89
703.25	10244.52
703.38	10235.16
703.51	10277.29
703.65	10237.50
703.78	10209.42
703.91	9991.75
704.04	10127.50
704.17	9987.07
704.31	9863.02
704.44	10101.75
704.57	9802.16
704.70	9900.47
704.83	9647.69
704.96	9685.14
705.10	9722.59
705.23	9577.47
>>>>>End Processed Spectral Data<<<<<
