SpectraSuite Data File
++++++++++++++++++++++++++++++++++++
Date: Fri Oct 18 13:58:27 GMT-05:00 2013
User: bianchi
Dark Spectrum Present: No
Reference Spectrum Present: No
Number of Sampled Component Spectra: 1
Spectrometers: USB2+H05261
Integration Time (usec): 50000 (USB2+H05261)
Spectra Averaged: 1 (USB2+H05261)
Boxcar Smoothing: 0 (USB2+H05261)
Correct for Electrical Dark: No (USB2+H05261)
Strobe/Lamp Enabled: No (USB2+H05261)
Correct for Detector Non-linearity: No (USB2+H05261)
Correct for Stray Light: No (USB2+H05261)
Number of Pixels in Processed Spectrum: 2048
>>>>>Begin Processed Spectral Data<<<<<
365.73	0.00
365.92	0.00
366.12	0.00
366.32	0.00
366.52	0.00
366.72	0.00
366.91	0.00
367.11	0.00
367.31	0.00
367.51	0.00
367.70	0.00
367.90	0.00
368.10	0.00
368.30	0.00
368.49	0.00
368.69	0.00
368.89	0.00
369.09	0.00
369.28	0.00
369.48	0.00
369.68	0.00
369.87	0.00
370.07	0.00
370.27	0.00
370.47	0.00
370.66	107.66
370.86	112.35
371.06	205.97
371.25	149.79
371.45	145.11
371.65	140.43
371.84	100.64
372.04	124.05
372.24	196.60
372.44	88.94
372.63	152.13
372.83	140.43
373.03	201.29
373.22	149.79
373.42	180.22
373.62	229.37
373.81	224.69
374.01	287.89
374.21	234.05
374.40	220.01
374.60	227.03
374.79	266.82
374.99	168.52
375.19	245.76
375.38	259.80
375.58	245.76
375.78	327.68
375.97	255.12
376.17	304.27
376.37	271.50
376.56	308.95
376.76	238.73
376.95	252.78
377.15	191.92
377.35	269.16
377.54	269.16
377.74	236.39
377.93	236.39
378.13	210.65
378.33	191.92
378.52	313.63
378.72	327.68
378.91	259.80
379.11	271.50
379.31	236.39
379.50	311.29
379.70	376.83
379.89	241.08
380.09	322.99
380.28	198.95
380.48	189.58
380.68	344.06
380.87	360.44
381.07	266.82
381.26	395.55
381.46	381.51
381.65	306.61
381.85	351.08
382.04	266.82
382.24	381.51
382.43	388.53
382.63	351.08
382.83	355.76
383.02	416.62
383.22	374.49
383.41	376.83
383.61	315.97
383.80	332.36
384.00	461.09
384.19	367.46
384.39	369.80
384.58	393.21
384.78	418.96
384.97	367.46
385.17	325.33
385.36	367.46
385.56	404.91
385.75	388.53
385.95	346.40
386.14	414.27
386.34	358.10
386.53	372.15
386.72	315.97
386.92	472.79
387.11	395.55
387.31	351.08
387.50	360.44
387.70	505.56
387.89	409.59
388.09	407.25
388.28	477.47
388.48	397.89
388.67	421.30
388.86	435.34
389.06	404.91
389.25	348.74
389.45	524.28
389.64	400.23
389.84	442.36
390.03	491.51
390.22	498.53
390.42	355.76
390.61	498.53
390.81	540.66
391.00	585.13
391.19	461.09
391.39	484.49
391.58	559.39
391.78	491.51
391.97	503.22
392.16	428.32
392.36	482.15
392.55	510.24
392.75	543.00
392.94	608.54
393.13	566.41
393.33	484.49
393.52	573.43
393.71	547.69
393.91	613.22
394.10	573.43
394.29	547.69
394.49	627.26
394.68	671.73
394.88	521.94
395.07	592.16
395.26	643.65
395.46	615.56
395.65	669.39
395.84	594.50
396.04	606.20
396.23	617.90
396.42	589.82
396.62	622.58
396.81	660.03
397.00	613.22
397.19	575.77
397.39	613.22
397.58	575.77
397.77	699.82
397.97	650.67
398.16	636.63
398.35	695.14
398.55	674.07
398.74	624.92
398.93	753.65
399.12	699.82
399.32	681.10
399.51	695.14
399.70	709.18
399.90	648.33
400.09	765.36
400.28	809.83
400.47	725.57
400.67	805.14
400.86	734.93
401.05	779.40
401.24	725.57
401.44	807.48
401.63	835.57
401.82	814.51
402.01	755.99
402.21	847.27
402.40	858.98
402.59	774.72
402.78	823.87
402.97	821.53
403.17	784.08
403.36	800.46
403.55	791.10
403.74	891.74
403.93	858.98
404.13	884.72
404.32	866.00
404.51	959.62
404.70	863.66
404.89	903.45
405.09	889.40
405.28	983.02
405.47	884.72
405.66	938.55
405.85	964.30
406.05	936.21
406.24	926.85
406.43	933.87
406.62	957.28
406.81	1142.18
407.00	994.73
407.20	1013.45
407.39	973.66
407.58	1048.56
407.77	990.05
407.96	1086.01
408.15	1146.86
408.34	1069.62
408.54	1177.29
408.73	1025.15
408.92	1029.84
409.11	1149.20
409.30	1027.50
409.49	1083.67
409.68	1177.29
409.87	1153.88
410.07	1170.27
410.26	1095.37
410.45	1125.80
410.64	1205.38
410.83	1116.44
411.02	1228.78
411.21	1254.53
411.40	1217.08
411.59	1242.82
411.78	1242.82
411.98	1172.61
412.17	1303.68
412.36	1315.38
412.55	1289.64
412.74	1320.06
412.93	1350.49
413.12	1334.11
413.31	1261.55
413.50	1394.96
413.69	1465.18
413.88	1409.00
414.07	1383.26
414.26	1343.47
414.45	1521.35
414.64	1444.11
414.83	1596.25
415.02	1577.52
415.22	1516.67
415.41	1523.69
415.60	1533.05
415.79	1582.20
415.98	1561.14
416.17	1521.35
416.36	1575.18
416.55	1605.61
416.74	1563.48
416.93	1760.08
417.12	1650.08
417.31	1727.32
417.50	1713.27
417.69	1706.25
417.88	1689.87
418.07	1776.47
418.26	1717.95
418.45	1769.44
418.64	1832.64
418.83	1785.83
419.02	1739.02
419.21	1734.34
419.39	1720.29
419.58	1804.55
419.77	1774.13
419.96	1952.01
420.15	1795.19
420.34	1797.53
420.53	1891.15
420.72	1799.87
420.91	1891.15
421.10	2047.97
421.29	1865.41
421.48	1846.68
421.67	1907.54
421.86	2052.65
422.05	1867.75
422.24	1900.52
422.43	1912.22
422.61	1970.73
422.80	2043.29
422.99	2064.35
423.18	2008.18
423.37	1937.96
423.56	2010.52
423.75	1952.01
423.94	1919.24
424.13	1823.28
424.32	2003.50
424.50	2001.16
424.69	2031.58
424.88	2005.84
425.07	2040.95
425.26	1961.37
425.45	2054.99
425.64	2012.86
425.83	2050.31
426.01	2139.25
426.20	1977.75
426.39	2012.86
426.58	1966.05
426.77	2059.67
426.96	2090.10
427.15	2097.12
427.33	2134.57
427.52	2022.22
427.71	2132.23
427.90	2033.93
428.09	2183.72
428.28	2129.89
428.46	2223.51
428.65	2134.57
428.84	2188.40
429.03	2335.85
429.22	2214.15
429.40	2235.21
429.59	2260.96
429.78	2045.63
429.97	2139.25
430.16	2146.27
430.34	2331.17
430.53	2363.94
430.72	2356.92
430.91	2300.75
431.10	2296.07
431.28	2361.60
431.47	2349.90
431.66	2476.29
431.85	2345.22
432.03	2377.98
432.22	2466.92
432.41	2457.56
432.60	2504.37
432.79	2438.84
432.97	2499.69
433.16	2324.15
433.35	2352.24
433.54	2502.03
433.72	2513.74
433.91	2314.79
434.10	2506.71
434.28	2583.95
434.47	2469.27
434.66	2504.37
434.85	2616.72
435.03	2572.25
435.22	2553.52
435.41	2633.10
435.59	2586.29
435.78	2569.91
435.97	2583.95
436.16	2532.46
436.34	2553.52
436.53	2717.36
436.72	2750.13
436.90	2698.64
437.09	2768.85
437.28	2710.34
437.46	2761.83
437.65	2799.28
437.84	2757.15
438.02	2792.26
438.21	2722.04
438.40	2745.45
438.58	2839.07
438.77	2832.05
438.96	2928.01
439.14	2785.24
439.33	2836.73
439.52	2888.22
439.70	2888.22
439.89	3040.36
440.08	2981.84
440.26	2920.99
440.45	3000.57
440.63	3063.76
440.82	3190.15
441.01	3033.33
441.19	3063.76
441.38	3117.59
441.57	3068.44
441.75	3201.85
441.94	3173.77
442.12	3218.24
442.31	3222.92
442.50	3199.51
442.68	3220.58
442.87	3286.11
443.05	3421.86
443.24	3236.96
443.43	3267.39
443.61	3379.73
443.80	3421.86
443.98	3260.37
444.17	3337.60
444.35	3405.48
444.54	3332.92
444.73	3445.27
444.91	3339.94
445.10	3496.76
445.28	3251.00
445.47	3337.60
445.65	3454.63
445.84	3459.31
446.02	3578.68
446.21	3466.33
446.39	3363.35
446.58	3435.91
446.77	3454.63
446.95	3302.50
447.14	3330.58
447.32	3478.04
447.51	3454.63
447.69	3440.59
447.88	3468.67
448.06	3454.63
448.25	3304.84
448.43	3480.38
448.62	3536.55
448.80	3517.83
448.99	3655.92
449.17	3588.04
449.36	3524.85
449.54	3641.87
449.73	3674.64
449.91	3681.66
450.10	3674.64
450.28	3801.03
450.46	3637.19
450.65	3637.19
450.83	3630.17
451.02	3747.20
451.20	3791.67
451.39	3840.82
451.57	3782.31
451.76	3662.94
451.94	3866.56
452.13	3758.90
452.31	3730.81
452.49	3761.24
452.68	3749.54
452.86	3730.81
453.05	3955.51
453.23	3740.18
453.42	3782.31
453.60	3854.86
453.78	3871.25
453.97	3845.50
454.15	3854.86
454.34	3889.97
454.52	4032.74
454.70	3999.98
454.89	4002.32
455.07	4081.89
455.26	3999.98
455.44	4037.42
455.62	4030.40
455.81	4098.28
455.99	3974.23
456.17	4109.98
456.36	4100.62
456.54	4203.60
456.73	4142.75
456.91	4358.08
457.09	4236.37
457.28	4435.32
457.46	4126.36
457.64	4297.22
457.83	4299.56
458.01	4234.03
458.19	4292.54
458.38	4315.95
458.56	4318.29
458.74	4374.46
458.93	4386.16
459.11	4484.47
459.29	4376.80
459.48	4451.70
459.66	4491.49
459.84	4383.82
460.03	4440.00
460.21	4440.00
460.39	4498.51
460.57	4444.68
460.76	4643.62
460.94	4734.90
461.12	4603.83
461.31	4580.43
461.49	4638.94
461.67	4498.51
461.85	4683.41
462.04	4674.05
462.22	4861.29
462.40	4753.63
462.59	4737.24
462.77	4650.64
462.95	4739.58
463.13	4819.16
463.32	4741.93
463.50	4802.78
463.68	4739.58
463.86	4828.53
464.05	4809.80
464.23	4851.93
464.41	4837.89
464.59	4683.41
464.78	4819.16
464.96	4809.80
465.14	4751.29
465.32	4933.85
465.50	4858.95
465.69	5008.75
465.87	4812.14
466.05	4978.32
466.23	4896.40
466.41	4919.81
466.60	5109.39
466.78	5097.69
466.96	4987.68
467.14	4823.84
467.32	5067.26
467.51	5130.45
467.69	4884.70
467.87	5095.35
468.05	5081.30
468.23	5095.35
468.41	5104.71
468.60	4919.81
468.78	5158.54
468.96	5102.37
469.14	5238.12
469.32	5186.63
469.50	5029.81
469.69	5245.14
469.87	5233.44
470.05	5331.74
470.23	5401.96
470.41	5418.34
470.59	5418.34
470.77	5411.32
470.95	5273.23
471.14	5481.53
471.32	5249.82
471.50	5647.71
471.68	5568.13
471.86	5476.85
472.04	5544.73
472.22	5713.25
472.40	5572.82
472.58	5572.82
472.77	5776.44
472.95	5680.48
473.13	5844.32
473.31	5806.87
473.49	5767.08
473.67	5750.70
473.85	5661.76
474.03	5785.80
474.21	5921.56
474.39	6099.44
474.57	6069.01
474.75	6115.82
474.93	6111.14
475.12	6122.84
475.30	5973.05
475.48	6157.95
475.66	6029.22
475.84	6291.36
476.02	6413.07
476.20	6272.64
476.38	6347.53
476.56	6455.20
476.74	6513.71
476.92	6415.41
477.10	6396.68
477.28	6607.33
477.46	6452.86
477.64	6665.85
477.82	6750.10
478.00	6806.28
478.18	6612.01
478.36	6904.58
478.54	7035.65
478.72	7070.76
478.90	7087.14
479.08	6991.18
479.26	7323.54
479.44	7084.80
479.62	7295.45
479.80	7337.58
479.98	7307.15
480.16	7461.63
480.34	7503.76
480.52	7435.88
480.70	7559.93
480.88	7585.68
481.06	7681.64
481.24	7662.91
481.41	7782.28
481.59	7721.43
481.77	7836.11
481.95	8023.36
482.13	7950.80
482.31	8095.91
482.49	8210.60
482.67	8175.49
482.85	8301.88
483.03	8259.75
483.21	8351.03
483.39	8432.95
483.57	8454.02
483.74	8430.61
483.92	8575.72
484.10	8641.26
484.28	8702.11
484.46	8842.54
484.64	9071.92
484.82	8915.10
485.00	9102.34
485.18	9254.48
485.35	9369.16
485.53	9341.08
485.71	9275.54
485.89	9703.86
486.07	9504.92
486.25	9657.05
486.43	9432.36
486.61	9645.35
486.78	9603.22
486.96	9818.55
487.14	10078.35
487.32	9891.10
487.50	10026.86
487.68	10132.18
487.85	10300.70
488.03	10270.27
488.21	10380.28
488.39	10614.33
488.57	10300.70
488.75	10373.25
488.92	10604.97
489.10	10555.82
489.28	10846.04
489.46	11002.86
489.64	10864.77
489.81	11084.78
489.99	11000.52
490.17	11328.19
490.35	11426.50
490.53	11398.41
490.70	11489.69
490.88	11403.09
491.06	11709.70
491.24	11398.41
491.41	11557.57
491.59	11782.26
491.77	11918.01
491.95	12081.85
492.13	12189.51
492.30	12030.35
492.48	12140.36
492.66	12322.92
492.84	12138.02
493.01	12374.41
493.19	12435.27
493.37	12615.49
493.54	12542.93
493.72	12751.24
493.90	12624.85
494.08	12793.37
494.25	12791.03
494.43	12975.93
494.61	13011.04
494.79	13092.96
494.96	13275.52
495.14	13387.86
495.32	13474.46
495.49	13376.16
495.67	13341.05
495.85	13628.94
496.02	13685.11
496.20	13799.80
496.38	13687.45
496.55	13741.29
496.73	14120.45
496.91	13738.94
497.09	13841.93
497.26	14087.68
497.44	14136.84
497.62	14122.79
497.79	14291.31
497.97	14305.35
498.14	14499.62
498.32	14906.87
498.50	14602.60
498.67	14487.92
498.85	14633.03
499.03	14736.01
499.20	14906.87
499.38	14775.80
499.56	14892.83
499.73	14939.64
499.91	15363.28
500.08	15412.43
500.26	15222.84
500.44	14977.09
500.61	15538.82
500.79	15225.18
500.97	15515.41
501.14	15548.18
501.32	15644.14
501.49	15515.41
501.67	15403.07
501.84	15641.80
502.02	15756.49
502.20	15953.09
502.37	15819.68
502.55	15927.35
502.72	15999.90
502.90	15976.50
503.07	15871.17
503.25	15824.36
503.43	16121.61
503.60	16444.60
503.78	16208.21
503.95	16599.08
504.13	16393.11
504.30	16332.26
504.48	16280.77
504.65	16484.39
504.83	16669.30
505.01	16683.34
505.18	16959.52
505.36	16830.79
505.53	16720.79
505.71	16776.96
505.88	17109.32
506.06	16858.88
506.23	17048.46
506.41	17053.14
506.58	17055.48
506.76	17280.18
506.93	17153.79
507.11	17378.48
507.28	17137.40
507.46	17348.05
507.63	17509.55
507.81	17240.39
507.98	17624.23
508.16	17689.77
508.33	17724.88
508.50	17769.35
508.68	17530.61
508.85	17853.61
509.03	18085.32
509.20	17949.57
509.38	17862.97
509.55	18036.17
509.73	18190.64
509.90	18178.94
510.08	18174.26
510.25	18045.53
510.42	18300.65
510.60	18420.02
510.77	18097.02
510.95	18611.94
511.12	18403.63
511.30	18370.86
511.47	18558.11
511.64	18719.60
511.82	18691.52
511.99	18757.05
512.17	19021.53
512.34	18827.27
512.51	18843.65
512.69	18991.11
512.86	18724.29
513.04	18899.83
513.21	19112.81
513.38	19318.78
513.56	19164.31
513.73	18726.63
513.90	19445.17
514.08	19161.97
514.25	19257.93
514.43	19356.23
514.60	19606.67
514.77	19316.44
514.95	19721.35
515.12	19679.22
515.29	19461.55
515.47	19447.51
515.64	19569.22
515.81	19719.01
515.99	20121.59
516.16	19971.79
516.33	20053.71
516.51	19711.99
516.68	19735.40
516.85	19833.70
517.03	20149.67
517.20	20236.27
517.37	20500.75
517.54	20233.93
517.72	20217.55
517.89	20231.59
518.06	20409.47
518.24	20210.53
518.41	20390.75
518.58	20425.86
518.75	20641.18
518.93	20353.30
519.10	21064.82
519.27	20659.91
519.45	20802.68
519.62	20482.03
519.79	20711.40
519.96	20652.89
520.14	20865.88
520.31	21034.39
520.48	21018.01
520.65	20992.26
520.83	20917.37
521.00	21392.50
521.17	21245.04
521.34	21270.79
521.52	20919.71
521.69	21151.42
521.86	21053.12
522.03	21245.04
522.20	21640.59
522.38	21507.18
522.55	21600.80
522.72	21542.29
522.89	21509.52
523.07	21619.53
523.24	22066.57
523.41	21832.52
523.58	21385.47
523.75	21914.44
523.92	21645.27
524.10	21811.45
524.27	22029.12
524.44	22211.68
524.61	22157.85
524.78	22167.21
524.96	22104.02
525.13	22153.17
525.30	22324.03
525.47	22398.93
525.64	22223.39
525.81	22237.43
525.98	22618.94
526.16	22363.82
526.33	22445.74
526.50	22869.37
526.67	22174.24
526.84	22527.66
527.01	22635.32
527.18	22700.86
527.36	22569.79
527.53	22548.72
527.70	22911.50
527.87	22686.81
528.04	23077.68
528.21	22984.06
528.38	22677.45
528.55	22948.95
528.72	22700.86
528.89	23075.34
529.07	23026.19
529.24	23122.15
529.41	23384.29
529.58	23070.66
529.75	23084.70
529.92	23075.34
530.09	23089.38
530.26	23466.21
530.43	23412.38
530.60	23461.53
530.77	23239.18
530.94	23592.60
531.11	23543.45
531.28	23346.84
531.46	23576.22
531.63	23611.32
531.80	23597.28
531.97	23901.55
532.14	23995.17
532.31	23428.76
532.48	23971.77
532.65	23908.57
532.82	23585.58
532.99	23718.99
533.16	23920.28
533.33	23723.67
533.50	23974.11
533.67	24144.97
533.84	24189.44
534.01	24077.09
534.18	23810.27
534.35	24180.07
534.52	24196.46
534.69	24236.25
534.86	24159.01
535.03	23943.68
535.20	24135.60
535.37	24423.49
535.54	24290.08
535.71	24060.71
535.88	24353.27
536.05	24336.89
536.22	24559.24
536.38	24664.57
536.55	24503.07
536.72	24900.96
536.89	24638.82
537.06	24556.90
537.23	24774.57
537.40	24828.40
537.57	24765.21
537.74	24535.84
537.91	24945.43
538.08	24940.75
538.25	24685.63
538.42	24919.68
538.59	24917.34
538.75	24898.62
538.92	25207.57
539.09	25329.28
539.26	24961.81
539.43	24842.45
539.60	25067.14
539.77	24861.17
539.94	25205.23
540.11	25336.30
540.28	25127.99
540.44	25357.36
540.61	25186.50
540.78	25280.13
540.95	25415.88
541.12	25167.78
541.29	25268.42
541.46	25343.32
541.62	25238.00
541.79	25549.29
541.96	25436.94
542.13	25158.42
542.30	25876.96
542.47	25458.01
542.63	25502.48
542.80	26178.89
542.97	26106.34
543.14	25869.94
543.31	26300.60
543.48	26096.97
543.64	26064.21
543.81	26057.18
543.98	26183.57
544.15	25895.69
544.32	25993.99
544.48	26038.46
544.65	26190.59
544.82	26321.66
544.99	26015.05
545.16	26228.04
545.32	26010.37
545.49	26216.34
545.66	26848.29
545.83	26431.67
546.00	26555.72
546.16	26431.67
546.33	26141.44
546.50	25986.97
546.67	26368.48
546.83	26242.09
547.00	26361.45
547.17	26567.42
547.34	26696.15
547.50	26167.19
547.67	26658.70
547.84	26686.79
548.00	26911.48
548.17	26857.65
548.34	26609.55
548.51	26827.22
548.67	27150.21
548.84	26726.58
549.01	26953.61
549.18	27199.37
549.34	26892.76
549.51	26958.29
549.68	27122.13
549.84	26611.89
550.01	27194.68
550.18	26689.13
550.34	27197.02
550.51	27061.27
550.68	27117.45
550.84	26824.88
551.01	26988.72
551.18	26567.42
551.34	27150.21
551.51	26867.01
551.68	27218.09
551.84	27199.37
552.01	27391.29
552.18	27564.49
552.34	27166.60
552.51	27386.61
552.68	27140.85
552.84	27351.50
553.01	27271.92
553.18	27278.94
553.34	27545.76
553.51	27517.68
553.67	27323.41
553.84	27768.12
554.01	27316.39
554.17	27370.22
554.34	27391.29
554.51	27583.21
554.67	27550.45
554.84	27777.48
555.00	27744.71
555.17	27880.46
555.33	27831.31
555.50	27487.25
555.67	27550.45
555.83	27454.48
556.00	27463.85
556.16	28290.06
556.33	27763.43
556.50	28166.01
556.66	28098.13
556.83	27477.89
556.99	28154.30
557.16	28224.52
557.32	28098.13
557.49	28271.33
557.65	27768.12
557.82	27878.12
557.98	28184.73
558.15	28215.16
558.32	28381.34
558.48	28332.18
558.65	28189.41
558.81	28456.23
558.98	27997.49
559.14	27819.61
559.31	28238.56
559.47	27964.72
559.64	28018.55
559.80	28224.52
559.97	28339.21
560.13	28041.96
560.30	28386.02
560.46	28254.95
560.63	28142.60
560.79	28236.22
560.96	28650.50
561.12	28327.50
561.29	28554.54
561.45	28496.02
561.61	28428.15
561.78	28687.95
561.94	28381.34
562.11	28430.49
562.27	28318.14
562.44	28088.77
562.60	28617.73
562.77	28479.64
562.93	28554.54
563.10	28547.51
563.26	28348.57
563.42	28479.64
563.59	28690.29
563.75	28753.48
563.92	28849.44
564.08	28753.48
564.24	28322.82
564.41	28524.11
564.57	28491.34
564.74	28622.41
564.90	28355.59
565.07	28685.61
565.23	28652.84
565.39	28694.97
565.56	28996.90
565.72	28833.06
565.88	28610.71
566.05	28570.92
566.21	28531.13
566.38	28797.95
566.54	28889.23
566.70	29219.25
566.87	28870.51
567.03	28924.34
567.19	28982.85
567.36	29006.26
567.52	29027.32
567.68	28744.12
567.85	28840.08
568.01	28704.33
568.17	28793.27
568.34	29097.54
568.50	28797.95
568.66	28870.51
568.83	29057.75
568.99	28659.86
569.15	28900.94
569.32	28975.83
569.48	28589.64
569.64	28830.72
569.81	29303.51
569.97	28872.85
570.13	29013.28
570.30	28811.99
570.46	29319.89
570.62	29064.77
570.78	28893.91
570.95	28596.67
571.11	29048.39
571.27	28847.10
571.43	28835.40
571.60	29191.16
571.76	29034.35
571.92	29373.72
572.09	28896.25
572.25	28835.40
572.41	29067.11
572.57	29289.46
572.74	29125.63
572.90	29069.45
573.06	29230.95
573.22	29064.77
573.38	29219.25
573.55	29106.90
573.71	29331.59
573.87	29303.51
574.03	29151.37
574.20	29301.17
574.36	29043.71
574.52	29034.35
574.68	29062.43
574.84	28950.09
575.01	29209.89
575.17	29252.02
575.33	29050.73
575.49	29039.03
575.65	28952.43
575.82	29364.36
575.98	29137.33
576.14	29345.64
576.30	29315.21
576.46	29142.01
576.62	28929.02
576.79	29392.45
576.95	29261.38
577.11	29465.00
577.27	29432.24
577.43	29305.85
577.59	29673.31
577.75	29146.69
577.92	29064.77
578.08	29221.59
578.24	29244.99
578.40	29078.82
578.56	29347.98
578.72	29408.83
578.88	29305.85
579.04	29376.06
579.21	29294.14
579.37	29319.89
579.53	29617.14
579.69	29479.05
579.85	29177.12
580.01	28985.19
580.17	29364.36
580.33	29848.85
580.49	29565.65
580.65	29802.04
580.82	29537.56
580.98	29170.10
581.14	29483.73
581.30	29359.68
581.46	29237.97
581.62	29570.33
581.78	28924.34
581.94	29048.39
582.10	29263.72
582.26	29434.58
582.42	29448.62
582.58	29273.08
582.74	29614.80
582.90	29078.82
583.06	29518.84
583.22	29397.13
583.38	29071.79
583.54	29125.63
583.70	29144.35
583.86	29308.19
584.02	29319.89
584.18	29333.93
584.34	29640.54
584.50	29509.47
584.66	29336.27
584.82	29315.21
584.98	29048.39
585.14	29347.98
585.30	29497.77
585.46	29556.28
585.62	29425.22
585.78	29504.79
585.94	29261.38
586.10	29479.05
586.26	29610.12
586.42	29724.80
586.58	29635.86
586.74	29563.31
586.90	29371.38
587.06	29404.15
587.22	29249.67
587.38	29336.27
587.54	29312.87
587.70	29422.87
587.86	29490.75
588.02	29724.80
588.18	30066.52
588.34	29528.20
588.49	29743.53
588.65	29511.81
588.81	29277.76
588.97	29778.64
589.13	29521.18
589.29	29652.25
589.45	29450.96
589.61	29853.53
589.77	30108.65
589.93	29706.08
590.08	29916.73
590.24	29603.10
590.40	30082.91
590.56	29832.47
590.72	29455.64
590.88	29249.67
591.04	29617.14
591.20	29940.13
591.35	29816.08
591.51	30150.78
591.67	30190.57
591.83	29888.64
591.99	29809.06
592.15	29839.49
592.31	29841.83
592.46	29680.33
592.62	29701.40
592.78	29535.22
592.94	29778.64
593.10	29788.00
593.26	30202.27
593.41	29865.24
593.57	30136.74
593.73	30181.21
593.89	30103.97
594.05	29862.90
594.20	29563.31
594.36	29813.74
594.52	29776.30
594.68	29649.91
594.84	29729.48
594.99	29649.91
595.15	29584.37
595.31	30005.67
595.47	30150.78
595.62	30143.76
595.78	30110.99
595.94	30066.52
596.10	29961.20
596.25	29890.98
596.41	29736.51
596.57	29411.17
596.73	30171.85
596.88	29745.87
597.04	29820.77
597.20	30125.04
597.36	30038.44
597.51	29890.98
597.67	30249.08
597.83	30047.80
597.99	30246.74
598.14	29982.26
598.30	29745.87
598.46	29954.18
598.61	30024.39
598.77	29937.79
598.93	29874.60
599.09	29968.22
599.24	30272.49
599.40	30146.10
599.56	29928.43
599.71	30302.92
599.87	30443.35
600.03	30022.05
600.18	30298.23
600.34	30045.46
600.50	30050.14
600.65	30047.80
600.81	30288.87
600.97	30038.44
601.12	30096.95
601.28	30471.43
601.44	30398.88
601.59	30204.61
601.75	29965.88
601.91	30319.30
602.06	30178.87
602.22	29895.66
602.37	30057.16
602.53	30082.91
602.69	29731.83
602.84	30129.72
603.00	30064.18
603.16	29790.34
603.31	29839.49
603.47	30174.19
603.62	29766.93
603.78	29935.45
603.94	29806.72
604.09	30150.78
604.25	29647.57
604.40	30106.31
604.56	30017.37
604.71	30314.62
604.87	29979.92
605.03	29703.74
605.18	30080.56
605.34	29860.55
605.49	29802.04
605.65	29979.92
605.80	29558.63
605.96	29841.83
606.12	30073.54
606.27	29869.92
606.43	30015.03
606.58	30242.06
606.74	29862.90
606.89	30059.50
607.05	30518.25
607.20	30291.21
607.36	29685.01
607.51	29785.66
607.67	29701.40
607.82	29886.30
607.98	29991.62
608.13	29851.19
608.29	29668.63
608.44	29914.39
608.60	29830.13
608.75	30043.12
608.91	30036.09
609.06	29783.32
609.22	30190.57
609.37	29577.35
609.53	29577.35
609.68	29780.98
609.84	29535.22
609.99	29647.57
610.15	29780.98
610.30	29509.47
610.46	29628.84
610.61	29865.24
610.76	29944.81
610.92	29624.16
611.07	29977.58
611.23	29277.76
611.38	29628.84
611.54	29799.70
611.69	29359.68
611.84	29495.43
612.00	29532.88
612.15	29469.69
612.31	29806.72
612.46	29898.00
612.62	29804.38
612.77	29504.79
612.92	29603.10
613.08	29427.56
613.23	29359.68
613.39	29209.89
613.54	29212.23
613.69	29134.99
613.85	29518.84
614.00	29422.87
614.15	29465.00
614.31	29383.09
614.46	29656.93
614.62	29364.36
614.77	29429.90
614.92	29301.17
615.08	29380.74
615.23	29422.87
615.38	29167.76
615.54	28940.72
615.69	29053.07
615.84	29266.06
616.00	29406.49
616.15	29050.73
616.30	29418.19
616.46	29355.00
616.61	29600.76
616.76	29165.42
616.92	29060.09
617.07	29127.97
617.22	29102.22
617.37	29170.10
617.53	29207.55
617.68	29013.28
617.83	29041.37
617.99	29174.78
618.14	29130.31
618.29	29397.13
618.45	29263.72
618.60	29017.96
618.75	29046.05
618.90	28933.70
619.06	29078.82
619.21	28966.47
619.36	29022.64
619.51	28540.49
619.67	28739.44
619.82	28594.32
619.97	28613.05
620.12	28617.73
620.28	28809.65
620.43	29074.13
620.58	28945.41
620.73	28999.24
620.89	29076.48
621.04	28807.31
621.19	28711.35
621.34	28680.92
621.49	28716.03
621.65	28510.07
621.80	29024.98
621.95	28596.67
622.10	28779.23
622.25	28734.76
622.41	28657.52
622.56	28772.21
622.71	28528.79
622.86	28503.04
623.01	28599.01
623.16	28760.50
623.32	28226.86
623.47	28636.45
623.62	28659.86
623.77	28500.70
623.92	28769.86
624.07	28589.64
624.23	28268.99
624.38	28833.06
624.53	28608.37
624.68	28435.17
624.83	28767.52
624.98	28346.23
625.13	28456.23
625.29	28833.06
625.44	28226.86
625.59	28088.77
625.74	27934.29
625.89	28119.20
626.04	28098.13
626.19	28063.02
626.34	27955.36
626.49	28048.98
626.65	27730.67
626.80	28240.90
626.95	28060.68
627.10	27892.16
627.25	28086.43
627.40	28231.54
627.55	27896.85
627.70	27889.82
627.85	27852.38
628.00	27885.14
628.15	27908.55
628.30	27704.92
628.45	27969.40
628.60	27449.80
628.76	27981.10
628.91	28252.61
629.06	27864.08
629.21	27697.90
629.36	28114.52
629.51	27618.32
629.66	27721.30
629.81	27810.25
629.96	27711.94
630.11	27449.80
630.26	27824.29
630.41	27550.45
630.56	27662.79
630.71	27725.99
630.86	27744.71
631.01	27924.93
631.16	27740.03
631.31	27899.19
631.46	27599.60
631.61	27623.00
631.76	27686.20
631.91	27491.93
632.06	27491.93
632.21	27056.59
632.36	27236.81
632.51	27477.89
632.66	27250.86
632.81	27042.55
632.96	27871.10
633.10	27213.41
633.25	27463.85
633.40	27571.51
633.55	27688.54
633.70	27475.55
633.85	27033.19
634.00	27215.75
634.15	27271.92
634.30	27164.26
634.45	27304.69
634.60	26941.91
634.75	26850.63
634.90	27278.94
635.05	27276.60
635.19	27440.44
635.34	27117.45
635.49	27080.00
635.64	27543.42
635.79	26960.63
635.94	27168.94
636.09	27260.22
636.24	27175.96
636.39	26506.57
636.53	26742.96
636.68	26726.58
636.83	26789.77
636.98	27122.13
637.13	26984.04
637.28	27094.04
637.43	27173.62
637.57	27063.61
637.72	27030.85
637.87	26834.24
638.02	26581.46
638.17	26635.30
638.32	26679.77
638.46	26656.36
638.61	26780.41
638.76	26249.11
638.91	26164.85
639.06	26691.47
639.20	26806.16
639.35	26806.16
639.50	26838.92
639.65	26829.56
639.80	26815.52
639.94	26508.91
640.09	26480.82
640.24	26483.16
640.39	26757.00
640.54	26382.52
640.68	26267.83
640.83	26513.59
640.98	26230.38
641.13	26232.72
641.27	26263.15
641.42	26529.97
641.57	26148.46
641.72	26522.95
641.86	26438.69
642.01	25940.16
642.16	26387.20
642.31	26221.02
642.45	26562.74
642.60	26066.55
642.75	26246.77
642.90	25930.80
643.04	26342.73
643.19	26223.36
643.34	26625.93
643.48	25710.78
643.63	26176.55
643.78	26167.19
643.93	26122.72
644.07	26012.71
644.22	26129.74
644.37	26349.75
644.51	26249.11
644.66	26066.55
644.81	25961.22
644.95	25867.60
645.10	26005.69
645.25	26089.95
645.39	26199.96
645.54	25834.83
645.69	25928.45
645.83	25886.32
645.98	26225.70
646.13	26199.96
646.27	26108.68
646.42	25956.54
646.57	25937.82
646.71	25802.07
646.86	25769.30
647.00	25944.84
647.15	25998.67
647.30	25584.40
647.44	25883.98
647.59	25811.43
647.74	25546.95
647.88	25956.54
648.03	25862.92
648.17	25649.93
648.32	25872.28
648.47	25678.02
648.61	25961.22
648.76	25858.24
648.90	25933.14
649.05	25422.90
649.20	25446.30
649.34	25425.24
649.49	25500.14
649.63	25184.16
649.78	25465.03
649.92	25640.57
650.07	25460.35
650.21	25546.95
650.36	25720.15
650.51	25549.29
650.65	25614.82
650.80	25659.29
650.94	25289.49
651.09	25305.87
651.23	25333.96
651.38	25422.90
651.52	25294.17
651.67	24989.90
651.81	25282.47
651.96	25364.39
652.10	25338.64
652.25	25343.32
652.39	25380.77
652.54	25287.15
652.68	25113.95
652.83	25422.90
652.97	25645.25
653.12	25230.98
653.26	25053.09
653.41	25333.96
653.55	24985.22
653.70	24952.45
653.84	25202.89
653.99	25071.82
654.13	25329.28
654.27	24966.49
654.42	24863.51
654.56	24872.87
654.71	24861.17
654.85	25284.81
655.00	25067.14
655.14	24954.79
655.29	25193.53
655.43	24947.77
655.57	25277.79
655.72	24744.14
655.86	24849.47
656.01	25088.20
656.15	24702.01
656.30	24826.06
656.44	24617.75
656.58	24975.86
656.73	24428.17
656.87	24835.42
657.01	24425.83
657.16	24744.14
657.30	25015.65
657.45	24790.95
657.59	24664.57
657.73	24596.69
657.88	24648.18
658.02	24673.93
658.16	24313.48
658.31	24402.43
658.45	24505.41
658.60	24290.08
658.74	24039.64
658.88	24493.71
659.03	24437.53
659.17	24208.16
659.31	24496.05
659.46	24545.20
659.60	24400.08
659.74	24599.03
659.89	24325.19
660.03	24151.99
660.17	24797.98
660.32	24201.14
660.46	23964.75
660.60	23950.70
660.74	24226.89
660.89	24041.98
661.03	23927.30
661.17	24205.82
661.32	24264.33
661.46	23836.02
661.60	23660.48
661.74	24018.58
661.89	23913.25
662.03	24018.58
662.17	23697.92
662.31	23828.99
662.46	23859.42
662.60	23812.61
662.74	23648.77
662.88	23513.02
663.03	23379.61
663.17	23531.75
663.31	23222.80
663.45	23726.01
663.60	23756.44
663.74	23255.56
663.88	23606.64
664.02	23365.57
664.17	23576.22
664.31	23538.77
664.45	23367.91
664.59	23440.47
664.73	23328.12
664.88	23021.51
665.02	22885.76
665.16	22904.48
665.30	23147.90
665.44	23014.49
665.59	22909.16
665.73	22970.02
665.87	22920.87
666.01	23227.48
666.15	22927.89
666.29	22845.97
666.44	22965.34
666.58	23157.26
666.72	22532.34
666.86	22551.06
667.00	22995.76
667.14	22824.90
667.28	23075.34
667.43	22689.15
667.57	22967.68
667.71	22586.17
667.85	22204.66
667.99	22586.17
668.13	22373.18
668.27	22555.74
668.41	22508.93
668.56	22319.35
668.70	22761.71
668.84	22480.85
668.98	22401.27
669.12	22551.06
669.26	22490.21
669.40	22043.17
669.54	22328.71
669.68	22094.66
669.82	22082.95
669.96	22068.91
670.10	21692.08
670.25	22080.61
670.39	21823.16
670.53	21860.60
670.67	21996.35
670.81	21776.34
670.95	21886.35
671.09	22010.40
671.23	21675.70
671.37	21678.04
671.51	21790.39
671.65	21949.54
671.79	21755.28
671.93	21596.12
672.07	21399.52
672.21	21303.56
672.35	21502.50
672.49	21380.79
672.63	21317.60
672.77	21425.26
672.91	21287.17
673.05	21151.42
673.19	20957.16
673.33	21268.45
673.47	21193.55
673.61	21263.77
673.75	21207.59
673.89	20936.09
674.03	21226.32
674.17	20945.45
674.31	20725.44
674.45	21139.72
674.59	20713.74
674.73	20772.25
674.87	20608.42
675.01	20526.50
675.15	20489.05
675.29	20294.79
675.43	20741.83
675.56	20638.84
675.70	20308.83
675.84	20709.06
675.98	19955.41
676.12	20493.73
676.26	20744.17
676.40	20449.26
676.54	20360.32
676.68	20252.66
676.82	19775.19
676.96	20386.07
677.10	19833.70
677.23	19852.42
677.37	19639.44
677.51	19503.68
677.65	19840.72
677.79	19360.91
677.93	19363.25
678.07	19473.26
678.21	19377.30
678.34	19461.55
678.48	19269.63
678.62	19634.75
678.76	18930.25
678.90	19325.80
679.04	19084.73
679.18	19124.52
679.31	18874.08
679.45	19063.66
679.59	18916.21
679.73	18878.76
679.87	18665.77
680.00	18735.99
680.14	18904.51
680.28	18595.56
680.42	18714.92
680.56	18670.45
680.70	18448.10
680.83	18422.36
680.97	18436.40
681.11	18740.67
681.25	18302.99
681.39	18422.36
681.52	18279.58
681.66	18136.81
681.80	18146.17
681.94	18274.90
682.07	18005.74
682.21	17825.52
682.35	17940.21
682.49	17666.36
682.62	17394.86
682.76	17649.98
682.90	17509.55
683.04	17703.81
683.17	17488.48
683.31	17598.49
683.45	17795.09
683.59	17500.19
683.72	17729.56
683.86	17411.25
684.00	17151.45
684.13	17139.74
684.27	17289.54
684.41	17191.23
684.55	17003.99
684.68	16861.22
684.82	16709.08
684.96	16725.47
685.09	16908.03
685.23	16517.16
685.37	16706.74
685.50	16681.00
685.64	16641.21
685.78	16936.12
685.91	16622.48
686.05	16730.15
686.19	16875.26
686.32	16531.20
686.46	16538.23
686.60	16130.97
686.73	16217.57
686.87	16194.17
687.01	15789.25
687.14	15978.84
687.28	16004.58
687.42	15784.57
687.55	15854.79
687.69	15700.31
687.82	15676.91
687.96	15878.19
688.10	15646.48
688.23	15740.10
688.37	15428.81
688.50	15697.97
688.64	15604.35
688.78	15482.64
688.91	15248.59
689.05	15499.03
689.18	14977.09
689.32	14927.94
689.46	15112.84
689.59	14881.13
689.73	15321.15
689.86	14848.36
690.00	15066.03
690.13	15143.27
690.27	14684.52
690.41	14883.47
690.54	14686.86
690.68	14757.08
690.81	14649.41
690.95	14799.21
691.08	14850.70
691.22	14555.79
691.35	14324.08
691.49	14726.65
691.62	14525.36
691.76	14228.12
691.89	14101.73
692.03	14031.51
692.16	14200.03
692.30	13832.57
692.43	13760.01
692.57	13846.61
692.70	14036.19
692.84	13895.76
692.97	13860.65
693.11	13764.69
693.24	13900.44
693.38	14029.17
693.51	13722.56
693.65	13701.50
693.78	13437.02
693.92	13617.24
694.05	13554.04
694.19	13701.50
694.32	13261.48
694.45	13032.10
694.59	13006.36
694.72	13319.99
694.86	12931.46
694.99	13074.23
695.13	12858.90
695.26	12641.23
695.39	12952.52
695.53	12863.58
695.66	12765.28
695.80	12762.94
695.93	12863.58
696.07	12594.42
696.20	12676.34
696.33	12758.26
696.47	12615.49
696.60	12425.90
696.73	12163.76
696.87	12674.00
697.00	12248.02
697.14	12219.94
697.27	12166.10
697.40	12084.19
697.54	12079.50
697.67	12238.66
697.80	12051.42
697.94	11770.55
698.07	11803.32
698.21	11950.78
698.34	11887.58
698.47	11698.00
698.61	11566.93
698.74	11971.84
698.87	11857.15
699.01	11494.37
699.14	11534.16
699.27	11433.52
699.40	11583.31
699.54	11482.67
699.67	11510.75
699.80	11433.52
699.94	11089.46
700.07	11194.78
700.20	11211.17
700.34	11028.60
700.47	10927.96
700.60	11178.40
700.73	10984.13
700.87	11129.25
701.00	10890.51
701.13	10871.79
701.26	10752.42
701.40	11073.07
701.53	10939.66
701.66	10766.46
701.79	10663.48
701.93	10729.02
702.06	10497.30
702.19	10338.15
702.32	10464.54
702.46	10223.46
702.59	10303.04
702.72	10218.78
702.85	10132.18
702.99	9982.38
703.12	10368.57
703.25	10076.01
703.38	10157.92
703.51	10036.22
703.65	10003.45
703.78	9998.77
703.91	9966.00
704.04	10003.45
704.17	9811.53
704.31	9921.53
704.44	9792.80
704.57	9734.29
704.70	9633.64
704.83	9537.68
704.96	9483.85
705.10	9570.45
705.23	9425.34
>>>>>End Processed Spectral Data<<<<<
