SpectraSuite Data File
++++++++++++++++++++++++++++++++++++
Date: Fri Oct 18 13:58:29 GMT-05:00 2013
User: bianchi
Dark Spectrum Present: No
Reference Spectrum Present: No
Number of Sampled Component Spectra: 1
Spectrometers: USB2+H05261
Integration Time (usec): 50000 (USB2+H05261)
Spectra Averaged: 1 (USB2+H05261)
Boxcar Smoothing: 0 (USB2+H05261)
Correct for Electrical Dark: No (USB2+H05261)
Strobe/Lamp Enabled: No (USB2+H05261)
Correct for Detector Non-linearity: No (USB2+H05261)
Correct for Stray Light: No (USB2+H05261)
Number of Pixels in Processed Spectrum: 2048
>>>>>Begin Processed Spectral Data<<<<<
365.73	0.00
365.92	0.00
366.12	0.00
366.32	0.00
366.52	0.00
366.72	0.00
366.91	0.00
367.11	0.00
367.31	0.00
367.51	0.00
367.70	0.00
367.90	0.00
368.10	0.00
368.30	0.00
368.49	0.00
368.69	0.00
368.89	0.00
369.09	0.00
369.28	0.00
369.48	0.00
369.68	0.00
369.87	0.00
370.07	0.00
370.27	0.00
370.47	0.00
370.66	112.35
370.86	124.05
371.06	95.96
371.25	175.54
371.45	156.82
371.65	93.62
371.84	154.48
372.04	91.28
372.24	205.97
372.44	227.03
372.63	166.18
372.83	285.55
373.03	128.73
373.22	203.63
373.42	175.54
373.62	184.90
373.81	170.86
374.01	203.63
374.21	262.14
374.40	222.35
374.60	236.39
374.79	215.33
374.99	266.82
375.19	236.39
375.38	203.63
375.58	191.92
375.78	236.39
375.97	184.90
376.17	210.65
376.37	250.44
376.56	278.52
376.76	212.99
376.95	224.69
377.15	339.38
377.35	341.72
377.54	332.36
377.74	278.52
377.93	318.31
378.13	231.71
378.33	250.44
378.52	224.69
378.72	297.25
378.91	234.05
379.11	292.57
379.31	283.20
379.50	283.20
379.70	238.73
379.89	248.10
380.09	325.33
380.28	271.50
380.48	227.03
380.68	290.23
380.87	264.48
381.07	304.27
381.26	311.29
381.46	330.02
381.65	215.33
381.85	280.86
382.04	353.42
382.24	351.08
382.43	339.38
382.63	304.27
382.83	358.10
383.02	348.74
383.22	376.83
383.41	388.53
383.61	400.23
383.80	407.25
384.00	348.74
384.19	430.66
384.39	315.97
384.58	376.83
384.78	447.04
384.97	400.23
385.17	416.62
385.36	409.59
385.56	390.87
385.75	353.42
385.95	409.59
386.14	402.57
386.34	386.19
386.53	421.30
386.72	461.09
386.92	404.91
387.11	414.27
387.31	376.83
387.50	320.65
387.70	449.38
387.89	400.23
388.09	409.59
388.28	433.00
388.48	493.85
388.67	470.45
388.86	489.17
389.06	458.74
389.25	444.70
389.45	444.70
389.64	517.26
389.84	533.64
390.03	414.27
390.22	491.51
390.42	435.34
390.61	535.98
390.81	430.66
391.00	482.15
391.19	496.19
391.39	475.13
391.58	512.58
391.78	573.43
391.97	531.30
392.16	535.98
392.36	514.92
392.55	554.71
392.75	458.74
392.94	573.43
393.13	559.39
393.33	608.54
393.52	526.62
393.71	627.26
393.91	634.29
394.10	603.86
394.29	585.13
394.49	608.54
394.68	697.48
394.88	599.18
395.07	589.82
395.26	585.13
395.46	617.90
395.65	662.37
395.84	603.86
396.04	674.07
396.23	578.11
396.42	566.41
396.62	702.16
396.81	615.56
397.00	664.71
397.19	603.86
397.39	653.01
397.58	655.35
397.77	589.82
397.97	669.39
398.16	594.50
398.35	809.83
398.55	655.35
398.74	709.18
398.93	697.48
399.12	674.07
399.32	744.29
399.51	664.71
399.70	781.74
399.90	662.37
400.09	755.99
400.28	779.40
400.47	699.82
400.67	767.70
400.86	786.42
401.05	821.53
401.24	692.80
401.44	774.72
401.63	765.36
401.82	760.67
402.01	739.61
402.21	849.61
402.40	847.27
402.59	870.68
402.78	814.51
402.97	828.55
403.17	851.96
403.36	830.89
403.55	854.30
403.74	945.58
403.93	905.79
404.13	887.06
404.32	891.74
404.51	910.47
404.70	915.15
404.89	884.72
405.09	1020.47
405.28	994.73
405.47	940.90
405.66	1001.75
405.85	875.36
406.05	931.53
406.24	894.08
406.43	980.68
406.62	924.51
406.81	1062.60
407.00	1029.84
407.20	915.15
407.39	1053.24
407.58	1097.71
407.77	1050.90
407.96	1093.03
408.15	1067.28
408.34	994.73
408.54	1090.69
408.73	1067.28
408.92	1111.75
409.11	1165.59
409.30	1153.88
409.49	1212.40
409.68	1093.03
409.87	1179.63
410.07	1188.99
410.26	1123.46
410.45	1186.65
410.64	1146.86
410.83	1146.86
411.02	1179.63
411.21	1277.93
411.40	1210.06
411.59	1336.45
411.78	1188.99
411.98	1235.80
412.17	1306.02
412.36	1327.08
412.55	1338.79
412.74	1315.38
412.93	1357.51
413.12	1371.55
413.31	1362.19
413.50	1277.93
413.69	1371.55
413.88	1313.04
414.07	1273.25
414.26	1434.75
414.45	1448.79
414.64	1399.64
414.83	1453.47
415.02	1460.49
415.22	1469.86
415.41	1500.28
415.60	1533.05
415.79	1490.92
415.98	1598.59
416.17	1640.72
416.36	1591.56
416.55	1579.86
416.74	1713.27
416.93	1631.35
417.12	1661.78
417.31	1659.44
417.50	1692.21
417.69	1741.36
417.88	1788.17
418.07	1629.01
418.26	1680.50
418.45	1776.47
418.64	1771.79
418.83	1893.49
419.02	1844.34
419.21	1797.53
419.39	1774.13
419.58	1816.26
419.77	1877.11
419.96	1947.33
420.15	1944.99
420.34	1830.30
420.53	1888.81
420.72	1816.26
420.91	1891.15
421.10	1954.35
421.29	2012.86
421.48	1867.75
421.67	1905.20
421.86	1996.48
422.05	1935.62
422.24	1977.75
422.43	2036.27
422.61	1856.04
422.80	2052.65
422.99	1977.75
423.18	2045.63
423.37	2076.06
423.56	2062.01
423.75	1987.11
423.94	2059.67
424.13	1891.15
424.32	1926.26
424.50	2005.84
424.69	2038.61
424.88	2183.72
425.07	2015.20
425.26	1998.82
425.45	1977.75
425.64	2001.16
425.83	1930.94
426.01	2108.82
426.20	2083.08
426.39	2019.88
426.58	2036.27
426.77	2106.48
426.96	2071.37
427.15	2057.33
427.33	2174.36
427.52	2141.59
427.71	2197.76
427.90	2099.46
428.09	2118.18
428.28	2129.89
428.46	2197.76
428.65	2101.80
428.84	2169.68
429.03	2354.58
429.22	2204.78
429.40	2228.19
429.59	2256.28
429.78	2139.25
429.97	2120.53
430.16	2181.38
430.34	2125.21
430.53	2359.26
430.72	2312.45
430.91	2363.94
431.10	2284.36
431.28	2282.02
431.47	2406.07
431.66	2394.37
431.85	2368.62
432.03	2448.20
432.22	2516.08
432.41	2469.27
432.60	2396.71
432.79	2396.71
432.97	2471.61
433.16	2399.05
433.35	2394.37
433.54	2525.44
433.72	2466.92
433.91	2387.35
434.10	2450.54
434.28	2422.45
434.47	2434.16
434.66	2548.84
434.85	2569.91
435.03	2665.87
435.22	2574.59
435.41	2708.00
435.59	2644.81
435.78	2693.96
435.97	2565.23
436.16	2684.59
436.34	2640.12
436.53	2569.91
436.72	2839.07
436.90	2708.00
437.09	2715.02
437.28	2623.74
437.46	2619.06
437.65	2787.58
437.84	2675.23
438.02	2832.05
438.21	2752.47
438.40	2752.47
438.58	2743.11
438.77	2892.90
438.96	2897.58
439.14	2963.12
439.33	2949.08
439.52	2883.54
439.70	2942.05
439.89	3101.21
440.08	2902.26
440.26	3080.14
440.45	3019.29
440.63	3126.96
440.82	3152.70
441.01	3103.55
441.19	3192.49
441.38	3293.13
441.57	3220.58
441.75	3251.00
441.94	3300.16
442.12	3265.05
442.31	3386.76
442.50	3361.01
442.68	3260.37
442.87	3166.74
443.05	3311.86
443.24	3379.73
443.43	3279.09
443.61	3414.84
443.80	3480.38
443.98	3407.82
444.17	3187.81
444.35	3468.67
444.54	3412.50
444.73	3396.12
444.91	3351.65
445.10	3372.71
445.28	3342.28
445.47	3389.10
445.65	3482.72
445.84	3524.85
446.02	3538.89
446.21	3557.61
446.39	3463.99
446.58	3452.29
446.77	3454.63
446.95	3449.95
447.14	3494.42
447.32	3522.51
447.51	3471.01
447.69	3555.27
447.88	3536.55
448.06	3428.88
448.25	3361.01
448.43	3550.59
448.62	3492.08
448.80	3447.61
448.99	3461.65
449.17	3637.19
449.36	3531.87
449.54	3693.37
449.73	3705.07
449.91	3559.95
450.10	3576.34
450.28	3789.33
450.46	3705.07
450.65	3709.75
450.83	3719.11
451.02	3875.93
451.20	3882.95
451.39	3721.45
451.57	3721.45
451.76	3758.90
451.94	3646.55
452.13	3761.24
452.31	3861.88
452.49	3810.39
452.68	3889.97
452.86	3805.71
453.05	3845.50
453.23	3829.12
453.42	3974.23
453.60	3796.35
453.78	3971.89
453.97	3969.55
454.15	3878.27
454.34	3929.76
454.52	3971.89
454.70	3899.33
454.89	3990.61
455.07	3920.40
455.26	3925.08
455.44	4039.76
455.62	4079.55
455.81	4112.32
455.99	4014.02
456.17	4023.38
456.36	4138.07
456.54	4236.37
456.73	4056.15
456.91	4250.41
457.09	4315.95
457.28	4425.95
457.46	4217.65
457.64	4264.46
457.83	4234.03
458.01	4287.86
458.19	4369.78
458.38	4264.46
458.56	4393.19
458.74	4430.63
458.93	4418.93
459.11	4442.34
459.29	4414.25
459.48	4421.27
459.66	4493.83
459.84	4503.19
460.03	4629.58
460.21	4636.60
460.39	4512.55
460.57	4458.72
460.76	4447.02
460.94	4514.89
461.12	4662.35
461.31	4681.07
461.49	4702.14
461.67	4552.34
461.85	4720.86
462.04	4753.63
462.22	4713.84
462.40	4755.97
462.59	4695.11
462.77	4786.40
462.95	4755.97
463.13	4765.33
463.32	4936.19
463.50	4737.24
463.68	4688.09
463.86	4697.46
464.05	4854.27
464.23	4849.59
464.41	4669.37
464.59	4770.01
464.78	4957.25
464.96	4842.57
465.14	4830.87
465.32	4819.16
465.50	4992.36
465.69	4795.76
465.87	4795.76
466.05	4915.12
466.23	4922.15
466.41	5067.26
466.60	5177.26
466.78	5004.07
466.96	4992.36
467.14	4966.62
467.32	5050.88
467.51	5114.07
467.69	5039.17
467.87	5165.56
468.05	5156.20
468.23	5186.63
468.41	5235.78
468.60	5027.47
468.78	5083.64
468.96	5275.57
469.14	5287.27
469.32	5217.05
469.50	5228.76
469.69	5418.34
469.87	5231.10
470.05	5266.21
470.23	5437.06
470.41	5479.19
470.59	5439.40
470.77	5448.77
470.95	5416.00
471.14	5544.73
471.32	5341.10
471.50	5619.63
471.68	5565.79
471.86	5497.92
472.04	5563.45
472.22	5652.39
472.40	5514.30
472.58	5624.31
472.77	5678.14
472.95	5860.70
473.13	5905.17
473.31	5741.33
473.49	5626.65
473.67	5722.61
473.85	5795.17
474.03	5980.07
474.21	5959.00
474.39	6003.47
474.57	6127.52
474.75	6160.29
474.93	6139.23
475.12	6239.87
475.30	6186.04
475.48	6270.30
475.66	6174.33
475.84	6146.25
476.02	6291.36
476.20	6260.93
476.38	6380.30
476.56	6565.20
476.74	6396.68
476.92	6513.71
477.10	6359.24
477.28	6707.98
477.46	6609.67
477.64	6574.56
477.82	6822.66
478.00	6885.86
478.18	6881.18
478.36	6942.03
478.54	7112.89
478.72	6995.86
478.90	7049.69
479.08	7262.68
479.26	7007.56
479.44	7281.41
479.62	7180.76
479.80	7063.74
479.98	7356.30
480.16	7407.80
480.34	7398.43
480.52	7508.44
480.70	7482.69
480.88	7590.36
481.06	7683.98
481.24	7693.34
481.41	7878.24
481.59	7906.33
481.77	7801.01
481.95	8004.63
482.13	7969.52
482.31	7920.37
482.49	8184.85
482.67	8229.32
482.85	8379.12
483.03	8468.06
483.21	8655.30
483.39	8622.53
483.57	8250.39
483.74	8465.72
483.92	8430.61
484.10	8847.22
484.28	8688.07
484.46	9013.40
484.64	9067.24
484.82	8849.57
485.00	9011.06
485.18	9240.44
485.35	9174.90
485.53	9231.07
485.71	9231.07
485.89	9516.62
486.07	9322.35
486.25	9518.96
486.43	9816.21
486.61	9633.64
486.78	9781.10
486.96	9844.29
487.14	10146.22
487.32	9860.68
487.50	10223.46
487.68	10015.15
487.85	10225.80
488.03	10565.18
488.21	10473.90
488.39	10520.71
488.57	10394.32
488.75	10597.95
488.92	10988.82
489.10	10970.09
489.28	10853.06
489.46	11026.26
489.64	10911.58
489.81	11136.27
489.99	11255.64
490.17	11250.96
490.35	11360.96
490.53	11349.26
490.70	11466.28
490.88	11536.50
491.06	11595.01
491.24	11662.89
491.41	11609.06
491.59	11978.86
491.77	11833.75
491.95	12107.59
492.13	12116.95
492.30	12100.57
492.48	12294.83
492.66	12273.77
492.84	12210.57
493.01	12538.25
493.19	12430.59
493.37	12931.46
493.54	12765.28
493.72	12662.30
493.90	12683.36
494.08	12971.25
494.25	12858.90
494.43	13123.38
494.61	13434.68
494.79	13287.22
494.96	13160.83
495.14	13380.84
495.32	13401.91
495.49	13535.32
495.67	13839.59
495.85	13563.40
496.02	14008.11
496.20	13867.67
496.38	13722.56
496.55	13933.21
496.73	14038.53
496.91	13987.04
497.09	13984.70
497.26	14181.31
497.44	14242.16
497.62	14321.74
497.79	14558.13
497.97	14492.60
498.14	14773.46
498.32	14822.61
498.50	14707.93
498.67	14710.27
498.85	14705.59
499.03	14864.74
499.20	14757.08
499.38	14874.10
499.56	15066.03
499.73	15208.80
499.91	15059.01
500.08	15152.63
500.26	15370.30
500.44	15389.02
500.61	15609.03
500.79	15140.93
500.97	15431.15
501.14	15735.42
501.32	15786.91
501.49	15573.92
501.67	15403.07
501.84	15543.50
502.02	15768.19
502.20	15925.00
502.37	16170.76
502.55	15983.52
502.72	16184.80
502.90	16065.44
503.07	15962.45
503.25	16077.14
503.43	16182.46
503.60	16224.59
503.78	16381.41
503.95	16418.86
504.13	16573.33
504.30	16468.01
504.48	16219.91
504.65	16610.78
504.83	16519.50
505.01	16814.41
505.18	16978.25
505.36	17137.40
505.53	16868.24
505.71	17036.76
505.88	17095.27
506.06	16905.69
506.23	17317.62
506.41	17109.32
506.58	17556.36
506.76	17057.82
506.93	17280.18
507.11	17200.60
507.28	17446.35
507.46	17177.19
507.63	17467.42
507.81	17675.73
507.98	17434.65
508.16	17593.81
508.33	17652.32
508.50	17872.33
508.68	17975.31
508.85	18054.89
509.03	17900.42
509.20	18111.07
509.38	17937.87
509.55	18183.62
509.73	17855.95
509.90	18092.34
510.08	18223.41
510.25	18169.58
510.42	18263.20
510.60	18448.10
510.77	18815.57
510.95	18530.02
511.12	18490.23
511.30	18635.35
511.47	18808.54
511.64	18520.66
511.82	19000.47
511.99	18672.79
512.17	18918.55
512.34	18867.06
512.51	19070.68
512.69	19213.46
512.86	19019.19
513.04	19248.57
513.21	19173.67
513.38	19246.23
513.56	19236.86
513.73	19288.35
513.90	19126.86
514.08	19349.21
514.25	19620.71
514.43	19604.33
514.60	19281.33
514.77	19491.98
514.95	19829.02
515.12	19590.28
515.29	19929.66
515.47	19571.56
515.64	20379.04
515.81	19761.14
515.99	19864.13
516.16	20299.47
516.33	19967.11
516.51	20208.19
516.68	20109.88
516.85	19960.09
517.03	20395.43
517.20	20484.37
517.37	20439.90
517.54	20519.48
517.72	20467.98
517.89	20266.70
518.06	20531.18
518.24	20357.98
518.41	20535.86
518.58	20561.61
518.75	20755.87
518.93	20900.98
519.10	20683.31
519.27	20908.01
519.45	20996.95
519.62	20767.57
519.79	21015.67
519.96	20896.30
520.14	21060.14
520.31	21034.39
520.48	21287.17
520.65	21123.33
520.83	21027.37
521.00	21247.38
521.17	21036.74
521.34	21284.83
521.52	21060.14
521.69	21413.56
521.86	21514.20
522.03	21717.83
522.20	21532.93
522.38	21703.79
522.55	21502.50
522.72	21806.77
522.89	21568.04
523.07	22052.53
523.24	21720.17
523.41	21827.84
523.58	21626.55
523.75	21881.67
523.92	22024.44
524.10	22160.19
524.27	22225.73
524.44	22225.73
524.61	22199.98
524.78	22466.80
524.96	22129.77
525.13	22473.82
525.30	22684.47
525.47	22499.57
525.64	22302.96
525.81	22583.83
525.98	22628.30
526.16	22375.52
526.33	22569.79
526.50	22738.30
526.67	22246.79
526.84	22703.20
527.01	22511.27
527.18	22628.30
527.36	23009.81
527.53	23201.73
527.70	23143.22
527.87	23269.61
528.04	22937.25
528.21	22925.55
528.38	22714.90
528.55	22855.33
528.72	23077.68
528.89	23094.07
529.07	22911.50
529.24	23503.66
529.41	23463.87
529.58	23323.44
529.75	23037.89
529.92	23461.53
530.09	23281.31
530.26	23498.98
530.43	23489.62
530.60	23351.52
530.77	23569.19
530.94	23529.41
531.11	23421.74
531.28	23386.63
531.46	23644.09
531.63	23585.58
531.80	23730.69
531.97	24189.44
532.14	23508.34
532.31	23695.58
532.48	23791.55
532.65	24034.96
532.82	23730.69
532.99	24144.97
533.16	24130.92
533.33	24283.06
533.50	24161.35
533.67	24231.57
533.84	23805.59
534.01	24269.01
534.18	24030.28
534.35	24245.61
534.52	24205.82
534.69	24161.35
534.86	24233.91
535.03	24313.48
535.20	24629.46
535.37	24453.92
535.54	24449.24
535.71	24411.79
535.88	24587.33
536.05	24652.86
536.22	24973.52
536.38	24776.91
536.55	24879.89
536.72	24746.48
536.89	24596.69
537.06	24587.33
537.23	24842.45
537.40	24531.15
537.57	25085.86
537.74	24720.74
537.91	25205.23
538.08	25186.50
538.25	24800.32
538.42	25102.25
538.59	25034.37
538.75	24814.36
538.92	25123.31
539.09	25518.86
539.26	25165.44
539.43	24847.13
539.60	25219.27
539.77	25249.70
539.94	25631.21
540.11	25315.23
540.28	25060.12
540.44	25219.27
540.61	25483.75
540.78	25420.56
540.95	25252.04
541.12	25324.60
541.29	25343.32
541.46	25656.95
541.62	25579.71
541.79	25329.28
541.96	25558.65
542.13	25135.01
542.30	25696.74
542.47	25989.31
542.63	25486.09
542.80	25989.31
542.97	25986.97
543.14	25788.02
543.31	26174.21
543.48	25991.65
543.64	26487.84
543.81	26209.32
543.98	26223.36
544.15	26075.91
544.32	26668.06
544.48	26560.40
544.65	26562.74
544.82	26368.48
544.99	26256.13
545.16	26211.66
545.32	26221.02
545.49	26223.36
545.66	26934.88
545.83	26689.13
546.00	26759.34
546.16	26712.53
546.33	26129.74
546.50	26094.63
546.67	26459.76
546.83	26302.94
547.00	26618.91
547.17	26710.19
547.34	26635.30
547.50	27108.08
547.67	26497.20
547.84	26740.62
548.00	26930.20
548.17	26991.06
548.34	27234.47
548.51	27190.00
548.67	26930.20
548.84	27152.55
549.01	26663.38
549.18	27033.19
549.34	27241.50
549.51	27037.87
549.68	27351.50
549.84	26562.74
550.01	26944.25
550.18	26871.69
550.34	27323.41
550.51	27395.97
550.68	27632.36
550.84	26885.73
551.01	27290.65
551.18	27243.84
551.34	26906.80
551.51	27204.05
551.68	27363.20
551.84	27381.93
552.01	27353.84
552.18	27733.01
552.34	27417.04
552.51	27433.42
552.68	27290.65
552.84	27459.16
553.01	27218.09
553.18	27740.03
553.34	27498.95
553.51	27316.39
553.67	27482.57
553.84	27990.47
554.01	27845.35
554.17	27896.85
554.34	27435.76
554.51	27775.14
554.67	27948.34
554.84	27908.55
555.00	27707.26
555.17	27800.88
555.33	27796.20
555.50	28226.86
555.67	27513.00
555.83	27896.85
556.00	27800.88
556.16	28765.18
556.33	28194.09
556.50	28109.83
556.66	28257.29
556.83	27903.87
556.99	27763.43
557.16	28573.26
557.32	28304.10
557.49	28367.29
557.65	28086.43
557.82	27803.22
557.98	28086.43
558.15	27941.32
558.32	28329.84
558.48	28161.33
558.65	28283.03
558.81	28311.12
558.98	28458.57
559.14	28556.88
559.31	27960.04
559.47	28458.57
559.64	28346.23
559.80	28428.15
559.97	28273.67
560.13	28467.94
560.30	28376.66
560.46	28395.38
560.63	28318.14
560.79	28713.69
560.96	28627.09
561.12	28465.60
561.29	28481.98
561.45	28903.28
561.61	28500.70
561.78	28533.47
561.94	28219.84
562.11	28650.50
562.27	28893.91
562.44	28959.45
562.60	28690.29
562.77	28575.60
562.93	28617.73
563.10	28432.83
563.26	28865.83
563.42	28900.94
563.59	28919.66
563.75	28725.39
563.92	28685.61
564.08	28591.98
564.24	28657.52
564.41	28514.75
564.57	28671.56
564.74	28802.63
564.90	28767.52
565.07	29041.37
565.23	29015.62
565.39	28774.55
565.56	29221.59
565.72	28826.04
565.88	28816.68
566.05	28861.15
566.21	29006.26
566.38	28479.64
566.54	28982.85
566.70	29090.52
566.87	29420.53
567.03	29237.97
567.19	29120.95
567.36	29130.31
567.52	29022.64
567.68	28968.81
567.85	28945.41
568.01	28994.56
568.17	28996.90
568.34	29132.65
568.50	29060.09
568.66	29324.57
568.83	29308.19
568.99	29216.91
569.15	29036.69
569.32	28996.90
569.48	28994.56
569.64	29301.17
569.81	28938.38
569.97	29551.60
570.13	29055.41
570.30	28828.38
570.46	28844.76
570.62	29071.79
570.78	28669.22
570.95	29249.67
571.11	29099.88
571.27	29193.50
571.43	28964.13
571.60	29134.99
571.76	29062.43
571.92	29345.64
572.09	29343.30
572.25	29205.20
572.41	29137.33
572.57	29319.89
572.74	29366.70
572.90	29195.84
573.06	29132.65
573.22	29083.50
573.38	29305.85
573.55	29020.30
573.71	29305.85
573.87	29563.31
574.03	29490.75
574.20	29336.27
574.36	29563.31
574.52	29046.05
574.68	29069.45
574.84	29315.21
575.01	29413.51
575.17	29244.99
575.33	29219.25
575.49	29060.09
575.65	29741.19
575.82	29282.44
575.98	29212.23
576.14	29193.50
576.30	29434.58
576.46	29352.66
576.62	29670.97
576.79	29415.85
576.95	29706.08
577.11	29682.67
577.27	29528.20
577.43	29362.02
577.59	29401.81
577.75	29345.64
577.92	29184.14
578.08	29315.21
578.24	29242.65
578.40	29649.91
578.56	29329.25
578.72	29598.41
578.88	29532.88
579.04	29521.18
579.21	29252.02
579.37	29584.37
579.53	29914.39
579.69	29252.02
579.85	29560.97
580.01	29130.31
580.17	29315.21
580.33	29731.83
580.49	29619.48
580.65	29670.97
580.82	29525.86
580.98	29876.94
581.14	29549.26
581.30	29645.23
581.46	29209.89
581.62	29383.09
581.78	29373.72
581.94	29965.88
582.10	29446.28
582.26	29797.36
582.42	29127.97
582.58	29687.36
582.74	29383.09
582.90	29858.21
583.06	29935.45
583.22	29467.34
583.38	29827.79
583.54	29184.14
583.70	29404.15
583.86	29462.66
584.02	29521.18
584.18	29422.87
584.34	29947.15
584.50	29511.81
584.66	29837.15
584.82	29572.67
584.98	29776.30
585.14	29333.93
585.30	29647.57
585.46	29507.13
585.62	29776.30
585.78	29748.21
585.94	29673.31
586.10	29614.80
586.26	29776.30
586.42	30094.61
586.58	29832.47
586.74	29420.53
586.90	29347.98
587.06	28877.53
587.22	29614.80
587.38	29647.57
587.54	29816.08
587.70	29769.27
587.86	29670.97
588.02	29872.26
588.18	29832.47
588.34	29860.55
588.49	29729.48
588.65	29493.09
588.81	29626.50
588.97	29926.09
589.13	29436.92
589.29	29795.02
589.45	29790.34
589.61	29813.74
589.77	30047.80
589.93	30094.61
590.08	30209.29
590.24	29949.50
590.40	30188.23
590.56	30141.42
590.72	29909.71
590.88	29844.17
591.04	29841.83
591.20	29818.42
591.35	29844.17
591.51	30342.70
591.67	30169.51
591.83	30075.88
591.99	30068.86
592.15	29628.84
592.31	29724.80
592.46	29944.81
592.62	30073.54
592.78	29525.86
592.94	30118.01
593.10	30403.56
593.26	30221.00
593.41	30349.73
593.57	29998.65
593.73	29813.74
593.89	30029.07
594.05	29687.36
594.20	30197.59
594.36	30024.39
594.52	30003.33
594.68	29778.64
594.84	29867.58
594.99	30251.42
595.15	29977.58
595.31	30073.54
595.47	30331.00
595.62	30408.24
595.78	29806.72
595.94	29858.21
596.10	30295.89
596.25	30202.27
596.41	30249.08
596.57	30059.50
596.73	29862.90
596.88	30040.78
597.04	29872.26
597.20	30057.16
597.36	30066.52
597.51	30127.38
597.67	30167.16
597.83	29865.24
597.99	30417.60
598.14	30331.00
598.30	30040.78
598.46	30012.69
598.61	29965.88
598.77	30012.69
598.93	30682.08
599.09	30115.67
599.24	30223.34
599.40	30487.82
599.56	30213.98
599.71	30342.70
599.87	30515.90
600.03	29741.19
600.18	30026.73
600.34	29996.31
600.50	30501.86
600.65	30230.36
600.81	30384.83
600.97	30263.13
601.12	29956.52
601.28	30391.86
601.44	30450.37
601.59	30391.86
601.75	30506.54
601.91	30169.51
602.06	30015.03
602.22	30206.95
602.37	30019.71
602.53	30036.09
602.69	30213.98
602.84	30033.75
603.00	30033.75
603.16	30920.82
603.31	29979.92
603.47	30260.79
603.62	30015.03
603.78	30059.50
603.94	29970.56
604.09	30174.19
604.25	29893.32
604.40	30022.05
604.56	30270.15
604.71	30515.90
604.87	29954.18
605.03	30071.20
605.18	29926.09
605.34	30284.19
605.49	29633.52
605.65	30120.35
605.80	29642.88
605.96	29706.08
606.12	29797.36
606.27	30106.31
606.43	30010.35
606.58	30288.87
606.74	30022.05
606.89	30307.60
607.05	30094.61
607.20	30139.08
607.36	30148.44
607.51	30213.98
607.67	29890.98
607.82	29706.08
607.98	30221.00
608.13	30300.58
608.29	29509.47
608.44	30115.67
608.60	29839.49
608.75	30050.14
608.91	30288.87
609.06	29961.20
609.22	30024.39
609.37	30113.33
609.53	29881.62
609.68	29989.28
609.84	29780.98
609.99	30087.59
610.15	29788.00
610.30	29837.15
610.46	29855.87
610.61	29598.41
610.76	30099.29
610.92	30244.40
611.07	29668.63
611.23	29617.14
611.38	29546.92
611.54	29771.61
611.69	29631.18
611.84	29727.14
612.00	29528.20
612.15	29837.15
612.31	29715.44
612.46	29921.41
612.62	29659.27
612.77	29935.45
612.92	29905.02
613.08	29399.47
613.23	29614.80
613.39	29701.40
613.54	29336.27
613.69	30005.67
613.85	29530.54
614.00	29745.87
614.15	29640.54
614.31	29596.07
614.46	29926.09
614.62	29237.97
614.77	29462.66
614.92	29724.80
615.08	29502.45
615.23	29687.36
615.38	29378.40
615.54	29060.09
615.69	29502.45
615.84	29191.16
616.00	29443.94
616.15	29612.46
616.30	29565.65
616.46	29380.74
616.61	29317.55
616.76	29921.41
616.92	29483.73
617.07	28884.55
617.22	29305.85
617.37	29455.64
617.53	29413.51
617.68	29380.74
617.83	28943.06
617.99	29076.48
618.14	29186.48
618.29	29207.55
618.45	29394.79
618.60	28936.04
618.75	29553.94
618.90	28999.24
619.06	29366.70
619.21	29352.66
619.36	29434.58
619.51	29003.92
619.67	28950.09
619.82	28706.67
619.97	28748.80
620.12	28776.89
620.28	28664.54
620.43	28882.21
620.58	29111.58
620.73	29537.56
620.89	29027.32
621.04	29261.38
621.19	28823.70
621.34	28910.30
621.49	28727.74
621.65	28566.24
621.80	29195.84
621.95	28697.31
622.10	28622.41
622.25	28657.52
622.41	29174.78
622.56	28683.27
622.71	28552.20
622.86	28690.29
623.01	28786.25
623.16	28575.60
623.32	28723.05
623.47	28535.81
623.62	28210.48
623.77	28346.23
623.92	28638.80
624.07	28498.36
624.23	28582.62
624.38	28819.02
624.53	28643.48
624.68	28854.12
624.83	28985.19
624.98	28577.94
625.13	28622.41
625.29	28437.51
625.44	28713.69
625.59	28311.12
625.74	28456.23
625.89	28404.74
626.04	28341.55
626.19	27885.14
626.34	28444.53
626.49	28128.56
626.65	28020.89
626.80	28229.20
626.95	28369.63
627.10	28458.57
627.25	28390.70
627.40	28341.55
627.55	28393.04
627.70	28144.94
627.85	28074.73
628.00	27775.14
628.15	28236.22
628.30	28095.79
628.45	28196.43
628.60	27761.09
628.76	28292.40
628.91	27967.06
629.06	28173.03
629.21	27943.66
629.36	27953.02
629.51	27835.99
629.66	28027.92
629.81	27742.37
629.96	27697.90
630.11	27655.77
630.26	27843.01
630.41	27857.06
630.56	27395.97
630.71	27814.93
630.86	27644.07
631.01	27934.29
631.16	27899.19
631.31	27707.26
631.46	27859.40
631.61	27793.86
631.76	28011.53
631.91	27793.86
632.06	27840.67
632.21	27639.39
632.36	27768.12
632.51	27592.58
632.66	27733.01
632.81	27693.22
632.96	27431.08
633.10	27503.64
633.25	27613.64
633.40	27826.63
633.55	27412.35
633.70	27534.06
633.85	27173.62
634.00	27138.51
634.15	27573.85
634.30	27384.27
634.45	27386.61
634.60	27182.98
634.75	27349.16
634.90	27182.98
635.05	27564.49
635.19	27421.72
635.34	27623.00
635.49	27421.72
635.64	27370.22
635.79	27150.21
635.94	27428.74
636.09	27335.12
636.24	27005.10
636.39	26918.50
636.53	27168.94
636.68	26677.43
636.83	27096.38
636.98	27243.84
637.13	27157.24
637.28	27466.19
637.43	27246.18
637.57	27021.48
637.72	26829.56
637.87	26885.73
638.02	27101.06
638.17	27192.34
638.32	26993.40
638.46	27021.48
638.61	26937.23
638.76	26658.70
638.91	27131.49
639.06	26789.77
639.20	27082.34
639.35	26841.26
639.50	27112.77
639.65	27091.70
639.80	27016.80
639.94	26831.90
640.09	26647.00
640.24	26740.62
640.39	26806.16
640.54	26443.37
640.68	26572.10
640.83	26668.06
640.98	26485.50
641.13	26625.93
641.27	26345.07
641.42	26398.90
641.57	26504.23
641.72	26492.52
641.86	26153.15
642.01	26206.98
642.16	26679.77
642.31	26363.79
642.45	26251.45
642.60	25806.75
642.75	26270.17
642.90	26087.61
643.04	26551.04
643.19	26455.08
643.34	26476.14
643.48	26087.61
643.63	26679.77
643.78	26391.88
643.93	26424.65
644.07	26649.34
644.22	26581.46
644.37	26684.45
644.51	26024.42
644.66	26143.78
644.81	26639.98
644.95	26206.98
645.10	26001.01
645.25	26094.63
645.39	25963.56
645.54	26115.70
645.69	26043.14
645.83	25830.15
645.98	25998.67
646.13	26157.83
646.27	25965.90
646.42	26228.04
646.57	25778.66
646.71	26309.96
646.86	25919.09
647.00	25940.16
647.15	25968.24
647.30	25823.13
647.44	25867.60
647.59	25975.27
647.74	25834.83
647.88	25860.58
648.03	26075.91
648.17	26267.83
648.32	26033.78
648.47	25738.87
648.61	25453.33
648.76	26094.63
648.90	25991.65
649.05	26015.05
649.20	25797.38
649.34	25373.75
649.49	25743.55
649.63	25497.80
649.78	25582.06
649.92	25504.82
650.07	26050.16
650.21	25720.15
650.36	25949.52
650.51	25600.78
650.65	25385.45
650.80	25628.87
650.94	25591.42
651.09	25263.74
651.23	25844.20
651.38	25397.15
651.52	25469.71
651.67	25188.85
651.81	25596.10
651.96	25336.30
652.10	25589.08
652.25	25617.16
652.39	25654.61
652.54	25366.73
652.68	25507.16
652.83	25064.80
652.97	25504.82
653.12	25806.75
653.26	25184.16
653.41	25193.53
653.55	25130.33
653.70	25411.20
653.84	25256.72
653.99	25123.31
654.13	25163.10
654.27	25069.48
654.42	25298.85
654.56	25116.29
654.71	25137.35
654.85	25142.03
655.00	25198.21
655.14	25095.22
655.29	25427.58
655.43	25401.83
655.57	24980.54
655.72	24929.05
655.86	24898.62
656.01	25032.03
656.15	25198.21
656.30	24999.26
656.44	25078.84
656.58	24716.06
656.73	24788.61
656.87	24790.95
657.01	25111.61
657.16	24982.88
657.30	24938.41
657.45	25006.28
657.59	24837.76
657.73	24943.09
657.88	24891.60
658.02	24751.17
658.16	24552.22
658.31	24299.44
658.45	24535.84
658.60	24517.11
658.74	24624.78
658.88	24437.53
659.03	24407.11
659.17	24292.42
659.31	24519.45
659.46	24474.98
659.60	24629.46
659.74	24194.12
659.89	24615.41
660.03	24444.56
660.17	24491.37
660.32	24173.05
660.46	24170.71
660.60	23892.19
660.74	24257.31
660.89	24100.50
661.03	23894.53
661.17	24133.26
661.32	23953.04
661.46	24430.51
661.60	24175.39
661.74	24121.56
661.89	24187.10
662.03	24142.63
662.17	24112.20
662.31	24063.05
662.46	24278.38
662.60	23861.76
662.74	23889.85
662.88	23868.78
663.03	23714.31
663.17	23740.05
663.31	23087.04
663.45	23548.13
663.60	23648.77
663.74	23393.65
663.88	23948.36
664.02	23618.35
664.17	23611.32
664.31	23379.61
664.45	23211.09
664.59	23646.43
664.73	23126.83
664.88	23510.68
665.02	23267.27
665.16	23410.04
665.30	23175.98
665.44	23185.35
665.59	22726.60
665.73	23297.69
665.87	22939.59
666.01	23094.07
666.15	23274.29
666.29	23061.30
666.44	23269.61
666.58	22981.72
666.72	22607.23
666.86	22742.99
667.00	23044.91
667.14	22742.99
667.28	22759.37
667.43	22422.33
667.57	22731.28
667.71	22480.85
667.85	22663.41
667.99	22689.15
668.13	22497.23
668.27	22551.06
668.41	22520.63
668.56	22686.81
668.70	22230.41
668.84	22431.69
668.98	22412.97
669.12	22649.36
669.26	22459.78
669.40	22377.86
669.54	22705.54
669.68	22309.99
669.82	21654.64
669.96	22291.26
670.10	22005.72
670.25	22513.61
670.39	22068.91
670.53	22155.51
670.67	21872.31
670.81	22047.85
670.95	21900.39
671.09	21919.12
671.23	22136.79
671.37	21921.46
671.51	22024.44
671.65	21759.96
671.79	21717.83
671.93	21853.58
672.07	21549.31
672.21	21717.83
672.35	21184.19
672.49	21556.33
672.63	21479.10
672.77	21120.99
672.91	21397.18
673.05	21469.73
673.19	21254.40
673.33	21165.46
673.47	21254.40
673.61	21383.13
673.75	21020.35
673.89	21132.70
674.03	20947.79
674.17	21039.08
674.31	21048.44
674.45	21247.38
674.59	20776.94
674.73	21139.72
674.87	20451.60
675.01	20573.31
675.15	20386.07
675.29	20783.96
675.43	21036.74
675.56	20805.02
675.70	20273.72
675.84	20680.97
675.98	20123.93
676.12	20798.00
676.26	20589.69
676.40	20313.51
676.54	20472.67
676.68	20173.08
676.82	19822.00
676.96	20025.62
677.10	20257.34
677.23	19840.72
677.37	19922.64
677.51	19733.06
677.65	19924.98
677.79	19499.00
677.93	19583.26
678.07	19438.15
678.21	19417.08
678.34	19536.45
678.48	19159.63
678.62	19194.73
678.76	19225.16
678.90	19328.14
679.04	19229.84
679.18	19075.37
679.31	18946.64
679.45	18796.84
679.59	18897.49
679.73	18970.04
679.87	18904.51
680.00	18515.98
680.14	18548.75
680.28	18792.16
680.42	18927.91
680.56	18824.93
680.70	18616.62
680.83	18651.73
680.97	18244.48
681.11	18555.77
681.25	18452.78
681.39	18537.04
681.52	18483.21
681.66	18291.29
681.80	18157.88
681.94	18333.42
682.07	18171.92
682.21	18085.32
682.35	17991.70
682.49	17748.28
682.62	17752.96
682.76	17837.22
682.90	18005.74
683.04	17661.68
683.17	17729.56
683.31	17706.15
683.45	17853.61
683.59	17708.49
683.72	17338.69
683.86	17460.40
684.00	17453.37
684.13	17713.17
684.27	17331.67
684.41	17207.62
684.55	17153.79
684.68	16982.93
684.82	16606.10
684.96	16830.79
685.09	17249.75
685.23	17076.55
685.37	16765.26
685.50	16774.62
685.64	16718.45
685.78	16615.46
685.91	16863.56
686.05	16786.32
686.19	16460.99
686.32	16690.36
686.46	16304.17
686.60	15974.16
686.73	16336.94
686.87	16346.30
687.01	16210.55
687.14	16123.95
687.28	15756.49
687.42	15941.39
687.55	15950.75
687.69	16018.63
687.82	15939.05
687.96	15733.08
688.10	15782.23
688.23	15901.60
688.37	15550.52
688.50	15679.25
688.64	15583.29
688.78	15674.57
688.91	15676.91
689.05	15428.81
689.18	15293.06
689.32	15185.40
689.46	15208.80
689.59	15206.46
689.73	15318.81
689.86	14998.15
690.00	15026.24
690.13	14986.45
690.27	14647.07
690.41	14888.15
690.54	14927.94
690.68	15077.73
690.81	15028.58
690.95	14834.32
691.08	14806.23
691.22	14588.56
691.35	14712.61
691.49	14520.68
691.62	14684.52
691.76	14396.64
691.89	14511.32
692.03	14352.16
692.16	14190.67
692.30	14015.13
692.43	14068.96
692.57	13874.70
692.70	14073.64
692.84	13827.88
692.97	13685.11
693.11	13804.48
693.24	13586.81
693.38	13862.99
693.51	13666.39
693.65	13635.96
693.78	13481.49
693.92	13760.01
694.05	13310.63
694.19	13558.72
694.32	13233.39
694.45	13315.31
694.59	13076.57
694.72	12987.63
694.86	13123.38
694.99	13158.49
695.13	13081.25
695.26	12971.25
695.39	12938.48
695.53	12954.87
695.66	12894.01
695.80	13041.46
695.93	12865.92
696.07	12908.05
696.20	12821.45
696.33	12746.56
696.47	12491.44
696.60	12748.90
696.73	12561.66
696.87	12437.61
697.00	12470.37
697.14	12451.65
697.27	12355.69
697.40	12285.47
697.54	12152.06
697.67	11920.35
697.80	11960.14
697.94	11840.77
698.07	11939.07
698.21	11782.26
698.34	12049.08
698.47	11990.56
698.61	11815.02
698.74	11974.18
698.87	11871.20
699.01	11777.58
699.14	11597.35
699.27	11669.91
699.40	11641.82
699.54	11487.35
699.67	11206.48
699.80	11243.93
699.94	11290.74
700.07	11328.19
700.20	11232.23
700.34	10965.41
700.47	11241.59
700.60	11143.29
700.73	11272.02
700.87	11082.44
701.00	11016.90
701.13	10752.42
701.26	11070.73
701.40	11056.69
701.53	10925.62
701.66	10956.05
701.79	10604.97
701.93	10656.46
702.06	10794.55
702.19	10408.36
702.32	10527.73
702.46	10363.89
702.59	10237.50
702.72	10207.08
702.85	10181.33
702.99	10190.69
703.12	10122.82
703.25	9970.68
703.38	10001.11
703.51	10108.77
703.65	10239.84
703.78	9891.10
703.91	10181.33
704.04	10113.45
704.17	10106.43
704.31	9762.37
704.44	9966.00
704.57	9839.61
704.70	9727.27
704.83	9411.29
704.96	9635.99
705.10	9533.00
705.23	9497.89
>>>>>End Processed Spectral Data<<<<<
