SpectraSuite Data File
++++++++++++++++++++++++++++++++++++
Date: Fri Oct 18 13:58:18 GMT-05:00 2013
User: bianchi
Dark Spectrum Present: No
Reference Spectrum Present: No
Number of Sampled Component Spectra: 1
Spectrometers: USB2+H05261
Integration Time (usec): 50000 (USB2+H05261)
Spectra Averaged: 1 (USB2+H05261)
Boxcar Smoothing: 0 (USB2+H05261)
Correct for Electrical Dark: No (USB2+H05261)
Strobe/Lamp Enabled: No (USB2+H05261)
Correct for Detector Non-linearity: No (USB2+H05261)
Correct for Stray Light: No (USB2+H05261)
Number of Pixels in Processed Spectrum: 2048
>>>>>Begin Processed Spectral Data<<<<<
365.73	0.00
365.92	0.00
366.12	0.00
366.32	0.00
366.52	0.00
366.72	0.00
366.91	0.00
367.11	0.00
367.31	0.00
367.51	0.00
367.70	0.00
367.90	0.00
368.10	0.00
368.30	0.00
368.49	0.00
368.69	0.00
368.89	0.00
369.09	0.00
369.28	0.00
369.48	0.00
369.68	0.00
369.87	0.00
370.07	0.00
370.27	0.00
370.47	0.00
370.66	95.96
370.86	168.52
371.06	163.84
371.25	166.18
371.45	88.94
371.65	102.98
371.84	159.16
372.04	135.75
372.24	236.39
372.44	166.18
372.63	163.84
372.83	168.52
373.03	231.71
373.22	142.77
373.42	238.73
373.62	182.56
373.81	152.13
374.01	252.78
374.21	252.78
374.40	220.01
374.60	252.78
374.79	262.14
374.99	257.46
375.19	292.57
375.38	255.12
375.58	280.86
375.78	220.01
375.97	227.03
376.17	252.78
376.37	292.57
376.56	283.20
376.76	231.71
376.95	210.65
377.15	257.46
377.35	187.24
377.54	212.99
377.74	248.10
377.93	301.93
378.13	276.18
378.33	255.12
378.52	301.93
378.72	271.50
378.91	210.65
379.11	290.23
379.31	276.18
379.50	236.39
379.70	257.46
379.89	322.99
380.09	322.99
380.28	334.70
380.48	360.44
380.68	344.06
380.87	278.52
381.07	236.39
381.26	234.05
381.46	315.97
381.65	322.99
381.85	358.10
382.04	290.23
382.24	313.63
382.43	327.68
382.63	287.89
382.83	353.42
383.02	290.23
383.22	435.34
383.41	184.90
383.61	315.97
383.80	332.36
384.00	416.62
384.19	369.80
384.39	390.87
384.58	393.21
384.78	315.97
384.97	330.02
385.17	346.40
385.36	388.53
385.56	430.66
385.75	367.46
385.95	351.08
386.14	376.83
386.34	400.23
386.53	409.59
386.72	393.21
386.92	449.38
387.11	447.04
387.31	393.21
387.50	383.85
387.70	381.51
387.89	456.40
388.09	468.11
388.28	390.87
388.48	365.12
388.67	468.11
388.86	428.32
389.06	484.49
389.25	493.85
389.45	477.47
389.64	421.30
389.84	500.87
390.03	493.85
390.22	447.04
390.42	423.64
390.61	479.81
390.81	498.53
391.00	451.72
391.19	514.92
391.39	465.77
391.58	491.51
391.78	512.58
391.97	550.03
392.16	550.03
392.36	564.07
392.55	538.32
392.75	503.22
392.94	564.07
393.13	552.37
393.33	552.37
393.52	629.60
393.71	610.88
393.91	512.58
394.10	613.22
394.29	580.45
394.49	582.79
394.68	538.32
394.88	636.63
395.07	617.90
395.26	641.31
395.46	557.05
395.65	594.50
395.84	538.32
396.04	589.82
396.23	587.47
396.42	697.48
396.62	603.86
396.81	599.18
397.00	657.69
397.19	648.33
397.39	718.54
397.58	709.18
397.77	753.65
397.97	660.03
398.16	660.03
398.35	699.82
398.55	744.29
398.74	650.67
398.93	798.12
399.12	709.18
399.32	645.99
399.51	727.91
399.70	763.01
399.90	634.29
400.09	636.63
400.28	781.74
400.47	753.65
400.67	725.57
400.86	748.97
401.05	791.10
401.24	699.82
401.44	835.57
401.63	830.89
401.82	809.83
402.01	697.48
402.21	791.10
402.40	777.06
402.59	833.23
402.78	875.36
402.97	837.91
403.17	950.26
403.36	812.17
403.55	866.00
403.74	926.85
403.93	833.23
404.13	940.90
404.32	971.32
404.51	837.91
404.70	821.53
404.89	973.66
405.09	959.62
405.28	945.58
405.47	968.98
405.66	1001.75
405.85	992.39
406.05	1041.54
406.24	875.36
406.43	1001.75
406.62	1088.35
406.81	1041.54
407.00	961.96
407.20	954.94
407.39	964.30
407.58	1027.50
407.77	1032.18
407.96	1034.52
408.15	1121.12
408.34	1020.47
408.54	1067.28
408.73	1104.73
408.92	1104.73
409.11	1107.07
409.30	1114.10
409.49	1100.05
409.68	1135.16
409.87	1167.93
410.07	1146.86
410.26	1160.91
410.45	1107.07
410.64	1205.38
410.83	1165.59
411.02	1142.18
411.21	1273.25
411.40	1301.34
411.59	1219.42
411.78	1376.24
411.98	1320.06
412.17	1231.12
412.36	1273.25
412.55	1261.55
412.74	1310.70
412.93	1310.70
413.12	1331.76
413.31	1437.09
413.50	1371.55
413.69	1371.55
413.88	1413.68
414.07	1359.85
414.26	1373.89
414.45	1448.79
414.64	1406.66
414.83	1523.69
415.02	1537.73
415.22	1572.84
415.41	1514.33
415.60	1500.28
415.79	1556.46
415.98	1565.82
416.17	1619.65
416.36	1502.62
416.55	1432.41
416.74	1739.02
416.93	1638.38
417.12	1694.55
417.31	1760.08
417.50	1727.32
417.69	1661.78
417.88	1778.81
418.07	1818.60
418.26	1668.80
418.45	1724.97
418.64	1792.85
418.83	1675.82
419.02	1750.72
419.21	1799.87
419.39	1827.96
419.58	1874.77
419.77	1767.10
419.96	1830.30
420.15	1853.70
420.34	1898.17
420.53	1858.39
420.72	1989.46
420.91	1867.75
421.10	1884.13
421.29	1963.71
421.48	1891.15
421.67	1916.90
421.86	1870.09
422.05	2001.16
422.24	1914.56
422.43	1989.46
422.61	1914.56
422.80	1909.88
422.99	2057.33
423.18	1898.17
423.37	2083.08
423.56	1996.48
423.75	1916.90
423.94	2083.08
424.13	1846.68
424.32	1912.22
424.50	2024.56
424.69	2045.63
424.88	2090.10
425.07	2019.88
425.26	2001.16
425.45	1991.80
425.64	2059.67
425.83	2064.35
426.01	2139.25
426.20	1975.41
426.39	2111.16
426.58	2031.58
426.77	2045.63
426.96	2001.16
427.15	2106.48
427.33	2083.08
427.52	2087.76
427.71	2036.27
427.90	2118.18
428.09	2106.48
428.28	2153.29
428.46	2167.34
428.65	2120.53
428.84	2223.51
429.03	2190.74
429.22	2204.78
429.40	2291.38
429.59	2246.91
429.78	2207.13
429.97	2195.42
430.16	2106.48
430.34	2270.32
430.53	2253.94
430.72	2270.32
430.91	2305.43
431.10	2232.87
431.28	2293.72
431.47	2310.11
431.66	2394.37
431.85	2305.43
432.03	2272.66
432.22	2457.56
432.41	2410.75
432.60	2399.05
432.79	2326.49
432.97	2331.17
433.16	2616.72
433.35	2401.39
433.54	2565.23
433.72	2497.35
433.91	2450.54
434.10	2544.16
434.28	2558.21
434.47	2623.74
434.66	2565.23
434.85	2593.31
435.03	2497.35
435.22	2663.53
435.41	2717.36
435.59	2670.55
435.78	2605.02
435.97	2574.59
436.16	2567.57
436.34	2628.42
436.53	2691.62
436.72	2785.24
436.90	2656.51
437.09	2675.23
437.28	2696.30
437.46	2715.02
437.65	2736.09
437.84	2773.53
438.02	2689.28
438.21	2729.06
438.40	2794.60
438.58	2869.50
438.77	2949.08
438.96	2881.20
439.14	2909.29
439.33	3023.97
439.52	2911.63
439.70	2928.01
439.89	2958.44
440.08	2920.99
440.26	3066.10
440.45	2944.39
440.63	3023.97
440.82	3185.47
441.01	3098.87
441.19	3141.00
441.38	3180.79
441.57	3133.98
441.75	3229.94
441.94	3288.45
442.12	3260.37
442.31	3222.92
442.50	3365.69
442.68	3297.81
442.87	3246.32
443.05	3288.45
443.24	3442.93
443.43	3414.84
443.61	3232.28
443.80	3419.52
443.98	3187.81
444.17	3260.37
444.35	3433.57
444.54	3485.06
444.73	3410.16
444.91	3485.06
445.10	3314.20
445.28	3344.63
445.47	3438.25
445.65	3548.25
445.84	3342.28
446.02	3482.72
446.21	3358.67
446.39	3501.44
446.58	3372.71
446.77	3419.52
446.95	3353.99
447.14	3297.81
447.32	3499.10
447.51	3510.80
447.69	3482.72
447.88	3616.13
448.06	3559.95
448.25	3513.14
448.43	3475.70
448.62	3578.68
448.80	3555.27
448.99	3529.53
449.17	3564.64
449.36	3468.67
449.54	3588.04
449.73	3669.96
449.91	3693.37
450.10	3641.87
450.28	3632.51
450.46	3730.81
450.65	3744.86
450.83	3747.20
451.02	3632.51
451.20	3665.28
451.39	3801.03
451.57	3695.71
451.76	3691.02
451.94	3740.18
452.13	3861.88
452.31	3908.69
452.49	3672.30
452.68	3779.97
452.86	3964.87
453.05	3859.54
453.23	3845.50
453.42	3852.52
453.60	3782.31
453.78	3707.41
453.97	3852.52
454.15	3859.54
454.34	3875.93
454.52	4098.28
454.70	4042.11
454.89	3925.08
455.07	3953.16
455.26	4105.30
455.44	3943.80
455.62	4035.08
455.81	4271.48
455.99	4042.11
456.17	4126.36
456.36	4145.09
456.54	4060.83
456.73	4184.88
456.91	4285.52
457.09	4358.08
457.28	4360.42
457.46	4149.77
457.64	4458.72
457.83	4365.10
458.01	4250.41
458.19	4360.42
458.38	4325.31
458.56	4416.59
458.74	4472.76
458.93	4287.86
459.11	4308.93
459.29	4329.99
459.48	4550.00
459.66	4503.19
459.84	4451.70
460.03	4517.23
460.21	4472.76
460.39	4535.96
460.57	4440.00
460.76	4552.34
460.94	4503.19
461.12	4496.17
461.31	4568.73
461.49	4592.13
461.67	4533.62
461.85	4645.96
462.04	4648.30
462.22	4807.46
462.40	4751.29
462.59	4713.84
462.77	4676.39
462.95	4795.76
463.13	4662.35
463.32	4800.44
463.50	4875.34
463.68	4709.16
463.86	4784.06
464.05	4683.41
464.23	4755.97
464.41	4887.04
464.59	4800.44
464.78	4828.53
464.96	4968.96
465.14	4849.59
465.32	4858.95
465.50	4966.62
465.69	4922.15
465.87	4854.27
466.05	4985.34
466.23	5090.67
466.41	5097.69
466.60	5062.58
466.78	5116.41
466.96	4917.47
467.14	4980.66
467.32	4975.98
467.51	5018.11
467.69	5022.79
467.87	5165.56
468.05	5107.05
468.23	5043.85
468.41	5149.18
468.60	5153.86
468.78	5282.59
468.96	5083.64
469.14	5165.56
469.32	5184.29
469.50	5242.80
469.69	5238.12
469.87	5231.10
470.05	5371.53
470.23	5401.96
470.41	5366.85
470.59	5401.96
470.77	5451.11
470.95	5540.05
471.14	5572.82
471.32	5413.66
471.50	5472.17
471.68	5481.53
471.86	5521.32
472.04	5633.67
472.22	5591.54
472.40	5530.69
472.58	5729.63
472.77	5970.71
472.95	5907.51
473.13	5923.90
473.31	5830.27
473.49	5640.69
473.67	5748.36
473.85	5802.19
474.03	5888.79
474.21	5944.96
474.39	6127.52
474.57	5940.28
474.75	6132.20
474.93	6214.12
475.12	6031.56
475.30	6132.20
475.48	6080.71
475.66	6157.95
475.84	6258.59
476.02	6331.15
476.20	6174.33
476.38	6331.15
476.56	6551.16
476.74	6539.46
476.92	6520.73
477.10	6590.95
477.28	6761.81
477.46	6616.69
477.64	6572.22
477.82	6663.51
478.00	6829.68
478.18	6869.47
478.36	6988.84
478.54	7108.21
478.72	7056.72
478.90	7122.25
479.08	7274.38
479.26	7115.23
479.44	7159.70
479.62	7293.11
479.80	7339.92
479.98	7410.14
480.16	7513.12
480.34	7414.82
480.52	7454.61
480.70	7405.46
480.88	7527.16
481.06	7845.48
481.24	7700.36
481.41	7702.70
481.59	7805.69
481.77	8023.36
481.95	7922.71
482.13	7939.10
482.31	7765.90
482.49	8039.74
482.67	8245.71
482.85	8128.68
483.03	8533.59
483.21	8454.02
483.39	8498.49
483.57	8257.41
483.74	8601.47
483.92	8741.90
484.10	8648.28
484.28	8901.06
484.46	9022.77
484.64	9083.62
484.82	8908.08
485.00	9048.51
485.18	9062.55
485.35	9312.99
485.53	9331.72
485.71	9298.95
485.89	9289.59
486.07	9282.56
486.25	9399.59
486.43	9577.47
486.61	9659.39
486.78	9633.64
486.96	9724.93
487.14	10052.60
487.32	9895.78
487.50	10118.14
487.68	10059.62
487.85	10249.21
488.03	10228.14
488.21	10574.54
488.39	10391.98
488.57	10537.09
488.75	10534.75
488.92	10740.72
489.10	10703.27
489.28	10918.60
489.46	11014.56
489.64	11009.88
489.81	11077.76
489.99	11084.78
490.17	11255.64
490.35	11363.30
490.53	11391.39
490.70	11433.52
490.88	11555.22
491.06	11618.42
491.24	11728.42
491.41	11669.91
491.59	11882.90
491.77	11939.07
491.95	12095.89
492.13	12018.65
492.30	12241.00
492.48	12173.13
492.66	12070.14
492.84	12264.41
493.01	12367.39
493.19	12346.33
493.37	12669.32
493.54	12865.92
493.72	12854.22
493.90	12535.91
494.08	12868.27
494.25	13118.70
494.43	13235.73
494.61	13025.08
494.79	13195.94
494.96	13233.39
495.14	13467.44
495.32	13415.95
495.49	13383.18
495.67	13490.85
495.85	13872.36
496.02	13741.29
496.20	13982.36
496.38	13776.39
496.55	13811.50
496.73	14127.47
496.91	13940.23
497.09	14026.83
497.26	13991.72
497.44	14052.58
497.62	14284.29
497.79	14438.76
497.97	14579.20
498.14	14218.75
498.32	14593.24
498.50	14782.82
498.67	14721.97
498.85	14663.46
499.03	14937.30
499.20	14890.49
499.38	14949.00
499.56	15054.33
499.73	15222.84
499.91	15349.23
500.08	15342.21
500.26	15302.42
500.44	15400.72
500.61	15426.47
500.79	15194.76
500.97	15627.76
501.14	15681.59
501.32	15571.58
501.49	15602.01
501.67	15730.74
501.84	15880.53
502.02	15775.21
502.20	15800.96
502.37	15735.42
502.55	16123.95
502.72	16353.32
502.90	16056.08
503.07	16248.00
503.25	16100.55
503.43	15763.51
503.60	16435.24
503.78	16526.52
503.95	16266.72
504.13	16484.39
504.30	16585.04
504.48	16578.01
504.65	16407.16
504.83	16842.50
505.01	17048.46
505.18	17020.38
505.36	17240.39
505.53	16823.77
505.71	16943.14
505.88	16807.39
506.06	16791.00
506.23	17214.64
506.41	17118.68
506.58	17219.32
506.76	17296.56
506.93	17415.93
507.11	17341.03
507.28	17383.16
507.46	17469.76
507.63	17661.68
507.81	17415.93
507.98	17642.96
508.16	17874.67
508.33	17628.92
508.50	17790.41
508.68	17998.72
508.85	17895.74
509.03	17804.46
509.20	18251.50
509.38	18256.18
509.55	18251.50
509.73	18305.33
509.90	18394.27
510.08	18204.69
510.25	18171.92
510.42	18302.99
510.60	18417.68
510.77	18546.40
510.95	18420.02
511.12	18586.19
511.30	18398.95
511.47	18738.33
511.64	19117.50
511.82	18761.73
511.99	18780.46
512.17	19150.26
512.34	18890.46
512.51	19311.76
512.69	18808.54
512.86	19194.73
513.04	19199.41
513.21	19356.23
513.38	19105.79
513.56	19323.46
513.73	19440.49
513.90	19091.75
514.08	19145.58
514.25	19836.04
514.43	19590.28
514.60	19653.48
514.77	19695.61
514.95	19737.74
515.12	19477.94
515.29	19754.12
515.47	19861.79
515.64	20018.60
515.81	19866.47
515.99	19824.34
516.16	20116.90
516.33	20088.82
516.51	20135.63
516.68	19791.57
516.85	19962.43
517.03	20233.93
517.20	20601.40
517.37	20365.00
517.54	20568.63
517.72	20491.39
517.89	20812.04
518.06	20271.38
518.24	20519.48
518.41	20350.96
518.58	20465.64
518.75	20800.34
518.93	20980.56
519.10	20439.90
519.27	20685.65
519.45	20751.19
519.62	21025.03
519.79	21223.98
519.96	20833.11
520.14	20945.45
520.31	20865.88
520.48	21156.10
520.65	21099.93
520.83	21069.50
521.00	21034.39
521.17	21181.85
521.34	21198.23
521.52	21322.28
521.69	21289.51
521.86	21514.20
522.03	21495.48
522.20	21509.52
522.38	21621.87
522.55	21649.96
522.72	21612.51
522.89	21671.02
523.07	21898.05
523.24	21820.81
523.41	21876.99
523.58	21654.64
523.75	21799.75
523.92	21610.17
524.10	21715.49
524.27	21710.81
524.44	22232.75
524.61	22286.58
524.78	22120.40
524.96	22237.43
525.13	22005.72
525.30	22405.95
525.47	22373.18
525.64	22342.75
525.81	22419.99
525.98	22293.60
526.16	22630.64
526.33	22834.27
526.50	22780.43
526.67	22450.42
526.84	22843.63
527.01	22691.49
527.18	22635.32
527.36	22852.99
527.53	22890.44
527.70	23035.55
527.87	23126.83
528.04	22548.72
528.21	22932.57
528.38	22988.74
528.55	23152.58
528.72	23124.49
528.89	23173.64
529.07	23459.19
529.24	23288.33
529.41	23428.76
529.58	23323.44
529.75	23477.91
529.92	23047.26
530.09	23293.01
530.26	23718.99
530.43	23541.11
530.60	23527.06
530.77	23360.89
530.94	23763.46
531.11	23358.55
531.28	23484.94
531.46	23552.81
531.63	23616.01
531.80	23641.75
531.97	24027.94
532.14	23665.16
532.31	23821.97
532.48	23836.02
532.65	23854.74
532.82	23915.59
532.99	24002.19
533.16	24051.34
533.33	24285.40
533.50	24339.23
533.67	24266.67
533.84	24140.29
534.01	24329.87
534.18	24140.29
534.35	24620.10
534.52	24107.52
534.69	24423.49
534.86	24437.53
535.03	24114.54
535.20	24285.40
535.37	24608.39
535.54	24577.97
535.71	24353.27
535.88	24524.13
536.05	24465.62
536.22	24400.08
536.38	24636.48
536.55	24676.27
536.72	24678.61
536.89	24634.14
537.06	24800.32
537.23	25041.39
537.40	24896.28
537.57	24779.25
537.74	24762.87
537.91	24868.19
538.08	24875.21
538.25	25202.89
538.42	25090.54
538.59	24989.90
538.75	24978.20
538.92	25343.32
539.09	24903.30
539.26	25532.90
539.43	25256.72
539.60	25769.30
539.77	25378.43
539.94	25432.26
540.11	25074.16
540.28	25282.47
540.44	25387.79
540.61	25266.08
540.78	25345.66
540.95	25511.84
541.12	25460.35
541.29	25359.70
541.46	25455.67
541.62	25610.14
541.79	25577.37
541.96	25558.65
542.13	25514.18
542.30	25366.73
542.47	26064.21
542.63	26026.76
542.80	26082.93
542.97	26356.77
543.14	26052.50
543.31	25965.90
543.48	25923.77
543.64	26190.59
543.81	26061.87
543.98	26815.52
544.15	26361.45
544.32	26394.22
544.48	26237.41
544.65	26103.99
544.82	26216.34
544.99	26129.74
545.16	26368.48
545.32	26494.86
545.49	26504.23
545.66	26319.32
545.83	26382.52
546.00	26841.26
546.16	26279.54
546.33	26513.59
546.50	26061.87
546.67	26380.18
546.83	26305.28
547.00	26815.52
547.17	26911.48
547.34	26724.24
547.50	26867.01
547.67	26969.99
547.84	26885.73
548.00	26948.93
548.17	26745.30
548.34	26696.15
548.51	27201.71
548.67	26759.34
548.84	26988.72
549.01	26937.23
549.18	26661.04
549.34	27140.85
549.51	26635.30
549.68	27171.28
549.84	27257.88
550.01	26895.10
550.18	27314.05
550.34	27122.13
550.51	27016.80
550.68	27131.49
550.84	27119.79
551.01	27297.67
551.18	27023.83
551.34	26906.80
551.51	27225.11
551.68	27077.66
551.84	27527.04
552.01	27606.62
552.18	27381.93
552.34	27594.92
552.51	27665.13
552.68	27285.97
552.84	27480.23
553.01	27587.89
553.18	27185.32
553.34	28009.19
553.51	27410.01
553.67	27747.05
553.84	27723.65
554.01	28002.17
554.17	27999.83
554.34	27538.74
554.51	27765.78
554.67	27704.92
554.84	27765.78
555.00	27789.18
555.17	27861.74
555.33	27651.09
555.50	28109.83
555.67	27669.81
555.83	27948.34
556.00	27742.37
556.16	27934.29
556.33	28189.41
556.50	27648.75
556.66	28173.03
556.83	28477.30
556.99	28507.72
557.16	28215.16
557.32	28030.26
557.49	28264.31
557.65	28006.85
557.82	28566.24
557.98	28025.57
558.15	27936.63
558.32	28439.85
558.48	28648.16
558.65	28418.78
558.81	28407.08
558.98	28343.89
559.14	28304.10
559.31	28498.36
559.47	28402.40
559.64	28500.70
559.80	28563.90
559.97	28114.52
560.13	28107.49
560.30	28582.62
560.46	28561.56
560.63	28606.03
560.79	28519.43
560.96	28723.05
561.12	28505.38
561.29	28320.48
561.45	28819.02
561.61	28276.01
561.78	28521.77
561.94	28402.40
562.11	28760.50
562.27	28631.77
562.44	28861.15
562.60	28739.44
562.77	28996.90
562.93	28421.13
563.10	29132.65
563.26	28851.78
563.42	29270.74
563.59	28746.46
563.75	29010.94
563.92	29102.22
564.08	28432.83
564.24	28634.11
564.41	28776.89
564.57	29001.58
564.74	28790.93
564.90	29144.35
565.07	28872.85
565.23	29020.30
565.39	28802.63
565.56	29261.38
565.72	29090.52
565.88	28861.15
566.05	28819.02
566.21	28701.99
566.38	28760.50
566.54	28982.85
566.70	28999.24
566.87	29120.95
567.03	29198.18
567.19	29453.30
567.36	29315.21
567.52	29102.22
567.68	29263.72
567.85	28697.31
568.01	29659.27
568.17	28828.38
568.34	29294.14
568.50	29226.27
568.66	29015.62
568.83	29242.65
568.99	29205.20
569.15	29036.69
569.32	28711.35
569.48	29057.75
569.64	29336.27
569.81	29383.09
569.97	29273.08
570.13	29738.85
570.30	29001.58
570.46	29305.85
570.62	29570.33
570.78	29048.39
570.95	28989.88
571.11	29504.79
571.27	28875.19
571.43	29029.66
571.60	29055.41
571.76	29181.80
571.92	29287.12
572.09	29392.45
572.25	29537.56
572.41	29661.61
572.57	29607.78
572.74	29525.86
572.90	29310.53
573.06	29404.15
573.22	29425.22
573.38	29429.90
573.55	29179.46
573.71	29752.89
573.87	29570.33
574.03	29427.56
574.20	29607.78
574.36	29081.16
574.52	29476.71
574.68	29586.71
574.84	29553.94
575.01	29598.41
575.17	29528.20
575.33	29235.63
575.49	29516.50
575.65	29633.52
575.82	29680.33
575.98	29507.13
576.14	29619.48
576.30	29357.34
576.46	29134.99
576.62	28924.34
576.79	29308.19
576.95	29317.55
577.11	29268.40
577.27	29226.27
577.43	29717.78
577.59	29507.13
577.75	29799.70
577.92	29366.70
578.08	29399.47
578.24	29542.24
578.40	29670.97
578.56	29572.67
578.72	30012.69
578.88	29935.45
579.04	30064.18
579.21	29713.10
579.37	29319.89
579.53	29659.27
579.69	29216.91
579.85	29392.45
580.01	29406.49
580.17	29647.57
580.33	29362.02
580.49	29490.75
580.65	29633.52
580.82	29696.72
580.98	29795.02
581.14	29642.88
581.30	29844.17
581.46	29640.54
581.62	29406.49
581.78	29149.03
581.94	29759.91
582.10	29567.99
582.26	29537.56
582.42	29553.94
582.58	29406.49
582.74	29422.87
582.90	30050.14
583.06	29708.42
583.22	29773.95
583.38	29771.61
583.54	29685.01
583.70	29542.24
583.86	29872.26
584.02	29591.39
584.18	29914.39
584.34	29933.11
584.50	29813.74
584.66	29734.17
584.82	29605.44
584.98	29675.65
585.14	29596.07
585.30	28940.72
585.46	29692.04
585.62	29663.95
585.78	29898.00
585.94	29345.64
586.10	29825.45
586.26	29937.79
586.42	30134.40
586.58	29844.17
586.74	29493.09
586.90	29703.74
587.06	29633.52
587.22	29834.81
587.38	29806.72
587.54	30054.82
587.70	29963.54
587.86	30040.78
588.02	30054.82
588.18	30284.19
588.34	29617.14
588.49	30174.19
588.65	29869.92
588.81	29605.44
588.97	29792.68
589.13	29584.37
589.29	29830.13
589.45	30040.78
589.61	30094.61
589.77	30169.51
589.93	30005.67
590.08	30082.91
590.24	30108.65
590.40	29902.68
590.56	30309.94
590.72	30096.95
590.88	29539.90
591.04	30120.35
591.20	30426.96
591.35	30377.81
591.51	30221.00
591.67	30209.29
591.83	30415.26
591.99	30405.90
592.15	30019.71
592.31	29986.94
592.46	29928.43
592.62	29656.93
592.78	29916.73
592.94	30546.33
593.10	29935.45
593.26	30120.35
593.41	30251.42
593.57	30176.53
593.73	30253.76
593.89	30082.91
594.05	30473.78
594.20	30164.82
594.36	29984.60
594.52	30050.14
594.68	30003.33
594.84	29862.90
594.99	30099.29
595.15	30211.64
595.31	30171.85
595.47	29771.61
595.62	30476.12
595.78	30307.60
595.94	30288.87
596.10	30249.08
596.25	29729.48
596.41	30045.46
596.57	30265.47
596.73	30031.41
596.88	30078.22
597.04	29965.88
597.20	30242.06
597.36	30036.09
597.51	30206.95
597.67	30419.94
597.83	30036.09
597.99	30136.74
598.14	30015.03
598.30	30162.48
598.46	30323.98
598.61	30209.29
598.77	30300.58
598.93	30288.87
599.09	30288.87
599.24	30396.54
599.40	30731.23
599.56	30455.05
599.71	30494.84
599.87	29832.47
600.03	29804.38
600.18	30321.64
600.34	30635.27
600.50	30281.85
600.65	30555.69
600.81	30539.31
600.97	30415.26
601.12	30504.20
601.28	30551.01
601.44	30766.34
601.59	30515.90
601.75	30071.20
601.91	30071.20
602.06	29998.65
602.22	29776.30
602.37	30239.72
602.53	29979.92
602.69	30246.74
602.84	30445.69
603.00	30415.26
603.16	30359.09
603.31	30562.72
603.47	30389.52
603.62	30045.46
603.78	30429.30
603.94	29876.94
604.09	30054.82
604.25	30281.85
604.40	30307.60
604.56	30675.06
604.71	30742.94
604.87	30265.47
605.03	30445.69
605.18	30279.51
605.34	30066.52
605.49	29837.15
605.65	29893.32
605.80	30089.93
605.96	30157.80
606.12	30017.37
606.27	30047.80
606.43	29759.91
606.58	30141.42
606.74	30298.23
606.89	30192.91
607.05	30766.34
607.20	30583.78
607.36	30515.90
607.51	30302.92
607.67	29853.53
607.82	29902.68
607.98	29766.93
608.13	30218.66
608.29	29949.50
608.44	30075.88
608.60	30253.76
608.75	30118.01
608.91	30263.13
609.06	30015.03
609.22	30279.51
609.37	29692.04
609.53	29996.31
609.68	29792.68
609.84	29963.54
609.99	29752.89
610.15	29848.85
610.30	30199.93
610.46	30038.44
610.61	30040.78
610.76	30085.25
610.92	30171.85
611.07	29713.10
611.23	30024.39
611.38	29984.60
611.54	29567.99
611.69	29867.58
611.84	29928.43
612.00	29860.55
612.15	29687.36
612.31	29979.92
612.46	30000.99
612.62	30099.29
612.77	29776.30
612.92	30326.32
613.08	30031.41
613.23	29802.04
613.39	29858.21
613.54	29523.52
613.69	30015.03
613.85	29757.57
614.00	29792.68
614.15	30015.03
614.31	29511.81
614.46	29432.24
614.62	29720.12
614.77	29446.28
614.92	29921.41
615.08	29598.41
615.23	30015.03
615.38	29596.07
615.54	29579.69
615.69	29675.65
615.84	29413.51
616.00	29497.77
616.15	29198.18
616.30	29898.00
616.46	29364.36
616.61	29387.77
616.76	29539.90
616.92	29275.42
617.07	29570.33
617.22	29347.98
617.37	29212.23
617.53	29188.82
617.68	29149.03
617.83	29727.14
617.99	29457.98
618.14	29104.56
618.29	29422.87
618.45	29156.05
618.60	29570.33
618.75	29563.31
618.90	29490.75
619.06	29315.21
619.21	29448.62
619.36	29443.94
619.51	29076.48
619.67	29104.56
619.82	29069.45
619.97	29146.69
620.12	29254.36
620.28	28936.04
620.43	29237.97
620.58	29425.22
620.73	29577.35
620.89	28959.45
621.04	29347.98
621.19	28804.97
621.34	29209.89
621.49	28968.81
621.65	29113.92
621.80	29195.84
621.95	29074.13
622.10	28893.91
622.25	28732.42
622.41	28795.61
622.56	28694.97
622.71	29097.54
622.86	28985.19
623.01	28802.63
623.16	28486.66
623.32	28704.33
623.47	28680.92
623.62	28559.22
623.77	28521.77
623.92	28779.23
624.07	28982.85
624.23	28996.90
624.38	28795.61
624.53	28657.52
624.68	28856.46
624.83	28957.11
624.98	28732.42
625.13	28788.59
625.29	28584.96
625.44	28577.94
625.59	28613.05
625.74	28304.10
625.89	28287.71
626.04	28737.10
626.19	28304.10
626.34	28362.61
626.49	28322.82
626.65	28390.70
626.80	28514.75
626.95	28783.91
627.10	28222.18
627.25	28561.56
627.40	28215.16
627.55	28273.67
627.70	28112.17
627.85	28299.42
628.00	28144.94
628.15	28077.07
628.30	28025.57
628.45	28166.01
628.60	28346.23
628.76	28233.88
628.91	28514.75
629.06	28418.78
629.21	28355.59
629.36	27983.44
629.51	28027.92
629.66	28149.62
629.81	27983.44
629.96	27950.68
630.11	27857.06
630.26	27964.72
630.41	27924.93
630.56	27913.23
630.71	28205.80
630.86	28315.80
631.01	28020.89
631.16	27950.68
631.31	27847.69
631.46	27772.80
631.61	27665.13
631.76	28077.07
631.91	27812.59
632.06	27761.09
632.21	27426.40
632.36	27747.05
632.51	27733.01
632.66	27632.36
632.81	27414.69
632.96	27850.03
633.10	27669.81
633.25	27882.80
633.40	27796.20
633.55	27690.88
633.70	27463.85
633.85	27580.87
634.00	27625.34
634.15	27393.63
634.30	27466.19
634.45	27311.71
634.60	27260.22
634.75	27704.92
634.90	27295.33
635.05	27290.65
635.19	27379.59
635.34	27693.22
635.49	27377.25
635.64	27847.69
635.79	27290.65
635.94	27178.30
636.09	27653.43
636.24	27281.28
636.39	27274.26
636.53	27138.51
636.68	27363.20
636.83	27278.94
636.98	27580.87
637.13	27405.33
637.28	27594.92
637.43	27536.40
637.57	26941.91
637.72	27625.34
637.87	27271.92
638.02	27232.13
638.17	27372.57
638.32	26759.34
638.46	26993.40
638.61	26799.13
638.76	26602.53
638.91	27091.70
639.06	27318.73
639.20	27002.76
639.35	27173.62
639.50	26799.13
639.65	27014.46
639.80	27307.03
639.94	26874.03
640.09	27309.37
640.24	27047.23
640.39	26742.96
640.54	26731.26
640.68	26979.36
640.83	26686.79
640.98	26665.72
641.13	26754.66
641.27	27129.15
641.42	26787.43
641.57	26656.36
641.72	27009.78
641.86	26735.94
642.01	26733.60
642.16	26389.54
642.31	26415.29
642.45	26850.63
642.60	26618.91
642.75	26618.91
642.90	26394.22
643.04	26223.36
643.19	26387.20
643.34	26536.99
643.48	26443.37
643.63	26508.91
643.78	26426.99
643.93	26588.49
644.07	26693.81
644.22	26314.64
644.37	26654.02
644.51	26214.00
644.66	26291.24
644.81	26363.79
644.95	26209.32
645.10	26466.78
645.25	26235.06
645.39	26609.55
645.54	26164.85
645.69	26274.85
645.83	26363.79
645.98	26174.21
646.13	26089.95
646.27	26209.32
646.42	26298.26
646.57	26476.14
646.71	26288.90
646.86	25862.92
647.00	26183.57
647.15	25963.56
647.30	25905.05
647.44	25783.34
647.59	25914.41
647.74	25972.92
647.88	25827.81
648.03	26010.37
648.17	26445.71
648.32	26192.94
648.47	26553.38
648.61	26066.55
648.76	26244.43
648.90	26183.57
649.05	25855.90
649.20	25839.51
649.34	26096.97
649.49	25596.10
649.63	25582.06
649.78	25680.36
649.92	25659.29
650.07	25689.72
650.21	25804.41
650.36	25748.23
650.51	25827.81
650.65	25893.35
650.80	25965.90
650.94	25666.31
651.09	25497.80
651.23	25907.39
651.38	25216.93
651.52	25350.34
651.67	25645.25
651.81	25912.07
651.96	25556.31
652.10	25844.20
652.25	25902.71
652.39	25617.16
652.54	25703.76
652.68	25876.96
652.83	25752.91
652.97	25649.93
653.12	25516.52
653.26	25781.00
653.41	25296.51
653.55	25273.10
653.70	25385.45
653.84	25460.35
653.99	25392.47
654.13	25263.74
654.27	25120.97
654.42	25633.55
654.56	25486.09
654.71	25507.16
654.85	25633.55
655.00	25731.85
655.14	25193.53
655.29	25123.31
655.43	25544.61
655.57	25060.12
655.72	25446.30
655.86	24945.43
656.01	25198.21
656.15	24926.71
656.30	25025.01
656.44	25010.96
656.58	25135.01
656.73	24800.32
656.87	24692.65
657.01	24877.55
657.16	25263.74
657.30	25212.25
657.45	24968.84
657.59	24816.70
657.73	25022.67
657.88	24875.21
658.02	24875.21
658.16	24758.19
658.31	24973.52
658.45	24662.22
658.60	24318.17
658.74	25050.75
658.88	24676.27
659.03	24493.71
659.17	24957.13
659.31	24655.20
659.46	24634.14
659.60	24659.88
659.74	24498.39
659.89	24435.19
660.03	24907.98
660.17	24669.25
660.32	24205.82
660.46	24306.46
660.60	24376.68
660.74	23852.40
660.89	24182.42
661.03	23981.13
661.17	24133.26
661.32	24257.31
661.46	24357.96
661.60	24666.91
661.74	24065.39
661.89	24430.51
662.03	23740.05
662.17	24023.26
662.31	24004.53
662.46	24079.43
662.60	23807.93
662.74	23880.49
662.88	24027.94
663.03	23899.21
663.17	23971.77
663.31	23384.29
663.45	23688.56
663.60	23709.63
663.74	23765.80
663.88	23800.91
664.02	23824.31
664.17	23880.49
664.31	23557.49
664.45	23796.23
664.59	23803.25
664.73	23330.46
664.88	23426.42
665.02	23697.92
665.16	23019.17
665.30	23396.00
665.44	23150.24
665.59	23379.61
665.73	23094.07
665.87	22967.68
666.01	23342.16
666.15	23498.98
666.29	23573.88
666.44	23164.28
666.58	23108.11
666.72	22836.61
666.86	23274.29
667.00	23396.00
667.14	23136.20
667.28	23023.85
667.43	22609.58
667.57	23236.84
667.71	22693.83
667.85	22548.72
667.99	22443.40
668.13	22747.67
668.27	22752.35
668.41	22787.46
668.56	22649.36
668.70	22434.03
668.84	22717.24
668.98	22750.01
669.12	22354.46
669.26	22607.23
669.40	22532.34
669.54	22740.64
669.68	22274.88
669.82	22199.98
669.96	22134.45
670.10	22125.08
670.25	22302.96
670.39	21986.99
670.53	22087.64
670.67	21832.52
670.81	22043.17
670.95	21996.35
671.09	22043.17
671.23	22012.74
671.37	21916.78
671.51	21853.58
671.65	21994.01
671.79	22040.82
671.93	21825.50
672.07	21647.61
672.21	21570.38
672.35	21390.16
672.49	21331.64
672.63	21846.56
672.77	21617.19
672.91	21748.26
673.05	21479.10
673.19	21509.52
673.33	21329.30
673.47	21205.25
673.61	21383.13
673.75	21242.70
673.89	21329.30
674.03	21275.47
674.17	21294.19
674.31	21324.62
674.45	21003.97
674.59	20922.05
674.73	21006.31
674.87	21013.33
675.01	20926.73
675.15	20720.76
675.29	20917.37
675.43	20849.49
675.56	20748.85
675.70	20795.66
675.84	20882.26
675.98	20042.01
676.12	20783.96
676.26	20746.51
676.40	20608.42
676.54	20676.29
676.68	20463.30
676.82	19929.66
676.96	20222.23
677.10	20327.55
677.23	20276.06
677.37	19950.73
677.51	19915.62
677.65	19639.44
677.79	19744.76
677.93	19988.18
678.07	19623.05
678.21	19711.99
678.34	19686.25
678.48	19779.87
678.62	19566.88
678.76	19531.77
678.90	19435.81
679.04	19531.77
679.18	19564.54
679.31	19344.53
679.45	19180.69
679.59	19068.34
679.73	18658.75
679.87	19154.94
680.00	18897.49
680.14	18754.71
680.28	18876.42
680.42	18834.29
680.56	19131.54
680.70	18459.81
680.83	18728.97
680.97	18754.71
681.11	18609.60
681.25	18483.21
681.39	18384.91
681.52	18656.41
681.66	18050.21
681.80	18427.04
681.94	18459.81
682.07	18141.49
682.21	18054.89
682.35	17788.07
682.49	17839.56
682.62	17916.80
682.76	17675.73
682.90	18185.96
683.04	18005.74
683.17	18235.11
683.31	17970.63
683.45	17734.24
683.59	17614.87
683.72	17542.32
683.86	17951.91
684.00	17598.49
684.13	17418.27
684.27	17371.46
684.41	17549.34
684.55	17326.99
684.68	16996.97
684.82	17132.72
684.96	17046.12
685.09	17130.38
685.23	16748.87
685.37	16837.81
685.50	16798.02
685.64	17003.99
685.78	16882.28
685.91	17018.04
686.05	16856.54
686.19	16725.47
686.32	16650.57
686.46	16404.81
686.60	16386.09
686.73	16662.27
686.87	16411.84
687.01	16301.83
687.14	16266.72
687.28	15978.84
687.42	16217.57
687.55	16039.69
687.69	16065.44
687.82	16077.14
687.96	15950.75
688.10	15950.75
688.23	15770.53
688.37	15995.22
688.50	15737.76
688.64	15836.06
688.78	15758.83
688.91	15730.74
689.05	15552.86
689.18	15520.09
689.32	15197.10
689.46	15414.77
689.59	15253.27
689.73	15154.97
689.86	14956.02
690.00	15049.64
690.13	15201.78
690.27	14979.43
690.41	15211.14
690.54	14773.46
690.68	15056.67
690.81	14853.04
690.95	14801.55
691.08	14813.25
691.22	14743.03
691.35	14689.20
691.49	14752.40
691.62	14733.67
691.76	14527.71
691.89	14478.55
692.03	14356.85
692.16	14204.71
692.30	14061.94
692.43	13984.70
692.57	13956.61
692.70	14157.90
692.84	14143.86
692.97	14080.66
693.11	14012.79
693.24	13980.02
693.38	13928.53
693.51	13909.80
693.65	13909.80
693.78	13689.79
693.92	13743.63
694.05	13757.67
694.19	13645.32
694.32	13378.50
694.45	13502.55
694.59	13275.52
694.72	13214.66
694.86	13107.00
694.99	13240.41
695.13	13071.89
695.26	13167.85
695.39	12828.48
695.53	13107.00
695.66	13387.86
695.80	12844.86
695.93	12924.44
696.07	12898.69
696.20	12821.45
696.33	12800.39
696.47	12585.06
696.60	12800.39
696.73	12463.35
696.87	12786.35
697.00	12568.68
697.14	12376.75
697.27	12072.48
697.40	12109.93
697.54	12376.75
697.67	12194.19
697.80	12025.67
697.94	11969.50
698.07	12091.21
698.21	11800.98
698.34	12140.36
698.47	11969.50
698.61	12140.36
698.74	11793.96
698.87	11988.22
699.01	11775.24
699.14	11896.94
699.27	11644.17
699.40	11784.60
699.54	11779.92
699.67	11625.44
699.80	11431.18
699.94	11456.92
700.07	11126.91
700.20	11201.80
700.34	11019.24
700.47	11084.78
700.60	11250.96
700.73	11417.13
700.87	11066.05
701.00	11005.20
701.13	10923.28
701.26	11061.37
701.40	11126.91
701.53	11073.07
701.66	11056.69
701.79	10836.68
701.93	10562.84
702.06	10651.78
702.19	10670.50
702.32	10642.42
702.46	10424.75
702.59	10450.49
702.72	10162.61
702.85	10279.63
702.99	10361.55
703.12	10293.68
703.25	10143.88
703.38	10146.22
703.51	10099.41
703.65	10228.14
703.78	10153.24
703.91	10085.37
704.04	10064.30
704.17	10073.67
704.31	10108.77
704.44	9949.62
704.57	9895.78
704.70	9811.53
704.83	9755.35
704.96	9647.69
705.10	9720.24
705.23	9540.02
>>>>>End Processed Spectral Data<<<<<
