SpectraSuite Data File
++++++++++++++++++++++++++++++++++++
Date: Fri Oct 18 13:58:42 GMT-05:00 2013
User: bianchi
Dark Spectrum Present: No
Reference Spectrum Present: No
Number of Sampled Component Spectra: 1
Spectrometers: USB2+H05261
Integration Time (usec): 50000 (USB2+H05261)
Spectra Averaged: 1 (USB2+H05261)
Boxcar Smoothing: 0 (USB2+H05261)
Correct for Electrical Dark: No (USB2+H05261)
Strobe/Lamp Enabled: No (USB2+H05261)
Correct for Detector Non-linearity: No (USB2+H05261)
Correct for Stray Light: No (USB2+H05261)
Number of Pixels in Processed Spectrum: 2048
>>>>>Begin Processed Spectral Data<<<<<
365.73	0.00
365.92	0.00
366.12	0.00
366.32	0.00
366.52	0.00
366.72	0.00
366.91	0.00
367.11	0.00
367.31	0.00
367.51	0.00
367.70	0.00
367.90	0.00
368.10	0.00
368.30	0.00
368.49	0.00
368.69	0.00
368.89	0.00
369.09	0.00
369.28	0.00
369.48	0.00
369.68	0.00
369.87	0.00
370.07	0.00
370.27	0.00
370.47	0.00
370.66	100.64
370.86	86.60
371.06	140.43
371.25	149.79
371.45	117.03
371.65	196.60
371.84	173.20
372.04	149.79
372.24	128.73
372.44	149.79
372.63	149.79
372.83	248.10
373.03	231.71
373.22	170.86
373.42	198.95
373.62	156.82
373.81	198.95
374.01	250.44
374.21	238.73
374.40	177.88
374.60	271.50
374.79	205.97
374.99	224.69
375.19	222.35
375.38	271.50
375.58	294.91
375.78	255.12
375.97	196.60
376.17	273.84
376.37	140.43
376.56	259.80
376.76	175.54
376.95	161.50
377.15	266.82
377.35	285.55
377.54	280.86
377.74	299.59
377.93	255.12
378.13	255.12
378.33	205.97
378.52	163.84
378.72	306.61
378.91	255.12
379.11	306.61
379.31	311.29
379.50	313.63
379.70	311.29
379.89	404.91
380.09	285.55
380.28	278.52
380.48	266.82
380.68	311.29
380.87	255.12
381.07	283.20
381.26	325.33
381.46	332.36
381.65	255.12
381.85	313.63
382.04	339.38
382.24	402.57
382.43	414.27
382.63	388.53
382.83	369.80
383.02	428.32
383.22	358.10
383.41	372.15
383.61	327.68
383.80	304.27
384.00	313.63
384.19	374.49
384.39	386.19
384.58	376.83
384.78	381.51
384.97	355.76
385.17	423.64
385.36	325.33
385.56	348.74
385.75	425.98
385.95	402.57
386.14	416.62
386.34	409.59
386.53	388.53
386.72	428.32
386.92	500.87
387.11	376.83
387.31	428.32
387.50	447.04
387.70	416.62
387.89	444.70
388.09	437.68
388.28	428.32
388.48	458.74
388.67	486.83
388.86	433.00
389.06	397.89
389.25	475.13
389.45	449.38
389.64	444.70
389.84	442.36
390.03	463.43
390.22	500.87
390.42	514.92
390.61	454.06
390.81	458.74
391.00	482.15
391.19	437.68
391.39	510.24
391.58	526.62
391.78	538.32
391.97	505.56
392.16	521.94
392.36	540.66
392.55	531.30
392.75	599.18
392.94	477.47
393.13	531.30
393.33	587.47
393.52	589.82
393.71	599.18
393.91	627.26
394.10	582.79
394.29	545.34
394.49	620.24
394.68	648.33
394.88	613.22
395.07	613.22
395.26	674.07
395.46	575.77
395.65	552.37
395.84	653.01
396.04	608.54
396.23	676.41
396.42	671.73
396.62	655.35
396.81	653.01
397.00	674.07
397.19	662.37
397.39	662.37
397.58	779.40
397.77	606.20
397.97	606.20
398.16	681.10
398.35	688.12
398.55	645.99
398.74	655.35
398.93	748.97
399.12	732.59
399.32	681.10
399.51	744.29
399.70	737.27
399.90	657.69
400.09	772.38
400.28	760.67
400.47	767.70
400.67	746.63
400.86	772.38
401.05	760.67
401.24	751.31
401.44	870.68
401.63	863.66
401.82	732.59
402.01	793.44
402.21	669.39
402.40	795.78
402.59	837.91
402.78	821.53
402.97	931.53
403.17	877.70
403.36	898.77
403.55	786.42
403.74	873.02
403.93	940.90
404.13	826.21
404.32	919.83
404.51	1036.86
404.70	905.79
404.89	910.47
405.09	896.43
405.28	943.24
405.47	880.04
405.66	1071.97
405.85	905.79
406.05	957.28
406.24	1013.45
406.43	1081.33
406.62	997.07
406.81	1158.57
407.00	1018.13
407.20	952.60
407.39	1020.47
407.58	954.94
407.77	1097.71
407.96	1013.45
408.15	1032.18
408.34	1041.54
408.54	1093.03
408.73	1107.07
408.92	1086.01
409.11	1191.33
409.30	1160.91
409.49	1104.73
409.68	1226.44
409.87	1095.37
410.07	1181.97
410.26	1121.12
410.45	1188.99
410.64	1165.59
410.83	1188.99
411.02	1224.10
411.21	1289.64
411.40	1284.95
411.59	1193.67
411.78	1177.29
411.98	1277.93
412.17	1259.21
412.36	1280.27
412.55	1343.47
412.74	1324.74
412.93	1338.79
413.12	1357.51
413.31	1444.11
413.50	1369.21
413.69	1434.75
413.88	1359.85
414.07	1432.41
414.26	1418.36
414.45	1495.60
414.64	1572.84
414.83	1563.48
415.02	1519.01
415.22	1502.62
415.41	1640.72
415.60	1516.67
415.79	1645.40
415.98	1497.94
416.17	1624.33
416.36	1629.01
416.55	1685.19
416.74	1605.61
416.93	1488.58
417.12	1661.78
417.31	1664.12
417.50	1650.08
417.69	1776.47
417.88	1753.06
418.07	1687.53
418.26	1724.97
418.45	1783.49
418.64	1818.60
418.83	1809.23
419.02	1776.47
419.21	1912.22
419.39	1895.83
419.58	1783.49
419.77	1849.02
419.96	1806.89
420.15	1856.04
420.34	1804.55
420.53	1975.41
420.72	1956.69
420.91	1834.98
421.10	1928.60
421.29	1907.54
421.48	1966.05
421.67	1996.48
421.86	2017.54
422.05	2132.23
422.24	1959.03
422.43	1792.85
422.61	1949.67
422.80	1998.82
422.99	2019.88
423.18	2015.20
423.37	2047.97
423.56	1949.67
423.75	1893.49
423.94	1940.30
424.13	1792.85
424.32	1916.90
424.50	2003.50
424.69	2099.46
424.88	2054.99
425.07	2015.20
425.26	2080.74
425.45	1926.26
425.64	2054.99
425.83	1959.03
426.01	1963.71
426.20	2019.88
426.39	2050.31
426.58	2012.86
426.77	2057.33
426.96	2001.16
427.15	2033.93
427.33	2047.97
427.52	2057.33
427.71	2094.78
427.90	2143.93
428.09	2157.97
428.28	2176.70
428.46	2143.93
428.65	2162.66
428.84	2162.66
429.03	2242.23
429.22	2230.53
429.40	2359.26
429.59	2380.32
429.78	2167.34
429.97	2134.57
430.16	2188.40
430.34	2258.62
430.53	2303.09
430.72	2270.32
430.91	2286.70
431.10	2312.45
431.28	2319.47
431.47	2310.11
431.66	2434.16
431.85	2450.54
432.03	2380.32
432.22	2546.50
432.41	2588.63
432.60	2459.90
432.79	2450.54
432.97	2462.24
433.16	2541.82
433.35	2359.26
433.54	2497.35
433.72	2469.27
433.91	2541.82
434.10	2576.93
434.28	2478.63
434.47	2583.95
434.66	2551.18
434.85	2590.97
435.03	2495.01
435.22	2541.82
435.41	2658.85
435.59	2682.25
435.78	2628.42
435.97	2569.91
436.16	2754.81
436.34	2794.60
436.53	2773.53
436.72	2750.13
436.90	2717.36
437.09	2691.62
437.28	2642.46
437.46	2696.30
437.65	2806.30
437.84	2867.16
438.02	2712.68
438.21	2815.66
438.40	2693.96
438.58	2853.11
438.77	2935.03
438.96	2918.65
439.14	2939.71
439.33	2958.44
439.52	2871.84
439.70	2967.80
439.89	3007.59
440.08	3007.59
440.26	3023.97
440.45	3038.02
440.63	3096.53
440.82	3005.25
441.01	3054.40
441.19	3162.06
441.38	3016.95
441.57	3082.49
441.75	3356.33
441.94	3391.44
442.12	3339.94
442.31	3400.80
442.50	3178.45
442.68	3133.98
442.87	3379.73
443.05	3281.43
443.24	3267.39
443.43	3421.86
443.61	3386.76
443.80	3545.91
443.98	3234.62
444.17	3377.39
444.35	3487.40
444.54	3531.87
444.73	3337.60
444.91	3583.36
445.10	3449.95
445.28	3318.88
445.47	3389.10
445.65	3386.76
445.84	3606.77
446.02	3473.36
446.21	3515.48
446.39	3414.84
446.58	3559.95
446.77	3545.91
446.95	3379.73
447.14	3478.04
447.32	3503.78
447.51	3524.85
447.69	3452.29
447.88	3564.64
448.06	3456.97
448.25	3562.30
448.43	3590.38
448.62	3581.02
448.80	3475.70
448.99	3552.93
449.17	3524.85
449.36	3599.74
449.54	3667.62
449.73	3662.94
449.91	3754.22
450.10	3805.71
450.28	3609.11
450.46	3719.11
450.65	3768.26
450.83	3744.86
451.02	3850.18
451.20	3702.73
451.39	3843.16
451.57	3735.50
451.76	3714.43
451.94	3852.52
452.13	3901.67
452.31	3812.73
452.49	3719.11
452.68	3782.31
452.86	3840.82
453.05	3824.44
453.23	3932.10
453.42	3953.16
453.60	3885.29
453.78	3950.82
453.97	3948.48
454.15	3847.84
454.34	3936.78
454.52	3932.10
454.70	3990.61
454.89	4095.94
455.07	4016.36
455.26	4067.85
455.44	4086.58
455.62	4004.66
455.81	4098.28
455.99	4117.00
456.17	4098.28
456.36	4332.33
456.54	4182.54
456.73	4266.80
456.91	4245.73
457.09	4091.26
457.28	4329.99
457.46	4161.47
457.64	4299.56
457.83	4346.37
458.01	4231.69
458.19	4290.20
458.38	4353.40
458.56	4416.59
458.74	4477.44
458.93	4327.65
459.11	4332.33
459.29	4468.08
459.48	4402.55
459.66	4383.82
459.84	4685.75
460.03	4624.90
460.21	4587.45
460.39	4437.66
460.57	4435.32
460.76	4416.59
460.94	4573.41
461.12	4571.07
461.31	4655.33
461.49	4465.74
461.67	4587.45
461.85	4650.64
462.04	4601.49
462.22	4788.74
462.40	4535.96
462.59	4631.92
462.77	4809.80
462.95	4741.93
463.13	4903.42
463.32	4622.56
463.50	4826.18
463.68	4720.86
463.86	4851.93
464.05	4873.00
464.23	4891.72
464.41	4919.81
464.59	4758.31
464.78	4922.15
464.96	4922.15
465.14	4730.22
465.32	5029.81
465.50	4985.34
465.69	5116.41
465.87	5160.88
466.05	5015.77
466.23	5095.35
466.41	5132.79
466.60	5291.95
466.78	5067.26
466.96	5095.35
467.14	4908.10
467.32	5121.09
467.51	5130.45
467.69	5043.85
467.87	5149.18
468.05	5025.13
468.23	5109.39
468.41	5114.07
468.60	5114.07
468.78	5308.34
468.96	5184.29
469.14	5343.44
469.32	5263.86
469.50	5256.84
469.69	5348.12
469.87	5397.28
470.05	5334.08
470.23	5266.21
470.41	5437.06
470.59	5366.85
470.77	5453.45
470.95	5327.06
471.14	5659.42
471.32	5516.64
471.50	5586.86
471.68	5547.07
471.86	5841.98
472.04	5537.71
472.22	5600.90
472.40	5600.90
472.58	5729.63
472.77	5734.31
472.95	5673.46
473.13	5919.21
473.31	5645.37
473.49	5554.09
473.67	5860.70
473.85	5818.57
474.03	5996.45
474.21	5940.28
474.39	5935.60
474.57	6003.47
474.75	6069.01
474.93	6246.89
475.12	6139.23
475.30	6108.80
475.48	6169.65
475.66	6204.76
475.84	6221.14
476.02	6284.34
476.20	6303.06
476.38	6569.88
476.56	6408.39
476.74	6527.75
476.92	6342.85
477.10	6406.05
477.28	6527.75
477.46	6710.32
477.64	6766.49
477.82	6635.42
478.00	6836.70
478.18	6867.13
478.36	6902.24
478.54	6995.86
478.72	7091.82
478.90	7227.57
479.08	7117.57
479.26	7178.42
479.44	7253.32
479.62	7262.68
479.80	7489.71
479.98	7405.46
480.16	7265.02
480.34	7463.97
480.52	7641.85
480.70	7669.94
480.88	7592.70
481.06	7688.66
481.24	7705.04
481.41	7887.61
481.59	7747.17
481.77	8004.63
481.95	8046.76
482.13	7969.52
482.31	8280.82
482.49	8269.11
482.67	8395.50
482.85	8381.46
483.03	8416.57
483.21	8435.29
483.39	8496.14
483.57	8496.14
483.74	8416.57
483.92	8674.03
484.10	8578.06
484.28	8903.40
484.46	8828.50
484.64	9247.46
484.82	9114.05
485.00	9163.20
485.18	9104.68
485.35	9320.01
485.53	9380.87
485.71	9394.91
485.89	9692.16
486.07	9481.51
486.25	9666.41
486.43	9713.22
486.61	9729.61
486.78	9764.72
486.96	10031.54
487.14	10148.56
487.32	10040.90
487.50	10141.54
487.68	10167.29
487.85	10375.59
488.03	10373.25
488.21	10349.85
488.39	10457.51
488.57	10609.65
488.75	10595.61
488.92	10651.78
489.10	10904.56
489.28	10881.15
489.46	11166.70
489.64	11164.36
489.81	11356.28
489.99	11183.08
490.17	11316.49
490.35	11328.19
490.53	11365.64
490.70	11545.86
490.88	11424.15
491.06	11573.95
491.24	11510.75
491.41	11812.68
491.59	11793.96
491.77	11878.22
491.95	11969.50
492.13	12023.33
492.30	12269.09
492.48	12170.79
492.66	12374.41
492.84	12283.13
493.01	12596.76
493.19	12858.90
493.37	12669.32
493.54	12753.58
493.72	12915.08
493.90	12837.84
494.08	13114.02
494.25	13064.87
494.43	13008.70
494.61	13252.11
494.79	13434.68
494.96	13303.60
495.14	13280.20
495.32	13415.95
495.49	13448.72
495.67	13462.76
495.85	13685.11
496.02	13891.08
496.20	13743.63
496.38	13914.48
496.55	13839.59
496.73	14029.17
496.91	14085.34
497.09	14195.35
497.26	14417.70
497.44	14384.93
497.62	14085.34
497.79	14466.85
497.97	14125.13
498.14	14740.69
498.32	14544.09
498.50	14710.27
498.67	14963.04
498.85	14939.64
499.03	14855.38
499.20	15005.17
499.38	14899.85
499.56	15047.30
499.73	15190.08
499.91	15087.09
500.08	15353.91
500.26	15190.08
500.44	15683.93
500.61	15428.81
500.79	15419.45
500.97	15660.52
501.14	15761.17
501.32	15648.82
501.49	15948.41
501.67	15885.22
501.84	15723.72
502.02	16077.14
502.20	15899.26
502.37	15929.69
502.55	15875.85
502.72	16212.89
502.90	16126.29
503.07	16020.97
503.25	16329.92
503.43	16290.13
503.60	16540.57
503.78	16369.71
503.95	16414.18
504.13	16397.79
504.30	16439.92
504.48	16339.28
504.65	16533.54
504.83	16870.58
505.01	17118.68
505.18	16795.68
505.36	17149.11
505.53	16926.75
505.71	17177.19
505.88	16985.27
506.06	16973.56
506.23	17207.62
506.41	16994.63
506.58	17254.43
506.76	17572.74
506.93	17291.88
507.11	17259.11
507.28	17537.63
507.46	17488.48
507.63	17469.76
507.81	17816.16
507.98	17462.74
508.16	17813.82
508.33	17713.17
508.50	18146.17
508.68	17937.87
508.85	18010.42
509.03	18202.35
509.20	18118.09
509.38	18401.29
509.55	18225.75
509.73	18335.76
509.90	18045.53
510.08	18253.84
510.25	18134.47
510.42	18321.71
510.60	18602.58
510.77	18625.98
510.95	18860.04
511.12	18492.57
511.30	18600.24
511.47	18523.00
511.64	18773.44
511.82	19117.50
511.99	18803.86
512.17	18583.85
512.34	19058.98
512.51	19115.16
512.69	19309.42
512.86	19206.44
513.04	19396.02
513.21	19627.73
513.38	19733.06
513.56	19339.85
513.73	19173.67
513.90	19522.41
514.08	19267.29
514.25	19892.21
514.43	19878.17
514.60	19758.80
514.77	20098.18
514.95	19936.68
515.12	19798.59
515.29	19386.66
515.47	19653.48
515.64	19964.77
515.81	19978.81
515.99	19836.04
516.16	20217.55
516.33	20119.24
516.51	20339.26
516.68	19859.45
516.85	20051.37
517.03	20163.72
517.20	20395.43
517.37	20381.38
517.54	20575.65
517.72	20891.62
517.89	20552.24
518.06	20320.53
518.24	20472.67
518.41	20554.58
518.58	20709.06
518.75	20678.63
518.93	21142.06
519.10	20671.61
519.27	20919.71
519.45	20788.64
519.62	20849.49
519.79	20837.79
519.96	20851.83
520.14	21238.02
520.31	20945.45
520.48	21076.52
520.65	21177.17
520.83	21413.56
521.00	21362.07
521.17	21521.23
521.34	21275.47
521.52	21275.47
521.69	21195.89
521.86	21561.02
522.03	21528.25
522.20	21607.83
522.38	21940.18
522.55	21642.93
522.72	21752.94
522.89	21879.33
523.07	21954.22
523.24	22164.87
523.41	21748.26
523.58	22036.14
523.75	22183.60
523.92	21802.09
524.10	22080.61
524.27	22237.43
524.44	22298.28
524.61	22600.21
524.78	22504.25
524.96	22485.53
525.13	22490.21
525.30	22422.33
525.47	22513.61
525.64	22338.07
525.81	22415.31
525.98	22419.99
526.16	22742.99
526.33	22808.52
526.50	22806.18
526.67	22724.26
526.84	22658.73
527.01	22754.69
527.18	22799.16
527.36	23145.56
527.53	23143.22
527.70	23199.39
527.87	23204.07
528.04	23285.99
528.21	23293.01
528.38	23168.96
528.55	23101.09
528.72	23000.44
528.89	23133.86
529.07	23454.51
529.24	23335.14
529.41	23498.98
529.58	23192.37
529.75	23433.44
529.92	23307.05
530.09	23501.32
530.26	23356.21
530.43	23852.40
530.60	23513.02
530.77	23826.65
530.94	23501.32
531.11	23456.85
531.28	23559.83
531.46	23887.51
531.63	23726.01
531.80	24229.23
531.97	24259.65
532.14	23983.47
532.31	23988.15
532.48	24163.69
532.65	24418.81
532.82	24081.77
532.99	24093.47
533.16	24060.71
533.33	24346.25
533.50	24507.75
533.67	24451.58
533.84	23992.83
534.01	24156.67
534.18	24147.31
534.35	24259.65
534.52	24336.89
534.69	24716.06
534.86	24706.70
535.03	24264.33
535.20	24741.80
535.37	24683.29
535.54	24694.99
535.71	24465.62
535.88	24659.88
536.05	24877.55
536.22	24907.98
536.38	25118.63
536.55	24922.02
536.72	24868.19
536.89	24797.98
537.06	25083.52
537.23	24957.13
537.40	24741.80
537.57	24683.29
537.74	25184.16
537.91	25331.62
538.08	25500.14
538.25	25165.44
538.42	25149.06
538.59	25221.61
538.75	24807.34
538.92	25071.82
539.09	25303.53
539.26	25165.44
539.43	25102.25
539.60	25333.96
539.77	25331.62
539.94	25671.00
540.11	25783.34
540.28	25607.80
540.44	25209.91
540.61	25223.95
540.78	25558.65
540.95	25804.41
541.12	25610.14
541.29	25598.44
541.46	25476.73
541.62	25558.65
541.79	25656.95
541.96	25340.98
542.13	25736.53
542.30	25741.21
542.47	26115.70
542.63	25891.01
542.80	26118.04
542.97	26309.96
543.14	26101.65
543.31	26167.19
543.48	25928.45
543.64	26525.29
543.81	26335.71
543.98	26649.34
544.15	26501.89
544.32	26345.07
544.48	26712.53
544.65	26431.67
544.82	26551.04
544.99	26452.73
545.16	26567.42
545.32	26164.85
545.49	26394.22
545.66	26939.57
545.83	26670.40
546.00	26590.83
546.16	26824.88
546.33	26483.16
546.50	26174.21
546.67	26562.74
546.83	26429.33
547.00	26658.70
547.17	26909.14
547.34	26838.92
547.50	27070.64
547.67	27417.04
547.84	27178.30
548.00	27147.87
548.17	27267.24
548.34	27005.10
548.51	27311.71
548.67	27049.57
548.84	26962.97
549.01	26897.44
549.18	27229.79
549.34	27075.32
549.51	27335.12
549.68	27393.63
549.84	27222.77
550.01	27510.66
550.18	27475.55
550.34	27365.54
550.51	27641.73
550.68	27592.58
550.84	26984.04
551.01	27126.81
551.18	27377.25
551.34	27253.20
551.51	27669.81
551.68	27681.52
551.84	27498.95
552.01	27290.65
552.18	27807.90
552.34	27477.89
552.51	27660.45
552.68	27513.00
552.84	27653.43
553.01	28027.92
553.18	27784.50
553.34	27459.16
553.51	27793.86
553.67	28020.89
553.84	28016.21
554.01	27721.30
554.17	28074.73
554.34	28137.92
554.51	27887.48
554.67	28116.86
554.84	28285.37
555.00	28107.49
555.17	27854.72
555.33	27793.86
555.50	27833.65
555.67	28231.54
555.83	27903.87
556.00	28121.54
556.16	28531.13
556.33	28119.20
556.50	28079.41
556.66	28570.92
556.83	28276.01
556.99	28484.32
557.16	28573.26
557.32	28470.28
557.49	28439.85
557.65	28077.07
557.82	28545.17
557.98	28037.28
558.15	28201.11
558.32	28444.53
558.48	28500.70
558.65	28547.51
558.81	28582.62
558.98	28624.75
559.14	28266.65
559.31	28589.64
559.47	28636.45
559.64	28418.78
559.80	28554.54
559.97	28379.00
560.13	28680.92
560.30	28720.71
560.46	28599.01
560.63	28252.61
560.79	28409.42
560.96	28666.88
561.12	28744.12
561.29	28540.49
561.45	28470.28
561.61	28318.14
561.78	28678.58
561.94	28627.09
562.11	28851.78
562.27	29081.16
562.44	28863.49
562.60	28587.30
562.77	28762.84
562.93	28793.27
563.10	29081.16
563.26	28985.19
563.42	28861.15
563.59	28788.59
563.75	29273.08
563.92	28856.46
564.08	29078.82
564.24	28968.81
564.41	28690.29
564.57	28732.42
564.74	29060.09
564.90	29078.82
565.07	29153.71
565.23	28992.22
565.39	29046.05
565.56	29261.38
565.72	28947.75
565.88	29261.38
566.05	28875.19
566.21	28732.42
566.38	29268.40
566.54	29102.22
566.70	29254.36
566.87	29357.34
567.03	29268.40
567.19	29364.36
567.36	29336.27
567.52	29088.18
567.68	29385.43
567.85	29123.29
568.01	29174.78
568.17	28954.77
568.34	29596.07
568.50	29146.69
568.66	29366.70
568.83	29425.22
568.99	29469.69
569.15	29521.18
569.32	29181.80
569.48	29076.48
569.64	29275.42
569.81	29266.06
569.97	29366.70
570.13	29216.91
570.30	29392.45
570.46	29476.71
570.62	29193.50
570.78	29317.55
570.95	29071.79
571.11	29060.09
571.27	29142.01
571.43	29310.53
571.60	29488.41
571.76	29256.70
571.92	29359.68
572.09	29364.36
572.25	29666.29
572.41	29699.06
572.57	29546.92
572.74	29780.98
572.90	29436.92
573.06	29301.17
573.22	29455.64
573.38	29722.46
573.55	29507.13
573.71	29762.25
573.87	29575.01
574.03	29600.76
574.20	29502.45
574.36	29230.95
574.52	29413.51
574.68	29631.18
574.84	29546.92
575.01	30143.76
575.17	29537.56
575.33	29610.12
575.49	29322.23
575.65	29614.80
575.82	29584.37
575.98	29827.79
576.14	29549.26
576.30	29773.95
576.46	29385.43
576.62	29509.47
576.79	29619.48
576.95	29507.13
577.11	29399.47
577.27	29788.00
577.43	29926.09
577.59	29687.36
577.75	29591.39
577.92	29865.24
578.08	29455.64
578.24	29504.79
578.40	29560.97
578.56	29621.82
578.72	29589.05
578.88	29900.34
579.04	29614.80
579.21	29703.74
579.37	29530.54
579.53	29935.45
579.69	29427.56
579.85	29214.57
580.01	29898.00
580.17	29462.66
580.33	29565.65
580.49	29628.84
580.65	30094.61
580.82	29841.83
580.98	29902.68
581.14	29860.55
581.30	29741.19
581.46	29755.23
581.62	29174.78
581.78	29462.66
581.94	29797.36
582.10	29556.28
582.26	29759.91
582.42	29841.83
582.58	29986.94
582.74	29858.21
582.90	29951.84
583.06	29956.52
583.22	29633.52
583.38	29792.68
583.54	30050.14
583.70	29495.43
583.86	29715.44
584.02	29551.60
584.18	30113.33
584.34	30050.14
584.50	30033.75
584.66	29848.85
584.82	29666.29
584.98	29879.28
585.14	29942.47
585.30	29820.77
585.46	29902.68
585.62	29900.34
585.78	29734.17
585.94	29605.44
586.10	29738.85
586.26	30033.75
586.42	29837.15
586.58	30281.85
586.74	29841.83
586.90	29685.01
587.06	29844.17
587.22	29947.15
587.38	29434.58
587.54	29706.08
587.70	30366.11
587.86	30335.68
588.02	30150.78
588.18	30019.71
588.34	30160.14
588.49	30246.74
588.65	29729.48
588.81	29748.21
588.97	29762.25
589.13	29806.72
589.29	29844.17
589.45	30249.08
589.61	30178.87
589.77	30209.29
589.93	29844.17
590.08	29996.31
590.24	30089.93
590.40	30382.49
590.56	30309.94
590.72	30338.02
590.88	29717.78
591.04	30026.73
591.20	30466.75
591.35	30298.23
591.51	30319.30
591.67	30082.91
591.83	30380.15
591.99	30314.62
592.15	30127.38
592.31	30293.55
592.46	29968.22
592.62	30164.82
592.78	29795.02
592.94	30228.02
593.10	30485.48
593.26	30441.01
593.41	30221.00
593.57	30218.66
593.73	30359.09
593.89	30665.70
594.05	30380.15
594.20	29809.06
594.36	30401.22
594.52	29893.32
594.68	29874.60
594.84	30223.34
594.99	30274.83
595.15	30197.59
595.31	30539.31
595.47	30331.00
595.62	30228.02
595.78	30415.26
595.94	30192.91
596.10	30345.05
596.25	30068.86
596.41	29888.64
596.57	29923.75
596.73	30050.14
596.88	30520.59
597.04	30558.03
597.20	30359.09
597.36	30305.26
597.51	30712.51
597.67	30778.04
597.83	30146.10
597.99	30167.16
598.14	30174.19
598.30	30122.69
598.46	30450.37
598.61	30054.82
598.77	29834.81
598.93	30511.22
599.09	30682.08
599.24	30654.00
599.40	30759.32
599.56	30433.99
599.71	30405.90
599.87	30202.27
600.03	30132.06
600.18	30314.62
600.34	30270.15
600.50	30546.33
600.65	30155.46
600.81	30099.29
600.97	30588.46
601.12	30548.67
601.28	30352.07
601.44	30738.26
601.59	30686.76
601.75	30452.71
601.91	30927.84
602.06	30139.08
602.22	30333.34
602.37	30291.21
602.53	30054.82
602.69	30429.30
602.84	30368.45
603.00	30391.86
603.16	30756.98
603.31	30426.96
603.47	30464.41
603.62	30375.47
603.78	30665.70
603.94	30176.53
604.09	30300.58
604.25	30541.65
604.40	30345.05
604.56	30349.73
604.71	30632.93
604.87	30546.33
605.03	30162.48
605.18	30930.18
605.34	30169.51
605.49	29916.73
605.65	30600.16
605.80	30181.21
605.96	30558.03
606.12	30068.86
606.27	30258.45
606.43	30270.15
606.58	30700.81
606.74	30293.55
606.89	30515.90
607.05	30719.53
607.20	30724.21
607.36	30099.29
607.51	30735.92
607.67	30221.00
607.82	29986.94
607.98	30398.88
608.13	30232.70
608.29	30223.34
608.44	30274.83
608.60	30162.48
608.75	30146.10
608.91	30433.99
609.06	29944.81
609.22	30061.84
609.37	29731.83
609.53	30118.01
609.68	29907.37
609.84	30096.95
609.99	29928.43
610.15	30249.08
610.30	30092.27
610.46	30228.02
610.61	29930.77
610.76	30527.61
610.92	30405.90
611.07	30300.58
611.23	30057.16
611.38	29907.37
611.54	30136.74
611.69	29825.45
611.84	30115.67
612.00	29600.76
612.15	29734.17
612.31	30232.70
612.46	29905.02
612.62	29993.97
612.77	30080.56
612.92	29958.86
613.08	30237.38
613.23	30260.79
613.39	29958.86
613.54	29876.94
613.69	29926.09
613.85	29713.10
614.00	29900.34
614.15	29722.46
614.31	29823.11
614.46	30036.09
614.62	30089.93
614.77	29886.30
614.92	29806.72
615.08	29977.58
615.23	29731.83
615.38	29556.28
615.54	29521.18
615.69	29802.04
615.84	29514.16
616.00	29717.78
616.15	29677.99
616.30	29631.18
616.46	29483.73
616.61	29612.46
616.76	29577.35
616.92	29202.86
617.07	29619.48
617.22	29567.99
617.37	29638.20
617.53	29495.43
617.68	29780.98
617.83	29347.98
617.99	29406.49
618.14	29586.71
618.29	29844.17
618.45	29249.67
618.60	29244.99
618.75	29603.10
618.90	29638.20
619.06	29516.50
619.21	29392.45
619.36	29425.22
619.51	28917.32
619.67	29378.40
619.82	29020.30
619.97	29240.31
620.12	29420.53
620.28	28816.68
620.43	29357.34
620.58	29565.65
620.73	29336.27
620.89	29216.91
621.04	29565.65
621.19	29338.62
621.34	29261.38
621.49	28989.88
621.65	28924.34
621.80	29076.48
621.95	28840.08
622.10	29144.35
622.25	29083.50
622.41	28943.06
622.56	29125.63
622.71	29462.66
622.86	29422.87
623.01	29104.56
623.16	28790.93
623.32	28952.43
623.47	28765.18
623.62	28851.78
623.77	28711.35
623.92	29046.05
624.07	28823.70
624.23	29013.28
624.38	28957.11
624.53	28608.37
624.68	29064.77
624.83	28971.15
624.98	29003.92
625.13	28954.77
625.29	28959.45
625.44	28807.31
625.59	28835.40
625.74	28573.26
625.89	28517.09
626.04	28500.70
626.19	28678.58
626.34	28659.86
626.49	28563.90
626.65	28474.96
626.80	28676.24
626.95	28608.37
627.10	28381.34
627.25	28418.78
627.40	28343.89
627.55	28409.42
627.70	28341.55
627.85	28285.37
628.00	28287.71
628.15	28409.42
628.30	28063.02
628.45	28325.16
628.60	28046.64
628.76	28350.91
628.91	28332.18
629.06	28336.87
629.21	28411.76
629.36	28187.07
629.51	28013.87
629.66	28102.81
629.81	27974.08
629.96	28542.83
630.11	27946.00
630.26	28252.61
630.41	27953.02
630.56	27697.90
630.71	28168.35
630.86	28105.15
631.01	27990.47
631.16	28226.86
631.31	27889.82
631.46	27934.29
631.61	28098.13
631.76	28091.11
631.91	27976.42
632.06	27754.07
632.21	27821.95
632.36	28149.62
632.51	27363.20
632.66	27971.74
632.81	27938.97
632.96	27737.69
633.10	27938.97
633.25	27707.26
633.40	27730.67
633.55	27604.28
633.70	27747.05
633.85	27807.90
634.00	27353.84
634.15	27833.65
634.30	27536.40
634.45	27407.67
634.60	27620.66
634.75	27351.50
634.90	27452.14
635.05	27480.23
635.19	27662.79
635.34	27566.83
635.49	27384.27
635.64	27358.52
635.79	27716.62
635.94	27608.96
636.09	27658.11
636.24	27351.50
636.39	27187.66
636.53	27314.05
636.68	27278.94
636.83	27218.09
636.98	27374.91
637.13	27449.80
637.28	27463.85
637.43	27527.04
637.57	27449.80
637.72	27101.06
637.87	27260.22
638.02	27136.17
638.17	27072.98
638.32	27094.04
638.46	27103.40
638.61	26904.46
638.76	26801.47
638.91	27061.27
639.06	27161.92
639.20	27126.81
639.35	27072.98
639.50	27028.51
639.65	27182.98
639.80	27187.66
639.94	27140.85
640.09	27199.37
640.24	27000.42
640.39	26920.84
640.54	26700.83
640.68	27133.83
640.83	27112.77
640.98	26883.39
641.13	26534.65
641.27	26862.33
641.42	26895.10
641.57	26895.10
641.72	26962.97
641.86	26216.34
642.01	26654.02
642.16	26700.83
642.31	26590.83
642.45	26834.24
642.60	26373.16
642.75	26398.90
642.90	26415.29
643.04	26705.51
643.19	26356.77
643.34	26696.15
643.48	26665.72
643.63	26562.74
643.78	26206.98
643.93	26766.37
644.07	26686.79
644.22	26885.73
644.37	26401.24
644.51	26733.60
644.66	26092.29
644.81	26012.71
644.95	26562.74
645.10	26260.81
645.25	26448.05
645.39	26424.65
645.54	26555.72
645.69	26253.79
645.83	26773.39
645.98	26284.22
646.13	26160.17
646.27	26452.73
646.42	26387.20
646.57	26223.36
646.71	26319.32
646.86	26052.50
647.00	25893.35
647.15	26139.10
647.30	25860.58
647.44	25933.14
647.59	26305.28
647.74	26054.84
647.88	26356.77
648.03	26279.54
648.17	26286.56
648.32	26314.64
648.47	26171.87
648.61	26370.82
648.76	26391.88
648.90	26197.62
649.05	26256.13
649.20	25806.75
649.34	25963.56
649.49	25731.85
649.63	25942.50
649.78	25689.72
649.92	25785.68
650.07	25963.56
650.21	25792.70
650.36	25790.36
650.51	26370.82
650.65	25820.79
650.80	25876.96
650.94	25467.37
651.09	25659.29
651.23	25490.77
651.38	25476.73
651.52	25645.25
651.67	25504.82
651.81	25624.18
651.96	25500.14
652.10	25525.88
652.25	25404.17
652.39	25631.21
652.54	25495.46
652.68	25322.26
652.83	25834.83
652.97	25668.66
653.12	25591.42
653.26	25710.78
653.41	25528.22
653.55	25324.60
653.70	25600.78
653.84	25654.61
653.99	25390.13
654.13	25392.47
654.27	25647.59
654.42	25385.45
654.56	25273.10
654.71	25687.38
654.85	25345.66
655.00	25469.71
655.14	25483.75
655.29	25406.52
655.43	25394.81
655.57	25099.90
655.72	25429.92
655.86	25256.72
656.01	24952.45
656.15	25010.96
656.30	25085.86
656.44	25324.60
656.58	25385.45
656.73	25127.99
656.87	24910.32
657.01	25249.70
657.16	25348.00
657.30	25568.01
657.45	24837.76
657.59	25184.16
657.73	25099.90
657.88	24924.36
658.02	24952.45
658.16	24854.15
658.31	24568.60
658.45	24592.01
658.60	24641.16
658.74	24627.12
658.88	24725.42
659.03	24690.31
659.17	24678.61
659.31	24776.91
659.46	24739.46
659.60	24730.10
659.74	24868.19
659.89	24898.62
660.03	24711.38
660.17	24737.12
660.32	24339.23
660.46	24568.60
660.60	24236.25
660.74	24208.16
660.89	24367.32
661.03	24273.70
661.17	24463.28
661.32	24170.71
661.46	24233.91
661.60	24130.92
661.74	24088.79
661.89	24381.36
662.03	24397.74
662.17	24308.80
662.31	23913.25
662.46	24336.89
662.60	24149.65
662.74	23850.06
662.88	23828.99
663.03	23828.99
663.17	23817.29
663.31	23513.02
663.45	23796.23
663.60	23679.20
663.74	23620.69
663.88	24002.19
664.02	23737.71
664.17	23833.68
664.31	23875.80
664.45	24041.98
664.59	23709.63
664.73	23529.41
664.88	23508.34
665.02	23138.54
665.16	23571.54
665.30	23459.19
665.44	23599.62
665.59	23276.63
665.73	23302.37
665.87	23358.55
666.01	23468.55
666.15	23208.75
666.29	23274.29
666.44	23173.64
666.58	23131.51
666.72	23019.17
666.86	23208.75
667.00	23138.54
667.14	22817.88
667.28	22848.31
667.43	22883.42
667.57	22944.27
667.71	22735.96
667.85	22845.97
667.99	22764.05
668.13	22630.64
668.27	22724.26
668.41	22946.61
668.56	22567.45
668.70	22398.93
668.84	22761.71
668.98	22703.20
669.12	22621.28
669.26	22658.73
669.40	22691.49
669.54	22607.23
669.68	22176.58
669.82	22277.22
669.96	22424.67
670.10	22387.22
670.25	22581.49
670.39	22298.28
670.53	21902.73
670.67	21998.70
670.81	22249.13
670.95	22085.30
671.09	22504.25
671.23	22202.32
671.37	22342.75
671.51	22207.00
671.65	21905.07
671.79	22005.72
671.93	22033.80
672.07	21961.25
672.21	21734.21
672.35	21823.16
672.49	21415.90
672.63	21348.03
672.77	21563.36
672.91	21385.47
673.05	21453.35
673.19	21813.79
673.33	21788.05
673.47	21415.90
673.61	21319.94
673.75	21158.44
673.89	21301.22
674.03	21165.46
674.17	21291.85
674.31	21095.25
674.45	21329.30
674.59	21153.76
674.73	21362.07
674.87	20989.92
675.01	21092.91
675.15	20992.26
675.29	20758.21
675.43	20812.04
675.56	20865.88
675.70	20582.67
675.84	20905.66
675.98	20390.75
676.12	20805.02
676.26	20849.49
676.40	20482.03
676.54	20549.90
676.68	20226.91
676.82	20166.06
676.96	20095.84
677.10	20121.59
677.23	19962.43
677.37	20077.12
677.51	20032.65
677.65	20379.04
677.79	19924.98
677.93	19688.59
678.07	19611.35
678.21	19679.22
678.34	19889.87
678.48	19697.95
678.62	19578.58
678.76	19515.39
678.90	19522.41
679.04	19468.58
679.18	19381.98
679.31	19250.91
679.45	18993.45
679.59	18991.11
679.73	19232.18
679.87	19040.26
680.00	18735.99
680.14	18960.68
680.28	18970.04
680.42	19124.52
680.56	19150.26
680.70	18691.52
680.83	19105.79
680.97	18689.18
681.11	18724.29
681.25	18476.19
681.39	18438.74
681.52	18724.29
681.66	18438.74
681.80	18272.56
681.94	18424.70
682.07	18246.82
682.21	18146.17
682.35	18129.79
682.49	18038.51
682.62	18038.51
682.76	18057.23
682.90	17923.82
683.04	18080.64
683.17	17996.38
683.31	18099.36
683.45	18101.70
683.59	17923.82
683.72	17619.55
683.86	17813.82
684.00	17500.19
684.13	17577.42
684.27	17659.34
684.41	17516.57
684.55	17202.94
684.68	17041.44
684.82	16978.25
684.96	16973.56
685.09	16851.86
685.23	16973.56
685.37	16732.49
685.50	17245.07
685.64	17144.42
685.78	16868.24
685.91	16975.91
686.05	17003.99
686.19	16872.92
686.32	16933.78
686.46	16568.65
686.60	16353.32
686.73	16393.11
686.87	16578.01
687.01	16308.85
687.14	16442.26
687.28	16163.74
687.42	16051.39
687.55	16130.97
687.69	16084.16
687.82	15978.84
687.96	15756.49
688.10	15939.05
688.23	16002.24
688.37	15985.86
688.50	15770.53
688.64	15777.55
688.78	15885.22
688.91	15674.57
689.05	15452.22
689.18	15620.74
689.32	15161.99
689.46	15400.72
689.59	15248.59
689.73	15248.59
689.86	14981.77
690.00	15386.68
690.13	15007.52
690.27	15211.14
690.41	15112.84
690.54	14986.45
690.68	15019.22
690.81	14799.21
690.95	15091.77
691.08	14963.04
691.22	14867.08
691.35	14782.82
691.49	14597.92
691.62	14654.09
691.76	14600.26
691.89	14647.07
692.03	14153.22
692.16	14146.20
692.30	14207.05
692.43	14010.45
692.57	14001.08
692.70	14101.73
692.84	14080.66
692.97	13884.06
693.11	14085.34
693.24	14188.33
693.38	14059.60
693.51	13689.79
693.65	13994.06
693.78	13624.26
693.92	13862.99
694.05	13745.97
694.19	13755.33
694.32	13666.39
694.45	13434.68
694.59	13352.76
694.72	13387.86
694.86	13195.94
694.99	13226.37
695.13	13074.23
695.26	13231.05
695.39	12929.12
695.53	13224.03
695.66	13022.74
695.80	13146.79
695.93	12917.42
696.07	13048.49
696.20	12931.46
696.33	12837.84
696.47	12947.84
696.60	12919.76
696.73	12634.21
696.87	12812.09
697.00	12814.43
697.14	12297.17
697.27	12538.25
697.40	12152.06
697.54	12182.49
697.67	12100.57
697.80	11997.59
697.94	12128.66
698.07	12128.66
698.21	12116.95
698.34	12032.69
698.47	12077.16
698.61	12060.78
698.74	12042.06
698.87	11824.39
699.01	11808.00
699.14	11761.19
699.27	11971.84
699.40	11545.86
699.54	11639.48
699.67	11215.85
699.80	11538.84
699.94	11328.19
700.07	11281.38
700.20	11386.71
700.34	11286.06
700.47	11157.33
700.60	11325.85
700.73	11314.15
700.87	11059.03
701.00	10836.68
701.13	10911.58
701.26	11030.94
701.40	11089.46
701.53	10848.38
701.66	10998.18
701.79	10530.07
701.93	10595.61
702.06	10796.89
702.19	10705.61
702.32	10595.61
702.46	10345.17
702.59	10359.21
702.72	10375.59
702.85	10490.28
702.99	10326.44
703.12	10361.55
703.25	10204.74
703.38	10370.91
703.51	10249.21
703.65	9933.23
703.78	10263.25
703.91	10083.03
704.04	10157.92
704.17	10286.65
704.31	10026.86
704.44	10129.84
704.57	9933.23
704.70	9731.95
704.83	9891.10
704.96	9858.34
705.10	9540.02
705.23	9540.02
>>>>>End Processed Spectral Data<<<<<
