SpectraSuite Data File
++++++++++++++++++++++++++++++++++++
Date: Fri Oct 18 13:58:02 GMT-05:00 2013
User: bianchi
Dark Spectrum Present: No
Reference Spectrum Present: No
Number of Sampled Component Spectra: 1
Spectrometers: USB2+H05261
Integration Time (usec): 50000 (USB2+H05261)
Spectra Averaged: 1 (USB2+H05261)
Boxcar Smoothing: 0 (USB2+H05261)
Correct for Electrical Dark: No (USB2+H05261)
Strobe/Lamp Enabled: No (USB2+H05261)
Correct for Detector Non-linearity: No (USB2+H05261)
Correct for Stray Light: No (USB2+H05261)
Number of Pixels in Processed Spectrum: 2048
>>>>>Begin Processed Spectral Data<<<<<
365.73	0.00
365.92	0.00
366.12	0.00
366.32	0.00
366.52	0.00
366.72	0.00
366.91	0.00
367.11	0.00
367.31	0.00
367.51	0.00
367.70	0.00
367.90	0.00
368.10	0.00
368.30	0.00
368.49	0.00
368.69	0.00
368.89	0.00
369.09	0.00
369.28	0.00
369.48	0.00
369.68	0.00
369.87	0.00
370.07	0.00
370.27	0.00
370.47	0.00
370.66	51.49
370.86	70.22
371.06	191.92
371.25	166.18
371.45	154.48
371.65	180.22
371.84	128.73
372.04	154.48
372.24	194.26
372.44	236.39
372.63	191.92
372.83	215.33
373.03	180.22
373.22	189.58
373.42	212.99
373.62	266.82
373.81	222.35
374.01	208.31
374.21	198.95
374.40	259.80
374.60	236.39
374.79	212.99
374.99	198.95
375.19	264.48
375.38	205.97
375.58	177.88
375.78	283.20
375.97	222.35
376.17	257.46
376.37	243.42
376.56	294.91
376.76	271.50
376.95	170.86
377.15	257.46
377.35	278.52
377.54	327.68
377.74	325.33
377.93	280.86
378.13	273.84
378.33	313.63
378.52	360.44
378.72	271.50
378.91	273.84
379.11	278.52
379.31	339.38
379.50	294.91
379.70	358.10
379.89	367.46
380.09	341.72
380.28	264.48
380.48	227.03
380.68	301.93
380.87	374.49
381.07	276.18
381.26	278.52
381.46	311.29
381.65	365.12
381.85	381.51
382.04	299.59
382.24	346.40
382.43	386.19
382.63	386.19
382.83	318.31
383.02	423.64
383.22	337.04
383.41	341.72
383.61	292.57
383.80	386.19
384.00	294.91
384.19	348.74
384.39	355.76
384.58	311.29
384.78	348.74
384.97	325.33
385.17	339.38
385.36	325.33
385.56	400.23
385.75	428.32
385.95	421.30
386.14	383.85
386.34	421.30
386.53	423.64
386.72	397.89
386.92	421.30
387.11	395.55
387.31	409.59
387.50	475.13
387.70	390.87
387.89	423.64
388.09	503.22
388.28	433.00
388.48	407.25
388.67	496.19
388.86	433.00
389.06	533.64
389.25	524.28
389.45	521.94
389.64	465.77
389.84	470.45
390.03	514.92
390.22	545.34
390.42	489.17
390.61	489.17
390.81	447.04
391.00	573.43
391.19	475.13
391.39	580.45
391.58	440.02
391.78	498.53
391.97	465.77
392.16	407.25
392.36	571.09
392.55	631.94
392.75	505.56
392.94	510.24
393.13	514.92
393.33	610.88
393.52	599.18
393.71	561.73
393.91	568.75
394.10	615.56
394.29	575.77
394.49	645.99
394.68	610.88
394.88	587.47
395.07	634.29
395.26	596.84
395.46	594.50
395.65	690.46
395.84	699.82
396.04	690.46
396.23	657.69
396.42	601.52
396.62	606.20
396.81	603.86
397.00	641.31
397.19	578.11
397.39	585.13
397.58	676.41
397.77	608.54
397.97	676.41
398.16	660.03
398.35	753.65
398.55	765.36
398.74	730.25
398.93	849.61
399.12	676.41
399.32	669.39
399.51	667.05
399.70	723.23
399.90	795.78
400.09	744.29
400.28	739.61
400.47	767.70
400.67	816.85
400.86	770.04
401.05	758.33
401.24	781.74
401.44	781.74
401.63	842.59
401.82	847.27
402.01	802.80
402.21	849.61
402.40	922.17
402.59	805.14
402.78	819.19
402.97	814.51
403.17	835.57
403.36	795.78
403.55	926.85
403.74	887.06
403.93	854.30
404.13	819.19
404.32	929.19
404.51	847.27
404.70	1029.84
404.89	894.08
405.09	1001.75
405.28	908.13
405.47	849.61
405.66	1029.84
405.85	912.81
406.05	922.17
406.24	983.02
406.43	912.81
406.62	966.64
406.81	1093.03
407.00	999.41
407.20	1060.26
407.39	985.37
407.58	1053.24
407.77	1144.52
407.96	1069.62
408.15	1196.01
408.34	1078.99
408.54	1128.14
408.73	1146.86
408.92	1160.91
409.11	1057.92
409.30	1100.05
409.49	1067.28
409.68	1093.03
409.87	1186.65
410.07	1181.97
410.26	1174.95
410.45	1294.32
410.64	1212.40
410.83	1196.01
411.02	1135.16
411.21	1270.91
411.40	1348.15
411.59	1231.12
411.78	1228.78
411.98	1247.51
412.17	1324.74
412.36	1397.30
412.55	1383.26
412.74	1432.41
412.93	1291.98
413.12	1343.47
413.31	1430.07
413.50	1425.39
413.69	1401.98
413.88	1411.34
414.07	1497.94
414.26	1533.05
414.45	1444.11
414.64	1409.00
414.83	1593.90
415.02	1441.77
415.22	1568.16
415.41	1556.46
415.60	1511.99
415.79	1600.93
415.98	1619.65
416.17	1743.70
416.36	1462.83
416.55	1671.14
416.74	1582.20
416.93	1596.25
417.12	1675.82
417.31	1685.19
417.50	1633.69
417.69	1717.95
417.88	1746.04
418.07	1790.51
418.26	1774.13
418.45	1701.57
418.64	1795.19
418.83	1839.66
419.02	1856.04
419.21	1764.76
419.39	1865.41
419.58	1783.49
419.77	1804.55
419.96	1954.35
420.15	1893.49
420.34	1963.71
420.53	2001.16
420.72	1856.04
420.91	1947.33
421.10	1909.88
421.29	1909.88
421.48	1921.58
421.67	1996.48
421.86	1879.45
422.05	1877.11
422.24	1947.33
422.43	1952.01
422.61	2076.06
422.80	2033.93
422.99	2057.33
423.18	2057.33
423.37	2010.52
423.56	2069.03
423.75	1949.67
423.94	2033.93
424.13	1905.20
424.32	1879.45
424.50	2047.97
424.69	2078.40
424.88	2069.03
425.07	1994.14
425.26	1935.62
425.45	2050.31
425.64	2157.97
425.83	2108.82
426.01	2179.04
426.20	2080.74
426.39	2010.52
426.58	2090.10
426.77	2153.29
426.96	2064.35
427.15	2099.46
427.33	2172.02
427.52	2157.97
427.71	2195.42
427.90	2165.00
428.09	2235.21
428.28	2134.57
428.46	2277.34
428.65	2235.21
428.84	2289.04
429.03	2286.70
429.22	2190.74
429.40	2298.41
429.59	2256.28
429.78	2169.68
429.97	2251.60
430.16	2260.96
430.34	2347.56
430.53	2300.75
430.72	2324.15
430.91	2324.15
431.10	2270.32
431.28	2303.09
431.47	2483.31
431.66	2443.52
431.85	2464.58
432.03	2518.42
432.22	2415.43
432.41	2438.84
432.60	2567.57
432.79	2401.39
432.97	2495.01
433.16	2513.74
433.35	2600.34
433.54	2527.78
433.72	2375.64
433.91	2647.15
434.10	2473.95
434.28	2487.99
434.47	2509.05
434.66	2579.27
434.85	2548.84
435.03	2644.81
435.22	2607.36
435.41	2717.36
435.59	2581.61
435.78	2703.32
435.97	2684.59
436.16	2799.28
436.34	2686.94
436.53	2841.41
436.72	2871.84
436.90	2726.72
437.09	2799.28
437.28	2623.74
437.46	2738.43
437.65	2745.45
437.84	2829.71
438.02	2771.19
438.21	2871.84
438.40	2841.41
438.58	2853.11
438.77	2902.26
438.96	2993.55
439.14	2888.22
439.33	3101.21
439.52	2965.46
439.70	3033.33
439.89	3040.36
440.08	3138.66
440.26	2972.48
440.45	3110.57
440.63	3185.47
440.82	3171.43
441.01	3122.27
441.19	3133.98
441.38	3323.56
441.57	3267.39
441.75	3173.77
441.94	3349.31
442.12	3304.84
442.31	3302.50
442.50	3344.63
442.68	3274.41
442.87	3405.48
443.05	3335.26
443.24	3349.31
443.43	3323.56
443.61	3527.19
443.80	3463.99
443.98	3468.67
444.17	3377.39
444.35	3426.54
444.54	3606.77
444.73	3449.95
444.91	3473.36
445.10	3604.42
445.28	3456.97
445.47	3480.38
445.65	3515.48
445.84	3496.76
446.02	3522.51
446.21	3583.36
446.39	3571.66
446.58	3473.36
446.77	3485.06
446.95	3426.54
447.14	3543.57
447.32	3503.78
447.51	3459.31
447.69	3555.27
447.88	3508.46
448.06	3609.11
448.25	3557.61
448.43	3513.14
448.62	3566.98
448.80	3648.90
448.99	3630.17
449.17	3716.77
449.36	3620.81
449.54	3597.40
449.73	3672.30
449.91	3775.28
450.10	3803.37
450.28	3768.26
450.46	3765.92
450.65	3763.58
450.83	3761.24
451.02	3702.73
451.20	3805.71
451.39	3707.41
451.57	3571.66
451.76	3822.09
451.94	3838.48
452.13	3829.12
452.31	3889.97
452.49	3754.22
452.68	3946.14
452.86	3796.35
453.05	3971.89
453.23	3946.14
453.42	3920.40
453.60	3805.71
453.78	3920.40
453.97	3889.97
454.15	3950.82
454.34	3824.44
454.52	4091.26
454.70	3981.25
454.89	4039.76
455.07	4114.66
455.26	4124.02
455.44	3950.82
455.62	3983.59
455.81	4018.70
455.99	4131.05
456.17	4191.90
456.36	4203.60
456.54	4311.27
456.73	4311.27
456.91	4173.18
457.09	4311.27
457.28	4400.21
457.46	4320.63
457.64	4465.74
457.83	4465.74
458.01	4311.27
458.19	4482.13
458.38	4297.22
458.56	4440.00
458.74	4496.17
458.93	4435.32
459.11	4449.36
459.29	4465.74
459.48	4489.15
459.66	4397.87
459.84	4645.96
460.03	4709.16
460.21	4484.47
460.39	4489.15
460.57	4664.69
460.76	4685.75
460.94	4664.69
461.12	4648.30
461.31	4641.28
461.49	4690.43
461.67	4657.67
461.85	4854.27
462.04	4875.34
462.22	4999.38
462.40	4741.93
462.59	4905.76
462.77	4816.82
462.95	4837.89
463.13	4795.76
463.32	4781.71
463.50	4873.00
463.68	5090.67
463.86	4725.54
464.05	4849.59
464.23	4889.38
464.41	4985.34
464.59	4835.55
464.78	5013.43
464.96	4931.51
465.14	4964.28
465.32	5041.51
465.50	5053.22
465.69	5097.69
465.87	4990.02
466.05	5081.30
466.23	5022.79
466.41	5067.26
466.60	5160.88
466.78	5027.47
466.96	5074.28
467.14	4964.28
467.32	5144.50
467.51	5245.14
467.69	5198.33
467.87	5193.65
468.05	5224.08
468.23	5114.07
468.41	5247.48
468.60	5289.61
468.78	5301.31
468.96	5327.06
469.14	5411.32
469.32	5296.63
469.50	5074.28
469.69	5434.72
469.87	5504.94
470.05	5476.85
470.23	5509.62
470.41	5472.17
470.59	5617.29
470.77	5521.32
470.95	5619.63
471.14	5671.12
471.32	5675.80
471.50	5785.80
471.68	5593.88
471.86	5612.60
472.04	5647.71
472.22	5874.74
472.40	5841.98
472.58	5795.17
472.77	5778.78
472.95	5757.72
473.13	6022.20
473.31	5879.43
473.49	5830.27
473.67	5839.64
473.85	5912.19
474.03	6033.90
474.21	6108.80
474.39	6029.22
474.57	6026.88
474.75	6008.16
474.93	6200.08
475.12	6359.24
475.30	6246.89
475.48	6253.91
475.66	6312.42
475.84	6340.51
476.02	6546.48
476.20	6473.92
476.38	6473.92
476.56	6567.54
476.74	6544.14
476.92	6707.98
477.10	6778.19
477.28	6789.89
477.46	6909.26
477.64	6602.65
477.82	6724.36
478.00	7021.61
478.18	6932.67
478.36	7035.65
478.54	7208.85
478.72	7133.95
478.90	7265.02
479.08	7314.17
479.26	7265.02
479.44	7332.90
479.62	7421.84
479.80	7564.61
479.98	7538.87
480.16	7632.49
480.34	7726.11
480.52	7733.13
480.70	7599.72
480.88	7492.05
481.06	7709.72
481.24	7899.31
481.41	7801.01
481.59	8028.04
481.77	8102.93
481.95	8098.25
482.13	8255.07
482.31	8229.32
482.49	8334.65
482.67	8332.31
482.85	8397.84
483.03	8557.00
483.21	8793.39
483.39	8678.71
483.57	8821.48
483.74	8596.79
483.92	8947.87
484.10	9034.47
484.28	8964.25
484.46	9315.33
484.64	9191.28
484.82	9057.87
485.00	9053.19
485.18	9371.50
485.35	9598.54
485.53	9540.02
485.71	9528.32
485.89	9682.80
486.07	9795.14
486.25	9708.54
486.43	9870.04
486.61	9867.70
486.78	9951.96
486.96	10061.96
487.14	10338.15
487.32	10092.39
487.50	10345.17
487.68	10424.75
487.85	10429.43
488.03	10511.35
488.21	10827.32
488.39	10583.90
488.57	10705.61
488.75	10677.52
488.92	10803.91
489.10	11063.71
489.28	11232.23
489.46	11255.64
489.64	11019.24
489.81	11384.37
489.99	11108.18
490.17	11332.87
490.35	11590.33
490.53	11583.31
490.70	11747.15
490.88	11658.21
491.06	12077.16
491.24	11716.72
491.41	11861.84
491.59	12184.83
491.77	12044.40
491.95	12411.86
492.13	12369.73
492.30	12325.26
492.48	12390.80
492.66	12493.78
492.84	12538.25
493.01	12491.44
493.19	12636.55
493.37	13011.04
493.54	13041.46
493.72	12851.88
493.90	12957.21
494.08	13088.28
494.25	13298.92
494.43	13380.84
494.61	13500.21
494.79	13596.17
494.96	13610.22
495.14	13516.59
495.32	13738.94
495.49	13673.41
495.67	13987.04
495.85	13895.76
496.02	13736.60
496.20	14157.90
496.38	14204.71
496.55	14209.39
496.73	14394.29
496.91	14232.80
497.09	14361.53
497.26	14122.79
497.44	14288.97
497.62	14478.55
497.79	14750.06
497.97	14803.89
498.14	15023.90
498.32	15178.37
498.50	14972.41
498.67	15122.20
498.85	15101.14
499.03	15393.70
499.20	15126.88
499.38	15229.87
499.56	15367.96
499.73	15475.62
499.91	15592.65
500.08	15903.94
500.26	15400.72
500.44	15850.11
500.61	16009.26
500.79	15632.44
500.97	15789.25
501.14	16079.48
501.32	15962.45
501.49	16009.26
501.67	15946.07
501.84	16149.70
502.02	16037.35
502.20	15906.28
502.37	16257.36
502.55	16369.71
502.72	16198.85
502.90	16683.34
503.07	16451.63
503.25	16840.15
503.43	16269.06
503.60	16526.52
503.78	16807.39
503.95	16788.66
504.13	16840.15
504.30	16936.12
504.48	16938.46
504.65	16842.50
504.83	17032.08
505.01	17186.55
505.18	16950.16
505.36	17284.86
505.53	17233.36
505.71	17219.32
505.88	17439.33
506.06	17146.76
506.23	17441.67
506.41	17362.09
506.58	17734.24
506.76	17685.09
506.93	17781.05
507.11	17642.96
507.28	17659.34
507.46	17633.60
507.63	17937.87
507.81	18113.41
507.98	18033.83
508.16	18082.98
508.33	18068.94
508.50	18164.90
508.68	17935.53
508.85	18448.10
509.03	18033.83
509.20	18274.90
509.38	18649.39
509.55	18618.96
509.73	18415.34
509.90	18946.64
510.08	18377.89
510.25	18651.73
510.42	18768.76
510.60	19154.94
510.77	19089.41
510.95	18984.09
511.12	18754.71
511.30	18972.38
511.47	18960.68
511.64	19337.51
511.82	19185.37
511.99	19030.90
512.17	19433.47
512.34	19309.42
512.51	19447.51
512.69	19367.93
512.86	19529.43
513.04	19529.43
513.21	19569.22
513.38	19648.80
513.56	19761.14
513.73	19618.37
513.90	19515.39
514.08	19616.03
514.25	19840.72
514.43	19981.15
514.60	19875.83
514.77	20126.27
514.95	20297.13
515.12	19932.00
515.29	20011.58
515.47	20203.50
515.64	20498.41
515.81	20128.61
515.99	20510.11
516.16	20570.97
516.33	20582.67
516.51	20437.56
516.68	20383.73
516.85	20407.13
517.03	20730.12
517.20	20861.19
517.37	20959.50
517.54	20842.47
517.72	21085.89
517.89	20697.36
518.06	20908.01
518.24	20992.26
518.41	21008.65
518.58	21289.51
518.75	21312.92
518.93	21116.31
519.10	21003.97
519.27	21507.18
519.45	21561.02
519.62	21521.23
519.79	21071.84
519.96	21474.42
520.14	21472.07
520.31	21443.99
520.48	21451.01
520.65	21399.52
520.83	22045.51
521.00	21671.02
521.17	21701.45
521.34	21895.71
521.52	21797.41
521.69	22073.59
521.86	22111.04
522.03	22111.04
522.20	22197.64
522.38	22434.03
522.55	22319.35
522.72	21968.27
522.89	22225.73
523.07	22274.88
523.24	22349.78
523.41	22628.30
523.58	22129.77
523.75	22459.78
523.92	22258.49
524.10	22424.67
524.27	22300.62
524.44	22544.04
524.61	22644.68
524.78	22665.75
524.96	22747.67
525.13	22937.25
525.30	23108.11
525.47	22881.08
525.64	22972.36
525.81	22787.46
525.98	22794.48
526.16	23080.02
526.33	23019.17
526.50	23786.86
526.67	23365.57
526.84	22792.14
527.01	23119.81
527.18	23353.87
527.36	23344.50
527.53	23295.35
527.70	23660.48
527.87	23985.81
528.04	23831.33
528.21	23510.68
528.38	23728.35
528.55	23749.42
528.72	23782.18
528.89	23513.02
529.07	23845.38
529.24	23913.25
529.41	23845.38
529.58	23728.35
529.75	23955.38
529.92	23887.51
530.09	23924.96
530.26	24233.91
530.43	23735.37
530.60	23836.02
530.77	24023.26
530.94	24163.69
531.11	24051.34
531.28	23873.46
531.46	24006.87
531.63	24238.59
531.80	24467.96
531.97	24418.81
532.14	24119.22
532.31	24226.89
532.48	24219.86
532.65	24362.64
532.82	24570.94
532.99	24753.51
533.16	24783.93
533.33	24772.23
533.50	24627.12
533.67	24769.89
533.84	24657.54
534.01	24615.41
534.18	24329.87
534.35	25238.00
534.52	24875.21
534.69	25184.16
534.86	24786.27
535.03	25055.43
535.20	25036.71
535.37	24870.53
535.54	25560.99
535.71	24687.97
535.88	24903.30
536.05	24933.73
536.22	25502.48
536.38	25340.98
536.55	25348.00
536.72	25404.17
536.89	25181.82
537.06	25537.59
537.23	25436.94
537.40	24975.86
537.57	25560.99
537.74	25537.59
537.91	25570.35
538.08	25834.83
538.25	25514.18
538.42	25483.75
538.59	25713.13
538.75	25495.46
538.92	25603.12
539.09	25579.71
539.26	26183.57
539.43	25902.71
539.60	26195.28
539.77	25708.44
539.94	26139.10
540.11	26284.22
540.28	26162.51
540.44	26012.71
540.61	25738.87
540.78	25968.24
540.95	26253.79
541.12	25996.33
541.29	26111.02
541.46	26146.12
541.62	25928.45
541.79	26087.61
541.96	25809.09
542.13	26188.25
542.30	26111.02
542.47	26534.65
542.63	26253.79
542.80	26347.41
542.97	26721.90
543.14	26813.18
543.31	26761.69
543.48	26864.67
543.64	26693.81
543.81	27054.25
543.98	26824.88
544.15	26714.87
544.32	26586.15
544.48	27199.37
544.65	26757.00
544.82	26899.78
544.99	26354.43
545.16	27070.64
545.32	26937.23
545.49	27178.30
545.66	27419.38
545.83	27405.33
546.00	27154.90
546.16	27342.14
546.33	27068.30
546.50	26981.70
546.67	27145.53
546.83	26934.88
547.00	27531.72
547.17	27250.86
547.34	27314.05
547.50	27040.21
547.67	27571.51
547.84	27637.05
548.00	27627.68
548.17	27824.29
548.34	27503.64
548.51	27653.43
548.67	27908.55
548.84	27679.18
549.01	27335.12
549.18	27627.68
549.34	27370.22
549.51	27625.34
549.68	27847.69
549.84	27655.77
550.01	27681.52
550.18	27395.97
550.34	27850.03
550.51	27852.38
550.68	28151.96
550.84	27503.64
551.01	28065.36
551.18	27901.53
551.34	27606.62
551.51	27709.60
551.68	27974.08
551.84	28025.57
552.01	28018.55
552.18	28112.17
552.34	27779.82
552.51	28180.05
552.68	28060.68
552.84	28226.86
553.01	28308.78
553.18	28196.43
553.34	28320.48
553.51	28446.87
553.67	28575.60
553.84	28624.75
554.01	28795.61
554.17	28425.81
554.34	28496.02
554.51	28430.49
554.67	28428.15
554.84	28332.18
555.00	28299.42
555.17	28388.36
555.33	28540.49
555.50	28273.67
555.67	28800.29
555.83	28474.96
556.00	28474.96
556.16	28800.29
556.33	28390.70
556.50	28919.66
556.66	28868.17
556.83	28596.67
556.99	28917.32
557.16	29132.65
557.32	28655.18
557.49	29106.90
557.65	28711.35
557.82	28854.12
557.98	28886.89
558.15	28929.02
558.32	28964.13
558.48	28837.74
558.65	29055.41
558.81	28802.63
558.98	29244.99
559.14	28938.38
559.31	29113.92
559.47	28938.38
559.64	29347.98
559.80	29422.87
559.97	29291.80
560.13	29071.79
560.30	29244.99
560.46	29305.85
560.63	28982.85
560.79	29387.77
560.96	29408.83
561.12	29319.89
561.29	28868.17
561.45	29181.80
561.61	29575.01
561.78	29371.38
561.94	29259.04
562.11	29418.19
562.27	29661.61
562.44	29046.05
562.60	29567.99
562.77	29408.83
562.93	29296.49
563.10	29792.68
563.26	29247.33
563.42	29607.78
563.59	29642.88
563.75	29249.67
563.92	29734.17
564.08	29603.10
564.24	29221.59
564.41	29387.77
564.57	29497.77
564.74	29502.45
564.90	29694.38
565.07	29773.95
565.23	29717.78
565.39	29457.98
565.56	29628.84
565.72	29631.18
565.88	29771.61
566.05	29682.67
566.21	29507.13
566.38	29324.57
566.54	29579.69
566.70	29776.30
566.87	30277.17
567.03	29869.92
567.19	29970.56
567.36	29893.32
567.52	29780.98
567.68	29762.25
567.85	29605.44
568.01	29624.16
568.17	29474.37
568.34	29930.77
568.50	29839.49
568.66	29972.90
568.83	29909.71
568.99	30110.99
569.15	29846.51
569.32	29820.77
569.48	29741.19
569.64	30113.33
569.81	29998.65
569.97	30043.12
570.13	29839.49
570.30	29717.78
570.46	30003.33
570.62	29898.00
570.78	29682.67
570.95	29811.40
571.11	29916.73
571.27	30078.22
571.43	29717.78
571.60	30265.47
571.76	29989.28
571.92	30178.87
572.09	30010.35
572.25	30441.01
572.41	29649.91
572.57	30494.84
572.74	30153.12
572.90	30349.73
573.06	30176.53
573.22	30099.29
573.38	30008.01
573.55	29951.84
573.71	30501.86
573.87	30015.03
574.03	29977.58
574.20	30008.01
574.36	30195.25
574.52	30267.81
574.68	30174.19
574.84	29741.19
575.01	30541.65
575.17	30274.83
575.33	30103.97
575.49	30127.38
575.65	30560.37
575.82	30487.82
575.98	30312.28
576.14	30309.94
576.30	30066.52
576.46	30036.09
576.62	29944.81
576.79	30143.76
576.95	30099.29
577.11	30396.54
577.27	30600.16
577.43	29970.56
577.59	30471.43
577.75	30389.52
577.92	29916.73
578.08	30125.04
578.24	30312.28
578.40	29886.30
578.56	30038.44
578.72	30499.52
578.88	30464.41
579.04	30167.16
579.21	30012.69
579.37	30043.12
579.53	30532.29
579.69	30391.86
579.85	30237.38
580.01	30431.65
580.17	29647.57
580.33	30700.81
580.49	30204.61
580.65	30223.34
580.82	30651.66
580.98	30499.52
581.14	30616.55
581.30	30487.82
581.46	30558.03
581.62	30204.61
581.78	30146.10
581.94	30546.33
582.10	30188.23
582.26	30284.19
582.42	30520.59
582.58	30756.98
582.74	30710.17
582.90	30244.40
583.06	30466.75
583.22	30478.46
583.38	30698.47
583.54	30490.16
583.70	30295.89
583.86	30658.68
584.02	30398.88
584.18	30253.76
584.34	30277.17
584.50	30775.70
584.66	30485.48
584.82	30108.65
584.98	30455.05
585.14	30206.95
585.30	30345.05
585.46	30118.01
585.62	30471.43
585.78	30850.60
585.94	30443.35
586.10	30609.53
586.26	30728.89
586.42	31049.55
586.58	30656.34
586.74	30436.33
586.90	30213.98
587.06	30134.40
587.22	30747.62
587.38	30366.11
587.54	30445.69
587.70	30859.96
587.86	30969.97
588.02	30574.42
588.18	30859.96
588.34	30745.28
588.49	30871.67
588.65	30506.54
588.81	30593.14
588.97	30637.61
589.13	30445.69
589.29	30719.53
589.45	30583.78
589.61	30291.21
589.77	31082.31
589.93	30995.71
590.08	31082.31
590.24	30834.22
590.40	30810.81
590.56	30775.70
590.72	30668.04
590.88	30703.15
591.04	30384.83
591.20	31021.46
591.35	31012.10
591.51	30988.69
591.67	30979.33
591.83	31035.50
591.99	31192.32
592.15	31091.68
592.31	30768.68
592.46	30628.25
592.62	30780.39
592.78	30801.45
592.94	30829.54
593.10	30967.63
593.26	30927.84
593.41	31204.02
593.57	30902.09
593.73	30885.71
593.89	31253.17
594.05	30801.45
594.20	30988.69
594.36	30810.81
594.52	30534.63
594.68	30749.96
594.84	30888.05
594.99	31063.59
595.15	30869.33
595.31	31157.21
595.47	30841.24
595.62	31105.72
595.78	30960.61
595.94	31276.58
596.10	30754.64
596.25	30852.94
596.41	30836.56
596.57	30586.12
596.73	30911.46
596.88	30719.53
597.04	30890.39
597.20	31033.16
597.36	31101.04
597.51	31180.62
597.67	30911.46
597.83	31199.34
597.99	30789.75
598.14	30843.58
598.30	31250.83
598.46	30969.97
598.61	30705.49
598.77	30838.90
598.93	31061.25
599.09	31044.87
599.24	31508.29
599.40	31299.98
599.56	31236.79
599.71	31164.23
599.87	31498.93
600.03	31049.55
600.18	31138.49
600.34	31431.05
600.50	30691.44
600.65	30792.09
600.81	31440.42
600.97	31295.30
601.12	31119.76
601.28	31527.02
601.44	31304.67
601.59	31374.88
601.75	30906.77
601.91	31056.57
602.06	31166.57
602.22	31042.53
602.37	31129.12
602.53	31072.95
602.69	31274.24
602.84	30848.26
603.00	31250.83
603.16	31735.32
603.31	31424.03
603.47	31136.15
603.62	30909.11
603.78	31264.88
603.94	30881.03
604.09	30885.71
604.25	30955.93
604.40	31096.36
604.56	31290.62
604.71	31489.57
604.87	31264.88
605.03	30838.90
605.18	30852.94
605.34	31168.91
605.49	30789.75
605.65	30979.33
605.80	30955.93
605.96	30759.32
606.12	30965.29
606.27	31278.92
606.43	30871.67
606.58	31304.67
606.74	30981.67
606.89	30993.37
607.05	31580.85
607.20	31292.96
607.36	30913.80
607.51	30932.52
607.67	30951.24
607.82	30623.57
607.98	30862.30
608.13	30457.39
608.29	30972.31
608.44	30871.67
608.60	30747.62
608.75	30670.38
608.91	30728.89
609.06	30857.62
609.22	30878.69
609.37	30838.90
609.53	30649.32
609.68	30745.28
609.84	30799.11
609.99	30539.31
610.15	30590.80
610.30	30726.55
610.46	30693.79
610.61	30906.77
610.76	30976.99
610.92	30939.54
611.07	31180.62
611.23	30546.33
611.38	31037.84
611.54	30654.00
611.69	30969.97
611.84	30494.84
612.00	30492.50
612.15	30429.30
612.31	30876.35
612.46	30574.42
612.62	30478.46
612.77	30813.15
612.92	30705.49
613.08	30637.61
613.23	30845.92
613.39	30513.56
613.54	30188.23
613.69	30466.75
613.85	30527.61
614.00	30417.60
614.15	31037.84
614.31	30316.96
614.46	30871.67
614.62	30766.34
614.77	30419.94
614.92	30398.88
615.08	30457.39
615.23	30094.61
615.38	30352.07
615.54	30366.11
615.69	30274.83
615.84	30071.20
616.00	30139.08
616.15	30029.07
616.30	30185.89
616.46	29991.62
616.61	30373.13
616.76	30361.43
616.92	30354.41
617.07	30176.53
617.22	30260.79
617.37	30202.27
617.53	30595.48
617.68	30221.00
617.83	29968.22
617.99	29982.26
618.14	30347.39
618.29	30230.36
618.45	30277.17
618.60	30321.64
618.75	30494.84
618.90	30366.11
619.06	30340.36
619.21	29776.30
619.36	29900.34
619.51	29703.74
619.67	29560.97
619.82	29869.92
619.97	30195.25
620.12	29490.75
620.28	30000.99
620.43	29717.78
620.58	29902.68
620.73	29886.30
620.89	30010.35
621.04	30017.37
621.19	30204.61
621.34	29923.75
621.49	29741.19
621.65	29476.71
621.80	29532.88
621.95	29783.32
622.10	29979.92
622.25	29823.11
622.41	29701.40
622.56	29809.06
622.71	30235.04
622.86	29488.41
623.01	29930.77
623.16	29965.88
623.32	29371.38
623.47	29701.40
623.62	29621.82
623.77	29422.87
623.92	29628.84
624.07	29572.67
624.23	29558.63
624.38	29345.64
624.53	29720.12
624.68	29544.58
624.83	29970.56
624.98	29685.01
625.13	29635.86
625.29	29539.90
625.44	29619.48
625.59	29479.05
625.74	29298.83
625.89	29331.59
626.04	29020.30
626.19	29280.10
626.34	29350.32
626.49	29177.12
626.65	29130.31
626.80	29663.95
626.95	29441.60
627.10	29207.55
627.25	29322.23
627.40	28835.40
627.55	28772.21
627.70	29273.08
627.85	29017.96
628.00	29001.58
628.15	28687.95
628.30	29029.66
628.45	28687.95
628.60	28624.75
628.76	28947.75
628.91	29158.39
629.06	28636.45
629.21	28638.80
629.36	29163.08
629.51	28938.38
629.66	28924.34
629.81	28781.57
629.96	28666.88
630.11	28655.18
630.26	28980.51
630.41	28968.81
630.56	28650.50
630.71	28498.36
630.86	28809.65
631.01	28809.65
631.16	28982.85
631.31	28610.71
631.46	28584.96
631.61	28936.04
631.76	28484.32
631.91	28814.34
632.06	28414.10
632.21	28973.49
632.36	28526.45
632.51	28360.27
632.66	28498.36
632.81	28505.38
632.96	28620.07
633.10	28620.07
633.25	28355.59
633.40	28379.00
633.55	28428.15
633.70	28257.29
633.85	28088.77
634.00	28137.92
634.15	28535.81
634.30	28133.24
634.45	28240.90
634.60	28276.01
634.75	28402.40
634.90	28334.53
635.05	28465.60
635.19	28561.56
635.34	28388.36
635.49	28362.61
635.64	28222.18
635.79	28503.04
635.94	28046.64
636.09	28477.30
636.24	27967.06
636.39	28081.75
636.53	27700.24
636.68	27697.90
636.83	28294.74
636.98	28175.37
637.13	28334.53
637.28	28119.20
637.43	28098.13
637.57	28116.86
637.72	28095.79
637.87	27999.83
638.02	27974.08
638.17	28128.56
638.32	27859.40
638.46	27805.56
638.61	27627.68
638.76	27604.28
638.91	27700.24
639.06	27494.27
639.20	27882.80
639.35	27520.02
639.50	27763.43
639.65	28018.55
639.80	27730.67
639.94	27873.44
640.09	27758.75
640.24	27777.48
640.39	27571.51
640.54	27615.98
640.68	27723.65
640.83	27791.52
640.98	27417.04
641.13	27534.06
641.27	27625.34
641.42	27571.51
641.57	27913.23
641.72	27449.80
641.86	27276.60
642.01	27182.98
642.16	27550.45
642.31	27318.73
642.45	27248.52
642.60	27534.06
642.75	27009.78
642.90	27129.15
643.04	27063.61
643.19	27255.54
643.34	27091.70
643.48	26906.80
643.63	27318.73
643.78	27197.02
643.93	27768.12
644.07	27379.59
644.22	27414.69
644.37	26991.06
644.51	26864.67
644.66	27236.81
644.81	26864.67
644.95	27211.07
645.10	26775.73
645.25	27115.11
645.39	27225.11
645.54	26892.76
645.69	26981.70
645.83	26979.36
645.98	27178.30
646.13	26991.06
646.27	27419.38
646.42	26930.20
646.57	27131.49
646.71	26906.80
646.86	26661.04
647.00	26616.57
647.15	26637.64
647.30	26993.40
647.44	26401.24
647.59	26632.96
647.74	26635.30
647.88	26567.42
648.03	26499.55
648.17	26881.05
648.32	26899.78
648.47	26586.15
648.61	26724.24
648.76	26939.57
648.90	26836.58
649.05	26679.77
649.20	26579.12
649.34	26508.91
649.49	26410.60
649.63	26588.49
649.78	26703.17
649.92	26579.12
650.07	26977.01
650.21	26441.03
650.36	26553.38
650.51	26567.42
650.65	26817.86
650.80	26480.82
650.94	26216.34
651.09	26188.25
651.23	26181.23
651.38	26883.39
651.52	26525.29
651.67	26279.54
651.81	26225.70
651.96	26277.19
652.10	26490.18
652.25	26146.12
652.39	26258.47
652.54	26712.53
652.68	26324.01
652.83	26387.20
652.97	26431.67
653.12	26272.51
653.26	26087.61
653.41	26120.38
653.55	26176.55
653.70	26373.16
653.84	25963.56
653.99	25926.11
654.13	26214.00
654.27	25830.15
654.42	26118.04
654.56	26211.66
654.71	25886.32
654.85	25766.96
655.00	26139.10
655.14	26150.81
655.29	26094.63
655.43	26026.76
655.57	25802.07
655.72	25795.04
655.86	25832.49
656.01	25778.66
656.15	25465.03
656.30	25750.57
656.44	25593.76
656.58	25528.22
656.73	25170.12
656.87	25724.83
657.01	25830.15
657.16	25947.18
657.30	25778.66
657.45	25671.00
657.59	25659.29
657.73	25495.46
657.88	25675.68
658.02	25600.78
658.16	25942.50
658.31	25315.23
658.45	25738.87
658.60	25493.12
658.74	25511.84
658.88	25212.25
659.03	25219.27
659.17	25296.51
659.31	25460.35
659.46	25481.41
659.60	25170.12
659.74	25268.42
659.89	24900.96
660.03	24891.60
660.17	25022.67
660.32	25083.52
660.46	25046.07
660.60	24975.86
660.74	25050.75
660.89	24821.38
661.03	24617.75
661.17	25050.75
661.32	24865.85
661.46	24870.53
661.60	25252.04
661.74	24830.74
661.89	25046.07
662.03	25008.62
662.17	24809.68
662.31	24622.44
662.46	24737.12
662.60	24690.31
662.74	24786.27
662.88	24336.89
663.03	24355.61
663.17	24388.38
663.31	24245.61
663.45	24400.08
663.60	24664.57
663.74	24177.73
663.88	24423.49
664.02	24088.79
664.17	24482.00
664.31	24512.43
664.45	24381.36
664.59	24191.78
664.73	24584.99
664.88	24095.82
665.02	23948.36
665.16	23861.76
665.30	24034.96
665.44	23903.89
665.59	24137.94
665.73	23852.40
665.87	23435.78
666.01	24093.47
666.15	23859.42
666.29	23803.25
666.44	24070.07
666.58	23910.91
666.72	23672.18
666.86	24147.31
667.00	23733.03
667.14	23831.33
667.28	23463.87
667.43	23386.63
667.57	23931.98
667.71	23241.52
667.85	23384.29
667.99	23267.27
668.13	23328.12
668.27	23414.72
668.41	23494.30
668.56	22998.10
668.70	23365.57
668.84	23372.59
668.98	23419.40
669.12	23180.67
669.26	23040.23
669.40	23157.26
669.54	23206.41
669.68	23157.26
669.82	22955.97
669.96	22810.86
670.10	22696.17
670.25	22803.84
670.39	22862.35
670.53	22890.44
670.67	22586.17
670.81	22913.84
670.95	22897.46
671.09	22979.38
671.23	22984.06
671.37	22726.60
671.51	22918.53
671.65	22726.60
671.79	22232.75
671.93	22705.54
672.07	22422.33
672.21	22352.12
672.35	22141.47
672.49	22057.21
672.63	22441.06
672.77	22026.78
672.91	21722.51
673.05	22195.30
673.19	22223.39
673.33	22162.53
673.47	22270.20
673.61	22129.77
673.75	21818.47
673.89	22132.11
674.03	21907.41
674.17	21678.04
674.31	21525.91
674.45	21862.94
674.59	21671.02
674.73	21528.25
674.87	21605.49
675.01	21525.91
675.15	21523.57
675.29	21301.22
675.43	21692.08
675.56	21748.26
675.70	21301.22
675.84	21422.92
675.98	20870.56
676.12	21570.38
676.26	21448.67
676.40	21109.29
676.54	20959.50
676.68	20985.24
676.82	20559.27
676.96	20793.32
677.10	20758.21
677.23	20840.13
677.37	20709.06
677.51	20547.56
677.65	20479.69
677.79	20582.67
677.93	20276.06
678.07	20114.56
678.21	20198.82
678.34	20067.75
678.48	20098.18
678.62	20137.97
678.76	20060.73
678.90	19758.80
679.04	19997.54
679.18	19948.39
679.31	19812.63
679.45	19812.63
679.59	19765.82
679.73	19775.19
679.87	19613.69
680.00	19613.69
680.14	19349.21
680.28	19618.37
680.42	19513.05
680.56	19398.36
680.70	19536.45
680.83	19271.97
680.97	19325.80
681.11	19096.43
681.25	19171.33
681.39	19208.78
681.52	19047.28
681.66	19058.98
681.80	18939.62
681.94	18934.93
682.07	18916.21
682.21	18541.72
682.35	18349.80
682.49	18286.61
682.62	18375.55
682.76	18792.16
682.90	18429.38
683.04	18237.45
683.17	18398.95
683.31	18342.78
683.45	18478.53
683.59	18164.90
683.72	17858.29
683.86	18127.45
684.00	18319.37
684.13	17893.40
684.27	17795.09
684.41	17755.30
684.55	17907.44
684.68	17607.85
684.82	17628.92
684.96	17291.88
685.09	17703.81
685.23	17605.51
685.37	17497.84
685.50	17556.36
685.64	17619.55
685.78	17511.89
685.91	17397.20
686.05	17277.83
686.19	17514.23
686.32	17406.56
686.46	17205.28
686.60	17006.33
686.73	16730.15
686.87	16634.19
687.01	16840.15
687.14	16748.87
687.28	16601.42
687.42	16428.22
687.55	16552.27
687.69	16709.08
687.82	16308.85
687.96	16393.11
688.10	16435.24
688.23	16538.23
688.37	16360.34
688.50	16453.97
688.64	16388.43
688.78	16091.18
688.91	16023.31
689.05	15943.73
689.18	16170.76
689.32	15644.14
689.46	15733.08
689.59	15620.74
689.73	15672.23
689.86	15772.87
690.00	15770.53
690.13	15681.59
690.27	15506.05
690.41	15606.69
690.54	15412.43
690.68	15323.49
690.81	15587.97
690.95	15300.08
691.08	15279.02
691.22	15435.83
691.35	15325.83
691.49	15180.71
691.62	14899.85
691.76	14878.79
691.89	15145.61
692.03	14860.06
692.16	14551.11
692.30	14370.89
692.43	14604.94
692.57	14384.93
692.70	14696.22
692.84	14766.44
692.97	14429.40
693.11	14258.54
693.24	14335.78
693.38	14333.44
693.51	14221.10
693.65	14249.18
693.78	13944.91
693.92	14193.01
694.05	14125.13
694.19	13891.08
694.32	13858.31
694.45	14059.60
694.59	13790.44
694.72	13755.33
694.86	13565.74
694.99	13202.96
695.13	13642.98
695.26	13577.45
695.39	13654.69
695.53	13453.40
695.66	13348.08
695.80	13231.05
695.93	13514.25
696.07	13287.22
696.20	13341.05
696.33	13209.98
696.47	13053.17
696.60	13219.35
696.73	13142.11
696.87	13053.17
697.00	12922.10
697.14	12737.20
697.27	12561.66
697.40	12697.41
697.54	12723.15
697.67	12552.29
697.80	12461.01
697.94	12416.54
698.07	12255.04
698.21	12138.02
698.34	12730.17
698.47	12425.90
698.61	12318.24
698.74	12145.04
698.87	12327.60
699.01	12285.47
699.14	12133.34
699.27	11946.09
699.40	12159.08
699.54	11838.43
699.67	11932.05
699.80	12030.35
699.94	11772.89
700.07	11775.24
700.20	11590.33
700.34	11417.13
700.47	11700.34
700.60	11557.57
700.73	11410.11
700.87	11651.19
701.00	11311.81
701.13	11506.07
701.26	11407.77
701.40	11468.62
701.53	11192.44
701.66	11307.13
701.79	11094.14
701.93	11169.04
702.06	11082.44
702.19	10750.08
702.32	10958.39
702.46	10888.17
702.59	10731.36
702.72	10848.38
702.85	10635.39
702.99	10520.71
703.12	10869.45
703.25	10555.82
703.38	10464.54
703.51	10499.64
703.65	10448.15
703.78	10586.24
703.91	10377.94
704.04	10490.28
704.17	10478.58
704.31	10356.87
704.44	10146.22
704.57	10286.65
704.70	10054.94
704.83	9895.78
704.96	9947.28
705.10	9954.30
705.23	9848.97
>>>>>End Processed Spectral Data<<<<<
