SpectraSuite Data File
++++++++++++++++++++++++++++++++++++
Date: Fri Oct 18 13:58:30 GMT-05:00 2013
User: bianchi
Dark Spectrum Present: No
Reference Spectrum Present: No
Number of Sampled Component Spectra: 1
Spectrometers: USB2+H05261
Integration Time (usec): 50000 (USB2+H05261)
Spectra Averaged: 1 (USB2+H05261)
Boxcar Smoothing: 0 (USB2+H05261)
Correct for Electrical Dark: No (USB2+H05261)
Strobe/Lamp Enabled: No (USB2+H05261)
Correct for Detector Non-linearity: No (USB2+H05261)
Correct for Stray Light: No (USB2+H05261)
Number of Pixels in Processed Spectrum: 2048
>>>>>Begin Processed Spectral Data<<<<<
365.73	0.00
365.92	0.00
366.12	0.00
366.32	0.00
366.52	0.00
366.72	0.00
366.91	0.00
367.11	0.00
367.31	0.00
367.51	0.00
367.70	0.00
367.90	0.00
368.10	0.00
368.30	0.00
368.49	0.00
368.69	0.00
368.89	0.00
369.09	0.00
369.28	0.00
369.48	0.00
369.68	0.00
369.87	0.00
370.07	0.00
370.27	0.00
370.47	4.68
370.66	72.56
370.86	163.84
371.06	105.32
371.25	126.39
371.45	67.88
371.65	88.94
371.84	102.98
372.04	212.99
372.24	177.88
372.44	154.48
372.63	238.73
372.83	131.07
373.03	117.03
373.22	212.99
373.42	154.48
373.62	264.48
373.81	224.69
374.01	210.65
374.21	198.95
374.40	208.31
374.60	182.56
374.79	189.58
374.99	222.35
375.19	205.97
375.38	248.10
375.58	198.95
375.78	290.23
375.97	308.95
376.17	220.01
376.37	224.69
376.56	287.89
376.76	229.37
376.95	177.88
377.15	264.48
377.35	222.35
377.54	252.78
377.74	191.92
377.93	217.67
378.13	187.24
378.33	269.16
378.52	308.95
378.72	203.63
378.91	248.10
379.11	339.38
379.31	259.80
379.50	170.86
379.70	308.95
379.89	318.31
380.09	304.27
380.28	220.01
380.48	308.95
380.68	358.10
380.87	250.44
381.07	236.39
381.26	278.52
381.46	255.12
381.65	327.68
381.85	330.02
382.04	381.51
382.24	397.89
382.43	269.16
382.63	292.57
382.83	344.06
383.02	322.99
383.22	353.42
383.41	327.68
383.61	269.16
383.80	353.42
384.00	397.89
384.19	423.64
384.39	397.89
384.58	311.29
384.78	393.21
384.97	451.72
385.17	325.33
385.36	433.00
385.56	397.89
385.75	355.76
385.95	421.30
386.14	365.12
386.34	400.23
386.53	400.23
386.72	425.98
386.92	418.96
387.11	451.72
387.31	437.68
387.50	362.78
387.70	404.91
387.89	458.74
388.09	456.40
388.28	397.89
388.48	397.89
388.67	423.64
388.86	379.17
389.06	416.62
389.25	414.27
389.45	418.96
389.64	430.66
389.84	440.02
390.03	393.21
390.22	519.60
390.42	447.04
390.61	360.44
390.81	409.59
391.00	486.83
391.19	496.19
391.39	475.13
391.58	543.00
391.78	484.49
391.97	498.53
392.16	538.32
392.36	470.45
392.55	503.22
392.75	554.71
392.94	505.56
393.13	510.24
393.33	550.03
393.52	491.51
393.71	507.90
393.91	521.94
394.10	479.81
394.29	592.16
394.49	500.87
394.68	601.52
394.88	589.82
395.07	622.58
395.26	582.79
395.46	592.16
395.65	636.63
395.84	636.63
396.04	550.03
396.23	521.94
396.42	613.22
396.62	636.63
396.81	519.60
397.00	692.80
397.19	557.05
397.39	557.05
397.58	671.73
397.77	631.94
397.97	655.35
398.16	760.67
398.35	624.92
398.55	741.95
398.74	631.94
398.93	671.73
399.12	662.37
399.32	697.48
399.51	655.35
399.70	744.29
399.90	739.61
400.09	753.65
400.28	828.55
400.47	685.78
400.67	730.25
400.86	758.33
401.05	807.48
401.24	791.10
401.44	788.76
401.63	823.87
401.82	856.64
402.01	748.97
402.21	788.76
402.40	730.25
402.59	737.27
402.78	725.57
402.97	861.32
403.17	760.67
403.36	889.40
403.55	959.62
403.74	849.61
403.93	840.25
404.13	882.38
404.32	936.21
404.51	896.43
404.70	964.30
404.89	901.11
405.09	957.28
405.28	917.49
405.47	950.26
405.66	961.96
405.85	905.79
406.05	1006.43
406.24	915.15
406.43	983.02
406.62	940.90
406.81	1050.90
407.00	933.87
407.20	950.26
407.39	1053.24
407.58	971.32
407.77	992.39
407.96	1050.90
408.15	1032.18
408.34	1064.94
408.54	985.37
408.73	1081.33
408.92	1093.03
409.11	1095.37
409.30	1184.31
409.49	1193.67
409.68	1090.69
409.87	1104.73
410.07	1128.14
410.26	1186.65
410.45	1277.93
410.64	1219.42
410.83	1188.99
411.02	1064.94
411.21	1174.95
411.40	1294.32
411.59	1231.12
411.78	1188.99
411.98	1256.87
412.17	1296.66
412.36	1261.55
412.55	1228.78
412.74	1320.06
412.93	1385.60
413.12	1320.06
413.31	1406.66
413.50	1427.73
413.69	1348.15
413.88	1371.55
414.07	1430.07
414.26	1427.73
414.45	1455.81
414.64	1387.94
414.83	1516.67
415.02	1437.09
415.22	1535.39
415.41	1519.01
415.60	1551.78
415.79	1540.07
415.98	1593.90
416.17	1619.65
416.36	1661.78
416.55	1586.88
416.74	1526.03
416.93	1652.42
417.12	1664.12
417.31	1626.67
417.50	1591.56
417.69	1668.80
417.88	1715.61
418.07	1664.12
418.26	1682.85
418.45	1659.44
418.64	1736.68
418.83	1746.04
419.02	1884.13
419.21	1811.57
419.39	1809.23
419.58	1809.23
419.77	1804.55
419.96	1708.59
420.15	1907.54
420.34	1834.98
420.53	1781.15
420.72	1872.43
420.91	1905.20
421.10	1905.20
421.29	1994.14
421.48	1959.03
421.67	2031.58
421.86	1879.45
422.05	1963.71
422.24	1912.22
422.43	1921.58
422.61	1980.09
422.80	1923.92
422.99	2024.56
423.18	1975.41
423.37	2073.71
423.56	2003.50
423.75	1851.36
423.94	1872.43
424.13	1846.68
424.32	1886.47
424.50	1977.75
424.69	2043.29
424.88	2022.22
425.07	2015.20
425.26	2059.67
425.45	2033.93
425.64	2050.31
425.83	1984.77
426.01	2008.18
426.20	1984.77
426.39	1989.46
426.58	2005.84
426.77	2045.63
426.96	2019.88
427.15	2054.99
427.33	2169.68
427.52	2050.31
427.71	2167.34
427.90	2106.48
428.09	2186.06
428.28	2026.90
428.46	2162.66
428.65	2143.93
428.84	2197.76
429.03	2207.13
429.22	2237.55
429.40	2157.97
429.59	2200.10
429.78	2150.95
429.97	2087.76
430.16	2235.21
430.34	2202.44
430.53	2370.96
430.72	2293.72
430.91	2289.04
431.10	2265.64
431.28	2300.75
431.47	2471.61
431.66	2363.94
431.85	2319.47
432.03	2392.03
432.22	2314.79
432.41	2389.69
432.60	2326.49
432.79	2333.51
432.97	2445.86
433.16	2469.27
433.35	2406.07
433.54	2504.37
433.72	2399.05
433.91	2347.56
434.10	2427.14
434.28	2431.82
434.47	2413.09
434.66	2609.70
434.85	2427.14
435.03	2476.29
435.22	2544.16
435.41	2668.21
435.59	2583.95
435.78	2623.74
435.97	2527.78
436.16	2605.02
436.34	2661.19
436.53	2679.91
436.72	2708.00
436.90	2626.08
437.09	2600.34
437.28	2649.49
437.46	2733.75
437.65	2759.49
437.84	2626.08
438.02	2843.75
438.21	2799.28
438.40	2715.02
438.58	2703.32
438.77	2775.88
438.96	2834.39
439.14	2988.86
439.33	2825.03
439.52	2876.52
439.70	2876.52
439.89	2956.10
440.08	2984.18
440.26	2984.18
440.45	3019.29
440.63	3005.25
440.82	3080.14
441.01	3035.67
441.19	3054.40
441.38	3052.06
441.57	3155.04
441.75	3073.12
441.94	3105.89
442.12	3124.62
442.31	3220.58
442.50	3159.72
442.68	3353.99
442.87	3229.94
443.05	3316.54
443.24	3286.11
443.43	3389.10
443.61	3316.54
443.80	3424.20
443.98	3372.71
444.17	3173.77
444.35	3398.46
444.54	3267.39
444.73	3391.44
444.91	3431.23
445.10	3330.58
445.28	3410.16
445.47	3274.41
445.65	3438.25
445.84	3445.27
446.02	3361.01
446.21	3571.66
446.39	3466.33
446.58	3318.88
446.77	3520.17
446.95	3389.10
447.14	3398.46
447.32	3487.40
447.51	3478.04
447.69	3412.50
447.88	3534.21
448.06	3454.63
448.25	3506.12
448.43	3361.01
448.62	3482.72
448.80	3342.28
448.99	3482.72
449.17	3529.53
449.36	3421.86
449.54	3604.42
449.73	3651.24
449.91	3581.02
450.10	3653.58
450.28	3639.53
450.46	3571.66
450.65	3730.81
450.83	3691.02
451.02	3513.14
451.20	3648.90
451.39	3726.13
451.57	3543.57
451.76	3562.30
451.94	3705.07
452.13	3822.09
452.31	3695.71
452.49	3625.49
452.68	3761.24
452.86	3676.98
453.05	3768.26
453.23	3861.88
453.42	3831.46
453.60	3829.12
453.78	3822.09
453.97	3822.09
454.15	3756.56
454.34	3702.73
454.52	3946.14
454.70	3974.23
454.89	4084.23
455.07	4049.13
455.26	3920.40
455.44	3918.06
455.62	4030.40
455.81	3915.72
455.99	4046.79
456.17	4210.62
456.36	4023.38
456.54	4135.73
456.73	4037.42
456.91	4133.39
457.09	4145.09
457.28	4322.97
457.46	4187.22
457.64	4337.01
457.83	4224.67
458.01	4203.60
458.19	4285.52
458.38	4334.67
458.56	4229.35
458.74	4437.66
458.93	4341.69
459.11	4416.59
459.29	4313.61
459.48	4444.68
459.66	4337.01
459.84	4477.44
460.03	4456.38
460.21	4559.36
460.39	4554.68
460.57	4407.23
460.76	4390.84
460.94	4610.86
461.12	4606.17
461.31	4491.49
461.49	4418.93
461.67	4444.68
461.85	4669.37
462.04	4617.88
462.22	4615.54
462.40	4631.92
462.59	4711.50
462.77	4737.24
462.95	4606.17
463.13	4540.64
463.32	4711.50
463.50	4627.24
463.68	4681.07
463.86	4748.95
464.05	4643.62
464.23	4676.39
464.41	4816.82
464.59	4816.82
464.78	4903.42
464.96	4734.90
465.14	4819.16
465.32	4835.55
465.50	4992.36
465.69	4887.04
465.87	4924.49
466.05	4842.57
466.23	4919.81
466.41	4912.78
466.60	5004.07
466.78	4788.74
466.96	4971.30
467.14	4819.16
467.32	5177.26
467.51	5039.17
467.69	4926.83
467.87	5029.81
468.05	5149.18
468.23	5027.47
468.41	5011.09
468.60	4983.00
468.78	5198.33
468.96	5018.11
469.14	5245.14
469.32	5156.20
469.50	4971.30
469.69	5277.91
469.87	5341.10
470.05	5268.55
470.23	5411.32
470.41	5317.70
470.59	5497.92
470.77	5219.39
470.95	5493.24
471.14	5404.30
471.32	5408.98
471.50	5444.09
471.68	5502.60
471.86	5502.60
472.04	5577.50
472.22	5699.20
472.40	5509.62
472.58	5657.07
472.77	5603.24
472.95	5776.44
473.13	6005.81
473.31	5645.37
473.49	5731.97
473.67	5797.51
473.85	5706.23
474.03	5954.32
474.21	5977.73
474.39	6015.18
474.57	5856.02
474.75	6113.48
474.93	6207.10
475.12	6005.81
475.30	6148.59
475.48	6057.31
475.66	6073.69
475.84	6214.12
476.02	6251.57
476.20	6214.12
476.38	6326.47
476.56	6370.94
476.74	6431.79
476.92	6406.05
477.10	6333.49
477.28	6672.87
477.46	6516.05
477.64	6572.22
477.82	6707.98
478.00	6857.77
478.18	6771.17
478.36	6977.14
478.54	6672.87
478.72	6899.90
478.90	6895.22
479.08	6916.28
479.26	6993.52
479.44	7157.36
479.62	7265.02
479.80	7169.06
479.98	7332.90
480.16	7478.01
480.34	7342.26
480.52	7379.71
480.70	7447.58
480.88	7384.39
481.06	7468.65
481.24	7756.54
481.41	7557.59
481.59	7674.62
481.77	8002.29
481.95	7838.45
482.13	7868.88
482.31	7768.24
482.49	8098.25
482.67	8229.32
482.85	8210.60
483.03	8390.82
483.21	8470.40
483.39	8442.31
483.57	8365.07
483.74	8472.74
483.92	8704.45
484.10	8414.23
484.28	8671.68
484.46	9109.36
484.64	8919.78
484.82	8872.97
485.00	8903.40
485.18	9184.26
485.35	9048.51
485.53	9214.69
485.71	8978.30
485.89	9270.86
486.07	9371.50
486.25	9411.29
486.43	9390.23
486.61	9769.40
486.78	9788.12
486.96	9753.01
487.14	9792.80
487.32	9753.01
487.50	9909.83
487.68	9806.84
487.85	10010.47
488.03	10326.44
488.21	10300.70
488.39	10162.61
488.57	10565.18
488.75	10415.38
488.92	10686.89
489.10	10633.05
489.28	10703.27
489.46	10899.87
489.64	10822.64
489.81	11012.22
489.99	11037.97
490.17	11180.74
490.35	11286.06
490.53	11091.80
490.70	11435.86
490.88	11314.15
491.06	11536.50
491.24	11494.37
491.41	11531.82
491.59	11597.35
491.77	11803.32
491.95	11960.14
492.13	11903.96
492.30	12016.31
492.48	11815.02
492.66	12060.78
492.84	12231.64
493.01	12198.87
493.19	12212.92
493.37	12657.62
493.54	12556.97
493.72	12547.61
493.90	12442.29
494.08	12582.72
494.25	12683.36
494.43	13008.70
494.61	13039.12
494.79	13139.77
494.96	13324.67
495.14	12982.95
495.32	13083.59
495.49	13437.02
495.67	13528.30
495.85	13483.83
496.02	13472.12
496.20	13624.26
496.38	13598.51
496.55	13661.71
496.73	13642.98
496.91	13750.65
497.09	13984.70
497.26	14115.77
497.44	14120.45
497.62	14214.07
497.79	14155.56
497.97	14335.78
498.14	14520.68
498.32	14600.26
498.50	14354.51
498.67	14544.09
498.85	14537.07
499.03	14736.01
499.20	14740.69
499.38	14539.41
499.56	14991.13
499.73	15044.96
499.91	14993.47
500.08	15059.01
500.26	14923.26
500.44	15101.14
500.61	15309.44
500.79	15164.33
500.97	15192.42
501.14	15466.26
501.32	15377.32
501.49	15756.49
501.67	15543.50
501.84	15653.50
502.02	15697.97
502.20	15623.08
502.37	15737.76
502.55	16201.19
502.72	16102.89
502.90	15903.94
503.07	15632.44
503.25	16116.93
503.43	15983.52
503.60	16060.76
503.78	16416.52
503.95	16212.89
504.13	16018.63
504.30	16404.81
504.48	16332.26
504.65	16318.22
504.83	16465.67
505.01	16556.95
505.18	16573.33
505.36	16716.11
505.53	16706.74
505.71	16746.53
505.88	16812.07
506.06	16697.38
506.23	17277.83
506.41	17163.15
506.58	17153.79
506.76	17221.66
506.93	17209.96
507.11	16905.69
507.28	16968.88
507.46	17219.32
507.63	17273.15
507.81	17266.13
507.98	17043.78
508.16	17296.56
508.33	17418.27
508.50	17371.46
508.68	17638.28
508.85	17720.20
509.03	17816.16
509.20	17736.58
509.38	17830.20
509.55	17949.57
509.73	17888.71
509.90	17642.96
510.08	17987.02
510.25	18001.06
510.42	18361.50
510.60	18455.12
510.77	18204.69
510.95	18504.28
511.12	18183.62
511.30	18487.89
511.47	18405.97
511.64	18780.46
511.82	18682.16
511.99	18443.42
512.17	18710.24
512.34	18771.10
512.51	18958.34
512.69	18831.95
512.86	18829.61
513.04	19101.11
513.21	19066.00
513.38	18888.12
513.56	19520.07
513.73	18869.40
513.90	19176.01
514.08	18850.67
514.25	19365.59
514.43	19356.23
514.60	19417.08
514.77	19290.70
514.95	19683.91
515.12	19513.05
515.29	19562.20
515.47	19524.75
515.64	19569.22
515.81	20042.01
515.99	19887.53
516.16	19695.61
516.33	20095.84
516.51	20226.91
516.68	19814.98
516.85	19793.91
517.03	19960.09
517.20	20210.53
517.37	20025.62
517.54	20393.09
517.72	20664.59
517.89	20376.70
518.06	20067.75
518.24	20088.82
518.41	20147.33
518.58	20318.19
518.75	19999.88
518.93	20606.08
519.10	20585.01
519.27	20648.21
519.45	20460.96
519.62	20751.19
519.79	20624.80
519.96	20589.69
520.14	20879.92
520.31	21106.95
520.48	20830.77
520.65	20643.52
520.83	21102.27
521.00	20961.84
521.17	20725.44
521.34	20606.08
521.52	20779.28
521.69	20959.50
521.86	21455.69
522.03	21216.96
522.20	21125.68
522.38	21415.90
522.55	21474.42
522.72	21247.38
522.89	21378.45
523.07	21666.34
523.24	21582.08
523.41	22043.17
523.58	21216.96
523.75	21916.78
523.92	21647.61
524.10	21764.64
524.27	21720.17
524.44	21825.50
524.61	21867.63
524.78	21872.31
524.96	22398.93
525.13	22235.09
525.30	21844.22
525.47	22162.53
525.64	22441.06
525.81	22075.93
525.98	22452.76
526.16	22207.00
526.33	22333.39
526.50	22675.11
526.67	22038.48
526.84	22298.28
527.01	22265.52
527.18	22534.68
527.36	22480.85
527.53	22527.66
527.70	22955.97
527.87	22916.19
528.04	22735.96
528.21	22906.82
528.38	22640.00
528.55	22712.56
528.72	22876.40
528.89	22684.47
529.07	22796.82
529.24	22647.02
529.41	23133.86
529.58	22972.36
529.75	22883.42
529.92	22974.70
530.09	22698.52
530.26	22892.78
530.43	23234.50
530.60	23285.99
530.77	23166.62
530.94	23431.10
531.11	22785.12
531.28	23023.85
531.46	23218.11
531.63	23363.23
531.80	23349.18
531.97	23669.84
532.14	23515.36
532.31	23524.72
532.48	23398.34
532.65	23503.66
532.82	23604.30
532.99	23690.90
533.16	23639.41
533.33	24013.90
533.50	24032.62
533.67	23751.76
533.84	23763.46
534.01	23744.73
534.18	23690.90
534.35	24049.00
534.52	23908.57
534.69	24109.86
534.86	24404.77
535.03	24187.10
535.20	23861.76
535.37	24095.82
535.54	24189.44
535.71	23861.76
535.88	24175.39
536.05	24259.65
536.22	24196.46
536.38	24500.73
536.55	24620.10
536.72	24123.90
536.89	24582.65
537.06	24098.16
537.23	24362.64
537.40	24360.30
537.57	24364.98
537.74	24545.20
537.91	24884.58
538.08	24744.14
538.25	24535.84
538.42	24659.88
538.59	24514.77
538.75	24470.30
538.92	24444.56
539.09	24915.00
539.26	24711.38
539.43	24933.73
539.60	25029.69
539.77	24847.13
539.94	25511.84
540.11	25284.81
540.28	25228.63
540.44	24982.88
540.61	25240.34
540.78	24781.59
540.95	24985.22
541.12	25228.63
541.29	25111.61
541.46	25521.20
541.62	25266.08
541.79	25420.56
541.96	24861.17
542.13	25268.42
542.30	25071.82
542.47	25230.98
542.63	25479.07
542.80	25427.58
542.97	25642.91
543.14	25563.33
543.31	25743.55
543.48	25355.02
543.64	25694.40
543.81	25724.83
543.98	25876.96
544.15	25769.30
544.32	25937.82
544.48	25834.83
544.65	26096.97
544.82	25982.29
544.99	25518.86
545.16	25825.47
545.32	26052.50
545.49	26272.51
545.66	26164.85
545.83	26302.94
546.00	26492.52
546.16	26368.48
546.33	26209.32
546.50	25851.22
546.67	25977.61
546.83	25963.56
547.00	26082.93
547.17	26209.32
547.34	26361.45
547.50	26448.05
547.67	26813.18
547.84	26616.57
548.00	26637.64
548.17	26677.43
548.34	26218.68
548.51	26850.63
548.67	26256.13
548.84	26455.08
549.01	26639.98
549.18	26497.20
549.34	26967.65
549.51	26267.83
549.68	26508.91
549.84	26452.73
550.01	26529.97
550.18	26616.57
550.34	26993.40
550.51	26911.48
550.68	26960.63
550.84	26862.33
551.01	26962.97
551.18	26747.64
551.34	26794.45
551.51	27075.32
551.68	26995.74
551.84	27150.21
552.01	27051.91
552.18	27463.85
552.34	27110.43
552.51	27316.39
552.68	27080.00
552.84	26845.94
553.01	27152.55
553.18	27250.86
553.34	26909.14
553.51	27168.94
553.67	27309.37
553.84	27573.85
554.01	27288.31
554.17	27402.99
554.34	27410.01
554.51	27290.65
554.67	27199.37
554.84	27271.92
555.00	27351.50
555.17	27477.89
555.33	27669.81
555.50	27590.24
555.67	27498.95
555.83	27749.39
556.00	27702.58
556.16	27625.34
556.33	27557.47
556.50	27756.41
556.66	27632.36
556.83	27475.55
556.99	27854.72
557.16	27543.42
557.32	27857.06
557.49	28023.23
557.65	27740.03
557.82	27550.45
557.98	27489.59
558.15	27756.41
558.32	27901.53
558.48	27730.67
558.65	27997.49
558.81	27693.22
558.98	27761.09
559.14	28093.45
559.31	27665.13
559.47	27971.74
559.64	28037.28
559.80	28009.19
559.97	28273.67
560.13	27814.93
560.30	28180.05
560.46	28257.29
560.63	28063.02
560.79	27931.95
560.96	27885.14
561.12	27793.86
561.29	27864.08
561.45	28503.04
561.61	27957.70
561.78	28364.95
561.94	28203.46
562.11	28339.21
562.27	28257.29
562.44	28102.81
562.60	28079.41
562.77	28226.86
562.93	28070.04
563.10	28493.68
563.26	28423.47
563.42	28514.75
563.59	28343.89
563.75	28444.53
563.92	28119.20
564.08	28053.66
564.24	28404.74
564.41	28210.48
564.57	28116.86
564.74	27948.34
564.90	28362.61
565.07	28711.35
565.23	28746.46
565.39	28566.24
565.56	28465.60
565.72	28627.09
565.88	28528.79
566.05	28472.62
566.21	28505.38
566.38	28444.53
566.54	28390.70
566.70	28821.36
566.87	28648.16
567.03	28744.12
567.19	28744.12
567.36	28744.12
567.52	28697.31
567.68	28687.95
567.85	28491.34
568.01	28603.69
568.17	28570.92
568.34	28917.32
568.50	28938.38
568.66	28601.35
568.83	29113.92
568.99	28781.57
569.15	28903.28
569.32	28865.83
569.48	28381.34
569.64	28589.64
569.81	28636.45
569.97	28540.49
570.13	28709.01
570.30	28671.56
570.46	28606.03
570.62	28793.27
570.78	28769.86
570.95	28762.84
571.11	28425.81
571.27	28671.56
571.43	28608.37
571.60	28952.43
571.76	28760.50
571.92	29195.84
572.09	29163.08
572.25	28886.89
572.41	29273.08
572.57	28767.52
572.74	29137.33
572.90	28755.82
573.06	28982.85
573.22	28755.82
573.38	28535.81
573.55	28694.97
573.71	29113.92
573.87	29200.52
574.03	28903.28
574.20	28634.11
574.36	28671.56
574.52	28973.49
574.68	28833.06
574.84	29057.75
575.01	28905.62
575.17	28575.60
575.33	28833.06
575.49	28872.85
575.65	28996.90
575.82	28896.25
575.98	29125.63
576.14	28882.21
576.30	28826.04
576.46	28905.62
576.62	28987.53
576.79	28762.84
576.95	28762.84
577.11	29085.84
577.27	29088.18
577.43	28966.47
577.59	29247.33
577.75	28914.98
577.92	28877.53
578.08	28929.02
578.24	28961.79
578.40	29053.07
578.56	28959.45
578.72	29223.93
578.88	29221.59
579.04	29467.34
579.21	29230.95
579.37	29015.62
579.53	29081.16
579.69	28795.61
579.85	28608.37
580.01	29024.98
580.17	28957.11
580.33	28856.46
580.49	29275.42
580.65	28992.22
580.82	29022.64
580.98	28896.25
581.14	29303.51
581.30	29149.03
581.46	29053.07
581.62	29434.58
581.78	29170.10
581.94	29310.53
582.10	29017.96
582.26	29127.97
582.42	29188.82
582.58	28936.04
582.74	29237.97
582.90	28905.62
583.06	29511.81
583.22	28964.13
583.38	29518.84
583.54	29289.46
583.70	29015.62
583.86	29116.26
584.02	29355.00
584.18	29102.22
584.34	29195.84
584.50	29376.06
584.66	29270.74
584.82	29060.09
584.98	29050.73
585.14	29357.34
585.30	29172.44
585.46	28882.21
585.62	28840.08
585.78	29022.64
585.94	29418.19
586.10	29268.40
586.26	29343.30
586.42	29329.25
586.58	29284.78
586.74	29242.65
586.90	29153.71
587.06	29069.45
587.22	29443.94
587.38	28896.25
587.54	29539.90
587.70	29420.53
587.86	29369.04
588.02	29495.43
588.18	29598.41
588.34	29453.30
588.49	29017.96
588.65	28987.53
588.81	29139.67
588.97	29294.14
589.13	29130.31
589.29	29113.92
589.45	29387.77
589.61	29319.89
589.77	29259.04
589.93	29956.52
590.08	29631.18
590.24	29771.61
590.40	29638.20
590.56	29553.94
590.72	29516.50
590.88	29249.67
591.04	29198.18
591.20	29661.61
591.35	29832.47
591.51	29881.62
591.67	29567.99
591.83	29846.51
591.99	29373.72
592.15	29404.15
592.31	29493.09
592.46	29486.07
592.62	29593.73
592.78	29144.35
592.94	29453.30
593.10	29462.66
593.26	29476.71
593.41	29783.32
593.57	29465.00
593.73	29631.18
593.89	29827.79
594.05	29556.28
594.20	29476.71
594.36	29806.72
594.52	29633.52
594.68	29692.04
594.84	29429.90
594.99	29591.39
595.15	29802.04
595.31	29589.05
595.47	30167.16
595.62	29745.87
595.78	29345.64
595.94	29762.25
596.10	29963.54
596.25	29858.21
596.41	29455.64
596.57	29575.01
596.73	29642.88
596.88	29780.98
597.04	29984.60
597.20	29589.05
597.36	29717.78
597.51	30054.82
597.67	29788.00
597.83	29806.72
597.99	29958.86
598.14	29427.56
598.30	29785.66
598.46	29860.55
598.61	29570.33
598.77	29549.26
598.93	30092.27
599.09	29638.20
599.24	30136.74
599.40	29617.14
599.56	29881.62
599.71	29766.93
599.87	29694.38
600.03	29780.98
600.18	30024.39
600.34	29228.61
600.50	29596.07
600.65	29771.61
600.81	29649.91
600.97	29834.81
601.12	29965.88
601.28	29958.86
601.44	29921.41
601.59	29670.97
601.75	29928.43
601.91	29912.05
602.06	29846.51
602.22	30087.59
602.37	29539.90
602.53	29699.06
602.69	29928.43
602.84	30036.09
603.00	29893.32
603.16	29795.02
603.31	29799.70
603.47	29373.72
603.62	29390.11
603.78	29745.87
603.94	29713.10
604.09	29549.26
604.25	29647.57
604.40	29610.12
604.56	29675.65
604.71	29504.79
604.87	30256.11
605.03	29509.47
605.18	30059.50
605.34	29589.05
605.49	29259.04
605.65	29448.62
605.80	29296.49
605.96	29663.95
606.12	29600.76
606.27	29916.73
606.43	29343.30
606.58	29790.34
606.74	29582.03
606.89	29916.73
607.05	30036.09
607.20	29596.07
607.36	29839.49
607.51	29324.57
607.67	28994.56
607.82	29457.98
607.98	29724.80
608.13	29598.41
608.29	29582.03
608.44	29497.77
608.60	29666.29
608.75	29565.65
608.91	29743.53
609.06	29748.21
609.22	29949.50
609.37	29273.08
609.53	29516.50
609.68	29301.17
609.84	29397.13
609.99	29654.59
610.15	29369.04
610.30	29233.29
610.46	29659.27
610.61	29570.33
610.76	29685.01
610.92	29818.42
611.07	29413.51
611.23	29364.36
611.38	29329.25
611.54	29212.23
611.69	28783.91
611.84	29017.96
612.00	29556.28
612.15	28985.19
612.31	29516.50
612.46	29022.64
612.62	29427.56
612.77	29483.73
612.92	29371.38
613.08	29446.28
613.23	29212.23
613.39	29326.91
613.54	28856.46
613.69	29160.73
613.85	28783.91
614.00	29156.05
614.15	29205.20
614.31	28723.05
614.46	29249.67
614.62	29301.17
614.77	29261.38
614.92	29149.03
615.08	29013.28
615.23	29001.58
615.38	29270.74
615.54	28683.27
615.69	28599.01
615.84	29024.98
616.00	28856.46
616.15	29134.99
616.30	28954.77
616.46	29151.37
616.61	28872.85
616.76	29207.55
616.92	28989.88
617.07	29034.35
617.22	28776.89
617.37	28414.10
617.53	28886.89
617.68	28980.51
617.83	28376.66
617.99	28776.89
618.14	28823.70
618.29	29029.66
618.45	28362.61
618.60	28940.72
618.75	28690.29
618.90	28828.38
619.06	29149.03
619.21	28877.53
619.36	28889.23
619.51	28374.31
619.67	28577.94
619.82	28278.35
619.97	29034.35
620.12	28386.02
620.28	28732.42
620.43	28603.69
620.58	28664.54
620.73	28606.03
620.89	28552.20
621.04	28879.87
621.19	28678.58
621.34	28322.82
621.49	28411.76
621.65	28395.38
621.80	28505.38
621.95	28201.11
622.10	28292.40
622.25	28268.99
622.41	28477.30
622.56	28458.57
622.71	28177.71
622.86	28212.82
623.01	28355.59
623.16	28247.93
623.32	28212.82
623.47	28540.49
623.62	28060.68
623.77	28381.34
623.92	28273.67
624.07	28133.24
624.23	27953.02
624.38	27941.32
624.53	27812.59
624.68	28203.46
624.83	28257.29
624.98	28545.17
625.13	28140.26
625.29	28142.60
625.44	28266.65
625.59	28032.60
625.74	28201.11
625.89	27953.02
626.04	27730.67
626.19	27920.25
626.34	27517.68
626.49	27615.98
626.65	27924.93
626.80	27934.29
626.95	27896.85
627.10	27833.65
627.25	28023.23
627.40	27531.72
627.55	27613.64
627.70	27494.27
627.85	27510.66
628.00	27803.22
628.15	27845.35
628.30	27522.36
628.45	27454.48
628.60	27257.88
628.76	27325.75
628.91	27845.35
629.06	27702.58
629.21	27496.61
629.36	27487.25
629.51	27587.89
629.66	27225.11
629.81	27564.49
629.96	27267.24
630.11	27136.17
630.26	27178.30
630.41	27129.15
630.56	27178.30
630.71	27421.72
630.86	27281.28
631.01	27325.75
631.16	27531.72
631.31	27398.31
631.46	27136.17
631.61	27222.77
631.76	27253.20
631.91	27466.19
632.06	27349.16
632.21	27370.22
632.36	27138.51
632.51	26895.10
632.66	27084.68
632.81	27133.83
632.96	27222.77
633.10	26955.95
633.25	27250.86
633.40	27763.43
633.55	27424.06
633.70	26850.63
633.85	26801.47
634.00	26902.12
634.15	26916.16
634.30	26895.10
634.45	26841.26
634.60	26838.92
634.75	27171.28
634.90	26953.61
635.05	27199.37
635.19	26749.98
635.34	26955.95
635.49	27199.37
635.64	26834.24
635.79	26969.99
635.94	26902.12
636.09	26806.16
636.24	26621.25
636.39	26403.58
636.53	26487.84
636.68	26546.36
636.83	26691.47
636.98	26885.73
637.13	27065.96
637.28	27225.11
637.43	27054.25
637.57	26969.99
637.72	26703.17
637.87	26419.97
638.02	26925.52
638.17	26380.18
638.32	26450.39
638.46	26373.16
638.61	26338.05
638.76	26277.19
638.91	26092.29
639.06	26422.31
639.20	26225.70
639.35	26548.70
639.50	26359.11
639.65	26899.78
639.80	26843.60
639.94	26455.08
640.09	26609.55
640.24	26462.10
640.39	26253.79
640.54	26113.36
640.68	26485.50
640.83	26260.81
640.98	25781.00
641.13	26005.69
641.27	26536.99
641.42	26108.68
641.57	26143.78
641.72	26316.98
641.86	25979.95
642.01	26230.38
642.16	26012.71
642.31	26085.27
642.45	26054.84
642.60	26122.72
642.75	25839.51
642.90	25888.67
643.04	26066.55
643.19	25762.28
643.34	25872.28
643.48	25876.96
643.63	26146.12
643.78	25781.00
643.93	26258.47
644.07	25984.63
644.22	26085.27
644.37	25848.88
644.51	25902.71
644.66	26005.69
644.81	25537.59
644.95	25537.59
645.10	25727.17
645.25	25867.60
645.39	25490.77
645.54	25764.62
645.69	25621.84
645.83	25699.08
645.98	26047.82
646.13	25598.44
646.27	25954.20
646.42	25458.01
646.57	25900.37
646.71	25729.51
646.86	25329.28
647.00	25523.54
647.15	25575.03
647.30	25624.18
647.44	25338.64
647.59	25521.20
647.74	25448.64
647.88	25362.04
648.03	25226.29
648.17	25558.65
648.32	25659.29
648.47	25631.21
648.61	25399.49
648.76	25696.74
648.90	25514.18
649.05	25671.00
649.20	25490.77
649.34	25170.12
649.49	25127.99
649.63	25020.33
649.78	25240.34
649.92	25041.39
650.07	25486.09
650.21	25301.19
650.36	25518.86
650.51	25064.80
650.65	25355.02
650.80	25348.00
650.94	25156.08
651.09	24957.13
651.23	25020.33
651.38	25102.25
651.52	25207.57
651.67	25132.67
651.81	25099.90
651.96	25053.09
652.10	25179.48
652.25	25039.05
652.39	25029.69
652.54	24709.04
652.68	25048.41
652.83	25291.83
652.97	24954.79
653.12	25160.76
653.26	24788.61
653.41	24781.59
653.55	24657.54
653.70	24474.98
653.84	24741.80
653.99	24816.70
654.13	24694.99
654.27	24542.86
654.42	24741.80
654.56	25029.69
654.71	24985.22
654.85	24657.54
655.00	24718.40
655.14	25036.71
655.29	24753.51
655.43	24847.13
655.57	24725.42
655.72	24648.18
655.86	24854.15
656.01	24460.94
656.15	24748.82
656.30	24180.07
656.44	24348.59
656.58	24336.89
656.73	24369.66
656.87	24561.58
657.01	24383.70
657.16	24753.51
657.30	24617.75
657.45	24350.93
657.59	24425.83
657.73	24470.30
657.88	24329.87
658.02	24538.18
658.16	24128.58
658.31	24074.75
658.45	23875.80
658.60	24074.75
658.74	24114.54
658.88	24002.19
659.03	23988.15
659.17	23920.28
659.31	24325.19
659.46	23899.21
659.60	24049.00
659.74	24231.57
659.89	24020.92
660.03	23901.55
660.17	23976.45
660.32	24039.64
660.46	24039.64
660.60	23571.54
660.74	23726.01
660.89	23744.73
661.03	23323.44
661.17	23517.70
661.32	23613.66
661.46	23836.02
661.60	23810.27
661.74	23459.19
661.89	23740.05
662.03	23653.45
662.17	23321.10
662.31	23679.20
662.46	23484.94
662.60	23527.06
662.74	23372.59
662.88	23456.85
663.03	23124.49
663.17	23056.62
663.31	22871.72
663.45	23496.64
663.60	23281.31
663.74	23030.87
663.88	23302.37
664.02	23285.99
664.17	23360.89
664.31	23180.67
664.45	23028.53
664.59	22930.23
664.73	22944.27
664.88	22946.61
665.02	22827.24
665.16	22869.37
665.30	22869.37
665.44	22979.38
665.59	22616.60
665.73	22668.09
665.87	22331.05
666.01	22754.69
666.15	22686.81
666.29	22558.08
666.44	22670.43
666.58	22471.48
666.72	22160.19
666.86	22909.16
667.00	22370.84
667.14	22422.33
667.28	22579.15
667.43	22293.60
667.57	22286.58
667.71	22307.65
667.85	22333.39
667.99	21874.65
668.13	22293.60
668.27	22235.09
668.41	22183.60
668.56	22080.61
668.70	22235.09
668.84	22309.99
668.98	22253.81
669.12	22111.04
669.26	22097.00
669.40	21715.49
669.54	21991.67
669.68	22038.48
669.82	21834.86
669.96	21385.47
670.10	21553.99
670.25	21720.17
670.39	21961.25
670.53	21727.19
670.67	21673.36
670.81	21671.02
670.95	21816.13
671.09	21612.51
671.23	22010.40
671.37	21713.15
671.51	21458.03
671.65	21720.17
671.79	21179.51
671.93	21467.39
672.07	21336.32
672.21	21099.93
672.35	20999.29
672.49	20669.27
672.63	21383.13
672.77	20790.98
672.91	21273.13
673.05	21149.08
673.19	21046.10
673.33	21170.15
673.47	21050.78
673.61	20828.43
673.75	20805.02
673.89	21125.68
674.03	20582.67
674.17	20582.67
674.31	20819.07
674.45	20393.09
674.59	20444.58
674.73	20648.21
674.87	20629.48
675.01	20540.54
675.15	20526.50
675.29	20343.94
675.43	20308.83
675.56	20404.79
675.70	20360.32
675.84	20128.61
675.98	19824.34
676.12	20297.13
676.26	19997.54
676.40	20184.78
676.54	20243.29
676.68	19976.47
676.82	19709.65
676.96	20056.05
677.10	19740.08
677.23	19585.60
677.37	19468.58
677.51	19424.11
677.65	19836.04
677.79	19094.09
677.93	19580.92
678.07	19283.67
678.21	18986.43
678.34	19307.08
678.48	18831.95
678.62	19115.16
678.76	18960.68
678.90	18965.36
679.04	19047.28
679.18	19070.68
679.31	18787.48
679.45	18553.43
679.59	18890.46
679.73	18670.45
679.87	18635.35
680.00	18635.35
680.14	18373.21
680.28	18279.58
680.42	18218.73
680.56	18373.21
680.70	18420.02
680.83	18480.87
680.97	18331.08
681.11	18127.45
681.25	18010.42
681.39	18312.35
681.52	18075.96
681.66	17881.69
681.80	17561.04
681.94	17549.34
682.07	17954.25
682.21	17717.86
682.35	17755.30
682.49	17626.57
682.62	17603.17
682.76	17289.54
682.90	17488.48
683.04	17401.88
683.17	17404.22
683.31	17385.50
683.45	17577.42
683.59	17439.33
683.72	17128.04
683.86	17261.45
684.00	17350.39
684.13	16889.31
684.27	17071.87
684.41	16992.29
684.55	16716.11
684.68	16725.47
684.82	16655.25
684.96	16676.32
685.09	16306.51
685.23	16435.24
685.37	16592.06
685.50	16814.41
685.64	16526.52
685.78	16430.56
685.91	16290.13
686.05	16585.04
686.19	16170.76
686.32	16482.05
686.46	15889.90
686.60	15866.49
686.73	16177.78
686.87	15920.32
687.01	16046.71
687.14	15749.46
687.28	15716.70
687.42	15723.72
687.55	15697.97
687.69	15864.15
687.82	15695.63
687.96	15733.08
688.10	15435.83
688.23	15571.58
688.37	15564.56
688.50	15335.19
688.64	15150.29
688.78	15459.24
688.91	15091.77
689.05	15260.29
689.18	15234.55
689.32	14981.77
689.46	15063.69
689.59	14778.14
689.73	14813.25
689.86	14738.35
690.00	15098.80
690.13	14745.38
690.27	14782.82
690.41	14853.04
690.54	14867.08
690.68	14721.97
690.81	14984.11
690.95	14642.39
691.08	14537.07
691.22	14717.29
691.35	14331.10
691.49	14649.41
691.62	14125.13
691.76	14310.04
691.89	13886.40
692.03	13970.66
692.16	13888.74
692.30	13710.86
692.43	13958.96
692.57	13575.11
692.70	13933.21
692.84	13540.00
692.97	13596.17
693.11	13776.39
693.24	13738.94
693.38	13886.40
693.51	13308.29
693.65	13408.93
693.78	13371.48
693.92	13406.59
694.05	13174.88
694.19	13219.35
694.32	13429.99
694.45	12947.84
694.59	12886.99
694.72	12865.92
694.86	12674.00
694.99	12695.07
695.13	13041.46
695.26	12957.21
695.39	12648.26
695.53	12767.62
695.66	12718.47
695.80	12610.81
695.93	12482.08
696.07	12503.14
696.20	12636.55
696.33	12620.17
696.47	12456.33
696.60	12243.34
696.73	12461.01
696.87	12386.12
697.00	12189.51
697.14	12173.13
697.27	11712.04
697.40	11953.12
697.54	12095.89
697.67	11822.05
697.80	11782.26
697.94	11810.34
698.07	11604.38
698.21	11836.09
698.34	11815.02
698.47	11543.52
698.61	11534.16
698.74	11836.09
698.87	11620.76
699.01	11485.01
699.14	11435.86
699.27	11466.28
699.40	11459.26
699.54	11154.99
699.67	11229.89
699.80	11157.33
699.94	11077.76
700.07	11185.42
700.20	10944.34
700.34	10949.03
700.47	11073.07
700.60	11012.22
700.73	10953.71
700.87	10700.93
701.00	10729.02
701.13	10736.04
701.26	10846.04
701.40	10799.23
701.53	10506.66
701.66	10630.71
701.79	10289.00
701.93	10501.98
702.06	10431.77
702.19	10345.17
702.32	10150.90
702.46	10249.21
702.59	10146.22
702.72	10242.18
702.85	9977.70
702.99	10122.82
703.12	9933.23
703.25	10038.56
703.38	9848.97
703.51	10076.01
703.65	9956.64
703.78	9898.13
703.91	10019.83
704.04	9811.53
704.17	10083.03
704.31	9774.08
704.44	9790.46
704.57	9827.91
704.70	9605.56
704.83	9432.36
704.96	9448.74
705.10	9411.29
705.23	9289.59
>>>>>End Processed Spectral Data<<<<<
