SpectraSuite Data File
++++++++++++++++++++++++++++++++++++
Date: Fri Oct 18 13:58:04 GMT-05:00 2013
User: bianchi
Dark Spectrum Present: No
Reference Spectrum Present: No
Number of Sampled Component Spectra: 1
Spectrometers: USB2+H05261
Integration Time (usec): 50000 (USB2+H05261)
Spectra Averaged: 1 (USB2+H05261)
Boxcar Smoothing: 0 (USB2+H05261)
Correct for Electrical Dark: No (USB2+H05261)
Strobe/Lamp Enabled: No (USB2+H05261)
Correct for Detector Non-linearity: No (USB2+H05261)
Correct for Stray Light: No (USB2+H05261)
Number of Pixels in Processed Spectrum: 2048
>>>>>Begin Processed Spectral Data<<<<<
365.73	0.00
365.92	0.00
366.12	0.00
366.32	0.00
366.52	0.00
366.72	0.00
366.91	0.00
367.11	0.00
367.31	0.00
367.51	0.00
367.70	0.00
367.90	0.00
368.10	0.00
368.30	0.00
368.49	0.00
368.69	0.00
368.89	0.00
369.09	0.00
369.28	0.00
369.48	0.00
369.68	0.00
369.87	0.00
370.07	0.00
370.27	0.00
370.47	0.00
370.66	91.28
370.86	98.30
371.06	140.43
371.25	135.75
371.45	191.92
371.65	175.54
371.84	215.33
372.04	114.69
372.24	161.50
372.44	184.90
372.63	173.20
372.83	217.67
373.03	154.48
373.22	224.69
373.42	234.05
373.62	217.67
373.81	262.14
374.01	180.22
374.21	227.03
374.40	278.52
374.60	245.76
374.79	306.61
374.99	217.67
375.19	222.35
375.38	168.52
375.58	222.35
375.78	194.26
375.97	229.37
376.17	271.50
376.37	205.97
376.56	215.33
376.76	269.16
376.95	273.84
377.15	266.82
377.35	325.33
377.54	400.23
377.74	252.78
377.93	299.59
378.13	259.80
378.33	271.50
378.52	262.14
378.72	231.71
378.91	315.97
379.11	339.38
379.31	257.46
379.50	301.93
379.70	234.05
379.89	341.72
380.09	264.48
380.28	297.25
380.48	341.72
380.68	290.23
380.87	257.46
381.07	290.23
381.26	341.72
381.46	322.99
381.65	376.83
381.85	313.63
382.04	337.04
382.24	353.42
382.43	372.15
382.63	308.95
382.83	404.91
383.02	372.15
383.22	360.44
383.41	320.65
383.61	285.55
383.80	334.70
384.00	299.59
384.19	472.79
384.39	440.02
384.58	353.42
384.78	334.70
384.97	395.55
385.17	337.04
385.36	428.32
385.56	365.12
385.75	383.85
385.95	400.23
386.14	423.64
386.34	388.53
386.53	423.64
386.72	440.02
386.92	390.87
387.11	414.27
387.31	451.72
387.50	447.04
387.70	423.64
387.89	379.17
388.09	433.00
388.28	418.96
388.48	423.64
388.67	489.17
388.86	465.77
389.06	386.19
389.25	400.23
389.45	470.45
389.64	543.00
389.84	477.47
390.03	456.40
390.22	543.00
390.42	519.60
390.61	503.22
390.81	561.73
391.00	489.17
391.19	498.53
391.39	545.34
391.58	578.11
391.78	521.94
391.97	519.60
392.16	528.96
392.36	580.45
392.55	543.00
392.75	610.88
392.94	545.34
393.13	547.69
393.33	547.69
393.52	624.92
393.71	543.00
393.91	564.07
394.10	624.92
394.29	517.26
394.49	524.28
394.68	564.07
394.88	568.75
395.07	610.88
395.26	606.20
395.46	601.52
395.65	650.67
395.84	699.82
396.04	629.60
396.23	622.58
396.42	606.20
396.62	631.94
396.81	674.07
397.00	599.18
397.19	678.76
397.39	617.90
397.58	697.48
397.77	734.93
397.97	692.80
398.16	678.76
398.35	660.03
398.55	692.80
398.74	730.25
398.93	840.25
399.12	660.03
399.32	674.07
399.51	711.52
399.70	819.19
399.90	741.95
400.09	788.76
400.28	795.78
400.47	734.93
400.67	781.74
400.86	814.51
401.05	786.42
401.24	786.42
401.44	873.02
401.63	877.70
401.82	795.78
402.01	854.30
402.21	786.42
402.40	833.23
402.59	896.43
402.78	868.34
402.97	858.98
403.17	896.43
403.36	840.25
403.55	833.23
403.74	863.66
403.93	884.72
404.13	905.79
404.32	1001.75
404.51	943.24
404.70	1004.09
404.89	940.90
405.09	971.32
405.28	917.49
405.47	961.96
405.66	1062.60
405.85	954.94
406.05	987.71
406.24	933.87
406.43	1027.50
406.62	1029.84
406.81	1071.97
407.00	1008.77
407.20	1050.90
407.39	1011.11
407.58	1102.39
407.77	1057.92
407.96	1086.01
408.15	1146.86
408.34	1060.26
408.54	1128.14
408.73	1167.93
408.92	1181.97
409.11	1078.99
409.30	1174.95
409.49	1123.46
409.68	1156.22
409.87	1200.69
410.07	1217.08
410.26	1303.68
410.45	1214.74
410.64	1156.22
410.83	1231.12
411.02	1254.53
411.21	1210.06
411.40	1238.14
411.59	1334.11
411.78	1303.68
411.98	1315.38
412.17	1320.06
412.36	1226.44
412.55	1334.11
412.74	1306.02
412.93	1338.79
413.12	1296.66
413.31	1371.55
413.50	1404.32
413.69	1352.83
413.88	1533.05
414.07	1462.83
414.26	1437.09
414.45	1413.68
414.64	1561.14
414.83	1504.96
415.02	1432.41
415.22	1636.03
415.41	1516.67
415.60	1549.43
415.79	1640.72
415.98	1610.29
416.17	1643.06
416.36	1516.67
416.55	1638.38
416.74	1715.61
416.93	1636.03
417.12	1781.15
417.31	1790.51
417.50	1703.91
417.69	1863.07
417.88	1757.74
418.07	1788.17
418.26	1722.63
418.45	1842.00
418.64	1921.58
418.83	1863.07
419.02	1846.68
419.21	1781.15
419.39	1837.32
419.58	1909.88
419.77	1799.87
419.96	1909.88
420.15	1830.30
420.34	1781.15
420.53	1944.99
420.72	1923.92
420.91	1998.82
421.10	1998.82
421.29	1923.92
421.48	1959.03
421.67	1980.09
421.86	1956.69
422.05	2043.29
422.24	1825.62
422.43	1942.64
422.61	2005.84
422.80	2073.71
422.99	2062.01
423.18	2094.78
423.37	2022.22
423.56	1982.43
423.75	1994.14
423.94	1940.30
424.13	1863.07
424.32	1944.99
424.50	2033.93
424.69	2094.78
424.88	2078.40
425.07	2132.23
425.26	2008.18
425.45	2008.18
425.64	2005.84
425.83	1963.71
426.01	2237.55
426.20	2052.65
426.39	2033.93
426.58	2087.76
426.77	2115.84
426.96	2022.22
427.15	2108.82
427.33	2139.25
427.52	2136.91
427.71	2277.34
427.90	2190.74
428.09	2181.38
428.28	2251.60
428.46	2251.60
428.65	2249.25
428.84	2265.64
429.03	2275.00
429.22	2183.72
429.40	2214.15
429.59	2408.41
429.78	2115.84
429.97	2146.27
430.16	2314.79
430.34	2363.94
430.53	2293.72
430.72	2246.91
430.91	2289.04
431.10	2392.03
431.28	2345.22
431.47	2464.58
431.66	2445.86
431.85	2385.01
432.03	2471.61
432.22	2483.31
432.41	2445.86
432.60	2413.09
432.79	2480.97
432.97	2455.22
433.16	2516.08
433.35	2495.01
433.54	2546.50
433.72	2569.91
433.91	2424.80
434.10	2497.35
434.28	2504.37
434.47	2450.54
434.66	2558.21
434.85	2635.44
435.03	2640.12
435.22	2560.55
435.41	2593.31
435.59	2759.49
435.78	2775.88
435.97	2715.02
436.16	2637.78
436.34	2757.15
436.53	2700.98
436.72	2827.37
436.90	2651.83
437.09	2761.83
437.28	2565.23
437.46	2916.31
437.65	2626.08
437.84	2715.02
438.02	2747.79
438.21	2883.54
438.40	2722.04
438.58	2787.58
438.77	2909.29
438.96	2930.35
439.14	2951.42
439.33	3005.25
439.52	2888.22
439.70	2953.76
439.89	3122.27
440.08	3063.76
440.26	3012.27
440.45	3131.64
440.63	3141.00
440.82	3138.66
441.01	3201.85
441.19	3236.96
441.38	3061.42
441.57	3159.72
441.75	3236.96
441.94	3377.39
442.12	3269.73
442.31	3328.24
442.50	3302.50
442.68	3234.62
442.87	3384.41
443.05	3370.37
443.24	3578.68
443.43	3414.84
443.61	3557.61
443.80	3548.25
443.98	3496.76
444.17	3398.46
444.35	3569.32
444.54	3485.06
444.73	3494.42
444.91	3534.21
445.10	3487.40
445.28	3513.14
445.47	3407.82
445.65	3592.72
445.84	3623.15
446.02	3672.30
446.21	3461.65
446.39	3517.83
446.58	3616.13
446.77	3585.70
446.95	3487.40
447.14	3473.36
447.32	3686.34
447.51	3562.30
447.69	3480.38
447.88	3501.44
448.06	3506.12
448.25	3583.36
448.43	3564.64
448.62	3592.72
448.80	3557.61
448.99	3606.77
449.17	3688.68
449.36	3726.13
449.54	3744.86
449.73	3772.94
449.91	3803.37
450.10	3824.44
450.28	3674.64
450.46	3803.37
450.65	3819.75
450.83	3775.28
451.02	3868.91
451.20	3784.65
451.39	3882.95
451.57	3843.16
451.76	3768.26
451.94	3772.94
452.13	3960.19
452.31	3978.91
452.49	3904.01
452.68	3953.16
452.86	3943.80
453.05	3967.21
453.23	3866.56
453.42	3885.29
453.60	3904.01
453.78	4021.04
453.97	4056.15
454.15	4009.34
454.34	4023.38
454.52	4105.30
454.70	4231.69
454.89	4138.07
455.07	4114.66
455.26	4081.89
455.44	4126.36
455.62	4025.72
455.81	4077.21
455.99	4198.92
456.17	4196.58
456.36	4173.18
456.54	4231.69
456.73	4290.20
456.91	4383.82
457.09	4318.29
457.28	4440.00
457.46	4308.93
457.64	4344.03
457.83	4486.81
458.01	4348.72
458.19	4542.98
458.38	4468.08
458.56	4432.97
458.74	4524.26
458.93	4500.85
459.11	4416.59
459.29	4524.26
459.48	4561.70
459.66	4564.04
459.84	4657.67
460.03	4723.20
460.21	4643.62
460.39	4557.02
460.57	4550.00
460.76	4610.86
460.94	4816.82
461.12	4475.10
461.31	4652.98
461.49	4685.75
461.67	4638.94
461.85	4784.06
462.04	4734.90
462.22	5095.35
462.40	4966.62
462.59	4809.80
462.77	5006.41
462.95	4901.08
463.13	4858.95
463.32	4830.87
463.50	4847.25
463.68	4990.02
463.86	4849.59
464.05	4826.18
464.23	4905.76
464.41	5011.09
464.59	4910.44
464.78	4994.70
464.96	5095.35
465.14	5053.22
465.32	5069.60
465.50	5018.11
465.69	5160.88
465.87	4983.00
466.05	5128.11
466.23	4999.38
466.41	5210.03
466.60	5334.08
466.78	5179.61
466.96	5111.73
467.14	4933.85
467.32	5111.73
467.51	5184.29
467.69	5018.11
467.87	5231.10
468.05	5050.88
468.23	5235.78
468.41	5193.65
468.60	5280.25
468.78	5261.52
468.96	5322.38
469.14	5275.57
469.32	5296.63
469.50	5364.51
469.69	5261.52
469.87	5568.13
470.05	5638.35
470.23	5390.25
470.41	5509.62
470.59	5631.33
470.77	5526.00
470.95	5605.58
471.14	5678.14
471.32	5511.96
471.50	5624.31
471.68	5643.03
471.86	5738.99
472.04	5706.23
472.22	5769.42
472.40	5591.54
472.58	5614.95
472.77	5788.14
472.95	5872.40
473.13	6069.01
473.31	5940.28
473.49	6019.86
473.67	5816.23
473.85	5980.07
474.03	5827.93
474.21	6003.47
474.39	6118.16
474.57	6179.01
474.75	6134.54
474.93	6239.87
475.12	6258.59
475.30	6209.44
475.48	6289.02
475.66	6338.17
475.84	6497.33
476.02	6628.40
476.20	6260.93
476.38	6490.31
476.56	6642.44
476.74	6621.38
476.92	6553.50
477.10	6691.59
477.28	6871.81
477.46	6731.38
477.64	6693.93
477.82	6998.20
478.00	7173.74
478.18	6944.37
478.36	6939.69
478.54	7133.95
478.72	7222.89
478.90	7253.32
479.08	7201.83
479.26	7339.92
479.44	7239.28
479.62	7571.63
479.80	7461.63
479.98	7459.29
480.16	7620.78
480.34	7688.66
480.52	7632.49
480.70	7728.45
480.88	7613.76
481.06	7885.26
481.24	7655.89
481.41	7887.61
481.59	8091.23
481.77	8145.06
481.95	8203.58
482.13	8365.07
482.31	8124.00
482.49	8374.44
482.67	8423.59
482.85	8351.03
483.03	8648.28
483.21	8681.05
483.39	8777.01
483.57	8725.52
483.74	8779.35
483.92	8833.18
484.10	8957.23
484.28	8985.32
484.46	9334.06
484.64	9432.36
484.82	9198.31
485.00	9219.37
485.18	9493.21
485.35	9509.60
485.53	9493.21
485.71	9547.05
485.89	9863.02
486.07	9713.22
486.25	9668.75
486.43	9867.70
486.61	10134.52
486.78	10169.63
486.96	9949.62
487.14	10366.23
487.32	10300.70
487.50	10284.31
487.68	10307.72
487.85	10541.77
488.03	10319.42
488.21	10778.17
488.39	10588.58
488.57	10817.96
488.75	10850.72
488.92	10874.13
489.10	11040.31
489.28	11225.21
489.46	11159.67
489.64	11162.01
489.81	11557.57
489.99	11632.46
490.17	11503.73
490.35	11487.35
490.53	11653.53
490.70	11749.49
490.88	11791.62
491.06	12149.72
491.24	12030.35
491.41	12046.74
491.59	12030.35
491.77	12100.57
491.95	12549.95
492.13	12355.69
492.30	12374.41
492.48	12355.69
492.66	12542.93
492.84	12503.14
493.01	12791.03
493.19	12835.50
493.37	12938.48
493.54	12828.48
493.72	13034.44
493.90	12861.24
494.08	13153.81
494.25	13359.78
494.43	13418.29
494.61	13483.83
494.79	13317.65
494.96	13327.01
495.14	13757.67
495.32	13757.67
495.49	13783.41
495.67	13895.76
495.85	13949.59
496.02	13940.23
496.20	14085.34
496.38	14429.40
496.55	14134.50
496.73	14438.76
496.91	14359.19
497.09	14478.55
497.26	14452.81
497.44	14656.43
497.62	14707.93
497.79	14829.63
497.97	14850.70
498.14	15136.24
498.32	15122.20
498.50	15007.52
498.67	15452.22
498.85	15021.56
499.03	15295.40
499.20	15283.70
499.38	15372.64
499.56	15330.51
499.73	15501.37
499.91	15620.74
500.08	15452.22
500.26	15569.24
500.44	15620.74
500.61	15707.34
500.79	15800.96
500.97	15903.94
501.14	16044.37
501.32	16009.26
501.49	16065.44
501.67	16112.25
501.84	16201.19
502.02	16112.25
502.20	16322.90
502.37	16503.12
502.55	16362.69
502.72	16231.62
502.90	16318.22
503.07	16596.74
503.25	16664.61
503.43	16676.32
503.60	16496.10
503.78	16732.49
503.95	16702.06
504.13	16645.89
504.30	16629.51
504.48	17032.08
504.65	16891.65
504.83	17184.21
505.01	17390.18
505.18	17123.36
505.36	17303.58
505.53	17280.18
505.71	17348.05
505.88	17668.70
506.06	17280.18
506.23	17600.83
506.41	17612.53
506.58	17788.07
506.76	17790.41
506.93	17640.62
507.11	17591.47
507.28	17722.54
507.46	17933.18
507.63	18136.81
507.81	18209.37
507.98	17673.39
508.16	18106.38
508.33	18080.64
508.50	18015.10
508.68	18270.22
508.85	18464.49
509.03	18380.23
509.20	18604.92
509.38	18721.95
509.55	18827.27
509.73	18705.56
509.90	18576.83
510.08	18761.73
510.25	18532.36
510.42	18991.11
510.60	18939.62
510.77	19054.30
510.95	19098.77
511.12	18918.55
511.30	19250.91
511.47	19044.94
511.64	19040.26
511.82	19480.28
511.99	19321.12
512.17	19337.51
512.34	19300.06
512.51	19555.18
512.69	19690.93
512.86	19637.09
513.04	19733.06
513.21	19761.14
513.38	19686.25
513.56	19477.94
513.73	19889.87
513.90	19887.53
514.08	20009.24
514.25	20217.55
514.43	20002.22
514.60	20339.26
514.77	19992.86
514.95	20135.63
515.12	20198.82
515.29	20231.59
515.47	20198.82
515.64	20503.09
515.81	20233.93
515.99	20383.73
516.16	20748.85
516.33	20765.23
516.51	20849.49
516.68	20570.97
516.85	20692.68
517.03	20535.86
517.20	20664.59
517.37	20861.19
517.54	20882.26
517.72	20833.11
517.89	21062.48
518.06	20828.43
518.24	20879.92
518.41	20702.04
518.58	21102.27
518.75	20938.43
518.93	21135.04
519.10	21076.52
519.27	21645.27
519.45	21364.41
519.62	21263.77
519.79	21289.51
519.96	21425.26
520.14	21322.28
520.31	21261.43
520.48	21673.36
520.65	21757.62
520.83	21617.19
521.00	21495.48
521.17	21797.41
521.34	21720.17
521.52	21633.57
521.69	22178.92
521.86	21972.95
522.03	21998.70
522.20	22551.06
522.38	22141.47
522.55	22101.68
522.72	22239.77
522.89	22195.30
523.07	22359.14
523.24	22352.12
523.41	22291.26
523.58	22359.14
523.75	22560.42
523.92	22335.73
524.10	22562.76
524.27	22845.97
524.44	22794.48
524.61	22822.56
524.78	22944.27
524.96	22759.37
525.13	23035.55
525.30	22883.42
525.47	22909.16
525.64	22871.72
525.81	23110.45
525.98	22860.01
526.16	23131.51
526.33	23150.24
526.50	23440.47
526.67	23215.77
526.84	23175.98
527.01	23590.26
527.18	23325.78
527.36	23784.52
527.53	23840.70
527.70	23564.51
527.87	23810.27
528.04	23646.43
528.21	23669.84
528.38	23861.76
528.55	23817.29
528.72	23770.48
528.89	23831.33
529.07	23590.26
529.24	23721.33
529.41	23948.36
529.58	23828.99
529.75	23690.90
529.92	23651.11
530.09	24273.70
530.26	23922.62
530.43	24067.73
530.60	23934.32
530.77	23924.96
530.94	24173.05
531.11	23936.66
531.28	24355.61
531.46	24453.92
531.63	24545.20
531.80	24620.10
531.97	24482.00
532.14	24453.92
532.31	24369.66
532.48	24680.95
532.65	24702.01
532.82	24437.53
532.99	24758.19
533.16	24741.80
533.33	24545.20
533.50	25025.01
533.67	24917.34
533.84	24725.42
534.01	24416.47
534.18	24683.29
534.35	25067.14
534.52	24985.22
534.69	24950.11
534.86	25228.63
535.03	24891.60
535.20	25195.87
535.37	25486.09
535.54	25476.73
535.71	24884.58
535.88	25256.72
536.05	25394.81
536.22	25184.16
536.38	25820.79
536.55	25563.33
536.72	25502.48
536.89	25163.10
537.06	25123.31
537.23	25514.18
537.40	25432.26
537.57	25668.66
537.74	25516.52
537.91	26401.24
538.08	25450.99
538.25	25748.23
538.42	25720.15
538.59	25785.68
538.75	25635.89
538.92	25741.21
539.09	25830.15
539.26	25565.67
539.43	25757.60
539.60	26291.24
539.77	25710.78
539.94	26174.21
540.11	25965.90
540.28	25783.34
540.44	26078.25
540.61	25900.37
540.78	26204.64
540.95	26192.94
541.12	25935.48
541.29	26270.17
541.46	26356.77
541.62	26590.83
541.79	26373.16
541.96	26103.99
542.13	26279.54
542.30	26265.49
542.47	26663.38
542.63	26553.38
542.80	26651.68
542.97	26768.71
543.14	26707.85
543.31	26906.80
543.48	26647.00
543.64	26890.41
543.81	27019.14
543.98	27065.96
544.15	26927.86
544.32	27002.76
544.48	27466.19
544.65	27089.36
544.82	26960.63
544.99	26843.60
545.16	27276.60
545.32	27103.40
545.49	27381.93
545.66	27119.79
545.83	27344.48
546.00	27587.89
546.16	27534.06
546.33	27112.77
546.50	27122.13
546.67	27250.86
546.83	27243.84
547.00	27222.77
547.17	27185.32
547.34	27377.25
547.50	27845.35
547.67	27662.79
547.84	27761.09
548.00	27683.86
548.17	27901.53
548.34	27637.05
548.51	27707.26
548.67	28163.67
548.84	27791.52
549.01	27648.75
549.18	27435.76
549.34	27545.76
549.51	27634.71
549.68	27761.09
549.84	28023.23
550.01	28240.90
550.18	27601.94
550.34	27922.59
550.51	27983.44
550.68	28603.69
550.84	27934.29
551.01	28037.28
551.18	28584.96
551.34	27878.12
551.51	28194.09
551.68	28229.20
551.84	28397.72
552.01	27784.50
552.18	28362.61
552.34	28313.46
552.51	28458.57
552.68	28107.49
552.84	28198.77
553.01	28332.18
553.18	28428.15
553.34	28334.53
553.51	28292.40
553.67	28858.81
553.84	28629.43
554.01	28500.70
554.17	28596.67
554.34	28694.97
554.51	28414.10
554.67	28657.52
554.84	28563.90
555.00	28730.08
555.17	28458.57
555.33	28706.67
555.50	28720.71
555.67	28409.42
555.83	28975.83
556.00	28549.85
556.16	29355.00
556.33	28568.58
556.50	28907.96
556.66	29130.31
556.83	28739.44
556.99	29352.66
557.16	29165.42
557.32	28966.47
557.49	29137.33
557.65	28861.15
557.82	28685.61
557.98	29048.39
558.15	29406.49
558.32	29446.28
558.48	28971.15
558.65	29064.77
558.81	29312.87
558.98	28868.17
559.14	28982.85
559.31	28624.75
559.47	28989.88
559.64	29184.14
559.80	29259.04
559.97	29092.86
560.13	29085.84
560.30	29434.58
560.46	29598.41
560.63	29275.42
560.79	29418.19
560.96	29369.04
561.12	29202.86
561.29	29048.39
561.45	29589.05
561.61	29350.32
561.78	29486.07
561.94	29621.82
562.11	29486.07
562.27	29542.24
562.44	29846.51
562.60	29284.78
562.77	29713.10
562.93	28964.13
563.10	29673.31
563.26	29647.57
563.42	29879.28
563.59	29898.00
563.75	29308.19
563.92	29886.30
564.08	29326.91
564.24	29605.44
564.41	29359.68
564.57	29373.72
564.74	29273.08
564.90	29766.93
565.07	29846.51
565.23	29717.78
565.39	29701.40
565.56	29902.68
565.72	29525.86
565.88	29912.05
566.05	29553.94
566.21	29795.02
566.38	29806.72
566.54	29448.62
566.70	30485.48
566.87	29975.24
567.03	29951.84
567.19	30141.42
567.36	29895.66
567.52	29879.28
567.68	30132.06
567.85	29603.10
568.01	29923.75
568.17	29965.88
568.34	30204.61
568.50	29996.31
568.66	29696.72
568.83	30265.47
568.99	30089.93
569.15	29736.51
569.32	29776.30
569.48	29895.66
569.64	29970.56
569.81	30052.48
569.97	30089.93
570.13	30073.54
570.30	29844.17
570.46	29848.85
570.62	30026.73
570.78	30024.39
570.95	29792.68
571.11	30092.27
571.27	29799.70
571.43	29937.79
571.60	30504.20
571.76	29823.11
571.92	30223.34
572.09	30312.28
572.25	30515.90
572.41	30569.74
572.57	30134.40
572.74	30345.05
572.90	30300.58
573.06	29853.53
573.22	30122.69
573.38	30045.46
573.55	30197.59
573.71	30211.64
573.87	30354.41
574.03	30331.00
574.20	30513.56
574.36	30361.43
574.52	30270.15
574.68	30363.77
574.84	30548.67
575.01	30487.82
575.17	30389.52
575.33	30253.76
575.49	30335.68
575.65	30396.54
575.82	30288.87
575.98	30298.23
576.14	30143.76
576.30	30237.38
576.46	30216.32
576.62	30354.41
576.79	30359.09
576.95	30118.01
577.11	30721.87
577.27	30312.28
577.43	30670.38
577.59	30642.29
577.75	30068.86
577.92	30036.09
578.08	29916.73
578.24	30405.90
578.40	30075.88
578.56	30382.49
578.72	30525.27
578.88	30581.44
579.04	30810.81
579.21	30272.49
579.37	30604.84
579.53	30455.05
579.69	30235.04
579.85	29991.62
580.01	30286.53
580.17	30284.19
580.33	30223.34
580.49	30347.39
580.65	30448.03
580.82	30654.00
580.98	30848.26
581.14	30429.30
581.30	30646.97
581.46	30232.70
581.62	30452.71
581.78	30075.88
581.94	30654.00
582.10	30216.32
582.26	30256.11
582.42	30911.46
582.58	30398.88
582.74	30185.89
582.90	30565.06
583.06	30635.27
583.22	30536.97
583.38	30274.83
583.54	30274.83
583.70	30452.71
583.86	30621.23
584.02	30501.86
584.18	30625.91
584.34	30511.22
584.50	30838.90
584.66	30302.92
584.82	30515.90
584.98	30974.65
585.14	30567.40
585.30	30272.49
585.46	30611.87
585.62	30089.93
585.78	30410.58
585.94	30375.47
586.10	30487.82
586.26	30412.92
586.42	30387.18
586.58	30782.73
586.74	30448.03
586.90	30403.56
587.06	30677.40
587.22	30672.72
587.38	30389.52
587.54	30654.00
587.70	30581.44
587.86	30487.82
588.02	30890.39
588.18	31211.04
588.34	30548.67
588.49	30719.53
588.65	30831.88
588.81	30597.82
588.97	30848.26
589.13	30719.53
589.29	30782.73
589.45	30464.41
589.61	30902.09
589.77	30955.93
589.93	31152.53
590.08	31435.74
590.24	30670.38
590.40	31229.77
590.56	30698.47
590.72	30698.47
590.88	30724.21
591.04	30656.34
591.20	30993.37
591.35	31182.96
591.51	31335.09
591.67	30930.18
591.83	31227.43
591.99	31129.12
592.15	31009.76
592.31	30843.58
592.46	30759.32
592.62	30871.67
592.78	30782.73
592.94	30333.34
593.10	31110.40
593.26	30827.20
593.41	31103.38
593.57	31264.88
593.73	31040.18
593.89	30916.14
594.05	31194.66
594.20	30586.12
594.36	30951.24
594.52	30991.03
594.68	30644.63
594.84	30852.94
594.99	31054.23
595.15	30806.13
595.31	30979.33
595.47	31136.15
595.62	31082.31
595.78	30920.82
595.94	30782.73
596.10	31164.23
596.25	31182.96
596.41	31150.19
596.57	31175.94
596.73	30815.49
596.88	30953.58
597.04	30785.07
597.20	31412.33
597.36	31323.39
597.51	31470.84
597.67	31117.42
597.83	30969.97
597.99	31002.74
598.14	31112.74
598.30	31005.08
598.46	31091.68
598.61	31211.04
598.77	30759.32
598.93	31119.76
599.09	30974.65
599.24	31847.67
599.40	31435.74
599.56	31431.05
599.71	31239.13
599.87	31056.57
600.03	31351.48
600.18	31122.10
600.34	30616.55
600.50	31208.70
600.65	31232.11
600.81	31316.37
600.97	31276.58
601.12	31178.28
601.28	31482.55
601.44	31730.64
601.59	31585.53
601.75	31152.53
601.91	30991.03
602.06	31145.51
602.22	31157.21
602.37	30841.24
602.53	31393.61
602.69	31445.10
602.84	31388.92
603.00	31129.12
603.16	31260.20
603.31	31325.73
603.47	31295.30
603.62	30958.27
603.78	31288.28
603.94	30705.49
604.09	31274.24
604.25	31002.74
604.40	31335.09
604.56	31157.21
604.71	31072.95
604.87	31248.49
605.03	31496.59
605.18	30941.88
605.34	31592.55
605.49	31208.70
605.65	31360.84
605.80	30974.65
605.96	31103.38
606.12	31388.92
606.27	31346.79
606.43	31072.95
606.58	31070.61
606.74	31367.86
606.89	31585.53
607.05	31428.71
607.20	31115.08
607.36	31386.58
607.51	31325.73
607.67	30670.38
607.82	30630.59
607.98	31400.63
608.13	30848.26
608.29	31267.22
608.44	31122.10
608.60	30766.34
608.75	30796.77
608.91	31276.58
609.06	31180.62
609.22	31138.49
609.37	31110.40
609.53	30906.77
609.68	31084.65
609.84	31012.10
609.99	31159.55
610.15	30902.09
610.30	30888.05
610.46	30899.75
610.61	31267.22
610.76	31037.84
610.92	31201.68
611.07	30787.41
611.23	30890.39
611.38	30675.06
611.54	30874.01
611.69	30398.88
611.84	30586.12
612.00	30321.64
612.15	30806.13
612.31	30684.42
612.46	30642.29
612.62	30906.77
612.77	30768.68
612.92	30803.79
613.08	30555.69
613.23	30831.88
613.39	30625.91
613.54	30321.64
613.69	30686.76
613.85	30576.76
614.00	30600.16
614.15	30412.92
614.31	30548.67
614.46	30799.11
614.62	30890.39
614.77	31012.10
614.92	30714.85
615.08	30316.96
615.23	30864.64
615.38	30335.68
615.54	30279.51
615.69	30403.56
615.84	30260.79
616.00	30469.09
616.15	30398.88
616.30	30574.42
616.46	30300.58
616.61	30293.55
616.76	30742.94
616.92	30211.64
617.07	30438.67
617.22	30401.22
617.37	30110.99
617.53	30405.90
617.68	30251.42
617.83	30284.19
617.99	30129.72
618.14	30438.67
618.29	30223.34
618.45	30382.49
618.60	30244.40
618.75	30221.00
618.90	30403.56
619.06	30455.05
619.21	30118.01
619.36	29677.99
619.51	30066.52
619.67	29593.73
619.82	29762.25
619.97	29858.21
620.12	29898.00
620.28	29769.27
620.43	30176.53
620.58	30426.96
620.73	30438.67
620.89	30228.02
621.04	30263.13
621.19	29790.34
621.34	29914.39
621.49	29677.99
621.65	29635.86
621.80	29956.52
621.95	29802.04
622.10	29806.72
622.25	30103.97
622.41	29802.04
622.56	29752.89
622.71	30223.34
622.86	30153.12
623.01	29771.61
623.16	29551.60
623.32	29418.19
623.47	29584.37
623.62	29743.53
623.77	29518.84
623.92	29586.71
624.07	29406.49
624.23	29275.42
624.38	29521.18
624.53	29514.16
624.68	29340.96
624.83	29961.20
624.98	29663.95
625.13	29511.81
625.29	29825.45
625.44	29790.34
625.59	29252.02
625.74	29109.24
625.89	29184.14
626.04	29273.08
626.19	29015.62
626.34	29333.93
626.49	29228.61
626.65	29191.16
626.80	29511.81
626.95	29582.03
627.10	29149.03
627.25	29095.20
627.40	28961.79
627.55	29125.63
627.70	28950.09
627.85	29156.05
628.00	29146.69
628.15	29532.88
628.30	28957.11
628.45	29010.94
628.60	28699.65
628.76	29268.40
628.91	28973.49
629.06	29144.35
629.21	29504.79
629.36	29280.10
629.51	29039.03
629.66	28900.94
629.81	28477.30
629.96	28844.76
630.11	28800.29
630.26	28662.20
630.41	28676.24
630.56	28355.59
630.71	28751.14
630.86	28816.68
631.01	28994.56
631.16	28776.89
631.31	28767.52
631.46	28231.54
631.61	28947.75
631.76	28360.27
631.91	28252.61
632.06	28800.29
632.21	28622.41
632.36	28568.58
632.51	28208.14
632.66	28559.22
632.81	28393.04
632.96	28552.20
633.10	28168.35
633.25	28905.62
633.40	29188.82
633.55	28713.69
633.70	28418.78
633.85	28507.72
634.00	28379.00
634.15	28418.78
634.30	28161.33
634.45	28353.25
634.60	28393.04
634.75	28425.81
634.90	28341.55
635.05	28381.34
635.19	28524.11
635.34	28428.15
635.49	28442.19
635.64	28444.53
635.79	28184.73
635.94	28112.17
636.09	28360.27
636.24	28250.27
636.39	28123.88
636.53	28034.94
636.68	28404.74
636.83	28259.63
636.98	28009.19
637.13	28577.94
637.28	28437.51
637.43	28212.82
637.57	28371.97
637.72	27953.02
637.87	27946.00
638.02	27861.74
638.17	28233.88
638.32	27772.80
638.46	27646.41
638.61	27405.33
638.76	27529.38
638.91	27857.06
639.06	27861.74
639.20	28065.36
639.35	27983.44
639.50	27716.62
639.65	28212.82
639.80	28187.07
639.94	27772.80
640.09	27681.52
640.24	27611.30
640.39	27718.96
640.54	27688.54
640.68	27742.37
640.83	27796.20
640.98	27173.62
641.13	27400.65
641.27	27744.71
641.42	27569.17
641.57	28051.32
641.72	28170.69
641.86	27466.19
642.01	27412.35
642.16	27466.19
642.31	27637.05
642.45	27372.57
642.60	27304.69
642.75	27424.06
642.90	27065.96
643.04	27236.81
643.19	27285.97
643.34	27433.42
643.48	27250.86
643.63	27454.48
643.78	27325.75
643.93	27302.35
644.07	27536.40
644.22	27461.51
644.37	27154.90
644.51	27295.33
644.66	27136.17
644.81	27030.85
644.95	27009.78
645.10	27037.87
645.25	26885.73
645.39	27047.23
645.54	27395.97
645.69	27178.30
645.83	26881.05
645.98	26841.26
646.13	27222.77
646.27	27072.98
646.42	27194.68
646.57	27292.99
646.71	27199.37
646.86	26782.75
647.00	26820.20
647.15	26845.94
647.30	26707.85
647.44	26597.85
647.59	26955.95
647.74	26541.68
647.88	26920.84
648.03	26672.74
648.17	27112.77
648.32	27054.25
648.47	27105.74
648.61	26647.00
648.76	26979.36
648.90	26796.79
649.05	27091.70
649.20	26906.80
649.34	26785.09
649.49	26668.06
649.63	26401.24
649.78	26403.58
649.92	26579.12
650.07	26810.84
650.21	26471.46
650.36	26764.03
650.51	26335.71
650.65	26621.25
650.80	26565.08
650.94	26628.27
651.09	26321.66
651.23	26511.25
651.38	26700.83
651.52	26668.06
651.67	26436.35
651.81	26462.10
651.96	26008.03
652.10	26192.94
652.25	25935.48
652.39	26412.95
652.54	26518.27
652.68	26309.96
652.83	26668.06
652.97	26518.27
653.12	26277.19
653.26	25970.58
653.41	26572.10
653.55	25982.29
653.70	26260.81
653.84	26209.32
653.99	26286.56
654.13	26068.89
654.27	26045.48
654.42	25949.52
654.56	26129.74
654.71	26022.08
654.85	25876.96
655.00	26171.87
655.14	25942.50
655.29	25586.74
655.43	26103.99
655.57	26160.17
655.72	26089.95
655.86	26089.95
656.01	25823.13
656.15	25933.14
656.30	25752.91
656.44	25493.12
656.58	25589.08
656.73	25633.55
656.87	26066.55
657.01	25532.90
657.16	25680.36
657.30	26024.42
657.45	25488.43
657.59	25759.94
657.73	25495.46
657.88	25839.51
658.02	25233.32
658.16	25841.85
658.31	25338.64
658.45	25376.09
658.60	25411.20
658.74	25439.28
658.88	25249.70
659.03	25216.93
659.17	25509.50
659.31	25694.40
659.46	25483.75
659.60	25268.42
659.74	25577.37
659.89	25507.16
660.03	25472.05
660.17	25614.82
660.32	25074.16
660.46	25153.74
660.60	24882.24
660.74	25228.63
660.89	24975.86
661.03	24718.40
661.17	24999.26
661.32	25025.01
661.46	25116.29
661.60	24994.58
661.74	24922.02
661.89	25174.80
662.03	25205.23
662.17	24844.79
662.31	25010.96
662.46	25490.77
662.60	25013.31
662.74	24624.78
662.88	24563.92
663.03	24568.60
663.17	24812.02
663.31	24336.89
663.45	24224.54
663.60	24510.09
663.74	24142.63
663.88	24393.06
664.02	24350.93
664.17	24758.19
664.31	24486.68
664.45	24177.73
664.59	24489.03
664.73	24491.37
664.88	24173.05
665.02	24184.76
665.16	23948.36
665.30	24133.26
665.44	24009.22
665.59	23742.39
665.73	23775.16
665.87	24002.19
666.01	23903.89
666.15	23702.61
666.29	24159.01
666.44	24072.41
666.58	24020.92
666.72	23810.27
666.86	23953.04
667.00	23798.57
667.14	23555.15
667.28	23714.31
667.43	23550.47
667.57	23807.93
667.71	23414.72
667.85	23559.83
667.99	23379.61
668.13	23489.62
668.27	23810.27
668.41	23864.10
668.56	23260.24
668.70	23669.84
668.84	23356.21
668.98	23112.79
669.12	23379.61
669.26	23168.96
669.40	23468.55
669.54	23117.47
669.68	23283.65
669.82	23077.68
669.96	22920.87
670.10	22520.63
670.25	23108.11
670.39	22677.45
670.53	23009.81
670.67	23007.47
670.81	22663.41
670.95	22710.22
671.09	23133.86
671.23	22717.24
671.37	22754.69
671.51	22518.29
671.65	22604.89
671.79	22539.36
671.93	22478.50
672.07	22530.00
672.21	22583.83
672.35	22122.74
672.49	22036.14
672.63	22331.05
672.77	22052.53
672.91	22054.87
673.05	22054.87
673.19	22183.60
673.33	21846.56
673.47	22211.68
673.61	22317.01
673.75	22171.89
673.89	21898.05
674.03	21916.78
674.17	21968.27
674.31	22017.42
674.45	21748.26
674.59	21659.32
674.73	21806.77
674.87	21783.37
675.01	21558.67
675.15	21710.81
675.29	21516.54
675.43	21422.92
675.56	21371.43
675.70	21729.53
675.84	21551.65
675.98	20720.76
676.12	21579.74
676.26	21448.67
676.40	21228.66
676.54	21053.12
676.68	21055.46
676.82	20816.72
676.96	21076.52
677.10	20809.70
677.23	20884.60
677.37	20367.34
677.51	20973.54
677.65	20755.87
677.79	20512.46
677.93	20280.74
678.07	20706.72
678.21	20123.93
678.34	20262.02
678.48	20376.70
678.62	20107.54
678.76	20112.22
678.90	20280.74
679.04	20053.71
679.18	20435.22
679.31	19929.66
679.45	19990.52
679.59	19449.85
679.73	19929.66
679.87	19726.04
680.00	19524.75
680.14	19557.52
680.28	19641.78
680.42	19590.28
680.56	19433.47
680.70	19318.78
680.83	19473.26
680.97	19215.80
681.11	19531.77
681.25	19166.65
681.39	18970.04
681.52	19023.87
681.66	19236.86
681.80	18881.10
681.94	18838.97
682.07	18775.78
682.21	18644.71
682.35	18609.60
682.49	18593.22
682.62	18424.70
682.76	18412.99
682.90	18700.88
683.04	18508.96
683.17	18476.19
683.31	18450.44
683.45	18366.18
683.59	18310.01
683.72	18150.85
683.86	18192.98
684.00	17968.29
684.13	17944.89
684.27	17949.57
684.41	17886.37
684.55	17909.78
684.68	17759.98
684.82	17544.66
684.96	17547.00
685.09	17458.06
685.23	17694.45
685.37	17603.17
685.50	17455.72
685.64	17525.93
685.78	17624.23
685.91	17397.20
686.05	17324.65
686.19	17305.92
686.32	17273.15
686.46	17207.62
686.60	16999.31
686.73	17029.74
686.87	17362.09
687.01	16760.58
687.14	16910.37
687.28	16645.89
687.42	16678.66
687.55	16699.72
687.69	16372.05
687.82	16456.31
687.96	16622.48
688.10	16531.20
688.23	16442.26
688.37	16334.60
688.50	16556.95
688.64	16341.62
688.78	16297.15
688.91	16100.55
689.05	16053.73
689.18	16105.23
689.32	15681.59
689.46	15728.40
689.59	15751.81
689.73	16053.73
689.86	15878.19
690.00	15543.50
690.13	15754.15
690.27	15644.14
690.41	15602.01
690.54	15466.26
690.68	15234.55
690.81	15559.88
690.95	15641.80
691.08	15309.44
691.22	15529.45
691.35	15295.40
691.49	15169.01
691.62	15236.89
691.76	15096.46
691.89	14916.23
692.03	14759.42
692.16	14827.29
692.30	14595.58
692.43	14902.19
692.57	14370.89
692.70	14555.79
692.84	14553.45
692.97	14586.22
693.11	14368.55
693.24	14370.89
693.38	14251.52
693.51	14450.47
693.65	14413.02
693.78	14176.62
693.92	14258.54
694.05	14251.52
694.19	13947.25
694.32	13797.46
694.45	13893.42
694.59	13769.37
694.72	13722.56
694.86	13699.16
694.99	13563.40
695.13	13455.74
695.26	13603.19
695.39	13465.10
695.53	13549.36
695.66	13357.44
695.80	13521.27
695.93	13348.08
696.07	13434.68
696.20	13207.64
696.33	13287.22
696.47	13067.21
696.60	13088.28
696.73	12952.52
696.87	13104.66
697.00	13039.12
697.14	12545.27
697.27	12685.70
697.40	12737.20
697.54	12723.15
697.67	12765.28
697.80	12414.20
697.94	12510.16
698.07	12348.67
698.21	12219.94
698.34	12313.56
698.47	12425.90
698.61	12287.81
698.74	12140.36
698.87	12446.97
699.01	12180.15
699.14	12107.59
699.27	11946.09
699.40	12147.38
699.54	11985.88
699.67	11936.73
699.80	11716.72
699.94	11971.84
700.07	11824.39
700.20	11616.08
700.34	11602.04
700.47	11389.05
700.60	11552.88
700.73	11559.91
700.87	11714.38
701.00	11449.90
701.13	11316.49
701.26	11552.88
701.40	11452.24
701.53	11384.37
701.66	11183.08
701.79	11091.80
701.93	11272.02
702.06	10998.18
702.19	11052.01
702.32	10934.98
702.46	10850.72
702.59	10836.68
702.72	10560.50
702.85	10705.61
702.99	10654.12
703.12	10555.82
703.25	10595.61
703.38	10738.38
703.51	10832.00
703.65	10672.84
703.78	10506.66
703.91	10471.56
704.04	10375.59
704.17	10583.90
704.31	10319.42
704.44	10230.48
704.57	10169.63
704.70	9895.78
704.83	9923.87
704.96	9844.29
705.10	10125.16
705.23	9919.19
>>>>>End Processed Spectral Data<<<<<
