SpectraSuite Data File
++++++++++++++++++++++++++++++++++++
Date: Fri Oct 18 13:58:24 GMT-05:00 2013
User: bianchi
Dark Spectrum Present: No
Reference Spectrum Present: No
Number of Sampled Component Spectra: 1
Spectrometers: USB2+H05261
Integration Time (usec): 50000 (USB2+H05261)
Spectra Averaged: 1 (USB2+H05261)
Boxcar Smoothing: 0 (USB2+H05261)
Correct for Electrical Dark: No (USB2+H05261)
Strobe/Lamp Enabled: No (USB2+H05261)
Correct for Detector Non-linearity: No (USB2+H05261)
Correct for Stray Light: No (USB2+H05261)
Number of Pixels in Processed Spectrum: 2048
>>>>>Begin Processed Spectral Data<<<<<
365.73	0.00
365.92	0.00
366.12	0.00
366.32	0.00
366.52	0.00
366.72	0.00
366.91	0.00
367.11	0.00
367.31	0.00
367.51	0.00
367.70	0.00
367.90	0.00
368.10	0.00
368.30	0.00
368.49	0.00
368.69	0.00
368.89	0.00
369.09	0.00
369.28	0.00
369.48	0.00
369.68	0.00
369.87	0.00
370.07	0.00
370.27	0.00
370.47	0.00
370.66	65.54
370.86	102.98
371.06	147.45
371.25	117.03
371.45	114.69
371.65	121.71
371.84	156.82
372.04	203.63
372.24	147.45
372.44	121.71
372.63	184.90
372.83	184.90
373.03	252.78
373.22	184.90
373.42	299.59
373.62	210.65
373.81	182.56
374.01	250.44
374.21	156.82
374.40	248.10
374.60	271.50
374.79	215.33
374.99	294.91
375.19	304.27
375.38	243.42
375.58	229.37
375.78	334.70
375.97	269.16
376.17	304.27
376.37	264.48
376.56	290.23
376.76	264.48
376.95	241.08
377.15	266.82
377.35	290.23
377.54	217.67
377.74	194.26
377.93	245.76
378.13	299.59
378.33	292.57
378.52	238.73
378.72	306.61
378.91	259.80
379.11	322.99
379.31	259.80
379.50	367.46
379.70	297.25
379.89	341.72
380.09	297.25
380.28	325.33
380.48	327.68
380.68	313.63
380.87	313.63
381.07	355.76
381.26	360.44
381.46	468.11
381.65	287.89
381.85	304.27
382.04	294.91
382.24	367.46
382.43	355.76
382.63	358.10
382.83	369.80
383.02	472.79
383.22	404.91
383.41	395.55
383.61	294.91
383.80	308.95
384.00	369.80
384.19	341.72
384.39	430.66
384.58	411.93
384.78	355.76
384.97	376.83
385.17	330.02
385.36	325.33
385.56	400.23
385.75	294.91
385.95	341.72
386.14	404.91
386.34	386.19
386.53	365.12
386.72	372.15
386.92	463.43
387.11	421.30
387.31	346.40
387.50	372.15
387.70	355.76
387.89	461.09
388.09	433.00
388.28	418.96
388.48	442.36
388.67	376.83
388.86	521.94
389.06	512.58
389.25	514.92
389.45	475.13
389.64	519.60
389.84	524.28
390.03	503.22
390.22	496.19
390.42	484.49
390.61	461.09
390.81	444.70
391.00	477.47
391.19	503.22
391.39	461.09
391.58	552.37
391.78	440.02
391.97	461.09
392.16	589.82
392.36	496.19
392.55	547.69
392.75	547.69
392.94	568.75
393.13	507.90
393.33	456.40
393.52	631.94
393.71	671.73
393.91	512.58
394.10	561.73
394.29	578.11
394.49	559.39
394.68	559.39
394.88	571.09
395.07	627.26
395.26	571.09
395.46	601.52
395.65	622.58
395.84	629.60
396.04	645.99
396.23	631.94
396.42	620.24
396.62	676.41
396.81	620.24
397.00	667.05
397.19	645.99
397.39	688.12
397.58	669.39
397.77	613.22
397.97	704.50
398.16	655.35
398.35	622.58
398.55	685.78
398.74	751.31
398.93	615.56
399.12	709.18
399.32	662.37
399.51	662.37
399.70	627.26
399.90	720.88
400.09	755.99
400.28	765.36
400.47	748.97
400.67	753.65
400.86	760.67
401.05	753.65
401.24	842.59
401.44	891.74
401.63	861.32
401.82	851.96
402.01	828.55
402.21	781.74
402.40	791.10
402.59	870.68
402.78	816.85
402.97	873.02
403.17	863.66
403.36	807.48
403.55	870.68
403.74	802.80
403.93	891.74
404.13	880.04
404.32	851.96
404.51	873.02
404.70	959.62
404.89	863.66
405.09	957.28
405.28	990.05
405.47	926.85
405.66	915.15
405.85	1006.43
406.05	1011.11
406.24	1050.90
406.43	1027.50
406.62	1015.79
406.81	1083.67
407.00	1011.11
407.20	1048.56
407.39	1027.50
407.58	1088.35
407.77	1027.50
407.96	1083.67
408.15	1053.24
408.34	1046.22
408.54	1116.44
408.73	1062.60
408.92	1067.28
409.11	1188.99
409.30	1165.59
409.49	1172.61
409.68	1128.14
409.87	1097.71
410.07	1116.44
410.26	1233.46
410.45	1203.04
410.64	1226.44
410.83	1186.65
411.02	1172.61
411.21	1296.66
411.40	1266.23
411.59	1270.91
411.78	1313.04
411.98	1231.12
412.17	1301.34
412.36	1313.04
412.55	1287.29
412.74	1376.24
412.93	1331.76
413.12	1306.02
413.31	1392.62
413.50	1378.58
413.69	1406.66
413.88	1523.69
414.07	1409.00
414.26	1446.45
414.45	1523.69
414.64	1516.67
414.83	1500.28
415.02	1523.69
415.22	1486.24
415.41	1549.43
415.60	1551.78
415.79	1507.30
415.98	1584.54
416.17	1582.20
416.36	1507.30
416.55	1593.90
416.74	1687.53
416.93	1619.65
417.12	1659.44
417.31	1682.85
417.50	1696.89
417.69	1652.42
417.88	1746.04
418.07	1687.53
418.26	1809.23
418.45	1832.64
418.64	1724.97
418.83	1771.79
419.02	1748.38
419.21	1823.28
419.39	1767.10
419.58	1774.13
419.77	1778.81
419.96	1856.04
420.15	1944.99
420.34	1905.20
420.53	1863.07
420.72	1853.70
420.91	1977.75
421.10	1956.69
421.29	1975.41
421.48	1856.04
421.67	1944.99
421.86	1970.73
422.05	2022.22
422.24	2003.50
422.43	1980.09
422.61	1982.43
422.80	2010.52
422.99	1954.35
423.18	1963.71
423.37	2160.31
423.56	2132.23
423.75	2064.35
423.94	1952.01
424.13	1942.64
424.32	1827.96
424.50	2127.55
424.69	2064.35
424.88	1998.82
425.07	2010.52
425.26	1942.64
425.45	2043.29
425.64	1996.48
425.83	2097.12
426.01	2040.95
426.20	2069.03
426.39	2017.54
426.58	1973.07
426.77	2057.33
426.96	2122.87
427.15	2076.06
427.33	2200.10
427.52	2085.42
427.71	2038.61
427.90	2209.47
428.09	2188.40
428.28	2235.21
428.46	2143.93
428.65	2244.57
428.84	2232.87
429.03	2275.00
429.22	2054.99
429.40	2242.23
429.59	2132.23
429.78	2054.99
429.97	2211.81
430.16	2282.02
430.34	2380.32
430.53	2347.56
430.72	2427.14
430.91	2307.77
431.10	2258.62
431.28	2389.69
431.47	2392.03
431.66	2368.62
431.85	2448.20
432.03	2487.99
432.22	2478.63
432.41	2396.71
432.60	2466.92
432.79	2392.03
432.97	2420.11
433.16	2532.46
433.35	2450.54
433.54	2513.74
433.72	2513.74
433.91	2469.27
434.10	2565.23
434.28	2612.04
434.47	2523.10
434.66	2633.10
434.85	2642.46
435.03	2537.14
435.22	2546.50
435.41	2649.49
435.59	2712.68
435.78	2654.17
435.97	2530.12
436.16	2759.49
436.34	2541.82
436.53	2764.17
436.72	2747.79
436.90	2576.93
437.09	2726.72
437.28	2654.17
437.46	2712.68
437.65	2855.45
437.84	2710.34
438.02	2836.73
438.21	2839.07
438.40	2932.69
438.58	2850.77
438.77	2949.08
438.96	2846.09
439.14	2883.54
439.33	2881.20
439.52	3009.93
439.70	3000.57
439.89	3126.96
440.08	3101.21
440.26	3019.29
440.45	3021.63
440.63	3091.85
440.82	3220.58
441.01	3117.59
441.19	3030.99
441.38	3169.09
441.57	3178.45
441.75	3304.84
441.94	3318.88
442.12	3269.73
442.31	3318.88
442.50	3241.64
442.68	3323.56
442.87	3337.60
443.05	3403.14
443.24	3396.12
443.43	3414.84
443.61	3325.90
443.80	3541.23
443.98	3368.03
444.17	3276.75
444.35	3506.12
444.54	3536.55
444.73	3417.18
444.91	3454.63
445.10	3445.27
445.28	3370.37
445.47	3503.78
445.65	3452.29
445.84	3595.06
446.02	3496.76
446.21	3524.85
446.39	3361.01
446.58	3548.25
446.77	3522.51
446.95	3412.50
447.14	3513.14
447.32	3494.42
447.51	3501.44
447.69	3485.06
447.88	3585.70
448.06	3489.74
448.25	3524.85
448.43	3604.42
448.62	3536.55
448.80	3562.30
448.99	3665.28
449.17	3637.19
449.36	3709.75
449.54	3719.11
449.73	3695.71
449.91	3693.37
450.10	3782.31
450.28	3932.10
450.46	3742.52
450.65	3819.75
450.83	3824.44
451.02	3918.06
451.20	3861.88
451.39	3974.23
451.57	3768.26
451.76	3765.92
451.94	3838.48
452.13	3791.67
452.31	3861.88
452.49	3761.24
452.68	3873.59
452.86	3866.56
453.05	4065.51
453.23	4278.50
453.42	3997.64
453.60	3794.01
453.78	3913.38
453.97	3918.06
454.15	4044.45
454.34	3953.16
454.52	4049.13
454.70	3920.40
454.89	3833.80
455.07	3997.64
455.26	3911.04
455.44	4184.88
455.62	4065.51
455.81	3990.61
455.99	4262.12
456.17	4152.11
456.36	4058.49
456.54	4208.28
456.73	4196.58
456.91	4470.42
457.09	4329.99
457.28	4299.56
457.46	4227.01
457.64	4409.57
457.83	4297.22
458.01	4287.86
458.19	4409.57
458.38	4400.21
458.56	4397.87
458.74	4472.76
458.93	4395.53
459.11	4535.96
459.29	4517.23
459.48	4500.85
459.66	4386.16
459.84	4690.43
460.03	4676.39
460.21	4535.96
460.39	4610.86
460.57	4557.02
460.76	4564.04
460.94	4720.86
461.12	4664.69
461.31	4615.54
461.49	4631.92
461.67	4699.80
461.85	4823.84
462.04	4744.27
462.22	4891.72
462.40	4835.55
462.59	4830.87
462.77	4741.93
462.95	4807.46
463.13	4777.03
463.32	4826.18
463.50	4997.04
463.68	4964.28
463.86	4929.17
464.05	4765.33
464.23	4882.36
464.41	4833.21
464.59	4901.08
464.78	5158.54
464.96	4954.91
465.14	4957.25
465.32	4961.94
465.50	5104.71
465.69	5118.75
465.87	4950.23
466.05	5116.41
466.23	4954.91
466.41	5060.24
466.60	5109.39
466.78	5188.97
466.96	4861.29
467.14	5123.43
467.32	4917.47
467.51	5327.06
467.69	5167.90
467.87	5153.86
468.05	5167.90
468.23	5022.79
468.41	5097.69
468.60	5181.95
468.78	5212.37
468.96	5156.20
469.14	5245.14
469.32	5233.44
469.50	5078.96
469.69	5343.44
469.87	5540.05
470.05	5570.48
470.23	5385.57
470.41	5327.06
470.59	5504.94
470.77	5514.30
470.95	5582.18
471.14	5458.13
471.32	5476.85
471.50	5734.31
471.68	5511.96
471.86	5617.29
472.04	5640.69
472.22	5731.97
472.40	5680.48
472.58	5638.35
472.77	5692.18
472.95	5930.92
473.13	6195.40
473.31	5781.12
473.49	5764.74
473.67	5781.12
473.85	5954.32
474.03	6134.54
474.21	5940.28
474.39	6235.19
474.57	6090.07
474.75	6136.88
474.93	6195.40
475.12	6256.25
475.30	6218.80
475.48	6368.60
475.66	6403.71
475.84	6267.95
476.02	6333.49
476.20	6186.04
476.38	6459.88
476.56	6649.46
476.74	6651.80
476.92	6593.29
477.10	6506.69
477.28	6724.36
477.46	6527.75
477.64	6682.23
477.82	6876.49
478.00	6860.11
478.18	6991.18
478.36	6984.16
478.54	7084.80
478.72	7000.54
478.90	7185.44
479.08	7229.91
479.26	7286.09
479.44	7466.31
479.62	7208.85
479.80	7529.50
479.98	7545.89
480.16	7566.95
480.34	7695.68
480.52	7798.66
480.70	7791.64
480.88	7627.81
481.06	7660.57
481.24	7854.84
481.41	7854.84
481.59	7929.74
481.77	8175.49
481.95	7990.59
482.13	8257.41
482.31	8215.28
482.49	8128.68
482.67	8248.05
482.85	8388.48
483.03	8484.44
483.21	8662.32
483.39	8578.06
483.57	8772.33
483.74	8758.28
483.92	8699.77
484.10	8872.97
484.28	8847.22
484.46	9046.17
484.64	9039.15
484.82	9123.41
485.00	9146.81
485.18	9228.73
485.35	9717.90
485.53	9441.72
485.71	9631.30
485.89	9802.16
486.07	9472.15
486.25	9790.46
486.43	9598.54
486.61	9891.10
486.78	10038.56
486.96	10104.09
487.14	10015.15
487.32	10455.17
487.50	10347.51
487.68	10333.47
487.85	10640.08
488.03	10670.50
488.21	10642.42
488.39	10534.75
488.57	10736.04
488.75	10916.26
488.92	10895.19
489.10	11073.07
489.28	11140.95
489.46	11194.78
489.64	11091.80
489.81	11330.53
489.99	11452.24
490.17	11417.13
490.35	11477.99
490.53	11721.40
490.70	11901.62
490.88	11573.95
491.06	11754.17
491.24	11852.47
491.41	11845.45
491.59	12049.08
491.77	12039.72
491.95	12365.05
492.13	12177.81
492.30	12355.69
492.48	12491.44
492.66	12255.04
492.84	12287.81
493.01	12575.70
493.19	12662.30
493.37	12835.50
493.54	12945.50
493.72	12875.29
493.90	12936.14
494.08	12919.76
494.25	13142.11
494.43	13259.13
494.61	13427.65
494.79	13219.35
494.96	13453.40
495.14	13453.40
495.32	13518.93
495.49	13572.77
495.67	13720.22
495.85	13834.91
496.02	13734.26
496.20	14052.58
496.38	14019.81
496.55	14134.50
496.73	14326.42
496.91	14375.57
497.09	14340.46
497.26	14429.40
497.44	14118.11
497.62	14452.81
497.79	14501.96
497.97	14476.21
498.14	14890.49
498.32	14855.38
498.50	14724.31
498.67	15005.17
498.85	15016.88
499.03	15077.73
499.20	15187.74
499.38	15154.97
499.56	15169.01
499.73	15559.88
499.91	15353.91
500.08	15414.77
500.26	15154.97
500.44	15410.09
500.61	15845.43
500.79	15613.71
500.97	15529.45
501.14	15815.00
501.32	15941.39
501.49	15878.19
501.67	15932.03
501.84	16020.97
502.02	16280.77
502.20	16362.69
502.37	15955.43
502.55	16212.89
502.72	16283.11
502.90	16173.10
503.07	16255.02
503.25	16491.41
503.43	16367.37
503.60	16563.97
503.78	16540.57
503.95	16886.97
504.13	16666.95
504.30	16922.07
504.48	16879.94
504.65	16814.41
504.83	16886.97
505.01	17104.64
505.18	17085.91
505.36	17153.79
505.53	17034.42
505.71	17216.98
505.88	17137.40
506.06	17301.24
506.23	17221.66
506.41	17270.81
506.58	17715.51
506.76	17617.21
506.93	17612.53
507.11	17273.15
507.28	17511.89
507.46	17635.94
507.63	17902.76
507.81	18064.25
507.98	18085.32
508.16	18050.21
508.33	17886.37
508.50	17947.23
508.68	18066.60
508.85	18099.36
509.03	18511.30
509.20	18424.70
509.38	18471.51
509.55	18424.70
509.73	18436.40
509.90	18806.20
510.08	18375.55
510.25	18422.36
510.42	18733.65
510.60	19145.58
510.77	18633.00
510.95	19028.56
511.12	18703.22
511.30	18820.25
511.47	19246.23
511.64	18883.44
511.82	19332.82
511.99	19183.03
512.17	19058.98
512.34	18981.74
512.51	19468.58
512.69	19676.88
512.86	19250.91
513.04	19506.02
513.21	19587.94
513.38	19768.16
513.56	19541.13
513.73	19520.07
513.90	19962.43
514.08	19777.53
514.25	19857.10
514.43	19882.85
514.60	19683.91
514.77	19829.02
514.95	20152.01
515.12	19871.15
515.29	19924.98
515.47	20517.14
515.64	20327.55
515.81	20313.51
515.99	20226.91
516.16	20329.89
516.33	20350.96
516.51	20706.72
516.68	20334.57
516.85	20723.10
517.03	20395.43
517.20	20477.35
517.37	20746.51
517.54	20657.57
517.72	20725.44
517.89	20500.75
518.06	20823.75
518.24	20933.75
518.41	20575.65
518.58	20842.47
518.75	20908.01
518.93	20985.24
519.10	21205.25
519.27	21186.53
519.45	21039.08
519.62	21125.68
519.79	20966.52
519.96	20893.96
520.14	21165.46
520.31	21322.28
520.48	21558.67
520.65	21446.33
520.83	21654.64
521.00	21572.72
521.17	21568.04
521.34	21549.31
521.52	21783.37
521.69	21881.67
521.86	21919.12
522.03	21872.31
522.20	21884.01
522.38	21748.26
522.55	22071.25
522.72	21834.86
522.89	22001.04
523.07	22167.21
523.24	22448.08
523.41	22363.82
523.58	22258.49
523.75	22595.53
523.92	22258.49
524.10	22204.66
524.27	22494.89
524.44	22574.47
524.61	22569.79
524.78	22787.46
524.96	22712.56
525.13	22487.87
525.30	22668.09
525.47	22604.89
525.64	22810.86
525.81	22668.09
525.98	23061.30
526.16	22808.52
526.33	23058.96
526.50	22960.66
526.67	22883.42
526.84	22995.76
527.01	22672.77
527.18	23330.46
527.36	22843.63
527.53	23180.67
527.70	23264.92
527.87	23744.73
528.04	23304.71
528.21	23487.28
528.38	23262.58
528.55	23414.72
528.72	23253.22
528.89	23576.22
529.07	23690.90
529.24	23494.30
529.41	23913.25
529.58	23513.02
529.75	23608.98
529.92	23704.95
530.09	23721.33
530.26	23655.79
530.43	23796.23
530.60	23789.20
530.77	24016.24
530.94	24266.67
531.11	23889.85
531.28	24247.95
531.46	23929.64
531.63	23920.28
531.80	24144.97
531.97	24308.80
532.14	24376.68
532.31	24060.71
532.48	24350.93
532.65	24233.91
532.82	24163.69
532.99	24297.10
533.16	24301.78
533.33	24587.33
533.50	24776.91
533.67	24072.41
533.84	24638.82
534.01	24409.45
534.18	24613.07
534.35	24496.05
534.52	24594.35
534.69	24687.97
534.86	24797.98
535.03	24599.03
535.20	25219.27
535.37	24856.49
535.54	24947.77
535.71	24669.25
535.88	25104.59
536.05	24837.76
536.22	24893.94
536.38	25242.68
536.55	25025.01
536.72	25266.08
536.89	24800.32
537.06	25357.36
537.23	25163.10
537.40	25259.06
537.57	25174.80
537.74	25394.81
537.91	25717.81
538.08	25029.69
538.25	25006.28
538.42	25511.84
538.59	25429.92
538.75	25544.61
538.92	25355.02
539.09	25635.89
539.26	25610.14
539.43	25778.66
539.60	25968.24
539.77	25544.61
539.94	25528.22
540.11	25692.06
540.28	25429.92
540.44	25741.21
540.61	25645.25
540.78	25535.24
540.95	25783.34
541.12	25837.17
541.29	25989.31
541.46	26188.25
541.62	25986.97
541.79	26129.74
541.96	25963.56
542.13	25610.14
542.30	25919.09
542.47	26202.30
542.63	26094.63
542.80	26340.39
542.97	26639.98
543.14	26478.48
543.31	26445.71
543.48	26551.04
543.64	26824.88
543.81	26874.03
543.98	26878.71
544.15	26553.38
544.32	26609.55
544.48	26991.06
544.65	26649.34
544.82	26536.99
544.99	26316.98
545.16	26932.54
545.32	26569.76
545.49	26665.72
545.66	27335.12
545.83	27154.90
546.00	26735.94
546.16	26883.39
546.33	26986.38
546.50	26838.92
546.67	27225.11
546.83	26586.15
547.00	27044.89
547.17	26639.98
547.34	27264.90
547.50	27239.15
547.67	27510.66
547.84	27138.51
548.00	27360.86
548.17	27702.58
548.34	27257.88
548.51	27367.88
548.67	27473.21
548.84	27222.77
549.01	27281.28
549.18	27433.42
549.34	27431.08
549.51	27522.36
549.68	27342.14
549.84	27611.30
550.01	27145.53
550.18	27524.70
550.34	27761.09
550.51	27981.10
550.68	27828.97
550.84	27295.33
551.01	27592.58
551.18	27456.82
551.34	27239.15
551.51	27620.66
551.68	27791.52
551.84	27796.20
552.01	27894.50
552.18	28371.97
552.34	27782.16
552.51	28025.57
552.68	28140.26
552.84	28158.99
553.01	28048.98
553.18	28203.46
553.34	28130.90
553.51	27800.88
553.67	28430.49
553.84	28341.55
554.01	28388.36
554.17	28353.25
554.34	27901.53
554.51	28271.33
554.67	28032.60
554.84	28084.09
555.00	28393.04
555.17	28315.80
555.33	28236.22
555.50	28046.64
555.67	28301.76
555.83	28709.01
556.00	28577.94
556.16	28552.20
556.33	28173.03
556.50	28575.60
556.66	28734.76
556.83	28439.85
556.99	28816.68
557.16	28856.46
557.32	28423.47
557.49	28980.51
557.65	28531.13
557.82	28570.92
557.98	28367.29
558.15	28879.87
558.32	28512.41
558.48	28547.51
558.65	28851.78
558.81	29144.35
558.98	28844.76
559.14	28566.24
559.31	28568.58
559.47	28542.83
559.64	28966.47
559.80	28643.48
559.97	28884.55
560.13	28861.15
560.30	29156.05
560.46	29055.41
560.63	28975.83
560.79	29277.76
560.96	29273.08
561.12	28912.64
561.29	28982.85
561.45	29003.92
561.61	29151.37
561.78	28975.83
561.94	29027.32
562.11	29090.52
562.27	29357.34
562.44	28896.25
562.60	29244.99
562.77	28994.56
562.93	28961.79
563.10	29312.87
563.26	28973.49
563.42	29736.51
563.59	29324.57
563.75	28914.98
563.92	29518.84
564.08	29254.36
564.24	29694.38
564.41	29099.88
564.57	29034.35
564.74	29450.96
564.90	29322.23
565.07	29261.38
565.23	29624.16
565.39	29818.42
565.56	29177.12
565.72	29509.47
565.88	29621.82
566.05	28926.68
566.21	28978.17
566.38	29553.94
566.54	29582.03
566.70	29710.76
566.87	29680.33
567.03	29495.43
567.19	29582.03
567.36	29497.77
567.52	29553.94
567.68	29722.46
567.85	29453.30
568.01	29296.49
568.17	29235.63
568.34	29722.46
568.50	29586.71
568.66	29572.67
568.83	29949.50
568.99	29848.85
569.15	29474.37
569.32	29472.03
569.48	29216.91
569.64	29516.50
569.81	29656.93
569.97	29600.76
570.13	29949.50
570.30	29724.80
570.46	29827.79
570.62	29694.38
570.78	29600.76
570.95	29589.05
571.11	29305.85
571.27	29514.16
571.43	29909.71
571.60	29312.87
571.76	29584.37
571.92	29872.26
572.09	29600.76
572.25	29631.18
572.41	29661.61
572.57	29673.31
572.74	29846.51
572.90	29376.06
573.06	29830.13
573.22	29825.45
573.38	29935.45
573.55	29509.47
573.71	30043.12
573.87	30087.59
574.03	29909.71
574.20	30143.76
574.36	29462.66
574.52	29832.47
574.68	29881.62
574.84	29680.33
575.01	29795.02
575.17	30192.91
575.33	29909.71
575.49	29886.30
575.65	30092.27
575.82	30174.19
575.98	29937.79
576.14	29979.92
576.30	29509.47
576.46	30033.75
576.62	29738.85
576.79	29823.11
576.95	30050.14
577.11	30010.35
577.27	29759.91
577.43	30331.00
577.59	30089.93
577.75	30059.50
577.92	29465.00
578.08	29914.39
578.24	29647.57
578.40	30071.20
578.56	29965.88
578.72	30291.21
578.88	30167.16
579.04	30293.55
579.21	29841.83
579.37	30148.44
579.53	30225.68
579.69	29900.34
579.85	30359.09
580.01	30113.33
580.17	30000.99
580.33	29579.69
580.49	30059.50
580.65	30015.03
580.82	30110.99
580.98	30064.18
581.14	29947.15
581.30	29893.32
581.46	29617.14
581.62	30284.19
581.78	29860.55
581.94	30195.25
582.10	30176.53
582.26	30103.97
582.42	30043.12
582.58	29940.13
582.74	30113.33
582.90	30319.30
583.06	30270.15
583.22	30024.39
583.38	30176.53
583.54	30300.58
583.70	30204.61
583.86	30047.80
584.02	30157.80
584.18	30089.93
584.34	30146.10
584.50	30380.15
584.66	30216.32
584.82	30129.72
584.98	30110.99
585.14	29668.63
585.30	29734.17
585.46	30038.44
585.62	29841.83
585.78	30216.32
585.94	29802.04
586.10	30235.04
586.26	30272.49
586.42	29961.20
586.58	30185.89
586.74	29970.56
586.90	29912.05
587.06	30115.67
587.22	30185.89
587.38	29888.64
587.54	30654.00
587.70	30773.36
587.86	30426.96
588.02	30464.41
588.18	30422.28
588.34	30197.59
588.49	30258.45
588.65	30181.21
588.81	30305.26
588.97	30178.87
589.13	30183.55
589.29	30244.40
589.45	30513.56
589.61	30164.82
589.77	30426.96
589.93	30845.92
590.08	30712.51
590.24	30630.59
590.40	30382.49
590.56	30473.78
590.72	30288.87
590.88	30228.02
591.04	30307.60
591.20	30551.01
591.35	30410.58
591.51	30899.75
591.67	30597.82
591.83	31012.10
591.99	30679.74
592.15	30331.00
592.31	30534.63
592.46	30338.02
592.62	30321.64
592.78	30387.18
592.94	30719.53
593.10	30506.54
593.26	30424.62
593.41	30602.50
593.57	30677.40
593.73	30499.52
593.89	30852.94
594.05	30719.53
594.20	30565.06
594.36	30944.22
594.52	30354.41
594.68	30693.79
594.84	30471.43
594.99	31335.09
595.15	30611.87
595.31	30822.51
595.47	30742.94
595.62	30749.96
595.78	30792.09
595.94	30649.32
596.10	30543.99
596.25	30583.78
596.41	30363.77
596.57	30541.65
596.73	30829.54
596.88	30686.76
597.04	30920.82
597.20	30747.62
597.36	30541.65
597.51	30974.65
597.67	30881.03
597.83	30906.77
597.99	30628.25
598.14	30251.42
598.30	30742.94
598.46	30499.52
598.61	30471.43
598.77	30595.48
598.93	31140.83
599.09	30974.65
599.24	30885.71
599.40	30995.71
599.56	31058.91
599.71	30796.77
599.87	30902.09
600.03	30962.95
600.18	30562.72
600.34	30267.81
600.50	30445.69
600.65	30637.61
600.81	30808.47
600.97	30969.97
601.12	31201.68
601.28	31007.42
601.44	30775.70
601.59	31339.77
601.75	30494.84
601.91	31030.82
602.06	30553.35
602.22	30639.95
602.37	30768.68
602.53	31061.25
602.69	31356.16
602.84	30452.71
603.00	30951.24
603.16	31145.51
603.31	30972.31
603.47	30876.35
603.62	30787.41
603.78	30485.48
603.94	30639.95
604.09	30731.23
604.25	30649.32
604.40	30703.15
604.56	31042.53
604.71	31098.70
604.87	30703.15
605.03	30881.03
605.18	30871.67
605.34	30822.51
605.49	30749.96
605.65	30529.95
605.80	30380.15
605.96	30595.48
606.12	30712.51
606.27	30239.72
606.43	30443.35
606.58	30998.06
606.74	30859.96
606.89	30513.56
607.05	30684.42
607.20	30841.24
607.36	30543.99
607.51	30899.75
607.67	30462.07
607.82	30419.94
607.98	30536.97
608.13	30962.95
608.29	30717.19
608.44	30632.93
608.60	30700.81
608.75	30764.00
608.91	30789.75
609.06	30302.92
609.22	30515.90
609.37	30267.81
609.53	30246.74
609.68	30462.07
609.84	30534.63
609.99	30190.57
610.15	30281.85
610.30	30445.69
610.46	30639.95
610.61	30448.03
610.76	30958.27
610.92	30911.46
611.07	30742.94
611.23	30089.93
611.38	30015.03
611.54	30398.88
611.69	30223.34
611.84	30305.26
612.00	30003.33
612.15	30349.73
612.31	30251.42
612.46	30061.84
612.62	30319.30
612.77	30092.27
612.92	30536.97
613.08	30700.81
613.23	30127.38
613.39	30118.01
613.54	29907.37
613.69	30171.85
613.85	30125.04
614.00	30265.47
614.15	30319.30
614.31	30033.75
614.46	30333.34
614.62	30328.66
614.77	30003.33
614.92	29820.77
615.08	30466.75
615.23	29998.65
615.38	29958.86
615.54	30244.40
615.69	29954.18
615.84	29823.11
616.00	30118.01
616.15	29996.31
616.30	29874.60
616.46	30272.49
616.61	30026.73
616.76	30560.37
616.92	30146.10
617.07	29708.42
617.22	29764.59
617.37	29635.86
617.53	30199.93
617.68	29834.81
617.83	30024.39
617.99	29551.60
618.14	29825.45
618.29	30270.15
618.45	29848.85
618.60	29565.65
618.75	29820.77
618.90	29715.44
619.06	30019.71
619.21	29619.48
619.36	30155.46
619.51	29237.97
619.67	29448.62
619.82	29179.46
619.97	29546.92
620.12	29443.94
620.28	29467.34
620.43	29741.19
620.58	29729.48
620.73	29645.23
620.89	29656.93
621.04	29734.17
621.19	29907.37
621.34	29331.59
621.49	29656.93
621.65	29666.29
621.80	29347.98
621.95	29214.57
622.10	29233.29
622.25	29392.45
622.41	29184.14
622.56	29701.40
622.71	29703.74
622.86	29544.58
623.01	29488.41
623.16	29106.90
623.32	29090.52
623.47	29266.06
623.62	29261.38
623.77	29289.46
623.92	29207.55
624.07	29163.08
624.23	29247.33
624.38	29095.20
624.53	29301.17
624.68	29270.74
624.83	29371.38
624.98	29237.97
625.13	29020.30
625.29	29467.34
625.44	28950.09
625.59	29144.35
625.74	28809.65
625.89	28926.68
626.04	28889.23
626.19	28437.51
626.34	29142.01
626.49	28510.07
626.65	28751.14
626.80	29156.05
626.95	28666.88
627.10	29116.26
627.25	28737.10
627.40	29097.54
627.55	28542.83
627.70	28603.69
627.85	28519.43
628.00	28467.94
628.15	28589.64
628.30	28699.65
628.45	28603.69
628.60	28315.80
628.76	28678.58
628.91	28788.59
629.06	28545.17
629.21	28591.98
629.36	28652.84
629.51	28741.78
629.66	28599.01
629.81	28217.50
629.96	28517.09
630.11	28196.43
630.26	28404.74
630.41	28123.88
630.56	28128.56
630.71	28381.34
630.86	28802.63
631.01	28261.97
631.16	28315.80
631.31	28500.70
631.46	28346.23
631.61	28545.17
631.76	28474.96
631.91	28421.13
632.06	28044.30
632.21	28077.07
632.36	28175.37
632.51	28140.26
632.66	28102.81
632.81	28114.52
632.96	27889.82
633.10	28301.76
633.25	28039.62
633.40	28379.00
633.55	27948.34
633.70	27838.33
633.85	27957.70
634.00	27742.37
634.15	27821.95
634.30	27669.81
634.45	27950.68
634.60	27529.38
634.75	28245.58
634.90	27786.84
635.05	27864.08
635.19	27737.69
635.34	28133.24
635.49	28077.07
635.64	28517.09
635.79	27693.22
635.94	27697.90
636.09	27854.72
636.24	27601.94
636.39	27793.86
636.53	27817.27
636.68	27590.24
636.83	27606.62
636.98	27510.66
637.13	27634.71
637.28	27274.26
637.43	27676.83
637.57	27686.20
637.72	27594.92
637.87	27770.46
638.02	27468.53
638.17	27737.69
638.32	27330.44
638.46	27180.64
638.61	27800.88
638.76	27426.40
638.91	27562.15
639.06	27239.15
639.20	27330.44
639.35	27580.87
639.50	27737.69
639.65	27934.29
639.80	27857.06
639.94	27335.12
640.09	27529.38
640.24	27543.42
640.39	27391.29
640.54	27255.54
640.68	27122.13
640.83	27168.94
640.98	27360.86
641.13	26508.91
641.27	27398.31
641.42	27150.21
641.57	27026.17
641.72	26906.80
641.86	26967.65
642.01	26918.50
642.16	26878.71
642.31	27117.45
642.45	27264.90
642.60	26527.63
642.75	26923.18
642.90	26988.72
643.04	26831.90
643.19	26813.18
643.34	26724.24
643.48	26754.66
643.63	26911.48
643.78	26759.34
643.93	27056.59
644.07	26920.84
644.22	27068.30
644.37	26969.99
644.51	26551.04
644.66	26576.78
644.81	26867.01
644.95	26387.20
645.10	26782.75
645.25	26796.79
645.39	26508.91
645.54	26902.12
645.69	26663.38
645.83	26319.32
645.98	26565.08
646.13	26850.63
646.27	26682.11
646.42	26370.82
646.57	26731.26
646.71	26628.27
646.86	26258.47
647.00	26529.97
647.15	26565.08
647.30	26562.74
647.44	26441.03
647.59	26532.31
647.74	26422.31
647.88	26256.13
648.03	26522.95
648.17	26780.41
648.32	26560.40
648.47	26511.25
648.61	26312.30
648.76	26450.39
648.90	26073.57
649.05	26441.03
649.20	26101.65
649.34	26419.97
649.49	26230.38
649.63	26202.30
649.78	26277.19
649.92	26066.55
650.07	26309.96
650.21	26431.67
650.36	26338.05
650.51	26040.80
650.65	26071.23
650.80	26499.55
650.94	26499.55
651.09	25881.64
651.23	26178.89
651.38	26183.57
651.52	26061.87
651.67	25493.12
651.81	25731.85
651.96	25984.63
652.10	26141.44
652.25	26274.85
652.39	26146.12
652.54	25788.02
652.68	25907.39
652.83	25881.64
652.97	26122.72
653.12	25781.00
653.26	26218.68
653.41	26026.76
653.55	25476.73
653.70	25635.89
653.84	25696.74
653.99	25813.77
654.13	25504.82
654.27	25933.14
654.42	25984.63
654.56	25984.63
654.71	25891.01
654.85	25752.91
655.00	25474.39
655.14	25727.17
655.29	25521.20
655.43	25649.93
655.57	25544.61
655.72	25617.16
655.86	25619.50
656.01	25479.07
656.15	25156.08
656.30	25296.51
656.44	25195.87
656.58	25488.43
656.73	25443.96
656.87	25589.08
657.01	25420.56
657.16	25570.35
657.30	25624.18
657.45	25507.16
657.59	25539.93
657.73	25090.54
657.88	25467.37
658.02	25259.06
658.16	25085.86
658.31	25067.14
658.45	24872.87
658.60	24964.15
658.74	25151.40
658.88	25142.03
659.03	25078.84
659.17	24994.58
659.31	25135.01
659.46	25310.55
659.60	25139.69
659.74	25259.06
659.89	24685.63
660.03	25102.25
660.17	24900.96
660.32	24781.59
660.46	24748.82
660.60	24648.18
660.74	24594.35
660.89	24828.40
661.03	24397.74
661.17	24381.36
661.32	24552.22
661.46	24592.01
661.60	24994.58
661.74	24381.36
661.89	24664.57
662.03	24463.28
662.17	24577.97
662.31	24538.18
662.46	24758.19
662.60	24144.97
662.74	24013.90
662.88	24222.20
663.03	24313.48
663.17	24098.16
663.31	24079.43
663.45	23873.46
663.60	24154.33
663.74	24121.56
663.88	24046.66
664.02	23931.98
664.17	24372.00
664.31	24030.28
664.45	24161.35
664.59	23754.10
664.73	23920.28
664.88	23910.91
665.02	23571.54
665.16	23854.74
665.30	23943.68
665.44	23613.66
665.59	23484.94
665.73	23681.54
665.87	23508.34
666.01	23686.22
666.15	23789.20
666.29	23903.89
666.44	23281.31
666.58	23559.83
666.72	23154.92
666.86	23253.22
667.00	23475.57
667.14	23491.96
667.28	23449.83
667.43	23058.96
667.57	23463.87
667.71	23028.53
667.85	23194.71
667.99	23101.09
668.13	23124.49
668.27	23246.20
668.41	23068.32
668.56	23058.96
668.70	23161.94
668.84	23246.20
668.98	22916.19
669.12	22768.73
669.26	23026.19
669.40	22792.14
669.54	23098.75
669.68	22810.86
669.82	22647.02
669.96	22635.32
670.10	22504.25
670.25	22600.21
670.39	22361.48
670.53	22326.37
670.67	22281.90
670.81	22427.01
670.95	22333.39
671.09	22473.82
671.23	22408.29
671.37	22370.84
671.51	22286.58
671.65	22387.22
671.79	22185.94
671.93	21839.54
672.07	22047.85
672.21	21816.13
672.35	21591.44
672.49	21865.28
672.63	22153.17
672.77	21530.59
672.91	21748.26
673.05	22080.61
673.19	21940.18
673.33	21748.26
673.47	21647.61
673.61	21928.48
673.75	21858.26
673.89	21575.06
674.03	21675.70
674.17	21788.05
674.31	21472.07
674.45	21460.37
674.59	21553.99
674.73	21165.46
674.87	21263.77
675.01	21200.57
675.15	21474.42
675.29	20922.05
675.43	21284.83
675.56	21132.70
675.70	20959.50
675.84	20947.79
675.98	20592.03
676.12	21301.22
676.26	21233.34
676.40	21062.48
676.54	20809.70
676.68	20987.58
676.82	20191.80
676.96	20432.88
677.10	20425.86
677.23	20407.13
677.37	20170.74
677.51	20386.07
677.65	20482.03
677.79	20271.38
677.93	20322.87
678.07	20100.52
678.21	19880.51
678.34	19939.02
678.48	20170.74
678.62	19735.40
678.76	20140.31
678.90	19679.22
679.04	19623.05
679.18	19599.65
679.31	19440.49
679.45	19290.70
679.59	19356.23
679.73	19370.27
679.87	19026.21
680.00	19246.23
680.14	19140.90
680.28	19152.60
680.42	19286.01
680.56	19035.58
680.70	19243.88
680.83	18963.02
680.97	19103.45
681.11	19000.47
681.25	19119.84
681.39	18759.39
681.52	18649.39
681.66	18452.78
681.80	18457.46
681.94	18354.48
682.07	18614.28
682.21	18427.04
682.35	18373.21
682.49	18150.85
682.62	18190.64
682.76	18141.49
682.90	18073.62
683.04	18200.01
683.17	18017.44
683.31	18085.32
683.45	18328.74
683.59	18132.13
683.72	17928.50
683.86	18150.85
684.00	17888.71
684.13	17661.68
684.27	17633.60
684.41	17649.98
684.55	17312.94
684.68	17184.21
684.82	17446.35
684.96	17214.64
685.09	17422.95
685.23	17235.70
685.37	17380.82
685.50	17270.81
685.64	17371.46
685.78	17357.41
685.91	17422.95
686.05	17151.45
686.19	16889.31
686.32	17013.35
686.46	16802.71
686.60	16430.56
686.73	16772.28
686.87	16725.47
687.01	16287.79
687.14	16493.76
687.28	16306.51
687.42	16325.24
687.55	16402.47
687.69	16229.27
687.82	16051.39
687.96	16418.86
688.10	16074.80
688.23	16006.92
688.37	16266.72
688.50	16058.42
688.64	15932.03
688.78	16004.58
688.91	15929.69
689.05	16123.95
689.18	15789.25
689.32	15449.88
689.46	15417.11
689.59	15421.79
689.73	15309.44
689.86	15323.49
690.00	15379.66
690.13	15716.70
690.27	15374.98
690.41	15562.22
690.54	15028.58
690.68	15290.72
690.81	15332.85
690.95	15054.33
691.08	15033.26
691.22	15094.11
691.35	15082.41
691.49	15145.61
691.62	14897.51
691.76	14792.19
691.89	14675.16
692.03	14436.42
692.16	14504.30
692.30	14239.82
692.43	14462.17
692.57	14195.35
692.70	14317.06
692.84	14303.01
692.97	14338.12
693.11	14047.90
693.24	14209.39
693.38	13994.06
693.51	14111.09
693.65	13731.92
693.78	14003.43
693.92	14263.22
694.05	14033.85
694.19	13565.74
694.32	13642.98
694.45	13640.64
694.59	13624.26
694.72	13303.60
694.86	13263.82
694.99	13125.72
695.13	13235.73
695.26	13256.79
695.39	13252.11
695.53	13273.18
695.66	13277.86
695.80	13191.26
695.93	13268.50
696.07	13207.64
696.20	13149.13
696.33	13088.28
696.47	12865.92
696.60	12940.82
696.73	12868.27
696.87	12769.96
697.00	12711.45
697.14	12737.20
697.27	12599.10
697.40	12404.84
697.54	12503.14
697.67	12390.80
697.80	12308.88
697.94	12355.69
698.07	12287.81
698.21	12119.29
698.34	12343.99
698.47	12187.17
698.61	12299.52
698.74	12269.09
698.87	11915.67
699.01	12252.70
699.14	11896.94
699.27	11885.24
699.40	11896.94
699.54	11644.17
699.67	11613.74
699.80	11669.91
699.94	11405.43
700.07	11585.65
700.20	11487.35
700.34	11365.64
700.47	11353.94
700.60	11360.96
700.73	11426.50
700.87	11311.81
701.00	11456.92
701.13	11241.59
701.26	11087.12
701.40	11026.26
701.53	11110.52
701.66	11178.40
701.79	10736.04
701.93	10953.71
702.06	11082.44
702.19	10691.57
702.32	10623.69
702.46	10827.32
702.59	10553.48
702.72	10579.22
702.85	10487.94
702.99	10689.23
703.12	10469.22
703.25	10324.10
703.38	10321.76
703.51	10207.08
703.65	10331.12
703.78	10310.06
703.91	10188.35
704.04	10202.40
704.17	10167.29
704.31	10085.37
704.44	10040.90
704.57	9942.60
704.70	9753.01
704.83	9944.94
704.96	9996.43
705.10	9657.05
705.23	9699.18
>>>>>End Processed Spectral Data<<<<<
