SpectraSuite Data File
++++++++++++++++++++++++++++++++++++
Date: Fri Oct 18 13:58:38 GMT-05:00 2013
User: bianchi
Dark Spectrum Present: No
Reference Spectrum Present: No
Number of Sampled Component Spectra: 1
Spectrometers: USB2+H05261
Integration Time (usec): 50000 (USB2+H05261)
Spectra Averaged: 1 (USB2+H05261)
Boxcar Smoothing: 0 (USB2+H05261)
Correct for Electrical Dark: No (USB2+H05261)
Strobe/Lamp Enabled: No (USB2+H05261)
Correct for Detector Non-linearity: No (USB2+H05261)
Correct for Stray Light: No (USB2+H05261)
Number of Pixels in Processed Spectrum: 2048
>>>>>Begin Processed Spectral Data<<<<<
365.73	28.09
365.92	28.09
366.12	28.09
366.32	0.00
366.52	0.00
366.72	0.00
366.91	0.00
367.11	0.00
367.31	0.00
367.51	0.00
367.70	0.00
367.90	0.00
368.10	0.00
368.30	0.00
368.49	0.00
368.69	0.00
368.89	0.00
369.09	0.00
369.28	0.00
369.48	0.00
369.68	0.00
369.87	0.00
370.07	0.00
370.27	0.00
370.47	0.00
370.66	16.38
370.86	159.16
371.06	112.35
371.25	180.22
371.45	100.64
371.65	245.76
371.84	95.96
372.04	159.16
372.24	98.30
372.44	217.67
372.63	229.37
372.83	222.35
373.03	177.88
373.22	212.99
373.42	264.48
373.62	191.92
373.81	224.69
374.01	250.44
374.21	184.90
374.40	229.37
374.60	234.05
374.79	224.69
374.99	262.14
375.19	241.08
375.38	280.86
375.58	196.60
375.78	332.36
375.97	322.99
376.17	315.97
376.37	290.23
376.56	243.42
376.76	313.63
376.95	212.99
377.15	276.18
377.35	280.86
377.54	238.73
377.74	313.63
377.93	285.55
378.13	245.76
378.33	285.55
378.52	203.63
378.72	292.57
378.91	266.82
379.11	304.27
379.31	264.48
379.50	250.44
379.70	325.33
379.89	304.27
380.09	292.57
380.28	259.80
380.48	262.14
380.68	311.29
380.87	255.12
381.07	306.61
381.26	294.91
381.46	322.99
381.65	388.53
381.85	257.46
382.04	341.72
382.24	344.06
382.43	320.65
382.63	348.74
382.83	365.12
383.02	348.74
383.22	381.51
383.41	334.70
383.61	306.61
383.80	369.80
384.00	308.95
384.19	369.80
384.39	395.55
384.58	386.19
384.78	376.83
384.97	402.57
385.17	411.93
385.36	397.89
385.56	355.76
385.75	351.08
385.95	416.62
386.14	395.55
386.34	337.04
386.53	428.32
386.72	461.09
386.92	521.94
387.11	447.04
387.31	386.19
387.50	423.64
387.70	442.36
387.89	505.56
388.09	447.04
388.28	437.68
388.48	447.04
388.67	517.26
388.86	395.55
389.06	447.04
389.25	512.58
389.45	517.26
389.64	470.45
389.84	423.64
390.03	461.09
390.22	449.38
390.42	479.81
390.61	531.30
390.81	552.37
391.00	468.11
391.19	444.70
391.39	479.81
391.58	484.49
391.78	470.45
391.97	510.24
392.16	468.11
392.36	608.54
392.55	493.85
392.75	533.64
392.94	561.73
393.13	491.51
393.33	538.32
393.52	521.94
393.71	550.03
393.91	578.11
394.10	543.00
394.29	575.77
394.49	606.20
394.68	519.60
394.88	669.39
395.07	603.86
395.26	671.73
395.46	535.98
395.65	592.16
395.84	543.00
396.04	526.62
396.23	676.41
396.42	636.63
396.62	653.01
396.81	613.22
397.00	601.52
397.19	685.78
397.39	730.25
397.58	671.73
397.77	774.72
397.97	711.52
398.16	681.10
398.35	674.07
398.55	688.12
398.74	737.27
398.93	699.82
399.12	695.14
399.32	730.25
399.51	709.18
399.70	676.41
399.90	753.65
400.09	748.97
400.28	720.88
400.47	723.23
400.67	727.91
400.86	739.61
401.05	709.18
401.24	751.31
401.44	851.96
401.63	833.23
401.82	840.25
402.01	809.83
402.21	791.10
402.40	833.23
402.59	861.32
402.78	755.99
402.97	765.36
403.17	819.19
403.36	784.08
403.55	732.59
403.74	882.38
403.93	980.68
404.13	880.04
404.32	877.70
404.51	863.66
404.70	889.40
404.89	870.68
405.09	903.45
405.28	858.98
405.47	985.37
405.66	905.79
405.85	940.90
406.05	880.04
406.24	1018.13
406.43	971.32
406.62	1001.75
406.81	980.68
407.00	1008.77
407.20	1076.65
407.39	999.41
407.58	1069.62
407.77	1022.81
407.96	1109.41
408.15	1111.75
408.34	1018.13
408.54	1060.26
408.73	1071.97
408.92	1097.71
409.11	1144.52
409.30	1006.43
409.49	1095.37
409.68	1104.73
409.87	1219.42
410.07	1196.01
410.26	1188.99
410.45	1132.82
410.64	1184.31
410.83	1095.37
411.02	1137.50
411.21	1205.38
411.40	1254.53
411.59	1207.72
411.78	1289.64
411.98	1301.34
412.17	1261.55
412.36	1320.06
412.55	1299.00
412.74	1289.64
412.93	1301.34
413.12	1341.13
413.31	1425.39
413.50	1378.58
413.69	1364.53
413.88	1416.02
414.07	1348.15
414.26	1469.86
414.45	1511.99
414.64	1401.98
414.83	1474.54
415.02	1418.36
415.22	1568.16
415.41	1556.46
415.60	1479.22
415.79	1460.49
415.98	1490.92
416.17	1636.03
416.36	1696.89
416.55	1558.80
416.74	1692.21
416.93	1650.08
417.12	1734.34
417.31	1668.80
417.50	1652.42
417.69	1600.93
417.88	1727.32
418.07	1739.02
418.26	1724.97
418.45	1792.85
418.64	1785.83
418.83	1732.00
419.02	1802.21
419.21	1902.86
419.39	1781.15
419.58	1732.00
419.77	1755.40
419.96	1816.26
420.15	1837.32
420.34	1769.44
420.53	1834.98
420.72	1942.64
420.91	1926.26
421.10	1914.56
421.29	1949.67
421.48	1858.39
421.67	1933.28
421.86	1832.64
422.05	1952.01
422.24	1973.07
422.43	1961.37
422.61	1963.71
422.80	2015.20
422.99	2038.61
423.18	2010.52
423.37	2017.54
423.56	2026.90
423.75	1982.43
423.94	1865.41
424.13	1912.22
424.32	2010.52
424.50	2104.14
424.69	2113.50
424.88	2064.35
425.07	2026.90
425.26	1895.83
425.45	2062.01
425.64	2008.18
425.83	2073.71
426.01	2059.67
426.20	2015.20
426.39	2127.55
426.58	1963.71
426.77	1914.56
426.96	2129.89
427.15	2200.10
427.33	2120.53
427.52	2017.54
427.71	2087.76
427.90	2139.25
428.09	2097.12
428.28	2134.57
428.46	2115.84
428.65	2167.34
428.84	2207.13
429.03	2296.07
429.22	2104.14
429.40	2326.49
429.59	2167.34
429.78	2106.48
429.97	2160.31
430.16	2165.00
430.34	2265.64
430.53	2289.04
430.72	2317.13
430.91	2218.83
431.10	2289.04
431.28	2298.41
431.47	2277.34
431.66	2345.22
431.85	2296.07
432.03	2462.24
432.22	2495.01
432.41	2459.90
432.60	2443.52
432.79	2480.97
432.97	2478.63
433.16	2518.42
433.35	2448.20
433.54	2513.74
433.72	2441.18
433.91	2485.65
434.10	2509.05
434.28	2532.46
434.47	2476.29
434.66	2490.33
434.85	2586.29
435.03	2551.18
435.22	2525.44
435.41	2612.04
435.59	2513.74
435.78	2509.05
435.97	2609.70
436.16	2579.27
436.34	2602.68
436.53	2602.68
436.72	2696.30
436.90	2747.79
437.09	2656.51
437.28	2626.08
437.46	2672.89
437.65	2719.70
437.84	2705.66
438.02	2796.94
438.21	2677.57
438.40	2843.75
438.58	2888.22
438.77	2832.05
438.96	2928.01
439.14	2888.22
439.33	2991.20
439.52	3014.61
439.70	2998.23
439.89	3133.98
440.08	3080.14
440.26	3101.21
440.45	2890.56
440.63	3063.76
440.82	3047.38
441.01	3141.00
441.19	3199.51
441.38	3143.34
441.57	3166.74
441.75	3267.39
441.94	3131.64
442.12	3222.92
442.31	3346.97
442.50	3342.28
442.68	3183.13
442.87	3279.09
443.05	3276.75
443.24	3438.25
443.43	3307.18
443.61	3290.79
443.80	3431.23
443.98	3375.05
444.17	3178.45
444.35	3487.40
444.54	3435.91
444.73	3405.48
444.91	3368.03
445.10	3379.73
445.28	3276.75
445.47	3480.38
445.65	3379.73
445.84	3463.99
446.02	3515.48
446.21	3344.63
446.39	3520.17
446.58	3471.01
446.77	3496.76
446.95	3513.14
447.14	3529.53
447.32	3585.70
447.51	3571.66
447.69	3346.97
447.88	3506.12
448.06	3489.74
448.25	3599.74
448.43	3517.83
448.62	3627.83
448.80	3531.87
448.99	3658.26
449.17	3489.74
449.36	3471.01
449.54	3655.92
449.73	3672.30
449.91	3630.17
450.10	3562.30
450.28	3901.67
450.46	3679.32
450.65	3772.94
450.83	3726.13
451.02	3684.00
451.20	3609.11
451.39	3789.33
451.57	3693.37
451.76	3768.26
451.94	3681.66
452.13	3770.60
452.31	3880.61
452.49	3817.41
452.68	3845.50
452.86	3691.02
453.05	3859.54
453.23	3936.78
453.42	3829.12
453.60	3744.86
453.78	3960.19
453.97	3723.79
454.15	3932.10
454.34	3819.75
454.52	3880.61
454.70	3922.74
454.89	4021.04
455.07	3960.19
455.26	4004.66
455.44	4105.30
455.62	3974.23
455.81	4046.79
455.99	4107.64
456.17	4133.39
456.36	4079.55
456.54	4079.55
456.73	4205.94
456.91	4255.09
457.09	4477.44
457.28	4306.59
457.46	4372.12
457.64	4283.18
457.83	4344.03
458.01	4449.36
458.19	4404.89
458.38	4156.79
458.56	4397.87
458.74	4290.20
458.93	4411.91
459.11	4524.26
459.29	4252.75
459.48	4482.13
459.66	4486.81
459.84	4414.25
460.03	4629.58
460.21	4678.73
460.39	4428.29
460.57	4468.08
460.76	4524.26
460.94	4454.04
461.12	4465.74
461.31	4449.36
461.49	4535.96
461.67	4458.72
461.85	4805.12
462.04	4660.01
462.22	4770.01
462.40	4641.28
462.59	4578.09
462.77	4816.82
462.95	4683.41
463.13	4800.44
463.32	4851.93
463.50	4847.25
463.68	4840.23
463.86	4891.72
464.05	4781.71
464.23	4865.97
464.41	4826.18
464.59	4758.31
464.78	4868.31
464.96	4870.65
465.14	4781.71
465.32	4915.12
465.50	4994.70
465.69	4847.25
465.87	5039.17
466.05	4919.81
466.23	4961.94
466.41	5029.81
466.60	5139.82
466.78	4959.60
466.96	5034.49
467.14	5125.77
467.32	5118.75
467.51	5172.58
467.69	4751.29
467.87	5153.86
468.05	5109.39
468.23	4964.28
468.41	4931.51
468.60	5097.69
468.78	5195.99
468.96	5132.79
469.14	5203.01
469.32	5310.68
469.50	5118.75
469.69	5284.93
469.87	5359.83
470.05	5474.51
470.23	5392.59
470.41	5394.93
470.59	5530.69
470.77	5357.49
470.95	5652.39
471.14	5488.56
471.32	5483.88
471.50	5444.09
471.68	5504.94
471.86	5507.28
472.04	5598.56
472.22	5743.67
472.40	5722.61
472.58	5764.74
472.77	5804.53
472.95	5916.87
473.13	5996.45
473.31	5664.10
473.49	5827.93
473.67	5853.68
473.85	5905.17
474.03	6022.20
474.21	5998.79
474.39	6029.22
474.57	6050.28
474.75	6141.57
474.93	5949.64
475.12	5987.09
475.30	5994.11
475.48	6054.97
475.66	6188.38
475.84	6244.55
476.02	6307.74
476.20	6305.40
476.38	6333.49
476.56	6359.24
476.74	6628.40
476.92	6523.07
477.10	6537.12
477.28	6387.32
477.46	6644.78
477.64	6616.69
477.82	6782.87
478.00	6839.05
478.18	6860.11
478.36	6743.08
478.54	7080.12
478.72	6820.32
478.90	7054.37
479.08	7026.29
479.26	7073.10
479.44	7187.79
479.62	7276.73
479.80	7169.06
479.98	7227.57
480.16	7609.08
480.34	7417.16
480.52	7581.00
480.70	7581.00
480.88	7573.97
481.06	7744.83
481.24	7470.99
481.41	7691.00
481.59	7826.75
481.77	7995.27
481.95	7798.66
482.13	7950.80
482.31	8210.60
482.49	8049.10
482.67	8095.91
482.85	8278.47
483.03	8461.04
483.21	8301.88
483.39	8351.03
483.57	8521.89
483.74	8526.57
483.92	8613.17
484.10	8503.17
484.28	9135.11
484.46	8940.85
484.64	9123.41
484.82	9114.05
485.00	8933.82
485.18	9102.34
485.35	9336.40
485.53	9193.62
485.71	9406.61
485.89	9617.26
486.07	9441.72
486.25	9432.36
486.43	9509.60
486.61	9495.55
486.78	9715.56
486.96	9970.68
487.14	9848.97
487.32	9921.53
487.50	9954.30
487.68	10298.36
487.85	10153.24
488.03	10345.17
488.21	10420.06
488.39	10520.71
488.57	10555.82
488.75	10738.38
488.92	10738.38
489.10	10848.38
489.28	10806.25
489.46	11047.33
489.64	10864.77
489.81	11190.10
489.99	11386.71
490.17	11300.11
490.35	11293.08
490.53	11447.56
490.70	11552.88
490.88	11433.52
491.06	11719.06
491.24	11747.15
491.41	11672.25
491.59	11777.58
491.77	11824.39
491.95	11946.09
492.13	12334.62
492.30	12114.61
492.48	12290.15
492.66	12311.22
492.84	12437.61
493.01	12688.04
493.19	12482.08
493.37	12758.26
493.54	12566.34
493.72	12741.88
493.90	12659.96
494.08	12868.27
494.25	12901.03
494.43	12924.44
494.61	13158.49
494.79	13338.71
494.96	13341.05
495.14	13371.48
495.32	13319.99
495.49	13549.36
495.67	13214.66
495.85	13722.56
496.02	13514.25
496.20	13888.74
496.38	13764.69
496.55	14024.49
496.73	14260.88
496.91	14136.84
497.09	14267.91
497.26	14506.64
497.44	14024.49
497.62	14310.04
497.79	14609.62
497.97	14455.15
498.14	14534.73
498.32	14672.82
498.50	14654.09
498.67	14759.42
498.85	14871.76
499.03	14871.76
499.20	14888.15
499.38	14476.21
499.56	14981.77
499.73	15098.80
499.91	15152.63
500.08	15283.70
500.26	15049.64
500.44	15562.22
500.61	15187.74
500.79	15564.56
500.97	15440.51
501.14	15967.13
501.32	15463.92
501.49	15592.65
501.67	15730.74
501.84	15733.08
502.02	15903.94
502.20	15929.69
502.37	16175.44
502.55	15946.07
502.72	16269.06
502.90	16081.82
503.07	16189.49
503.25	16023.31
503.43	16409.50
503.60	16482.05
503.78	16137.99
503.95	16376.73
504.13	16650.57
504.30	16477.37
504.48	16369.71
504.65	16606.10
504.83	16931.44
505.01	16882.28
505.18	16730.15
505.36	16734.83
505.53	16713.77
505.71	17195.92
505.88	16971.22
506.06	16861.22
506.23	17216.98
506.41	17095.27
506.58	17076.55
506.76	17336.35
506.93	17291.88
507.11	17404.22
507.28	17305.92
507.46	17514.23
507.63	17504.87
507.81	17678.07
507.98	17319.96
508.16	17259.11
508.33	17781.05
508.50	17530.61
508.68	18115.75
508.85	18068.94
509.03	17790.41
509.20	18094.68
509.38	18125.11
509.55	18197.67
509.73	18228.09
509.90	18485.55
510.08	18429.38
510.25	18328.74
510.42	18441.08
510.60	18513.64
510.77	18597.90
510.95	18703.22
511.12	18466.83
511.30	18668.11
511.47	18675.13
511.64	18647.05
511.82	19096.43
511.99	18712.58
512.17	19365.59
512.34	18930.25
512.51	19103.45
512.69	19164.31
512.86	19222.82
513.04	19183.03
513.21	19356.23
513.38	19494.32
513.56	19800.93
513.73	19227.50
513.90	19400.70
514.08	19662.84
514.25	19477.94
514.43	19459.21
514.60	19665.18
514.77	19667.52
514.95	19594.96
515.12	19599.65
515.29	19681.56
515.47	19819.66
515.64	19929.66
515.81	19487.30
515.99	19845.40
516.16	20376.70
516.33	20290.10
516.51	20297.13
516.68	20107.54
516.85	20152.01
517.03	20285.42
517.20	20201.16
517.37	20432.88
517.54	20203.50
517.72	20542.88
517.89	20435.22
518.06	20435.22
518.24	20549.90
518.41	20437.56
518.58	20943.11
518.75	20760.55
518.93	20533.52
519.10	20849.49
519.27	20755.87
519.45	20659.91
519.62	20854.17
519.79	20814.38
519.96	21102.27
520.14	21172.49
520.31	21172.49
520.48	21219.30
520.65	21249.72
520.83	21193.55
521.00	21275.47
521.17	21308.24
521.34	21090.57
521.52	21455.69
521.69	21397.18
521.86	21862.94
522.03	21638.25
522.20	21603.14
522.38	21785.71
522.55	21710.81
522.72	21617.19
522.89	21600.80
523.07	21881.67
523.24	21717.83
523.41	22054.87
523.58	21879.33
523.75	22022.10
523.92	21628.89
524.10	22024.44
524.27	22017.42
524.44	22122.74
524.61	22546.38
524.78	22342.75
524.96	22115.72
525.13	22431.69
525.30	22199.98
525.47	22532.34
525.64	22518.29
525.81	22361.48
525.98	22405.95
526.16	22721.92
526.33	22551.06
526.50	22609.58
526.67	22754.69
526.84	22799.16
527.01	22520.63
527.18	22981.72
527.36	22930.23
527.53	22878.74
527.70	22965.34
527.87	23044.91
528.04	23087.04
528.21	22946.61
528.38	23138.54
528.55	23239.18
528.72	23040.23
528.89	23431.10
529.07	23297.69
529.24	23250.88
529.41	23159.60
529.58	23255.56
529.75	23225.14
529.92	23220.45
530.09	23145.56
530.26	23330.46
530.43	23620.69
530.60	23424.08
530.77	23367.91
530.94	23611.32
531.11	23744.73
531.28	23473.23
531.46	23798.57
531.63	23754.10
531.80	23740.05
531.97	23578.56
532.14	23648.77
532.31	23864.10
532.48	23751.76
532.65	24058.37
532.82	24116.88
532.99	24126.24
533.16	23777.50
533.33	24369.66
533.50	24360.30
533.67	24348.59
533.84	24196.46
534.01	24013.90
534.18	23908.57
534.35	24231.57
534.52	24161.35
534.69	24297.10
534.86	24863.51
535.03	24657.54
535.20	24435.19
535.37	24542.86
535.54	24467.96
535.71	24500.73
535.88	24240.93
536.05	24390.72
536.22	24940.75
536.38	24755.85
536.55	24418.81
536.72	25195.87
536.89	24973.52
537.06	24615.41
537.23	24805.00
537.40	24959.47
537.57	25090.54
537.74	25020.33
537.91	25104.59
538.08	24870.53
538.25	24982.88
538.42	24966.49
538.59	25223.95
538.75	25123.31
538.92	25177.14
539.09	25083.52
539.26	25226.29
539.43	25371.41
539.60	25254.38
539.77	25158.42
539.94	25364.39
540.11	25338.64
540.28	25057.78
540.44	25191.19
540.61	25369.07
540.78	25170.12
540.95	25598.44
541.12	25572.69
541.29	25359.70
541.46	25788.02
541.62	25488.43
541.79	25603.12
541.96	25659.29
542.13	25617.16
542.30	25654.61
542.47	26017.40
542.63	25883.98
542.80	26087.61
542.97	26391.88
543.14	26061.87
543.31	26050.16
543.48	26106.34
543.64	26136.76
543.81	26441.03
543.98	26551.04
544.15	26316.98
544.32	26185.91
544.48	26370.82
544.65	26469.12
544.82	26434.01
544.99	26066.55
545.16	26768.71
545.32	26256.13
545.49	26541.68
545.66	26583.80
545.83	26525.29
546.00	26703.17
546.16	26817.86
546.33	26424.65
546.50	26001.01
546.67	26518.27
546.83	26469.12
547.00	26529.97
547.17	26909.14
547.34	26576.78
547.50	26843.60
547.67	27021.48
547.84	26965.31
548.00	26618.91
548.17	26792.11
548.34	26822.54
548.51	27009.78
548.67	26822.54
548.84	26815.52
549.01	27030.85
549.18	26862.33
549.34	27049.57
549.51	26661.04
549.68	26948.93
549.84	26967.65
550.01	27042.55
550.18	27281.28
550.34	26923.18
550.51	27065.96
550.68	27421.72
550.84	27213.41
551.01	27342.14
551.18	27323.41
551.34	26878.71
551.51	27175.96
551.68	27379.59
551.84	27335.12
552.01	27468.53
552.18	27260.22
552.34	27513.00
552.51	27693.22
552.68	27072.98
552.84	27379.59
553.01	27620.66
553.18	27578.53
553.34	27578.53
553.51	27470.87
553.67	27608.96
553.84	28109.83
554.01	28098.13
554.17	27908.55
554.34	27859.40
554.51	27606.62
554.67	28004.51
554.84	27854.72
555.00	27704.92
555.17	27702.58
555.33	28051.32
555.50	27770.46
555.67	28039.62
555.83	27688.54
556.00	28308.78
556.16	28137.92
556.33	27805.56
556.50	27981.10
556.66	28100.47
556.83	27997.49
556.99	27967.06
557.16	28423.47
557.32	28121.54
557.49	28503.04
557.65	28032.60
557.82	28142.60
557.98	28093.45
558.15	28217.50
558.32	28229.20
558.48	28458.57
558.65	28379.00
558.81	28266.65
558.98	28521.77
559.14	28599.01
559.31	28414.10
559.47	28414.10
559.64	28533.47
559.80	28589.64
559.97	28540.49
560.13	28203.46
560.30	28547.51
560.46	28367.29
560.63	28505.38
560.79	28847.10
560.96	28811.99
561.12	28353.25
561.29	28353.25
561.45	28591.98
561.61	28737.10
561.78	28498.36
561.94	28718.37
562.11	29123.29
562.27	28596.67
562.44	28730.08
562.60	28547.51
562.77	28683.27
562.93	28542.83
563.10	29055.41
563.26	28889.23
563.42	29085.84
563.59	28807.31
563.75	28542.83
563.92	29102.22
564.08	28910.30
564.24	28989.88
564.41	28849.44
564.57	28636.45
564.74	29036.69
564.90	29170.10
565.07	28933.70
565.23	29275.42
565.39	28704.33
565.56	29385.43
565.72	28652.84
565.88	28914.98
566.05	28807.31
566.21	28893.91
566.38	29078.82
566.54	29057.75
566.70	29322.23
566.87	29153.71
567.03	29120.95
567.19	29418.19
567.36	29483.73
567.52	29443.94
567.68	29053.07
567.85	28985.19
568.01	28994.56
568.17	29022.64
568.34	29413.51
568.50	29259.04
568.66	28980.51
568.83	29036.69
568.99	28954.77
569.15	29039.03
569.32	29165.42
569.48	29209.89
569.64	29308.19
569.81	29130.31
569.97	29240.31
570.13	29441.60
570.30	29039.03
570.46	29181.80
570.62	29420.53
570.78	29177.12
570.95	29090.52
571.11	29476.71
571.27	28936.04
571.43	29191.16
571.60	29371.38
571.76	29563.31
571.92	29336.27
572.09	29350.32
572.25	28971.15
572.41	29252.02
572.57	29383.09
572.74	29575.01
572.90	29284.78
573.06	29104.56
573.22	29336.27
573.38	29280.10
573.55	29109.24
573.71	29567.99
573.87	29677.99
574.03	29237.97
574.20	29886.30
574.36	29237.97
574.52	29132.65
574.68	29317.55
574.84	29738.85
575.01	29692.04
575.17	29535.22
575.33	29406.49
575.49	29457.98
575.65	29542.24
575.82	29474.37
575.98	29635.86
576.14	29521.18
576.30	29280.10
576.46	29649.91
576.62	29465.00
576.79	29467.34
576.95	29397.13
577.11	29069.45
577.27	29209.89
577.43	29387.77
577.59	29612.46
577.75	29560.97
577.92	29181.80
578.08	29301.17
578.24	29336.27
578.40	29462.66
578.56	29448.62
578.72	29443.94
578.88	29479.05
579.04	29834.81
579.21	29413.51
579.37	29766.93
579.53	29947.15
579.69	29788.00
579.85	29390.11
580.01	29177.12
580.17	29277.76
580.33	29390.11
580.49	29275.42
580.65	29434.58
580.82	29888.64
580.98	29603.10
581.14	29769.27
581.30	29752.89
581.46	29345.64
581.62	29687.36
581.78	29397.13
581.94	29722.46
582.10	29677.99
582.26	29668.63
582.42	29848.85
582.58	29802.04
582.74	29617.14
582.90	29483.73
583.06	29706.08
583.22	29841.83
583.38	29689.70
583.54	29404.15
583.70	29432.24
583.86	29748.21
584.02	29406.49
584.18	30148.44
584.34	29832.47
584.50	29795.02
584.66	29663.95
584.82	29668.63
584.98	29738.85
585.14	29401.81
585.30	29586.71
585.46	29521.18
585.62	29701.40
585.78	29551.60
585.94	29369.04
586.10	30024.39
586.26	29766.93
586.42	30235.04
586.58	29685.01
586.74	29645.23
586.90	29694.38
587.06	29406.49
587.22	29682.67
587.38	29600.76
587.54	29942.47
587.70	29750.55
587.86	30066.52
588.02	29413.51
588.18	29806.72
588.34	30113.33
588.49	29535.22
588.65	30050.14
588.81	29851.19
588.97	29914.39
589.13	29453.30
589.29	29900.34
589.45	29563.31
589.61	29806.72
589.77	30139.08
589.93	29844.17
590.08	30354.41
590.24	30424.62
590.40	30284.19
590.56	30050.14
590.72	29855.87
590.88	29701.40
591.04	29717.78
591.20	29956.52
591.35	30333.34
591.51	30459.73
591.67	30164.82
591.83	30637.61
591.99	30167.16
592.15	30101.63
592.31	30071.20
592.46	29694.38
592.62	29888.64
592.78	29972.90
592.94	30096.95
593.10	29989.28
593.26	30291.21
593.41	30143.76
593.57	30366.11
593.73	30225.68
593.89	30157.80
594.05	30244.40
594.20	29820.77
594.36	30338.02
594.52	30078.22
594.68	30026.73
594.84	30127.38
594.99	30305.26
595.15	30103.97
595.31	30096.95
595.47	30455.05
595.62	30281.85
595.78	30099.29
595.94	29919.07
596.10	30164.82
596.25	30047.80
596.41	30139.08
596.57	29881.62
596.73	30398.88
596.88	29961.20
597.04	30064.18
597.20	30459.73
597.36	30347.39
597.51	30569.74
597.67	30075.88
597.83	30569.74
597.99	30235.04
598.14	30274.83
598.30	30087.59
598.46	30029.07
598.61	30574.42
598.77	30206.95
598.93	30398.88
599.09	30391.86
599.24	30775.70
599.40	30181.21
599.56	30471.43
599.71	30401.22
599.87	29968.22
600.03	30340.36
600.18	30078.22
600.34	30146.10
600.50	30235.04
600.65	30202.27
600.81	30560.37
600.97	30494.84
601.12	30323.98
601.28	30192.91
601.44	30338.02
601.59	30473.78
601.75	30410.58
601.91	30394.20
602.06	30101.63
602.22	30567.40
602.37	29970.56
602.53	30110.99
602.69	30429.30
602.84	30693.79
603.00	30558.03
603.16	30244.40
603.31	30394.20
603.47	30022.05
603.62	30410.58
603.78	30012.69
603.94	30031.41
604.09	30050.14
604.25	30089.93
604.40	30422.28
604.56	30218.66
604.71	30515.90
604.87	30340.36
605.03	30129.72
605.18	30370.79
605.34	30455.05
605.49	29923.75
605.65	30068.86
605.80	30115.67
605.96	30136.74
606.12	29940.13
606.27	30263.13
606.43	30258.45
606.58	30389.52
606.74	30195.25
606.89	30429.30
607.05	30438.67
607.20	30380.15
607.36	30497.18
607.51	30286.53
607.67	29965.88
607.82	29687.36
607.98	30054.82
608.13	30483.14
608.29	30087.59
608.44	29846.51
608.60	29986.94
608.75	30071.20
608.91	30312.28
609.06	30209.29
609.22	30176.53
609.37	29682.67
609.53	30078.22
609.68	29788.00
609.84	30176.53
609.99	29944.81
610.15	29848.85
610.30	29596.07
610.46	30141.42
610.61	30099.29
610.76	30380.15
610.92	30110.99
611.07	29923.75
611.23	29881.62
611.38	29825.45
611.54	30015.03
611.69	29570.33
611.84	29530.54
612.00	29893.32
612.15	29902.68
612.31	30347.39
612.46	29802.04
612.62	29930.77
612.77	29699.06
612.92	30096.95
613.08	29720.12
613.23	30110.99
613.39	29762.25
613.54	29411.17
613.69	29820.77
613.85	29659.27
614.00	29883.96
614.15	29954.18
614.31	29715.44
614.46	29535.22
614.62	29603.10
614.77	29755.23
614.92	29795.02
615.08	29336.27
615.23	29900.34
615.38	29518.84
615.54	29198.18
615.69	29362.02
615.84	29584.37
616.00	29010.94
616.15	29788.00
616.30	29729.48
616.46	29324.57
616.61	29319.89
616.76	29429.90
616.92	29069.45
617.07	29495.43
617.22	29439.26
617.37	29500.11
617.53	29144.35
617.68	29181.80
617.83	29507.13
617.99	29142.01
618.14	29357.34
618.29	29359.68
618.45	29490.75
618.60	29193.50
618.75	29315.21
618.90	29516.50
619.06	29254.36
619.21	29434.58
619.36	29230.95
619.51	29118.60
619.67	29156.05
619.82	28788.59
619.97	29352.66
620.12	28819.02
620.28	29326.91
620.43	29202.86
620.58	29420.53
620.73	29462.66
620.89	29216.91
621.04	29481.39
621.19	29137.33
621.34	29081.16
621.49	28779.23
621.65	29296.49
621.80	28940.72
621.95	28418.78
622.10	29053.07
622.25	28648.16
622.41	28840.08
622.56	28879.87
622.71	28807.31
622.86	28821.36
623.01	28872.85
623.16	28889.23
623.32	28591.98
623.47	29165.42
623.62	28521.77
623.77	28514.75
623.92	28926.68
624.07	28332.18
624.23	28577.94
624.38	28737.10
624.53	28481.98
624.68	28863.49
624.83	28936.04
624.98	29088.18
625.13	28416.44
625.29	28753.48
625.44	28961.79
625.59	28404.74
625.74	28706.67
625.89	27908.55
626.04	28327.50
626.19	28374.31
626.34	28404.74
626.49	28254.95
626.65	28334.53
626.80	28577.94
626.95	28308.78
627.10	28280.69
627.25	28521.77
627.40	28552.20
627.55	28025.57
627.70	28100.47
627.85	28177.71
628.00	27807.90
628.15	28229.20
628.30	28261.97
628.45	28320.48
628.60	28074.73
628.76	28304.10
628.91	28404.74
629.06	28067.70
629.21	28140.26
629.36	28336.87
629.51	28095.79
629.66	27864.08
629.81	28074.73
629.96	28442.19
630.11	28095.79
630.26	28156.64
630.41	28065.36
630.56	27693.22
630.71	27889.82
630.86	27960.04
631.01	27765.78
631.16	27988.13
631.31	27840.67
631.46	27777.48
631.61	28060.68
631.76	28243.24
631.91	27751.73
632.06	27667.47
632.21	27721.30
632.36	28023.23
632.51	27604.28
632.66	27938.97
632.81	27721.30
632.96	27903.87
633.10	27630.02
633.25	27847.69
633.40	27711.94
633.55	27873.44
633.70	27775.14
633.85	27419.38
634.00	27669.81
634.15	27620.66
634.30	27325.75
634.45	27470.87
634.60	27241.50
634.75	27765.78
634.90	27197.02
635.05	27344.48
635.19	27543.42
635.34	27573.85
635.49	27592.58
635.64	27683.86
635.79	27648.75
635.94	27573.85
636.09	27494.27
636.24	27292.99
636.39	27428.74
636.53	26862.33
636.68	27000.42
636.83	27098.72
636.98	27761.09
637.13	27042.55
637.28	26960.63
637.43	27475.55
637.57	27173.62
637.72	27115.11
637.87	27040.21
638.02	27360.86
638.17	26897.44
638.32	26721.90
638.46	26661.04
638.61	26740.62
638.76	26902.12
638.91	26927.86
639.06	27009.78
639.20	26649.34
639.35	26761.69
639.50	26787.43
639.65	27325.75
639.80	27131.49
639.94	26850.63
640.09	27157.24
640.24	26850.63
640.39	27049.57
640.54	26663.38
640.68	26862.33
640.83	26691.47
640.98	26946.59
641.13	26600.19
641.27	26850.63
641.42	26625.93
641.57	26829.56
641.72	26593.17
641.86	26476.14
642.01	26277.19
642.16	26771.05
642.31	26586.15
642.45	27070.64
642.60	26270.17
642.75	26134.42
642.90	26689.13
643.04	26483.16
643.19	26342.73
643.34	26293.58
643.48	26410.60
643.63	26483.16
643.78	26218.68
643.93	26588.49
644.07	26658.70
644.22	26834.24
644.37	26115.70
644.51	26492.52
644.66	26473.80
644.81	26115.70
644.95	26197.62
645.10	26111.02
645.25	26431.67
645.39	26621.25
645.54	26300.60
645.69	26277.19
645.83	26417.63
645.98	26211.66
646.13	26228.04
646.27	26209.32
646.42	26242.09
646.57	26003.35
646.71	26082.93
646.86	26167.19
647.00	26448.05
647.15	25977.61
647.30	26192.94
647.44	26015.05
647.59	26122.72
647.74	25991.65
647.88	25654.61
648.03	26235.06
648.17	26382.52
648.32	26221.02
648.47	25991.65
648.61	25680.36
648.76	26122.72
648.90	25750.57
649.05	25839.51
649.20	25766.96
649.34	25671.00
649.49	25495.46
649.63	25500.14
649.78	26033.78
649.92	25593.76
650.07	26120.38
650.21	25553.97
650.36	25645.25
650.51	25497.80
650.65	25617.16
650.80	25869.94
650.94	25675.68
651.09	25848.88
651.23	25415.88
651.38	25708.44
651.52	25511.84
651.67	25682.70
651.81	25235.66
651.96	25560.99
652.10	25493.12
652.25	25383.11
652.39	25823.13
652.54	25481.41
652.68	25282.47
652.83	25603.12
652.97	25898.03
653.12	25563.33
653.26	25247.36
653.41	25397.15
653.55	25481.41
653.70	25668.66
653.84	25486.09
653.99	25193.53
654.13	25469.71
654.27	25106.93
654.42	24900.96
654.56	25495.46
654.71	25146.72
654.85	25296.51
655.00	25472.05
655.14	25111.61
655.29	25352.68
655.43	25174.80
655.57	25106.93
655.72	24910.32
655.86	25174.80
656.01	25495.46
656.15	25017.99
656.30	25172.46
656.44	24978.20
656.58	24996.92
656.73	24753.51
656.87	24823.72
657.01	24760.53
657.16	25017.99
657.30	25146.72
657.45	24917.34
657.59	24985.22
657.73	24893.94
657.88	24875.21
658.02	24594.35
658.16	24966.49
658.31	24531.15
658.45	25034.37
658.60	24690.31
658.74	24552.22
658.88	24355.61
659.03	24451.58
659.17	24664.57
659.31	24613.07
659.46	24807.34
659.60	24622.44
659.74	24812.02
659.89	24444.56
660.03	24664.57
660.17	24577.97
660.32	24453.92
660.46	24063.05
660.60	24474.98
660.74	24428.17
660.89	24458.60
661.03	23894.53
661.17	24423.49
661.32	23953.04
661.46	24229.23
661.60	24091.13
661.74	24079.43
661.89	24198.80
662.03	24318.17
662.17	24261.99
662.31	24201.14
662.46	24313.48
662.60	24250.29
662.74	23637.07
662.88	23704.95
663.03	23655.79
663.17	24039.64
663.31	23616.01
663.45	24137.94
663.60	23901.55
663.74	23506.00
663.88	23601.96
664.02	23573.88
664.17	23824.31
664.31	23770.48
664.45	23564.51
664.59	23707.29
664.73	23314.08
664.88	23768.14
665.02	23285.99
665.16	23108.11
665.30	23232.16
665.44	23293.01
665.59	23021.51
665.73	23442.81
665.87	22923.21
666.01	23264.92
666.15	23061.30
666.29	23325.78
666.44	23103.43
666.58	23234.50
666.72	22967.68
666.86	23229.82
667.00	23440.47
667.14	23040.23
667.28	22902.14
667.43	22984.06
667.57	22637.66
667.71	22558.08
667.85	22803.84
667.99	22429.35
668.13	22721.92
668.27	22668.09
668.41	22539.36
668.56	22534.68
668.70	22623.62
668.84	22789.80
668.98	22448.08
669.12	22551.06
669.26	22359.14
669.40	22345.09
669.54	22375.52
669.68	22422.33
669.82	21940.18
669.96	22480.85
670.10	22094.66
670.25	22104.02
670.39	21991.67
670.53	21741.24
670.67	21886.35
670.81	22178.92
670.95	22438.72
671.09	22143.81
671.23	22469.14
671.37	21909.75
671.51	22127.42
671.65	22089.98
671.79	21802.09
671.93	22043.17
672.07	21600.80
672.21	21546.97
672.35	21530.59
672.49	21404.20
672.63	21579.74
672.77	21139.72
672.91	21495.48
673.05	21551.65
673.19	21612.51
673.33	21202.91
673.47	21301.22
673.61	21301.22
673.75	21151.42
673.89	21156.10
674.03	21160.78
674.17	21343.35
674.31	21223.98
674.45	21282.49
674.59	21273.13
674.73	20982.90
674.87	21149.08
675.01	20706.72
675.15	20865.88
675.29	20744.17
675.43	20711.40
675.56	20809.70
675.70	20922.05
675.84	20662.25
675.98	20245.63
676.12	20807.36
676.26	20779.28
676.40	20463.30
676.54	20184.78
676.68	20491.39
676.82	20194.14
676.96	20376.70
677.10	20093.50
677.23	19997.54
677.37	19974.13
677.51	20063.07
677.65	19894.55
677.79	19929.66
677.93	20027.96
678.07	19822.00
678.21	19440.49
678.34	19630.07
678.48	19707.31
678.62	19342.19
678.76	19442.83
678.90	19585.60
679.04	19531.77
679.18	19211.12
679.31	19103.45
679.45	19325.80
679.59	19094.09
679.73	19098.77
679.87	18892.80
680.00	18743.01
680.14	19012.17
680.28	18895.14
680.42	18834.29
680.56	18963.02
680.70	18569.81
680.83	18506.62
680.97	18581.51
681.11	18438.74
681.25	18464.49
681.39	18651.73
681.52	18698.54
681.66	18251.50
681.80	18298.31
681.94	18221.07
682.07	18387.25
682.21	17869.99
682.35	18005.74
682.49	17678.07
682.62	17898.08
682.76	17823.18
682.90	18279.58
683.04	17935.53
683.17	17844.24
683.31	17984.68
683.45	17769.35
683.59	17818.50
683.72	17586.79
683.86	17572.74
684.00	17439.33
684.13	17458.06
684.27	17448.69
684.41	17331.67
684.55	16971.22
684.68	17181.87
684.82	17071.87
684.96	17188.89
685.09	17078.89
685.23	17036.76
685.37	16814.41
685.50	17242.73
685.64	17090.59
685.78	17022.72
685.91	16893.99
686.05	16634.19
686.19	16762.92
686.32	16893.99
686.46	16336.94
686.60	16409.50
686.73	16493.76
686.87	16065.44
687.01	16617.80
687.14	16257.36
687.28	16308.85
687.42	16416.52
687.55	16152.04
687.69	16081.82
687.82	15726.06
687.96	15810.32
688.10	15824.36
688.23	15829.04
688.37	15850.11
688.50	15807.98
688.64	15817.34
688.78	15716.70
688.91	15594.99
689.05	15639.46
689.18	15489.67
689.32	15236.89
689.46	15421.79
689.59	15077.73
689.73	15157.31
689.86	15295.40
690.00	15126.88
690.13	15112.84
690.27	15075.39
690.41	15000.49
690.54	14895.17
690.68	14981.77
690.81	14892.83
690.95	14963.04
691.08	14967.73
691.22	14738.35
691.35	14670.48
691.49	14682.18
691.62	14728.99
691.76	14560.47
691.89	14321.74
692.03	14251.52
692.16	14202.37
692.30	14473.87
692.43	14216.41
692.57	14050.24
692.70	14242.16
692.84	14176.62
692.97	13884.06
693.11	14003.43
693.24	14087.68
693.38	13991.72
693.51	14085.34
693.65	13944.91
693.78	13563.40
693.92	13682.77
694.05	13528.30
694.19	13453.40
694.32	13434.68
694.45	13458.08
694.59	13270.84
694.72	13085.94
694.86	13336.37
694.99	12950.18
695.13	13163.17
695.26	13139.77
695.39	12936.14
695.53	13071.89
695.66	13275.52
695.80	12769.96
695.93	12882.31
696.07	12966.57
696.20	12947.84
696.33	12676.34
696.47	12812.09
696.60	12774.64
696.73	12582.72
696.87	12727.83
697.00	12285.47
697.14	12250.36
697.27	12187.17
697.40	12257.39
697.54	12072.48
697.67	12102.91
697.80	12126.32
697.94	12131.00
698.07	11969.50
698.21	12042.06
698.34	11964.82
698.47	11967.16
698.61	12175.47
698.74	11840.77
698.87	11875.88
699.01	11620.76
699.14	11637.14
699.27	11616.08
699.40	11637.14
699.54	11705.02
699.67	11379.68
699.80	11304.79
699.94	11730.76
700.07	11384.37
700.20	11112.86
700.34	11265.00
700.47	11061.37
700.60	11323.51
700.73	11229.89
700.87	11185.42
701.00	11007.54
701.13	11002.86
701.26	10967.75
701.40	11066.05
701.53	11056.69
701.66	10785.19
701.79	10965.41
701.93	10686.89
702.06	10600.29
702.19	10696.25
702.32	10469.22
702.46	10356.87
702.59	10377.94
702.72	10436.45
702.85	10171.97
702.99	10352.19
703.12	10188.35
703.25	10132.18
703.38	10197.71
703.51	10246.87
703.65	10239.84
703.78	10068.98
703.91	10036.22
704.04	10171.97
704.17	10307.72
704.31	10001.11
704.44	9706.20
704.57	9781.10
704.70	9776.42
704.83	9703.86
704.96	9523.64
705.10	9511.94
705.23	9661.73
>>>>>End Processed Spectral Data<<<<<
