SpectraSuite Data File
++++++++++++++++++++++++++++++++++++
Date: Fri Oct 18 13:58:20 GMT-05:00 2013
User: bianchi
Dark Spectrum Present: No
Reference Spectrum Present: No
Number of Sampled Component Spectra: 1
Spectrometers: USB2+H05261
Integration Time (usec): 50000 (USB2+H05261)
Spectra Averaged: 1 (USB2+H05261)
Boxcar Smoothing: 0 (USB2+H05261)
Correct for Electrical Dark: No (USB2+H05261)
Strobe/Lamp Enabled: No (USB2+H05261)
Correct for Detector Non-linearity: No (USB2+H05261)
Correct for Stray Light: No (USB2+H05261)
Number of Pixels in Processed Spectrum: 2048
>>>>>Begin Processed Spectral Data<<<<<
365.73	0.00
365.92	0.00
366.12	0.00
366.32	0.00
366.52	0.00
366.72	0.00
366.91	0.00
367.11	0.00
367.31	0.00
367.51	0.00
367.70	0.00
367.90	0.00
368.10	0.00
368.30	0.00
368.49	0.00
368.69	0.00
368.89	0.00
369.09	0.00
369.28	0.00
369.48	0.00
369.68	0.00
369.87	0.00
370.07	0.00
370.27	0.00
370.47	0.00
370.66	105.32
370.86	51.49
371.06	46.81
371.25	177.88
371.45	154.48
371.65	131.07
371.84	152.13
372.04	156.82
372.24	149.79
372.44	163.84
372.63	222.35
372.83	299.59
373.03	287.89
373.22	241.08
373.42	198.95
373.62	133.41
373.81	142.77
374.01	234.05
374.21	142.77
374.40	259.80
374.60	301.93
374.79	220.01
374.99	227.03
375.19	339.38
375.38	250.44
375.58	184.90
375.78	252.78
375.97	283.20
376.17	280.86
376.37	269.16
376.56	252.78
376.76	252.78
376.95	241.08
377.15	292.57
377.35	271.50
377.54	341.72
377.74	257.46
377.93	264.48
378.13	255.12
378.33	365.12
378.52	280.86
378.72	327.68
378.91	297.25
379.11	325.33
379.31	290.23
379.50	227.03
379.70	292.57
379.89	327.68
380.09	297.25
380.28	318.31
380.48	280.86
380.68	290.23
380.87	287.89
381.07	297.25
381.26	339.38
381.46	318.31
381.65	351.08
381.85	308.95
382.04	337.04
382.24	280.86
382.43	407.25
382.63	353.42
382.83	388.53
383.02	327.68
383.22	383.85
383.41	381.51
383.61	322.99
383.80	353.42
384.00	409.59
384.19	351.08
384.39	311.29
384.58	367.46
384.78	472.79
384.97	444.70
385.17	351.08
385.36	372.15
385.56	339.38
385.75	433.00
385.95	374.49
386.14	360.44
386.34	397.89
386.53	449.38
386.72	365.12
386.92	386.19
387.11	510.24
387.31	428.32
387.50	390.87
387.70	395.55
387.89	393.21
388.09	418.96
388.28	379.17
388.48	449.38
388.67	437.68
388.86	442.36
389.06	475.13
389.25	496.19
389.45	365.12
389.64	463.43
389.84	444.70
390.03	463.43
390.22	470.45
390.42	437.68
390.61	472.79
390.81	517.26
391.00	472.79
391.19	482.15
391.39	505.56
391.58	585.13
391.78	543.00
391.97	524.28
392.16	543.00
392.36	557.05
392.55	540.66
392.75	528.96
392.94	517.26
393.13	573.43
393.33	566.41
393.52	505.56
393.71	571.09
393.91	580.45
394.10	517.26
394.29	645.99
394.49	526.62
394.68	533.64
394.88	615.56
395.07	601.52
395.26	575.77
395.46	645.99
395.65	571.09
395.84	610.88
396.04	669.39
396.23	601.52
396.42	603.86
396.62	674.07
396.81	683.44
397.00	589.82
397.19	678.76
397.39	737.27
397.58	699.82
397.77	622.58
397.97	578.11
398.16	739.61
398.35	725.57
398.55	650.67
398.74	667.05
398.93	690.46
399.12	711.52
399.32	723.23
399.51	741.95
399.70	767.70
399.90	645.99
400.09	746.63
400.28	774.72
400.47	823.87
400.67	798.12
400.86	734.93
401.05	751.31
401.24	741.95
401.44	791.10
401.63	784.08
401.82	833.23
402.01	795.78
402.21	851.96
402.40	851.96
402.59	919.83
402.78	856.64
402.97	802.80
403.17	830.89
403.36	875.36
403.55	912.81
403.74	908.13
403.93	828.55
404.13	959.62
404.32	933.87
404.51	938.55
404.70	889.40
404.89	833.23
405.09	861.32
405.28	933.87
405.47	891.74
405.66	999.41
405.85	938.55
406.05	896.43
406.24	1069.62
406.43	964.30
406.62	976.00
406.81	1083.67
407.00	1020.47
407.20	1071.97
407.39	1011.11
407.58	1020.47
407.77	1013.45
407.96	1076.65
408.15	1109.41
408.34	1132.82
408.54	1048.56
408.73	1107.07
408.92	1132.82
409.11	1107.07
409.30	1188.99
409.49	1088.35
409.68	1053.24
409.87	1196.01
410.07	1165.59
410.26	1179.63
410.45	1165.59
410.64	1167.93
410.83	1142.18
411.02	1200.69
411.21	1284.95
411.40	1289.64
411.59	1228.78
411.78	1266.23
411.98	1294.32
412.17	1394.96
412.36	1231.12
412.55	1341.13
412.74	1465.18
412.93	1313.04
413.12	1317.72
413.31	1270.91
413.50	1322.40
413.69	1385.60
413.88	1371.55
414.07	1467.52
414.26	1427.73
414.45	1451.13
414.64	1523.69
414.83	1565.82
415.02	1579.86
415.22	1479.22
415.41	1549.43
415.60	1607.95
415.79	1577.52
415.98	1500.28
416.17	1582.20
416.36	1640.72
416.55	1774.13
416.74	1654.76
416.93	1570.50
417.12	1696.89
417.31	1694.55
417.50	1823.28
417.69	1839.66
417.88	1778.81
418.07	1788.17
418.26	1727.32
418.45	1664.12
418.64	1809.23
418.83	1912.22
419.02	1680.50
419.21	1867.75
419.39	1858.39
419.58	1891.15
419.77	1891.15
419.96	2001.16
420.15	1834.98
420.34	1795.19
420.53	1968.39
420.72	1853.70
420.91	1837.32
421.10	1891.15
421.29	1956.69
421.48	1844.34
421.67	1900.52
421.86	1907.54
422.05	1998.82
422.24	2057.33
422.43	2003.50
422.61	1987.11
422.80	2043.29
422.99	2038.61
423.18	2031.58
423.37	2174.36
423.56	2083.08
423.75	1905.20
423.94	1961.37
424.13	1804.55
424.32	1914.56
424.50	2031.58
424.69	2148.61
424.88	2064.35
425.07	1963.71
425.26	2085.42
425.45	2169.68
425.64	2083.08
425.83	1970.73
426.01	2085.42
426.20	2153.29
426.39	2080.74
426.58	2071.37
426.77	2186.06
426.96	2143.93
427.15	2090.10
427.33	2097.12
427.52	2087.76
427.71	2188.40
427.90	2143.93
428.09	2099.46
428.28	2146.27
428.46	2275.00
428.65	2181.38
428.84	2251.60
429.03	2286.70
429.22	2150.95
429.40	2291.38
429.59	2249.25
429.78	2214.15
429.97	2047.97
430.16	2263.30
430.34	2172.02
430.53	2235.21
430.72	2335.85
430.91	2335.85
431.10	2406.07
431.28	2277.34
431.47	2345.22
431.66	2427.14
431.85	2235.21
432.03	2431.82
432.22	2492.67
432.41	2328.83
432.60	2478.63
432.79	2448.20
432.97	2443.52
433.16	2480.97
433.35	2485.65
433.54	2539.48
433.72	2525.44
433.91	2579.27
434.10	2576.93
434.28	2396.71
434.47	2572.25
434.66	2555.86
434.85	2551.18
435.03	2668.21
435.22	2530.12
435.41	2752.47
435.59	2684.59
435.78	2593.31
435.97	2605.02
436.16	2569.91
436.34	2700.98
436.53	2616.72
436.72	2675.23
436.90	2710.34
437.09	2775.88
437.28	2651.83
437.46	2754.81
437.65	2902.26
437.84	2874.18
438.02	2836.73
438.21	2750.13
438.40	2825.03
438.58	2766.51
438.77	2932.69
438.96	2935.03
439.14	2953.76
439.33	2881.20
439.52	2846.09
439.70	3155.04
439.89	3063.76
440.08	3026.31
440.26	3000.57
440.45	3105.89
440.63	2995.89
440.82	3183.13
441.01	3126.96
441.19	3047.38
441.38	3220.58
441.57	3227.60
441.75	3234.62
441.94	3190.15
442.12	3346.97
442.31	3335.26
442.50	3342.28
442.68	3286.11
442.87	3384.41
443.05	3323.56
443.24	3335.26
443.43	3346.97
443.61	3487.40
443.80	3531.87
443.98	3316.54
444.17	3302.50
444.35	3508.46
444.54	3428.88
444.73	3482.72
444.91	3447.61
445.10	3368.03
445.28	3513.14
445.47	3445.27
445.65	3410.16
445.84	3639.53
446.02	3597.40
446.21	3419.52
446.39	3449.95
446.58	3510.80
446.77	3492.08
446.95	3454.63
447.14	3372.71
447.32	3440.59
447.51	3562.30
447.69	3501.44
447.88	3527.19
448.06	3574.00
448.25	3428.88
448.43	3590.38
448.62	3609.11
448.80	3538.89
448.99	3562.30
449.17	3618.47
449.36	3545.91
449.54	3742.52
449.73	3686.34
449.91	3812.73
450.10	3700.39
450.28	3859.54
450.46	3920.40
450.65	3688.68
450.83	3775.28
451.02	3805.71
451.20	3747.20
451.39	3875.93
451.57	3723.79
451.76	3733.15
451.94	3768.26
452.13	3850.18
452.31	3922.74
452.49	3845.50
452.68	3960.19
452.86	3922.74
453.05	4011.68
453.23	3988.27
453.42	3887.63
453.60	4021.04
453.78	3812.73
453.97	3915.72
454.15	3908.69
454.34	3964.87
454.52	3892.31
454.70	4011.68
454.89	4121.68
455.07	3983.59
455.26	4107.64
455.44	4133.39
455.62	4112.32
455.81	4227.01
455.99	4212.96
456.17	4241.05
456.36	4070.19
456.54	4177.86
456.73	4219.99
456.91	4468.08
457.09	4348.72
457.28	4425.95
457.46	4376.80
457.64	4257.43
457.83	4554.68
458.01	4437.66
458.19	4348.72
458.38	4283.18
458.56	4423.61
458.74	4482.13
458.93	4521.92
459.11	4397.87
459.29	4491.49
459.48	4531.28
459.66	4547.66
459.84	4557.02
460.03	4697.46
460.21	4561.70
460.39	4620.22
460.57	4571.07
460.76	4645.96
460.94	4706.82
461.12	4683.41
461.31	4720.86
461.49	4674.05
461.67	4681.07
461.85	4683.41
462.04	4624.90
462.22	5013.43
462.40	4753.63
462.59	4648.30
462.77	4882.36
462.95	4779.37
463.13	4947.89
463.32	4819.16
463.50	5020.45
463.68	4933.85
463.86	4777.03
464.05	4835.55
464.23	4821.50
464.41	4894.06
464.59	4873.00
464.78	5090.67
464.96	4877.68
465.14	4971.30
465.32	5107.05
465.50	5111.73
465.69	5069.60
465.87	4968.96
466.05	5132.79
466.23	5050.88
466.41	4947.89
466.60	5221.74
466.78	5219.39
466.96	5095.35
467.14	5195.99
467.32	5210.03
467.51	5121.09
467.69	5046.20
467.87	5095.35
468.05	5228.76
468.23	5107.05
468.41	5212.37
468.60	5327.06
468.78	5296.63
468.96	5210.03
469.14	5050.88
469.32	5355.15
469.50	5308.34
469.69	5490.90
469.87	5575.16
470.05	5523.66
470.23	5380.89
470.41	5369.19
470.59	5317.70
470.77	5579.84
470.95	5563.45
471.14	5561.11
471.32	5467.49
471.50	5713.25
471.68	5607.92
471.86	5678.14
472.04	5647.71
472.22	5865.38
472.40	5654.73
472.58	5799.85
472.77	5804.53
472.95	5900.49
473.13	6104.12
473.31	5874.74
473.49	5806.87
473.67	5928.58
473.85	5767.08
474.03	5884.11
474.21	5954.32
474.39	6270.30
474.57	6153.27
474.75	6183.70
474.93	6375.62
475.12	6179.01
475.30	6141.57
475.48	6342.85
475.66	6277.32
475.84	6579.25
476.02	6389.66
476.20	6303.06
476.38	6478.60
476.56	6478.60
476.74	6530.09
476.92	6633.08
477.10	6677.55
477.28	6827.34
477.46	6761.81
477.64	6897.56
477.82	6684.57
478.00	6970.12
478.18	6951.39
478.36	7091.82
478.54	7087.14
478.72	7012.24
478.90	7192.47
479.08	7328.22
479.26	7311.83
479.44	7363.33
479.62	7447.58
479.80	7253.32
479.98	7421.84
480.16	7557.59
480.34	7524.82
480.52	7581.00
480.70	7878.24
480.88	7747.17
481.06	7770.58
481.24	7641.85
481.41	7894.63
481.59	7957.82
481.77	8116.98
481.95	8067.83
482.13	8128.68
482.31	8056.12
482.49	8400.18
482.67	8322.94
482.85	8425.93
483.03	8601.47
483.21	8709.13
483.39	8620.19
483.57	8564.02
483.74	8748.92
483.92	8702.11
484.10	8636.58
484.28	8947.87
484.46	9156.18
484.64	9139.79
484.82	9092.98
485.00	9100.00
485.18	9245.12
485.35	9287.25
485.53	9432.36
485.71	9462.79
485.89	9547.05
486.07	9664.07
486.25	9736.63
486.43	9713.22
486.61	9727.27
486.78	9947.28
486.96	10015.15
487.14	10134.52
487.32	10003.45
487.50	10136.86
487.68	10384.96
487.85	10497.30
488.03	10623.69
488.21	10597.95
488.39	10759.44
488.57	10810.93
488.75	10757.10
488.92	10930.30
489.10	11129.25
489.28	11115.20
489.46	11290.74
489.64	11131.59
489.81	11309.47
489.99	11609.06
490.17	11255.64
490.35	11485.01
490.53	11548.20
490.70	11735.45
490.88	11564.59
491.06	11948.43
491.24	11651.19
491.41	12116.95
491.59	11903.96
491.77	11868.86
491.95	12273.77
492.13	12135.68
492.30	12386.12
492.48	12346.33
492.66	12421.22
492.84	12491.44
493.01	12924.44
493.19	12503.14
493.37	12971.25
493.54	12896.35
493.72	12737.20
493.90	12985.29
494.08	13144.45
494.25	13078.91
494.43	13097.64
494.61	13345.73
494.79	13394.89
494.96	13336.37
495.14	13439.36
495.32	13572.77
495.49	13561.06
495.67	13696.82
495.85	14134.50
496.02	14054.92
496.20	14059.60
496.38	14066.62
496.55	14045.55
496.73	14253.86
496.91	14363.87
497.09	14490.26
497.26	14466.85
497.44	14527.71
497.62	14429.40
497.79	14637.71
497.97	14881.13
498.14	14813.25
498.32	14803.89
498.50	14623.67
498.67	15180.71
498.85	14981.77
499.03	15005.17
499.20	15257.95
499.38	15297.74
499.56	15194.76
499.73	15297.74
499.91	15728.40
500.08	15496.69
500.26	15166.67
500.44	15630.10
500.61	15651.16
500.79	15248.59
500.97	15873.51
501.14	15857.13
501.32	15793.94
501.49	15697.97
501.67	16042.03
501.84	16027.99
502.02	16074.80
502.20	16166.08
502.37	16290.13
502.55	16023.31
502.72	16135.65
502.90	16386.09
503.07	16233.96
503.25	16603.76
503.43	16285.45
503.60	16772.28
503.78	16484.39
503.95	16655.25
504.13	16662.27
504.30	17153.79
504.48	16673.98
504.65	16769.94
504.83	17200.60
505.01	17146.76
505.18	17233.36
505.36	17256.77
505.53	17043.78
505.71	17270.81
505.88	17076.55
506.06	17116.34
506.23	17380.82
506.41	17294.22
506.58	17319.96
506.76	17614.87
506.93	17549.34
507.11	17678.07
507.28	17729.56
507.46	17767.01
507.63	17895.74
507.81	17774.03
507.98	17809.14
508.16	18066.60
508.33	18040.85
508.50	18338.10
508.68	18052.55
508.85	18190.64
509.03	18263.20
509.20	18438.74
509.38	18595.56
509.55	18349.80
509.73	18412.99
509.90	18501.93
510.08	18214.05
510.25	18410.65
510.42	18787.48
510.60	18923.23
510.77	18590.88
510.95	19168.99
511.12	18948.98
511.30	18707.90
511.47	19250.91
511.64	18979.40
511.82	19042.60
511.99	19126.86
512.17	19211.12
512.34	19145.58
512.51	19400.70
512.69	19400.70
512.86	19419.42
513.04	19690.93
513.21	19332.82
513.38	19660.50
513.56	19639.44
513.73	19543.47
513.90	19807.95
514.08	19440.49
514.25	19910.94
514.43	19765.82
514.60	20140.31
514.77	19721.35
514.95	20266.70
515.12	19899.23
515.29	19927.32
515.47	20042.01
515.64	20313.51
515.81	19964.77
515.99	20175.42
516.16	20589.69
516.33	20404.79
516.51	20517.14
516.68	20484.37
516.85	20477.35
517.03	20498.41
517.20	20706.72
517.37	20718.42
517.54	20706.72
517.72	20580.33
517.89	21085.89
518.06	20645.87
518.24	20779.28
518.41	20884.60
518.58	21102.27
518.75	21256.75
518.93	20994.61
519.10	20847.15
519.27	21280.15
519.45	21104.61
519.62	20971.20
519.79	21142.06
519.96	21144.40
520.14	21280.15
520.31	21820.81
520.48	21694.43
520.65	21394.84
520.83	21809.11
521.00	21467.39
521.17	21561.02
521.34	22064.23
521.52	21965.93
521.69	21905.07
521.86	21738.90
522.03	22073.59
522.20	22150.83
522.38	22075.93
522.55	21799.75
522.72	22001.04
522.89	22209.34
523.07	22286.58
523.24	22155.51
523.41	22375.52
523.58	22443.40
523.75	22422.33
523.92	22471.48
524.10	22347.44
524.27	22230.41
524.44	22485.53
524.61	22717.24
524.78	22614.26
524.96	22745.33
525.13	22810.86
525.30	22616.60
525.47	22780.43
525.64	22838.95
525.81	23211.09
525.98	22909.16
526.16	23005.13
526.33	23218.11
526.50	23250.88
526.67	22960.66
526.84	22981.72
527.01	22672.77
527.18	23456.85
527.36	23346.84
527.53	23110.45
527.70	23583.24
527.87	23271.95
528.04	23213.43
528.21	23440.47
528.38	23351.52
528.55	23508.34
528.72	23660.48
528.89	23405.36
529.07	23440.47
529.24	23531.75
529.41	24074.75
529.58	23833.68
529.75	23564.51
529.92	23833.68
530.09	23639.41
530.26	24100.50
530.43	23824.31
530.60	23903.89
530.77	23974.11
530.94	24070.07
531.11	23957.72
531.28	23901.55
531.46	24201.14
531.63	24388.38
531.80	24081.77
531.97	24397.74
532.14	24580.31
532.31	24231.57
532.48	24252.63
532.65	24313.48
532.82	24283.06
532.99	24449.24
533.16	24561.58
533.33	24620.10
533.50	24748.82
533.67	24870.53
533.84	24388.38
534.01	24704.35
534.18	24318.17
534.35	24685.63
534.52	24634.14
534.69	24924.36
534.86	25097.56
535.03	24833.08
535.20	24610.73
535.37	24861.17
535.54	24940.75
535.71	24886.92
535.88	24814.36
536.05	25179.48
536.22	25249.70
536.38	25069.48
536.55	25680.36
536.72	25460.35
536.89	25172.46
537.06	25202.89
537.23	25287.15
537.40	25071.82
537.57	25294.17
537.74	25598.44
537.91	25628.87
538.08	25460.35
538.25	25443.96
538.42	25874.62
538.59	25603.12
538.75	25458.01
538.92	25682.70
539.09	25654.61
539.26	25362.04
539.43	25661.63
539.60	25720.15
539.77	25876.96
539.94	25640.57
540.11	25729.51
540.28	25876.96
540.44	25795.04
540.61	25778.66
540.78	25535.24
540.95	26003.35
541.12	25778.66
541.29	26338.05
541.46	25713.13
541.62	26176.55
541.79	25888.67
541.96	25619.50
542.13	25947.18
542.30	26408.26
542.47	26466.78
542.63	26302.94
542.80	26480.82
542.97	26668.06
543.14	26611.89
543.31	26834.24
543.48	26373.16
543.64	26892.76
543.81	26824.88
543.98	26845.94
544.15	26876.37
544.32	26735.94
544.48	26764.03
544.65	26817.86
544.82	26867.01
544.99	26567.42
545.16	26644.66
545.32	26988.72
545.49	27257.88
545.66	27211.07
545.83	27255.54
546.00	26960.63
546.16	27250.86
546.33	27077.66
546.50	26906.80
546.67	26925.52
546.83	26766.37
547.00	26890.41
547.17	26827.22
547.34	27171.28
547.50	27295.33
547.67	27489.59
547.84	27318.73
548.00	27445.12
548.17	27267.24
548.34	27206.39
548.51	27566.83
548.67	27585.55
548.84	27693.22
549.01	27576.19
549.18	27391.29
549.34	27597.26
549.51	27395.97
549.68	27536.40
549.84	27424.06
550.01	27639.39
550.18	27592.58
550.34	27817.27
550.51	27711.94
550.68	27735.35
550.84	27850.03
551.01	27873.44
551.18	27454.48
551.34	27978.76
551.51	27955.36
551.68	27857.06
551.84	28051.32
552.01	27754.07
552.18	28170.69
552.34	27976.42
552.51	27737.69
552.68	27742.37
552.84	28175.37
553.01	28257.29
553.18	28098.13
553.34	28547.51
553.51	28364.95
553.67	28601.35
553.84	28514.75
554.01	28233.88
554.17	28320.48
554.34	28453.89
554.51	28217.50
554.67	28229.20
554.84	28297.08
555.00	28826.04
555.17	28233.88
555.33	28573.26
555.50	28364.95
555.67	28353.25
555.83	28512.41
556.00	28430.49
556.16	28683.27
556.33	28268.99
556.50	28390.70
556.66	28704.33
556.83	28718.37
556.99	28987.53
557.16	28786.25
557.32	28947.75
557.49	28666.88
557.65	28687.95
557.82	28489.00
557.98	28699.65
558.15	28837.74
558.32	28788.59
558.48	28709.01
558.65	28510.07
558.81	29228.61
558.98	28952.43
559.14	29010.94
559.31	28638.80
559.47	29221.59
559.64	29041.37
559.80	28905.62
559.97	29134.99
560.13	28868.17
560.30	28952.43
560.46	29343.30
560.63	28964.13
560.79	29247.33
560.96	28898.59
561.12	29415.85
561.29	28821.36
561.45	29214.57
561.61	28926.68
561.78	29029.66
561.94	29446.28
562.11	28950.09
562.27	29039.03
562.44	29043.71
562.60	29137.33
562.77	28872.85
562.93	28755.82
563.10	29146.69
563.26	28985.19
563.42	29668.63
563.59	29347.98
563.75	29343.30
563.92	29692.04
564.08	28966.47
564.24	29212.23
564.41	29170.10
564.57	28966.47
564.74	29268.40
564.90	29345.64
565.07	29465.00
565.23	29465.00
565.39	29762.25
565.56	29876.94
565.72	29373.72
565.88	29387.77
566.05	29441.60
566.21	29371.38
566.38	29200.52
566.54	29460.32
566.70	29806.72
566.87	29783.32
567.03	29745.87
567.19	29654.59
567.36	29645.23
567.52	29933.11
567.68	29642.88
567.85	29289.46
568.01	29481.39
568.17	29692.04
568.34	29682.67
568.50	29883.96
568.66	29745.87
568.83	29773.95
568.99	29752.89
569.15	29434.58
569.32	29563.31
569.48	29462.66
569.64	29731.83
569.81	29621.82
569.97	29717.78
570.13	29755.23
570.30	29701.40
570.46	30087.59
570.62	29928.43
570.78	29729.48
570.95	29673.31
571.11	29659.27
571.27	29404.15
571.43	29399.47
571.60	30101.63
571.76	29909.71
571.92	29734.17
572.09	29558.63
572.25	30075.88
572.41	30089.93
572.57	29692.04
572.74	30218.66
572.90	29663.95
573.06	29731.83
573.22	29989.28
573.38	29759.91
573.55	29862.90
573.71	30146.10
573.87	29970.56
574.03	30087.59
574.20	30157.80
574.36	29490.75
574.52	29930.77
574.68	29928.43
574.84	29666.29
575.01	29944.81
575.17	30366.11
575.33	30122.69
575.49	29926.09
575.65	29860.55
575.82	29827.79
575.98	29521.18
576.14	30253.76
576.30	29572.67
576.46	29780.98
576.62	29869.92
576.79	30000.99
576.95	29933.11
577.11	30141.42
577.27	30139.08
577.43	30167.16
577.59	29930.77
577.75	30141.42
577.92	29872.26
578.08	29923.75
578.24	29640.54
578.40	29881.62
578.56	30398.88
578.72	30075.88
578.88	30384.83
579.04	30422.28
579.21	29947.15
579.37	30331.00
579.53	30314.62
579.69	29624.16
579.85	30185.89
580.01	30064.18
580.17	29792.68
580.33	30281.85
580.49	30008.01
580.65	30176.53
580.82	30286.53
580.98	29626.50
581.14	30099.29
581.30	30515.90
581.46	30223.34
581.62	29954.18
581.78	29961.20
581.94	30089.93
582.10	30218.66
582.26	30462.07
582.42	30249.08
582.58	30459.73
582.74	30347.39
582.90	30541.65
583.06	30541.65
583.22	29998.65
583.38	30441.01
583.54	30494.84
583.70	30279.51
583.86	30347.39
584.02	29998.65
584.18	30469.09
584.34	30277.17
584.50	30600.16
584.66	30249.08
584.82	29902.68
584.98	30096.95
585.14	30068.86
585.30	30312.28
585.46	30361.43
585.62	30270.15
585.78	30230.36
585.94	30024.39
586.10	30239.72
586.26	30436.33
586.42	30328.66
586.58	30068.86
586.74	30106.31
586.90	30115.67
587.06	30288.87
587.22	30401.22
587.38	30162.48
587.54	30319.30
587.70	30761.66
587.86	30558.03
588.02	30459.73
588.18	30714.85
588.34	30642.29
588.49	30361.43
588.65	30455.05
588.81	30321.64
588.97	30146.10
589.13	30656.34
589.29	30185.89
589.45	30426.96
589.61	30541.65
589.77	30824.86
589.93	30852.94
590.08	30536.97
590.24	30602.50
590.40	30246.74
590.56	30787.41
590.72	30452.71
590.88	30314.62
591.04	30242.06
591.20	30314.62
591.35	30939.54
591.51	31206.36
591.67	30855.28
591.83	30665.70
591.99	30976.99
592.15	30902.09
592.31	30567.40
592.46	30492.50
592.62	30242.06
592.78	30529.95
592.94	30258.45
593.10	30473.78
593.26	30888.05
593.41	30202.27
593.57	30661.02
593.73	30602.50
593.89	30815.49
594.05	30464.41
594.20	30522.93
594.36	30506.54
594.52	30630.59
594.68	30817.83
594.84	30429.30
594.99	30834.22
595.15	30756.98
595.31	30780.39
595.47	30602.50
595.62	30834.22
595.78	30476.12
595.94	30618.89
596.10	30363.77
596.25	30801.45
596.41	30480.80
596.57	30740.60
596.73	30684.42
596.88	30775.70
597.04	31028.48
597.20	30965.29
597.36	30988.69
597.51	31056.57
597.67	30625.91
597.83	30862.30
597.99	30866.98
598.14	30979.33
598.30	30836.56
598.46	31124.44
598.61	30717.19
598.77	30759.32
598.93	30925.50
599.09	30960.61
599.24	31260.20
599.40	31002.74
599.56	31154.87
599.71	31194.66
599.87	30934.86
600.03	30665.70
600.18	30705.49
600.34	30520.59
600.50	30689.10
600.65	30792.09
600.81	30930.18
600.97	31164.23
601.12	30927.84
601.28	31157.21
601.44	30859.96
601.59	30934.86
601.75	30590.80
601.91	30995.71
602.06	30637.61
602.22	31028.48
602.37	30775.70
602.53	30567.40
602.69	30623.57
602.84	31133.81
603.00	30836.56
603.16	31197.00
603.31	30749.96
603.47	31377.22
603.62	30745.28
603.78	31126.78
603.94	30838.90
604.09	30637.61
604.25	30675.06
604.40	30555.69
604.56	30817.83
604.71	31007.42
604.87	31119.76
605.03	30792.09
605.18	31044.87
605.34	30967.63
605.49	30483.14
605.65	30679.74
605.80	30305.26
605.96	30480.80
606.12	30363.77
606.27	30962.95
606.43	30588.46
606.58	30654.00
606.74	30888.05
606.89	30937.20
607.05	30754.64
607.20	30721.87
607.36	30911.46
607.51	31016.78
607.67	30082.91
607.82	30445.69
607.98	30506.54
608.13	30822.51
608.29	30579.10
608.44	30951.24
608.60	30885.71
608.75	30843.58
608.91	30988.69
609.06	30438.67
609.22	30799.11
609.37	30693.79
609.53	30551.01
609.68	30391.86
609.84	30319.30
609.99	30333.34
610.15	30403.56
610.30	30529.95
610.46	30597.82
610.61	30139.08
610.76	30501.86
610.92	30396.54
611.07	30511.22
611.23	30597.82
611.38	30831.88
611.54	30511.22
611.69	30455.05
611.84	30029.07
612.00	30546.33
612.15	30029.07
612.31	30499.52
612.46	30029.07
612.62	30745.28
612.77	30417.60
612.92	30417.60
613.08	30426.96
613.23	30029.07
613.39	30370.79
613.54	29963.54
613.69	30183.55
613.85	29764.59
614.00	30459.73
614.15	30267.81
614.31	30064.18
614.46	30621.23
614.62	30675.06
614.77	30366.11
614.92	29858.21
615.08	30321.64
615.23	30206.95
615.38	29886.30
615.54	29912.05
615.69	30204.61
615.84	29965.88
616.00	30197.59
616.15	29890.98
616.30	29958.86
616.46	30164.82
616.61	30181.21
616.76	30087.59
616.92	30188.23
617.07	30401.22
617.22	29834.81
617.37	29867.58
617.53	30146.10
617.68	29991.62
617.83	29965.88
617.99	29469.69
618.14	30132.06
618.29	29839.49
618.45	30155.46
618.60	29893.32
618.75	30302.92
618.90	29783.32
619.06	29874.60
619.21	29942.47
619.36	29841.83
619.51	29570.33
619.67	29612.46
619.82	29366.70
619.97	29965.88
620.12	29502.45
620.28	29401.81
620.43	30012.69
620.58	29993.97
620.73	30529.95
620.89	29827.79
621.04	29879.28
621.19	29432.24
621.34	29813.74
621.49	29551.60
621.65	29252.02
621.80	29963.54
621.95	29317.55
622.10	29294.14
622.25	29418.19
622.41	29769.27
622.56	29579.69
622.71	29551.60
622.86	29184.14
623.01	29628.84
623.16	29134.99
623.32	29153.71
623.47	29675.65
623.62	29280.10
623.77	29319.89
623.92	29495.43
624.07	29139.67
624.23	28952.43
624.38	29488.41
624.53	28900.94
624.68	29268.40
624.83	29209.89
624.98	29450.96
625.13	29039.03
625.29	29352.66
625.44	29256.70
625.59	29186.48
625.74	29411.17
625.89	28816.68
626.04	29099.88
626.19	28725.39
626.34	28933.70
626.49	28844.76
626.65	28931.36
626.80	29202.86
626.95	29034.35
627.10	29041.37
627.25	28652.84
627.40	28807.31
627.55	28856.46
627.70	28409.42
627.85	28575.60
628.00	29020.30
628.15	28804.97
628.30	28531.13
628.45	28786.25
628.60	28577.94
628.76	28725.39
628.91	28779.23
629.06	28809.65
629.21	28535.81
629.36	28568.58
629.51	28732.42
629.66	28734.76
629.81	28201.11
629.96	28327.50
630.11	28641.14
630.26	28709.01
630.41	28362.61
630.56	28395.38
630.71	28261.97
630.86	28355.59
631.01	28474.96
631.16	28486.66
631.31	28650.50
631.46	28166.01
631.61	28465.60
631.76	28308.78
631.91	28315.80
632.06	28678.58
632.21	28386.02
632.36	28498.36
632.51	28077.07
632.66	28327.50
632.81	28114.52
632.96	28348.57
633.10	28280.69
633.25	28353.25
633.40	28264.31
633.55	28325.16
633.70	28081.75
633.85	27601.94
634.00	27885.14
634.15	28224.52
634.30	27728.33
634.45	27955.36
634.60	27892.16
634.75	28060.68
634.90	28226.86
635.05	28039.62
635.19	28491.34
635.34	28032.60
635.49	28173.03
635.64	28203.46
635.79	27831.31
635.94	27728.33
636.09	27644.07
636.24	27730.67
636.39	27754.07
636.53	27557.47
636.68	27847.69
636.83	27819.61
636.98	28006.85
637.13	27690.88
637.28	27873.44
637.43	27391.29
637.57	27786.84
637.72	27700.24
637.87	27924.93
638.02	27768.12
638.17	27747.05
638.32	27583.21
638.46	27246.18
638.61	27707.26
638.76	27241.50
638.91	27337.46
639.06	27552.79
639.20	27501.29
639.35	27566.83
639.50	27835.99
639.65	27922.59
639.80	27393.63
639.94	27571.51
640.09	27323.41
640.24	27634.71
640.39	27234.47
640.54	27449.80
640.68	26998.08
640.83	27175.96
640.98	27143.19
641.13	27054.25
641.27	27257.88
641.42	27393.63
641.57	27283.62
641.72	27604.28
641.86	27122.13
642.01	26962.97
642.16	27206.39
642.31	26897.44
642.45	27159.58
642.60	26993.40
642.75	26717.22
642.90	27138.51
643.04	26625.93
643.19	27094.04
643.34	26944.25
643.48	27021.48
643.63	27147.87
643.78	27023.83
643.93	26958.29
644.07	27119.79
644.22	27161.92
644.37	27080.00
644.51	26993.40
644.66	27138.51
644.81	26387.20
644.95	26834.24
645.10	26771.05
645.25	26693.81
645.39	27096.38
645.54	26668.06
645.69	26838.92
645.83	26569.76
645.98	26768.71
646.13	27009.78
646.27	26754.66
646.42	26412.95
646.57	27009.78
646.71	27089.36
646.86	26635.30
647.00	26630.62
647.15	26487.84
647.30	26485.50
647.44	26497.20
647.59	26286.56
647.74	26792.11
647.88	26368.48
648.03	26682.11
648.17	26628.27
648.32	26668.06
648.47	26511.25
648.61	26384.86
648.76	26499.55
648.90	26679.77
649.05	26480.82
649.20	26204.64
649.34	26199.96
649.49	26218.68
649.63	26398.90
649.78	26529.97
649.92	26237.41
650.07	26560.40
650.21	26092.29
650.36	26075.91
650.51	26291.24
650.65	26302.94
650.80	26373.16
650.94	26380.18
651.09	26548.70
651.23	26321.66
651.38	26031.44
651.52	25741.21
651.67	26064.21
651.81	26228.04
651.96	26148.46
652.10	26022.08
652.25	26150.81
652.39	26183.57
652.54	26225.70
652.68	25991.65
652.83	26354.43
652.97	26380.18
653.12	26094.63
653.26	25750.57
653.41	26185.91
653.55	25837.17
653.70	25914.41
653.84	26115.70
653.99	25710.78
654.13	25855.90
654.27	25575.03
654.42	26047.82
654.56	25720.15
654.71	25886.32
654.85	25614.82
655.00	25633.55
655.14	25748.23
655.29	25788.02
655.43	25682.70
655.57	25874.62
655.72	25844.20
655.86	25448.64
656.01	25614.82
656.15	25607.80
656.30	25333.96
656.44	25666.31
656.58	25528.22
656.73	25364.39
656.87	25720.15
657.01	25701.42
657.16	25287.15
657.30	25713.13
657.45	25181.82
657.59	25380.77
657.73	25556.31
657.88	25593.76
658.02	25125.65
658.16	25408.86
658.31	25116.29
658.45	25235.66
658.60	24809.68
658.74	24910.32
658.88	25233.32
659.03	25230.98
659.17	25284.81
659.31	25310.55
659.46	25401.83
659.60	25261.40
659.74	25146.72
659.89	24779.25
660.03	25151.40
660.17	25233.32
660.32	24896.28
660.46	24854.15
660.60	24563.92
660.74	24489.03
660.89	24973.52
661.03	24727.76
661.17	24489.03
661.32	24842.45
661.46	24734.78
661.60	24561.58
661.74	24952.45
661.89	24851.81
662.03	24690.31
662.17	24545.20
662.31	24383.70
662.46	24414.13
662.60	24187.10
662.74	24372.00
662.88	24180.07
663.03	24259.65
663.17	24173.05
663.31	23875.80
663.45	24414.13
663.60	24063.05
663.74	24084.11
663.88	24156.67
664.02	24079.43
664.17	24201.14
664.31	24177.73
664.45	23765.80
664.59	23777.50
664.73	24182.42
664.88	23793.89
665.02	23836.02
665.16	23777.50
665.30	23716.65
665.44	23955.38
665.59	23410.04
665.73	23447.49
665.87	23271.95
666.01	23796.23
666.15	23852.40
666.29	23461.53
666.44	23658.14
666.58	23307.05
666.72	23667.50
666.86	23632.39
667.00	23552.81
667.14	23480.25
667.28	23405.36
667.43	23459.19
667.57	23328.12
667.71	23112.79
667.85	23215.77
667.99	23344.50
668.13	23356.21
668.27	23302.37
668.41	23101.09
668.56	22965.34
668.70	23068.32
668.84	23344.50
668.98	23122.15
669.12	23225.14
669.26	22953.63
669.40	22977.04
669.54	23007.47
669.68	22899.80
669.82	22235.09
669.96	22569.79
670.10	22745.33
670.25	22675.11
670.39	22445.74
670.53	22501.91
670.67	22429.35
670.81	22553.40
670.95	22710.22
671.09	22424.67
671.23	22373.18
671.37	22494.89
671.51	22569.79
671.65	22640.00
671.79	22408.29
671.93	22111.04
672.07	22155.51
672.21	21935.50
672.35	21757.62
672.49	22061.89
672.63	21656.98
672.77	21921.46
672.91	21954.22
673.05	21755.28
673.19	21764.64
673.33	21617.19
673.47	21748.26
673.61	21806.77
673.75	22080.61
673.89	21694.43
674.03	21724.85
674.17	21455.69
674.31	21460.37
674.45	21521.23
674.59	21610.17
674.73	21696.77
674.87	21453.35
675.01	21284.83
675.15	21200.57
675.29	21275.47
675.43	21165.46
675.56	21010.99
675.70	21015.67
675.84	21249.72
675.98	20882.26
676.12	21233.34
676.26	21359.73
676.40	21006.31
676.54	21181.85
676.68	20943.11
676.82	20608.42
676.96	20451.60
677.10	20643.52
677.23	20716.08
677.37	20608.42
677.51	20587.35
677.65	20376.70
677.79	20222.23
677.93	20498.41
678.07	19901.58
678.21	19534.11
678.34	20135.63
678.48	20088.82
678.62	19779.87
678.76	19770.51
678.90	19768.16
679.04	19758.80
679.18	19831.36
679.31	19545.81
679.45	19360.91
679.59	19845.40
679.73	19218.14
679.87	19346.87
680.00	19136.22
680.14	19264.95
680.28	19236.86
680.42	19199.41
680.56	19257.93
680.70	18974.72
680.83	19147.92
680.97	19068.34
681.11	19276.65
681.25	18602.58
681.39	19026.21
681.52	18838.97
681.66	18850.67
681.80	18773.44
681.94	18541.72
682.07	18820.25
682.21	18572.15
682.35	18209.37
682.49	18462.15
682.62	18317.03
682.76	18164.90
682.90	18328.74
683.04	18092.34
683.17	17874.67
683.31	18258.52
683.45	18635.35
683.59	18104.04
683.72	18141.49
683.86	17888.71
684.00	17720.20
684.13	17568.06
684.27	17947.23
684.41	17570.40
684.55	17458.06
684.68	17383.16
684.82	17408.90
684.96	17268.47
685.09	17003.99
685.23	17135.06
685.37	17099.95
685.50	17336.35
685.64	17652.32
685.78	17284.86
685.91	17137.40
686.05	17006.33
686.19	17240.39
686.32	17074.21
686.46	16954.84
686.60	16617.80
686.73	16973.56
686.87	16395.45
687.01	16739.51
687.14	16592.06
687.28	16343.96
687.42	16386.09
687.55	16283.11
687.69	16187.14
687.82	16137.99
687.96	16556.95
688.10	16201.19
688.23	16362.69
688.37	16065.44
688.50	16079.48
688.64	16397.79
688.78	16280.77
688.91	16013.95
689.05	15726.06
689.18	15756.49
689.32	15573.92
689.46	15538.82
689.59	15337.53
689.73	15545.84
689.86	15541.16
690.00	15346.89
690.13	15606.69
690.27	15386.68
690.41	15466.26
690.54	15337.53
690.68	15442.85
690.81	15288.38
690.95	15321.15
691.08	15410.09
691.22	15075.39
691.35	14740.69
691.49	14792.19
691.62	14839.00
691.76	15019.22
691.89	14670.48
692.03	14501.96
692.16	14511.32
692.30	14581.54
692.43	14459.83
692.57	14195.35
692.70	14340.46
692.84	14565.15
692.97	14237.48
693.11	14281.95
693.24	14193.01
693.38	14143.86
693.51	13996.40
693.65	14005.77
693.78	13984.70
693.92	14090.02
694.05	13991.72
694.19	13767.03
694.32	13760.01
694.45	13703.84
694.59	13483.83
694.72	13418.29
694.86	13518.93
694.99	13242.75
695.13	13380.84
695.26	13137.43
695.39	13167.85
695.53	13448.72
695.66	13270.84
695.80	13177.22
695.93	13228.71
696.07	13102.32
696.20	13273.18
696.33	13071.89
696.47	13025.08
696.60	13144.45
696.73	12996.99
696.87	12718.47
697.00	12758.26
697.14	12402.50
697.27	12449.31
697.40	12491.44
697.54	12592.08
697.67	12243.34
697.80	12404.84
697.94	12278.45
698.07	12369.73
698.21	12409.52
698.34	12407.18
698.47	12255.04
698.61	12086.53
698.74	12411.86
698.87	12189.51
699.01	12194.19
699.14	12098.23
699.27	11878.22
699.40	11845.45
699.54	11946.09
699.67	11782.26
699.80	11728.42
699.94	11611.40
700.07	11559.91
700.20	11515.44
700.34	11618.42
700.47	11335.21
700.60	11590.33
700.73	11566.93
700.87	11164.36
701.00	11349.26
701.13	11283.72
701.26	11136.27
701.40	11367.98
701.53	11215.85
701.66	11014.56
701.79	10963.07
701.93	11077.76
702.06	10932.64
702.19	10878.81
702.32	10808.59
702.46	10693.91
702.59	10668.16
702.72	10619.01
702.85	10663.48
702.99	10726.68
703.12	10462.19
703.25	10520.71
703.38	10260.91
703.51	10436.45
703.65	10553.48
703.78	10223.46
703.91	10244.52
704.04	10251.55
704.17	10375.59
704.31	10064.30
704.44	10190.69
704.57	9982.38
704.70	9942.60
704.83	9832.59
704.96	9914.51
705.10	9832.59
705.23	9516.62
>>>>>End Processed Spectral Data<<<<<
