SpectraSuite Data File
++++++++++++++++++++++++++++++++++++
Date: Fri Oct 18 13:58:32 GMT-05:00 2013
User: bianchi
Dark Spectrum Present: No
Reference Spectrum Present: No
Number of Sampled Component Spectra: 1
Spectrometers: USB2+H05261
Integration Time (usec): 50000 (USB2+H05261)
Spectra Averaged: 1 (USB2+H05261)
Boxcar Smoothing: 0 (USB2+H05261)
Correct for Electrical Dark: No (USB2+H05261)
Strobe/Lamp Enabled: No (USB2+H05261)
Correct for Detector Non-linearity: No (USB2+H05261)
Correct for Stray Light: No (USB2+H05261)
Number of Pixels in Processed Spectrum: 2048
>>>>>Begin Processed Spectral Data<<<<<
365.73	0.00
365.92	0.00
366.12	0.00
366.32	0.00
366.52	0.00
366.72	0.00
366.91	0.00
367.11	0.00
367.31	0.00
367.51	0.00
367.70	0.00
367.90	0.00
368.10	0.00
368.30	0.00
368.49	0.00
368.69	0.00
368.89	0.00
369.09	0.00
369.28	0.00
369.48	0.00
369.68	0.00
369.87	0.00
370.07	0.00
370.27	0.00
370.47	0.00
370.66	138.09
370.86	121.71
371.06	168.52
371.25	175.54
371.45	117.03
371.65	196.60
371.84	117.03
372.04	100.64
372.24	210.65
372.44	205.97
372.63	208.31
372.83	198.95
373.03	255.12
373.22	245.76
373.42	234.05
373.62	250.44
373.81	168.52
374.01	180.22
374.21	224.69
374.40	262.14
374.60	208.31
374.79	201.29
374.99	210.65
375.19	245.76
375.38	210.65
375.58	191.92
375.78	322.99
375.97	231.71
376.17	259.80
376.37	262.14
376.56	266.82
376.76	229.37
376.95	212.99
377.15	325.33
377.35	215.33
377.54	320.65
377.74	287.89
377.93	243.42
378.13	271.50
378.33	259.80
378.52	255.12
378.72	285.55
378.91	220.01
379.11	315.97
379.31	271.50
379.50	322.99
379.70	327.68
379.89	229.37
380.09	301.93
380.28	208.31
380.48	212.99
380.68	236.39
380.87	227.03
381.07	234.05
381.26	297.25
381.46	273.84
381.65	280.86
381.85	283.20
382.04	294.91
382.24	276.18
382.43	353.42
382.63	315.97
382.83	299.59
383.02	372.15
383.22	325.33
383.41	315.97
383.61	348.74
383.80	390.87
384.00	299.59
384.19	376.83
384.39	414.27
384.58	367.46
384.78	344.06
384.97	381.51
385.17	430.66
385.36	360.44
385.56	339.38
385.75	308.95
385.95	341.72
386.14	451.72
386.34	315.97
386.53	395.55
386.72	379.17
386.92	381.51
387.11	372.15
387.31	421.30
387.50	418.96
387.70	449.38
387.89	430.66
388.09	423.64
388.28	416.62
388.48	468.11
388.67	454.06
388.86	430.66
389.06	458.74
389.25	484.49
389.45	440.02
389.64	498.53
389.84	505.56
390.03	479.81
390.22	454.06
390.42	456.40
390.61	535.98
390.81	472.79
391.00	414.27
391.19	444.70
391.39	451.72
391.58	430.66
391.78	535.98
391.97	524.28
392.16	582.79
392.36	538.32
392.55	524.28
392.75	552.37
392.94	535.98
393.13	531.30
393.33	545.34
393.52	582.79
393.71	557.05
393.91	571.09
394.10	545.34
394.29	526.62
394.49	561.73
394.68	465.77
394.88	589.82
395.07	587.47
395.26	657.69
395.46	561.73
395.65	592.16
395.84	596.84
396.04	697.48
396.23	629.60
396.42	617.90
396.62	725.57
396.81	683.44
397.00	620.24
397.19	643.65
397.39	578.11
397.58	657.69
397.77	732.59
397.97	727.91
398.16	723.23
398.35	678.76
398.55	695.14
398.74	674.07
398.93	723.23
399.12	763.01
399.32	655.35
399.51	685.78
399.70	711.52
399.90	763.01
400.09	650.67
400.28	844.93
400.47	723.23
400.67	763.01
400.86	793.44
401.05	793.44
401.24	802.80
401.44	833.23
401.63	861.32
401.82	781.74
402.01	786.42
402.21	781.74
402.40	777.06
402.59	844.93
402.78	868.34
402.97	891.74
403.17	861.32
403.36	840.25
403.55	875.36
403.74	908.13
403.93	894.08
404.13	950.26
404.32	870.68
404.51	828.55
404.70	980.68
404.89	903.45
405.09	983.02
405.28	931.53
405.47	990.05
405.66	983.02
405.85	1053.24
406.05	957.28
406.24	973.66
406.43	973.66
406.62	912.81
406.81	1107.07
407.00	1055.58
407.20	952.60
407.39	1057.92
407.58	968.98
407.77	1081.33
407.96	1067.28
408.15	1032.18
408.34	1076.65
408.54	1149.20
408.73	1027.50
408.92	997.07
409.11	1142.18
409.30	1181.97
409.49	1181.97
409.68	1181.97
409.87	1139.84
410.07	1203.04
410.26	1240.48
410.45	1247.51
410.64	1273.25
410.83	1174.95
411.02	1156.22
411.21	1205.38
411.40	1294.32
411.59	1235.80
411.78	1345.81
411.98	1289.64
412.17	1371.55
412.36	1345.81
412.55	1369.21
412.74	1294.32
412.93	1343.47
413.12	1362.19
413.31	1418.36
413.50	1324.74
413.69	1310.70
413.88	1495.60
414.07	1336.45
414.26	1476.88
414.45	1432.41
414.64	1434.75
414.83	1544.75
415.02	1467.52
415.22	1490.92
415.41	1528.37
415.60	1516.67
415.79	1619.65
415.98	1652.42
416.17	1556.46
416.36	1600.93
416.55	1579.86
416.74	1643.06
416.93	1551.78
417.12	1586.88
417.31	1605.61
417.50	1584.54
417.69	1755.40
417.88	1699.23
418.07	1657.10
418.26	1771.79
418.45	1764.76
418.64	1696.89
418.83	1739.02
419.02	1703.91
419.21	1790.51
419.39	1865.41
419.58	1795.19
419.77	1816.26
419.96	1797.53
420.15	1839.66
420.34	1900.52
420.53	1727.32
420.72	1930.94
420.91	1813.92
421.10	1909.88
421.29	1973.07
421.48	1863.07
421.67	1881.79
421.86	1959.03
422.05	1944.99
422.24	1961.37
422.43	1884.13
422.61	1888.81
422.80	2008.18
422.99	1921.58
423.18	2040.95
423.37	2015.20
423.56	1963.71
423.75	1923.92
423.94	1919.24
424.13	1970.73
424.32	1909.88
424.50	2040.95
424.69	2113.50
424.88	2010.52
425.07	1930.94
425.26	1919.24
425.45	2076.06
425.64	1937.96
425.83	1984.77
426.01	2052.65
426.20	2052.65
426.39	2085.42
426.58	2120.53
426.77	1984.77
426.96	2169.68
427.15	2118.18
427.33	2113.50
427.52	1968.39
427.71	1996.48
427.90	1994.14
428.09	2195.42
428.28	2097.12
428.46	2331.17
428.65	2157.97
428.84	2132.23
429.03	2375.64
429.22	2169.68
429.40	2244.57
429.59	2277.34
429.78	2169.68
429.97	2160.31
430.16	2136.91
430.34	2251.60
430.53	2324.15
430.72	2335.85
430.91	2289.04
431.10	2214.15
431.28	2321.81
431.47	2225.85
431.66	2406.07
431.85	2272.66
432.03	2441.18
432.22	2466.92
432.41	2445.86
432.60	2473.95
432.79	2385.01
432.97	2377.98
433.16	2464.58
433.35	2335.85
433.54	2560.55
433.72	2497.35
433.91	2434.16
434.10	2520.76
434.28	2457.56
434.47	2623.74
434.66	2509.05
434.85	2527.78
435.03	2492.67
435.22	2626.08
435.41	2693.96
435.59	2574.59
435.78	2518.42
435.97	2621.40
436.16	2642.46
436.34	2700.98
436.53	2623.74
436.72	2698.64
436.90	2495.01
437.09	2705.66
437.28	2654.17
437.46	2773.53
437.65	2628.42
437.84	2658.85
438.02	2738.43
438.21	2726.72
438.40	2747.79
438.58	2853.11
438.77	2780.56
438.96	2895.24
439.14	2911.63
439.33	2888.22
439.52	2913.97
439.70	2958.44
439.89	2984.18
440.08	3068.44
440.26	2939.71
440.45	3129.30
440.63	3033.33
440.82	3148.02
441.01	3023.97
441.19	3190.15
441.38	3061.42
441.57	3222.92
441.75	3141.00
441.94	3077.80
442.12	3220.58
442.31	3297.81
442.50	3253.34
442.68	3269.73
442.87	3323.56
443.05	3197.17
443.24	3368.03
443.43	3428.88
443.61	3419.52
443.80	3517.83
443.98	3236.96
444.17	3197.17
444.35	3506.12
444.54	3330.58
444.73	3262.71
444.91	3426.54
445.10	3442.93
445.28	3485.06
445.47	3456.97
445.65	3440.59
445.84	3445.27
446.02	3435.91
446.21	3342.28
446.39	3382.07
446.58	3379.73
446.77	3445.27
446.95	3396.12
447.14	3433.57
447.32	3478.04
447.51	3468.67
447.69	3323.56
447.88	3492.08
448.06	3435.91
448.25	3506.12
448.43	3438.25
448.62	3440.59
448.80	3487.40
448.99	3630.17
449.17	3517.83
449.36	3478.04
449.54	3536.55
449.73	3566.98
449.91	3571.66
450.10	3609.11
450.28	3765.92
450.46	3602.08
450.65	3756.56
450.83	3735.50
451.02	3794.01
451.20	3854.86
451.39	3747.20
451.57	3641.87
451.76	3632.51
451.94	3756.56
452.13	3775.28
452.31	3904.01
452.49	3988.27
452.68	3674.64
452.86	3709.75
453.05	3815.07
453.23	3831.46
453.42	3786.99
453.60	3777.62
453.78	3936.78
453.97	3920.40
454.15	3889.97
454.34	3934.44
454.52	4007.00
454.70	3878.27
454.89	4037.42
455.07	3943.80
455.26	3964.87
455.44	4161.47
455.62	4070.19
455.81	4063.17
455.99	4170.83
456.17	4166.15
456.36	4128.70
456.54	4081.89
456.73	4156.79
456.91	4203.60
457.09	4252.75
457.28	4379.14
457.46	4294.88
457.64	4299.56
457.83	4156.79
458.01	4140.41
458.19	4348.72
458.38	4395.53
458.56	4400.21
458.74	4402.55
458.93	4344.03
459.11	4383.82
459.29	4372.12
459.48	4341.69
459.66	4379.14
459.84	4477.44
460.03	4318.29
460.21	4552.34
460.39	4367.44
460.57	4512.55
460.76	4360.42
460.94	4578.09
461.12	4479.79
461.31	4674.05
461.49	4514.89
461.67	4571.07
461.85	4648.30
462.04	4540.64
462.22	4674.05
462.40	4898.74
462.59	4725.54
462.77	4671.71
462.95	4767.67
463.13	4837.89
463.32	4634.26
463.50	4762.99
463.68	4947.89
463.86	4774.69
464.05	4727.88
464.23	4704.48
464.41	4835.55
464.59	4610.86
464.78	4894.06
464.96	4814.48
465.14	4837.89
465.32	4966.62
465.50	4856.61
465.69	4908.10
465.87	4980.66
466.05	4964.28
466.23	5046.20
466.41	5018.11
466.60	5163.22
466.78	4936.19
466.96	5048.54
467.14	4992.36
467.32	4992.36
467.51	5128.11
467.69	5097.69
467.87	5090.67
468.05	5214.71
468.23	5153.86
468.41	5095.35
468.60	5210.03
468.78	5193.65
468.96	5111.73
469.14	5303.65
469.32	5093.01
469.50	5078.96
469.69	5392.59
469.87	5198.33
470.05	5247.48
470.23	5401.96
470.41	5303.65
470.59	5514.30
470.77	5495.58
470.95	5439.40
471.14	5540.05
471.32	5439.40
471.50	5561.11
471.68	5528.35
471.86	5408.98
472.04	5591.54
472.22	5568.13
472.40	5706.23
472.58	5628.99
472.77	5856.02
472.95	5701.54
473.13	5959.00
473.31	5783.46
473.49	5743.67
473.67	5633.67
473.85	5804.53
474.03	5870.06
474.21	5863.04
474.39	6120.50
474.57	6134.54
474.75	6120.50
474.93	6125.18
475.12	5989.43
475.30	6057.31
475.48	6066.67
475.66	6225.82
475.84	6132.20
476.02	6335.83
476.20	6272.64
476.38	6188.38
476.56	6452.86
476.74	6300.72
476.92	6253.91
477.10	6450.52
477.28	6551.16
477.46	6506.69
477.64	6487.96
477.82	6778.19
478.00	6862.45
478.18	6752.45
478.36	7066.08
478.54	6920.96
478.72	7056.72
478.90	6925.65
479.08	7091.82
479.26	7248.64
479.44	7166.72
479.62	7033.31
479.80	7400.77
479.98	7332.90
480.16	7627.81
480.34	7382.05
480.52	7545.89
480.70	7492.05
480.88	7468.65
481.06	7662.91
481.24	7531.84
481.41	7878.24
481.59	7791.64
481.77	7911.01
481.95	7929.74
482.13	8114.64
482.31	7953.14
482.49	8102.93
482.67	8147.40
482.85	8238.69
483.03	8262.09
483.21	8397.84
483.39	8500.83
483.57	8526.57
483.74	8601.47
483.92	8690.41
484.10	8496.14
484.28	8589.77
484.46	8971.27
484.64	8957.23
484.82	8704.45
485.00	9046.17
485.18	9064.89
485.35	9153.84
485.53	9242.78
485.71	9383.21
485.89	9380.87
486.07	9593.86
486.25	9327.03
486.43	9341.08
486.61	9502.58
486.78	9696.84
486.96	9774.08
487.14	9846.63
487.32	9937.91
487.50	9914.51
487.68	10235.16
487.85	10176.65
488.03	10356.87
488.21	10394.32
488.39	10359.21
488.57	10623.69
488.75	10579.22
488.92	10640.08
489.10	10539.43
489.28	10731.36
489.46	10869.45
489.64	10986.47
489.81	11262.66
489.99	11204.14
490.17	11330.53
490.35	11307.13
490.53	11213.51
490.70	11477.99
490.88	11419.47
491.06	11695.66
491.24	11791.62
491.41	11456.92
491.59	11840.77
491.77	11826.73
491.95	11967.16
492.13	11964.82
492.30	12063.12
492.48	12393.14
492.66	12123.98
492.84	12241.00
493.01	12582.72
493.19	12194.19
493.37	12585.06
493.54	12655.28
493.72	12545.27
493.90	12648.26
494.08	12795.71
494.25	13022.74
494.43	13142.11
494.61	13205.30
494.79	13217.01
494.96	13259.13
495.14	13270.84
495.32	13392.55
495.49	13254.45
495.67	13385.52
495.85	13544.68
496.02	13914.48
496.20	13703.84
496.38	13516.59
496.55	13624.26
496.73	13785.76
496.91	14012.79
497.09	14125.13
497.26	14352.16
497.44	14090.02
497.62	14181.31
497.79	14288.97
497.97	14281.95
498.14	14675.16
498.32	14665.80
498.50	14487.92
498.67	14855.38
498.85	14644.73
499.03	14579.20
499.20	14780.48
499.38	14661.12
499.56	14956.02
499.73	14920.92
499.91	14991.13
500.08	15229.87
500.26	15213.48
500.44	15290.72
500.61	15094.11
500.79	15466.26
500.97	15552.86
501.14	15674.57
501.32	15590.31
501.49	15283.70
501.67	15714.36
501.84	15719.04
502.02	15655.84
502.20	15812.66
502.37	15796.28
502.55	16154.38
502.72	16004.58
502.90	15742.44
503.07	15885.22
503.25	16006.92
503.43	16166.08
503.60	16145.02
503.78	16411.84
503.95	16269.06
504.13	16177.78
504.30	16554.61
504.48	16336.94
504.65	16613.12
504.83	16531.20
505.01	16795.68
505.18	16617.80
505.36	17167.83
505.53	16521.84
505.71	16798.02
505.88	16922.07
506.06	16833.13
506.23	16954.84
506.41	17050.80
506.58	17334.01
506.76	17076.55
506.93	17249.75
507.11	17142.08
507.28	17329.33
507.46	17214.64
507.63	17509.55
507.81	17626.57
507.98	17369.12
508.16	17642.96
508.33	17600.83
508.50	17635.94
508.68	17682.75
508.85	17980.00
509.03	17869.99
509.20	17720.20
509.38	18143.83
509.55	18136.81
509.73	18188.30
509.90	17954.25
510.08	18134.47
510.25	18104.04
510.42	18452.78
510.60	18377.89
510.77	18490.23
510.95	18551.09
511.12	18274.90
511.30	18354.48
511.47	18541.72
511.64	18492.57
511.82	18984.09
511.99	18871.74
512.17	18738.33
512.34	18560.45
512.51	19171.33
512.69	18885.78
512.86	18778.12
513.04	19316.44
513.21	19016.85
513.38	19166.65
513.56	19250.91
513.73	19393.68
513.90	19534.11
514.08	19484.96
514.25	19365.59
514.43	19529.43
514.60	19208.78
514.77	19594.96
514.95	19817.32
515.12	19527.09
515.29	19803.27
515.47	19714.33
515.64	19988.18
515.81	19660.50
515.99	19955.41
516.16	20114.56
516.33	19805.61
516.51	20093.50
516.68	19641.78
516.85	19831.36
517.03	20091.16
517.20	20299.47
517.37	20140.31
517.54	20135.63
517.72	20332.23
517.89	20257.34
518.06	20325.21
518.24	20428.20
518.41	20435.22
518.58	20683.31
518.75	20531.18
518.93	20688.00
519.10	20601.40
519.27	20421.17
519.45	20673.95
519.62	20477.35
519.79	20819.07
519.96	20868.22
520.14	21118.65
520.31	20952.48
520.48	21207.59
520.65	20861.19
520.83	21315.26
521.00	21036.74
521.17	21104.61
521.34	20975.88
521.52	21195.89
521.69	21341.00
521.86	21352.71
522.03	21561.02
522.20	21493.14
522.38	21406.54
522.55	21221.64
522.72	21439.31
522.89	21853.58
523.07	21830.18
523.24	21621.87
523.41	21792.73
523.58	21645.27
523.75	21958.91
523.92	21656.98
524.10	21689.74
524.27	21741.24
524.44	22185.94
524.61	22314.67
524.78	22143.81
524.96	22515.95
525.13	22139.13
525.30	22164.87
525.47	22139.13
525.64	22185.94
525.81	22008.06
525.98	22427.01
526.16	22277.22
526.33	22644.68
526.50	22412.97
526.67	22410.63
526.84	22806.18
527.01	22530.00
527.18	22693.83
527.36	22927.89
527.53	22654.05
527.70	22860.01
527.87	22773.41
528.04	22644.68
528.21	22733.62
528.38	22593.19
528.55	22820.22
528.72	23187.69
528.89	23283.65
529.07	22937.25
529.24	23143.22
529.41	23309.40
529.58	23403.02
529.75	23159.60
529.92	23281.31
530.09	22794.48
530.26	23147.90
530.43	23178.33
530.60	23199.39
530.77	23491.96
530.94	23709.63
531.11	23318.76
531.28	23222.80
531.46	23777.50
531.63	23419.40
531.80	23697.92
531.97	23730.69
532.14	23901.55
532.31	23786.86
532.48	24056.03
532.65	23878.15
532.82	23564.51
532.99	24034.96
533.16	23777.50
533.33	24177.73
533.50	23929.64
533.67	23896.87
533.84	23838.36
534.01	24098.16
534.18	23910.91
534.35	24079.43
534.52	24088.79
534.69	24278.38
534.86	24306.46
535.03	24435.19
535.20	24002.19
535.37	24439.87
535.54	24692.65
535.71	24346.25
535.88	24215.18
536.05	24261.99
536.22	24458.60
536.38	24947.77
536.55	24624.78
536.72	24325.19
536.89	24596.69
537.06	24299.44
537.23	24629.46
537.40	24755.85
537.57	24589.67
537.74	24790.95
537.91	24641.16
538.08	25090.54
538.25	24606.05
538.42	24936.07
538.59	25130.33
538.75	24940.75
538.92	25092.88
539.09	24919.68
539.26	25160.76
539.43	25074.16
539.60	25179.48
539.77	25036.71
539.94	25364.39
540.11	25216.93
540.28	25151.40
540.44	25521.20
540.61	25350.34
540.78	25193.53
540.95	25385.45
541.12	25439.28
541.29	25481.41
541.46	25245.02
541.62	25642.91
541.79	25619.50
541.96	25273.10
542.13	25273.10
542.30	25425.24
542.47	25528.22
542.63	25638.23
542.80	25439.28
542.97	26188.25
543.14	26160.17
543.31	25638.23
543.48	26139.10
543.64	25935.48
543.81	26125.06
543.98	26087.61
544.15	26136.76
544.32	26497.20
544.48	26298.26
544.65	26087.61
544.82	25862.92
544.99	25905.05
545.16	26534.65
545.32	26059.52
545.49	26583.80
545.66	26300.60
545.83	26803.82
546.00	26532.31
546.16	26099.31
546.33	26541.68
546.50	26251.45
546.67	26359.11
546.83	26199.96
547.00	26480.82
547.17	26225.70
547.34	26513.59
547.50	26677.43
547.67	26883.39
547.84	26881.05
548.00	26962.97
548.17	26815.52
548.34	26728.92
548.51	26998.08
548.67	27063.61
548.84	26754.66
549.01	27152.55
549.18	26644.66
549.34	26977.01
549.51	26700.83
549.68	27047.23
549.84	26827.22
550.01	26867.01
550.18	26672.74
550.34	27124.47
550.51	27166.60
550.68	27080.00
550.84	26895.10
551.01	26953.61
551.18	26852.97
551.34	26808.50
551.51	27049.57
551.68	27246.18
551.84	27215.75
552.01	27225.11
552.18	27772.80
552.34	27271.92
552.51	27419.38
552.68	27285.97
552.84	27194.68
553.01	27288.31
553.18	27115.11
553.34	27482.57
553.51	27529.38
553.67	27700.24
553.84	27545.76
554.01	27641.73
554.17	27566.83
554.34	27910.89
554.51	27108.08
554.67	27761.09
554.84	27513.00
555.00	27421.72
555.17	27583.21
555.33	27653.43
555.50	27789.18
555.67	27428.74
555.83	27618.32
556.00	27936.63
556.16	27756.41
556.33	27852.38
556.50	27641.73
556.66	28023.23
556.83	27576.19
556.99	28278.35
557.16	28077.07
557.32	27882.80
557.49	28187.07
557.65	27847.69
557.82	28107.49
557.98	27466.19
558.15	28208.14
558.32	28570.92
558.48	27936.63
558.65	27840.67
558.81	28070.04
558.98	27838.33
559.14	28119.20
559.31	28011.53
559.47	28058.34
559.64	28254.95
559.80	28044.30
559.97	28325.16
560.13	28446.87
560.30	28119.20
560.46	28198.77
560.63	28208.14
560.79	28503.04
560.96	28449.21
561.12	28013.87
561.29	28294.74
561.45	28140.26
561.61	28268.99
561.78	28423.47
561.94	28154.30
562.11	28786.25
562.27	28414.10
562.44	28093.45
562.60	28517.09
562.77	28552.20
562.93	28128.56
563.10	28671.56
563.26	28430.49
563.42	28788.59
563.59	28694.97
563.75	28568.58
563.92	28460.91
564.08	28645.82
564.24	28699.65
564.41	28676.24
564.57	28638.80
564.74	28666.88
564.90	28617.73
565.07	28755.82
565.23	28652.84
565.39	28535.81
565.56	28498.36
565.72	28627.09
565.88	28615.39
566.05	28456.23
566.21	28559.22
566.38	28821.36
566.54	28697.31
566.70	29298.83
566.87	28964.13
567.03	28994.56
567.19	28893.91
567.36	28966.47
567.52	28776.89
567.68	29064.77
567.85	28643.48
568.01	28800.29
568.17	28823.70
568.34	29090.52
568.50	28561.56
568.66	28996.90
568.83	29261.38
568.99	28978.17
569.15	28587.30
569.32	28947.75
569.48	28498.36
569.64	29102.22
569.81	29003.92
569.97	28842.42
570.13	29301.17
570.30	28975.83
570.46	29116.26
570.62	29186.48
570.78	28907.96
570.95	28863.49
571.11	28952.43
571.27	28533.47
571.43	29013.28
571.60	28821.36
571.76	29216.91
571.92	29305.85
572.09	29343.30
572.25	29256.70
572.41	29118.60
572.57	29022.64
572.74	29151.37
572.90	29003.92
573.06	29134.99
573.22	28896.25
573.38	28987.53
573.55	29668.63
573.71	29326.91
573.87	28917.32
574.03	29649.91
574.20	28772.21
574.36	28929.02
574.52	29081.16
574.68	28823.70
574.84	29411.17
575.01	29443.94
575.17	29111.58
575.33	29184.14
575.49	29177.12
575.65	29598.41
575.82	29474.37
575.98	28893.91
576.14	29039.03
576.30	29275.42
576.46	29200.52
576.62	28755.82
576.79	29277.76
576.95	29329.25
577.11	29289.46
577.27	29455.64
577.43	28973.49
577.59	29432.24
577.75	29069.45
577.92	28985.19
578.08	29261.38
578.24	29125.63
578.40	29104.56
578.56	29106.90
578.72	29233.29
578.88	29972.90
579.04	29549.26
579.21	29486.07
579.37	29235.63
579.53	29312.87
579.69	29472.03
579.85	29329.25
580.01	29310.53
580.17	28882.21
580.33	29453.30
580.49	29149.03
580.65	29090.52
580.82	29060.09
580.98	29207.55
581.14	29261.38
581.30	29673.31
581.46	29495.43
581.62	28968.81
581.78	29144.35
581.94	29380.74
582.10	29287.12
582.26	29254.36
582.42	29324.57
582.58	29422.87
582.74	29734.17
582.90	29584.37
583.06	29486.07
583.22	29310.53
583.38	29347.98
583.54	28994.56
583.70	29429.90
583.86	29371.38
584.02	29149.03
584.18	29565.65
584.34	29785.66
584.50	29432.24
584.66	29436.92
584.82	29439.26
584.98	29575.01
585.14	29090.52
585.30	29240.31
585.46	29376.06
585.62	29411.17
585.78	29509.47
585.94	29252.02
586.10	29628.84
586.26	29223.93
586.42	29694.38
586.58	29652.25
586.74	29537.56
586.90	29488.41
587.06	28797.95
587.22	29284.78
587.38	29429.90
587.54	29652.25
587.70	29661.61
587.86	29411.17
588.02	30017.37
588.18	29582.03
588.34	29984.60
588.49	29685.01
588.65	29645.23
588.81	29434.58
588.97	29479.05
589.13	29252.02
589.29	29603.10
589.45	29535.22
589.61	29656.93
589.77	29886.30
589.93	29401.81
590.08	29930.77
590.24	29811.40
590.40	29853.53
590.56	29596.07
590.72	29429.90
590.88	29535.22
591.04	29486.07
591.20	29731.83
591.35	30017.37
591.51	30094.61
591.67	29949.50
591.83	30122.69
591.99	29752.89
592.15	29848.85
592.31	29935.45
592.46	29788.00
592.62	29647.57
592.78	29734.17
592.94	29549.26
593.10	29558.63
593.26	29804.38
593.41	29874.60
593.57	30019.71
593.73	30003.33
593.89	29617.14
594.05	29813.74
594.20	30160.14
594.36	29961.20
594.52	29823.11
594.68	29949.50
594.84	29439.26
594.99	30211.64
595.15	30026.73
595.31	30162.48
595.47	30291.21
595.62	30157.80
595.78	30089.93
595.94	30153.12
596.10	29912.05
596.25	29930.77
596.41	29551.60
596.57	29799.70
596.73	29806.72
596.88	29600.76
597.04	30155.46
597.20	30132.06
597.36	30150.78
597.51	30302.92
597.67	29928.43
597.83	29986.94
597.99	29862.90
598.14	29876.94
598.30	29778.64
598.46	29490.75
598.61	29727.14
598.77	29362.02
598.93	30178.87
599.09	29776.30
599.24	30202.27
599.40	30190.57
599.56	30508.88
599.71	29853.53
599.87	30433.99
600.03	30047.80
600.18	29771.61
600.34	29736.51
600.50	29762.25
600.65	29804.38
600.81	30246.74
600.97	29998.65
601.12	30057.16
601.28	30312.28
601.44	29841.83
601.59	30293.55
601.75	29689.70
601.91	29736.51
602.06	29780.98
602.22	30167.16
602.37	29921.41
602.53	30022.05
602.69	29785.66
602.84	30192.91
603.00	29865.24
603.16	30043.12
603.31	29926.09
603.47	30279.51
603.62	30288.87
603.78	30052.48
603.94	29991.62
604.09	29916.73
604.25	29930.77
604.40	29820.77
604.56	30005.67
604.71	30597.82
604.87	30005.67
605.03	30071.20
605.18	29937.79
605.34	30108.65
605.49	29874.60
605.65	29949.50
605.80	29823.11
605.96	30096.95
606.12	29886.30
606.27	30022.05
606.43	29888.64
606.58	29965.88
606.74	29659.27
606.89	29820.77
607.05	30005.67
607.20	30239.72
607.36	29830.13
607.51	29851.19
607.67	29773.95
607.82	29603.10
607.98	29759.91
608.13	29869.92
608.29	29755.23
608.44	29792.68
608.60	29563.31
608.75	30101.63
608.91	30059.50
609.06	29883.96
609.22	30087.59
609.37	29378.40
609.53	29362.02
609.68	29914.39
609.84	29378.40
609.99	29383.09
610.15	29780.98
610.30	29610.12
610.46	29713.10
610.61	29418.19
610.76	29762.25
610.92	29783.32
611.07	29961.20
611.23	29490.75
611.38	29490.75
611.54	29446.28
611.69	29766.93
611.84	29483.73
612.00	29319.89
612.15	29570.33
612.31	29514.16
612.46	29563.31
612.62	29872.26
612.77	29362.02
612.92	29811.40
613.08	29446.28
613.23	29347.98
613.39	29266.06
613.54	29275.42
613.69	29450.96
613.85	29656.93
614.00	29275.42
614.15	29228.61
614.31	29120.95
614.46	29177.12
614.62	29549.26
614.77	29249.67
614.92	29439.26
615.08	29008.60
615.23	29364.36
615.38	29582.03
615.54	29127.97
615.69	29088.18
615.84	29399.47
616.00	29104.56
616.15	29216.91
616.30	28910.30
616.46	29198.18
616.61	29160.73
616.76	29118.60
616.92	29106.90
617.07	29237.97
617.22	28816.68
617.37	28851.78
617.53	29277.76
617.68	28622.41
617.83	28720.71
617.99	28858.81
618.14	28886.89
618.29	29158.39
618.45	28821.36
618.60	28900.94
618.75	28788.59
618.90	29090.52
619.06	28821.36
619.21	28716.03
619.36	28982.85
619.51	28624.75
619.67	28474.96
619.82	28577.94
619.97	28659.86
620.12	28704.33
620.28	28980.51
620.43	28842.42
620.58	29013.28
620.73	28950.09
620.89	29106.90
621.04	28996.90
621.19	28912.64
621.34	28905.62
621.49	28676.24
621.65	28556.88
621.80	28940.72
621.95	28467.94
622.10	28655.18
622.25	28517.09
622.41	28879.87
622.56	28591.98
622.71	28673.90
622.86	28687.95
623.01	28814.34
623.16	28540.49
623.32	28229.20
623.47	28573.26
623.62	28582.62
623.77	28290.06
623.92	28584.96
624.07	28631.77
624.23	28676.24
624.38	28491.34
624.53	28524.11
624.68	28669.22
624.83	28486.66
624.98	28266.65
625.13	28240.90
625.29	28657.52
625.44	28491.34
625.59	28065.36
625.74	28292.40
625.89	28479.64
626.04	27962.38
626.19	28329.84
626.34	28215.16
626.49	28369.63
626.65	27988.13
626.80	28414.10
626.95	28240.90
627.10	27707.26
627.25	28362.61
627.40	28203.46
627.55	28154.30
627.70	27845.35
627.85	28030.26
628.00	27887.48
628.15	27765.78
628.30	27651.09
628.45	27735.35
628.60	27948.34
628.76	27674.49
628.91	27646.41
629.06	27718.96
629.21	27721.30
629.36	28086.43
629.51	27765.78
629.66	27449.80
629.81	27924.93
629.96	27161.92
630.11	27620.66
630.26	27744.71
630.41	27620.66
630.56	27281.28
630.71	27992.81
630.86	27665.13
631.01	27391.29
631.16	28020.89
631.31	27672.15
631.46	27562.15
631.61	27646.41
631.76	27826.63
631.91	27527.04
632.06	27300.01
632.21	27606.62
632.36	27372.57
632.51	27358.52
632.66	27744.71
632.81	27580.87
632.96	27529.38
633.10	27438.10
633.25	27931.95
633.40	27145.53
633.55	27580.87
633.70	27440.44
633.85	26813.18
634.00	26998.08
634.15	27136.17
634.30	27211.07
634.45	27087.02
634.60	27302.35
634.75	27075.32
634.90	27227.45
635.05	27091.70
635.19	27145.53
635.34	27126.81
635.49	27213.41
635.64	27360.86
635.79	27075.32
635.94	27122.13
636.09	26801.47
636.24	27136.17
636.39	26890.41
636.53	26939.57
636.68	26862.33
636.83	26565.08
636.98	27386.61
637.13	27007.44
637.28	26871.69
637.43	27089.36
637.57	27096.38
637.72	26658.70
637.87	26991.06
638.02	26677.43
638.17	26693.81
638.32	26731.26
638.46	26581.46
638.61	26698.49
638.76	26707.85
638.91	26747.64
639.06	26632.96
639.20	26412.95
639.35	26780.41
639.50	26581.46
639.65	26918.50
639.80	26815.52
639.94	26796.79
640.09	26836.58
640.24	26544.02
640.39	26611.89
640.54	26059.52
640.68	26450.39
640.83	26373.16
640.98	26139.10
641.13	26309.96
641.27	26775.73
641.42	26445.71
641.57	26249.11
641.72	26279.54
641.86	26066.55
642.01	26515.93
642.16	26265.49
642.31	26031.44
642.45	26218.68
642.60	26230.38
642.75	26291.24
642.90	26052.50
643.04	26206.98
643.19	26176.55
643.34	26302.94
643.48	26237.41
643.63	25968.24
643.78	26129.74
643.93	26260.81
644.07	26251.45
644.22	26176.55
644.37	26319.32
644.51	26089.95
644.66	25888.67
644.81	25727.17
644.95	25979.95
645.10	25848.88
645.25	25881.64
645.39	26284.22
645.54	25986.97
645.69	25872.28
645.83	25706.10
645.98	25865.26
646.13	25666.31
646.27	26148.46
646.42	26045.48
646.57	26132.08
646.71	25799.73
646.86	25715.47
647.00	25694.40
647.15	25848.88
647.30	25937.82
647.44	25668.66
647.59	25558.65
647.74	25734.19
647.88	25717.81
648.03	25560.99
648.17	26015.05
648.32	26008.03
648.47	25701.42
648.61	25928.45
648.76	25668.66
648.90	25558.65
649.05	25427.58
649.20	25488.43
649.34	25682.70
649.49	25200.55
649.63	25069.48
649.78	25535.24
649.92	25359.70
650.07	25556.31
650.21	25008.62
650.36	25422.90
650.51	25600.78
650.65	25659.29
650.80	25448.64
650.94	25500.14
651.09	25317.57
651.23	24893.94
651.38	25280.13
651.52	25247.36
651.67	25151.40
651.81	25076.50
651.96	25123.31
652.10	25455.67
652.25	25050.75
652.39	25202.89
652.54	25476.73
652.68	25104.59
652.83	25017.99
652.97	25619.50
653.12	25088.20
653.26	24943.09
653.41	25443.96
653.55	25259.06
653.70	25071.82
653.84	24900.96
653.99	25106.93
654.13	24989.90
654.27	24966.49
654.42	25116.29
654.56	24989.90
654.71	24987.56
654.85	25355.02
655.00	25069.48
655.14	24943.09
655.29	24699.67
655.43	25123.31
655.57	24746.48
655.72	24641.16
655.86	24528.81
656.01	24819.04
656.15	24662.22
656.30	24826.06
656.44	24666.91
656.58	24882.24
656.73	24744.14
656.87	24573.28
657.01	24739.46
657.16	24753.51
657.30	24959.47
657.45	24816.70
657.59	24636.48
657.73	24662.22
657.88	24517.11
658.02	24100.50
658.16	24294.76
658.31	24669.25
658.45	24472.64
658.60	24381.36
658.74	24634.14
658.88	24224.54
659.03	24294.76
659.17	24266.67
659.31	24259.65
659.46	24456.26
659.60	24542.86
659.74	24414.13
659.89	24472.64
660.03	23843.04
660.17	24091.13
660.32	24205.82
660.46	24020.92
660.60	24049.00
660.74	24027.94
660.89	23964.75
661.03	23669.84
661.17	23836.02
661.32	24332.21
661.46	23768.14
661.60	23936.66
661.74	23924.96
661.89	24013.90
662.03	24299.44
662.17	23616.01
662.31	23264.92
662.46	23754.10
662.60	23726.01
662.74	23873.46
662.88	23606.64
663.03	23393.65
663.17	23175.98
663.31	23510.68
663.45	23367.91
663.60	23410.04
663.74	23449.83
663.88	23215.77
664.02	23133.86
664.17	23667.50
664.31	23087.04
664.45	23140.88
664.59	22941.93
664.73	23281.31
664.88	23531.75
665.02	22799.16
665.16	22948.95
665.30	22937.25
665.44	22972.36
665.59	22862.35
665.73	22988.74
665.87	23023.85
666.01	22958.31
666.15	22930.23
666.29	22803.84
666.44	22981.72
666.58	23037.89
666.72	22787.46
666.86	22829.59
667.00	22951.29
667.14	22476.16
667.28	22740.64
667.43	22576.81
667.57	22586.17
667.71	22321.69
667.85	22576.81
667.99	22272.54
668.13	22017.42
668.27	22417.65
668.41	22693.83
668.56	22270.20
668.70	22635.32
668.84	22389.56
668.98	22466.80
669.12	22298.28
669.26	22183.60
669.40	21912.10
669.54	22253.81
669.68	22127.42
669.82	21954.22
669.96	21755.28
670.10	21790.39
670.25	21818.47
670.39	21678.04
670.53	21680.38
670.67	21720.17
670.81	22024.44
670.95	21750.60
671.09	21509.52
671.23	21553.99
671.37	21652.30
671.51	22047.85
671.65	21766.98
671.79	21851.24
671.93	21474.42
672.07	21874.65
672.21	21451.01
672.35	21249.72
672.49	21221.64
672.63	21254.40
672.77	21242.70
672.91	21226.32
673.05	21341.00
673.19	21125.68
673.33	21530.59
673.47	21120.99
673.61	21329.30
673.75	20924.39
673.89	21228.66
674.03	20940.77
674.17	20975.88
674.31	20847.15
674.45	20812.04
674.59	20891.62
674.73	21036.74
674.87	20671.61
675.01	20477.35
675.15	20599.05
675.29	20556.93
675.43	20666.93
675.56	20313.51
675.70	20304.15
675.84	20641.18
675.98	19772.85
676.12	20568.63
676.26	20439.90
676.40	20329.89
676.54	20339.26
676.68	20278.40
676.82	19819.66
676.96	20189.46
677.10	19847.74
677.23	20013.92
677.37	19463.90
677.51	19328.14
677.65	19913.28
677.79	19620.71
677.93	19908.60
678.07	19386.66
678.21	19501.34
678.34	19372.61
678.48	19346.87
678.62	19061.32
678.76	19150.26
678.90	19260.27
679.04	19281.33
679.18	19197.07
679.31	19122.18
679.45	18806.20
679.59	18808.54
679.73	18941.96
679.87	18670.45
680.00	18670.45
680.14	18487.89
680.28	18731.31
680.42	18766.42
680.56	18654.07
680.70	18317.03
680.83	18391.93
680.97	18663.43
681.11	18373.21
681.25	18452.78
681.39	18291.29
681.52	17987.02
681.66	18253.84
681.80	18183.62
681.94	18071.28
682.07	17963.61
682.21	18111.07
682.35	17916.80
682.49	17809.14
682.62	17797.43
682.76	17734.24
682.90	17785.73
683.04	17633.60
683.17	17905.10
683.31	17701.47
683.45	17774.03
683.59	17516.57
683.72	17507.21
683.86	17291.88
684.00	17394.86
684.13	17418.27
684.27	17135.06
684.41	16893.99
684.55	17053.14
684.68	16727.81
684.82	16767.60
684.96	16690.36
685.09	16851.86
685.23	16657.59
685.37	16924.41
685.50	16634.19
685.64	17053.14
685.78	16795.68
685.91	16753.55
686.05	16662.27
686.19	16606.10
686.32	16425.88
686.46	16264.38
686.60	16112.25
686.73	16402.47
686.87	16060.76
687.01	15899.26
687.14	15962.45
687.28	15824.36
687.42	15917.98
687.55	15932.03
687.69	16046.71
687.82	15740.10
687.96	15728.40
688.10	15665.21
688.23	15662.86
688.37	15702.65
688.50	15534.14
688.64	15597.33
688.78	15515.41
688.91	15250.93
689.05	15466.26
689.18	15419.45
689.32	14747.72
689.46	15236.89
689.59	15012.20
689.73	15059.01
689.86	14909.21
690.00	14743.03
690.13	14972.41
690.27	14949.00
690.41	14752.40
690.54	14726.65
690.68	14696.22
690.81	14792.19
690.95	14824.95
691.08	14869.42
691.22	14609.62
691.35	14602.60
691.49	14588.56
691.62	14469.19
691.76	14391.95
691.89	14256.20
692.03	14160.24
692.16	13898.10
692.30	13832.57
692.43	13841.93
692.57	13912.14
692.70	13984.70
692.84	13980.02
692.97	13818.52
693.11	13727.24
693.24	13853.63
693.38	13881.72
693.51	13547.02
693.65	13610.22
693.78	13572.77
693.92	13661.71
694.05	13390.20
694.19	13268.50
694.32	13497.87
694.45	13357.44
694.59	13132.75
694.72	13036.78
694.86	13081.25
694.99	12807.41
695.13	12966.57
695.26	12992.31
695.39	12613.15
695.53	13046.15
695.66	12966.57
695.80	12812.09
695.93	12943.16
696.07	12568.68
696.20	12886.99
696.33	12844.86
696.47	12582.72
696.60	12709.11
696.73	12449.31
696.87	12496.12
697.00	12453.99
697.14	12400.16
697.27	12259.73
697.40	12023.33
697.54	12028.01
697.67	11969.50
697.80	12123.98
697.94	11913.33
698.07	11784.60
698.21	11690.98
698.34	11885.24
698.47	11892.26
698.61	11812.68
698.74	11882.90
698.87	11665.23
699.01	11508.41
699.14	11370.32
699.27	11323.51
699.40	11428.84
699.54	11389.05
699.67	11375.00
699.80	11098.82
699.94	11222.87
700.07	11307.13
700.20	11000.52
700.34	11021.58
700.47	11023.92
700.60	10953.71
700.73	11087.12
700.87	11094.14
701.00	10925.62
701.13	11115.20
701.26	10988.82
701.40	10963.07
701.53	10916.26
701.66	10705.61
701.79	10623.69
701.93	10644.76
702.06	10422.41
702.19	10651.78
702.32	10619.01
702.46	10286.65
702.59	10230.48
702.72	10157.92
702.85	10216.44
702.99	10136.86
703.12	10118.14
703.25	10122.82
703.38	10183.67
703.51	10125.16
703.65	9757.69
703.78	9944.94
703.91	10153.24
704.04	9914.51
704.17	10010.47
704.31	9837.27
704.44	9633.64
704.57	9731.95
704.70	9673.43
704.83	9338.74
704.96	9518.96
705.10	9439.38
705.23	9282.56
>>>>>End Processed Spectral Data<<<<<
