SpectraSuite Data File
++++++++++++++++++++++++++++++++++++
Date: Fri Oct 18 13:58:39 GMT-05:00 2013
User: bianchi
Dark Spectrum Present: No
Reference Spectrum Present: No
Number of Sampled Component Spectra: 1
Spectrometers: USB2+H05261
Integration Time (usec): 50000 (USB2+H05261)
Spectra Averaged: 1 (USB2+H05261)
Boxcar Smoothing: 0 (USB2+H05261)
Correct for Electrical Dark: No (USB2+H05261)
Strobe/Lamp Enabled: No (USB2+H05261)
Correct for Detector Non-linearity: No (USB2+H05261)
Correct for Stray Light: No (USB2+H05261)
Number of Pixels in Processed Spectrum: 2048
>>>>>Begin Processed Spectral Data<<<<<
365.73	0.00
365.92	0.00
366.12	0.00
366.32	0.00
366.52	0.00
366.72	0.00
366.91	0.00
367.11	0.00
367.31	0.00
367.51	0.00
367.70	0.00
367.90	0.00
368.10	0.00
368.30	0.00
368.49	0.00
368.69	0.00
368.89	0.00
369.09	0.00
369.28	0.00
369.48	0.00
369.68	0.00
369.87	0.00
370.07	0.00
370.27	0.00
370.47	0.00
370.66	112.35
370.86	72.56
371.06	161.50
371.25	110.01
371.45	119.37
371.65	177.88
371.84	88.94
372.04	159.16
372.24	154.48
372.44	163.84
372.63	102.98
372.83	222.35
373.03	191.92
373.22	280.86
373.42	198.95
373.62	187.24
373.81	222.35
374.01	203.63
374.21	243.42
374.40	203.63
374.60	280.86
374.79	280.86
374.99	229.37
375.19	175.54
375.38	215.33
375.58	280.86
375.78	161.50
375.97	248.10
376.17	248.10
376.37	234.05
376.56	241.08
376.76	245.76
376.95	285.55
377.15	330.02
377.35	271.50
377.54	248.10
377.74	243.42
377.93	238.73
378.13	245.76
378.33	259.80
378.52	234.05
378.72	372.15
378.91	346.40
379.11	313.63
379.31	367.46
379.50	259.80
379.70	327.68
379.89	332.36
380.09	297.25
380.28	306.61
380.48	248.10
380.68	360.44
380.87	280.86
381.07	325.33
381.26	395.55
381.46	365.12
381.65	332.36
381.85	355.76
382.04	358.10
382.24	369.80
382.43	318.31
382.63	306.61
382.83	334.70
383.02	379.17
383.22	393.21
383.41	318.31
383.61	362.78
383.80	388.53
384.00	400.23
384.19	416.62
384.39	332.36
384.58	304.27
384.78	365.12
384.97	435.34
385.17	332.36
385.36	388.53
385.56	358.10
385.75	337.04
385.95	381.51
386.14	400.23
386.34	393.21
386.53	390.87
386.72	407.25
386.92	411.93
387.11	449.38
387.31	402.57
387.50	372.15
387.70	461.09
387.89	461.09
388.09	465.77
388.28	468.11
388.48	315.97
388.67	491.51
388.86	442.36
389.06	468.11
389.25	447.04
389.45	428.32
389.64	433.00
389.84	514.92
390.03	447.04
390.22	463.43
390.42	538.32
390.61	505.56
390.81	477.47
391.00	512.58
391.19	500.87
391.39	482.15
391.58	540.66
391.78	409.59
391.97	561.73
392.16	550.03
392.36	638.97
392.55	528.96
392.75	575.77
392.94	517.26
393.13	585.13
393.33	510.24
393.52	468.11
393.71	512.58
393.91	507.90
394.10	573.43
394.29	540.66
394.49	568.75
394.68	578.11
394.88	545.34
395.07	655.35
395.26	580.45
395.46	575.77
395.65	716.20
395.84	669.39
396.04	653.01
396.23	641.31
396.42	641.31
396.62	578.11
396.81	500.87
397.00	566.41
397.19	648.33
397.39	610.88
397.58	678.76
397.77	645.99
397.97	713.86
398.16	704.50
398.35	662.37
398.55	648.33
398.74	746.63
398.93	702.16
399.12	713.86
399.32	643.65
399.51	725.57
399.70	699.82
399.90	737.27
400.09	800.46
400.28	713.86
400.47	737.27
400.67	755.99
400.86	791.10
401.05	781.74
401.24	720.88
401.44	889.40
401.63	861.32
401.82	758.33
402.01	767.70
402.21	709.18
402.40	777.06
402.59	828.55
402.78	828.55
402.97	875.36
403.17	802.80
403.36	884.72
403.55	952.60
403.74	882.38
403.93	924.51
404.13	896.43
404.32	952.60
404.51	858.98
404.70	887.06
404.89	908.13
405.09	1001.75
405.28	978.34
405.47	926.85
405.66	931.53
405.85	968.98
406.05	1043.88
406.24	994.73
406.43	1048.56
406.62	1008.77
406.81	1076.65
407.00	943.24
407.20	945.58
407.39	1008.77
407.58	1107.07
407.77	1107.07
407.96	1015.79
408.15	1067.28
408.34	1064.94
408.54	1060.26
408.73	1004.09
408.92	1078.99
409.11	1137.50
409.30	1144.52
409.49	1125.80
409.68	1130.48
409.87	1123.46
410.07	1210.06
410.26	1172.61
410.45	1156.22
410.64	1118.78
410.83	1214.74
411.02	1224.10
411.21	1256.87
411.40	1179.63
411.59	1177.29
411.78	1247.51
411.98	1226.44
412.17	1280.27
412.36	1322.40
412.55	1338.79
412.74	1371.55
412.93	1348.15
413.12	1235.80
413.31	1411.34
413.50	1263.89
413.69	1273.25
413.88	1416.02
414.07	1322.40
414.26	1397.30
414.45	1423.05
414.64	1380.92
414.83	1448.79
415.02	1418.36
415.22	1603.27
415.41	1577.52
415.60	1495.60
415.79	1621.99
415.98	1584.54
416.17	1582.20
416.36	1486.24
416.55	1575.18
416.74	1633.69
416.93	1682.85
417.12	1699.23
417.31	1717.95
417.50	1575.18
417.69	1736.68
417.88	1727.32
418.07	1741.36
418.26	1799.87
418.45	1682.85
418.64	1856.04
418.83	1671.14
419.02	1778.81
419.21	1743.70
419.39	1881.79
419.58	1792.85
419.77	1778.81
419.96	1799.87
420.15	1870.09
420.34	1687.53
420.53	1919.24
420.72	1874.77
420.91	1865.41
421.10	1996.48
421.29	1991.80
421.48	1858.39
421.67	1984.77
421.86	1942.64
422.05	1832.64
422.24	1902.86
422.43	1851.36
422.61	1930.94
422.80	1998.82
422.99	1984.77
423.18	1961.37
423.37	1987.11
423.56	2038.61
423.75	1921.58
423.94	1994.14
424.13	1888.81
424.32	1968.39
424.50	2064.35
424.69	2059.67
424.88	2113.50
425.07	2040.95
425.26	1923.92
425.45	1928.60
425.64	2080.74
425.83	1977.75
426.01	2069.03
426.20	2062.01
426.39	2050.31
426.58	2153.29
426.77	2052.65
426.96	2125.21
427.15	2057.33
427.33	2129.89
427.52	2059.67
427.71	2181.38
427.90	2066.69
428.09	2141.59
428.28	2111.16
428.46	2221.17
428.65	2267.98
428.84	2289.04
429.03	2279.68
429.22	2118.18
429.40	2253.94
429.59	2136.91
429.78	2179.04
429.97	2143.93
430.16	2251.60
430.34	2331.17
430.53	2413.09
430.72	2279.68
430.91	2200.10
431.10	2293.72
431.28	2361.60
431.47	2338.20
431.66	2401.39
431.85	2328.83
432.03	2389.69
432.22	2422.45
432.41	2469.27
432.60	2466.92
432.79	2485.65
432.97	2415.43
433.16	2375.64
433.35	2541.82
433.54	2576.93
433.72	2495.01
433.91	2548.84
434.10	2523.10
434.28	2466.92
434.47	2525.44
434.66	2539.48
434.85	2455.22
435.03	2513.74
435.22	2668.21
435.41	2665.87
435.59	2642.46
435.78	2466.92
435.97	2644.81
436.16	2614.38
436.34	2637.78
436.53	2595.65
436.72	2729.06
436.90	2757.15
437.09	2609.70
437.28	2712.68
437.46	2700.98
437.65	2682.25
437.84	2839.07
438.02	2759.49
438.21	2738.43
438.40	2759.49
438.58	2754.81
438.77	2888.22
438.96	2850.77
439.14	2899.92
439.33	2862.48
439.52	2869.50
439.70	3007.59
439.89	2998.23
440.08	2937.37
440.26	3059.08
440.45	3042.70
440.63	3059.08
440.82	3028.65
441.01	3056.74
441.19	2998.23
441.38	3141.00
441.57	3222.92
441.75	3225.26
441.94	3204.19
442.12	3274.41
442.31	3265.05
442.50	3297.81
442.68	3185.47
442.87	3262.71
443.05	3309.52
443.24	3243.98
443.43	3309.52
443.61	3304.84
443.80	3435.91
443.98	3262.71
444.17	3208.87
444.35	3414.84
444.54	3485.06
444.73	3311.86
444.91	3478.04
445.10	3396.12
445.28	3316.54
445.47	3304.84
445.65	3281.43
445.84	3405.48
446.02	3471.01
446.21	3475.70
446.39	3405.48
446.58	3456.97
446.77	3403.14
446.95	3368.03
447.14	3372.71
447.32	3550.59
447.51	3356.33
447.69	3466.33
447.88	3463.99
448.06	3426.54
448.25	3543.57
448.43	3501.44
448.62	3396.12
448.80	3475.70
448.99	3463.99
449.17	3613.79
449.36	3503.78
449.54	3595.06
449.73	3669.96
449.91	3712.09
450.10	3637.19
450.28	3747.20
450.46	3676.98
450.65	3651.24
450.83	3758.90
451.02	3590.38
451.20	3735.50
451.39	3791.67
451.57	3801.03
451.76	3777.62
451.94	3805.71
452.13	3974.23
452.31	3822.09
452.49	3808.05
452.68	3796.35
452.86	3770.60
453.05	3786.99
453.23	3786.99
453.42	3819.75
453.60	3878.27
453.78	3875.93
453.97	3838.48
454.15	3960.19
454.34	3836.14
454.52	3932.10
454.70	3913.38
454.89	3967.21
455.07	3918.06
455.26	3978.91
455.44	4126.36
455.62	4025.72
455.81	4063.17
455.99	4032.74
456.17	4299.56
456.36	4102.96
456.54	4102.96
456.73	4070.19
456.91	4341.69
457.09	4180.20
457.28	4414.25
457.46	4341.69
457.64	4222.33
457.83	4489.15
458.01	4229.35
458.19	4327.65
458.38	4264.46
458.56	4451.70
458.74	4444.68
458.93	4397.87
459.11	4358.08
459.29	4430.63
459.48	4432.97
459.66	4482.13
459.84	4329.99
460.03	4704.48
460.21	4496.17
460.39	4627.24
460.57	4432.97
460.76	4442.34
460.94	4615.54
461.12	4620.22
461.31	4631.92
461.49	4542.98
461.67	4683.41
461.85	4730.22
462.04	4688.09
462.22	4821.50
462.40	4636.60
462.59	4781.71
462.77	4713.84
462.95	4929.17
463.13	4575.75
463.32	4751.29
463.50	4802.78
463.68	4954.91
463.86	4823.84
464.05	4734.90
464.23	4723.20
464.41	4807.46
464.59	4856.61
464.78	4987.68
464.96	4873.00
465.14	4751.29
465.32	4919.81
465.50	4896.40
465.69	4847.25
465.87	4882.36
466.05	4950.23
466.23	4873.00
466.41	5039.17
466.60	5184.29
466.78	4954.91
466.96	5071.94
467.14	5076.62
467.32	5174.92
467.51	5093.01
467.69	5006.41
467.87	5146.84
468.05	5165.56
468.23	5043.85
468.41	4999.38
468.60	5160.88
468.78	5032.15
468.96	5085.98
469.14	5310.68
469.32	5404.30
469.50	5252.16
469.69	5462.81
469.87	5261.52
470.05	5371.53
470.23	5394.93
470.41	5296.63
470.59	5348.12
470.77	5401.96
470.95	5334.08
471.14	5610.26
471.32	5406.64
471.50	5542.39
471.68	5554.09
471.86	5533.03
472.04	5682.82
472.22	5769.42
472.40	5561.11
472.58	5523.66
472.77	5722.61
472.95	5746.02
473.13	6036.24
473.31	5884.11
473.49	5783.46
473.67	5956.66
473.85	5820.91
474.03	6078.37
474.21	5991.77
474.39	6064.33
474.57	6059.65
474.75	6022.20
474.93	6132.20
475.12	6193.06
475.30	6061.99
475.48	6052.63
475.66	6157.95
475.84	6134.54
476.02	6457.54
476.20	6420.09
476.38	6399.02
476.56	6438.81
476.74	6445.84
476.92	6401.37
477.10	6399.02
477.28	6593.29
477.46	6555.84
477.64	6595.63
477.82	6651.80
478.00	6930.33
478.18	7087.14
478.36	6942.03
478.54	7030.97
478.72	7094.16
478.90	6855.43
479.08	7005.22
479.26	7400.77
479.44	7019.27
479.62	7258.00
479.80	7396.09
479.98	7466.31
480.16	7344.60
480.34	7494.40
480.52	7632.49
480.70	7428.86
480.88	7742.49
481.06	7482.69
481.24	7702.70
481.41	7669.94
481.59	8067.83
481.77	7936.76
481.95	7915.69
482.13	8093.57
482.31	7918.03
482.49	8074.85
482.67	8140.38
482.85	8344.01
483.03	8519.55
483.21	8498.49
483.39	8615.51
483.57	8428.27
483.74	8610.83
483.92	8557.00
484.10	8922.12
484.28	9020.42
484.46	9004.04
484.64	8931.48
484.82	8826.16
485.00	9146.81
485.18	9221.71
485.35	9282.56
485.53	9149.15
485.71	9392.57
485.89	9689.82
486.07	9554.07
486.25	9572.79
486.43	9650.03
486.61	9640.67
486.78	9699.18
486.96	9930.89
487.14	9956.64
487.32	9963.66
487.50	9928.55
487.68	10216.44
487.85	10202.40
488.03	10326.44
488.21	10614.33
488.39	10623.69
488.57	10492.62
488.75	10623.69
488.92	10717.31
489.10	10630.71
489.28	10738.38
489.46	10832.00
489.64	10754.76
489.81	11049.67
489.99	11108.18
490.17	11314.15
490.35	11218.19
490.53	11400.75
490.70	11508.41
490.88	11637.14
491.06	11826.73
491.24	11618.42
491.41	11648.85
491.59	11763.53
491.77	11868.86
491.95	12142.70
492.13	12011.63
492.30	12203.55
492.48	12231.64
492.66	12393.14
492.84	12241.00
493.01	12484.42
493.19	12271.43
493.37	12760.60
493.54	12638.89
493.72	12765.28
493.90	12758.26
494.08	12877.63
494.25	13233.39
494.43	13011.04
494.61	13261.48
494.79	13231.05
494.96	13331.69
495.14	13289.56
495.32	13554.04
495.49	13259.13
495.67	13462.76
495.85	13734.26
496.02	13750.65
496.20	14068.96
496.38	13708.52
496.55	13905.12
496.73	13987.04
496.91	14017.47
497.09	14083.00
497.26	13870.01
497.44	14176.62
497.62	14132.15
497.79	14333.44
497.97	14284.29
498.14	14579.20
498.32	14757.08
498.50	14633.03
498.67	14684.52
498.85	14485.58
499.03	14728.99
499.20	14775.80
499.38	14792.19
499.56	14916.23
499.73	15108.16
499.91	15164.33
500.08	15257.95
500.26	15023.90
500.44	15480.30
500.61	15543.50
500.79	15339.87
500.97	15506.05
501.14	15616.05
501.32	15637.12
501.49	15428.81
501.67	15786.91
501.84	15777.55
502.02	15779.89
502.20	15822.02
502.37	16095.86
502.55	15873.51
502.72	15962.45
502.90	16016.29
503.07	16081.82
503.25	16184.80
503.43	15990.54
503.60	16446.94
503.78	16430.56
503.95	16126.29
504.13	16402.47
504.30	16503.12
504.48	16659.93
504.65	16339.28
504.83	16673.98
505.01	17151.45
505.18	16723.13
505.36	16996.97
505.53	16774.62
505.71	16678.66
505.88	16863.56
506.06	16821.43
506.23	17085.91
506.41	17121.02
506.58	17422.95
506.76	17221.66
506.93	17163.15
507.11	17104.64
507.28	17600.83
507.46	17444.01
507.63	17324.65
507.81	17881.69
507.98	17607.85
508.16	17724.88
508.33	17612.53
508.50	17685.09
508.68	18003.40
508.85	17921.48
509.03	18029.15
509.20	18003.40
509.38	17942.55
509.55	18345.12
509.73	18452.78
509.90	18185.96
510.08	18188.30
510.25	18111.07
510.42	17909.78
510.60	18569.81
510.77	18541.72
510.95	18689.18
511.12	18656.41
511.30	18443.42
511.47	18520.66
511.64	18738.33
511.82	18740.67
511.99	18874.08
512.17	18918.55
512.34	18579.17
512.51	19000.47
512.69	18998.13
512.86	19094.09
513.04	19407.72
513.21	19253.25
513.38	19016.85
513.56	19405.38
513.73	19389.00
513.90	18932.59
514.08	19613.69
514.25	19227.50
514.43	19398.36
514.60	19410.06
514.77	19552.84
514.95	19868.81
515.12	19789.23
515.29	19637.09
515.47	19901.58
515.64	20107.54
515.81	19924.98
515.99	20353.30
516.16	20222.23
516.33	19971.79
516.51	20102.86
516.68	19969.45
516.85	20325.21
517.03	19999.88
517.20	20294.79
517.37	20210.53
517.54	20367.34
517.72	20566.29
517.89	20580.33
518.06	20287.76
518.24	20460.96
518.41	20456.28
518.58	20531.18
518.75	20552.24
518.93	20814.38
519.10	20748.85
519.27	20772.25
519.45	21165.46
519.62	20856.51
519.79	20554.58
519.96	20872.90
520.14	21039.08
520.31	20849.49
520.48	21322.28
520.65	20996.95
520.83	21186.53
521.00	21123.33
521.17	21249.72
521.34	21259.09
521.52	21181.85
521.69	21219.30
521.86	21715.49
522.03	21467.39
522.20	21633.57
522.38	21642.93
522.55	21539.95
522.72	21507.18
522.89	21795.07
523.07	22113.38
523.24	21884.01
523.41	21846.56
523.58	22015.08
523.75	22033.80
523.92	21881.67
524.10	22160.19
524.27	21909.75
524.44	21970.61
524.61	22815.54
524.78	22363.82
524.96	22410.63
525.13	22457.44
525.30	22525.32
525.47	22398.93
525.64	22394.25
525.81	22558.08
525.98	22125.08
526.16	22684.47
526.33	22410.63
526.50	22970.02
526.67	22466.80
526.84	22764.05
527.01	22679.79
527.18	22632.98
527.36	22972.36
527.53	23080.02
527.70	23232.16
527.87	22885.76
528.04	23112.79
528.21	23246.20
528.38	22939.59
528.55	23026.19
528.72	23178.33
528.89	23026.19
529.07	22965.34
529.24	22960.66
529.41	23145.56
529.58	23569.19
529.75	22862.35
529.92	23101.09
530.09	23183.01
530.26	23337.48
530.43	23475.57
530.60	23538.77
530.77	23405.36
530.94	23821.97
531.11	23363.23
531.28	23651.11
531.46	23672.18
531.63	23583.24
531.80	23922.62
531.97	23772.82
532.14	24039.64
532.31	23892.19
532.48	23871.12
532.65	24102.84
532.82	23786.86
532.99	24135.60
533.16	24027.94
533.33	24077.09
533.50	24247.95
533.67	24395.40
533.84	24224.54
534.01	24187.10
534.18	23934.32
534.35	24421.15
534.52	24271.36
534.69	24449.24
534.86	24474.98
535.03	24374.34
535.20	24276.04
535.37	24507.75
535.54	24219.86
535.71	24198.80
535.88	24561.58
536.05	24430.51
536.22	24596.69
536.38	24840.11
536.55	24437.53
536.72	24587.33
536.89	24830.74
537.06	24739.46
537.23	24915.00
537.40	25022.67
537.57	24968.84
537.74	24865.85
537.91	25191.19
538.08	24797.98
538.25	24776.91
538.42	24968.84
538.59	25188.85
538.75	25060.12
538.92	24950.11
539.09	24851.81
539.26	25006.28
539.43	25448.64
539.60	25645.25
539.77	25558.65
539.94	25298.85
540.11	25319.92
540.28	25273.10
540.44	25039.05
540.61	25350.34
540.78	25324.60
540.95	25535.24
541.12	25453.33
541.29	25715.47
541.46	25214.59
541.62	25490.77
541.79	25743.55
541.96	25619.50
542.13	25745.89
542.30	25839.51
542.47	25617.16
542.63	25727.17
542.80	25764.62
542.97	26160.17
543.14	26326.35
543.31	25656.95
543.48	25855.90
543.64	26176.55
543.81	26111.02
543.98	26476.14
544.15	26075.91
544.32	26335.71
544.48	26408.26
544.65	26204.64
544.82	26141.44
544.99	25813.77
545.16	26075.91
545.32	26696.15
545.49	26331.03
545.66	26663.38
545.83	26405.92
546.00	26888.07
546.16	26553.38
546.33	26277.19
546.50	26164.85
546.67	26787.43
546.83	26249.11
547.00	26682.11
547.17	26333.37
547.34	26831.90
547.50	26569.76
547.67	26981.70
547.84	26817.86
548.00	26888.07
548.17	27292.99
548.34	26820.20
548.51	27393.63
548.67	26967.65
548.84	27211.07
549.01	26754.66
549.18	26792.11
549.34	27220.43
549.51	26965.31
549.68	27225.11
549.84	27262.56
550.01	27152.55
550.18	26911.48
550.34	27005.10
550.51	27239.15
550.68	27276.60
550.84	26930.20
551.01	27353.84
551.18	27122.13
551.34	27140.85
551.51	27215.75
551.68	27477.89
551.84	27620.66
552.01	27449.80
552.18	27243.84
552.34	27428.74
552.51	27494.27
552.68	27498.95
552.84	27220.43
553.01	27669.81
553.18	27398.31
553.34	27627.68
553.51	27784.50
553.67	27566.83
553.84	27864.08
554.01	27852.38
554.17	27896.85
554.34	27810.25
554.51	27580.87
554.67	28016.21
554.84	27758.75
555.00	27779.82
555.17	27871.10
555.33	27847.69
555.50	27871.10
555.67	28126.22
555.83	27847.69
556.00	27594.92
556.16	28070.04
556.33	28238.56
556.50	27964.72
556.66	28252.61
556.83	27871.10
556.99	28273.67
557.16	28252.61
557.32	28212.82
557.49	28542.83
557.65	28077.07
557.82	28484.32
557.98	27779.82
558.15	28383.68
558.32	28250.27
558.48	28259.63
558.65	28084.09
558.81	28325.16
558.98	28561.56
559.14	28280.69
559.31	28339.21
559.47	27566.83
559.64	28100.47
559.80	28313.46
559.97	28594.32
560.13	28198.77
560.30	28355.59
560.46	28290.06
560.63	28821.36
560.79	28631.77
560.96	28453.89
561.12	28570.92
561.29	28147.28
561.45	28350.91
561.61	28741.78
561.78	29043.71
561.94	28542.83
562.11	28648.16
562.27	28568.58
562.44	28683.27
562.60	28755.82
562.77	28697.31
562.93	28472.62
563.10	28856.46
563.26	28842.42
563.42	28868.17
563.59	28709.01
563.75	28807.31
563.92	28840.08
564.08	28645.82
564.24	28898.59
564.41	28856.46
564.57	28641.14
564.74	28645.82
564.90	28952.43
565.07	29113.92
565.23	29149.03
565.39	28992.22
565.56	29092.86
565.72	28716.03
565.88	28758.16
566.05	28744.12
566.21	28936.04
566.38	28739.44
566.54	28893.91
566.70	28947.75
566.87	28741.78
567.03	28910.30
567.19	29551.60
567.36	29294.14
567.52	29165.42
567.68	29301.17
567.85	28833.06
568.01	29326.91
568.17	28936.04
568.34	29296.49
568.50	29467.34
568.66	28936.04
568.83	29301.17
568.99	29422.87
569.15	29127.97
569.32	28802.63
569.48	29067.11
569.64	29104.56
569.81	28933.70
569.97	29193.50
570.13	29383.09
570.30	29280.10
570.46	29233.29
570.62	29345.64
570.78	29221.59
570.95	29252.02
571.11	29275.42
571.27	29191.16
571.43	28868.17
571.60	28891.57
571.76	29226.27
571.92	29228.61
572.09	29493.09
572.25	29727.14
572.41	28996.90
572.57	29064.77
572.74	29427.56
572.90	29020.30
573.06	29352.66
573.22	29305.85
573.38	29350.32
573.55	29575.01
573.71	29326.91
573.87	29163.08
574.03	29401.81
574.20	29455.64
574.36	28758.16
574.52	29167.76
574.68	29509.47
574.84	29727.14
575.01	29315.21
575.17	29514.16
575.33	29240.31
575.49	29277.76
575.65	29577.35
575.82	29427.56
575.98	29207.55
576.14	29352.66
576.30	29579.69
576.46	29322.23
576.62	29254.36
576.79	29130.31
576.95	29682.67
577.11	29645.23
577.27	29806.72
577.43	29434.58
577.59	29446.28
577.75	29624.16
577.92	29219.25
578.08	28966.47
578.24	29104.56
578.40	29261.38
578.56	29366.70
578.72	29530.54
578.88	29556.28
579.04	29507.13
579.21	29558.63
579.37	29617.14
579.53	29553.94
579.69	29301.17
579.85	29450.96
580.01	29317.55
580.17	29298.83
580.33	29308.19
580.49	30015.03
580.65	29453.30
580.82	29802.04
580.98	29661.61
581.14	29507.13
581.30	29242.65
581.46	29680.33
581.62	29666.29
581.78	29296.49
581.94	29469.69
582.10	29696.72
582.26	29902.68
582.42	29668.63
582.58	30031.41
582.74	29661.61
582.90	29823.11
583.06	29385.43
583.22	29586.71
583.38	29457.98
583.54	29771.61
583.70	29516.50
583.86	29443.94
584.02	29392.45
584.18	29883.96
584.34	29638.20
584.50	29900.34
584.66	29790.34
584.82	29558.63
584.98	29502.45
585.14	29317.55
585.30	29493.09
585.46	29631.18
585.62	29450.96
585.78	29710.76
585.94	29385.43
586.10	29654.59
586.26	29692.04
586.42	29668.63
586.58	29607.78
586.74	29584.37
586.90	29497.77
587.06	29397.13
587.22	29626.50
587.38	29373.72
587.54	29851.19
587.70	30178.87
587.86	29823.11
588.02	29986.94
588.18	29310.53
588.34	29575.01
588.49	29851.19
588.65	29715.44
588.81	29584.37
588.97	29977.58
589.13	29869.92
589.29	29862.90
589.45	29898.00
589.61	30188.23
589.77	29986.94
589.93	30281.85
590.08	30061.84
590.24	30246.74
590.40	30141.42
590.56	30073.54
590.72	29841.83
590.88	29762.25
591.04	29890.98
591.20	29970.56
591.35	30209.29
591.51	30543.99
591.67	30307.60
591.83	30052.48
591.99	30087.59
592.15	30127.38
592.31	30228.02
592.46	29598.41
592.62	30008.01
592.78	29502.45
592.94	30003.33
593.10	29780.98
593.26	30295.89
593.41	29788.00
593.57	30045.46
593.73	30003.33
593.89	30089.93
594.05	30572.08
594.20	30099.29
594.36	30052.48
594.52	30050.14
594.68	29839.49
594.84	29923.75
594.99	30199.93
595.15	29916.73
595.31	30047.80
595.47	30176.53
595.62	30277.17
595.78	29979.92
595.94	29804.38
596.10	30132.06
596.25	30038.44
596.41	29825.45
596.57	29731.83
596.73	30319.30
596.88	29827.79
597.04	30139.08
597.20	30092.27
597.36	30441.01
597.51	29979.92
597.67	30391.86
597.83	30160.14
597.99	29898.00
598.14	30141.42
598.30	30167.16
598.46	29865.24
598.61	30380.15
598.77	29818.42
598.93	30029.07
599.09	29848.85
599.24	30244.40
599.40	30164.82
599.56	30466.75
599.71	30239.72
599.87	30136.74
600.03	30279.51
600.18	30087.59
600.34	29900.34
600.50	30085.25
600.65	30171.85
600.81	30572.08
600.97	30433.99
601.12	30532.29
601.28	30665.70
601.44	30375.47
601.59	30677.40
601.75	30302.92
601.91	30380.15
602.06	30164.82
602.22	30108.65
602.37	29626.50
602.53	30082.91
602.69	30352.07
602.84	30616.55
603.00	30387.18
603.16	30139.08
603.31	30340.36
603.47	29965.88
603.62	30148.44
603.78	30110.99
603.94	30188.23
604.09	30059.50
604.25	29830.13
604.40	30127.38
604.56	30103.97
604.71	30361.43
604.87	30087.59
605.03	30129.72
605.18	30040.78
605.34	30176.53
605.49	29811.40
605.65	30260.79
605.80	29649.91
605.96	30338.02
606.12	30235.04
606.27	29811.40
606.43	30323.98
606.58	30211.64
606.74	30239.72
606.89	30607.19
607.05	30150.78
607.20	30242.06
607.36	30005.67
607.51	29921.41
607.67	30211.64
607.82	29858.21
607.98	30164.82
608.13	29818.42
608.29	30015.03
608.44	30092.27
608.60	30043.12
608.75	29919.07
608.91	30071.20
609.06	30382.49
609.22	29951.84
609.37	29886.30
609.53	29905.02
609.68	30092.27
609.84	30314.62
609.99	30003.33
610.15	29453.30
610.30	30169.51
610.46	29961.20
610.61	29975.24
610.76	30160.14
610.92	29935.45
611.07	29806.72
611.23	29963.54
611.38	29696.72
611.54	29844.17
611.69	29586.71
611.84	29666.29
612.00	29659.27
612.15	29724.80
612.31	30101.63
612.46	29839.49
612.62	29750.55
612.77	29975.24
612.92	29986.94
613.08	29701.40
613.23	29481.39
613.39	29825.45
613.54	29706.08
613.69	29626.50
613.85	29593.73
614.00	29584.37
614.15	29982.26
614.31	29647.57
614.46	29521.18
614.62	29457.98
614.77	29450.96
614.92	29493.09
615.08	29579.69
615.23	29663.95
615.38	29476.71
615.54	29364.36
615.69	29446.28
615.84	29446.28
616.00	29455.64
616.15	29268.40
616.30	29474.37
616.46	29654.59
616.61	29301.17
616.76	29713.10
616.92	29453.30
617.07	29392.45
617.22	29134.99
617.37	29289.46
617.53	29310.53
617.68	29727.14
617.83	28968.81
617.99	29036.69
618.14	29450.96
618.29	29474.37
618.45	29060.09
618.60	29205.20
618.75	29247.33
618.90	29495.43
619.06	29429.90
619.21	28996.90
619.36	29230.95
619.51	28760.50
619.67	28957.11
619.82	29216.91
619.97	29076.48
620.12	28933.70
620.28	28858.81
620.43	29125.63
620.58	29392.45
620.73	28914.98
620.89	29085.84
621.04	29186.48
621.19	28910.30
621.34	29041.37
621.49	28793.27
621.65	28807.31
621.80	28615.39
621.95	28680.92
622.10	28826.04
622.25	28861.15
622.41	28451.55
622.56	29017.96
622.71	28924.34
622.86	29095.20
623.01	29057.75
623.16	28783.91
623.32	28657.52
623.47	28634.11
623.62	28760.50
623.77	28648.16
623.92	28720.71
624.07	28828.38
624.23	28613.05
624.38	28938.38
624.53	29053.07
624.68	28711.35
624.83	29214.57
624.98	29177.12
625.13	28573.26
625.29	28765.18
625.44	28369.63
625.59	28542.83
625.74	28107.49
625.89	28297.08
626.04	28339.21
626.19	27988.13
626.34	28489.00
626.49	28149.62
626.65	28210.48
626.80	28636.45
626.95	27990.47
627.10	28268.99
627.25	28528.79
627.40	28095.79
627.55	28177.71
627.70	27908.55
627.85	28219.84
628.00	27957.70
628.15	28018.55
628.30	27590.24
628.45	28257.29
628.60	27920.25
628.76	28180.05
628.91	28313.46
629.06	28130.90
629.21	28247.93
629.36	28187.07
629.51	28086.43
629.66	28081.75
629.81	27924.93
629.96	28037.28
630.11	27833.65
630.26	27634.71
630.41	27791.52
630.56	27854.72
630.71	27480.23
630.86	27814.93
631.01	27824.29
631.16	27585.55
631.31	28002.17
631.46	27615.98
631.61	27782.16
631.76	27761.09
631.91	27597.26
632.06	27852.38
632.21	27623.00
632.36	27906.21
632.51	27442.78
632.66	27859.40
632.81	27435.76
632.96	27400.65
633.10	27791.52
633.25	27611.30
633.40	27358.52
633.55	28020.89
633.70	27285.97
633.85	27505.98
634.00	27510.66
634.15	27536.40
634.30	27391.29
634.45	27454.48
634.60	27508.32
634.75	27262.56
634.90	27428.74
635.05	27538.74
635.19	27349.16
635.34	27744.71
635.49	27630.02
635.64	27175.96
635.79	27215.75
635.94	27304.69
636.09	27138.51
636.24	27234.47
636.39	26991.06
636.53	27138.51
636.68	27227.45
636.83	27089.36
636.98	27267.24
637.13	27122.13
637.28	27150.21
637.43	27513.00
637.57	27166.60
637.72	27145.53
637.87	27023.83
638.02	26923.18
638.17	27080.00
638.32	27091.70
638.46	26822.54
638.61	26845.94
638.76	26794.45
638.91	26885.73
639.06	26785.09
639.20	26677.43
639.35	27138.51
639.50	26806.16
639.65	27332.78
639.80	27110.43
639.94	26529.97
640.09	26567.42
640.24	26902.12
640.39	27318.73
640.54	26623.59
640.68	26792.11
640.83	26251.45
640.98	26600.19
641.13	26562.74
641.27	26607.21
641.42	26345.07
641.57	26380.18
641.72	26647.00
641.86	26338.05
642.01	26618.91
642.16	26565.08
642.31	26192.94
642.45	26677.43
642.60	26054.84
642.75	26155.49
642.90	26424.65
643.04	26445.71
643.19	26244.43
643.34	26469.12
643.48	26452.73
643.63	26462.10
643.78	26438.69
643.93	26466.78
644.07	26515.93
644.22	26677.43
644.37	26354.43
644.51	26183.57
644.66	26087.61
644.81	26132.08
644.95	26075.91
645.10	26277.19
645.25	26169.53
645.39	25982.29
645.54	26417.63
645.69	26094.63
645.83	26347.41
645.98	25771.64
646.13	26274.85
646.27	26204.64
646.42	25659.29
646.57	26286.56
646.71	26230.38
646.86	26038.46
647.00	25991.65
647.15	25544.61
647.30	26239.75
647.44	26043.14
647.59	26183.57
647.74	25865.26
647.88	25640.57
648.03	26094.63
648.17	25804.41
648.32	26099.31
648.47	25930.80
648.61	26293.58
648.76	25909.73
648.90	25841.85
649.05	25869.94
649.20	25743.55
649.34	25678.02
649.49	25731.85
649.63	25685.04
649.78	25809.09
649.92	25432.26
650.07	25919.09
650.21	25362.04
650.36	25673.34
650.51	25376.09
650.65	25645.25
650.80	25488.43
650.94	25771.64
651.09	25348.00
651.23	25504.82
651.38	25722.49
651.52	25507.16
651.67	25722.49
651.81	25731.85
651.96	25619.50
652.10	25333.96
652.25	25158.42
652.39	25242.68
652.54	25743.55
652.68	25586.74
652.83	25586.74
652.97	25551.63
653.12	25240.34
653.26	25266.08
653.41	25443.96
653.55	25123.31
653.70	24795.64
653.84	25483.75
653.99	25135.01
654.13	25319.92
654.27	25263.74
654.42	25357.36
654.56	25116.29
654.71	25174.80
654.85	25109.27
655.00	25305.87
655.14	25118.63
655.29	24755.85
655.43	24744.14
655.57	25099.90
655.72	25095.22
655.86	24737.12
656.01	25043.73
656.15	24863.51
656.30	25008.62
656.44	25029.69
656.58	24924.36
656.73	25186.50
656.87	24823.72
657.01	24741.80
657.16	24996.92
657.30	25036.71
657.45	24692.65
657.59	25022.67
657.73	24940.75
657.88	24900.96
658.02	24627.12
658.16	24788.61
658.31	24893.94
658.45	24739.46
658.60	24386.04
658.74	24704.35
658.88	24357.96
659.03	24105.18
659.17	24627.12
659.31	24594.35
659.46	24453.92
659.60	24840.11
659.74	24482.00
659.89	24439.87
660.03	24786.27
660.17	24292.42
660.32	24159.01
660.46	24081.77
660.60	24222.20
660.74	24339.23
660.89	23962.40
661.03	24009.22
661.17	24051.34
661.32	24425.83
661.46	24208.16
661.60	24217.52
661.74	23948.36
661.89	24140.29
662.03	24393.06
662.17	24011.56
662.31	23962.40
662.46	24273.70
662.60	24053.69
662.74	23889.85
662.88	23594.94
663.03	23817.29
663.17	23454.51
663.31	23461.53
663.45	23599.62
663.60	23424.08
663.74	23828.99
663.88	23704.95
664.02	23190.03
664.17	23639.41
664.31	23681.54
664.45	23756.44
664.59	23386.63
664.73	23655.79
664.88	23360.89
665.02	23344.50
665.16	23227.48
665.30	23374.93
665.44	23498.98
665.59	22852.99
665.73	23063.64
665.87	22937.25
666.01	23243.86
666.15	22937.25
666.29	23094.07
666.44	23293.01
666.58	22560.42
666.72	22789.80
666.86	22937.25
667.00	22923.21
667.14	22796.82
667.28	22761.71
667.43	22682.13
667.57	22682.13
667.71	22508.93
667.85	22698.52
667.99	22387.22
668.13	22717.24
668.27	22452.76
668.41	22925.55
668.56	22609.58
668.70	22714.90
668.84	22525.32
668.98	22590.85
669.12	22885.76
669.26	22494.89
669.40	22462.12
669.54	22286.58
669.68	22429.35
669.82	22132.11
669.96	21884.01
670.10	21855.92
670.25	22286.58
670.39	22211.68
670.53	22082.95
670.67	22195.30
670.81	22424.67
670.95	22244.45
671.09	22104.02
671.23	22235.09
671.37	21940.18
671.51	21687.40
671.65	22192.96
671.79	21781.03
671.93	21759.96
672.07	21965.93
672.21	21699.11
672.35	21188.87
672.49	21233.34
672.63	21184.19
672.77	21385.47
672.91	21223.98
673.05	21378.45
673.19	21656.98
673.33	21406.54
673.47	21242.70
673.61	21436.97
673.75	21053.12
673.89	21298.88
674.03	21137.38
674.17	21216.96
674.31	21123.33
674.45	21064.82
674.59	21139.72
674.73	20982.90
674.87	20947.79
675.01	20795.66
675.15	20404.79
675.29	20559.27
675.43	20418.83
675.56	20594.37
675.70	20826.09
675.84	20737.15
675.98	20149.67
676.12	20697.36
676.26	20446.92
676.40	20482.03
676.54	20671.61
676.68	20507.77
676.82	19850.08
676.96	20030.30
677.10	19866.47
677.23	19831.36
677.37	19812.63
677.51	19950.73
677.65	19903.92
677.79	19669.86
677.93	19800.93
678.07	19587.94
678.21	19468.58
678.34	19445.17
678.48	19367.93
678.62	19386.66
678.76	19590.28
678.90	19243.88
679.04	19267.29
679.18	19166.65
679.31	19145.58
679.45	19016.85
679.59	19119.84
679.73	19044.94
679.87	18705.56
680.00	18979.40
680.14	18958.34
680.28	18883.44
680.42	18885.78
680.56	18803.86
680.70	18829.61
680.83	18576.83
680.97	18618.96
681.11	18693.86
681.25	18347.46
681.39	18574.49
681.52	18443.42
681.66	18387.25
681.80	18071.28
681.94	18235.11
682.07	18038.51
682.21	18368.52
682.35	17811.48
682.49	17942.55
682.62	17806.80
682.76	18040.85
682.90	17954.25
683.04	17738.92
683.17	18003.40
683.31	17731.90
683.45	17633.60
683.59	17465.08
683.72	17708.49
683.86	17647.64
684.00	17661.68
684.13	17207.62
684.27	17050.80
684.41	17502.53
684.55	16891.65
684.68	16856.54
684.82	16650.57
684.96	16545.25
685.09	16664.61
685.23	17106.98
685.37	16851.86
685.50	17039.10
685.64	16877.60
685.78	16767.60
685.91	16688.02
686.05	16695.04
686.19	16688.02
686.32	16664.61
686.46	16248.00
686.60	16496.10
686.73	16608.44
686.87	16037.35
687.01	16320.56
687.14	16077.14
687.28	16095.86
687.42	16091.18
687.55	15889.90
687.69	16051.39
687.82	15976.50
687.96	16011.60
688.10	16004.58
688.23	15892.24
688.37	15887.56
688.50	15651.16
688.64	15761.17
688.78	15805.64
688.91	15463.92
689.05	15459.24
689.18	15374.98
689.32	15150.29
689.46	15161.99
689.59	15433.49
689.73	15122.20
689.86	15204.12
690.00	15283.70
690.13	15019.22
690.27	15112.84
690.41	14925.60
690.54	14881.13
690.68	15035.60
690.81	15110.50
690.95	14960.70
691.08	14743.03
691.22	14862.40
691.35	14649.41
691.49	14684.52
691.62	14796.87
691.76	14665.80
691.89	14305.35
692.03	14293.65
692.16	14031.51
692.30	14099.39
692.43	14384.93
692.57	13994.06
692.70	13958.96
692.84	14111.09
692.97	13788.10
693.11	14235.14
693.24	14043.21
693.38	13881.72
693.51	13708.52
693.65	13839.59
693.78	13593.83
693.92	13619.58
694.05	13823.20
694.19	13394.89
694.32	13591.49
694.45	13235.73
694.59	13324.67
694.72	13294.24
694.86	13149.13
694.99	13022.74
695.13	12938.48
695.26	13425.31
695.39	13060.19
695.53	13158.49
695.66	12938.48
695.80	12922.10
695.93	13121.04
696.07	12971.25
696.20	12875.29
696.33	12837.84
696.47	12475.06
696.60	12519.53
696.73	12802.73
696.87	12442.29
697.00	12514.84
697.14	12343.99
697.27	12138.02
697.40	12046.74
697.54	12119.29
697.67	12006.95
697.80	12011.63
697.94	12159.08
698.07	12072.48
698.21	12046.74
698.34	11824.39
698.47	11927.37
698.61	11957.80
698.74	11882.90
698.87	11932.05
699.01	11592.67
699.14	11751.83
699.27	11522.46
699.40	11702.68
699.54	11424.15
699.67	11487.35
699.80	11297.77
699.94	11520.12
700.07	11290.74
700.20	11183.08
700.34	10857.75
700.47	11243.93
700.60	11250.96
700.73	11222.87
700.87	11070.73
701.00	11042.65
701.13	10911.58
701.26	11007.54
701.40	10906.90
701.53	10862.43
701.66	10731.36
701.79	10822.64
701.93	10572.20
702.06	10726.68
702.19	10572.20
702.32	10480.92
702.46	10345.17
702.59	10188.35
702.72	10368.57
702.85	10310.06
702.99	10389.64
703.12	10186.01
703.25	10038.56
703.38	10258.57
703.51	10377.94
703.65	10190.69
703.78	10104.09
703.91	10141.54
704.04	10146.22
704.17	10085.37
704.31	10036.22
704.44	9982.38
704.57	9870.04
704.70	9652.37
704.83	9624.28
704.96	9643.01
705.10	9404.27
705.23	9490.87
>>>>>End Processed Spectral Data<<<<<
