SpectraSuite Data File
++++++++++++++++++++++++++++++++++++
Date: Fri Oct 18 13:58:41 GMT-05:00 2013
User: bianchi
Dark Spectrum Present: No
Reference Spectrum Present: No
Number of Sampled Component Spectra: 1
Spectrometers: USB2+H05261
Integration Time (usec): 50000 (USB2+H05261)
Spectra Averaged: 1 (USB2+H05261)
Boxcar Smoothing: 0 (USB2+H05261)
Correct for Electrical Dark: No (USB2+H05261)
Strobe/Lamp Enabled: No (USB2+H05261)
Correct for Detector Non-linearity: No (USB2+H05261)
Correct for Stray Light: No (USB2+H05261)
Number of Pixels in Processed Spectrum: 2048
>>>>>Begin Processed Spectral Data<<<<<
365.73	0.00
365.92	0.00
366.12	0.00
366.32	0.00
366.52	0.00
366.72	0.00
366.91	0.00
367.11	0.00
367.31	0.00
367.51	0.00
367.70	0.00
367.90	0.00
368.10	0.00
368.30	0.00
368.49	0.00
368.69	0.00
368.89	0.00
369.09	0.00
369.28	0.00
369.48	0.00
369.68	0.00
369.87	0.00
370.07	0.00
370.27	0.00
370.47	0.00
370.66	56.17
370.86	74.90
371.06	79.58
371.25	84.26
371.45	191.92
371.65	234.05
371.84	194.26
372.04	142.77
372.24	126.39
372.44	203.63
372.63	180.22
372.83	222.35
373.03	187.24
373.22	173.20
373.42	227.03
373.62	234.05
373.81	140.43
374.01	184.90
374.21	227.03
374.40	203.63
374.60	189.58
374.79	217.67
374.99	234.05
375.19	255.12
375.38	299.59
375.58	231.71
375.78	252.78
375.97	271.50
376.17	285.55
376.37	257.46
376.56	236.39
376.76	250.44
376.95	245.76
377.15	304.27
377.35	243.42
377.54	269.16
377.74	257.46
377.93	255.12
378.13	299.59
378.33	257.46
378.52	332.36
378.72	322.99
378.91	390.87
379.11	245.76
379.31	215.33
379.50	304.27
379.70	320.65
379.89	313.63
380.09	231.71
380.28	217.67
380.48	259.80
380.68	285.55
380.87	299.59
381.07	283.20
381.26	313.63
381.46	276.18
381.65	367.46
381.85	304.27
382.04	320.65
382.24	358.10
382.43	369.80
382.63	372.15
382.83	379.17
383.02	339.38
383.22	386.19
383.41	365.12
383.61	397.89
383.80	397.89
384.00	351.08
384.19	360.44
384.39	320.65
384.58	353.42
384.78	372.15
384.97	390.87
385.17	376.83
385.36	337.04
385.56	416.62
385.75	374.49
385.95	353.42
386.14	472.79
386.34	374.49
386.53	372.15
386.72	414.27
386.92	477.47
387.11	409.59
387.31	409.59
387.50	414.27
387.70	369.80
387.89	456.40
388.09	360.44
388.28	400.23
388.48	461.09
388.67	444.70
388.86	444.70
389.06	414.27
389.25	456.40
389.45	414.27
389.64	547.69
389.84	400.23
390.03	479.81
390.22	465.77
390.42	498.53
390.61	421.30
390.81	472.79
391.00	411.93
391.19	580.45
391.39	533.64
391.58	442.36
391.78	538.32
391.97	479.81
392.16	456.40
392.36	533.64
392.55	568.75
392.75	472.79
392.94	580.45
393.13	566.41
393.33	510.24
393.52	550.03
393.71	564.07
393.91	552.37
394.10	599.18
394.29	547.69
394.49	585.13
394.68	641.31
394.88	582.79
395.07	636.63
395.26	624.92
395.46	575.77
395.65	676.41
395.84	660.03
396.04	629.60
396.23	629.60
396.42	657.69
396.62	695.14
396.81	681.10
397.00	650.67
397.19	746.63
397.39	716.20
397.58	678.76
397.77	669.39
397.97	791.10
398.16	676.41
398.35	755.99
398.55	634.29
398.74	716.20
398.93	751.31
399.12	730.25
399.32	725.57
399.51	720.88
399.70	758.33
399.90	826.21
400.09	795.78
400.28	814.51
400.47	741.95
400.67	858.98
400.86	755.99
401.05	809.83
401.24	727.91
401.44	779.40
401.63	770.04
401.82	779.40
402.01	807.48
402.21	833.23
402.40	828.55
402.59	805.14
402.78	809.83
402.97	851.96
403.17	889.40
403.36	922.17
403.55	805.14
403.74	903.45
403.93	992.39
404.13	777.06
404.32	929.19
404.51	800.46
404.70	875.36
404.89	877.70
405.09	1048.56
405.28	922.17
405.47	910.47
405.66	1008.77
405.85	990.05
406.05	1046.22
406.24	1008.77
406.43	943.24
406.62	990.05
406.81	1074.31
407.00	994.73
407.20	908.13
407.39	966.64
407.58	1022.81
407.77	1011.11
407.96	1027.50
408.15	1027.50
408.34	1001.75
408.54	1088.35
408.73	1069.62
408.92	1032.18
409.11	1163.25
409.30	1022.81
409.49	1069.62
409.68	1125.80
409.87	1151.54
410.07	1191.33
410.26	1242.82
410.45	1174.95
410.64	1186.65
410.83	1261.55
411.02	1247.51
411.21	1245.16
411.40	1172.61
411.59	1284.95
411.78	1306.02
411.98	1268.57
412.17	1287.29
412.36	1437.09
412.55	1359.85
412.74	1357.51
412.93	1448.79
413.12	1252.19
413.31	1406.66
413.50	1343.47
413.69	1350.49
413.88	1376.24
414.07	1324.74
414.26	1306.02
414.45	1413.68
414.64	1458.15
414.83	1462.83
415.02	1497.94
415.22	1528.37
415.41	1554.12
415.60	1540.07
415.79	1621.99
415.98	1633.69
416.17	1509.65
416.36	1586.88
416.55	1593.90
416.74	1696.89
416.93	1643.06
417.12	1610.29
417.31	1734.34
417.50	1643.06
417.69	1727.32
417.88	1739.02
418.07	1720.29
418.26	1790.51
418.45	1762.42
418.64	1858.39
418.83	1785.83
419.02	1820.94
419.21	1851.36
419.39	1860.73
419.58	1750.72
419.77	1816.26
419.96	1846.68
420.15	1900.52
420.34	1832.64
420.53	1900.52
420.72	1863.07
420.91	1893.49
421.10	1902.86
421.29	1921.58
421.48	1895.83
421.67	2015.20
421.86	1900.52
422.05	1900.52
422.24	1982.43
422.43	2022.22
422.61	2045.63
422.80	2031.58
422.99	2031.58
423.18	2022.22
423.37	2036.27
423.56	2040.95
423.75	1928.60
423.94	2071.37
424.13	1966.05
424.32	1998.82
424.50	2038.61
424.69	1914.56
424.88	2111.16
425.07	1956.69
425.26	2153.29
425.45	2026.90
425.64	2094.78
425.83	2017.54
426.01	2094.78
426.20	2141.59
426.39	2057.33
426.58	2132.23
426.77	2179.04
426.96	2026.90
427.15	2019.88
427.33	2153.29
427.52	2054.99
427.71	2193.08
427.90	2204.78
428.09	2167.34
428.28	2153.29
428.46	2221.17
428.65	2153.29
428.84	2260.96
429.03	2263.30
429.22	2176.70
429.40	2260.96
429.59	2218.83
429.78	2183.72
429.97	2150.95
430.16	2223.51
430.34	2195.42
430.53	2253.94
430.72	2335.85
430.91	2263.30
431.10	2202.44
431.28	2345.22
431.47	2335.85
431.66	2450.54
431.85	2392.03
432.03	2462.24
432.22	2476.29
432.41	2373.30
432.60	2487.99
432.79	2464.58
432.97	2457.56
433.16	2422.45
433.35	2333.51
433.54	2401.39
433.72	2527.78
433.91	2532.46
434.10	2487.99
434.28	2382.67
434.47	2621.40
434.66	2518.42
434.85	2471.61
435.03	2476.29
435.22	2558.21
435.41	2675.23
435.59	2548.84
435.78	2726.72
435.97	2700.98
436.16	2682.25
436.34	2722.04
436.53	2820.35
436.72	2644.81
436.90	2562.89
437.09	2628.42
437.28	2612.04
437.46	2640.12
437.65	2658.85
437.84	2850.77
438.02	2764.17
438.21	2743.11
438.40	2740.77
438.58	2787.58
438.77	2799.28
438.96	2918.65
439.14	2913.97
439.33	2942.05
439.52	2916.31
439.70	2920.99
439.89	3035.67
440.08	3045.04
440.26	3045.04
440.45	2984.18
440.63	3089.51
440.82	3129.30
441.01	2953.76
441.19	3236.96
441.38	3225.26
441.57	3232.28
441.75	3311.86
441.94	3302.50
442.12	3215.90
442.31	3227.60
442.50	3321.22
442.68	3297.81
442.87	3300.16
443.05	3307.18
443.24	3342.28
443.43	3365.69
443.61	3393.78
443.80	3405.48
443.98	3286.11
444.17	3251.00
444.35	3339.94
444.54	3522.51
444.73	3368.03
444.91	3358.67
445.10	3438.25
445.28	3314.20
445.47	3428.88
445.65	3339.94
445.84	3569.32
446.02	3529.53
446.21	3440.59
446.39	3447.61
446.58	3428.88
446.77	3459.31
446.95	3339.94
447.14	3382.07
447.32	3487.40
447.51	3602.08
447.69	3447.61
447.88	3487.40
448.06	3545.91
448.25	3400.80
448.43	3559.95
448.62	3384.41
448.80	3487.40
448.99	3574.00
449.17	3658.26
449.36	3548.25
449.54	3571.66
449.73	3613.79
449.91	3630.17
450.10	3709.75
450.28	3747.20
450.46	3716.77
450.65	3749.54
450.83	3833.80
451.02	3667.62
451.20	3761.24
451.39	3763.58
451.57	3698.05
451.76	3672.30
451.94	3733.15
452.13	3847.84
452.31	3887.63
452.49	3716.77
452.68	3777.62
452.86	3808.05
453.05	3854.86
453.23	4046.79
453.42	3913.38
453.60	3859.54
453.78	3967.21
453.97	3819.75
454.15	3866.56
454.34	4051.47
454.52	3969.55
454.70	3850.18
454.89	3995.29
455.07	4147.43
455.26	4018.70
455.44	4196.58
455.62	4152.11
455.81	4014.02
455.99	4095.94
456.17	4135.73
456.36	4187.22
456.54	4021.04
456.73	4135.73
456.91	4367.44
457.09	4236.37
457.28	4297.22
457.46	4210.62
457.64	4329.99
457.83	4217.65
458.01	4280.84
458.19	4358.08
458.38	4344.03
458.56	4388.50
458.74	4372.12
458.93	4379.14
459.11	4358.08
459.29	4440.00
459.48	4421.27
459.66	4472.76
459.84	4498.51
460.03	4629.58
460.21	4512.55
460.39	4500.85
460.57	4535.96
460.76	4573.41
460.94	4664.69
461.12	4540.64
461.31	4571.07
461.49	4606.17
461.67	4578.09
461.85	4713.84
462.04	4535.96
462.22	4770.01
462.40	4748.95
462.59	4734.90
462.77	4767.67
462.95	4770.01
463.13	4723.20
463.32	4671.71
463.50	4718.52
463.68	4910.44
463.86	4919.81
464.05	4884.70
464.23	4830.87
464.41	4809.80
464.59	4802.78
464.78	4889.38
464.96	4938.53
465.14	4786.40
465.32	4891.72
465.50	4926.83
465.69	4959.60
465.87	4739.58
466.05	4983.00
466.23	5048.54
466.41	5046.20
466.60	5179.61
466.78	4966.62
466.96	5036.83
467.14	5085.98
467.32	5055.56
467.51	5097.69
467.69	4968.96
467.87	5270.89
468.05	5043.85
468.23	5130.45
468.41	5036.83
468.60	5132.79
468.78	5188.97
468.96	5226.42
469.14	5462.81
469.32	5392.59
469.50	5156.20
469.69	5160.88
469.87	5369.19
470.05	5441.75
470.23	5490.90
470.41	5455.79
470.59	5369.19
470.77	5359.83
470.95	5521.32
471.14	5502.60
471.32	5451.11
471.50	5526.00
471.68	5600.90
471.86	5678.14
472.04	5549.41
472.22	5647.71
472.40	5767.08
472.58	5678.14
472.77	5729.63
472.95	5846.66
473.13	5968.37
473.31	5727.29
473.49	5727.29
473.67	5764.74
473.85	5741.33
474.03	5973.05
474.21	5902.83
474.39	5923.90
474.57	6143.91
474.75	5982.41
474.93	6181.35
475.12	6146.25
475.30	6232.85
475.48	6141.57
475.66	6141.57
475.84	6207.10
476.02	6228.17
476.20	6286.68
476.38	6368.60
476.56	6569.88
476.74	6600.31
476.92	6497.33
477.10	6415.41
477.28	6668.19
477.46	6640.10
477.64	6675.21
477.82	6743.08
478.00	6993.52
478.18	6876.49
478.36	6972.46
478.54	7033.31
478.72	6930.33
478.90	7101.19
479.08	7087.14
479.26	7281.41
479.44	7194.81
479.62	7400.77
479.80	7375.03
479.98	7517.80
480.16	7452.27
480.34	7480.35
480.52	7611.42
480.70	7765.90
480.88	7817.39
481.06	7632.49
481.24	7859.52
481.41	7922.71
481.59	7887.61
481.77	7934.42
481.95	8074.85
482.13	8098.25
482.31	8109.96
482.49	8224.64
482.67	8510.19
482.85	8381.46
483.03	8243.37
483.21	8554.66
483.39	8606.15
483.57	8524.23
483.74	8617.85
483.92	8599.13
484.10	8645.94
484.28	8975.95
484.46	8690.41
484.64	9074.26
484.82	9083.62
485.00	8973.61
485.18	9427.68
485.35	9364.48
485.53	9322.35
485.71	9397.25
485.89	9710.88
486.07	9535.34
486.25	9483.85
486.43	9640.67
486.61	9645.35
486.78	9848.97
486.96	9909.83
487.14	10054.94
487.32	9989.41
487.50	10085.37
487.68	10333.47
487.85	10293.68
488.03	10417.72
488.21	10677.52
488.39	10698.59
488.57	10637.73
488.75	10803.91
488.92	10974.77
489.10	10689.23
489.28	10705.61
489.46	10843.70
489.64	11199.46
489.81	11248.61
489.99	11328.19
490.17	11281.38
490.35	11452.24
490.53	11400.75
490.70	11548.20
490.88	11611.40
491.06	11625.44
491.24	11789.28
491.41	11606.72
491.59	11988.22
491.77	11871.20
491.95	12093.55
492.13	11948.43
492.30	12159.08
492.48	12013.97
492.66	12346.33
492.84	12142.70
493.01	12400.16
493.19	12528.89
493.37	12704.43
493.54	12699.75
493.72	12744.22
493.90	13172.54
494.08	13001.68
494.25	12718.47
494.43	12973.59
494.61	13174.88
494.79	13219.35
494.96	13172.54
495.14	13507.23
495.32	13514.25
495.49	13448.72
495.67	13631.28
495.85	13975.34
496.02	14033.85
496.20	13792.78
496.38	13797.46
496.55	13984.70
496.73	14270.25
496.91	14279.61
497.09	14370.89
497.26	14548.77
497.44	14197.69
497.62	14501.96
497.79	14548.77
497.97	14359.19
498.14	14541.75
498.32	14972.41
498.50	14913.89
498.67	15082.41
498.85	14956.02
499.03	14970.07
499.20	14960.70
499.38	14977.09
499.56	15243.91
499.73	15166.67
499.91	15534.14
500.08	15384.34
500.26	15133.90
500.44	15264.97
500.61	15559.88
500.79	15349.23
500.97	15887.56
501.14	15707.34
501.32	15761.17
501.49	15751.81
501.67	15716.70
501.84	15763.51
502.02	16013.95
502.20	15969.48
502.37	16460.99
502.55	15992.88
502.72	15997.56
502.90	16046.71
503.07	16343.96
503.25	16208.21
503.43	16425.88
503.60	16388.43
503.78	16414.18
503.95	16505.46
504.13	16390.77
504.30	16645.89
504.48	16498.44
504.65	16507.80
504.83	17099.95
505.01	17076.55
505.18	17057.82
505.36	17193.58
505.53	16982.93
505.71	16992.29
505.88	17069.53
506.06	16989.95
506.23	17188.89
506.41	17366.78
506.58	17355.07
506.76	17542.32
506.93	17362.09
507.11	17245.07
507.28	17467.42
507.46	17565.72
507.63	17476.78
507.81	17624.23
507.98	17387.84
508.16	17675.73
508.33	17769.35
508.50	17659.34
508.68	17825.52
508.85	18122.77
509.03	18139.15
509.20	17909.78
509.38	18162.56
509.55	18214.05
509.73	18228.09
509.90	18412.99
510.08	18162.56
510.25	18192.98
510.42	18359.16
510.60	18445.76
510.77	18899.83
510.95	18651.73
511.12	18611.94
511.30	18628.32
511.47	18806.20
511.64	18562.79
511.82	18836.63
511.99	19007.49
512.17	19044.94
512.34	18944.30
512.51	18946.64
512.69	19372.61
512.86	19197.07
513.04	19630.07
513.21	19583.26
513.38	19400.70
513.56	19391.34
513.73	19271.97
513.90	19330.48
514.08	19000.47
514.25	19487.30
514.43	19538.79
514.60	19896.89
514.77	19805.61
514.95	19768.16
515.12	19861.79
515.29	19728.38
515.47	19903.92
515.64	20042.01
515.81	20034.99
515.99	20561.61
516.16	20428.20
516.33	20278.40
516.51	20332.23
516.68	19885.19
516.85	19953.07
517.03	20442.24
517.20	20404.79
517.37	20730.12
517.54	20503.09
517.72	20475.01
517.89	20353.30
518.06	20908.01
518.24	20517.14
518.41	20730.12
518.58	20652.89
518.75	20669.27
518.93	21120.99
519.10	21027.37
519.27	21209.93
519.45	20702.04
519.62	20798.00
519.79	20758.21
519.96	20938.43
520.14	21511.86
520.31	21048.44
520.48	21439.31
520.65	21341.00
520.83	21064.82
521.00	21125.68
521.17	21172.49
521.34	21240.36
521.52	21556.33
521.69	21713.15
521.86	21701.45
522.03	21717.83
522.20	21895.71
522.38	21837.20
522.55	21750.60
522.72	21514.20
522.89	21907.41
523.07	22108.70
523.24	21764.64
523.41	21923.80
523.58	22160.19
523.75	22218.71
523.92	21979.97
524.10	22195.30
524.27	22305.31
524.44	22340.41
524.61	22541.70
524.78	22141.47
524.96	22136.79
525.13	22485.53
525.30	22434.03
525.47	22728.94
525.64	22773.41
525.81	22574.47
525.98	22450.42
526.16	23082.36
526.33	22775.75
526.50	23087.04
526.67	22616.60
526.84	22843.63
527.01	22782.77
527.18	23012.15
527.36	23047.26
527.53	23056.62
527.70	23356.21
527.87	23096.41
528.04	23136.20
528.21	23136.20
528.38	23112.79
528.55	23468.55
528.72	23084.70
528.89	23527.06
529.07	23332.80
529.24	23367.91
529.41	23276.63
529.58	23087.04
529.75	23271.95
529.92	23761.12
530.09	23381.95
530.26	23332.80
530.43	24020.92
530.60	23517.70
530.77	23431.10
530.94	23723.67
531.11	23566.85
531.28	23625.37
531.46	24034.96
531.63	23700.26
531.80	23997.51
531.97	24065.39
532.14	24013.90
532.31	23901.55
532.48	23967.09
532.65	24161.35
532.82	23821.97
532.99	24105.18
533.16	24350.93
533.33	24238.59
533.50	24411.79
533.67	24582.65
533.84	24196.46
534.01	24421.15
534.18	24400.08
534.35	24482.00
534.52	24381.36
534.69	24594.35
534.86	24444.56
535.03	24746.48
535.20	24706.70
535.37	24580.31
535.54	24636.48
535.71	24648.18
535.88	24758.19
536.05	24563.92
536.22	25216.93
536.38	25057.78
536.55	24662.22
536.72	24709.04
536.89	24673.93
537.06	25111.61
537.23	25340.98
537.40	25223.95
537.57	25172.46
537.74	24781.59
537.91	25315.23
538.08	25034.37
538.25	24938.41
538.42	25350.34
538.59	25230.98
538.75	25308.21
538.92	25144.38
539.09	25139.69
539.26	25240.34
539.43	25427.58
539.60	25647.59
539.77	25380.77
539.94	25469.71
540.11	25408.86
540.28	25834.83
540.44	25436.94
540.61	25465.03
540.78	25488.43
540.95	25514.18
541.12	25432.26
541.29	25483.75
541.46	25916.75
541.62	25668.66
541.79	25603.12
541.96	25781.00
542.13	25724.83
542.30	25589.08
542.47	25869.94
542.63	25940.16
542.80	26167.19
542.97	26031.44
543.14	26251.45
543.31	26237.41
543.48	26188.25
543.64	26249.11
543.81	26647.00
543.98	26637.64
544.15	26513.59
544.32	26773.39
544.48	26787.43
544.65	26314.64
544.82	26518.27
544.99	26579.12
545.16	26349.75
545.32	26579.12
545.49	26789.77
545.66	26813.18
545.83	26780.41
546.00	26761.69
546.16	26759.34
546.33	26478.48
546.50	26459.76
546.67	26424.65
546.83	26368.48
547.00	26700.83
547.17	26726.58
547.34	26904.46
547.50	27187.66
547.67	27318.73
547.84	26836.58
548.00	26925.52
548.17	27300.01
548.34	27105.74
548.51	27180.64
548.67	27283.62
548.84	26972.33
549.01	26916.16
549.18	27330.44
549.34	26862.33
549.51	27505.98
549.68	27204.05
549.84	27187.66
550.01	27164.26
550.18	26927.86
550.34	27625.34
550.51	27316.39
550.68	27061.27
550.84	27262.56
551.01	27735.35
551.18	27253.20
551.34	27400.65
551.51	27302.35
551.68	27454.48
551.84	27733.01
552.01	27545.76
552.18	27761.09
552.34	27695.56
552.51	27585.55
552.68	27679.18
552.84	27639.39
553.01	28088.77
553.18	27798.54
553.34	27381.93
553.51	27730.67
553.67	27990.47
553.84	28046.64
554.01	27981.10
554.17	27976.42
554.34	27859.40
554.51	28233.88
554.67	27513.00
554.84	27936.63
555.00	28060.68
555.17	27861.74
555.33	28196.43
555.50	28472.62
555.67	28233.88
555.83	27817.27
556.00	28135.58
556.16	28397.72
556.33	28149.62
556.50	27988.13
556.66	28107.49
556.83	28240.90
556.99	28732.42
557.16	28531.13
557.32	28327.50
557.49	28280.69
557.65	28360.27
557.82	28348.57
557.98	28322.82
558.15	28128.56
558.32	28435.17
558.48	28566.24
558.65	28620.07
558.81	28800.29
558.98	28720.71
559.14	28105.15
559.31	28325.16
559.47	28201.11
559.64	28582.62
559.80	28678.58
559.97	28697.31
560.13	28893.91
560.30	28566.24
560.46	28610.71
560.63	28622.41
560.79	28617.73
560.96	28463.25
561.12	28648.16
561.29	28549.85
561.45	28622.41
561.61	28943.06
561.78	28699.65
561.94	29022.64
562.11	28783.91
562.27	28992.22
562.44	28685.61
562.60	28673.90
562.77	28844.76
562.93	28636.45
563.10	28912.64
563.26	28889.23
563.42	29137.33
563.59	29425.22
563.75	29383.09
563.92	29170.10
564.08	28929.02
564.24	28898.59
564.41	28793.27
564.57	28678.58
564.74	29244.99
564.90	29188.82
565.07	29010.94
565.23	29497.77
565.39	28938.38
565.56	29296.49
565.72	29273.08
565.88	29104.56
566.05	28952.43
566.21	29027.32
566.38	28980.51
566.54	29006.26
566.70	29261.38
566.87	29383.09
567.03	29043.71
567.19	29509.47
567.36	29303.51
567.52	29294.14
567.68	29481.39
567.85	29226.27
568.01	29600.76
568.17	28840.08
568.34	29123.29
568.50	29565.65
568.66	29244.99
568.83	29277.76
568.99	29579.69
569.15	29727.14
569.32	29184.14
569.48	29064.77
569.64	29376.06
569.81	29340.96
569.97	29432.24
570.13	29460.32
570.30	29345.64
570.46	29467.34
570.62	29558.63
570.78	29237.97
570.95	29120.95
571.11	29610.12
571.27	29401.81
571.43	29142.01
571.60	29654.59
571.76	29401.81
571.92	29575.01
572.09	29532.88
572.25	29589.05
572.41	29619.48
572.57	29680.33
572.74	29656.93
572.90	29401.81
573.06	29502.45
573.22	29315.21
573.38	29710.76
573.55	29530.54
573.71	29855.87
573.87	29921.41
574.03	29567.99
574.20	29516.50
574.36	29488.41
574.52	29635.86
574.68	29240.31
574.84	29617.14
575.01	29610.12
575.17	29736.51
575.33	29542.24
575.49	29331.59
575.65	29893.32
575.82	29528.20
575.98	29556.28
576.14	29888.64
576.30	29752.89
576.46	29539.90
576.62	29565.65
576.79	29820.77
576.95	29343.30
577.11	29951.84
577.27	29685.01
577.43	29806.72
577.59	29642.88
577.75	29773.95
577.92	29509.47
578.08	29614.80
578.24	29408.83
578.40	29806.72
578.56	30228.02
578.72	29621.82
578.88	30054.82
579.04	29989.28
579.21	29415.85
579.37	29961.20
579.53	29795.02
579.69	29294.14
579.85	29654.59
580.01	29659.27
580.17	29249.67
580.33	29790.34
580.49	29685.01
580.65	29656.93
580.82	29963.54
580.98	29869.92
581.14	29769.27
581.30	29706.08
581.46	29565.65
581.62	29544.58
581.78	29340.96
581.94	29535.22
582.10	30139.08
582.26	29738.85
582.42	30017.37
582.58	29610.12
582.74	29366.70
582.90	29553.94
583.06	29940.13
583.22	29523.52
583.38	29806.72
583.54	29600.76
583.70	29736.51
583.86	29830.13
584.02	29883.96
584.18	29783.32
584.34	30221.00
584.50	30099.29
584.66	29869.92
584.82	29610.12
584.98	30050.14
585.14	29315.21
585.30	29553.94
585.46	29418.19
585.62	29626.50
585.78	29514.16
585.94	29888.64
586.10	30096.95
586.26	29886.30
586.42	29633.52
586.58	29771.61
586.74	29715.44
586.90	29394.79
587.06	29663.95
587.22	29773.95
587.38	29902.68
587.54	29893.32
587.70	30251.42
587.86	30094.61
588.02	29949.50
588.18	30232.70
588.34	30237.38
588.49	29867.58
588.65	29790.34
588.81	29919.07
588.97	29905.02
589.13	30143.76
589.29	29703.74
589.45	29919.07
589.61	29991.62
589.77	30356.75
589.93	30529.95
590.08	30338.02
590.24	30389.52
590.40	30263.13
590.56	30115.67
590.72	30052.48
590.88	29830.13
591.04	29982.26
591.20	30366.11
591.35	30651.66
591.51	30251.42
591.67	30160.14
591.83	30455.05
591.99	30160.14
592.15	30497.18
592.31	30134.40
592.46	30242.06
592.62	29883.96
592.78	29837.15
592.94	30326.32
593.10	30171.85
593.26	30448.03
593.41	30480.80
593.57	30429.30
593.73	30361.43
593.89	30405.90
594.05	30419.94
594.20	30181.21
594.36	30291.21
594.52	29811.40
594.68	30265.47
594.84	30080.56
594.99	30347.39
595.15	30455.05
595.31	30389.52
595.47	30532.29
595.62	30693.79
595.78	30462.07
595.94	30347.39
596.10	30436.33
596.25	30185.89
596.41	29961.20
596.57	30178.87
596.73	30249.08
596.88	30038.44
597.04	30429.30
597.20	30527.61
597.36	30717.19
597.51	30335.68
597.67	30452.71
597.83	30485.48
597.99	30188.23
598.14	30082.91
598.30	30085.25
598.46	30597.82
598.61	30293.55
598.77	30525.27
598.93	30185.89
599.09	30508.88
599.24	30625.91
599.40	30532.29
599.56	30471.43
599.71	30492.50
599.87	30501.86
600.03	30485.48
600.18	30375.47
600.34	30029.07
600.50	30628.25
600.65	30258.45
600.81	30658.68
600.97	30604.84
601.12	30822.51
601.28	30621.23
601.44	30438.67
601.59	30885.71
601.75	30560.37
601.91	31101.04
602.06	30272.49
602.22	30195.25
602.37	30403.56
602.53	30480.80
602.69	30506.54
602.84	30422.28
603.00	30366.11
603.16	30422.28
603.31	30323.98
603.47	30595.48
603.62	30164.82
603.78	30614.21
603.94	30443.35
604.09	30567.40
604.25	30010.35
604.40	30258.45
604.56	30213.98
604.71	30656.34
604.87	30349.73
605.03	30515.90
605.18	30412.92
605.34	30878.69
605.49	30300.58
605.65	29942.47
605.80	30206.95
605.96	30008.01
606.12	30171.85
606.27	30295.89
606.43	30003.33
606.58	30197.59
606.74	30455.05
606.89	30338.02
607.05	30642.29
607.20	30335.68
607.36	30373.13
607.51	30338.02
607.67	29759.91
607.82	30029.07
607.98	30232.70
608.13	30431.65
608.29	30260.79
608.44	30284.19
608.60	30078.22
608.75	30412.92
608.91	30342.70
609.06	29912.05
609.22	30260.79
609.37	29722.46
609.53	29979.92
609.68	29694.38
609.84	30183.55
609.99	30497.18
610.15	29893.32
610.30	29872.26
610.46	30096.95
610.61	29968.22
610.76	30321.64
610.92	29848.85
611.07	29841.83
611.23	29874.60
611.38	30150.78
611.54	29865.24
611.69	29813.74
611.84	29881.62
612.00	29944.81
612.15	29912.05
612.31	30185.89
612.46	29926.09
612.62	30309.94
612.77	30190.57
612.92	30005.67
613.08	29881.62
613.23	29692.04
613.39	29940.13
613.54	29788.00
613.69	29785.66
613.85	29806.72
614.00	29813.74
614.15	30029.07
614.31	30108.65
614.46	29797.36
614.62	30057.16
614.77	29874.60
614.92	29773.95
615.08	29598.41
615.23	29706.08
615.38	29881.62
615.54	29261.38
615.69	29949.50
615.84	29333.93
616.00	29736.51
616.15	29713.10
616.30	29909.71
616.46	29537.56
616.61	29518.84
616.76	29490.75
616.92	29572.67
617.07	29771.61
617.22	29104.56
617.37	29764.59
617.53	29883.96
617.68	29633.52
617.83	29521.18
617.99	29701.40
618.14	29359.68
618.29	29247.33
618.45	29846.51
618.60	29523.52
618.75	29970.56
618.90	29872.26
619.06	29432.24
619.21	29603.10
619.36	29523.52
619.51	29355.00
619.67	29003.92
619.82	29043.71
619.97	29443.94
620.12	29509.47
620.28	28994.56
620.43	29179.46
620.58	29415.85
620.73	29357.34
620.89	29584.37
621.04	29441.60
621.19	29460.32
621.34	29624.16
621.49	28924.34
621.65	29050.73
621.80	29340.96
621.95	29252.02
622.10	29039.03
622.25	28884.55
622.41	29064.77
622.56	28992.22
622.71	29233.29
622.86	28903.28
623.01	29090.52
623.16	28772.21
623.32	28980.51
623.47	28823.70
623.62	28737.10
623.77	29268.40
623.92	28783.91
624.07	28746.46
624.23	29139.67
624.38	28781.57
624.53	28753.48
624.68	29060.09
624.83	28779.23
624.98	29024.98
625.13	28631.77
625.29	29214.57
625.44	28467.94
625.59	28439.85
625.74	28540.49
625.89	28395.38
626.04	28357.93
626.19	28224.52
626.34	28283.03
626.49	28545.17
626.65	28669.22
626.80	28706.67
626.95	28716.03
627.10	28425.81
627.25	28833.06
627.40	28465.60
627.55	28456.23
627.70	28657.52
627.85	28343.89
628.00	28222.18
628.15	28409.42
628.30	28407.08
628.45	28416.44
628.60	28257.29
628.76	28842.42
628.91	28334.53
629.06	28210.48
629.21	28519.43
629.36	28254.95
629.51	28240.90
629.66	28231.54
629.81	27803.22
629.96	28180.05
630.11	28070.04
630.26	27948.34
630.41	28161.33
630.56	28315.80
630.71	28032.60
630.86	28261.97
631.01	28135.58
631.16	28063.02
631.31	27903.87
631.46	28109.83
631.61	28041.96
631.76	28030.26
631.91	28128.56
632.06	28023.23
632.21	27768.12
632.36	28058.34
632.51	28095.79
632.66	27974.08
632.81	27913.23
632.96	27955.36
633.10	27922.59
633.25	27840.67
633.40	27971.74
633.55	27480.23
633.70	27505.98
633.85	27302.35
634.00	27550.45
634.15	27491.93
634.30	27548.11
634.45	27531.72
634.60	27587.89
634.75	27477.89
634.90	27463.85
635.05	27828.97
635.19	27356.18
635.34	27744.71
635.49	27819.61
635.64	27693.22
635.79	27571.51
635.94	27913.23
636.09	27660.45
636.24	27395.97
636.39	27082.34
636.53	27529.38
636.68	27374.91
636.83	27690.88
636.98	27810.25
637.13	27531.72
637.28	27302.35
637.43	27515.34
637.57	27475.55
637.72	27253.20
637.87	27129.15
638.02	27328.10
638.17	27131.49
638.32	27075.32
638.46	26799.13
638.61	27143.19
638.76	26883.39
638.91	27143.19
639.06	27253.20
639.20	27082.34
639.35	27065.96
639.50	27082.34
639.65	27386.61
639.80	26918.50
639.94	27311.71
640.09	27250.86
640.24	27346.82
640.39	26752.32
640.54	26733.60
640.68	26862.33
640.83	27014.46
640.98	26604.87
641.13	26520.61
641.27	26962.97
641.42	26876.37
641.57	26986.38
641.72	26728.92
641.86	26518.27
642.01	26885.73
642.16	26752.32
642.31	26494.86
642.45	27028.51
642.60	26698.49
642.75	26597.85
642.90	26345.07
643.04	26707.85
643.19	26810.84
643.34	26581.46
643.48	26499.55
643.63	26757.00
643.78	26490.18
643.93	26642.32
644.07	26607.21
644.22	26658.70
644.37	26377.84
644.51	26719.56
644.66	26654.02
644.81	26593.17
644.95	26490.18
645.10	26286.56
645.25	26649.34
645.39	26544.02
645.54	26448.05
645.69	26291.24
645.83	26045.48
645.98	26511.25
646.13	26340.39
646.27	26668.06
646.42	26333.37
646.57	26450.39
646.71	26408.26
646.86	26298.26
647.00	26129.74
647.15	26118.04
647.30	26471.46
647.44	26391.88
647.59	25867.60
647.74	26176.55
647.88	26536.99
648.03	26103.99
648.17	26258.47
648.32	26586.15
648.47	26026.76
648.61	26277.19
648.76	26256.13
648.90	26302.94
649.05	26092.29
649.20	25956.54
649.34	25930.80
649.49	26073.57
649.63	25649.93
649.78	25940.16
649.92	26012.71
650.07	26405.92
650.21	25886.32
650.36	26015.05
650.51	25898.03
650.65	25881.64
650.80	26174.21
650.94	25701.42
651.09	25891.01
651.23	25771.64
651.38	25680.36
651.52	25764.62
651.67	25607.80
651.81	25940.16
651.96	25788.02
652.10	25525.88
652.25	25741.21
652.39	26089.95
652.54	26178.89
652.68	25640.57
652.83	25940.16
652.97	25935.48
653.12	25525.88
653.26	25228.63
653.41	25448.64
653.55	25270.76
653.70	25322.26
653.84	25907.39
653.99	25427.58
654.13	25472.05
654.27	25387.79
654.42	25247.36
654.56	25612.48
654.71	25362.04
654.85	25235.66
655.00	25621.84
655.14	25266.08
655.29	25521.20
655.43	25242.68
655.57	25568.01
655.72	24950.11
655.86	25003.94
656.01	24926.71
656.15	25008.62
656.30	25076.50
656.44	25120.97
656.58	25064.80
656.73	25226.29
656.87	25202.89
657.01	25085.86
657.16	25458.01
657.30	25425.24
657.45	25123.31
657.59	25111.61
657.73	24996.92
657.88	25226.29
658.02	24907.98
658.16	24966.49
658.31	24638.82
658.45	24891.60
658.60	24636.48
658.74	24723.08
658.88	24624.78
659.03	24802.66
659.17	25006.28
659.31	24854.15
659.46	24795.64
659.60	25064.80
659.74	24613.07
659.89	24514.77
660.03	24631.80
660.17	24907.98
660.32	24521.79
660.46	24484.34
660.60	24439.87
660.74	24390.72
660.89	24556.90
661.03	23981.13
661.17	24762.87
661.32	24425.83
661.46	24624.78
661.60	24201.14
661.74	24727.76
661.89	24329.87
662.03	24196.46
662.17	24212.84
662.31	24128.58
662.46	24273.70
662.60	24458.60
662.74	23939.00
662.88	24027.94
663.03	23992.83
663.17	23936.66
663.31	23840.70
663.45	23538.77
663.60	23894.53
663.74	23843.04
663.88	23931.98
664.02	23981.13
664.17	23983.47
664.31	23723.67
664.45	23742.39
664.59	23866.44
664.73	23351.52
664.88	23683.88
665.02	23468.55
665.16	23215.77
665.30	23229.82
665.44	23192.37
665.59	23484.94
665.73	23131.51
665.87	23271.95
666.01	23372.59
666.15	23569.19
666.29	23049.60
666.44	23208.75
666.58	23194.71
666.72	23042.57
666.86	23250.88
667.00	23517.70
667.14	22789.80
667.28	23131.51
667.43	22656.39
667.57	22794.48
667.71	22934.91
667.85	22930.23
667.99	22745.33
668.13	23033.21
668.27	22836.61
668.41	23103.43
668.56	22925.55
668.70	23145.56
668.84	22810.86
668.98	22916.19
669.12	22724.26
669.26	22813.20
669.40	22810.86
669.54	22714.90
669.68	22705.54
669.82	22178.92
669.96	22146.15
670.10	22347.44
670.25	22466.80
670.39	22104.02
670.53	22141.47
670.67	22361.48
670.81	22579.15
670.95	22305.31
671.09	22455.10
671.23	22104.02
671.37	22288.92
671.51	22188.28
671.65	22167.21
671.79	22050.19
671.93	21731.87
672.07	22001.04
672.21	21816.13
672.35	21521.23
672.49	21619.53
672.63	21638.25
672.77	21610.17
672.91	21357.39
673.05	21766.98
673.19	21469.73
673.33	21373.77
673.47	21355.05
673.61	21432.29
673.75	21642.93
673.89	21319.94
674.03	21383.13
674.17	21298.88
674.31	21371.43
674.45	21235.68
674.59	21139.72
674.73	21291.85
674.87	21062.48
675.01	20790.98
675.15	20835.45
675.29	20872.90
675.43	20870.56
675.56	20624.80
675.70	20989.92
675.84	20657.57
675.98	20519.48
676.12	20805.02
676.26	20889.28
676.40	20889.28
676.54	20861.19
676.68	20610.76
676.82	20292.44
676.96	20262.02
677.10	20161.37
677.23	20175.42
677.37	19721.35
677.51	19955.41
677.65	19971.79
677.79	19969.45
677.93	19859.45
678.07	19826.68
678.21	19679.22
678.34	19676.88
678.48	19676.88
678.62	19803.27
678.76	19695.61
678.90	19543.47
679.04	19393.68
679.18	19419.42
679.31	19115.16
679.45	19445.17
679.59	19180.69
679.73	19187.71
679.87	19147.92
680.00	18956.00
680.14	19042.60
680.28	19000.47
680.42	18951.32
680.56	18927.91
680.70	18778.12
680.83	19009.83
680.97	18815.57
681.11	18876.42
681.25	18462.15
681.39	18527.68
681.52	18286.61
681.66	18464.49
681.80	18436.40
681.94	18436.40
682.07	18326.39
682.21	18054.89
682.35	17994.04
682.49	18160.22
682.62	17984.68
682.76	18029.15
682.90	18033.83
683.04	18363.84
683.17	17790.41
683.31	17961.27
683.45	18036.17
683.59	17617.21
683.72	17727.22
683.86	17724.88
684.00	17713.17
684.13	17532.95
684.27	17537.63
684.41	17291.88
684.55	17355.07
684.68	17315.28
684.82	16954.84
684.96	17247.41
685.09	17104.64
685.23	17135.06
685.37	17071.87
685.50	17408.90
685.64	17263.79
685.78	17046.12
685.91	17097.61
686.05	17053.14
686.19	16833.13
686.32	16931.44
686.46	16634.19
686.60	16606.10
686.73	16428.22
686.87	16383.75
687.01	16404.81
687.14	16304.17
687.28	16248.00
687.42	16107.57
687.55	16142.67
687.69	16156.72
687.82	15882.88
687.96	16130.97
688.10	15819.68
688.23	16119.27
688.37	15815.00
688.50	15894.58
688.64	15728.40
688.78	15824.36
688.91	15480.30
689.05	15644.14
689.18	15372.64
689.32	15410.09
689.46	15297.74
689.59	15157.31
689.73	15522.43
689.86	15243.91
690.00	15211.14
690.13	15105.82
690.27	14995.81
690.41	15325.83
690.54	14963.04
690.68	15021.56
690.81	15290.72
690.95	14981.77
691.08	15089.43
691.22	14602.60
691.35	14796.87
691.49	14586.22
691.62	14565.15
691.76	14785.16
691.89	14490.26
692.03	14394.29
692.16	14366.21
692.30	14427.06
692.43	14443.45
692.57	14260.88
692.70	14038.53
692.84	13998.74
692.97	13895.76
693.11	13905.12
693.24	14146.20
693.38	14059.60
693.51	13996.40
693.65	13921.51
693.78	13774.05
693.92	13823.20
694.05	13738.94
694.19	13572.77
694.32	13635.96
694.45	13282.54
694.59	13214.66
694.72	13132.75
694.86	13387.86
694.99	13099.98
695.13	13186.58
695.26	13268.50
695.39	12903.37
695.53	13107.00
695.66	13046.15
695.80	13221.69
695.93	12931.46
696.07	12989.97
696.20	12952.52
696.33	12882.31
696.47	12655.28
696.60	12690.38
696.73	12690.38
696.87	12608.47
697.00	12561.66
697.14	12432.93
697.27	12311.22
697.40	12421.22
697.54	12189.51
697.67	12430.59
697.80	12123.98
697.94	12166.10
698.07	11864.18
698.21	12140.36
698.34	12025.67
698.47	12128.66
698.61	12056.10
698.74	12098.23
698.87	11981.20
699.01	12109.93
699.14	11875.88
699.27	11817.36
699.40	11679.27
699.54	11651.19
699.67	11676.93
699.80	11456.92
699.94	11477.99
700.07	11300.11
700.20	11201.80
700.34	11112.86
700.47	11316.49
700.60	11389.05
700.73	11318.83
700.87	11335.21
701.00	10974.77
701.13	11138.61
701.26	11290.74
701.40	10953.71
701.53	10998.18
701.66	10977.11
701.79	10911.58
701.93	10752.42
702.06	10773.49
702.19	10736.04
702.32	10602.63
702.46	10686.89
702.59	10572.20
702.72	10377.94
702.85	10279.63
702.99	10307.72
703.12	10656.46
703.25	10216.44
703.38	10223.46
703.51	10296.02
703.65	10356.87
703.78	10190.69
703.91	10085.37
704.04	10312.40
704.17	10162.61
704.31	10061.96
704.44	9874.72
704.57	9975.36
704.70	9713.22
704.83	9680.46
704.96	9703.86
705.10	9619.60
705.23	9638.33
>>>>>End Processed Spectral Data<<<<<
