SpectraSuite Data File
++++++++++++++++++++++++++++++++++++
Date: Fri Oct 18 13:57:55 GMT-05:00 2013
User: bianchi
Dark Spectrum Present: No
Reference Spectrum Present: No
Number of Sampled Component Spectra: 1
Spectrometers: USB2+H05261
Integration Time (usec): 50000 (USB2+H05261)
Spectra Averaged: 1 (USB2+H05261)
Boxcar Smoothing: 0 (USB2+H05261)
Correct for Electrical Dark: No (USB2+H05261)
Strobe/Lamp Enabled: No (USB2+H05261)
Correct for Detector Non-linearity: No (USB2+H05261)
Correct for Stray Light: No (USB2+H05261)
Number of Pixels in Processed Spectrum: 2048
>>>>>Begin Processed Spectral Data<<<<<
365.73	0.00
365.92	0.00
366.12	0.00
366.32	0.00
366.52	0.00
366.72	0.00
366.91	0.00
367.11	0.00
367.31	0.00
367.51	0.00
367.70	0.00
367.90	0.00
368.10	0.00
368.30	0.00
368.49	0.00
368.69	0.00
368.89	0.00
369.09	0.00
369.28	0.00
369.48	0.00
369.68	0.00
369.87	0.00
370.07	0.00
370.27	0.00
370.47	0.00
370.66	138.09
370.86	93.62
371.06	114.69
371.25	217.67
371.45	81.92
371.65	161.50
371.84	102.98
372.04	86.60
372.24	140.43
372.44	152.13
372.63	217.67
372.83	189.58
373.03	180.22
373.22	201.29
373.42	201.29
373.62	201.29
373.81	198.95
374.01	257.46
374.21	248.10
374.40	271.50
374.60	273.84
374.79	215.33
374.99	236.39
375.19	262.14
375.38	243.42
375.58	269.16
375.78	299.59
375.97	301.93
376.17	269.16
376.37	306.61
376.56	236.39
376.76	229.37
376.95	259.80
377.15	332.36
377.35	241.08
377.54	180.22
377.74	285.55
377.93	285.55
378.13	250.44
378.33	278.52
378.52	381.51
378.72	369.80
378.91	376.83
379.11	285.55
379.31	320.65
379.50	351.08
379.70	259.80
379.89	287.89
380.09	306.61
380.28	334.70
380.48	318.31
380.68	278.52
380.87	262.14
381.07	390.87
381.26	393.21
381.46	294.91
381.65	299.59
381.85	262.14
382.04	327.68
382.24	264.48
382.43	308.95
382.63	306.61
382.83	386.19
383.02	390.87
383.22	388.53
383.41	362.78
383.61	379.17
383.80	381.51
384.00	362.78
384.19	353.42
384.39	374.49
384.58	428.32
384.78	383.85
384.97	355.76
385.17	402.57
385.36	428.32
385.56	430.66
385.75	414.27
385.95	411.93
386.14	395.55
386.34	332.36
386.53	397.89
386.72	411.93
386.92	362.78
387.11	433.00
387.31	433.00
387.50	444.70
387.70	430.66
387.89	407.25
388.09	507.90
388.28	519.60
388.48	503.22
388.67	482.15
388.86	451.72
389.06	416.62
389.25	451.72
389.45	491.51
389.64	547.69
389.84	475.13
390.03	550.03
390.22	402.57
390.42	531.30
390.61	486.83
390.81	468.11
391.00	472.79
391.19	507.90
391.39	507.90
391.58	496.19
391.78	599.18
391.97	496.19
392.16	533.64
392.36	580.45
392.55	543.00
392.75	575.77
392.94	622.58
393.13	484.49
393.33	582.79
393.52	589.82
393.71	535.98
393.91	685.78
394.10	617.90
394.29	617.90
394.49	624.92
394.68	594.50
394.88	603.86
395.07	653.01
395.26	657.69
395.46	662.37
395.65	631.94
395.84	720.88
396.04	615.56
396.23	620.24
396.42	681.10
396.62	648.33
396.81	704.50
397.00	657.69
397.19	669.39
397.39	648.33
397.58	681.10
397.77	641.31
397.97	699.82
398.16	734.93
398.35	650.67
398.55	638.97
398.74	723.23
398.93	702.16
399.12	779.40
399.32	821.53
399.51	774.72
399.70	753.65
399.90	741.95
400.09	812.17
400.28	793.44
400.47	812.17
400.67	847.27
400.86	809.83
401.05	795.78
401.24	851.96
401.44	870.68
401.63	868.34
401.82	868.34
402.01	809.83
402.21	786.42
402.40	905.79
402.59	905.79
402.78	802.80
402.97	896.43
403.17	835.57
403.36	809.83
403.55	802.80
403.74	816.85
403.93	994.73
404.13	905.79
404.32	873.02
404.51	924.51
404.70	968.98
404.89	945.58
405.09	1027.50
405.28	1020.47
405.47	926.85
405.66	1022.81
405.85	1102.39
406.05	985.37
406.24	1039.20
406.43	1008.77
406.62	999.41
406.81	1034.52
407.00	1069.62
407.20	1046.22
407.39	997.07
407.58	1074.31
407.77	1114.10
407.96	1081.33
408.15	1041.54
408.34	1132.82
408.54	1090.69
408.73	1078.99
408.92	1151.54
409.11	1137.50
409.30	1146.86
409.49	1107.07
409.68	1146.86
409.87	1158.57
410.07	1200.69
410.26	1238.14
410.45	1174.95
410.64	1165.59
410.83	1212.40
411.02	1174.95
411.21	1226.44
411.40	1245.16
411.59	1245.16
411.78	1299.00
411.98	1315.38
412.17	1273.25
412.36	1338.79
412.55	1289.64
412.74	1376.24
412.93	1341.13
413.12	1284.95
413.31	1411.34
413.50	1317.72
413.69	1369.21
413.88	1476.88
414.07	1437.09
414.26	1432.41
414.45	1535.39
414.64	1544.75
414.83	1605.61
415.02	1530.71
415.22	1526.03
415.41	1579.86
415.60	1610.29
415.79	1650.08
415.98	1596.25
416.17	1614.97
416.36	1572.84
416.55	1724.97
416.74	1692.21
416.93	1729.66
417.12	1720.29
417.31	1736.68
417.50	1678.16
417.69	1755.40
417.88	1717.95
418.07	1785.83
418.26	1839.66
418.45	1797.53
418.64	1886.47
418.83	1851.36
419.02	1825.62
419.21	1797.53
419.39	1790.51
419.58	1898.17
419.77	1853.70
419.96	1799.87
420.15	2059.67
420.34	1893.49
420.53	1919.24
420.72	2031.58
420.91	1935.62
421.10	1998.82
421.29	2076.06
421.48	1975.41
421.67	2097.12
421.86	2031.58
422.05	1987.11
422.24	1980.09
422.43	2090.10
422.61	1961.37
422.80	2033.93
422.99	2069.03
423.18	2008.18
423.37	1980.09
423.56	2094.78
423.75	1977.75
423.94	1907.54
424.13	1886.47
424.32	2087.76
424.50	2148.61
424.69	2111.16
424.88	2174.36
425.07	2045.63
425.26	2054.99
425.45	2108.82
425.64	2050.31
425.83	2062.01
426.01	2188.40
426.20	2143.93
426.39	2160.31
426.58	2120.53
426.77	2150.95
426.96	2165.00
427.15	2087.76
427.33	2165.00
427.52	2228.19
427.71	2235.21
427.90	2230.53
428.09	2155.63
428.28	2317.13
428.46	2317.13
428.65	2221.17
428.84	2270.32
429.03	2242.23
429.22	2298.41
429.40	2228.19
429.59	2356.92
429.78	2181.38
429.97	2228.19
430.16	2342.88
430.34	2223.51
430.53	2345.22
430.72	2335.85
430.91	2375.64
431.10	2380.32
431.28	2363.94
431.47	2401.39
431.66	2504.37
431.85	2408.41
432.03	2476.29
432.22	2473.95
432.41	2340.54
432.60	2523.10
432.79	2553.52
432.97	2553.52
433.16	2525.44
433.35	2487.99
433.54	2647.15
433.72	2581.61
433.91	2621.40
434.10	2565.23
434.28	2555.86
434.47	2640.12
434.66	2670.55
434.85	2616.72
435.03	2590.97
435.22	2733.75
435.41	2815.66
435.59	2684.59
435.78	2775.88
435.97	2778.22
436.16	2726.72
436.34	2775.88
436.53	2789.92
436.72	2806.30
436.90	2808.64
437.09	2878.86
437.28	2803.96
437.46	2773.53
437.65	2808.64
437.84	2862.48
438.02	2839.07
438.21	2916.31
438.40	2841.41
438.58	2993.55
438.77	3054.40
438.96	2902.26
439.14	3070.78
439.33	3026.31
439.52	3007.59
439.70	3157.38
439.89	3054.40
440.08	3068.44
440.26	3145.68
440.45	3038.02
440.63	3105.89
440.82	3117.59
441.01	3131.64
441.19	3187.81
441.38	3393.78
441.57	3159.72
441.75	3330.58
441.94	3328.24
442.12	3295.47
442.31	3454.63
442.50	3468.67
442.68	3501.44
442.87	3391.44
443.05	3339.94
443.24	3435.91
443.43	3400.80
443.61	3487.40
443.80	3503.78
443.98	3363.35
444.17	3398.46
444.35	3492.08
444.54	3574.00
444.73	3492.08
444.91	3543.57
445.10	3503.78
445.28	3562.30
445.47	3372.71
445.65	3543.57
445.84	3641.87
446.02	3559.95
446.21	3564.64
446.39	3581.02
446.58	3660.60
446.77	3569.32
446.95	3534.21
447.14	3581.02
447.32	3662.94
447.51	3548.25
447.69	3672.30
447.88	3520.17
448.06	3648.90
448.25	3585.70
448.43	3702.73
448.62	3648.90
448.80	3613.79
448.99	3660.60
449.17	3709.75
449.36	3679.32
449.54	3707.41
449.73	3662.94
449.91	3822.09
450.10	3899.33
450.28	3815.07
450.46	3880.61
450.65	3892.31
450.83	3934.44
451.02	3904.01
451.20	4039.76
451.39	3777.62
451.57	3819.75
451.76	3786.99
451.94	3784.65
452.13	3936.78
452.31	4021.04
452.49	3955.51
452.68	4095.94
452.86	3974.23
453.05	4004.66
453.23	4098.28
453.42	4009.34
453.60	3918.06
453.78	4173.18
453.97	3976.57
454.15	4056.15
454.34	4154.45
454.52	4086.58
454.70	4098.28
454.89	4079.55
455.07	4135.73
455.26	4159.13
455.44	4222.33
455.62	4423.61
455.81	4180.20
455.99	4205.94
456.17	4229.35
456.36	4325.31
456.54	4304.25
456.73	4339.35
456.91	4393.19
457.09	4334.67
457.28	4671.71
457.46	4521.92
457.64	4372.12
457.83	4367.44
458.01	4369.78
458.19	4699.80
458.38	4510.21
458.56	4662.35
458.74	4634.26
458.93	4589.79
459.11	4585.11
459.29	4681.07
459.48	4409.57
459.66	4521.92
459.84	4613.20
460.03	4882.36
460.21	4634.26
460.39	4648.30
460.57	4744.27
460.76	4840.23
460.94	4706.82
461.12	4716.18
461.31	4734.90
461.49	4758.31
461.67	4821.50
461.85	4915.12
462.04	4830.87
462.22	5198.33
462.40	5020.45
462.59	4833.21
462.77	5025.13
462.95	4891.72
463.13	4873.00
463.32	4983.00
463.50	5160.88
463.68	4931.51
463.86	5008.75
464.05	4973.64
464.23	4985.34
464.41	5118.75
464.59	4938.53
464.78	5163.22
464.96	5041.51
465.14	4983.00
465.32	5132.79
465.50	5205.35
465.69	5224.08
465.87	5289.61
466.05	5195.99
466.23	5153.86
466.41	5181.95
466.60	5343.44
466.78	5235.78
466.96	5191.31
467.14	5418.34
467.32	5195.99
467.51	5352.81
467.69	5266.21
467.87	5219.39
468.05	5453.45
468.23	5107.05
468.41	5406.64
468.60	5247.48
468.78	5420.68
468.96	5317.70
469.14	5479.19
469.32	5390.25
469.50	5446.43
469.69	5593.88
469.87	5530.69
470.05	5666.44
470.23	5575.16
470.41	5570.48
470.59	5703.89
470.77	5565.79
470.95	5760.06
471.14	5621.97
471.32	5591.54
471.50	5764.74
471.68	5867.72
471.86	5809.21
472.04	5727.29
472.22	6057.31
472.40	5797.51
472.58	5933.26
472.77	5973.05
472.95	6066.67
473.13	6090.07
473.31	5951.98
473.49	6045.60
473.67	6108.80
473.85	6078.37
474.03	6249.23
474.21	6260.93
474.39	6221.14
474.57	6366.26
474.75	6370.94
474.93	6434.13
475.12	6415.41
475.30	6434.13
475.48	6483.28
475.66	6469.24
475.84	6368.60
476.02	6473.92
476.20	6623.72
476.38	6839.05
476.56	6689.25
476.74	6759.47
476.92	6761.81
477.10	6609.67
477.28	6998.20
477.46	6825.00
477.64	6871.81
477.82	6977.14
478.00	7126.93
478.18	7037.99
478.36	7232.26
478.54	7316.51
478.72	7194.81
478.90	7204.17
479.08	7379.71
479.26	7705.04
479.44	7566.95
479.62	7482.69
479.80	7681.64
479.98	7728.45
480.16	7508.44
480.34	7735.47
480.52	7920.37
480.70	7922.71
480.88	7824.41
481.06	8030.38
481.24	8173.15
481.41	8222.30
481.59	8095.91
481.77	8241.03
481.95	8198.90
482.13	8269.11
482.31	8482.10
482.49	8645.94
482.67	8498.49
482.85	8549.98
483.03	8847.22
483.21	8835.52
483.39	8842.54
483.57	8709.13
483.74	9057.87
483.92	8929.14
484.10	8947.87
484.28	9050.85
484.46	9191.28
484.64	9469.81
484.82	9139.79
485.00	9413.63
485.18	9659.39
485.35	9788.12
485.53	9593.86
485.71	9645.35
485.89	9980.04
486.07	9781.10
486.25	10045.58
486.43	9949.62
486.61	9984.73
486.78	10235.16
486.96	10113.45
487.14	10408.36
487.32	10349.85
487.50	10497.30
487.68	10600.29
487.85	10616.67
488.03	10986.47
488.21	10871.79
488.39	10698.59
488.57	11042.65
488.75	11012.22
488.92	11197.12
489.10	11332.87
489.28	11253.30
489.46	11215.85
489.64	11398.41
489.81	11473.31
489.99	11534.16
490.17	11648.85
490.35	11927.37
490.53	11964.82
490.70	11955.46
490.88	11796.30
491.06	12119.29
491.24	12154.40
491.41	12060.78
491.59	12269.09
491.77	12278.45
491.95	12606.13
492.13	12615.49
492.30	12559.31
492.48	12498.46
492.66	12805.07
492.84	12912.74
493.01	12877.63
493.19	13153.81
493.37	13270.84
493.54	13249.77
493.72	13341.05
493.90	13132.75
494.08	13483.83
494.25	13273.18
494.43	13514.25
494.61	13731.92
494.79	13797.46
494.96	13507.23
495.14	13673.41
495.32	13963.64
495.49	14045.55
495.67	13956.61
495.85	14295.99
496.02	14321.74
496.20	14349.82
496.38	14452.81
496.55	14249.18
496.73	14909.21
496.91	14750.06
497.09	14618.99
497.26	15021.56
497.44	14670.48
497.62	14920.92
497.79	15068.37
497.97	15243.91
498.14	15337.53
498.32	15412.43
498.50	15300.08
498.67	15405.41
498.85	15531.80
499.03	15506.05
499.20	15477.96
499.38	15604.35
499.56	15641.80
499.73	15826.70
499.91	16025.65
500.08	15903.94
500.26	15819.68
500.44	15800.96
500.61	16432.90
500.79	16074.80
500.97	16315.87
501.14	16313.53
501.32	16233.96
501.49	16510.14
501.67	16472.69
501.84	16367.37
502.02	16512.48
502.20	16603.76
502.37	16863.56
502.55	17011.01
502.72	17181.87
502.90	16737.17
503.07	16645.89
503.25	16727.81
503.43	17165.49
503.60	16950.16
503.78	17139.74
503.95	17118.68
504.13	17165.49
504.30	17179.53
504.48	17153.79
504.65	17326.99
504.83	17582.10
505.01	17561.04
505.18	17600.83
505.36	17834.88
505.53	17572.74
505.71	17432.31
505.88	17930.84
506.06	17467.42
506.23	17869.99
506.41	18031.49
506.58	17900.42
506.76	17996.38
506.93	18181.28
507.11	17860.63
507.28	17930.84
507.46	18176.60
507.63	18298.31
507.81	18310.01
507.98	18230.43
508.16	18705.56
508.33	18534.70
508.50	18668.11
508.68	18796.84
508.85	18862.38
509.03	18876.42
509.20	18813.23
509.38	18906.85
509.55	19316.44
509.73	19201.76
509.90	18932.59
510.08	19082.39
510.25	19309.42
510.42	19314.10
510.60	19281.33
510.77	19494.32
510.95	19482.62
511.12	19367.93
511.30	19307.08
511.47	19421.77
511.64	19667.52
511.82	19529.43
511.99	19674.54
512.17	19939.02
512.34	19520.07
512.51	19953.07
512.69	19807.95
512.86	19894.55
513.04	19920.30
513.21	20053.71
513.38	19896.89
513.56	20163.72
513.73	19843.06
513.90	20196.48
514.08	20135.63
514.25	20636.50
514.43	20449.26
514.60	20624.80
514.77	20381.38
514.95	20727.78
515.12	20559.27
515.29	20505.43
515.47	20636.50
515.64	20812.04
515.81	20734.81
515.99	20875.24
516.16	20790.98
516.33	21003.97
516.51	21149.08
516.68	20854.17
516.85	20954.82
517.03	21167.80
517.20	21238.02
517.37	21055.46
517.54	21324.62
517.72	21139.72
517.89	21441.65
518.06	21610.17
518.24	21301.22
518.41	21553.99
518.58	21408.88
518.75	21546.97
518.93	21745.92
519.10	21736.56
519.27	21994.01
519.45	21703.79
519.62	21586.76
519.79	21706.13
519.96	21570.38
520.14	22068.91
520.31	21905.07
520.48	22157.85
520.65	22239.77
520.83	22171.89
521.00	22134.45
521.17	22132.11
521.34	22185.94
521.52	22263.18
521.69	22419.99
521.86	22530.00
522.03	22534.68
522.20	22476.16
522.38	22560.42
522.55	22675.11
522.72	22562.76
522.89	22822.56
523.07	22806.18
523.24	23119.81
523.41	22998.10
523.58	22827.24
523.75	23295.35
523.92	22864.69
524.10	22527.66
524.27	23009.81
524.44	23101.09
524.61	23508.34
524.78	23187.69
524.96	23044.91
525.13	23220.45
525.30	23487.28
525.47	23033.21
525.64	23122.15
525.81	23667.50
525.98	23704.95
526.16	23513.02
526.33	23613.66
526.50	23648.77
526.67	23655.79
526.84	23782.18
527.01	23868.78
527.18	23749.42
527.36	24105.18
527.53	24016.24
527.70	24386.04
527.87	24299.44
528.04	24074.75
528.21	24100.50
528.38	24119.22
528.55	23957.72
528.72	24058.37
528.89	23744.73
529.07	24074.75
529.24	24154.33
529.41	24247.95
529.58	24201.14
529.75	23861.76
529.92	24196.46
530.09	24299.44
530.26	24669.25
530.43	24517.11
530.60	24446.90
530.77	24559.24
530.94	24692.65
531.11	24257.31
531.28	24390.72
531.46	24706.70
531.63	24868.19
531.80	25015.65
531.97	25008.62
532.14	25022.67
532.31	24622.44
532.48	24945.43
532.65	25200.55
532.82	25238.00
532.99	24739.46
533.16	24959.47
533.33	25383.11
533.50	25743.55
533.67	25268.42
533.84	25263.74
534.01	25371.41
534.18	25296.51
534.35	25589.08
534.52	25598.44
534.69	25652.27
534.86	25668.66
535.03	25764.62
535.20	25509.50
535.37	25701.42
535.54	25598.44
535.71	25649.93
535.88	25443.96
536.05	25923.77
536.22	25614.82
536.38	26206.98
536.55	25886.32
536.72	25986.97
536.89	25809.09
537.06	26106.34
537.23	26342.73
537.40	26087.61
537.57	25811.43
537.74	26129.74
537.91	26462.10
538.08	26115.70
538.25	26148.46
538.42	26326.35
538.59	26581.46
538.75	25961.22
538.92	26302.94
539.09	26195.28
539.26	26073.57
539.43	26749.98
539.60	26485.50
539.77	26352.09
539.94	26607.21
540.11	26438.69
540.28	26696.15
540.44	26469.12
540.61	26527.63
540.78	26218.68
540.95	26611.89
541.12	26691.47
541.29	27278.94
541.46	27002.76
541.62	26778.07
541.79	26761.69
541.96	26691.47
542.13	26740.62
542.30	26637.64
542.47	27438.10
542.63	26888.07
542.80	27197.02
542.97	27356.18
543.14	27510.66
543.31	27084.68
543.48	27080.00
543.64	27686.20
543.81	27325.75
543.98	27562.15
544.15	27524.70
544.32	27520.02
544.48	27789.18
544.65	27571.51
544.82	27463.85
544.99	27192.34
545.16	27503.64
545.32	27520.02
545.49	27826.63
545.66	27957.70
545.83	27704.92
546.00	28093.45
546.16	27653.43
546.33	27618.32
546.50	27339.80
546.67	27814.93
546.83	27880.46
547.00	27903.87
547.17	27854.72
547.34	28102.81
547.50	27871.10
547.67	28591.98
547.84	28126.22
548.00	28119.20
548.17	27990.47
548.34	28177.71
548.51	28332.18
548.67	28058.34
548.84	28348.57
549.01	28608.37
549.18	28060.68
549.34	28634.11
549.51	28528.79
549.68	28194.09
549.84	28180.05
550.01	28760.50
550.18	28704.33
550.34	28500.70
550.51	28489.00
550.68	28479.64
550.84	28278.35
551.01	28870.51
551.18	28184.73
551.34	28587.30
551.51	28814.34
551.68	28683.27
551.84	28755.82
552.01	28744.12
552.18	29151.37
552.34	28994.56
552.51	28833.06
552.68	28610.71
552.84	29132.65
553.01	28868.17
553.18	28505.38
553.34	28971.15
553.51	28697.31
553.67	28961.79
553.84	29359.68
554.01	29123.29
554.17	29200.52
554.34	29106.90
554.51	29029.66
554.67	28910.30
554.84	29163.08
555.00	29509.47
555.17	29074.13
555.33	29677.99
555.50	29383.09
555.67	28924.34
555.83	28975.83
556.00	29181.80
556.16	29549.26
556.33	29401.81
556.50	29631.18
556.66	29413.51
556.83	29495.43
556.99	29589.05
557.16	29837.15
557.32	29598.41
557.49	29476.71
557.65	29457.98
557.82	29142.01
557.98	29277.76
558.15	29795.02
558.32	29947.15
558.48	29909.71
558.65	29532.88
558.81	29806.72
558.98	29699.06
559.14	29556.28
559.31	29642.88
559.47	29820.77
559.64	29979.92
559.80	29811.40
559.97	29661.61
560.13	29731.83
560.30	29773.95
560.46	30169.51
560.63	29841.83
560.79	30061.84
560.96	29998.65
561.12	29743.53
561.29	29600.76
561.45	29570.33
561.61	29909.71
561.78	30040.78
561.94	29916.73
562.11	30155.46
562.27	30471.43
562.44	30003.33
562.60	30064.18
562.77	30298.23
562.93	29965.88
563.10	30160.14
563.26	29893.32
563.42	30522.93
563.59	30387.18
563.75	30017.37
563.92	30157.80
564.08	29905.02
564.24	30499.52
564.41	30190.57
564.57	30515.90
564.74	30059.50
564.90	30096.95
565.07	30529.95
565.23	30597.82
565.39	30157.80
565.56	30492.50
565.72	30225.68
565.88	30450.37
566.05	30162.48
566.21	30288.87
566.38	30033.75
566.54	30478.46
566.70	30462.07
566.87	30768.68
567.03	30485.48
567.19	30773.36
567.36	30501.86
567.52	30698.47
567.68	30834.22
567.85	30384.83
568.01	30527.61
568.17	30162.48
568.34	30724.21
568.50	30672.72
568.66	30710.17
568.83	30476.12
568.99	30710.17
569.15	30649.32
569.32	30658.68
569.48	30829.54
569.64	30663.36
569.81	30642.29
569.97	30459.73
570.13	30724.21
570.30	30630.59
570.46	30869.33
570.62	30583.78
570.78	30635.27
570.95	30686.76
571.11	30742.94
571.27	30183.55
571.43	30326.32
571.60	30595.48
571.76	30822.51
571.92	30829.54
572.09	30822.51
572.25	31005.08
572.41	30969.97
572.57	30719.53
572.74	30836.56
572.90	30895.07
573.06	30986.35
573.22	31159.55
573.38	30778.04
573.55	31103.38
573.71	31072.95
573.87	31145.51
574.03	30768.68
574.20	30958.27
574.36	30850.60
574.52	30916.14
574.68	30829.54
574.84	31164.23
575.01	30897.41
575.17	30920.82
575.33	30728.89
575.49	30934.86
575.65	30998.06
575.82	31147.85
575.98	30707.83
576.14	31056.57
576.30	30937.20
576.46	30934.86
576.62	31239.13
576.79	30948.90
576.95	30852.94
577.11	31126.78
577.27	31091.68
577.43	31124.44
577.59	31040.18
577.75	30979.33
577.92	30756.98
578.08	31009.76
578.24	30881.03
578.40	30827.20
578.56	31307.01
578.72	30850.60
578.88	31426.37
579.04	31463.82
579.21	31157.21
579.37	30902.09
579.53	31229.77
579.69	31119.76
579.85	31143.17
580.01	30766.34
580.17	30686.76
580.33	31105.72
580.49	30939.54
580.65	30724.21
580.82	31321.05
580.98	30972.31
581.14	31201.68
581.30	30923.16
581.46	31227.43
581.62	31152.53
581.78	30838.90
581.94	31105.72
582.10	30906.77
582.26	31021.46
582.42	31197.00
582.58	31075.29
582.74	31393.61
582.90	30962.95
583.06	31454.46
583.22	31309.35
583.38	31005.08
583.54	30815.49
583.70	31159.55
583.86	31314.03
584.02	31096.36
584.18	31351.48
584.34	31089.34
584.50	31119.76
584.66	31330.41
584.82	31002.74
584.98	31213.38
585.14	31033.16
585.30	31119.76
585.46	30841.24
585.62	30761.66
585.78	31133.81
585.94	31248.49
586.10	31229.77
586.26	31534.04
586.42	31697.88
586.58	31510.63
586.74	30862.30
586.90	31229.77
587.06	31381.90
587.22	31391.26
587.38	31255.51
587.54	31630.00
587.70	31438.08
587.86	31857.03
588.02	31379.56
588.18	31536.38
588.34	31103.38
588.49	31428.71
588.65	31035.50
588.81	31395.95
588.97	30923.16
589.13	31129.12
589.29	31386.58
589.45	31730.64
589.61	31477.86
589.77	31428.71
589.93	31363.18
590.08	31339.77
590.24	31889.80
590.40	31723.62
590.56	31707.24
590.72	31201.68
590.88	31021.46
591.04	31426.37
591.20	31824.26
591.35	31754.05
591.51	31913.20
591.67	31782.13
591.83	32002.14
591.99	31927.25
592.15	31931.93
592.31	31943.63
592.46	31566.81
592.62	31651.06
592.78	31470.84
592.94	31620.64
593.10	31356.16
593.26	31475.52
593.41	32013.85
593.57	32020.87
593.73	31906.18
593.89	31721.28
594.05	31978.74
594.20	31564.46
594.36	31927.25
594.52	31711.92
594.68	31452.12
594.84	31323.39
594.99	31805.54
595.15	31501.27
595.31	31784.48
595.47	31901.50
595.62	31599.57
595.78	31627.66
595.94	32079.38
596.10	31747.03
596.25	31651.06
596.41	31906.18
596.57	31330.41
596.73	31543.40
596.88	31693.19
597.04	31988.10
597.20	31969.38
597.36	31545.74
597.51	32306.41
597.67	31704.90
597.83	32018.53
597.99	31971.72
598.14	31927.25
598.30	31433.39
598.46	31920.23
598.61	31988.10
598.77	31817.24
598.93	32053.64
599.09	31817.24
599.24	32355.57
599.40	32196.41
599.56	31967.04
599.71	32074.70
599.87	32095.77
600.03	31938.95
600.18	31791.50
600.34	31969.38
600.50	31679.15
600.65	32086.40
600.81	31835.97
600.97	31941.29
601.12	32285.35
601.28	32177.68
601.44	31852.35
601.59	32182.37
601.75	31920.23
601.91	32322.80
602.06	31852.35
602.22	32084.06
602.37	31747.03
602.53	32135.56
602.69	32252.58
602.84	32107.47
603.00	31831.29
603.16	31922.57
603.31	32081.72
603.47	32037.25
603.62	31812.56
603.78	32006.83
603.94	31765.75
604.09	31854.69
604.25	31861.71
604.40	31981.08
604.56	31480.21
604.71	32123.85
604.87	32074.70
605.03	31615.96
605.18	32140.24
605.34	32231.52
605.49	31744.69
605.65	32013.85
605.80	31672.13
605.96	31842.99
606.12	32175.34
606.27	32004.49
606.43	31665.11
606.58	32065.34
606.74	32109.81
606.89	32105.13
607.05	32044.27
607.20	32130.87
607.36	31732.98
607.51	31936.61
607.67	31503.61
607.82	31536.38
607.98	31655.75
608.13	31800.86
608.29	31695.53
608.44	31943.63
608.60	31948.31
608.75	31967.04
608.91	31835.97
609.06	31658.09
609.22	31601.91
609.37	31290.62
609.53	31510.63
609.68	31913.20
609.84	31604.25
609.99	31782.13
610.15	31702.56
610.30	31555.10
610.46	31384.24
610.61	31777.45
610.76	31452.12
610.92	31735.32
611.07	31807.88
611.23	31199.34
611.38	31538.72
611.54	31585.53
611.69	31522.34
611.84	31445.10
612.00	31243.81
612.15	31459.14
612.31	31515.31
612.46	31353.82
612.62	31622.98
612.77	31395.95
612.92	31580.85
613.08	31445.10
613.23	31592.55
613.39	31367.86
613.54	31351.48
613.69	31157.21
613.85	31545.74
614.00	31204.02
614.15	31651.06
614.31	31077.63
614.46	31250.83
614.62	31370.20
614.77	31384.24
614.92	31377.22
615.08	31234.45
615.23	31065.93
615.38	31089.34
615.54	31297.64
615.69	31447.44
615.84	31208.70
616.00	31159.55
616.15	30892.73
616.30	31278.92
616.46	31262.54
616.61	30955.93
616.76	31065.93
616.92	31337.43
617.07	30808.47
617.22	30962.95
617.37	31372.54
617.53	30721.87
617.68	30981.67
617.83	31051.89
617.99	30941.88
618.14	31122.10
618.29	30895.07
618.45	31159.55
618.60	31199.34
618.75	30836.56
618.90	31070.61
619.06	31227.43
619.21	30902.09
619.36	30946.56
619.51	30689.10
619.67	30452.71
619.82	30583.78
619.97	30466.75
620.12	30658.68
620.28	30700.81
620.43	31019.12
620.58	30932.52
620.73	30761.66
620.89	30998.06
621.04	30958.27
621.19	30363.77
621.34	31005.08
621.49	30487.82
621.65	30464.41
621.80	30869.33
621.95	30082.91
622.10	30682.08
622.25	30359.09
622.41	30305.26
622.56	30628.25
622.71	30761.66
622.86	30361.43
623.01	30602.50
623.16	30665.70
623.32	30691.44
623.47	30363.77
623.62	30513.56
623.77	30583.78
623.92	30368.45
624.07	30183.55
624.23	30235.04
624.38	30230.36
624.53	30059.50
624.68	30361.43
624.83	30562.72
624.98	30480.80
625.13	30162.48
625.29	30754.64
625.44	30110.99
625.59	30015.03
625.74	29773.95
625.89	29745.87
626.04	30190.57
626.19	30291.21
626.34	30113.33
626.49	30139.08
626.65	30190.57
626.80	30405.90
626.95	30244.40
627.10	29928.43
627.25	29752.89
627.40	29591.39
627.55	29827.79
627.70	30057.16
627.85	29497.77
628.00	29773.95
628.15	30061.84
628.30	29724.80
628.45	29514.16
628.60	29277.76
628.76	29869.92
628.91	29930.77
629.06	30136.74
629.21	29619.48
629.36	29841.83
629.51	29598.41
629.66	29429.90
629.81	29582.03
629.96	29776.30
630.11	29404.15
630.26	29834.81
630.41	29303.51
630.56	29397.13
630.71	29734.17
630.86	29439.26
631.01	29649.91
631.16	29647.57
631.31	29294.14
631.46	29446.28
631.61	29692.04
631.76	29532.88
631.91	29582.03
632.06	29511.81
632.21	29230.95
632.36	29275.42
632.51	28931.36
632.66	29219.25
632.81	28896.25
632.96	29397.13
633.10	29647.57
633.25	29373.72
633.40	29373.72
633.55	29266.06
633.70	28858.81
633.85	28783.91
634.00	29139.67
634.15	29069.45
634.30	29146.69
634.45	29092.86
634.60	28816.68
634.75	29177.12
634.90	29507.13
635.05	29385.43
635.19	29247.33
635.34	29013.28
635.49	28718.37
635.64	28877.53
635.79	28996.90
635.94	28746.46
636.09	28971.15
636.24	28716.03
636.39	28767.52
636.53	28386.02
636.68	28772.21
636.83	29120.95
636.98	28704.33
637.13	28793.27
637.28	28701.99
637.43	28727.74
637.57	28797.95
637.72	28739.44
637.87	28875.19
638.02	28460.91
638.17	28737.10
638.32	28634.11
638.46	28577.94
638.61	28187.07
638.76	28229.20
638.91	28287.71
639.06	28439.85
639.20	28563.90
639.35	28423.47
639.50	28547.51
639.65	28606.03
639.80	28884.55
639.94	28444.53
640.09	28526.45
640.24	28264.31
640.39	28030.26
640.54	27929.61
640.68	28175.37
640.83	28196.43
640.98	28011.53
641.13	28135.58
641.27	28472.62
641.42	28493.68
641.57	28240.90
641.72	28432.83
641.86	28053.66
642.01	27992.81
642.16	27924.93
642.31	28240.90
642.45	27910.89
642.60	28231.54
642.75	28126.22
642.90	27868.76
643.04	28004.51
643.19	27749.39
643.34	28067.70
643.48	28079.41
643.63	27740.03
643.78	28210.48
643.93	28128.56
644.07	28198.77
644.22	28250.27
644.37	27733.01
644.51	27810.25
644.66	27473.21
644.81	27744.71
644.95	27594.92
645.10	27620.66
645.25	27747.05
645.39	27742.37
645.54	27669.81
645.69	27704.92
645.83	27730.67
645.98	27768.12
646.13	27929.61
646.27	27587.89
646.42	27835.99
646.57	27562.15
646.71	27475.55
646.86	27662.79
647.00	27538.74
647.15	27232.13
647.30	27449.80
647.44	27398.31
647.59	27323.41
647.74	27498.95
647.88	27222.77
648.03	27445.12
648.17	27597.26
648.32	27864.08
648.47	27702.58
648.61	27295.33
648.76	27255.54
648.90	27276.60
649.05	27304.69
649.20	27204.05
649.34	27395.97
649.49	27351.50
649.63	27292.99
649.78	27377.25
649.92	27047.23
650.07	27421.72
650.21	27384.27
650.36	27047.23
650.51	27080.00
650.65	27424.06
650.80	27138.51
650.94	27182.98
651.09	26944.25
651.23	26815.52
651.38	27150.21
651.52	27243.84
651.67	26958.29
651.81	26625.93
651.96	26967.65
652.10	27049.57
652.25	27234.47
652.39	27190.00
652.54	27608.96
652.68	27173.62
652.83	26850.63
652.97	27166.60
653.12	27304.69
653.26	26998.08
653.41	26749.98
653.55	26904.46
653.70	26965.31
653.84	26939.57
653.99	26995.74
654.13	26588.49
654.27	27199.37
654.42	26675.09
654.56	26775.73
654.71	27040.21
654.85	26895.10
655.00	26881.05
655.14	26668.06
655.29	26920.84
655.43	26647.00
655.57	26899.78
655.72	26476.14
655.86	26649.34
656.01	26721.90
656.15	26609.55
656.30	26569.76
656.44	26441.03
656.58	26558.06
656.73	26064.21
656.87	26595.51
657.01	26497.20
657.16	26120.38
657.30	26513.59
657.45	26560.40
657.59	26506.57
657.73	25858.24
657.88	26232.72
658.02	26476.14
658.16	26277.19
658.31	26214.00
658.45	26253.79
658.60	25951.86
658.74	26319.32
658.88	25813.77
659.03	25996.33
659.17	26071.23
659.31	26419.97
659.46	25886.32
659.60	25984.63
659.74	26143.78
659.89	26001.01
660.03	25811.43
660.17	25965.90
660.32	25797.38
660.46	25766.96
660.60	25483.75
660.74	25692.06
660.89	25521.20
661.03	25273.10
661.17	25446.30
661.32	25685.04
661.46	25837.17
661.60	25303.53
661.74	25757.60
661.89	25729.51
662.03	25490.77
662.17	25612.48
662.31	25338.64
662.46	25759.94
662.60	25443.96
662.74	25486.09
662.88	25556.31
663.03	25238.00
663.17	25095.22
663.31	25113.95
663.45	25249.70
663.60	25245.02
663.74	24952.45
663.88	25151.40
664.02	25027.35
664.17	25025.01
664.31	25362.04
664.45	24961.81
664.59	25149.06
664.73	25191.19
664.88	25296.51
665.02	24709.04
665.16	24528.81
665.30	24989.90
665.44	24493.71
665.59	24549.88
665.73	24540.52
665.87	24166.03
666.01	24723.08
666.15	24613.07
666.29	24428.17
666.44	24601.37
666.58	24219.86
666.72	24250.29
666.86	24662.22
667.00	24683.29
667.14	24407.11
667.28	24041.98
667.43	24271.36
667.57	24243.27
667.71	24196.46
667.85	24070.07
667.99	23915.59
668.13	23927.30
668.27	23875.80
668.41	24166.03
668.56	23976.45
668.70	23978.79
668.84	24372.00
668.98	23943.68
669.12	24081.77
669.26	23733.03
669.40	23939.00
669.54	23810.27
669.68	23782.18
669.82	23728.35
669.96	23726.01
670.10	23222.80
670.25	23550.47
670.39	23644.09
670.53	23639.41
670.67	23248.54
670.81	23363.23
670.95	23367.91
671.09	23508.34
671.23	23503.66
671.37	23126.83
671.51	23323.44
671.65	23723.67
671.79	23278.97
671.93	23033.21
672.07	23056.62
672.21	22831.93
672.35	22883.42
672.49	22661.07
672.63	22932.57
672.77	22670.43
672.91	22689.15
673.05	22852.99
673.19	22717.24
673.33	22941.93
673.47	22986.40
673.61	22677.45
673.75	22820.22
673.89	22419.99
674.03	22565.10
674.17	22480.85
674.31	22530.00
674.45	22368.50
674.59	22235.09
674.73	22286.58
674.87	22235.09
675.01	22061.89
675.15	21923.80
675.29	21895.71
675.43	22197.64
675.56	21984.65
675.70	21888.69
675.84	21781.03
675.98	21415.90
676.12	21907.41
676.26	22312.33
676.40	21785.71
676.54	21687.40
676.68	21855.92
676.82	21394.84
676.96	21331.64
677.10	21682.72
677.23	21261.43
677.37	21071.84
677.51	21252.06
677.65	20809.70
677.79	21289.51
677.93	20704.38
678.07	20702.04
678.21	20783.96
678.34	20849.49
678.48	20568.63
678.62	20692.68
678.76	20713.74
678.90	20453.94
679.04	20617.78
679.18	20690.34
679.31	20575.65
679.45	19749.44
679.59	20077.12
679.73	20039.67
679.87	19981.15
680.00	19971.79
680.14	19889.87
680.28	19976.47
680.42	19920.30
680.56	20210.53
680.70	19641.78
680.83	19964.77
680.97	19854.76
681.11	20011.58
681.25	19487.30
681.39	19550.49
681.52	19531.77
681.66	19459.21
681.80	19459.21
681.94	19412.40
682.07	19403.04
682.21	19311.76
682.35	19143.24
682.49	19115.16
682.62	18970.04
682.76	19023.87
682.90	18927.91
683.04	18897.49
683.17	18890.46
683.31	19105.79
683.45	19042.60
683.59	18752.37
683.72	18867.06
683.86	18677.48
684.00	18445.76
684.13	18567.47
684.27	18228.09
684.41	18600.24
684.55	18195.32
684.68	18216.39
684.82	18171.92
684.96	18143.83
685.09	18075.96
685.23	17972.97
685.37	17832.54
685.50	17972.97
685.64	18026.81
685.78	17720.20
685.91	17788.07
686.05	17930.84
686.19	17905.10
686.32	17738.92
686.46	17376.14
686.60	17593.81
686.73	17589.13
686.87	17336.35
687.01	17348.05
687.14	17207.62
687.28	17160.81
687.42	17111.66
687.55	17085.91
687.69	16917.39
687.82	16959.52
687.96	16943.14
688.10	16891.65
688.23	16716.11
688.37	17022.72
688.50	16659.93
688.64	16854.20
688.78	16748.87
688.91	16468.01
689.05	16606.10
689.18	16414.18
689.32	16238.64
689.46	16025.65
689.59	16442.26
689.73	16369.71
689.86	15903.94
690.00	16489.07
690.13	16219.91
690.27	15822.02
690.41	16035.01
690.54	15756.49
690.68	15674.57
690.81	15896.92
690.95	15791.59
691.08	15948.41
691.22	15637.12
691.35	15309.44
691.49	15742.44
691.62	15592.65
691.76	15632.44
691.89	15342.21
692.03	15094.11
692.16	15183.06
692.30	14956.02
692.43	14897.51
692.57	15126.88
692.70	14932.62
692.84	15082.41
692.97	14810.91
693.11	14932.62
693.24	14813.25
693.38	14876.44
693.51	14813.25
693.65	14459.83
693.78	14614.30
693.92	14824.95
694.05	14714.95
694.19	14431.74
694.32	14471.53
694.45	14204.71
694.59	14197.69
694.72	14047.90
694.86	13980.02
694.99	14026.83
695.13	13774.05
695.26	13823.20
695.39	13717.88
695.53	13734.26
695.66	13624.26
695.80	13965.98
695.93	13802.14
696.07	13738.94
696.20	13851.29
696.33	13516.59
696.47	13448.72
696.60	13418.29
696.73	13579.79
696.87	13296.58
697.00	13277.86
697.14	13231.05
697.27	12950.18
697.40	13020.40
697.54	13022.74
697.67	12854.22
697.80	12788.69
697.94	12837.84
698.07	12814.43
698.21	12631.87
698.34	12793.37
698.47	12837.84
698.61	12690.38
698.74	12690.38
698.87	12769.96
699.01	12456.33
699.14	12704.43
699.27	12280.79
699.40	12531.23
699.54	12479.74
699.67	12269.09
699.80	11950.78
699.94	12159.08
700.07	11995.25
700.20	11847.79
700.34	11655.87
700.47	11868.86
700.60	11894.60
700.73	11978.86
700.87	11896.94
701.00	11929.71
701.13	11728.42
701.26	11819.71
701.40	11726.08
701.53	11637.14
701.66	11461.60
701.79	11421.81
701.93	11337.56
702.06	11367.98
702.19	11199.46
702.32	11227.55
702.46	11094.14
702.59	10888.17
702.72	11143.29
702.85	10993.50
702.99	10834.34
703.12	11126.91
703.25	10815.62
703.38	10633.05
703.51	10876.47
703.65	10871.79
703.78	10813.28
703.91	10684.55
704.04	10951.37
704.17	10752.42
704.31	10862.43
704.44	10483.26
704.57	10366.23
704.70	10523.05
704.83	10176.65
704.96	10354.53
705.10	10073.67
705.23	10171.97
>>>>>End Processed Spectral Data<<<<<
