SpectraSuite Data File
++++++++++++++++++++++++++++++++++++
Date: Fri Oct 18 13:58:17 GMT-05:00 2013
User: bianchi
Dark Spectrum Present: No
Reference Spectrum Present: No
Number of Sampled Component Spectra: 1
Spectrometers: USB2+H05261
Integration Time (usec): 50000 (USB2+H05261)
Spectra Averaged: 1 (USB2+H05261)
Boxcar Smoothing: 0 (USB2+H05261)
Correct for Electrical Dark: No (USB2+H05261)
Strobe/Lamp Enabled: No (USB2+H05261)
Correct for Detector Non-linearity: No (USB2+H05261)
Correct for Stray Light: No (USB2+H05261)
Number of Pixels in Processed Spectrum: 2048
>>>>>Begin Processed Spectral Data<<<<<
365.73	0.00
365.92	0.00
366.12	0.00
366.32	0.00
366.52	0.00
366.72	0.00
366.91	0.00
367.11	0.00
367.31	0.00
367.51	0.00
367.70	0.00
367.90	0.00
368.10	0.00
368.30	0.00
368.49	0.00
368.69	0.00
368.89	0.00
369.09	0.00
369.28	0.00
369.48	0.00
369.68	0.00
369.87	0.00
370.07	0.00
370.27	0.00
370.47	0.00
370.66	37.45
370.86	93.62
371.06	149.79
371.25	149.79
371.45	112.35
371.65	119.37
371.84	163.84
372.04	159.16
372.24	187.24
372.44	161.50
372.63	257.46
372.83	236.39
373.03	245.76
373.22	133.41
373.42	168.52
373.62	203.63
373.81	187.24
374.01	234.05
374.21	215.33
374.40	252.78
374.60	308.95
374.79	227.03
374.99	287.89
375.19	222.35
375.38	198.95
375.58	285.55
375.78	245.76
375.97	353.42
376.17	280.86
376.37	266.82
376.56	259.80
376.76	231.71
376.95	203.63
377.15	252.78
377.35	229.37
377.54	236.39
377.74	273.84
377.93	297.25
378.13	264.48
378.33	236.39
378.52	229.37
378.72	278.52
378.91	290.23
379.11	273.84
379.31	287.89
379.50	287.89
379.70	262.14
379.89	266.82
380.09	243.42
380.28	332.36
380.48	327.68
380.68	292.57
380.87	308.95
381.07	273.84
381.26	372.15
381.46	337.04
381.65	292.57
381.85	353.42
382.04	351.08
382.24	341.72
382.43	322.99
382.63	358.10
382.83	327.68
383.02	395.55
383.22	397.89
383.41	360.44
383.61	369.80
383.80	440.02
384.00	339.38
384.19	365.12
384.39	353.42
384.58	351.08
384.78	411.93
384.97	360.44
385.17	414.27
385.36	372.15
385.56	454.06
385.75	386.19
385.95	374.49
386.14	388.53
386.34	341.72
386.53	306.61
386.72	407.25
386.92	365.12
387.11	386.19
387.31	353.42
387.50	425.98
387.70	421.30
387.89	458.74
388.09	440.02
388.28	409.59
388.48	458.74
388.67	386.19
388.86	496.19
389.06	404.91
389.25	475.13
389.45	475.13
389.64	514.92
389.84	458.74
390.03	500.87
390.22	519.60
390.42	496.19
390.61	458.74
390.81	475.13
391.00	423.64
391.19	507.90
391.39	543.00
391.58	514.92
391.78	482.15
391.97	599.18
392.16	596.84
392.36	540.66
392.55	475.13
392.75	575.77
392.94	465.77
393.13	566.41
393.33	526.62
393.52	552.37
393.71	589.82
393.91	582.79
394.10	538.32
394.29	629.60
394.49	550.03
394.68	531.30
394.88	575.77
395.07	552.37
395.26	533.64
395.46	629.60
395.65	617.90
395.84	592.16
396.04	664.71
396.23	692.80
396.42	627.26
396.62	674.07
396.81	643.65
397.00	606.20
397.19	603.86
397.39	648.33
397.58	683.44
397.77	587.47
397.97	760.67
398.16	720.88
398.35	699.82
398.55	685.78
398.74	676.41
398.93	725.57
399.12	678.76
399.32	664.71
399.51	730.25
399.70	863.66
399.90	716.20
400.09	791.10
400.28	758.33
400.47	784.08
400.67	833.23
400.86	821.53
401.05	816.85
401.24	837.91
401.44	802.80
401.63	823.87
401.82	866.00
402.01	844.93
402.21	814.51
402.40	767.70
402.59	814.51
402.78	774.72
402.97	866.00
403.17	894.08
403.36	830.89
403.55	926.85
403.74	940.90
403.93	830.89
404.13	898.77
404.32	823.87
404.51	919.83
404.70	915.15
404.89	887.06
405.09	875.36
405.28	858.98
405.47	950.26
405.66	1015.79
405.85	980.68
406.05	950.26
406.24	987.71
406.43	940.90
406.62	1022.81
406.81	1069.62
407.00	1015.79
407.20	1004.09
407.39	1022.81
407.58	992.39
407.77	1069.62
407.96	1146.86
408.15	1158.57
408.34	1039.20
408.54	1064.94
408.73	1142.18
408.92	1228.78
409.11	1137.50
409.30	1130.48
409.49	1121.12
409.68	1130.48
409.87	1142.18
410.07	1196.01
410.26	1116.44
410.45	1196.01
410.64	1100.05
410.83	1214.74
411.02	1270.91
411.21	1254.53
411.40	1235.80
411.59	1287.29
411.78	1088.35
411.98	1275.59
412.17	1249.85
412.36	1299.00
412.55	1331.76
412.74	1371.55
412.93	1299.00
413.12	1303.68
413.31	1341.13
413.50	1348.15
413.69	1409.00
413.88	1514.33
414.07	1390.28
414.26	1476.88
414.45	1434.75
414.64	1521.35
414.83	1504.96
415.02	1472.20
415.22	1544.75
415.41	1514.33
415.60	1521.35
415.79	1586.88
415.98	1645.40
416.17	1490.92
416.36	1659.44
416.55	1643.06
416.74	1596.25
416.93	1591.56
417.12	1708.59
417.31	1792.85
417.50	1664.12
417.69	1762.42
417.88	1673.48
418.07	1657.10
418.26	1675.82
418.45	1715.61
418.64	1783.49
418.83	1888.81
419.02	1764.76
419.21	1823.28
419.39	1879.45
419.58	1799.87
419.77	1849.02
419.96	1858.39
420.15	1886.47
420.34	1891.15
420.53	1891.15
420.72	1849.02
420.91	1933.28
421.10	1952.01
421.29	1893.49
421.48	1877.11
421.67	1928.60
421.86	1895.83
422.05	1982.43
422.24	1858.39
422.43	1923.92
422.61	2031.58
422.80	2003.50
422.99	2062.01
423.18	1968.39
423.37	2092.44
423.56	2148.61
423.75	2012.86
423.94	1930.94
424.13	1746.04
424.32	1947.33
424.50	2050.31
424.69	2062.01
424.88	2064.35
425.07	2010.52
425.26	1977.75
425.45	1975.41
425.64	2104.14
425.83	2017.54
426.01	1966.05
426.20	2069.03
426.39	1998.82
426.58	1975.41
426.77	2073.71
426.96	2193.08
427.15	2118.18
427.33	2092.44
427.52	2118.18
427.71	2038.61
427.90	2183.72
428.09	2157.97
428.28	2232.87
428.46	2246.91
428.65	2162.66
428.84	2326.49
429.03	2272.66
429.22	2216.49
429.40	2272.66
429.59	2179.04
429.78	2230.53
429.97	2160.31
430.16	2176.70
430.34	2321.81
430.53	2237.55
430.72	2462.24
430.91	2305.43
431.10	2214.15
431.28	2321.81
431.47	2340.54
431.66	2338.20
431.85	2417.77
432.03	2424.80
432.22	2448.20
432.41	2436.50
432.60	2380.32
432.79	2408.41
432.97	2518.42
433.16	2558.21
433.35	2480.97
433.54	2506.71
433.72	2513.74
433.91	2483.31
434.10	2576.93
434.28	2368.62
434.47	2450.54
434.66	2537.14
434.85	2548.84
435.03	2576.93
435.22	2675.23
435.41	2642.46
435.59	2623.74
435.78	2588.63
435.97	2595.65
436.16	2628.42
436.34	2593.31
436.53	2719.70
436.72	2792.26
436.90	2731.41
437.09	2759.49
437.28	2696.30
437.46	2738.43
437.65	2647.15
437.84	2867.16
438.02	2799.28
438.21	2736.09
438.40	2682.25
438.58	2904.60
438.77	2771.19
438.96	2895.24
439.14	2930.35
439.33	2974.82
439.52	2963.12
439.70	2897.58
439.89	2923.33
440.08	2960.78
440.26	3115.25
440.45	2984.18
440.63	3040.36
440.82	3133.98
441.01	3248.66
441.19	3000.57
441.38	3133.98
441.57	3122.27
441.75	3162.06
441.94	3215.90
442.12	3251.00
442.31	3438.25
442.50	3332.92
442.68	3255.69
442.87	3192.49
443.05	3384.41
443.24	3407.82
443.43	3253.34
443.61	3513.14
443.80	3459.31
443.98	3379.73
444.17	3227.60
444.35	3417.18
444.54	3452.29
444.73	3379.73
444.91	3307.18
445.10	3391.44
445.28	3353.99
445.47	3400.80
445.65	3344.63
445.84	3583.36
446.02	3545.91
446.21	3419.52
446.39	3471.01
446.58	3522.51
446.77	3431.23
446.95	3461.65
447.14	3487.40
447.32	3559.95
447.51	3545.91
447.69	3475.70
447.88	3508.46
448.06	3482.72
448.25	3590.38
448.43	3487.40
448.62	3508.46
448.80	3655.92
448.99	3569.32
449.17	3524.85
449.36	3693.37
449.54	3688.68
449.73	3700.39
449.91	3707.41
450.10	3609.11
450.28	3700.39
450.46	3770.60
450.65	3681.66
450.83	3887.63
451.02	3772.94
451.20	3716.77
451.39	3887.63
451.57	3857.20
451.76	3719.11
451.94	3829.12
452.13	3906.35
452.31	3840.82
452.49	3707.41
452.68	3852.52
452.86	3861.88
453.05	3911.04
453.23	3878.27
453.42	3864.22
453.60	3974.23
453.78	3978.91
453.97	3791.67
454.15	3946.14
454.34	3985.93
454.52	3927.42
454.70	3906.35
454.89	4072.53
455.07	3950.82
455.26	4091.26
455.44	4070.19
455.62	4105.30
455.81	4004.66
455.99	4201.26
456.17	4121.68
456.36	4299.56
456.54	4369.78
456.73	4184.88
456.91	4269.14
457.09	4259.78
457.28	4311.27
457.46	4353.40
457.64	4400.21
457.83	4337.01
458.01	4194.24
458.19	4351.06
458.38	4290.20
458.56	4554.68
458.74	4390.84
458.93	4463.40
459.11	4465.74
459.29	4374.46
459.48	4580.43
459.66	4470.42
459.84	4594.47
460.03	4645.96
460.21	4730.22
460.39	4589.79
460.57	4514.89
460.76	4486.81
460.94	4734.90
461.12	4589.79
461.31	4664.69
461.49	4585.11
461.67	4552.34
461.85	4844.91
462.04	4613.20
462.22	5032.15
462.40	4858.95
462.59	4751.29
462.77	4816.82
462.95	4671.71
463.13	4805.12
463.32	4793.42
463.50	4826.18
463.68	4919.81
463.86	4837.89
464.05	4795.76
464.23	4861.29
464.41	4844.91
464.59	4702.14
464.78	4992.36
464.96	4901.08
465.14	4786.40
465.32	4978.32
465.50	5083.64
465.69	5149.18
465.87	5004.07
466.05	4973.64
466.23	4926.83
466.41	5020.45
466.60	5146.84
466.78	4875.34
466.96	5085.98
467.14	4992.36
467.32	5151.52
467.51	5163.22
467.69	5006.41
467.87	5200.67
468.05	5203.01
468.23	5114.07
468.41	5123.43
468.60	5067.26
468.78	5198.33
468.96	5263.86
469.14	5188.97
469.32	5266.21
469.50	5305.99
469.69	5476.85
469.87	5490.90
470.05	5392.59
470.23	5320.04
470.41	5425.36
470.59	5526.00
470.77	5425.36
470.95	5542.39
471.14	5612.60
471.32	5411.32
471.50	5586.86
471.68	5591.54
471.86	5699.20
472.04	5607.92
472.22	5856.02
472.40	5671.12
472.58	5650.05
472.77	5755.38
472.95	5734.31
473.13	6031.56
473.31	5851.34
473.49	5645.37
473.67	5926.24
473.85	5692.18
474.03	6132.20
474.21	5905.17
474.39	6111.14
474.57	6083.05
474.75	6099.44
474.93	6237.53
475.12	6277.32
475.30	6143.91
475.48	6204.76
475.66	6382.64
475.84	6459.88
476.02	6298.38
476.20	6469.24
476.38	6558.18
476.56	6445.84
476.74	6565.20
476.92	6462.22
477.10	6527.75
477.28	6670.53
477.46	6832.02
477.64	6780.53
477.82	6895.22
478.00	6998.20
478.18	6998.20
478.36	7042.67
478.54	6958.41
478.72	6984.16
478.90	7152.68
479.08	7152.68
479.26	7276.73
479.44	7496.74
479.62	7438.22
479.80	7489.71
479.98	7487.37
480.16	7639.51
480.34	7330.56
480.52	7791.64
480.70	7688.66
480.88	7403.11
481.06	7763.56
481.24	7730.79
481.41	7913.35
481.59	7894.63
481.77	8187.19
481.95	8217.62
482.13	7793.98
482.31	8131.02
482.49	8234.00
482.67	8285.50
482.85	8278.47
483.03	8416.57
483.21	8688.07
483.39	8498.49
483.57	8620.19
483.74	8709.13
483.92	8652.96
484.10	8652.96
484.28	8952.55
484.46	9107.02
484.64	9282.56
484.82	8779.35
485.00	8959.57
485.18	9231.07
485.35	9549.39
485.53	9324.69
485.71	9650.03
485.89	9643.01
486.07	9502.58
486.25	9626.62
486.43	9708.54
486.61	9973.02
486.78	9778.76
486.96	9858.34
487.14	10228.14
487.32	10106.43
487.50	10148.56
487.68	10092.39
487.85	10178.99
488.03	10429.43
488.21	10677.52
488.39	10721.99
488.57	10633.05
488.75	10504.32
488.92	10792.21
489.10	10693.91
489.28	11087.12
489.46	10949.03
489.64	11269.68
489.81	11360.96
489.99	11463.94
490.17	11166.70
490.35	11356.28
490.53	11513.10
490.70	11676.93
490.88	11667.57
491.06	11555.22
491.24	11721.40
491.41	11932.05
491.59	11922.69
491.77	12203.55
491.95	12098.23
492.13	12203.55
492.30	12126.32
492.48	12252.70
492.66	12416.54
492.84	12608.47
493.01	12683.36
493.19	12489.10
493.37	12830.82
493.54	12535.91
493.72	13015.72
493.90	12713.79
494.08	12819.11
494.25	13242.75
494.43	12978.27
494.61	13397.23
494.79	13422.97
494.96	13114.02
495.14	13312.97
495.32	13755.33
495.49	13668.73
495.67	13556.38
495.85	13846.61
496.02	13771.71
496.20	13886.40
496.38	13839.59
496.55	14024.49
496.73	14193.01
496.91	14134.50
497.09	14476.21
497.26	14506.64
497.44	14153.22
497.62	14520.68
497.79	14413.02
497.97	14583.88
498.14	14773.46
498.32	14686.86
498.50	14815.59
498.67	15187.74
498.85	15066.03
499.03	15227.53
499.20	15122.20
499.38	14939.64
499.56	15066.03
499.73	15164.33
499.91	15183.06
500.08	15440.51
500.26	15337.53
500.44	15356.25
500.61	15520.09
500.79	15679.25
500.97	15775.21
501.14	15885.22
501.32	15943.73
501.49	15800.96
501.67	15658.18
501.84	16123.95
502.02	16098.20
502.20	16060.76
502.37	16407.16
502.55	16472.69
502.72	16418.86
502.90	16126.29
503.07	16091.18
503.25	16540.57
503.43	16161.40
503.60	16463.33
503.78	16786.32
503.95	16629.51
504.13	16636.53
504.30	16791.00
504.48	16498.44
504.65	16688.02
504.83	16959.52
505.01	17207.62
505.18	16936.12
505.36	17160.81
505.53	17153.79
505.71	17092.93
505.88	17090.59
506.06	16805.05
506.23	17341.03
506.41	17233.36
506.58	17649.98
506.76	17752.96
506.93	17303.58
507.11	17137.40
507.28	17638.28
507.46	17671.04
507.63	17647.64
507.81	17799.77
507.98	17694.45
508.16	17708.49
508.33	17727.22
508.50	17783.39
508.68	17851.27
508.85	18232.77
509.03	18150.85
509.20	18368.52
509.38	18321.71
509.55	18771.10
509.73	18647.05
509.90	18314.69
510.08	18789.82
510.25	18396.61
510.42	18298.31
510.60	18925.57
510.77	18480.87
510.95	18640.03
511.12	18677.48
511.30	18654.07
511.47	18778.12
511.64	18972.38
511.82	18981.74
511.99	18862.38
512.17	19129.20
512.34	19269.63
512.51	19384.32
512.69	19300.06
512.86	19222.82
513.04	19365.59
513.21	19648.80
513.38	19653.48
513.56	19475.60
513.73	19510.71
513.90	19805.61
514.08	19634.75
514.25	19796.25
514.43	19784.55
514.60	19880.51
514.77	19838.38
514.95	20205.84
515.12	19700.29
515.29	20074.77
515.47	20081.80
515.64	19934.34
515.81	19999.88
515.99	19955.41
516.16	20245.63
516.33	20460.96
516.51	20329.89
516.68	20126.27
516.85	20116.90
517.03	20418.83
517.20	20540.54
517.37	20662.25
517.54	20603.74
517.72	20624.80
517.89	20725.44
518.06	20603.74
518.24	20428.20
518.41	20594.37
518.58	20723.10
518.75	20734.81
518.93	20753.53
519.10	20893.96
519.27	21048.44
519.45	21111.63
519.62	20727.78
519.79	20767.57
519.96	21266.11
520.14	21322.28
520.31	21090.57
520.48	21738.90
520.65	21233.34
520.83	21493.14
521.00	21373.77
521.17	21317.60
521.34	21483.78
521.52	21451.01
521.69	21832.52
521.86	21525.91
522.03	21792.73
522.20	21905.07
522.38	21699.11
522.55	21734.21
522.72	21759.96
522.89	21874.65
523.07	21972.95
523.24	22349.78
523.41	22057.21
523.58	21956.57
523.75	22047.85
523.92	21949.54
524.10	22443.40
524.27	21954.22
524.44	22401.27
524.61	22422.33
524.78	22230.41
524.96	22586.17
525.13	22595.53
525.30	22455.10
525.47	22775.75
525.64	22855.33
525.81	22768.73
525.98	23187.69
526.16	23014.49
526.33	23077.68
526.50	23002.78
526.67	22469.14
526.84	23047.26
527.01	22888.10
527.18	23293.01
527.36	23213.43
527.53	23234.50
527.70	23676.86
527.87	23288.33
528.04	23267.27
528.21	23351.52
528.38	22824.90
528.55	23267.27
528.72	23201.73
528.89	23644.09
529.07	23480.25
529.24	23449.83
529.41	23695.58
529.58	23768.14
529.75	23468.55
529.92	23711.97
530.09	23735.37
530.26	23250.88
530.43	23623.03
530.60	23721.33
530.77	23892.19
530.94	23761.12
531.11	23674.52
531.28	23407.70
531.46	23716.65
531.63	23754.10
531.80	24046.66
531.97	23976.45
532.14	24144.97
532.31	23929.64
532.48	24280.72
532.65	24372.00
532.82	24006.87
532.99	24587.33
533.16	24301.78
533.33	24273.70
533.50	24285.40
533.67	24287.74
533.84	24533.50
534.01	24470.30
534.18	24542.86
534.35	24739.46
534.52	24423.49
534.69	24922.02
534.86	24797.98
535.03	24893.94
535.20	24617.75
535.37	24596.69
535.54	24821.38
535.71	24629.46
535.88	24573.28
536.05	24554.56
536.22	24971.18
536.38	25432.26
536.55	24931.39
536.72	25050.75
536.89	24807.34
537.06	24959.47
537.23	25273.10
537.40	24842.45
537.57	24980.54
537.74	25263.74
537.91	25469.71
538.08	25399.49
538.25	25156.08
538.42	24966.49
538.59	25104.59
538.75	25022.67
538.92	25406.52
539.09	25249.70
539.26	25502.48
539.43	25465.03
539.60	25722.49
539.77	25947.18
539.94	25991.65
540.11	25600.78
540.28	25958.88
540.44	25743.55
540.61	25696.74
540.78	25795.04
540.95	25811.43
541.12	25837.17
541.29	25776.32
541.46	25783.34
541.62	25989.31
541.79	25832.49
541.96	25490.77
542.13	26017.40
542.30	26300.60
542.47	26319.32
542.63	25923.77
542.80	26199.96
542.97	26162.51
543.14	26354.43
543.31	26293.58
543.48	26539.33
543.64	26567.42
543.81	26654.02
543.98	26639.98
544.15	26452.73
544.32	27161.92
544.48	26733.60
544.65	26176.55
544.82	26600.19
544.99	26150.81
545.16	26808.50
545.32	26600.19
545.49	26955.95
545.66	26897.44
545.83	27161.92
546.00	26822.54
546.16	26742.96
546.33	26799.13
546.50	26654.02
546.67	27005.10
546.83	26384.86
547.00	26712.53
547.17	26911.48
547.34	26684.45
547.50	27168.94
547.67	27501.29
547.84	27452.14
548.00	27133.83
548.17	27407.67
548.34	27407.67
548.51	27557.47
548.67	26941.91
548.84	27367.88
549.01	27271.92
549.18	27353.84
549.34	27400.65
549.51	27346.82
549.68	27541.08
549.84	27564.49
550.01	27402.99
550.18	27388.95
550.34	27735.35
550.51	27835.99
550.68	27646.41
550.84	27276.60
551.01	27962.38
551.18	27426.40
551.34	27103.40
551.51	27555.13
551.68	27742.37
551.84	27470.87
552.01	27960.04
552.18	28102.81
552.34	27599.60
552.51	27843.01
552.68	27847.69
552.84	27845.35
553.01	28147.28
553.18	28011.53
553.34	28098.13
553.51	28044.30
553.67	28283.03
553.84	28517.09
554.01	28107.49
554.17	28027.92
554.34	28009.19
554.51	27990.47
554.67	28498.36
554.84	28091.11
555.00	28297.08
555.17	28161.33
555.33	28313.46
555.50	28161.33
555.67	28353.25
555.83	28261.97
556.00	28194.09
556.16	28584.96
556.33	28245.58
556.50	28346.23
556.66	28158.99
556.83	28245.58
556.99	28451.55
557.16	28641.14
557.32	28074.73
557.49	28437.51
557.65	28332.18
557.82	28603.69
557.98	28264.31
558.15	28601.35
558.32	28811.99
558.48	28826.04
558.65	28807.31
558.81	28863.49
558.98	28751.14
559.14	29027.32
559.31	28790.93
559.47	28877.53
559.64	28767.52
559.80	28889.23
559.97	29120.95
560.13	28758.16
560.30	28964.13
560.46	28978.17
560.63	28964.13
560.79	29219.25
560.96	29024.98
561.12	29083.50
561.29	28603.69
561.45	28599.01
561.61	28973.49
561.78	29074.13
561.94	28720.71
562.11	29085.84
562.27	29237.97
562.44	29064.77
562.60	29324.57
562.77	28748.80
562.93	28830.72
563.10	29191.16
563.26	28996.90
563.42	29462.66
563.59	29371.38
563.75	29163.08
563.92	29219.25
564.08	29146.69
564.24	28849.44
564.41	29092.86
564.57	29324.57
564.74	29488.41
564.90	29111.58
565.07	29223.93
565.23	29345.64
565.39	29369.04
565.56	29565.65
565.72	29291.80
565.88	29130.31
566.05	28856.46
566.21	29156.05
566.38	29486.07
566.54	29366.70
566.70	29310.53
566.87	29429.90
567.03	29921.41
567.19	29710.76
567.36	29170.10
567.52	29518.84
567.68	29422.87
567.85	29415.85
568.01	29586.71
568.17	29607.78
568.34	29460.32
568.50	29848.85
568.66	29343.30
568.83	29539.90
568.99	29570.33
569.15	29652.25
569.32	29113.92
569.48	29420.53
569.64	29694.38
569.81	29355.00
569.97	29455.64
570.13	29909.71
570.30	29443.94
570.46	29834.81
570.62	29790.34
570.78	29542.24
570.95	29209.89
571.11	29474.37
571.27	29472.03
571.43	29603.10
571.60	29624.16
571.76	29256.70
571.92	30073.54
572.09	29666.29
572.25	29654.59
572.41	29830.13
572.57	29603.10
572.74	30038.44
572.90	29474.37
573.06	29537.56
573.22	30038.44
573.38	29404.15
573.55	29633.52
573.71	29984.60
573.87	29722.46
574.03	29795.02
574.20	29724.80
574.36	29752.89
574.52	29989.28
574.68	29944.81
574.84	29841.83
575.01	29813.74
575.17	30237.38
575.33	29888.64
575.49	29883.96
575.65	29886.30
575.82	29996.31
575.98	29926.09
576.14	29923.75
576.30	29813.74
576.46	29694.38
576.62	29579.69
576.79	30075.88
576.95	29797.36
577.11	29813.74
577.27	29656.93
577.43	30213.98
577.59	30012.69
577.75	29778.64
577.92	29474.37
578.08	29642.88
578.24	29362.02
578.40	29771.61
578.56	29764.59
578.72	29797.36
578.88	30143.76
579.04	30242.06
579.21	30080.56
579.37	30125.04
579.53	29750.55
579.69	30134.40
579.85	29584.37
580.01	29907.37
580.17	30015.03
580.33	29851.19
580.49	30017.37
580.65	30068.86
580.82	30181.21
580.98	30008.01
581.14	30157.80
581.30	30265.47
581.46	29956.52
581.62	29879.28
581.78	29881.62
581.94	30087.59
582.10	29685.01
582.26	30010.35
582.42	29986.94
582.58	29851.19
582.74	30319.30
582.90	30237.38
583.06	30047.80
583.22	30015.03
583.38	30146.10
583.54	29979.92
583.70	30094.61
583.86	30401.22
584.02	29912.05
584.18	30223.34
584.34	30459.73
584.50	30141.42
584.66	30256.11
584.82	30087.59
584.98	30017.37
585.14	29820.77
585.30	29963.54
585.46	30047.80
585.62	30073.54
585.78	30291.21
585.94	29504.79
586.10	30209.29
586.26	30300.58
586.42	30293.55
586.58	30005.67
586.74	30047.80
586.90	30153.12
587.06	30232.70
587.22	30059.50
587.38	29500.11
587.54	30490.16
587.70	30513.56
587.86	30457.39
588.02	30164.82
588.18	30232.70
588.34	30511.22
588.49	30536.97
588.65	29860.55
588.81	30223.34
588.97	30333.34
589.13	30080.56
589.29	30082.91
589.45	30230.36
589.61	30478.46
589.77	30155.46
589.93	30225.68
590.08	30291.21
590.24	30459.73
590.40	30658.68
590.56	30384.83
590.72	30096.95
590.88	30438.67
591.04	30108.65
591.20	30298.23
591.35	30656.34
591.51	30801.45
591.67	30370.79
591.83	30485.48
591.99	30331.00
592.15	30717.19
592.31	30754.64
592.46	30195.25
592.62	30108.65
592.78	30501.86
592.94	30515.90
593.10	30160.14
593.26	30831.88
593.41	30579.10
593.57	30529.95
593.73	30452.71
593.89	30682.08
594.05	30462.07
594.20	30410.58
594.36	30436.33
594.52	30649.32
594.68	30380.15
594.84	30291.21
594.99	30672.72
595.15	30249.08
595.31	30829.54
595.47	30490.16
595.62	30541.65
595.78	30401.22
595.94	30441.01
596.10	30719.53
596.25	30237.38
596.41	30314.62
596.57	30260.79
596.73	30497.18
596.88	30649.32
597.04	30412.92
597.20	30417.60
597.36	30764.00
597.51	31257.85
597.67	30323.98
597.83	30724.21
597.99	30539.31
598.14	30408.24
598.30	30258.45
598.46	30506.54
598.61	30721.87
598.77	30892.73
598.93	30878.69
599.09	30925.50
599.24	31098.70
599.40	31058.91
599.56	30590.80
599.71	30937.20
599.87	30717.19
600.03	30391.86
600.18	30892.73
600.34	30815.49
600.50	30459.73
600.65	30438.67
600.81	30824.86
600.97	30848.26
601.12	31002.74
601.28	31218.07
601.44	31157.21
601.59	30934.86
601.75	30618.89
601.91	31077.63
602.06	30759.32
602.22	30719.53
602.37	30562.72
602.53	30827.20
602.69	30696.13
602.84	30525.27
603.00	30670.38
603.16	30984.01
603.31	30284.19
603.47	30473.78
603.62	30560.37
603.78	30689.10
603.94	30349.73
604.09	30118.01
604.25	30436.33
604.40	30455.05
604.56	30611.87
604.71	31325.73
604.87	31257.85
605.03	30625.91
605.18	30623.57
605.34	30654.00
605.49	30431.65
605.65	30527.61
605.80	30323.98
605.96	30520.59
606.12	30593.14
606.27	30895.07
606.43	30637.61
606.58	30895.07
606.74	30717.19
606.89	30731.23
607.05	30855.28
607.20	30962.95
607.36	30637.61
607.51	30529.95
607.67	30639.95
607.82	30031.41
607.98	30501.86
608.13	30338.02
608.29	29989.28
608.44	30127.38
608.60	30450.37
608.75	30637.61
608.91	30630.59
609.06	30384.83
609.22	30698.47
609.37	30436.33
609.53	30419.94
609.68	30572.08
609.84	30506.54
609.99	30759.32
610.15	30183.55
610.30	30408.24
610.46	30284.19
610.61	30270.15
610.76	30190.57
610.92	30644.63
611.07	30567.40
611.23	30511.22
611.38	29998.65
611.54	30380.15
611.69	29930.77
611.84	30279.51
612.00	30419.94
612.15	29748.21
612.31	30160.14
612.46	30387.18
612.62	30176.53
612.77	30052.48
612.92	30476.12
613.08	30164.82
613.23	30485.48
613.39	29954.18
613.54	29827.79
613.69	30108.65
613.85	29890.98
614.00	30368.45
614.15	30469.09
614.31	30160.14
614.46	30057.16
614.62	30103.97
614.77	29933.11
614.92	30192.91
615.08	29909.71
615.23	30307.60
615.38	30190.57
615.54	29689.70
615.69	29773.95
615.84	29954.18
616.00	29722.46
616.15	30169.51
616.30	29855.87
616.46	30239.72
616.61	29769.27
616.76	30223.34
616.92	29848.85
617.07	29855.87
617.22	30059.50
617.37	29769.27
617.53	29287.12
617.68	29296.49
617.83	29649.91
617.99	29383.09
618.14	29813.74
618.29	30000.99
618.45	29577.35
618.60	29778.64
618.75	29436.92
618.90	29888.64
619.06	29537.56
619.21	29677.99
619.36	29343.30
619.51	29530.54
619.67	29364.36
619.82	29289.46
619.97	29619.48
620.12	29034.35
620.28	29338.62
620.43	29764.59
620.58	29584.37
620.73	29668.63
620.89	29514.16
621.04	29488.41
621.19	29612.46
621.34	29453.30
621.49	29413.51
621.65	29493.09
621.80	29521.18
621.95	29259.04
622.10	29621.82
622.25	29144.35
622.41	29153.71
622.56	29247.33
622.71	29237.97
622.86	29167.76
623.01	29441.60
623.16	29158.39
623.32	29083.50
623.47	28826.04
623.62	28978.17
623.77	29130.31
623.92	29186.48
624.07	29303.51
624.23	29078.82
624.38	29205.20
624.53	29027.32
624.68	29326.91
624.83	29469.69
624.98	29287.12
625.13	29235.63
625.29	29078.82
625.44	29104.56
625.59	28938.38
625.74	28781.57
625.89	28622.41
626.04	28793.27
626.19	29074.13
626.34	28753.48
626.49	28606.03
626.65	28641.14
626.80	29036.69
626.95	28823.70
627.10	28807.31
627.25	28617.73
627.40	28575.60
627.55	28299.42
627.70	28379.00
627.85	28573.26
628.00	28432.83
628.15	28709.01
628.30	28652.84
628.45	28739.44
628.60	28304.10
628.76	28971.15
628.91	28627.09
629.06	28765.18
629.21	28620.07
629.36	28477.30
629.51	28381.34
629.66	28254.95
629.81	28477.30
629.96	27962.38
630.11	28493.68
630.26	28198.77
630.41	28500.70
630.56	28060.68
630.71	28294.74
630.86	28243.24
631.01	28496.02
631.16	28381.34
631.31	28245.58
631.46	27976.42
631.61	28208.14
631.76	28133.24
631.91	28411.76
632.06	27892.16
632.21	27990.47
632.36	28039.62
632.51	27880.46
632.66	28121.54
632.81	27805.56
632.96	28261.97
633.10	28329.84
633.25	28245.58
633.40	28088.77
633.55	28065.36
633.70	27763.43
633.85	27784.50
634.00	27920.25
634.15	27707.26
634.30	27915.57
634.45	27725.99
634.60	27889.82
634.75	27690.88
634.90	27276.60
635.05	28081.75
635.19	27517.68
635.34	28219.84
635.49	28137.92
635.64	27906.21
635.79	27754.07
635.94	27634.71
636.09	27480.23
636.24	27800.88
636.39	27782.16
636.53	27419.38
636.68	27431.08
636.83	27707.26
636.98	27756.41
637.13	27611.30
637.28	27742.37
637.43	27178.30
637.57	27915.57
637.72	27297.67
637.87	27442.78
638.02	27393.63
638.17	27449.80
638.32	27377.25
638.46	27108.08
638.61	27332.78
638.76	27246.18
638.91	27047.23
639.06	27070.64
639.20	27496.61
639.35	27402.99
639.50	27440.44
639.65	27889.82
639.80	27346.82
639.94	27138.51
640.09	27094.04
640.24	26958.29
640.39	26934.88
640.54	27178.30
640.68	27005.10
640.83	27267.24
640.98	26869.35
641.13	26775.73
641.27	26953.61
641.42	27023.83
641.57	26874.03
641.72	27091.70
641.86	26792.11
642.01	26703.17
642.16	26663.38
642.31	26815.52
642.45	26520.61
642.60	26745.30
642.75	26869.35
642.90	26628.27
643.04	26630.62
643.19	26799.13
643.34	26700.83
643.48	26773.39
643.63	26895.10
643.78	26630.62
643.93	27150.21
644.07	27012.12
644.22	26841.26
644.37	26710.19
644.51	26827.22
644.66	26661.04
644.81	26438.69
644.95	26778.07
645.10	26438.69
645.25	26630.62
645.39	26647.00
645.54	26934.88
645.69	26738.28
645.83	26377.84
645.98	26689.13
646.13	26719.56
646.27	27009.78
646.42	26462.10
646.57	26838.92
646.71	26279.54
646.86	26551.04
647.00	26389.54
647.15	26473.80
647.30	26052.50
647.44	26029.10
647.59	26356.77
647.74	26249.11
647.88	26628.27
648.03	26515.93
648.17	26366.13
648.32	26349.75
648.47	26452.73
648.61	26553.38
648.76	26904.46
648.90	26569.76
649.05	26148.46
649.20	26260.81
649.34	26251.45
649.49	25858.24
649.63	26106.34
649.78	26118.04
649.92	26015.05
650.07	26047.82
650.21	26118.04
650.36	26080.59
650.51	26005.69
650.65	26331.03
650.80	26562.74
650.94	25855.90
651.09	25736.53
651.23	25764.62
651.38	26185.91
651.52	25954.20
651.67	25802.07
651.81	25790.36
651.96	26054.84
652.10	25848.88
652.25	25811.43
652.39	25839.51
652.54	25893.35
652.68	25802.07
652.83	25940.16
652.97	26256.13
653.12	25982.29
653.26	25369.07
653.41	25598.44
653.55	25514.18
653.70	25549.29
653.84	25764.62
653.99	25694.40
654.13	25516.52
654.27	25830.15
654.42	25486.09
654.56	25675.68
654.71	25933.14
654.85	25333.96
655.00	25565.67
655.14	25776.32
655.29	25479.07
655.43	25458.01
655.57	25476.73
655.72	25532.90
655.86	25383.11
656.01	25509.50
656.15	25666.31
656.30	25551.63
656.44	25500.14
656.58	25118.63
656.73	25397.15
656.87	25238.00
657.01	25200.55
657.16	25582.06
657.30	25687.38
657.45	25411.20
657.59	25474.39
657.73	25017.99
657.88	25310.55
658.02	25050.75
658.16	25242.68
658.31	25055.43
658.45	25111.61
658.60	24664.57
658.74	25179.48
658.88	24985.22
659.03	24767.55
659.17	24957.13
659.31	24987.56
659.46	24835.42
659.60	24959.47
659.74	25102.25
659.89	25053.09
660.03	24648.18
660.17	25025.01
660.32	24694.99
660.46	24496.05
660.60	24474.98
660.74	24563.92
660.89	24676.27
661.03	24521.79
661.17	24606.05
661.32	24552.22
661.46	24524.13
661.60	24250.29
661.74	24662.22
661.89	24119.22
662.03	24678.61
662.17	24341.57
662.31	24334.55
662.46	24503.07
662.60	24538.18
662.74	24531.15
662.88	24020.92
663.03	24156.67
663.17	23899.21
663.31	24144.97
663.45	24081.77
663.60	24243.27
663.74	23655.79
663.88	23927.30
664.02	23807.93
664.17	24093.47
664.31	23946.02
664.45	23604.30
664.59	23819.63
664.73	23936.66
664.88	23751.76
665.02	23234.50
665.16	23569.19
665.30	23737.71
665.44	23508.34
665.59	23318.76
665.73	23683.88
665.87	23646.43
666.01	23836.02
666.15	23754.10
666.29	23531.75
666.44	23639.41
666.58	23433.44
666.72	23147.90
666.86	23410.04
667.00	23197.05
667.14	23136.20
667.28	23075.34
667.43	22930.23
667.57	23206.41
667.71	22897.46
667.85	22955.97
667.99	23278.97
668.13	23019.17
668.27	23082.36
668.41	23047.26
668.56	22852.99
668.70	23157.26
668.84	22958.31
668.98	23115.13
669.12	23084.70
669.26	22874.06
669.40	22944.27
669.54	22724.26
669.68	22953.63
669.82	22508.93
669.96	22586.17
670.10	22537.02
670.25	22518.29
670.39	22155.51
670.53	22649.36
670.67	22281.90
670.81	22588.51
670.95	22492.55
671.09	22132.11
671.23	22305.31
671.37	22242.11
671.51	22607.23
671.65	22593.19
671.79	22097.00
671.93	22155.51
672.07	22249.13
672.21	21928.48
672.35	21916.78
672.49	21652.30
672.63	21778.68
672.77	21944.86
672.91	21841.88
673.05	21722.51
673.19	21788.05
673.33	21710.81
673.47	21874.65
673.61	21825.50
673.75	21640.59
673.89	21687.40
674.03	21343.35
674.17	21362.07
674.31	21806.77
674.45	21446.33
674.59	21422.92
674.73	21563.36
674.87	21287.17
675.01	21020.35
675.15	21317.60
675.29	21020.35
675.43	20858.85
675.56	20870.56
675.70	21041.42
675.84	20922.05
675.98	20430.54
676.12	20917.37
676.26	21062.48
676.40	20727.78
676.54	20720.76
676.68	20716.08
676.82	20423.51
676.96	20566.29
677.10	20570.97
677.23	20400.11
677.37	20196.48
677.51	20168.40
677.65	20238.61
677.79	20297.13
677.93	20313.51
678.07	20098.18
678.21	19939.02
678.34	19784.55
678.48	19618.37
678.62	19840.72
678.76	19887.53
678.90	19866.47
679.04	19641.78
679.18	19601.99
679.31	19632.41
679.45	19440.49
679.59	19428.79
679.73	19644.12
679.87	19295.38
680.00	19353.89
680.14	19201.76
680.28	19112.81
680.42	19108.13
680.56	19316.44
680.70	18824.93
680.83	19227.50
680.97	18838.97
681.11	19026.21
681.25	18773.44
681.39	18768.76
681.52	18778.12
681.66	18354.48
681.80	18427.04
681.94	18284.26
682.07	18644.71
682.21	18368.52
682.35	18115.75
682.49	18300.65
682.62	18279.58
682.76	18082.98
682.90	18188.30
683.04	18146.17
683.17	18361.50
683.31	18183.62
683.45	18272.56
683.59	18108.72
683.72	17654.66
683.86	17575.08
684.00	18015.10
684.13	17673.39
684.27	17666.36
684.41	17607.85
684.55	17685.09
684.68	17385.50
684.82	17261.45
684.96	17362.09
685.09	17319.96
685.23	17043.78
685.37	17186.55
685.50	17214.64
685.64	17018.04
685.78	16936.12
685.91	17041.44
686.05	17055.48
686.19	16973.56
686.32	16954.84
686.46	16809.73
686.60	16538.23
686.73	16816.75
686.87	16580.36
687.01	16542.91
687.14	16407.16
687.28	16563.97
687.42	16191.83
687.55	16191.83
687.69	16287.79
687.82	16271.40
687.96	16222.25
688.10	16163.74
688.23	16035.01
688.37	16163.74
688.50	16044.37
688.64	16320.56
688.78	15978.84
688.91	15587.97
689.05	15449.88
689.18	15793.94
689.32	15508.39
689.46	15410.09
689.59	15400.72
689.73	15573.92
689.86	15412.43
690.00	15360.94
690.13	15396.04
690.27	15318.81
690.41	15346.89
690.54	15101.14
690.68	15124.54
690.81	15428.81
690.95	15236.89
691.08	15126.88
691.22	14951.34
691.35	15157.31
691.49	14988.79
691.62	14724.31
691.76	14925.60
691.89	14707.93
692.03	14635.37
692.16	14480.89
692.30	14590.90
692.43	14324.08
692.57	14164.92
692.70	14391.95
692.84	14026.83
692.97	14277.27
693.11	14094.71
693.24	14270.25
693.38	14094.71
693.51	14080.66
693.65	13998.74
693.78	13788.10
693.92	13790.44
694.05	13678.09
694.19	13785.76
694.32	13650.00
694.45	13891.08
694.59	13439.36
694.72	13479.15
694.86	13357.44
694.99	13046.15
695.13	13156.15
695.26	13219.35
695.39	13310.63
695.53	13397.23
695.66	13226.37
695.80	13383.18
695.93	13336.37
696.07	13142.11
696.20	13090.62
696.33	13034.44
696.47	12748.90
696.60	12814.43
696.73	12596.76
696.87	12826.14
697.00	12725.49
697.14	12575.70
697.27	12428.24
697.40	12453.99
697.54	12507.82
697.67	12332.28
697.80	12470.37
697.94	12039.72
698.07	11992.90
698.21	11932.05
698.34	12039.72
698.47	12243.34
698.61	12318.24
698.74	12025.67
698.87	12037.38
699.01	12135.68
699.14	11915.67
699.27	11962.48
699.40	11955.46
699.54	11765.87
699.67	11740.13
699.80	11665.23
699.94	11410.11
700.07	11599.70
700.20	11255.64
700.34	11393.73
700.47	11178.40
700.60	11250.96
700.73	11365.64
700.87	11447.56
701.00	11136.27
701.13	11023.92
701.26	11178.40
701.40	11157.33
701.53	11021.58
701.66	11009.88
701.79	10888.17
701.93	10967.75
702.06	10892.85
702.19	10881.15
702.32	10721.99
702.46	10658.80
702.59	10633.05
702.72	10551.14
702.85	10436.45
702.99	10459.85
703.12	10319.42
703.25	10326.44
703.38	10476.24
703.51	10223.46
703.65	10328.78
703.78	10237.50
703.91	10164.95
704.04	10115.80
704.17	10157.92
704.31	10078.35
704.44	9958.98
704.57	9937.91
704.70	9767.06
704.83	9832.59
704.96	9589.17
705.10	9722.59
705.23	9930.89
>>>>>End Processed Spectral Data<<<<<
