SpectraSuite Data File
++++++++++++++++++++++++++++++++++++
Date: Fri Oct 18 13:58:14 GMT-05:00 2013
User: bianchi
Dark Spectrum Present: No
Reference Spectrum Present: No
Number of Sampled Component Spectra: 1
Spectrometers: USB2+H05261
Integration Time (usec): 50000 (USB2+H05261)
Spectra Averaged: 1 (USB2+H05261)
Boxcar Smoothing: 0 (USB2+H05261)
Correct for Electrical Dark: No (USB2+H05261)
Strobe/Lamp Enabled: No (USB2+H05261)
Correct for Detector Non-linearity: No (USB2+H05261)
Correct for Stray Light: No (USB2+H05261)
Number of Pixels in Processed Spectrum: 2048
>>>>>Begin Processed Spectral Data<<<<<
365.73	0.00
365.92	0.00
366.12	0.00
366.32	0.00
366.52	0.00
366.72	0.00
366.91	0.00
367.11	0.00
367.31	0.00
367.51	0.00
367.70	0.00
367.90	0.00
368.10	0.00
368.30	0.00
368.49	0.00
368.69	0.00
368.89	0.00
369.09	0.00
369.28	0.00
369.48	0.00
369.68	0.00
369.87	0.00
370.07	0.00
370.27	0.00
370.47	0.00
370.66	58.51
370.86	63.19
371.06	112.35
371.25	0.00
371.45	107.66
371.65	175.54
371.84	152.13
372.04	194.26
372.24	170.86
372.44	145.11
372.63	238.73
372.83	229.37
373.03	180.22
373.22	196.60
373.42	182.56
373.62	205.97
373.81	262.14
374.01	255.12
374.21	294.91
374.40	280.86
374.60	250.44
374.79	194.26
374.99	184.90
375.19	187.24
375.38	135.75
375.58	222.35
375.78	217.67
375.97	215.33
376.17	339.38
376.37	236.39
376.56	325.33
376.76	299.59
376.95	273.84
377.15	278.52
377.35	280.86
377.54	238.73
377.74	273.84
377.93	262.14
378.13	194.26
378.33	341.72
378.52	287.89
378.72	285.55
378.91	287.89
379.11	266.82
379.31	229.37
379.50	241.08
379.70	390.87
379.89	322.99
380.09	304.27
380.28	369.80
380.48	325.33
380.68	271.50
380.87	379.17
381.07	362.78
381.26	383.85
381.46	353.42
381.65	318.31
381.85	273.84
382.04	390.87
382.24	341.72
382.43	332.36
382.63	397.89
382.83	367.46
383.02	423.64
383.22	416.62
383.41	374.49
383.61	351.08
383.80	339.38
384.00	362.78
384.19	402.57
384.39	339.38
384.58	395.55
384.78	430.66
384.97	374.49
385.17	386.19
385.36	411.93
385.56	311.29
385.75	416.62
385.95	447.04
386.14	416.62
386.34	322.99
386.53	472.79
386.72	421.30
386.92	376.83
387.11	358.10
387.31	348.74
387.50	362.78
387.70	404.91
387.89	369.80
388.09	491.51
388.28	437.68
388.48	456.40
388.67	521.94
388.86	435.34
389.06	489.17
389.25	372.15
389.45	528.96
389.64	472.79
389.84	521.94
390.03	463.43
390.22	451.72
390.42	496.19
390.61	440.02
390.81	437.68
391.00	465.77
391.19	585.13
391.39	606.20
391.58	589.82
391.78	496.19
391.97	517.26
392.16	465.77
392.36	585.13
392.55	573.43
392.75	500.87
392.94	573.43
393.13	543.00
393.33	479.81
393.52	533.64
393.71	519.60
393.91	561.73
394.10	648.33
394.29	559.39
394.49	587.47
394.68	603.86
394.88	592.16
395.07	521.94
395.26	589.82
395.46	645.99
395.65	564.07
395.84	599.18
396.04	603.86
396.23	685.78
396.42	592.16
396.62	653.01
396.81	676.41
397.00	631.94
397.19	601.52
397.39	704.50
397.58	702.16
397.77	653.01
397.97	674.07
398.16	634.29
398.35	760.67
398.55	655.35
398.74	781.74
398.93	697.48
399.12	653.01
399.32	638.97
399.51	699.82
399.70	765.36
399.90	716.20
400.09	819.19
400.28	795.78
400.47	718.54
400.67	777.06
400.86	732.59
401.05	772.38
401.24	763.01
401.44	868.34
401.63	882.38
401.82	809.83
402.01	805.14
402.21	835.57
402.40	779.40
402.59	791.10
402.78	866.00
402.97	884.72
403.17	884.72
403.36	882.38
403.55	800.46
403.74	877.70
403.93	922.17
404.13	812.17
404.32	936.21
404.51	891.74
404.70	882.38
404.89	919.83
405.09	926.85
405.28	842.59
405.47	917.49
405.66	943.24
405.85	1041.54
406.05	957.28
406.24	1027.50
406.43	1022.81
406.62	1053.24
406.81	999.41
407.00	1053.24
407.20	1055.58
407.39	994.73
407.58	1025.15
407.77	1008.77
407.96	1048.56
408.15	1104.73
408.34	1076.65
408.54	1149.20
408.73	1123.46
408.92	1146.86
409.11	1057.92
409.30	1076.65
409.49	1050.90
409.68	1153.88
409.87	1083.67
410.07	1142.18
410.26	1160.91
410.45	1139.84
410.64	1240.48
410.83	1118.78
411.02	1135.16
411.21	1214.74
411.40	1268.57
411.59	1242.82
411.78	1238.14
411.98	1263.89
412.17	1231.12
412.36	1352.83
412.55	1357.51
412.74	1373.89
412.93	1287.29
413.12	1313.04
413.31	1401.98
413.50	1350.49
413.69	1465.18
413.88	1369.21
414.07	1348.15
414.26	1430.07
414.45	1460.49
414.64	1327.08
414.83	1509.65
415.02	1507.30
415.22	1556.46
415.41	1607.95
415.60	1495.60
415.79	1636.03
415.98	1638.38
416.17	1643.06
416.36	1544.75
416.55	1638.38
416.74	1694.55
416.93	1636.03
417.12	1636.03
417.31	1736.68
417.50	1715.61
417.69	1755.40
417.88	1781.15
418.07	1736.68
418.26	1746.04
418.45	1790.51
418.64	1774.13
418.83	1750.72
419.02	1837.32
419.21	1792.85
419.39	1825.62
419.58	1795.19
419.77	1741.36
419.96	1834.98
420.15	1893.49
420.34	1825.62
420.53	1900.52
420.72	1956.69
420.91	1764.76
421.10	1914.56
421.29	1944.99
421.48	1963.71
421.67	2069.03
421.86	1888.81
422.05	1898.17
422.24	1928.60
422.43	1933.28
422.61	1956.69
422.80	1956.69
422.99	2050.31
423.18	2017.54
423.37	2001.16
423.56	1994.14
423.75	1853.70
423.94	1956.69
424.13	1984.77
424.32	2001.16
424.50	2087.76
424.69	1980.09
424.88	2113.50
425.07	1952.01
425.26	1977.75
425.45	2031.58
425.64	2019.88
425.83	2033.93
426.01	2104.14
426.20	2076.06
426.39	2036.27
426.58	2076.06
426.77	2106.48
426.96	2050.31
427.15	2134.57
427.33	2038.61
427.52	2172.02
427.71	2181.38
427.90	2148.61
428.09	2202.44
428.28	2223.51
428.46	2143.93
428.65	2150.95
428.84	2244.57
429.03	2202.44
429.22	2197.76
429.40	2326.49
429.59	2148.61
429.78	2211.81
429.97	2167.34
430.16	2277.34
430.34	2296.07
430.53	2263.30
430.72	2473.95
430.91	2303.09
431.10	2251.60
431.28	2340.54
431.47	2476.29
431.66	2532.46
431.85	2300.75
432.03	2377.98
432.22	2450.54
432.41	2349.90
432.60	2443.52
432.79	2469.27
432.97	2448.20
433.16	2462.24
433.35	2434.16
433.54	2495.01
433.72	2485.65
433.91	2464.58
434.10	2523.10
434.28	2560.55
434.47	2504.37
434.66	2668.21
434.85	2614.38
435.03	2675.23
435.22	2518.42
435.41	2626.08
435.59	2679.91
435.78	2506.71
435.97	2635.44
436.16	2651.83
436.34	2619.06
436.53	2708.00
436.72	2719.70
436.90	2719.70
437.09	2780.56
437.28	2663.53
437.46	2696.30
437.65	2836.73
437.84	2874.18
438.02	2750.13
438.21	2764.17
438.40	2810.98
438.58	2899.92
438.77	2864.82
438.96	2899.92
439.14	2925.67
439.33	2862.48
439.52	2956.10
439.70	2925.67
439.89	3077.80
440.08	2963.12
440.26	3091.85
440.45	3063.76
440.63	2967.80
440.82	3056.74
441.01	3087.17
441.19	3082.49
441.38	3131.64
441.57	3159.72
441.75	3190.15
441.94	3337.60
442.12	3204.19
442.31	3368.03
442.50	3239.30
442.68	3227.60
442.87	3311.86
443.05	3351.65
443.24	3370.37
443.43	3323.56
443.61	3386.76
443.80	3468.67
443.98	3463.99
444.17	3258.03
444.35	3407.82
444.54	3337.60
444.73	3463.99
444.91	3410.16
445.10	3356.33
445.28	3499.10
445.47	3440.59
445.65	3503.78
445.84	3473.36
446.02	3379.73
446.21	3344.63
446.39	3482.72
446.58	3440.59
446.77	3552.93
446.95	3389.10
447.14	3522.51
447.32	3552.93
447.51	3534.21
447.69	3475.70
447.88	3613.79
448.06	3520.17
448.25	3449.95
448.43	3550.59
448.62	3494.42
448.80	3461.65
448.99	3583.36
449.17	3613.79
449.36	3590.38
449.54	3611.45
449.73	3712.09
449.91	3632.51
450.10	3721.45
450.28	3822.09
450.46	3602.08
450.65	3716.77
450.83	3653.58
451.02	3751.88
451.20	3847.84
451.39	3705.07
451.57	3695.71
451.76	3716.77
451.94	3824.44
452.13	4002.32
452.31	3861.88
452.49	3882.95
452.68	3723.79
452.86	3836.14
453.05	3826.78
453.23	3920.40
453.42	3880.61
453.60	3817.41
453.78	4032.74
453.97	3824.44
454.15	3854.86
454.34	3946.14
454.52	4081.89
454.70	4119.34
454.89	3889.97
455.07	3948.48
455.26	4007.00
455.44	4224.67
455.62	4121.68
455.81	4095.94
455.99	4100.62
456.17	4077.21
456.36	4222.33
456.54	4255.09
456.73	4044.45
456.91	4276.16
457.09	4374.46
457.28	4442.34
457.46	4271.48
457.64	4339.35
457.83	4311.27
458.01	4196.58
458.19	4245.73
458.38	4362.76
458.56	4601.49
458.74	4440.00
458.93	4374.46
459.11	4463.40
459.29	4372.12
459.48	4566.39
459.66	4224.67
459.84	4437.66
460.03	4622.56
460.21	4648.30
460.39	4571.07
460.57	4702.14
460.76	4449.36
460.94	4568.73
461.12	4578.09
461.31	4641.28
461.49	4629.58
461.67	4465.74
461.85	4720.86
462.04	4784.06
462.22	4856.61
462.40	4746.61
462.59	4685.75
462.77	4805.12
462.95	4781.71
463.13	4697.46
463.32	4770.01
463.50	4744.27
463.68	4777.03
463.86	4877.68
464.05	4873.00
464.23	4945.55
464.41	4905.76
464.59	4896.40
464.78	4978.32
464.96	4971.30
465.14	4800.44
465.32	4994.70
465.50	5057.90
465.69	4882.36
465.87	4924.49
466.05	4959.60
466.23	5025.13
466.41	5088.32
466.60	5177.26
466.78	5109.39
466.96	4947.89
467.14	4980.66
467.32	5149.18
467.51	5195.99
467.69	4992.36
467.87	5034.49
468.05	5270.89
468.23	5050.88
468.41	5266.21
468.60	5083.64
468.78	5231.10
468.96	5336.42
469.14	5441.75
469.32	5149.18
469.50	5259.18
469.69	5441.75
469.87	5446.43
470.05	5467.49
470.23	5359.83
470.41	5348.12
470.59	5465.15
470.77	5430.04
470.95	5453.45
471.14	5586.86
471.32	5565.79
471.50	5584.52
471.68	5509.62
471.86	5556.43
472.04	5795.17
472.22	5724.95
472.40	5617.29
472.58	5734.31
472.77	5671.12
472.95	5792.83
473.13	5912.19
473.31	5738.99
473.49	5600.90
473.67	5926.24
473.85	5858.36
474.03	6031.56
474.21	5837.30
474.39	6073.69
474.57	6097.10
474.75	6181.35
474.93	6076.03
475.12	6141.57
475.30	6265.61
475.48	6230.51
475.66	6246.89
475.84	6284.34
476.02	6389.66
476.20	6073.69
476.38	6614.35
476.56	6546.48
476.74	6434.13
476.92	6455.20
477.10	6511.37
477.28	6686.91
477.46	6729.04
477.64	6836.70
477.82	6630.74
478.00	6843.73
478.18	7073.10
478.36	7098.84
478.54	7028.63
478.72	7066.08
478.90	7148.00
479.08	7089.48
479.26	7239.28
479.44	7248.64
479.62	7410.14
479.80	7297.79
479.98	7616.10
480.16	7543.55
480.34	7534.18
480.52	7527.16
480.70	7702.70
480.88	7655.89
481.06	7667.60
481.24	7623.12
481.41	7805.69
481.59	8009.31
481.77	7922.71
481.95	8046.76
482.13	8145.06
482.31	7903.99
482.49	8161.45
482.67	8351.03
482.85	8215.28
483.03	8365.07
483.21	8603.81
483.39	8498.49
483.57	8475.08
483.74	8425.93
483.92	8997.02
484.10	8627.21
484.28	8861.27
484.46	9100.00
484.64	9081.28
484.82	9067.24
485.00	8999.36
485.18	9362.14
485.35	9156.18
485.53	9390.23
485.71	9460.45
485.89	9591.52
486.07	9598.54
486.25	9832.59
486.43	9584.49
486.61	9898.13
486.78	9771.74
486.96	10003.45
487.14	10008.13
487.32	10221.12
487.50	10148.56
487.68	9996.43
487.85	10221.12
488.03	10541.77
488.21	10560.50
488.39	10466.88
488.57	10602.63
488.75	10747.74
488.92	10792.21
489.10	10878.81
489.28	10895.19
489.46	11002.86
489.64	10988.82
489.81	11257.98
489.99	11328.19
490.17	11288.40
490.35	11222.87
490.53	11564.59
490.70	11571.61
490.88	11763.53
491.06	11763.53
491.24	11681.61
491.41	11740.13
491.59	12161.42
491.77	12175.47
491.95	12142.70
492.13	12372.07
492.30	12365.05
492.48	12035.03
492.66	12266.75
492.84	12308.88
493.01	12655.28
493.19	12751.24
493.37	12629.53
493.54	12737.20
493.72	12812.09
493.90	12774.64
494.08	13018.06
494.25	13156.15
494.43	13092.96
494.61	13465.10
494.79	13561.06
494.96	13376.16
495.14	13516.59
495.32	13565.74
495.49	13617.24
495.67	13762.35
495.85	13902.78
496.02	13853.63
496.20	13893.42
496.38	14036.19
496.55	13912.14
496.73	14380.25
496.91	14136.84
497.09	14338.12
497.26	14338.12
497.44	14356.85
497.62	14068.96
497.79	14553.45
497.97	14417.70
498.14	14972.41
498.32	14567.49
498.50	14689.20
498.67	14916.23
498.85	14764.10
499.03	15192.42
499.20	14911.55
499.38	14897.51
499.56	15325.83
499.73	15218.16
499.91	15229.87
500.08	15515.41
500.26	15255.61
500.44	15463.92
500.61	15391.36
500.79	15480.30
500.97	15632.44
501.14	15768.19
501.32	15817.34
501.49	15861.81
501.67	15761.17
501.84	15812.66
502.02	15948.41
502.20	16245.66
502.37	16205.87
502.55	16287.79
502.72	16056.08
502.90	16039.69
503.07	16489.07
503.25	16156.72
503.43	15997.56
503.60	16678.66
503.78	16456.31
503.95	16486.73
504.13	16453.97
504.30	16519.50
504.48	16697.38
504.65	16706.74
504.83	16901.01
505.01	17202.94
505.18	17160.81
505.36	17135.06
505.53	16882.28
505.71	16884.62
505.88	16868.24
506.06	16943.14
506.23	17727.22
506.41	17343.37
506.58	17584.44
506.76	17507.21
506.93	17378.48
507.11	17326.99
507.28	17284.86
507.46	17710.83
507.63	17659.34
507.81	17694.45
507.98	17743.60
508.16	17980.00
508.33	17961.27
508.50	17937.87
508.68	17778.71
508.85	18375.55
509.03	17886.37
509.20	18078.30
509.38	18174.26
509.55	18319.37
509.73	18532.36
509.90	18398.95
510.08	18412.99
510.25	18272.56
510.42	18635.35
510.60	18934.93
510.77	18834.29
510.95	18693.86
511.12	18726.63
511.30	18628.32
511.47	18829.61
511.64	18981.74
511.82	18867.06
511.99	19131.54
512.17	19094.09
512.34	18752.37
512.51	19295.38
512.69	18972.38
512.86	19087.07
513.04	19138.56
513.21	19466.24
513.38	19742.42
513.56	19604.33
513.73	19489.64
513.90	19557.52
514.08	19662.84
514.25	19653.48
514.43	19737.74
514.60	19763.48
514.77	19747.10
514.95	19723.69
515.12	19786.89
515.29	19751.78
515.47	19915.62
515.64	19957.75
515.81	19936.68
515.99	19840.72
516.16	20365.00
516.33	20049.03
516.51	20180.10
516.68	20196.48
516.85	20339.26
517.03	20079.46
517.20	20638.84
517.37	20702.04
517.54	20589.69
517.72	20444.58
517.89	20650.55
518.06	20407.13
518.24	20652.89
518.41	20896.30
518.58	20821.41
518.75	21167.80
518.93	21062.48
519.10	20893.96
519.27	21081.21
519.45	20905.66
519.62	21043.76
519.79	20919.71
519.96	20896.30
520.14	21338.66
520.31	21174.83
520.48	21280.15
520.65	21338.66
520.83	21355.05
521.00	21607.83
521.17	21025.03
521.34	21479.10
521.52	21425.26
521.69	21656.98
521.86	21769.32
522.03	21813.79
522.20	21909.75
522.38	21841.88
522.55	21954.22
522.72	21781.03
522.89	22188.28
523.07	22024.44
523.24	22043.17
523.41	22274.88
523.58	22043.17
523.75	22457.44
523.92	22106.36
524.10	22253.81
524.27	21809.11
524.44	22195.30
524.61	22443.40
524.78	22752.35
524.96	22649.36
525.13	22384.88
525.30	22398.93
525.47	22668.09
525.64	22445.74
525.81	22757.03
525.98	22860.01
526.16	22679.79
526.33	23082.36
526.50	23138.54
526.67	22794.48
526.84	23051.94
527.01	22918.53
527.18	23021.51
527.36	23138.54
527.53	23047.26
527.70	23473.23
527.87	23199.39
528.04	23318.76
528.21	23393.65
528.38	23321.10
528.55	23098.75
528.72	23325.78
528.89	23351.52
529.07	23166.62
529.24	23377.27
529.41	23433.44
529.58	23580.90
529.75	23580.90
529.92	23426.42
530.09	23353.87
530.26	23536.43
530.43	23791.55
530.60	23384.29
530.77	23543.45
530.94	24130.92
531.11	23571.54
531.28	23828.99
531.46	23695.58
531.63	23927.30
531.80	24107.52
531.97	24039.64
532.14	24065.39
532.31	23917.93
532.48	23978.79
532.65	24308.80
532.82	23857.08
532.99	23871.12
533.16	24126.24
533.33	24114.54
533.50	24617.75
533.67	24659.88
533.84	24219.86
534.01	24250.29
534.18	24109.86
534.35	24467.96
534.52	24261.99
534.69	24896.28
534.86	24561.58
535.03	24634.14
535.20	24608.39
535.37	24493.71
535.54	24680.95
535.71	24690.31
535.88	24945.43
536.05	24467.96
536.22	24648.18
536.38	24608.39
536.55	25083.52
536.72	24954.79
536.89	24479.66
537.06	25003.94
537.23	24844.79
537.40	24907.98
537.57	25034.37
537.74	25069.48
537.91	25310.55
538.08	25654.61
538.25	25481.41
538.42	25322.26
538.59	25605.46
538.75	25207.57
538.92	25013.31
539.09	25472.05
539.26	25369.07
539.43	25418.22
539.60	25291.83
539.77	25415.88
539.94	25666.31
540.11	25656.95
540.28	25951.86
540.44	25357.36
540.61	25752.91
540.78	25441.62
540.95	25460.35
541.12	25781.00
541.29	25638.23
541.46	25764.62
541.62	25441.62
541.79	25722.49
541.96	25621.84
542.13	25488.43
542.30	25624.18
542.47	26300.60
542.63	26146.12
542.80	26171.87
542.97	26258.47
543.14	26246.77
543.31	26462.10
543.48	25909.73
543.64	26494.86
543.81	26588.49
543.98	26546.36
544.15	26274.85
544.32	26724.24
544.48	26808.50
544.65	26834.24
544.82	26661.04
544.99	26307.62
545.16	26614.23
545.32	26546.36
545.49	27037.87
545.66	27358.52
545.83	26565.08
546.00	26916.16
546.16	26686.79
546.33	26607.21
546.50	26265.49
546.67	26712.53
546.83	26740.62
547.00	26960.63
547.17	27199.37
547.34	27225.11
547.50	27033.19
547.67	26778.07
547.84	27007.44
548.00	27274.26
548.17	27161.92
548.34	27161.92
548.51	27037.87
548.67	27307.03
548.84	27381.93
549.01	27372.57
549.18	27035.53
549.34	27370.22
549.51	27339.80
549.68	27255.54
549.84	27342.14
550.01	27449.80
550.18	27063.61
550.34	27618.32
550.51	27941.32
550.68	27229.79
550.84	27147.87
551.01	27463.85
551.18	27400.65
551.34	27307.03
551.51	27243.84
551.68	27459.16
551.84	27571.51
552.01	27948.34
552.18	27594.92
552.34	27772.80
552.51	27658.11
552.68	27597.26
552.84	27817.27
553.01	27878.12
553.18	27573.85
553.34	27878.12
553.51	28025.57
553.67	28070.04
553.84	28474.96
554.01	28245.58
554.17	27908.55
554.34	28063.02
554.51	27772.80
554.67	28343.89
554.84	28189.41
555.00	28388.36
555.17	27955.36
555.33	28060.68
555.50	28229.20
555.67	28290.06
555.83	27946.00
556.00	28552.20
556.16	28142.60
556.33	28217.50
556.50	28240.90
556.66	28500.70
556.83	28311.12
556.99	28650.50
557.16	28830.72
557.32	28383.68
557.49	28112.17
557.65	28519.43
557.82	27927.27
557.98	28479.64
558.15	28467.94
558.32	28659.86
558.48	28556.88
558.65	28538.15
558.81	28746.46
558.98	28491.34
559.14	28484.32
559.31	28631.77
559.47	28554.54
559.64	28746.46
559.80	28797.95
559.97	28311.12
560.13	28755.82
560.30	28741.78
560.46	28896.25
560.63	28662.20
560.79	28669.22
560.96	28751.14
561.12	28896.25
561.29	28847.10
561.45	28943.06
561.61	28961.79
561.78	28685.61
561.94	28975.83
562.11	28706.67
562.27	28938.38
562.44	29083.50
562.60	28725.39
562.77	28989.88
562.93	28833.06
563.10	29221.59
563.26	29055.41
563.42	29170.10
563.59	29376.06
563.75	28858.81
563.92	29546.92
564.08	28826.04
564.24	28978.17
564.41	28617.73
564.57	28734.76
564.74	29109.24
564.90	28950.09
565.07	29343.30
565.23	29228.61
565.39	29268.40
565.56	29394.79
565.72	29146.69
565.88	29252.02
566.05	28783.91
566.21	29359.68
566.38	29158.39
566.54	29305.85
566.70	29738.85
566.87	29713.10
567.03	29015.62
567.19	29535.22
567.36	29303.51
567.52	29392.45
567.68	29455.64
567.85	28924.34
568.01	29338.62
568.17	29303.51
568.34	29085.84
568.50	29663.95
568.66	29521.18
568.83	29420.53
568.99	29577.35
569.15	29923.75
569.32	29446.28
569.48	29380.74
569.64	29535.22
569.81	29324.57
569.97	29673.31
570.13	29727.14
570.30	29071.79
570.46	29839.49
570.62	29436.92
570.78	29301.17
570.95	29457.98
571.11	29326.91
571.27	29439.26
571.43	29287.12
571.60	29631.18
571.76	29453.30
571.92	29450.96
572.09	29633.52
572.25	29759.91
572.41	29656.93
572.57	29923.75
572.74	29596.07
572.90	29703.74
573.06	29563.31
573.22	29324.57
573.38	29362.02
573.55	29860.55
573.71	29853.53
573.87	29968.22
574.03	29790.34
574.20	29949.50
574.36	29666.29
574.52	29425.22
574.68	29586.71
574.84	29219.25
575.01	30024.39
575.17	29713.10
575.33	29804.38
575.49	29759.91
575.65	29853.53
575.82	30008.01
575.98	29376.06
576.14	29254.36
576.30	29696.72
576.46	29343.30
576.62	29270.74
576.79	29869.92
576.95	29876.94
577.11	29453.30
577.27	29837.15
577.43	30441.01
577.59	29755.23
577.75	29734.17
577.92	29397.13
578.08	29516.50
578.24	29479.05
578.40	29816.08
578.56	29736.51
578.72	29610.12
578.88	30085.25
579.04	29972.90
579.21	29954.18
579.37	29724.80
579.53	29752.89
579.69	29954.18
579.85	29713.10
580.01	29883.96
580.17	29853.53
580.33	29635.86
580.49	29937.79
580.65	30181.21
580.82	30148.44
580.98	30197.59
581.14	29481.39
581.30	29982.26
581.46	29862.90
581.62	29848.85
581.78	29734.17
581.94	29984.60
582.10	29759.91
582.26	30047.80
582.42	29556.28
582.58	29867.58
582.74	30071.20
582.90	29979.92
583.06	30380.15
583.22	29916.73
583.38	29757.57
583.54	30176.53
583.70	29497.77
583.86	29806.72
584.02	29965.88
584.18	30148.44
584.34	29764.59
584.50	29972.90
584.66	29546.92
584.82	29663.95
584.98	29912.05
585.14	30206.95
585.30	29509.47
585.46	29759.91
585.62	29832.47
585.78	29905.02
585.94	29336.27
586.10	30010.35
586.26	30106.31
586.42	29895.66
586.58	30333.34
586.74	29575.01
586.90	30017.37
587.06	29376.06
587.22	29720.12
587.38	29736.51
587.54	29905.02
587.70	29975.24
587.86	29958.86
588.02	30010.35
588.18	30033.75
588.34	30356.75
588.49	30174.19
588.65	29867.58
588.81	29979.92
588.97	29755.23
589.13	30176.53
589.29	29940.13
589.45	30300.58
589.61	29965.88
589.77	30513.56
589.93	30064.18
590.08	30700.81
590.24	30246.74
590.40	30349.73
590.56	30354.41
590.72	30398.88
590.88	29778.64
591.04	30438.67
591.20	30422.28
591.35	30012.69
591.51	30771.02
591.67	30412.92
591.83	30541.65
591.99	30000.99
592.15	30433.99
592.31	30429.30
592.46	30581.44
592.62	30244.40
592.78	30169.51
592.94	30309.94
593.10	29539.90
593.26	30277.17
593.41	30663.36
593.57	30211.64
593.73	30670.38
593.89	30588.46
594.05	30466.75
594.20	30373.13
594.36	30185.89
594.52	30490.16
594.68	30256.11
594.84	29827.79
594.99	30309.94
595.15	30342.70
595.31	30485.48
595.47	30459.73
595.62	30497.18
595.78	30157.80
595.94	30726.55
596.10	30609.53
596.25	30143.76
596.41	30113.33
596.57	29890.98
596.73	30686.76
596.88	30356.75
597.04	30661.02
597.20	30396.54
597.36	30307.60
597.51	30831.88
597.67	30501.86
597.83	30466.75
597.99	30588.46
598.14	30237.38
598.30	30157.80
598.46	30398.88
598.61	30644.63
598.77	30359.09
598.93	30426.96
599.09	30923.16
599.24	31136.15
599.40	30806.13
599.56	30646.97
599.71	30623.57
599.87	30522.93
600.03	30237.38
600.18	30661.02
600.34	30438.67
600.50	30059.50
600.65	30331.00
600.81	30522.93
600.97	30834.22
601.12	30766.34
601.28	31000.40
601.44	30759.32
601.59	30726.55
601.75	30511.22
601.91	30518.25
602.06	30345.05
602.22	30628.25
602.37	30597.82
602.53	30242.06
602.69	30712.51
602.84	30670.38
603.00	30335.68
603.16	30986.35
603.31	30492.50
603.47	30794.43
603.62	30874.01
603.78	30714.85
603.94	30747.62
604.09	30618.89
604.25	30773.36
604.40	30132.06
604.56	30630.59
604.71	30738.26
604.87	30586.12
605.03	30370.79
605.18	30319.30
605.34	30644.63
605.49	30253.76
605.65	30644.63
605.80	30281.85
605.96	30551.01
606.12	30548.67
606.27	30916.14
606.43	30300.58
606.58	30497.18
606.74	30433.99
606.89	30412.92
607.05	30614.21
607.20	30356.75
607.36	30625.91
607.51	30677.40
607.67	30464.41
607.82	30136.74
607.98	30256.11
608.13	30497.18
608.29	30462.07
608.44	30450.37
608.60	30331.00
608.75	30244.40
608.91	30307.60
609.06	30307.60
609.22	30438.67
609.37	30260.79
609.53	30267.81
609.68	30197.59
609.84	30422.28
609.99	30160.14
610.15	29640.54
610.30	30412.92
610.46	30377.81
610.61	30309.94
610.76	30380.15
610.92	30356.75
611.07	30225.68
611.23	30459.73
611.38	30267.81
611.54	29788.00
611.69	29902.68
611.84	29909.71
612.00	29916.73
612.15	30019.71
612.31	30216.32
612.46	30054.82
612.62	30080.56
612.77	30110.99
612.92	30096.95
613.08	30040.78
613.23	29965.88
613.39	30071.20
613.54	30157.80
613.69	30171.85
613.85	29993.97
614.00	29940.13
614.15	29986.94
614.31	30019.71
614.46	30171.85
614.62	29979.92
614.77	29982.26
614.92	29900.34
615.08	30057.16
615.23	29900.34
615.38	29806.72
615.54	29596.07
615.69	29745.87
615.84	29722.46
616.00	29834.81
616.15	29926.09
616.30	29394.79
616.46	29266.06
616.61	29771.61
616.76	30047.80
616.92	29560.97
617.07	29474.37
617.22	29771.61
617.37	29462.66
617.53	29460.32
617.68	29434.58
617.83	29436.92
617.99	29352.66
618.14	29488.41
618.29	29535.22
618.45	29483.73
618.60	29844.17
618.75	29645.23
618.90	29984.60
619.06	29575.01
619.21	29514.16
619.36	29605.44
619.51	29373.72
619.67	29055.41
619.82	29481.39
619.97	29392.45
620.12	29099.88
620.28	29165.42
620.43	29404.15
620.58	29869.92
620.73	29387.77
620.89	29315.21
621.04	29315.21
621.19	29376.06
621.34	29790.34
621.49	29347.98
621.65	29350.32
621.80	29228.61
621.95	28999.24
622.10	29118.60
622.25	28922.00
622.41	28985.19
622.56	29467.34
622.71	29331.59
622.86	29188.82
623.01	29008.60
623.16	29654.59
623.32	29055.41
623.47	29120.95
623.62	28833.06
623.77	28837.74
623.92	28952.43
624.07	28737.10
624.23	28765.18
624.38	29254.36
624.53	29170.10
624.68	29130.31
624.83	29308.19
624.98	29249.67
625.13	29046.05
625.29	29071.79
625.44	28999.24
625.59	28842.42
625.74	28957.11
625.89	28739.44
626.04	28835.40
626.19	28814.34
626.34	28552.20
626.49	28404.74
626.65	28861.15
626.80	28690.29
626.95	28566.24
627.10	28556.88
627.25	28547.51
627.40	28315.80
627.55	28177.71
627.70	28451.55
627.85	28254.95
628.00	28559.22
628.15	28238.56
628.30	28584.96
628.45	28781.57
628.60	28240.90
628.76	28779.23
628.91	28629.43
629.06	28591.98
629.21	28484.32
629.36	28547.51
629.51	28596.67
629.66	28301.76
629.81	28102.81
629.96	28238.56
630.11	28379.00
630.26	28044.30
630.41	27964.72
630.56	28107.49
630.71	27828.97
630.86	28098.13
631.01	28470.28
631.16	28353.25
631.31	28266.65
631.46	27637.05
631.61	27892.16
631.76	28154.30
631.91	28088.77
632.06	28126.22
632.21	27920.25
632.36	27761.09
632.51	27985.79
632.66	27763.43
632.81	28123.88
632.96	28070.04
633.10	27910.89
633.25	27814.93
633.40	28121.54
633.55	28175.37
633.70	27477.89
633.85	27353.84
634.00	27505.98
634.15	27725.99
634.30	27908.55
634.45	27541.08
634.60	27461.51
634.75	27669.81
634.90	27716.62
635.05	27597.26
635.19	27868.76
635.34	28283.03
635.49	27747.05
635.64	27969.40
635.79	27714.28
635.94	27866.42
636.09	27936.63
636.24	27859.40
636.39	27407.67
636.53	27475.55
636.68	27311.71
636.83	27213.41
636.98	27304.69
637.13	27456.82
637.28	27470.87
637.43	27742.37
637.57	27545.76
637.72	27290.65
637.87	27080.00
638.02	27613.64
638.17	27634.71
638.32	27400.65
638.46	27559.81
638.61	27330.44
638.76	26895.10
638.91	27236.81
639.06	27154.90
639.20	27503.64
639.35	27222.77
639.50	27199.37
639.65	27178.30
639.80	27201.71
639.94	27229.79
640.09	27215.75
640.24	27033.19
640.39	27225.11
640.54	27098.72
640.68	26759.34
640.83	26939.57
640.98	26902.12
641.13	26864.67
641.27	27206.39
641.42	26803.82
641.57	27168.94
641.72	27152.55
641.86	26871.69
642.01	26899.78
642.16	27152.55
642.31	26794.45
642.45	27147.87
642.60	26609.55
642.75	26806.16
642.90	26852.97
643.04	26569.76
643.19	26670.40
643.34	27005.10
643.48	26670.40
643.63	26787.43
643.78	26661.04
643.93	26544.02
644.07	26583.80
644.22	26733.60
644.37	26906.80
644.51	26806.16
644.66	26703.17
644.81	26487.84
644.95	26665.72
645.10	26403.58
645.25	26181.23
645.39	26558.06
645.54	26679.77
645.69	26211.66
645.83	26316.98
645.98	26717.22
646.13	26939.57
646.27	26579.12
646.42	26419.97
646.57	26302.94
646.71	26361.45
646.86	26644.66
647.00	26501.89
647.15	26174.21
647.30	26445.71
647.44	26181.23
647.59	26129.74
647.74	26305.28
647.88	25977.61
648.03	26148.46
648.17	26267.83
648.32	26410.60
648.47	26286.56
648.61	26199.96
648.76	26366.13
648.90	26398.90
649.05	26061.87
649.20	26064.21
649.34	25937.82
649.49	25858.24
649.63	26302.94
649.78	25851.22
649.92	25883.98
650.07	25956.54
650.21	25921.43
650.36	25886.32
650.51	25968.24
650.65	25869.94
650.80	26504.23
650.94	26141.44
651.09	25811.43
651.23	25661.63
651.38	25834.83
651.52	25972.92
651.67	25975.27
651.81	25738.87
651.96	25958.88
652.10	26230.38
652.25	26024.42
652.39	26033.78
652.54	26017.40
652.68	25781.00
652.83	25902.71
652.97	25844.20
653.12	25731.85
653.26	25816.11
653.41	25769.30
653.55	25411.20
653.70	25214.59
653.84	25855.90
653.99	25795.04
654.13	25673.34
654.27	25385.45
654.42	25462.69
654.56	25443.96
654.71	25280.13
654.85	25518.86
655.00	25415.88
655.14	25427.58
655.29	25390.13
655.43	25413.54
655.57	25315.23
655.72	24994.58
655.86	25273.10
656.01	25172.46
656.15	25184.16
656.30	24896.28
656.44	25413.54
656.58	25006.28
656.73	25511.84
656.87	25212.25
657.01	25137.35
657.16	25226.29
657.30	25404.17
657.45	25425.24
657.59	25376.09
657.73	25198.21
657.88	25135.01
658.02	25106.93
658.16	24940.75
658.31	25034.37
658.45	25020.33
658.60	24812.02
658.74	24833.08
658.88	24809.68
659.03	25179.48
659.17	24594.35
659.31	24987.56
659.46	24563.92
659.60	25333.96
659.74	24680.95
659.89	24966.49
660.03	24844.79
660.17	24772.23
660.32	24697.33
660.46	24706.70
660.60	24318.17
660.74	24374.34
660.89	24662.22
661.03	24374.34
661.17	24636.48
661.32	24533.50
661.46	24428.17
661.60	24393.06
661.74	24463.28
661.89	24685.63
662.03	24734.78
662.17	24369.66
662.31	24119.22
662.46	24343.91
662.60	24353.27
662.74	23857.08
662.88	23674.52
663.03	24369.66
663.17	24060.71
663.31	23840.70
663.45	23693.24
663.60	23931.98
663.74	23899.21
663.88	23836.02
664.02	23845.38
664.17	24252.63
664.31	23510.68
664.45	23454.51
664.59	23934.32
664.73	23601.96
664.88	23726.01
665.02	23307.05
665.16	23410.04
665.30	23754.10
665.44	23206.41
665.59	23508.34
665.73	23510.68
665.87	23550.47
666.01	23311.74
666.15	23480.25
666.29	23690.90
666.44	23208.75
666.58	22998.10
666.72	23269.61
666.86	23243.86
667.00	23669.84
667.14	23283.65
667.28	22871.72
667.43	23087.04
667.57	23288.33
667.71	22951.29
667.85	22878.74
667.99	22679.79
668.13	22850.65
668.27	22897.46
668.41	23199.39
668.56	22829.59
668.70	22836.61
668.84	22810.86
668.98	22735.96
669.12	22782.77
669.26	22368.50
669.40	22773.41
669.54	22682.13
669.68	22766.39
669.82	22537.02
669.96	22452.76
670.10	22462.12
670.25	22614.26
670.39	22277.22
670.53	22417.65
670.67	22068.91
670.81	22555.74
670.95	22569.79
671.09	22169.55
671.23	22139.13
671.37	22092.32
671.51	22307.65
671.65	22305.31
671.79	21937.84
671.93	22202.32
672.07	21963.59
672.21	21968.27
672.35	21357.39
672.49	21692.08
672.63	21568.04
672.77	21851.24
672.91	21858.26
673.05	21694.43
673.19	21757.62
673.33	21668.68
673.47	21874.65
673.61	21539.95
673.75	21673.36
673.89	21301.22
674.03	21216.96
674.17	21516.54
674.31	21231.00
674.45	21111.63
674.59	21118.65
674.73	21371.43
674.87	21050.78
675.01	20975.88
675.15	20699.70
675.29	20926.73
675.43	21135.04
675.56	20938.43
675.70	20737.15
675.84	20666.93
675.98	20212.87
676.12	21001.63
676.26	21032.05
676.40	20641.18
676.54	20507.77
676.68	20425.86
676.82	20362.66
676.96	20683.31
677.10	20381.38
677.23	20203.50
677.37	20093.50
677.51	20353.30
677.65	20205.84
677.79	20037.33
677.93	19871.15
678.07	19784.55
678.21	19585.60
678.34	19660.50
678.48	19719.01
678.62	19847.74
678.76	19433.47
678.90	19466.24
679.04	19468.58
679.18	19740.08
679.31	19278.99
679.45	19332.82
679.59	19047.28
679.73	19367.93
679.87	19119.84
680.00	19077.71
680.14	19166.65
680.28	19087.07
680.42	18956.00
680.56	19124.52
680.70	19126.86
680.83	19098.77
680.97	18871.74
681.11	18904.51
681.25	18665.77
681.39	18398.95
681.52	18663.43
681.66	18640.03
681.80	18310.01
681.94	18373.21
682.07	18448.10
682.21	18272.56
682.35	17827.86
682.49	18101.70
682.62	18094.68
682.76	18017.44
682.90	18097.02
683.04	18150.85
683.17	18012.76
683.31	17846.58
683.45	18097.02
683.59	17980.00
683.72	17565.72
683.86	17872.33
684.00	17820.84
684.13	17561.04
684.27	17504.87
684.41	17331.67
684.55	17530.61
684.68	17392.52
684.82	17158.47
684.96	17226.34
685.09	17238.05
685.23	17102.29
685.37	17170.17
685.50	17071.87
685.64	16945.48
685.78	16760.58
685.91	17202.94
686.05	16830.79
686.19	16791.00
686.32	17102.29
686.46	16690.36
686.60	16690.36
686.73	16343.96
686.87	16585.04
687.01	16449.28
687.14	16505.46
687.28	16070.12
687.42	16259.70
687.55	15922.66
687.69	16430.56
687.82	15925.00
687.96	16348.64
688.10	15894.58
688.23	16177.78
688.37	16159.06
688.50	16081.82
688.64	15824.36
688.78	15693.29
688.91	15917.98
689.05	15534.14
689.18	15789.25
689.32	15091.77
689.46	15536.48
689.59	15524.77
689.73	15243.91
689.86	15323.49
690.00	15377.32
690.13	15117.52
690.27	15112.84
690.41	15389.02
690.54	15154.97
690.68	15248.59
690.81	15246.25
690.95	15101.14
691.08	15180.71
691.22	14810.91
691.35	14906.87
691.49	15110.50
691.62	14724.31
691.76	14621.33
691.89	14562.81
692.03	14389.61
692.16	14319.40
692.30	14394.29
692.43	14265.57
692.57	14387.27
692.70	14281.95
692.84	14061.94
692.97	14190.67
693.11	14202.37
693.24	14249.18
693.38	13984.70
693.51	14022.15
693.65	14057.26
693.78	13862.99
693.92	14057.26
694.05	13699.16
694.19	13760.01
694.32	13645.32
694.45	13371.48
694.59	13631.28
694.72	13231.05
694.86	13411.27
694.99	12861.24
695.13	13167.85
695.26	13369.14
695.39	13128.06
695.53	13076.57
695.66	13158.49
695.80	13069.55
695.93	13137.43
696.07	13184.24
696.20	12830.82
696.33	13008.70
696.47	13074.23
696.60	12538.25
696.73	12734.85
696.87	12903.37
697.00	12709.11
697.14	12461.01
697.27	12311.22
697.40	12245.68
697.54	12287.81
697.67	12540.59
697.80	12257.39
697.94	12189.51
698.07	12112.27
698.21	12112.27
698.34	12149.72
698.47	11943.75
698.61	12320.58
698.74	11985.88
698.87	11913.33
699.01	11896.94
699.14	12037.38
699.27	11960.14
699.40	11817.36
699.54	11765.87
699.67	11485.01
699.80	11789.28
699.94	11536.50
700.07	11627.78
700.20	11587.99
700.34	11384.37
700.47	11316.49
700.60	11431.18
700.73	11365.64
700.87	11239.25
701.00	11075.42
701.13	10888.17
701.26	11019.24
701.40	11162.01
701.53	10988.82
701.66	11112.86
701.79	10899.87
701.93	10602.63
702.06	10778.17
702.19	10588.58
702.32	10745.40
702.46	10485.60
702.59	10560.50
702.72	10267.93
702.85	10583.90
702.99	10345.17
703.12	10389.64
703.25	10214.10
703.38	10249.21
703.51	10214.10
703.65	10242.18
703.78	10139.20
703.91	10267.93
704.04	10352.19
704.17	10164.95
704.31	10066.64
704.44	10209.42
704.57	10071.33
704.70	10118.14
704.83	9795.14
704.96	9643.01
705.10	9778.76
705.23	9650.03
>>>>>End Processed Spectral Data<<<<<
