SpectraSuite Data File
++++++++++++++++++++++++++++++++++++
Date: Fri Oct 18 13:58:10 GMT-05:00 2013
User: bianchi
Dark Spectrum Present: No
Reference Spectrum Present: No
Number of Sampled Component Spectra: 1
Spectrometers: USB2+H05261
Integration Time (usec): 50000 (USB2+H05261)
Spectra Averaged: 1 (USB2+H05261)
Boxcar Smoothing: 0 (USB2+H05261)
Correct for Electrical Dark: No (USB2+H05261)
Strobe/Lamp Enabled: No (USB2+H05261)
Correct for Detector Non-linearity: No (USB2+H05261)
Correct for Stray Light: No (USB2+H05261)
Number of Pixels in Processed Spectrum: 2048
>>>>>Begin Processed Spectral Data<<<<<
365.73	0.00
365.92	0.00
366.12	0.00
366.32	0.00
366.52	0.00
366.72	0.00
366.91	0.00
367.11	0.00
367.31	0.00
367.51	0.00
367.70	0.00
367.90	0.00
368.10	0.00
368.30	0.00
368.49	0.00
368.69	0.00
368.89	0.00
369.09	0.00
369.28	0.00
369.48	0.00
369.68	0.00
369.87	0.00
370.07	0.00
370.27	0.00
370.47	0.00
370.66	149.79
370.86	35.11
371.06	173.20
371.25	105.32
371.45	81.92
371.65	170.86
371.84	198.95
372.04	163.84
372.24	229.37
372.44	182.56
372.63	168.52
372.83	205.97
373.03	290.23
373.22	224.69
373.42	173.20
373.62	222.35
373.81	198.95
374.01	222.35
374.21	259.80
374.40	264.48
374.60	252.78
374.79	266.82
374.99	224.69
375.19	243.42
375.38	290.23
375.58	255.12
375.78	259.80
375.97	262.14
376.17	280.86
376.37	285.55
376.56	236.39
376.76	287.89
376.95	304.27
377.15	283.20
377.35	229.37
377.54	222.35
377.74	313.63
377.93	245.76
378.13	280.86
378.33	266.82
378.52	271.50
378.72	290.23
378.91	285.55
379.11	252.78
379.31	311.29
379.50	313.63
379.70	278.52
379.89	290.23
380.09	315.97
380.28	273.84
380.48	318.31
380.68	250.44
380.87	278.52
381.07	332.36
381.26	362.78
381.46	320.65
381.65	369.80
381.85	259.80
382.04	351.08
382.24	351.08
382.43	367.46
382.63	390.87
382.83	311.29
383.02	369.80
383.22	409.59
383.41	290.23
383.61	339.38
383.80	365.12
384.00	369.80
384.19	362.78
384.39	451.72
384.58	428.32
384.78	414.27
384.97	339.38
385.17	355.76
385.36	390.87
385.56	418.96
385.75	351.08
385.95	348.74
386.14	381.51
386.34	421.30
386.53	433.00
386.72	395.55
386.92	451.72
387.11	437.68
387.31	465.77
387.50	425.98
387.70	458.74
387.89	437.68
388.09	433.00
388.28	402.57
388.48	411.93
388.67	456.40
388.86	437.68
389.06	463.43
389.25	503.22
389.45	440.02
389.64	430.66
389.84	472.79
390.03	533.64
390.22	449.38
390.42	437.68
390.61	442.36
390.81	521.94
391.00	477.47
391.19	510.24
391.39	475.13
391.58	528.96
391.78	559.39
391.97	585.13
392.16	543.00
392.36	571.09
392.55	524.28
392.75	521.94
392.94	629.60
393.13	521.94
393.33	552.37
393.52	638.97
393.71	521.94
393.91	561.73
394.10	554.71
394.29	610.88
394.49	543.00
394.68	552.37
394.88	543.00
395.07	571.09
395.26	545.34
395.46	596.84
395.65	730.25
395.84	575.77
396.04	627.26
396.23	685.78
396.42	601.52
396.62	720.88
396.81	582.79
397.00	655.35
397.19	678.76
397.39	739.61
397.58	678.76
397.77	638.97
397.97	702.16
398.16	674.07
398.35	734.93
398.55	784.08
398.74	730.25
398.93	690.46
399.12	720.88
399.32	711.52
399.51	737.27
399.70	758.33
399.90	802.80
400.09	709.18
400.28	760.67
400.47	833.23
400.67	779.40
400.86	821.53
401.05	784.08
401.24	858.98
401.44	919.83
401.63	847.27
401.82	870.68
402.01	819.19
402.21	863.66
402.40	884.72
402.59	873.02
402.78	866.00
402.97	788.76
403.17	805.14
403.36	964.30
403.55	929.19
403.74	805.14
403.93	971.32
404.13	959.62
404.32	856.64
404.51	898.77
404.70	961.96
404.89	987.71
405.09	976.00
405.28	922.17
405.47	915.15
405.66	999.41
405.85	917.49
406.05	873.02
406.24	1083.67
406.43	997.07
406.62	950.26
406.81	1078.99
407.00	1067.28
407.20	968.98
407.39	1041.54
407.58	1130.48
407.77	1142.18
407.96	1149.20
408.15	1069.62
408.34	1118.78
408.54	1153.88
408.73	1050.90
408.92	1107.07
409.11	1203.04
409.30	1224.10
409.49	1186.65
409.68	1109.41
409.87	1238.14
410.07	1144.52
410.26	1177.29
410.45	1123.46
410.64	1200.69
410.83	1280.27
411.02	1313.04
411.21	1327.08
411.40	1247.51
411.59	1357.51
411.78	1261.55
411.98	1252.19
412.17	1270.91
412.36	1301.34
412.55	1378.58
412.74	1465.18
412.93	1423.05
413.12	1320.06
413.31	1446.45
413.50	1423.05
413.69	1324.74
413.88	1493.26
414.07	1423.05
414.26	1394.96
414.45	1495.60
414.64	1502.62
414.83	1547.09
415.02	1645.40
415.22	1544.75
415.41	1523.69
415.60	1551.78
415.79	1582.20
415.98	1717.95
416.17	1619.65
416.36	1710.93
416.55	1675.82
416.74	1743.70
416.93	1717.95
417.12	1668.80
417.31	1696.89
417.50	1727.32
417.69	1722.63
417.88	1781.15
418.07	1713.27
418.26	1764.76
418.45	1818.60
418.64	1893.49
418.83	1797.53
419.02	1778.81
419.21	1799.87
419.39	1804.55
419.58	1832.64
419.77	1771.79
419.96	1820.94
420.15	1895.83
420.34	1921.58
420.53	1888.81
420.72	1994.14
420.91	1820.94
421.10	1984.77
421.29	2033.93
421.48	1996.48
421.67	1928.60
421.86	1919.24
422.05	2052.65
422.24	1996.48
422.43	1954.35
422.61	1930.94
422.80	2073.71
422.99	2066.69
423.18	2069.03
423.37	2143.93
423.56	1956.69
423.75	2019.88
423.94	1989.46
424.13	1914.56
424.32	1844.34
424.50	1989.46
424.69	2167.34
424.88	2155.63
425.07	2033.93
425.26	2005.84
425.45	2120.53
425.64	2008.18
425.83	2071.37
426.01	2115.84
426.20	2085.42
426.39	2101.80
426.58	2071.37
426.77	2141.59
426.96	2195.42
427.15	1963.71
427.33	2045.63
427.52	2188.40
427.71	2237.55
427.90	2090.10
428.09	2223.51
428.28	2176.70
428.46	2291.38
428.65	2200.10
428.84	2263.30
429.03	2267.98
429.22	2188.40
429.40	2275.00
429.59	2335.85
429.78	2174.36
429.97	2265.64
430.16	2293.72
430.34	2293.72
430.53	2286.70
430.72	2417.77
430.91	2349.90
431.10	2303.09
431.28	2363.94
431.47	2588.63
431.66	2270.32
431.85	2291.38
432.03	2431.82
432.22	2546.50
432.41	2572.25
432.60	2459.90
432.79	2450.54
432.97	2483.31
433.16	2502.03
433.35	2420.11
433.54	2569.91
433.72	2462.24
433.91	2541.82
434.10	2399.05
434.28	2644.81
434.47	2595.65
434.66	2586.29
434.85	2743.11
435.03	2518.42
435.22	2684.59
435.41	2712.68
435.59	2574.59
435.78	2693.96
435.97	2731.41
436.16	2715.02
436.34	2670.55
436.53	2691.62
436.72	2825.03
436.90	2700.98
437.09	2700.98
437.28	2600.34
437.46	2712.68
437.65	2846.09
437.84	2813.32
438.02	2820.35
438.21	2820.35
438.40	2836.73
438.58	2839.07
438.77	2867.16
438.96	2932.69
439.14	2949.08
439.33	2970.14
439.52	3021.63
439.70	2956.10
439.89	2956.10
440.08	2967.80
440.26	3040.36
440.45	3066.10
440.63	3016.95
440.82	3049.72
441.01	3260.37
441.19	3138.66
441.38	3201.85
441.57	3258.03
441.75	3330.58
441.94	3330.58
442.12	3365.69
442.31	3353.99
442.50	3318.88
442.68	3386.76
442.87	3382.07
443.05	3463.99
443.24	3506.12
443.43	3405.48
443.61	3461.65
443.80	3662.94
443.98	3314.20
444.17	3314.20
444.35	3513.14
444.54	3393.78
444.73	3496.76
444.91	3606.77
445.10	3557.61
445.28	3431.23
445.47	3368.03
445.65	3520.17
445.84	3583.36
446.02	3545.91
446.21	3627.83
446.39	3485.06
446.58	3627.83
446.77	3576.34
446.95	3463.99
447.14	3482.72
447.32	3503.78
447.51	3581.02
447.69	3506.12
447.88	3543.57
448.06	3480.38
448.25	3527.19
448.43	3489.74
448.62	3531.87
448.80	3709.75
448.99	3634.85
449.17	3684.00
449.36	3669.96
449.54	3747.20
449.73	3742.52
449.91	3803.37
450.10	3824.44
450.28	3833.80
450.46	3744.86
450.65	3740.18
450.83	3796.35
451.02	3796.35
451.20	3943.80
451.39	3936.78
451.57	3672.30
451.76	3847.84
451.94	3819.75
452.13	3929.76
452.31	3939.12
452.49	3726.13
452.68	3920.40
452.86	3911.04
453.05	4009.34
453.23	3908.69
453.42	3894.65
453.60	3936.78
453.78	3971.89
453.97	3948.48
454.15	4011.68
454.34	4021.04
454.52	4002.32
454.70	4051.47
454.89	3929.76
455.07	4084.23
455.26	4051.47
455.44	4109.98
455.62	4168.49
455.81	4262.12
455.99	4386.16
456.17	4180.20
456.36	4222.33
456.54	4294.88
456.73	4334.67
456.91	4472.76
457.09	4346.37
457.28	4458.72
457.46	4322.97
457.64	4470.42
457.83	4442.34
458.01	4430.63
458.19	4554.68
458.38	4521.92
458.56	4552.34
458.74	4557.02
458.93	4627.24
459.11	4484.47
459.29	4416.59
459.48	4472.76
459.66	4624.90
459.84	4568.73
460.03	4641.28
460.21	4575.75
460.39	4491.49
460.57	4585.11
460.76	4636.60
460.94	4734.90
461.12	4858.95
461.31	4629.58
461.49	4720.86
461.67	4606.17
461.85	4777.03
462.04	4755.97
462.22	5102.37
462.40	4781.71
462.59	4727.88
462.77	4833.21
462.95	4884.70
463.13	4748.95
463.32	4875.34
463.50	4711.50
463.68	5046.20
463.86	5083.64
464.05	4882.36
464.23	4943.21
464.41	5069.60
464.59	4744.27
464.78	4964.28
464.96	5102.37
465.14	5053.22
465.32	5034.49
465.50	5186.63
465.69	5160.88
465.87	5107.05
466.05	5097.69
466.23	5170.24
466.41	5114.07
466.60	5352.81
466.78	5158.54
466.96	5191.31
467.14	5200.67
467.32	5064.92
467.51	5249.82
467.69	5025.13
467.87	5186.63
468.05	5294.29
468.23	5186.63
468.41	5305.99
468.60	5261.52
468.78	5282.59
468.96	5270.89
469.14	5341.10
469.32	5448.77
469.50	5296.63
469.69	5514.30
469.87	5479.19
470.05	5563.45
470.23	5591.54
470.41	5416.00
470.59	5521.32
470.77	5561.11
470.95	5518.98
471.14	5802.19
471.32	5511.96
471.50	5713.25
471.68	5713.25
471.86	5703.89
472.04	5806.87
472.22	5757.72
472.40	5703.89
472.58	5874.74
472.77	5905.17
472.95	5888.79
473.13	6054.97
473.31	5902.83
473.49	5802.19
473.67	6057.31
473.85	6033.90
474.03	6085.39
474.21	6118.16
474.39	6195.40
474.57	6057.31
474.75	6164.97
474.93	6286.68
475.12	6244.55
475.30	6396.68
475.48	6218.80
475.66	6303.06
475.84	6431.79
476.02	6478.60
476.20	6445.84
476.38	6406.05
476.56	6670.53
476.74	6722.02
476.92	6703.29
477.10	6647.12
477.28	6724.36
477.46	6619.04
477.64	6855.43
477.82	6881.18
478.00	7070.76
478.18	6909.26
478.36	7091.82
478.54	7009.90
478.72	7187.79
478.90	7169.06
479.08	7157.36
479.26	7503.76
479.44	7410.14
479.62	7517.80
479.80	7375.03
479.98	7452.27
480.16	7595.04
480.34	7777.60
480.52	7705.04
480.70	7798.66
480.88	7850.16
481.06	7941.44
481.24	7815.05
481.41	7990.59
481.59	8004.63
481.77	8229.32
481.95	8229.32
482.13	8161.45
482.31	8107.62
482.49	8299.54
482.67	8381.46
482.85	8531.25
483.03	8615.51
483.21	8664.66
483.39	8805.10
483.57	8690.41
483.74	8865.95
483.92	9004.04
484.10	8938.51
484.28	9043.83
484.46	9238.09
484.64	9261.50
484.82	9214.69
485.00	9071.92
485.18	9296.61
485.35	9502.58
485.53	9568.11
485.71	9558.75
485.89	9795.14
486.07	9577.47
486.25	9692.16
486.43	9841.95
486.61	10024.51
486.78	10045.58
486.96	10057.28
487.14	10291.34
487.32	10272.61
487.50	10319.42
487.68	10235.16
487.85	10595.61
488.03	10497.30
488.21	10738.38
488.39	10829.66
488.57	10869.45
488.75	11091.80
488.92	11131.59
489.10	11103.50
489.28	10841.36
489.46	11421.81
489.64	11360.96
489.81	11676.93
489.99	11398.41
490.17	11325.85
490.35	11620.76
490.53	11723.74
490.70	11686.29
490.88	12032.69
491.06	12266.75
491.24	11925.03
491.41	11777.58
491.59	12351.01
491.77	12025.67
491.95	12322.92
492.13	12552.29
492.30	12360.37
492.48	12545.27
492.66	12566.34
492.84	12446.97
493.01	12367.39
493.19	12723.15
493.37	12926.78
493.54	13111.68
493.72	13252.11
493.90	13104.66
494.08	13249.77
494.25	13373.82
494.43	13497.87
494.61	13675.75
494.79	13525.96
494.96	13394.89
495.14	13427.65
495.32	13788.10
495.49	13848.95
495.67	13668.73
495.85	14083.00
496.02	14141.52
496.20	14171.94
496.38	14122.79
496.55	14225.78
496.73	14373.23
496.91	14450.47
497.09	14366.21
497.26	14635.37
497.44	14450.47
497.62	14368.55
497.79	14785.16
497.97	14726.65
498.14	14920.92
498.32	15232.21
498.50	15070.71
498.67	15246.25
498.85	15117.52
499.03	15110.50
499.20	15316.47
499.38	15318.81
499.56	15283.70
499.73	15403.07
499.91	15660.52
500.08	15527.11
500.26	15426.47
500.44	15669.89
500.61	16058.42
500.79	15903.94
500.97	15992.88
501.14	16208.21
501.32	16004.58
501.49	16063.10
501.67	16039.69
501.84	16512.48
502.02	16568.65
502.20	16580.36
502.37	16613.12
502.55	16313.53
502.72	16706.74
502.90	16587.38
503.07	16538.23
503.25	16320.56
503.43	16760.58
503.60	16676.32
503.78	16800.37
503.95	16875.26
504.13	16664.61
504.30	16901.01
504.48	17158.47
504.65	16842.50
504.83	17067.19
505.01	17474.44
505.18	17334.01
505.36	17591.47
505.53	17097.61
505.71	17429.97
505.88	17411.25
506.06	17273.15
506.23	17589.13
506.41	17516.57
506.58	17750.62
506.76	17877.01
506.93	17554.02
507.11	17528.27
507.28	17661.68
507.46	17958.93
507.63	17872.33
507.81	18293.63
507.98	18066.60
508.16	18146.17
508.33	18171.92
508.50	18157.88
508.68	18209.37
508.85	18675.13
509.03	18427.04
509.20	18689.18
509.38	18295.97
509.55	18567.47
509.73	18644.71
509.90	18689.18
510.08	18656.41
510.25	18703.22
510.42	19033.24
510.60	19417.08
510.77	19342.19
510.95	18906.85
511.12	18806.20
511.30	19058.98
511.47	19419.42
511.64	19370.27
511.82	19164.31
511.99	19122.18
512.17	19515.39
512.34	19377.30
512.51	19307.08
512.69	19557.52
512.86	19529.43
513.04	19819.66
513.21	19620.71
513.38	19803.27
513.56	19824.34
513.73	19871.15
513.90	19695.61
514.08	19807.95
514.25	20051.37
514.43	20215.21
514.60	20121.59
514.77	20332.23
514.95	20226.91
515.12	20212.87
515.29	19932.00
515.47	20292.44
515.64	20386.07
515.81	20404.79
515.99	20500.75
516.16	20800.34
516.33	20673.95
516.51	20606.08
516.68	20634.16
516.85	20540.54
517.03	20582.67
517.20	20561.61
517.37	20952.48
517.54	21060.14
517.72	21151.42
517.89	20982.90
518.06	20933.75
518.24	21142.06
518.41	21006.31
518.58	20985.24
518.75	21163.12
518.93	21434.63
519.10	21055.46
519.27	21553.99
519.45	21193.55
519.62	21256.75
519.79	21429.94
519.96	21621.87
520.14	21909.75
520.31	21369.09
520.48	21820.81
520.65	21694.43
520.83	21745.92
521.00	21954.22
521.17	21795.07
521.34	22019.76
521.52	21799.75
521.69	21769.32
521.86	22211.68
522.03	21898.05
522.20	22321.69
522.38	22293.60
522.55	22164.87
522.72	22211.68
522.89	22216.36
523.07	22551.06
523.24	22286.58
523.41	22754.69
523.58	22466.80
523.75	22534.68
523.92	22438.72
524.10	22349.78
524.27	22354.46
524.44	22635.32
524.61	22979.38
524.78	23082.36
524.96	23019.17
525.13	22761.71
525.30	23147.90
525.47	23065.98
525.64	22565.10
525.81	23007.47
525.98	23002.78
526.16	23616.01
526.33	23161.94
526.50	23489.62
526.67	22867.03
526.84	23337.48
527.01	23440.47
527.18	23377.27
527.36	23466.21
527.53	23573.88
527.70	24060.71
527.87	23555.15
528.04	23714.31
528.21	24025.60
528.38	23548.13
528.55	24079.43
528.72	23803.25
528.89	24025.60
529.07	24212.84
529.24	23700.26
529.41	23964.75
529.58	23864.10
529.75	23765.80
529.92	23931.98
530.09	23878.15
530.26	24070.07
530.43	24397.74
530.60	24119.22
530.77	23988.15
530.94	24388.38
531.11	24175.39
531.28	24156.67
531.46	24341.57
531.63	24266.67
531.80	24636.48
531.97	24507.75
532.14	24491.37
532.31	24599.03
532.48	24540.52
532.65	24556.90
532.82	24456.26
532.99	24573.28
533.16	24601.37
533.33	24580.31
533.50	24842.45
533.67	24755.85
533.84	24781.59
534.01	25048.41
534.18	24856.49
534.35	25088.20
534.52	24692.65
534.69	25202.89
534.86	25233.32
535.03	25188.85
535.20	25263.74
535.37	25256.72
535.54	25310.55
535.71	25081.18
535.88	25118.63
536.05	25355.02
536.22	25593.76
536.38	25675.68
536.55	25563.33
536.72	25645.25
536.89	25343.32
537.06	25350.34
537.23	25617.16
537.40	25287.15
537.57	25694.40
537.74	25692.06
537.91	25869.94
538.08	25713.13
538.25	25448.64
538.42	25928.45
538.59	25909.73
538.75	25727.17
538.92	25411.20
539.09	26197.62
539.26	25949.52
539.43	25872.28
539.60	26068.89
539.77	25858.24
539.94	26078.25
540.11	26263.15
540.28	26033.78
540.44	25881.64
540.61	26092.29
540.78	26024.42
540.95	26197.62
541.12	26211.66
541.29	26415.29
541.46	26270.17
541.62	26202.30
541.79	26471.46
541.96	26099.31
542.13	26309.96
542.30	26656.36
542.47	26892.76
542.63	26747.64
542.80	26909.14
542.97	26951.27
543.14	26560.40
543.31	26747.64
543.48	26665.72
543.64	26759.34
543.81	27309.37
543.98	27201.71
544.15	27300.01
544.32	26911.48
544.48	27400.65
544.65	26958.29
544.82	26799.13
544.99	26728.92
545.16	27143.19
545.32	27138.51
545.49	27147.87
545.66	26988.72
545.83	27208.73
546.00	27569.17
546.16	27777.48
546.33	27115.11
546.50	27065.96
546.67	27190.00
546.83	27367.88
547.00	27393.63
547.17	27648.75
547.34	27711.94
547.50	27346.82
547.67	27828.97
547.84	27756.41
548.00	27681.52
548.17	27765.78
548.34	27725.99
548.51	28217.50
548.67	27756.41
548.84	27941.32
549.01	27662.79
549.18	27798.54
549.34	27623.00
549.51	27543.42
549.68	27810.25
549.84	28086.43
550.01	28009.19
550.18	27833.65
550.34	27770.46
550.51	28205.80
550.68	28070.04
550.84	28245.58
551.01	28065.36
551.18	27985.79
551.34	27878.12
551.51	28034.94
551.68	27953.02
551.84	28077.07
552.01	28540.49
552.18	28463.25
552.34	28135.58
552.51	28467.94
552.68	28276.01
552.84	28158.99
553.01	28549.85
553.18	28011.53
553.34	28582.62
553.51	28418.78
553.67	28723.05
553.84	28739.44
554.01	28687.95
554.17	28294.74
554.34	28322.82
554.51	28423.47
554.67	28692.63
554.84	28376.66
555.00	28727.74
555.17	28868.17
555.33	29039.03
555.50	28566.24
555.67	28875.19
555.83	29020.30
556.00	28926.68
556.16	29244.99
556.33	28814.34
556.50	28940.72
556.66	29132.65
556.83	29092.86
556.99	29118.60
557.16	29308.19
557.32	29165.42
557.49	29039.03
557.65	29160.73
557.82	28889.23
557.98	28945.41
558.15	29200.52
558.32	29364.36
558.48	29111.58
558.65	29539.90
558.81	29184.14
558.98	29120.95
559.14	29191.16
559.31	28933.70
559.47	29315.21
559.64	29392.45
559.80	29350.32
559.97	29516.50
560.13	29294.14
560.30	29633.52
560.46	29373.72
560.63	29553.94
560.79	29390.11
560.96	29455.64
561.12	29528.20
561.29	29186.48
561.45	29820.77
561.61	29722.46
561.78	29701.40
561.94	29378.40
562.11	29766.93
562.27	29539.90
562.44	29427.56
562.60	29394.79
562.77	29710.76
562.93	29556.28
563.10	29380.74
563.26	29834.81
563.42	29677.99
563.59	29605.44
563.75	29886.30
563.92	29736.51
564.08	29319.89
564.24	29832.47
564.41	29411.17
564.57	29668.63
564.74	29729.48
564.90	29886.30
565.07	30106.31
565.23	29825.45
565.39	29773.95
565.56	29933.11
565.72	29582.03
565.88	29497.77
566.05	29823.11
566.21	29652.25
566.38	29933.11
566.54	30061.84
566.70	30050.14
566.87	30120.35
567.03	29879.28
567.19	30543.99
567.36	29933.11
567.52	30031.41
567.68	30134.40
567.85	29841.83
568.01	29949.50
568.17	29883.96
568.34	30188.23
568.50	30586.12
568.66	30319.30
568.83	30185.89
568.99	29710.76
569.15	30155.46
569.32	30008.01
569.48	29907.37
569.64	30181.21
569.81	30015.03
569.97	30153.12
570.13	30188.23
570.30	30359.09
570.46	30143.76
570.62	30000.99
570.78	30031.41
570.95	30221.00
571.11	29989.28
571.27	29593.73
571.43	29961.20
571.60	29902.68
571.76	30192.91
571.92	30387.18
572.09	29841.83
572.25	30604.84
572.41	30478.46
572.57	30136.74
572.74	30412.92
572.90	30101.63
573.06	30078.22
573.22	30525.27
573.38	30064.18
573.55	30394.20
573.71	30443.35
573.87	30518.25
574.03	30221.00
574.20	30279.51
574.36	30141.42
574.52	30635.27
574.68	29804.38
574.84	30328.66
575.01	30473.78
575.17	30150.78
575.33	30529.95
575.49	30223.34
575.65	30515.90
575.82	30260.79
575.98	30448.03
576.14	30293.55
576.30	30396.54
576.46	30323.98
576.62	30469.09
576.79	30644.63
576.95	30642.29
577.11	30707.83
577.27	30749.96
577.43	30485.48
577.59	30466.75
577.75	30604.84
577.92	29984.60
578.08	30263.13
578.24	30562.72
578.40	30759.32
578.56	30590.80
578.72	30436.33
578.88	31030.82
579.04	30796.77
579.21	30473.78
579.37	30572.08
579.53	30504.20
579.69	29905.02
579.85	30384.83
580.01	30429.30
580.17	30675.06
580.33	30389.52
580.49	30445.69
580.65	30211.64
580.82	30881.03
580.98	30593.14
581.14	30637.61
581.30	30654.00
581.46	30618.89
581.62	30115.67
581.78	30333.34
581.94	30775.70
582.10	29968.22
582.26	30693.79
582.42	30349.73
582.58	30574.42
582.74	30866.98
582.90	30408.24
583.06	30958.27
583.22	30668.04
583.38	30771.02
583.54	30616.55
583.70	30230.36
583.86	30171.85
584.02	30122.69
584.18	31108.06
584.34	30941.88
584.50	31009.76
584.66	30689.10
584.82	30202.27
584.98	30738.26
585.14	30565.06
585.30	30242.06
585.46	30649.32
585.62	30302.92
585.78	30625.91
585.94	29993.97
586.10	30670.38
586.26	30883.37
586.42	30754.64
586.58	31044.87
586.74	30335.68
586.90	30548.67
587.06	30532.29
587.22	30579.10
587.38	30656.34
587.54	30955.93
587.70	30721.87
587.86	30625.91
588.02	30583.78
588.18	31185.30
588.34	30801.45
588.49	30939.54
588.65	30721.87
588.81	30850.60
588.97	30848.26
589.13	30836.56
589.29	31110.40
589.45	30443.35
589.61	30962.95
589.77	31204.02
589.93	30991.03
590.08	30852.94
590.24	30979.33
590.40	31250.83
590.56	31171.25
590.72	30693.79
590.88	30698.47
591.04	30981.67
591.20	30649.32
591.35	31264.88
591.51	31239.13
591.67	31185.30
591.83	31199.34
591.99	30836.56
592.15	31384.24
592.31	31178.28
592.46	30916.14
592.62	30796.77
592.78	30747.62
592.94	30869.33
593.10	30541.65
593.26	31049.55
593.41	31051.89
593.57	31318.71
593.73	31030.82
593.89	31452.12
594.05	31082.31
594.20	31124.44
594.36	31185.30
594.52	31236.79
594.68	30759.32
594.84	30576.76
594.99	30918.48
595.15	30925.50
595.31	31611.28
595.47	31164.23
595.62	31477.86
595.78	31208.70
595.94	31321.05
596.10	31065.93
596.25	31033.16
596.41	31152.53
596.57	31147.85
596.73	31260.20
596.88	30646.97
597.04	31250.83
597.20	31599.57
597.36	31419.35
597.51	31456.80
597.67	31321.05
597.83	31438.08
597.99	30923.16
598.14	31152.53
598.30	31115.08
598.46	31161.89
598.61	31122.10
598.77	31414.67
598.93	31283.60
599.09	31335.09
599.24	31365.52
599.40	31349.14
599.56	31491.91
599.71	31250.83
599.87	31627.66
600.03	31199.34
600.18	31243.81
600.34	31477.86
600.50	31335.09
600.65	31075.29
600.81	31756.39
600.97	31243.81
601.12	31742.35
601.28	31510.63
601.44	31459.14
601.59	31445.10
601.75	30911.46
601.91	31246.15
602.06	31395.95
602.22	31761.07
602.37	30808.47
602.53	31222.75
602.69	31292.96
602.84	31393.61
603.00	31512.97
603.16	31126.78
603.31	30932.52
603.47	31330.41
603.62	31299.98
603.78	31096.36
603.94	31264.88
604.09	30902.09
604.25	31325.73
604.40	31028.48
604.56	31178.28
604.71	31227.43
604.87	31531.70
605.03	31325.73
605.18	31342.11
605.34	31491.91
605.49	31243.81
605.65	31005.08
605.80	30668.04
605.96	31138.49
606.12	31002.74
606.27	31314.03
606.43	31178.28
606.58	31257.85
606.74	31480.21
606.89	31323.39
607.05	31353.82
607.20	31271.90
607.36	31166.57
607.51	30967.63
607.67	31075.29
607.82	30831.88
607.98	31129.12
608.13	30794.43
608.29	31248.49
608.44	31040.18
608.60	31075.29
608.75	31239.13
608.91	31180.62
609.06	31236.79
609.22	31442.76
609.37	30373.13
609.53	30773.36
609.68	30902.09
609.84	31103.38
609.99	30855.28
610.15	30881.03
610.30	30824.86
610.46	31023.80
610.61	31192.32
610.76	30869.33
610.92	31054.23
611.07	31519.99
611.23	30878.69
611.38	30815.49
611.54	30450.37
611.69	30485.48
611.84	30513.56
612.00	30756.98
612.15	30637.61
612.31	30876.35
612.46	30986.35
612.62	30904.43
612.77	31147.85
612.92	31122.10
613.08	30756.98
613.23	30759.32
613.39	30202.27
613.54	30597.82
613.69	30670.38
613.85	30637.61
614.00	30960.61
614.15	30976.99
614.31	30686.76
614.46	30480.80
614.62	30756.98
614.77	30934.86
614.92	30532.29
615.08	30916.14
615.23	30796.77
615.38	30473.78
615.54	30548.67
615.69	30345.05
615.84	30555.69
616.00	30824.86
616.15	30375.47
616.30	30761.66
616.46	30623.57
616.61	30543.99
616.76	30649.32
616.92	30422.28
617.07	30679.74
617.22	30129.72
617.37	30206.95
617.53	30408.24
617.68	30134.40
617.83	30141.42
617.99	30366.11
618.14	30132.06
618.29	30141.42
618.45	30934.86
618.60	30169.51
618.75	30511.22
618.90	30202.27
619.06	30433.99
619.21	30663.36
619.36	30263.13
619.51	29890.98
619.67	29692.04
619.82	30356.75
619.97	29905.02
620.12	29652.25
620.28	30096.95
620.43	30309.94
620.58	29890.98
620.73	30319.30
620.89	29848.85
621.04	30380.15
621.19	30099.29
621.34	29804.38
621.49	29921.41
621.65	29575.01
621.80	29722.46
621.95	29560.97
622.10	30000.99
622.25	29661.61
622.41	29975.24
622.56	30047.80
622.71	30113.33
622.86	29764.59
623.01	29827.79
623.16	30012.69
623.32	29628.84
623.47	29553.94
623.62	29785.66
623.77	29858.21
623.92	29631.18
624.07	29640.54
624.23	29472.03
624.38	29827.79
624.53	29769.27
624.68	29996.31
624.83	29743.53
624.98	29862.90
625.13	29912.05
625.29	29715.44
625.44	30087.59
625.59	29567.99
625.74	29425.22
625.89	29244.99
626.04	29359.68
626.19	29497.77
626.34	29078.82
626.49	29308.19
626.65	29567.99
626.80	29624.16
626.95	29572.67
627.10	29748.21
627.25	29729.48
627.40	29347.98
627.55	29205.20
627.70	29247.33
627.85	29127.97
628.00	29181.80
628.15	29240.31
628.30	28996.90
628.45	29013.28
628.60	28950.09
628.76	29495.43
628.91	29441.60
629.06	29083.50
629.21	29359.68
629.36	29188.82
629.51	28907.96
629.66	28999.24
629.81	28797.95
629.96	28830.72
630.11	28833.06
630.26	28849.44
630.41	28575.60
630.56	28591.98
630.71	28615.39
630.86	29062.43
631.01	28624.75
631.16	29151.37
631.31	28975.83
631.46	28608.37
631.61	28575.60
631.76	28432.83
631.91	28673.90
632.06	28830.72
632.21	28540.49
632.36	29118.60
632.51	28734.76
632.66	28814.34
632.81	28903.28
632.96	28989.88
633.10	28470.28
633.25	28863.49
633.40	28535.81
633.55	28723.05
633.70	28308.78
633.85	28568.58
634.00	28409.42
634.15	28477.30
634.30	28367.29
634.45	28542.83
634.60	28215.16
634.75	28240.90
634.90	28526.45
635.05	28868.17
635.19	28285.37
635.34	28734.76
635.49	28704.33
635.64	28730.08
635.79	28437.51
635.94	28161.33
636.09	28617.73
636.24	28299.42
636.39	27878.12
636.53	28430.49
636.68	28329.84
636.83	28044.30
636.98	28126.22
637.13	28250.27
637.28	28046.64
637.43	27901.53
637.57	28379.00
637.72	27983.44
637.87	28002.17
638.02	28140.26
638.17	27950.68
638.32	27992.81
638.46	27693.22
638.61	27733.01
638.76	27534.06
638.91	27831.31
639.06	27630.02
639.20	27864.08
639.35	28180.05
639.50	27819.61
639.65	28287.71
639.80	28128.56
639.94	28056.00
640.09	27520.02
640.24	27786.84
640.39	27634.71
640.54	27566.83
640.68	27693.22
640.83	27812.59
640.98	27573.85
641.13	27426.40
641.27	27552.79
641.42	27733.01
641.57	27587.89
641.72	27578.53
641.86	27461.51
642.01	27482.57
642.16	27620.66
642.31	27168.94
642.45	27604.28
642.60	27379.59
642.75	27175.96
642.90	27218.09
643.04	27175.96
643.19	27192.34
643.34	27566.83
643.48	27772.80
643.63	27566.83
643.78	27372.57
643.93	27604.28
644.07	27466.19
644.22	27480.23
644.37	27255.54
644.51	27651.09
644.66	27164.26
644.81	26958.29
644.95	27257.88
645.10	27351.50
645.25	27056.59
645.39	27278.94
645.54	27346.82
645.69	27297.67
645.83	27131.49
645.98	27108.08
646.13	27686.20
646.27	27351.50
646.42	26967.65
646.57	27168.94
646.71	26792.11
646.86	27220.43
647.00	26822.54
647.15	27222.77
647.30	26794.45
647.44	26745.30
647.59	26663.38
647.74	26792.11
647.88	27178.30
648.03	26867.01
648.17	26991.06
648.32	27222.77
648.47	27309.37
648.61	26801.47
648.76	26939.57
648.90	27260.22
649.05	27145.53
649.20	26642.32
649.34	26850.63
649.49	26356.77
649.63	26586.15
649.78	27009.78
649.92	26232.72
650.07	26480.82
650.21	26391.88
650.36	27037.87
650.51	26331.03
650.65	26778.07
650.80	26551.04
650.94	26515.93
651.09	26436.35
651.23	26595.51
651.38	26527.63
651.52	26616.57
651.67	26522.95
651.81	26258.47
651.96	26354.43
652.10	26490.18
652.25	26937.23
652.39	26534.65
652.54	26352.09
652.68	26693.81
652.83	26487.84
652.97	26487.84
653.12	26635.30
653.26	25914.41
653.41	26328.69
653.55	26288.90
653.70	26328.69
653.84	26380.18
653.99	26242.09
654.13	26052.50
654.27	26010.37
654.42	26066.55
654.56	25891.01
654.71	26373.16
654.85	26396.56
655.00	26012.71
655.14	25996.33
655.29	26307.62
655.43	26223.36
655.57	26225.70
655.72	26094.63
655.86	25958.88
656.01	26169.53
656.15	25813.77
656.30	25539.93
656.44	26071.23
656.58	25862.92
656.73	26024.42
656.87	26071.23
657.01	26043.14
657.16	26185.91
657.30	26113.36
657.45	25963.56
657.59	26054.84
657.73	25736.53
657.88	25993.99
658.02	25652.27
658.16	25591.42
658.31	25500.14
658.45	25415.88
658.60	25572.69
658.74	25429.92
658.88	25759.94
659.03	25401.83
659.17	25315.23
659.31	25425.24
659.46	25759.94
659.60	25694.40
659.74	25357.36
659.89	25549.29
660.03	25385.45
660.17	25165.44
660.32	25366.73
660.46	25188.85
660.60	25223.95
660.74	24989.90
660.89	24957.13
661.03	25109.27
661.17	25064.80
661.32	25177.14
661.46	25296.51
661.60	25266.08
661.74	25406.52
661.89	24968.84
662.03	25055.43
662.17	24720.74
662.31	24458.60
662.46	25041.39
662.60	25013.31
662.74	24718.40
662.88	24746.48
663.03	24552.22
663.17	24514.77
663.31	24680.95
663.45	24730.10
663.60	24699.67
663.74	24556.90
663.88	24334.55
664.02	24437.53
664.17	24692.65
664.31	24346.25
664.45	24346.25
664.59	24362.64
664.73	24774.57
664.88	24306.46
665.02	24196.46
665.16	24404.77
665.30	24362.64
665.44	24018.58
665.59	23995.17
665.73	24095.82
665.87	23990.49
666.01	23995.17
666.15	23983.47
666.29	23754.10
666.44	24184.76
666.58	23789.20
666.72	23899.21
666.86	24135.60
667.00	23803.25
667.14	23962.40
667.28	23875.80
667.43	23871.12
667.57	23733.03
667.71	23733.03
667.85	23761.12
667.99	23491.96
668.13	23587.92
668.27	23599.62
668.41	23403.02
668.56	23250.88
668.70	23288.33
668.84	23487.28
668.98	23590.26
669.12	23644.09
669.26	23386.63
669.40	23143.22
669.54	23201.73
669.68	23426.42
669.82	23227.48
669.96	22677.45
670.10	23197.05
670.25	23115.13
670.39	23150.24
670.53	23250.88
670.67	22497.23
670.81	23157.26
670.95	22899.80
671.09	23119.81
671.23	23119.81
671.37	22780.43
671.51	22747.67
671.65	22597.87
671.79	22595.53
671.93	22658.73
672.07	23007.47
672.21	22473.82
672.35	22326.37
672.49	22443.40
672.63	22534.68
672.77	22150.83
672.91	22298.28
673.05	22314.67
673.19	22422.33
673.33	21977.63
673.47	22162.53
673.61	22045.51
673.75	22005.72
673.89	22008.06
674.03	22256.15
674.17	22513.61
674.31	21741.24
674.45	21671.02
674.59	21766.98
674.73	21998.70
674.87	21830.18
675.01	21958.91
675.15	21778.68
675.29	21593.78
675.43	21476.76
675.56	21844.22
675.70	21572.72
675.84	21563.36
675.98	21359.73
676.12	21022.69
676.26	21561.02
676.40	21362.07
676.54	21324.62
676.68	21369.09
676.82	20900.98
676.96	20980.56
677.10	21069.50
677.23	20985.24
677.37	20648.21
677.51	20706.72
677.65	20779.28
677.79	20566.29
677.93	20559.27
678.07	20051.37
678.21	20725.44
678.34	20444.58
678.48	20421.17
678.62	20570.97
678.76	20360.32
678.90	20011.58
679.04	20084.14
679.18	19957.75
679.31	19721.35
679.45	19803.27
679.59	19700.29
679.73	19637.09
679.87	19573.90
680.00	19503.68
680.14	19690.93
680.28	19583.26
680.42	19697.95
680.56	19854.76
680.70	19578.58
680.83	19704.97
680.97	19646.46
681.11	19421.77
681.25	19295.38
681.39	18977.06
681.52	18951.32
681.66	19098.77
681.80	18991.11
681.94	18871.74
682.07	18979.40
682.21	18724.29
682.35	18574.49
682.49	18829.61
682.62	18473.85
682.76	18689.18
682.90	18609.60
683.04	18305.33
683.17	18225.75
683.31	18263.20
683.45	18523.00
683.59	18239.79
683.72	18195.32
683.86	18223.41
684.00	18139.15
684.13	18174.26
684.27	17937.87
684.41	17750.62
684.55	17886.37
684.68	17862.97
684.82	17741.26
684.96	17865.31
685.09	17584.44
685.23	17481.46
685.37	17521.25
685.50	17572.74
685.64	17961.27
685.78	17561.04
685.91	17624.23
686.05	17701.47
686.19	17413.59
686.32	17268.47
686.46	16985.27
686.60	17181.87
686.73	17231.02
686.87	16980.59
687.01	16957.18
687.14	16891.65
687.28	16659.93
687.42	16484.39
687.55	16414.18
687.69	16582.70
687.82	16704.40
687.96	16685.68
688.10	16407.16
688.23	16339.28
688.37	16313.53
688.50	16444.60
688.64	16535.88
688.78	16381.41
688.91	16428.22
689.05	16114.59
689.18	16013.95
689.32	15651.16
689.46	15929.69
689.59	15887.56
689.73	15735.42
689.86	15782.23
690.00	15789.25
690.13	15803.30
690.27	15623.08
690.41	15662.86
690.54	15630.10
690.68	15440.51
690.81	15442.85
690.95	15363.28
691.08	15648.82
691.22	15550.52
691.35	15293.06
691.49	15382.00
691.62	15070.71
691.76	15084.75
691.89	14890.49
692.03	14775.80
692.16	14424.72
692.30	14998.15
692.43	14647.07
692.57	14972.41
692.70	14785.16
692.84	14691.54
692.97	14600.26
693.11	14773.46
693.24	14415.36
693.38	14422.38
693.51	14499.62
693.65	14148.54
693.78	14155.56
693.92	13792.78
694.05	14106.41
694.19	14150.88
694.32	13930.87
694.45	13919.17
694.59	13837.25
694.72	14071.30
694.86	13802.14
694.99	13577.45
695.13	13764.69
695.26	13453.40
695.39	13504.89
695.53	13479.15
695.66	13584.47
695.80	13355.10
695.93	13525.96
696.07	13439.36
696.20	13621.92
696.33	13500.21
696.47	13284.88
696.60	13383.18
696.73	13039.12
696.87	12926.78
697.00	12781.67
697.14	12772.30
697.27	12737.20
697.40	12711.45
697.54	12748.90
697.67	12819.11
697.80	12425.90
697.94	12695.07
698.07	12372.07
698.21	12486.76
698.34	12578.04
698.47	12313.56
698.61	12231.64
698.74	12671.66
698.87	12264.41
699.01	12154.40
699.14	12168.45
699.27	12152.06
699.40	11901.62
699.54	11861.84
699.67	11925.03
699.80	11957.80
699.94	12077.16
700.07	11641.82
700.20	11660.55
700.34	11805.66
700.47	11583.31
700.60	11808.00
700.73	11538.84
700.87	11665.23
701.00	11463.94
701.13	11391.39
701.26	11386.71
701.40	11541.18
701.53	11260.32
701.66	11396.07
701.79	11257.98
701.93	11269.68
702.06	11108.18
702.19	10953.71
702.32	11173.72
702.46	10855.40
702.59	11049.67
702.72	10780.51
702.85	10754.76
702.99	10909.24
703.12	10661.14
703.25	10621.35
703.38	10588.58
703.51	10705.61
703.65	10619.01
703.78	10289.00
703.91	10314.74
704.04	10560.50
704.17	10647.10
704.31	10530.07
704.44	10396.66
704.57	10186.01
704.70	10188.35
704.83	10129.84
704.96	9886.42
705.10	10040.90
705.23	9916.85
>>>>>End Processed Spectral Data<<<<<
