SpectraSuite Data File
++++++++++++++++++++++++++++++++++++
Date: Fri Oct 18 13:58:18 GMT-05:00 2013
User: bianchi
Dark Spectrum Present: No
Reference Spectrum Present: No
Number of Sampled Component Spectra: 1
Spectrometers: USB2+H05261
Integration Time (usec): 50000 (USB2+H05261)
Spectra Averaged: 1 (USB2+H05261)
Boxcar Smoothing: 0 (USB2+H05261)
Correct for Electrical Dark: No (USB2+H05261)
Strobe/Lamp Enabled: No (USB2+H05261)
Correct for Detector Non-linearity: No (USB2+H05261)
Correct for Stray Light: No (USB2+H05261)
Number of Pixels in Processed Spectrum: 2048
>>>>>Begin Processed Spectral Data<<<<<
365.73	0.00
365.92	0.00
366.12	0.00
366.32	0.00
366.52	0.00
366.72	0.00
366.91	0.00
367.11	0.00
367.31	0.00
367.51	0.00
367.70	0.00
367.90	0.00
368.10	0.00
368.30	0.00
368.49	0.00
368.69	0.00
368.89	0.00
369.09	0.00
369.28	0.00
369.48	0.00
369.68	0.00
369.87	0.00
370.07	0.00
370.27	0.00
370.47	0.00
370.66	30.43
370.86	147.45
371.06	112.35
371.25	152.13
371.45	79.58
371.65	126.39
371.84	210.65
372.04	154.48
372.24	201.29
372.44	231.71
372.63	166.18
372.83	250.44
373.03	189.58
373.22	241.08
373.42	217.67
373.62	241.08
373.81	194.26
374.01	234.05
374.21	205.97
374.40	196.60
374.60	203.63
374.79	283.20
374.99	166.18
375.19	252.78
375.38	262.14
375.58	262.14
375.78	276.18
375.97	311.29
376.17	283.20
376.37	248.10
376.56	217.67
376.76	252.78
376.95	297.25
377.15	301.93
377.35	315.97
377.54	327.68
377.74	283.20
377.93	259.80
378.13	269.16
378.33	255.12
378.52	243.42
378.72	259.80
378.91	205.97
379.11	280.86
379.31	252.78
379.50	271.50
379.70	280.86
379.89	322.99
380.09	205.97
380.28	297.25
380.48	308.95
380.68	236.39
380.87	306.61
381.07	304.27
381.26	334.70
381.46	360.44
381.65	306.61
381.85	297.25
382.04	379.17
382.24	383.85
382.43	313.63
382.63	351.08
382.83	308.95
383.02	430.66
383.22	407.25
383.41	395.55
383.61	407.25
383.80	435.34
384.00	299.59
384.19	362.78
384.39	360.44
384.58	365.12
384.78	351.08
384.97	433.00
385.17	341.72
385.36	360.44
385.56	451.72
385.75	402.57
385.95	362.78
386.14	348.74
386.34	421.30
386.53	306.61
386.72	376.83
386.92	416.62
387.11	447.04
387.31	444.70
387.50	451.72
387.70	379.17
387.89	362.78
388.09	451.72
388.28	524.28
388.48	465.77
388.67	428.32
388.86	505.56
389.06	503.22
389.25	402.57
389.45	493.85
389.64	503.22
389.84	482.15
390.03	454.06
390.22	482.15
390.42	535.98
390.61	458.74
390.81	587.47
391.00	561.73
391.19	491.51
391.39	524.28
391.58	585.13
391.78	395.55
391.97	482.15
392.16	552.37
392.36	517.26
392.55	561.73
392.75	538.32
392.94	589.82
393.13	484.49
393.33	543.00
393.52	528.96
393.71	503.22
393.91	580.45
394.10	557.05
394.29	550.03
394.49	575.77
394.68	514.92
394.88	615.56
395.07	664.71
395.26	634.29
395.46	627.26
395.65	650.67
395.84	655.35
396.04	753.65
396.23	627.26
396.42	580.45
396.62	650.67
396.81	674.07
397.00	653.01
397.19	643.65
397.39	606.20
397.58	624.92
397.77	720.88
397.97	681.10
398.16	648.33
398.35	655.35
398.55	697.48
398.74	697.48
398.93	655.35
399.12	685.78
399.32	767.70
399.51	725.57
399.70	791.10
399.90	725.57
400.09	807.48
400.28	774.72
400.47	730.25
400.67	741.95
400.86	725.57
401.05	812.17
401.24	779.40
401.44	800.46
401.63	746.63
401.82	814.51
402.01	795.78
402.21	800.46
402.40	805.14
402.59	866.00
402.78	873.02
402.97	861.32
403.17	863.66
403.36	908.13
403.55	924.51
403.74	842.59
403.93	854.30
404.13	894.08
404.32	802.80
404.51	994.73
404.70	1015.79
404.89	912.81
405.09	933.87
405.28	940.90
405.47	976.00
405.66	1020.47
405.85	1011.11
406.05	992.39
406.24	971.32
406.43	992.39
406.62	1034.52
406.81	1069.62
407.00	1011.11
407.20	1020.47
407.39	987.71
407.58	1071.97
407.77	959.62
407.96	1071.97
408.15	1088.35
408.34	1107.07
408.54	1095.37
408.73	1041.54
408.92	1132.82
409.11	1018.13
409.30	1046.22
409.49	1036.86
409.68	1121.12
409.87	1123.46
410.07	1231.12
410.26	1268.57
410.45	1167.93
410.64	1196.01
410.83	1121.12
411.02	1114.10
411.21	1184.31
411.40	1291.98
411.59	1280.27
411.78	1205.38
411.98	1235.80
412.17	1387.94
412.36	1224.10
412.55	1380.92
412.74	1310.70
412.93	1259.21
413.12	1336.45
413.31	1432.41
413.50	1355.17
413.69	1397.30
413.88	1479.22
414.07	1392.62
414.26	1448.79
414.45	1439.43
414.64	1418.36
414.83	1479.22
415.02	1558.80
415.22	1537.73
415.41	1537.73
415.60	1514.33
415.79	1542.41
415.98	1708.59
416.17	1607.95
416.36	1579.86
416.55	1584.54
416.74	1598.59
416.93	1600.93
417.12	1680.50
417.31	1696.89
417.50	1715.61
417.69	1680.50
417.88	1750.72
418.07	1727.32
418.26	1713.27
418.45	1825.62
418.64	1818.60
418.83	1870.09
419.02	1865.41
419.21	1739.02
419.39	1902.86
419.58	1804.55
419.77	1713.27
419.96	1881.79
420.15	1797.53
420.34	1750.72
420.53	1909.88
420.72	1954.35
420.91	1839.66
421.10	1886.47
421.29	1947.33
421.48	1877.11
421.67	2010.52
421.86	2073.71
422.05	2083.08
422.24	2064.35
422.43	1994.14
422.61	1909.88
422.80	2062.01
422.99	1959.03
423.18	2080.74
423.37	2022.22
423.56	1940.30
423.75	1966.05
423.94	2045.63
424.13	1818.60
424.32	1898.17
424.50	1940.30
424.69	1973.07
424.88	2040.95
425.07	2076.06
425.26	1926.26
425.45	2092.44
425.64	1989.46
425.83	2153.29
426.01	1996.48
426.20	2073.71
426.39	2097.12
426.58	2129.89
426.77	2218.83
426.96	2122.87
427.15	2150.95
427.33	2132.23
427.52	1984.77
427.71	2073.71
427.90	2190.74
428.09	2186.06
428.28	2197.76
428.46	2239.89
428.65	2181.38
428.84	2106.48
429.03	2251.60
429.22	2113.50
429.40	2246.91
429.59	2251.60
429.78	2242.23
429.97	2176.70
430.16	2186.06
430.34	2385.01
430.53	2373.30
430.72	2317.13
430.91	2345.22
431.10	2324.15
431.28	2317.13
431.47	2314.79
431.66	2450.54
431.85	2347.56
432.03	2406.07
432.22	2406.07
432.41	2438.84
432.60	2527.78
432.79	2450.54
432.97	2511.39
433.16	2473.95
433.35	2340.54
433.54	2586.29
433.72	2562.89
433.91	2546.50
434.10	2530.12
434.28	2586.29
434.47	2628.42
434.66	2420.11
434.85	2661.19
435.03	2555.86
435.22	2628.42
435.41	2656.51
435.59	2572.25
435.78	2473.95
435.97	2541.82
436.16	2708.00
436.34	2672.89
436.53	2684.59
436.72	2738.43
436.90	2736.09
437.09	2670.55
437.28	2644.81
437.46	2679.91
437.65	2775.88
437.84	2682.25
438.02	2796.94
438.21	2700.98
438.40	2754.81
438.58	2820.35
438.77	2867.16
438.96	2876.52
439.14	2881.20
439.33	2944.39
439.52	2951.42
439.70	2918.65
439.89	3040.36
440.08	3112.91
440.26	3091.85
440.45	2869.50
440.63	2937.37
440.82	3133.98
441.01	3070.78
441.19	3124.62
441.38	3178.45
441.57	3201.85
441.75	3173.77
441.94	3325.90
442.12	3246.32
442.31	3412.50
442.50	3323.56
442.68	3309.52
442.87	3368.03
443.05	3384.41
443.24	3389.10
443.43	3295.47
443.61	3351.65
443.80	3435.91
443.98	3286.11
444.17	3218.24
444.35	3412.50
444.54	3475.70
444.73	3337.60
444.91	3449.95
445.10	3456.97
445.28	3386.76
445.47	3480.38
445.65	3599.74
445.84	3431.23
446.02	3482.72
446.21	3377.39
446.39	3426.54
446.58	3398.46
446.77	3489.74
446.95	3339.94
447.14	3604.42
447.32	3522.51
447.51	3363.35
447.69	3309.52
447.88	3555.27
448.06	3489.74
448.25	3417.18
448.43	3499.10
448.62	3503.78
448.80	3555.27
448.99	3480.38
449.17	3616.13
449.36	3588.04
449.54	3623.15
449.73	3588.04
449.91	3648.90
450.10	3648.90
450.28	3698.05
450.46	3744.86
450.65	3815.07
450.83	3840.82
451.02	3779.97
451.20	3772.94
451.39	3796.35
451.57	3686.34
451.76	3726.13
451.94	3737.84
452.13	3850.18
452.31	3751.88
452.49	3758.90
452.68	3775.28
452.86	3775.28
453.05	3866.56
453.23	3904.01
453.42	3726.13
453.60	3777.62
453.78	3941.46
453.97	3974.23
454.15	3880.61
454.34	3925.08
454.52	4065.51
454.70	3990.61
454.89	3908.69
455.07	4051.47
455.26	4030.40
455.44	4056.15
455.62	4009.34
455.81	4109.98
455.99	4088.92
456.17	4067.85
456.36	4229.35
456.54	4304.25
456.73	4201.26
456.91	4329.99
457.09	4198.92
457.28	4404.89
457.46	4201.26
457.64	4344.03
457.83	4180.20
458.01	4329.99
458.19	4432.97
458.38	4297.22
458.56	4465.74
458.74	4374.46
458.93	4327.65
459.11	4339.35
459.29	4414.25
459.48	4507.87
459.66	4358.08
459.84	4353.40
460.03	4660.01
460.21	4479.79
460.39	4498.51
460.57	4503.19
460.76	4472.76
460.94	4706.82
461.12	4571.07
461.31	4643.62
461.49	4435.32
461.67	4613.20
461.85	4699.80
462.04	4699.80
462.22	4931.51
462.40	4702.14
462.59	4875.34
462.77	4847.25
462.95	4683.41
463.13	4865.97
463.32	4880.02
463.50	4793.42
463.68	4795.76
463.86	4835.55
464.05	4812.14
464.23	4762.99
464.41	4884.70
464.59	4727.88
464.78	4950.23
464.96	4837.89
465.14	4950.23
465.32	4973.64
465.50	5004.07
465.69	5100.03
465.87	5041.51
466.05	4961.94
466.23	4798.10
466.41	4924.49
466.60	5085.98
466.78	5020.45
466.96	4957.25
467.14	4924.49
467.32	5172.58
467.51	5188.97
467.69	5032.15
467.87	5062.58
468.05	5032.15
468.23	5135.14
468.41	5144.50
468.60	5181.95
468.78	5186.63
468.96	5041.51
469.14	5219.39
469.32	5294.29
469.50	5268.55
469.69	5174.92
469.87	5418.34
470.05	5486.22
470.23	5352.81
470.41	5441.75
470.59	5554.09
470.77	5418.34
470.95	5479.19
471.14	5617.29
471.32	5385.57
471.50	5598.56
471.68	5427.70
471.86	5619.63
472.04	5643.03
472.22	5760.06
472.40	5533.03
472.58	5643.03
472.77	5664.10
472.95	5870.06
473.13	5891.13
473.31	5839.64
473.49	5893.47
473.67	5678.14
473.85	5790.49
474.03	5914.53
474.21	5891.13
474.39	6012.84
474.57	6050.28
474.75	6022.20
474.93	6193.06
475.12	6099.44
475.30	6169.65
475.48	6186.04
475.66	6113.48
475.84	6335.83
476.02	6317.11
476.20	6469.24
476.38	6427.11
476.56	6710.32
476.74	6637.76
476.92	6499.67
477.10	6572.22
477.28	6532.44
477.46	6633.08
477.64	6698.61
477.82	6930.33
478.00	6773.51
478.18	6970.12
478.36	7075.44
478.54	6963.09
478.72	7204.17
478.90	7103.53
479.08	7190.13
479.26	7110.55
479.44	7063.74
479.62	7321.20
479.80	7377.37
479.98	7316.51
480.16	7557.59
480.34	7356.30
480.52	7648.87
480.70	7662.91
480.88	7627.81
481.06	7588.02
481.24	7644.19
481.41	7667.60
481.59	7981.23
481.77	8018.68
481.95	7791.64
482.13	8011.65
482.31	8168.47
482.49	8365.07
482.67	8161.45
482.85	8437.63
483.03	8416.57
483.21	8458.70
483.39	8535.93
483.57	8552.32
483.74	8566.36
483.92	8624.87
484.10	8746.58
484.28	9036.81
484.46	8973.61
484.64	9210.01
484.82	8826.16
485.00	8999.36
485.18	9406.61
485.35	9427.68
485.53	9369.16
485.71	9392.57
485.89	9696.84
486.07	9507.26
486.25	9535.34
486.43	9673.43
486.61	9558.75
486.78	9872.38
486.96	10015.15
487.14	9984.73
487.32	9933.23
487.50	10319.42
487.68	10167.29
487.85	10284.31
488.03	10607.31
488.21	10649.44
488.39	10693.91
488.57	10679.86
488.75	10726.68
488.92	10689.23
489.10	11019.24
489.28	10668.16
489.46	11084.78
489.64	10911.58
489.81	11164.36
489.99	11190.10
490.17	11082.44
490.35	11524.80
490.53	11463.94
490.70	11726.08
490.88	11580.97
491.06	11777.58
491.24	11885.24
491.41	11887.58
491.59	12273.77
491.77	11985.88
491.95	12081.85
492.13	12121.63
492.30	12114.61
492.48	12226.96
492.66	12500.80
492.84	12147.38
493.01	12470.37
493.19	12475.06
493.37	12631.87
493.54	12657.62
493.72	12922.10
493.90	12720.81
494.08	13011.04
494.25	13039.12
494.43	13116.36
494.61	13167.85
494.79	13291.90
494.96	13399.57
495.14	13228.71
495.32	13511.91
495.49	13462.76
495.67	13579.79
495.85	13762.35
496.02	13650.00
496.20	13694.47
496.38	13902.78
496.55	13652.34
496.73	14200.03
496.91	13893.42
497.09	14005.77
497.26	14508.98
497.44	14478.55
497.62	14368.55
497.79	14408.34
497.97	14537.07
498.14	14759.42
498.32	14899.85
498.50	14595.58
498.67	14794.53
498.85	14801.55
499.03	15166.67
499.20	14981.77
499.38	15094.11
499.56	15248.59
499.73	15197.10
499.91	15133.90
500.08	15279.02
500.26	15262.63
500.44	15672.23
500.61	15370.30
500.79	15482.64
500.97	15389.02
501.14	15852.45
501.32	15672.23
501.49	15756.49
501.67	15894.58
501.84	15955.43
502.02	15936.71
502.20	16002.24
502.37	16180.12
502.55	16114.59
502.72	16212.89
502.90	16308.85
503.07	16201.19
503.25	16280.77
503.43	16187.14
503.60	16301.83
503.78	16489.07
503.95	16425.88
504.13	16479.71
504.30	16533.54
504.48	16290.13
504.65	16739.51
504.83	16528.86
505.01	17158.47
505.18	16863.56
505.36	17099.95
505.53	17022.72
505.71	16578.01
505.88	17406.56
506.06	16849.52
506.23	17153.79
506.41	17116.34
506.58	17357.41
506.76	17483.80
506.93	17621.89
507.11	17273.15
507.28	17425.29
507.46	17226.34
507.63	17462.74
507.81	17783.39
507.98	17675.73
508.16	17757.64
508.33	17502.53
508.50	17797.43
508.68	17898.08
508.85	17783.39
509.03	18146.17
509.20	18265.54
509.38	18155.54
509.55	18230.43
509.73	18153.20
509.90	18298.31
510.08	18214.05
510.25	18307.67
510.42	18717.26
510.60	18600.24
510.77	18621.30
510.95	18857.70
511.12	18363.84
511.30	18675.13
511.47	18506.62
511.64	18377.89
511.82	18860.04
511.99	18836.63
512.17	19019.19
512.34	18927.91
512.51	19056.64
512.69	19389.00
512.86	19236.86
513.04	19271.97
513.21	19311.76
513.38	19293.04
513.56	19475.60
513.73	19456.87
513.90	19440.49
514.08	19428.79
514.25	19529.43
514.43	19623.05
514.60	19768.16
514.77	19740.08
514.95	19711.99
515.12	19611.35
515.29	19522.41
515.47	19934.34
515.64	19754.12
515.81	19950.73
515.99	20128.61
516.16	20081.80
516.33	20432.88
516.51	20414.15
516.68	20154.35
516.85	20070.09
517.03	20418.83
517.20	20430.54
517.37	20191.80
517.54	20589.69
517.72	20580.33
517.89	20510.11
518.06	20837.79
518.24	20334.57
518.41	20411.81
518.58	20587.35
518.75	20673.95
518.93	20772.25
519.10	20992.26
519.27	20645.87
519.45	20779.28
519.62	20987.58
519.79	21165.46
519.96	20933.75
520.14	21156.10
520.31	21219.30
520.48	21231.00
520.65	21418.24
520.83	21319.94
521.00	21249.72
521.17	21296.53
521.34	21158.44
521.52	21371.43
521.69	21628.89
521.86	21895.71
522.03	21521.23
522.20	21792.73
522.38	21607.83
522.55	21575.06
522.72	21872.31
522.89	21954.22
523.07	22218.71
523.24	21884.01
523.41	22061.89
523.58	21984.65
523.75	22150.83
523.92	21919.12
524.10	22082.95
524.27	22333.39
524.44	21652.30
524.61	22551.06
524.78	22174.24
524.96	22445.74
525.13	22691.49
525.30	22431.69
525.47	22448.08
525.64	22630.64
525.81	22340.41
525.98	22960.66
526.16	22934.91
526.33	22864.69
526.50	22700.86
526.67	22621.28
526.84	22735.96
527.01	22522.98
527.18	22864.69
527.36	23056.62
527.53	22974.70
527.70	23051.94
527.87	23583.24
528.04	23082.36
528.21	23077.68
528.38	23103.43
528.55	23108.11
528.72	23597.28
528.89	23522.38
529.07	23318.76
529.24	23487.28
529.41	23431.10
529.58	23386.63
529.75	23365.57
529.92	23538.77
530.09	23295.35
530.26	23665.16
530.43	23901.55
530.60	23562.17
530.77	23529.41
530.94	23931.98
531.11	23679.20
531.28	23709.63
531.46	23854.74
531.63	23903.89
531.80	23946.02
531.97	24023.26
532.14	24119.22
532.31	24194.12
532.48	24039.64
532.65	24070.07
532.82	23737.71
532.99	23826.65
533.16	24273.70
533.33	24484.34
533.50	24734.78
533.67	24442.21
533.84	24027.94
534.01	24233.91
534.18	24252.63
534.35	24474.98
534.52	24243.27
534.69	24500.73
534.86	24301.78
535.03	24341.57
535.20	24421.15
535.37	24648.18
535.54	24648.18
535.71	24521.79
535.88	24421.15
536.05	24814.36
536.22	25025.01
536.38	24952.45
536.55	25062.46
536.72	24683.29
536.89	24847.13
537.06	25003.94
537.23	25132.67
537.40	24809.68
537.57	25013.31
537.74	24737.12
537.91	25439.28
538.08	25263.74
538.25	25039.05
538.42	25214.59
538.59	25511.84
538.75	25074.16
538.92	25338.64
539.09	25448.64
539.26	25523.54
539.43	25530.56
539.60	25483.75
539.77	25420.56
539.94	25631.21
540.11	25525.88
540.28	25869.94
540.44	25582.06
540.61	25352.68
540.78	25333.96
540.95	25355.02
541.12	25617.16
541.29	25305.87
541.46	25792.70
541.62	25790.36
541.79	25710.78
541.96	25181.82
542.13	25891.01
542.30	25860.58
542.47	26078.25
542.63	25989.31
542.80	26277.19
542.97	26094.63
543.14	26565.08
543.31	26197.62
543.48	26026.76
543.64	25965.90
543.81	26125.06
543.98	26368.48
544.15	26724.24
544.32	26539.33
544.48	26621.25
544.65	26239.75
544.82	26352.09
544.99	26153.15
545.16	26469.12
545.32	26625.93
545.49	26490.18
545.66	26665.72
545.83	26408.26
546.00	26892.76
546.16	26668.06
546.33	26419.97
546.50	26752.32
546.67	26677.43
546.83	26661.04
547.00	27133.83
547.17	26789.77
547.34	26775.73
547.50	26904.46
547.67	27112.77
547.84	27058.93
548.00	26857.65
548.17	27466.19
548.34	26991.06
548.51	26960.63
548.67	27190.00
548.84	27215.75
549.01	27016.80
549.18	27147.87
549.34	26857.65
549.51	26909.14
549.68	26932.54
549.84	27316.39
550.01	27311.71
550.18	27194.68
550.34	27388.95
550.51	27503.64
550.68	27758.75
550.84	27234.47
551.01	27267.24
551.18	27475.55
551.34	27255.54
551.51	27288.31
551.68	27421.72
551.84	27796.20
552.01	27463.85
552.18	27590.24
552.34	27498.95
552.51	27786.84
552.68	27531.72
552.84	27651.09
553.01	27468.53
553.18	27559.81
553.34	27693.22
553.51	27662.79
553.67	27910.89
553.84	28039.62
554.01	27896.85
554.17	28301.76
554.34	28105.15
554.51	28205.80
554.67	28058.34
554.84	27948.34
555.00	27960.04
555.17	27913.23
555.33	27892.16
555.50	27704.92
555.67	27913.23
555.83	28023.23
556.00	28306.44
556.16	28315.80
556.33	27875.78
556.50	28039.62
556.66	28463.25
556.83	28306.44
556.99	28259.63
557.16	28496.02
557.32	28292.40
557.49	28086.43
557.65	27988.13
557.82	28088.77
557.98	27772.80
558.15	28299.42
558.32	28470.28
558.48	28362.61
558.65	28556.88
558.81	28793.27
558.98	28599.01
559.14	28631.77
559.31	28322.82
559.47	28718.37
559.64	28446.87
559.80	28643.48
559.97	28662.20
560.13	28847.10
560.30	28833.06
560.46	28854.12
560.63	28353.25
560.79	28606.03
560.96	28830.72
561.12	28519.43
561.29	28301.76
561.45	28746.46
561.61	28861.15
561.78	28879.87
561.94	28582.62
562.11	28982.85
562.27	28811.99
562.44	28669.22
562.60	28606.03
562.77	28704.33
562.93	28716.03
563.10	29118.60
563.26	28526.45
563.42	28961.79
563.59	29048.39
563.75	28797.95
563.92	28856.46
564.08	28790.93
564.24	29195.84
564.41	28870.51
564.57	28889.23
564.74	29134.99
564.90	29235.63
565.07	29013.28
565.23	28879.87
565.39	28961.79
565.56	29343.30
565.72	28959.45
565.88	29008.60
566.05	28924.34
566.21	28992.22
566.38	28863.49
566.54	29350.32
566.70	29216.91
566.87	29411.17
567.03	29111.58
567.19	29401.81
567.36	29340.96
567.52	28730.08
567.68	29663.95
567.85	29322.23
568.01	29078.82
568.17	28807.31
568.34	29455.64
568.50	29170.10
568.66	29165.42
568.83	29436.92
568.99	29294.14
569.15	29088.18
569.32	29139.67
569.48	28940.72
569.64	29502.45
569.81	28809.65
569.97	29436.92
570.13	29362.02
570.30	29310.53
570.46	29228.61
570.62	29013.28
570.78	29362.02
570.95	29111.58
571.11	29589.05
571.27	28940.72
571.43	29048.39
571.60	29532.88
571.76	29275.42
571.92	29607.78
572.09	29270.74
572.25	29659.27
572.41	29202.86
572.57	29429.90
572.74	29780.98
572.90	29553.94
573.06	29514.16
573.22	29383.09
573.38	29373.72
573.55	29060.09
573.71	29427.56
573.87	29736.51
574.03	29699.06
574.20	29694.38
574.36	29453.30
574.52	29329.25
574.68	29572.67
574.84	29546.92
575.01	29682.67
575.17	29308.19
575.33	29586.71
575.49	29488.41
575.65	29703.74
575.82	29699.06
575.98	29851.19
576.14	29869.92
576.30	29516.50
576.46	29692.04
576.62	29345.64
576.79	29357.34
576.95	29558.63
577.11	29516.50
577.27	29790.34
577.43	29567.99
577.59	29532.88
577.75	29715.44
577.92	29153.71
578.08	29425.22
578.24	29701.40
578.40	29752.89
578.56	29593.73
578.72	29605.44
578.88	30012.69
579.04	29788.00
579.21	29605.44
579.37	29762.25
579.53	29701.40
579.69	29219.25
579.85	29991.62
580.01	29539.90
580.17	29460.32
580.33	29647.57
580.49	29818.42
580.65	29752.89
580.82	29907.37
580.98	29340.96
581.14	29689.70
581.30	29869.92
581.46	29638.20
581.62	29546.92
581.78	29659.27
581.94	30022.05
582.10	29394.79
582.26	29909.71
582.42	29795.02
582.58	29518.84
582.74	29860.55
582.90	30094.61
583.06	29862.90
583.22	29771.61
583.38	29806.72
583.54	29998.65
583.70	29661.61
583.86	29841.83
584.02	29600.76
584.18	30059.50
584.34	30000.99
584.50	29804.38
584.66	29823.11
584.82	29317.55
584.98	29841.83
585.14	29872.26
585.30	29457.98
585.46	29776.30
585.62	29305.85
585.78	29951.84
585.94	29621.82
586.10	29752.89
586.26	30143.76
586.42	30326.32
586.58	30139.08
586.74	29898.00
586.90	29764.59
587.06	29565.65
587.22	29694.38
587.38	29844.17
587.54	30110.99
587.70	30075.88
587.86	29888.64
588.02	29912.05
588.18	30085.25
588.34	29996.31
588.49	29879.28
588.65	30015.03
588.81	29544.58
588.97	30338.02
589.13	29914.39
589.29	29788.00
589.45	29972.90
589.61	30132.06
589.77	30202.27
589.93	30246.74
590.08	30394.20
590.24	30052.48
590.40	30302.92
590.56	30171.85
590.72	30270.15
590.88	29921.41
591.04	30099.29
591.20	30307.60
591.35	30394.20
591.51	30433.99
591.67	30398.88
591.83	30742.94
591.99	30417.60
592.15	30438.67
592.31	30298.23
592.46	30164.82
592.62	30066.52
592.78	29830.13
592.94	30192.91
593.10	29832.47
593.26	30113.33
593.41	30529.95
593.57	30017.37
593.73	30342.70
593.89	30150.78
594.05	30438.67
594.20	30075.88
594.36	30415.26
594.52	30288.87
594.68	30221.00
594.84	30429.30
594.99	30462.07
595.15	30661.02
595.31	30712.51
595.47	30377.81
595.62	30518.25
595.78	30103.97
595.94	30125.04
596.10	30438.67
596.25	29879.28
596.41	30026.73
596.57	30146.10
596.73	30354.41
596.88	30059.50
597.04	30277.17
597.20	30572.08
597.36	30232.70
597.51	30319.30
597.67	30099.29
597.83	30316.96
597.99	30616.55
598.14	30206.95
598.30	30546.33
598.46	30251.42
598.61	30494.84
598.77	30118.01
598.93	30668.04
599.09	30646.97
599.24	30824.86
599.40	30412.92
599.56	30654.00
599.71	30471.43
599.87	30829.54
600.03	30471.43
600.18	30464.41
600.34	30373.13
600.50	30396.54
600.65	30513.56
600.81	30249.08
600.97	30630.59
601.12	30831.88
601.28	30614.21
601.44	30312.28
601.59	30419.94
601.75	30405.90
601.91	30579.10
602.06	30361.43
602.22	30253.76
602.37	30206.95
602.53	30080.56
602.69	30642.29
602.84	30773.36
603.00	30567.40
603.16	30691.44
603.31	30656.34
603.47	30827.20
603.62	30649.32
603.78	30450.37
603.94	30328.66
604.09	30190.57
604.25	30239.72
604.40	30340.36
604.56	30471.43
604.71	30668.04
604.87	30260.79
605.03	30433.99
605.18	30352.07
605.34	30277.17
605.49	29940.13
605.65	30567.40
605.80	29862.90
605.96	30515.90
606.12	30279.51
606.27	30270.15
606.43	30277.17
606.58	30485.48
606.74	30134.40
606.89	30721.87
607.05	30548.67
607.20	30391.86
607.36	30508.88
607.51	30450.37
607.67	30148.44
607.82	30059.50
607.98	30050.14
608.13	30230.36
608.29	29879.28
608.44	30249.08
608.60	30204.61
608.75	30333.34
608.91	30211.64
609.06	30305.26
609.22	30228.02
609.37	29916.73
609.53	30183.55
609.68	30892.73
609.84	30258.45
609.99	30040.78
610.15	30092.27
610.30	30359.09
610.46	30169.51
610.61	29926.09
610.76	29963.54
610.92	30047.80
611.07	29935.45
611.23	30195.25
611.38	29935.45
611.54	29778.64
611.69	30073.54
611.84	30199.93
612.00	30230.36
612.15	29881.62
612.31	30279.51
612.46	29844.17
612.62	29984.60
612.77	30347.39
612.92	30225.68
613.08	30181.21
613.23	30122.69
613.39	29872.26
613.54	29715.44
613.69	30291.21
613.85	29820.77
614.00	29495.43
614.15	30000.99
614.31	29661.61
614.46	29940.13
614.62	29560.97
614.77	29722.46
614.92	29802.04
615.08	29699.06
615.23	29465.00
615.38	29921.41
615.54	29237.97
615.69	29830.13
615.84	29439.26
616.00	29663.95
616.15	29525.86
616.30	29797.36
616.46	29617.14
616.61	30129.72
616.76	29607.78
616.92	29455.64
617.07	29951.84
617.22	29479.05
617.37	29490.75
617.53	29582.03
617.68	29600.76
617.83	29240.31
617.99	29553.94
618.14	29450.96
618.29	29116.26
618.45	29319.89
618.60	29294.14
618.75	29298.83
618.90	29797.36
619.06	29507.13
619.21	29099.88
619.36	29514.16
619.51	29385.43
619.67	28999.24
619.82	29244.99
619.97	29228.61
620.12	28926.68
620.28	28734.76
620.43	29111.58
620.58	29567.99
620.73	29481.39
620.89	29619.48
621.04	29544.58
621.19	29156.05
621.34	29139.67
621.49	29249.67
621.65	29116.26
621.80	29177.12
621.95	29013.28
622.10	28858.81
622.25	28919.66
622.41	29001.58
622.56	28870.51
622.71	29113.92
622.86	29186.48
623.01	29205.20
623.16	28802.63
623.32	29039.03
623.47	28737.10
623.62	28910.30
623.77	28910.30
623.92	29132.65
624.07	29153.71
624.23	28701.99
624.38	28685.61
624.53	28884.55
624.68	29055.41
624.83	29144.35
624.98	28886.89
625.13	28919.66
625.29	29120.95
625.44	28718.37
625.59	28631.77
625.74	28573.26
625.89	28856.46
626.04	28779.23
626.19	28184.73
626.34	28664.54
626.49	28697.31
626.65	28395.38
626.80	28828.38
626.95	28542.83
627.10	28538.15
627.25	28549.85
627.40	28622.41
627.55	28203.46
627.70	28369.63
627.85	28266.65
628.00	28568.58
628.15	28336.87
628.30	28280.69
628.45	28379.00
628.60	28243.24
628.76	28929.02
628.91	28481.98
629.06	28343.89
629.21	28140.26
629.36	28070.04
629.51	28189.41
629.66	27716.62
629.81	28158.99
629.96	28297.08
630.11	28020.89
630.26	27615.98
630.41	28222.18
630.56	28044.30
630.71	28006.85
630.86	28048.98
631.01	28400.06
631.16	28151.96
631.31	28189.41
631.46	27843.01
631.61	27810.25
631.76	27496.61
631.91	27630.02
632.06	27709.60
632.21	27597.26
632.36	27913.23
632.51	27510.66
632.66	27578.53
632.81	27871.10
632.96	27562.15
633.10	27791.52
633.25	27875.78
633.40	27861.74
633.55	27730.67
633.70	27417.04
633.85	27510.66
634.00	27840.67
634.15	27728.33
634.30	27445.12
634.45	27344.48
634.60	27714.28
634.75	27601.94
634.90	27676.83
635.05	27962.38
635.19	27538.74
635.34	27725.99
635.49	27810.25
635.64	27522.36
635.79	27625.34
635.94	27311.71
636.09	27307.03
636.24	27747.05
636.39	27630.02
636.53	27402.99
636.68	27335.12
636.83	27283.62
636.98	27285.97
637.13	27697.90
637.28	27522.36
637.43	27552.79
637.57	27494.27
637.72	27735.35
637.87	27536.40
638.02	27381.93
638.17	27498.95
638.32	27346.82
638.46	27000.42
638.61	26838.92
638.76	26637.64
638.91	27182.98
639.06	27178.30
639.20	27463.85
639.35	27005.10
639.50	27033.19
639.65	27660.45
639.80	27182.98
639.94	27044.89
640.09	27330.44
640.24	26944.25
640.39	27185.32
640.54	26834.24
640.68	26773.39
640.83	26738.28
640.98	26904.46
641.13	26501.89
641.27	26768.71
641.42	26714.87
641.57	26799.13
641.72	26771.05
641.86	26600.19
642.01	26672.74
642.16	26424.65
642.31	26731.26
642.45	27058.93
642.60	26384.86
642.75	26415.29
642.90	26548.70
643.04	26747.64
643.19	26441.03
643.34	26663.38
643.48	26766.37
643.63	27000.42
643.78	26508.91
643.93	26836.58
644.07	26586.15
644.22	26654.02
644.37	26740.62
644.51	26328.69
644.66	26888.07
644.81	25944.84
644.95	26209.32
645.10	26141.44
645.25	26211.66
645.39	26764.03
645.54	26492.52
645.69	26206.98
645.83	26639.98
645.98	26408.26
646.13	26384.86
646.27	26345.07
646.42	26373.16
646.57	26265.49
646.71	26483.16
646.86	26221.02
647.00	26288.90
647.15	26132.08
647.30	26335.71
647.44	25972.92
647.59	26204.64
647.74	26075.91
647.88	26387.20
648.03	25926.11
648.17	26398.90
648.32	26155.49
648.47	26302.94
648.61	26300.60
648.76	26235.06
648.90	26387.20
649.05	26368.48
649.20	25769.30
649.34	26040.80
649.49	25816.11
649.63	25701.42
649.78	25776.32
649.92	25834.83
650.07	25689.72
650.21	25909.73
650.36	25928.45
650.51	25748.23
650.65	25825.47
650.80	26078.25
650.94	25497.80
651.09	25596.10
651.23	25123.31
651.38	25879.30
651.52	25647.59
651.67	25631.21
651.81	25614.82
651.96	25823.13
652.10	25624.18
652.25	25802.07
652.39	25556.31
652.54	26113.36
652.68	25909.73
652.83	25682.70
652.97	26188.25
653.12	25951.86
653.26	25427.58
653.41	25809.09
653.55	25635.89
653.70	25380.77
653.84	25408.86
653.99	25408.86
654.13	25376.09
654.27	25081.18
654.42	25291.83
654.56	25127.99
654.71	25284.81
654.85	25626.53
655.00	25612.48
655.14	25448.64
655.29	25280.13
655.43	25319.92
655.57	25048.41
655.72	24980.54
655.86	24959.47
656.01	25315.23
656.15	25029.69
656.30	24947.77
656.44	25123.31
656.58	25207.57
656.73	24608.39
656.87	25259.06
657.01	24952.45
657.16	25219.27
657.30	25205.23
657.45	25191.19
657.59	25003.94
657.73	24884.58
657.88	24919.68
658.02	24474.98
658.16	25006.28
658.31	24978.20
658.45	24900.96
658.60	24421.15
658.74	24584.99
658.88	24442.21
659.03	24807.34
659.17	24725.42
659.31	25083.52
659.46	24641.16
659.60	25013.31
659.74	24854.15
659.89	24844.79
660.03	24477.32
660.17	24676.27
660.32	24563.92
660.46	24320.51
660.60	24709.04
660.74	24446.90
660.89	24350.93
661.03	24243.27
661.17	24343.91
661.32	24414.13
661.46	24725.42
661.60	24655.20
661.74	24147.31
661.89	24615.41
662.03	24147.31
662.17	24205.82
662.31	23866.44
662.46	24030.28
662.60	24056.03
662.74	24285.40
662.88	24063.05
663.03	23852.40
663.17	24041.98
663.31	23564.51
663.45	23791.55
663.60	23669.84
663.74	23791.55
663.88	24217.52
664.02	23669.84
664.17	23796.23
664.31	23967.09
664.45	24077.09
664.59	23704.95
664.73	24032.62
664.88	23704.95
665.02	23742.39
665.16	23623.03
665.30	23356.21
665.44	23459.19
665.59	23417.06
665.73	23206.41
665.87	23110.45
666.01	23285.99
666.15	23431.10
666.29	23211.09
666.44	23152.58
666.58	23374.93
666.72	23206.41
666.86	23264.92
667.00	23056.62
667.14	23318.76
667.28	22948.95
667.43	22974.70
667.57	23349.18
667.71	22911.50
667.85	22782.77
667.99	23075.34
668.13	22885.76
668.27	22883.42
668.41	22820.22
668.56	22771.07
668.70	23035.55
668.84	22902.14
668.98	22448.08
669.12	22583.83
669.26	22419.99
669.40	22312.33
669.54	22483.19
669.68	22822.56
669.82	22302.96
669.96	22569.79
670.10	22136.79
670.25	22317.01
670.39	22232.75
670.53	21977.63
670.67	21909.75
670.81	22085.30
670.95	22317.01
671.09	22153.17
671.23	22050.19
671.37	21891.03
671.51	22169.55
671.65	22141.47
671.79	22141.47
671.93	22209.34
672.07	21745.92
672.21	21921.46
672.35	21216.96
672.49	21469.73
672.63	21619.53
672.77	21418.24
672.91	21476.76
673.05	21572.72
673.19	21614.85
673.33	21706.13
673.47	21348.03
673.61	21621.87
673.75	21427.60
673.89	21757.62
674.03	21577.40
674.17	21383.13
674.31	20936.09
674.45	21301.22
674.59	21329.30
674.73	21380.79
674.87	21446.33
675.01	20903.32
675.15	21032.05
675.29	20861.19
675.43	20917.37
675.56	21025.03
675.70	20711.40
675.84	20659.91
675.98	20184.78
676.12	20758.21
676.26	20861.19
676.40	21106.95
676.54	20645.87
676.68	20547.56
676.82	20030.30
676.96	20556.93
677.10	20233.93
677.23	20077.12
677.37	20142.65
677.51	19922.64
677.65	19983.49
677.79	19765.82
677.93	20049.03
678.07	20175.42
678.21	19580.92
678.34	19620.71
678.48	19716.67
678.62	19716.67
678.76	19442.83
678.90	19660.50
679.04	19564.54
679.18	19346.87
679.31	19133.88
679.45	18869.40
679.59	19367.93
679.73	19335.17
679.87	19033.24
680.00	19178.35
680.14	19152.60
680.28	18775.78
680.42	18785.14
680.56	19073.03
680.70	18801.52
680.83	18712.58
680.97	18558.11
681.11	18740.67
681.25	18640.03
681.39	18490.23
681.52	18637.69
681.66	18501.93
681.80	18422.36
681.94	18298.31
682.07	18391.93
682.21	18101.70
682.35	17923.82
682.49	17954.25
682.62	17816.16
682.76	17654.66
682.90	18073.62
683.04	17774.03
683.17	18113.41
683.31	18022.12
683.45	18036.17
683.59	17799.77
683.72	17605.51
683.86	17788.07
684.00	17724.88
684.13	17891.06
684.27	17685.09
684.41	17380.82
684.55	17104.64
684.68	17020.38
684.82	17224.00
684.96	17046.12
685.09	17067.19
685.23	16739.51
685.37	17249.75
685.50	17312.94
685.64	16889.31
685.78	16973.56
685.91	17226.34
686.05	16959.52
686.19	16795.68
686.32	16704.40
686.46	16587.38
686.60	16730.15
686.73	16645.89
686.87	16491.41
687.01	16470.35
687.14	16168.42
687.28	16264.38
687.42	16175.44
687.55	16217.57
687.69	16154.38
687.82	16208.21
687.96	16163.74
688.10	15922.66
688.23	16051.39
688.37	16105.23
688.50	15908.62
688.64	15906.28
688.78	15803.30
688.91	15625.42
689.05	15426.47
689.18	15721.38
689.32	15349.23
689.46	15225.18
689.59	15236.89
689.73	15129.22
689.86	15365.62
690.00	15199.44
690.13	15433.49
690.27	15173.69
690.41	15232.21
690.54	14885.81
690.68	14958.36
690.81	15119.86
690.95	14719.63
691.08	14960.70
691.22	15000.49
691.35	14731.33
691.49	14890.49
691.62	14766.44
691.76	14335.78
691.89	14579.20
692.03	14516.00
692.16	14239.82
692.30	14340.46
692.43	14094.71
692.57	14214.07
692.70	14204.71
692.84	14139.18
692.97	14073.64
693.11	14078.32
693.24	14005.77
693.38	14071.30
693.51	13877.04
693.65	13984.70
693.78	13750.65
693.92	13720.22
694.05	13760.01
694.19	13561.06
694.32	13652.34
694.45	13490.85
694.59	13511.91
694.72	13511.91
694.86	13460.42
694.99	13207.64
695.13	13011.04
695.26	13235.73
695.39	13128.06
695.53	13207.64
695.66	13123.38
695.80	13025.08
695.93	12989.97
696.07	12966.57
696.20	12769.96
696.33	12772.30
696.47	12585.06
696.60	12650.60
696.73	12678.68
696.87	12517.18
697.00	12507.82
697.14	12437.61
697.27	12266.75
697.40	12484.42
697.54	12250.36
697.67	12140.36
697.80	12212.92
697.94	12025.67
698.07	12072.48
698.21	11880.56
698.34	11955.46
698.47	12072.48
698.61	11985.88
698.74	12107.59
698.87	12006.95
699.01	11859.49
699.14	11707.36
699.27	11894.60
699.40	11735.45
699.54	11468.62
699.67	11559.91
699.80	11566.93
699.94	11468.62
700.07	11328.19
700.20	11288.40
700.34	11129.25
700.47	11370.32
700.60	11370.32
700.73	11400.75
700.87	11122.23
701.00	11124.57
701.13	11061.37
701.26	11239.25
701.40	11005.20
701.53	11021.58
701.66	10848.38
701.79	10775.83
701.93	10883.49
702.06	10710.29
702.19	10525.39
702.32	10707.95
702.46	10581.56
702.59	10370.91
702.72	10457.51
702.85	10445.81
702.99	10382.62
703.12	10064.30
703.25	10008.13
703.38	10326.44
703.51	10237.50
703.65	10134.52
703.78	10101.75
703.91	10094.73
704.04	10305.38
704.17	10092.39
704.31	10029.20
704.44	10001.11
704.57	9998.77
704.70	9628.96
704.83	9610.24
704.96	9703.86
705.10	9682.80
705.23	9685.14
>>>>>End Processed Spectral Data<<<<<
