SpectraSuite Data File
++++++++++++++++++++++++++++++++++++
Date: Fri Oct 18 13:58:40 GMT-05:00 2013
User: bianchi
Dark Spectrum Present: No
Reference Spectrum Present: No
Number of Sampled Component Spectra: 1
Spectrometers: USB2+H05261
Integration Time (usec): 50000 (USB2+H05261)
Spectra Averaged: 1 (USB2+H05261)
Boxcar Smoothing: 0 (USB2+H05261)
Correct for Electrical Dark: No (USB2+H05261)
Strobe/Lamp Enabled: No (USB2+H05261)
Correct for Detector Non-linearity: No (USB2+H05261)
Correct for Stray Light: No (USB2+H05261)
Number of Pixels in Processed Spectrum: 2048
>>>>>Begin Processed Spectral Data<<<<<
365.73	0.00
365.92	0.00
366.12	0.00
366.32	0.00
366.52	0.00
366.72	0.00
366.91	0.00
367.11	0.00
367.31	0.00
367.51	0.00
367.70	0.00
367.90	0.00
368.10	0.00
368.30	0.00
368.49	0.00
368.69	0.00
368.89	0.00
369.09	0.00
369.28	0.00
369.48	0.00
369.68	0.00
369.87	0.00
370.07	0.00
370.27	0.00
370.47	0.00
370.66	117.03
370.86	147.45
371.06	100.64
371.25	140.43
371.45	142.77
371.65	107.66
371.84	112.35
372.04	114.69
372.24	205.97
372.44	205.97
372.63	117.03
372.83	273.84
373.03	196.60
373.22	161.50
373.42	287.89
373.62	145.11
373.81	140.43
374.01	259.80
374.21	182.56
374.40	180.22
374.60	294.91
374.79	238.73
374.99	313.63
375.19	238.73
375.38	205.97
375.58	304.27
375.78	301.93
375.97	287.89
376.17	325.33
376.37	252.78
376.56	264.48
376.76	255.12
376.95	215.33
377.15	220.01
377.35	266.82
377.54	332.36
377.74	182.56
377.93	327.68
378.13	306.61
378.33	360.44
378.52	330.02
378.72	241.08
378.91	276.18
379.11	287.89
379.31	278.52
379.50	217.67
379.70	262.14
379.89	372.15
380.09	311.29
380.28	301.93
380.48	325.33
380.68	325.33
380.87	255.12
381.07	278.52
381.26	353.42
381.46	304.27
381.65	414.27
381.85	351.08
382.04	301.93
382.24	348.74
382.43	297.25
382.63	325.33
382.83	327.68
383.02	301.93
383.22	395.55
383.41	304.27
383.61	327.68
383.80	301.93
384.00	365.12
384.19	386.19
384.39	383.85
384.58	337.04
384.78	318.31
384.97	407.25
385.17	388.53
385.36	423.64
385.56	425.98
385.75	365.12
385.95	402.57
386.14	390.87
386.34	397.89
386.53	381.51
386.72	418.96
386.92	383.85
387.11	421.30
387.31	437.68
387.50	348.74
387.70	390.87
387.89	521.94
388.09	414.27
388.28	440.02
388.48	393.21
388.67	489.17
388.86	421.30
389.06	416.62
389.25	430.66
389.45	482.15
389.64	491.51
389.84	507.90
390.03	470.45
390.22	486.83
390.42	552.37
390.61	486.83
390.81	456.40
391.00	486.83
391.19	528.96
391.39	547.69
391.58	442.36
391.78	517.26
391.97	524.28
392.16	503.22
392.36	498.53
392.55	531.30
392.75	486.83
392.94	648.33
393.13	559.39
393.33	557.05
393.52	535.98
393.71	615.56
393.91	582.79
394.10	550.03
394.29	571.09
394.49	564.07
394.68	580.45
394.88	638.97
395.07	603.86
395.26	650.67
395.46	557.05
395.65	589.82
395.84	493.85
396.04	599.18
396.23	533.64
396.42	615.56
396.62	613.22
396.81	664.71
397.00	669.39
397.19	711.52
397.39	695.14
397.58	711.52
397.77	636.63
397.97	704.50
398.16	723.23
398.35	711.52
398.55	718.54
398.74	655.35
398.93	767.70
399.12	713.86
399.32	636.63
399.51	669.39
399.70	650.67
399.90	732.59
400.09	737.27
400.28	683.44
400.47	781.74
400.67	772.38
400.86	730.25
401.05	751.31
401.24	723.23
401.44	788.76
401.63	760.67
401.82	770.04
402.01	795.78
402.21	805.14
402.40	844.93
402.59	816.85
402.78	901.11
402.97	884.72
403.17	840.25
403.36	767.70
403.55	868.34
403.74	889.40
403.93	926.85
404.13	917.49
404.32	858.98
404.51	901.11
404.70	898.77
404.89	908.13
405.09	891.74
405.28	992.39
405.47	889.40
405.66	980.68
405.85	933.87
406.05	908.13
406.24	947.92
406.43	917.49
406.62	1053.24
406.81	1025.15
407.00	976.00
407.20	1011.11
407.39	1088.35
407.58	1123.46
407.77	1062.60
407.96	1060.26
408.15	1053.24
408.34	1078.99
408.54	1020.47
408.73	1170.27
408.92	1064.94
409.11	1076.65
409.30	1069.62
409.49	1163.25
409.68	1125.80
409.87	1111.75
410.07	1153.88
410.26	1165.59
410.45	1156.22
410.64	1184.31
410.83	1268.57
411.02	1188.99
411.21	1231.12
411.40	1135.16
411.59	1259.21
411.78	1331.76
411.98	1252.19
412.17	1238.14
412.36	1256.87
412.55	1282.61
412.74	1331.76
412.93	1320.06
413.12	1315.38
413.31	1397.30
413.50	1404.32
413.69	1446.45
413.88	1423.05
414.07	1348.15
414.26	1387.94
414.45	1399.64
414.64	1409.00
414.83	1504.96
415.02	1596.25
415.22	1502.62
415.41	1528.37
415.60	1629.01
415.79	1516.67
415.98	1556.46
416.17	1451.13
416.36	1593.90
416.55	1516.67
416.74	1696.89
416.93	1586.88
417.12	1659.44
417.31	1713.27
417.50	1643.06
417.69	1811.57
417.88	1736.68
418.07	1788.17
418.26	1736.68
418.45	1781.15
418.64	1722.63
418.83	1823.28
419.02	1746.04
419.21	1769.44
419.39	1860.73
419.58	1785.83
419.77	1717.95
419.96	1816.26
420.15	1865.41
420.34	1907.54
420.53	1818.60
420.72	1898.17
420.91	1900.52
421.10	1879.45
421.29	1947.33
421.48	2008.18
421.67	1881.79
421.86	1900.52
422.05	1963.71
422.24	1937.96
422.43	2038.61
422.61	2047.97
422.80	1987.11
422.99	1867.75
423.18	2003.50
423.37	2036.27
423.56	2026.90
423.75	2073.71
423.94	1900.52
424.13	1937.96
424.32	1832.64
424.50	2001.16
424.69	2097.12
424.88	2106.48
425.07	2015.20
425.26	2071.37
425.45	1933.28
425.64	2071.37
425.83	2017.54
426.01	2136.91
426.20	2054.99
426.39	2157.97
426.58	1928.60
426.77	2022.22
426.96	2087.76
427.15	2106.48
427.33	2143.93
427.52	2101.80
427.71	2263.30
427.90	2207.13
428.09	2176.70
428.28	2195.42
428.46	2127.55
428.65	2225.85
428.84	2279.68
429.03	2251.60
429.22	2113.50
429.40	2188.40
429.59	2237.55
429.78	2193.08
429.97	2106.48
430.16	2209.47
430.34	2270.32
430.53	2228.19
430.72	2305.43
430.91	2216.49
431.10	2377.98
431.28	2352.24
431.47	2354.58
431.66	2363.94
431.85	2377.98
432.03	2387.35
432.22	2553.52
432.41	2380.32
432.60	2366.28
432.79	2436.50
432.97	2523.10
433.16	2450.54
433.35	2396.71
433.54	2443.52
433.72	2525.44
433.91	2462.24
434.10	2457.56
434.28	2558.21
434.47	2518.42
434.66	2511.39
434.85	2558.21
435.03	2478.63
435.22	2637.78
435.41	2796.94
435.59	2560.55
435.78	2539.48
435.97	2691.62
436.16	2588.63
436.34	2647.15
436.53	2600.34
436.72	2724.38
436.90	2544.16
437.09	2745.45
437.28	2726.72
437.46	2719.70
437.65	2679.91
437.84	2654.17
438.02	2822.69
438.21	2799.28
438.40	2766.51
438.58	2825.03
438.77	2869.50
438.96	2757.15
439.14	2935.03
439.33	2967.80
439.52	2862.48
439.70	2871.84
439.89	2937.37
440.08	3194.83
440.26	3028.65
440.45	2988.86
440.63	2958.44
440.82	3148.02
441.01	2960.78
441.19	3117.59
441.38	3112.91
441.57	3094.19
441.75	3141.00
441.94	3304.84
442.12	3166.74
442.31	3131.64
442.50	3346.97
442.68	3133.98
442.87	3293.13
443.05	3419.52
443.24	3435.91
443.43	3382.07
443.61	3405.48
443.80	3414.84
443.98	3400.80
444.17	3204.19
444.35	3353.99
444.54	3400.80
444.73	3471.01
444.91	3330.58
445.10	3419.52
445.28	3410.16
445.47	3330.58
445.65	3487.40
445.84	3456.97
446.02	3426.54
446.21	3332.92
446.39	3435.91
446.58	3496.76
446.77	3466.33
446.95	3538.89
447.14	3307.18
447.32	3510.80
447.51	3595.06
447.69	3375.05
447.88	3431.23
448.06	3454.63
448.25	3454.63
448.43	3557.61
448.62	3449.95
448.80	3496.76
448.99	3625.49
449.17	3524.85
449.36	3571.66
449.54	3595.06
449.73	3571.66
449.91	3679.32
450.10	3590.38
450.28	3602.08
450.46	3712.09
450.65	3545.91
450.83	3789.33
451.02	3784.65
451.20	3798.69
451.39	3665.28
451.57	3681.66
451.76	3555.27
451.94	3646.55
452.13	3716.77
452.31	3794.01
452.49	3941.46
452.68	3854.86
452.86	3838.48
453.05	3873.59
453.23	3962.53
453.42	3817.41
453.60	3730.81
453.78	3904.01
453.97	3791.67
454.15	3880.61
454.34	3887.63
454.52	4009.34
454.70	3889.97
454.89	3953.16
455.07	4039.76
455.26	4065.51
455.44	4109.98
455.62	4091.26
455.81	4009.34
455.99	4095.94
456.17	4081.89
456.36	4011.68
456.54	4205.94
456.73	4030.40
456.91	4299.56
457.09	4301.90
457.28	4248.07
457.46	4255.09
457.64	4212.96
457.83	4423.61
458.01	4264.46
458.19	4278.50
458.38	4341.69
458.56	4421.27
458.74	4315.95
458.93	4351.06
459.11	4496.17
459.29	4465.74
459.48	4407.23
459.66	4456.38
459.84	4601.49
460.03	4594.47
460.21	4367.44
460.39	4514.89
460.57	4599.15
460.76	4592.13
460.94	4564.04
461.12	4702.14
461.31	4587.45
461.49	4606.17
461.67	4603.83
461.85	4589.79
462.04	4571.07
462.22	4648.30
462.40	4683.41
462.59	4739.58
462.77	4741.93
462.95	4816.82
463.13	4683.41
463.32	4669.37
463.50	4851.93
463.68	4837.89
463.86	4898.74
464.05	4709.16
464.23	4816.82
464.41	4919.81
464.59	4821.50
464.78	4922.15
464.96	4980.66
465.14	4734.90
465.32	4891.72
465.50	5135.14
465.69	4908.10
465.87	4987.68
466.05	5088.32
466.23	4840.23
466.41	5146.84
466.60	5114.07
466.78	5043.85
466.96	4999.38
467.14	5032.15
467.32	5088.32
467.51	5078.96
467.69	5055.56
467.87	5048.54
468.05	5109.39
468.23	5093.01
468.41	5186.63
468.60	5238.12
468.78	5195.99
468.96	5163.22
469.14	5181.95
469.32	5320.04
469.50	5067.26
469.69	5114.07
469.87	5455.79
470.05	5385.57
470.23	5406.64
470.41	5394.93
470.59	5444.09
470.77	5458.13
470.95	5474.51
471.14	5455.79
471.32	5322.38
471.50	5614.95
471.68	5350.46
471.86	5617.29
472.04	5689.84
472.22	5621.97
472.40	5411.32
472.58	5659.42
472.77	5673.46
472.95	5757.72
473.13	5804.53
473.31	5692.18
473.49	5729.63
473.67	5872.40
473.85	5968.37
474.03	5975.39
474.21	5970.71
474.39	5844.32
474.57	6024.54
474.75	5970.71
474.93	6083.05
475.12	5982.41
475.30	6150.93
475.48	6141.57
475.66	6258.59
475.84	6354.55
476.02	6195.40
476.20	6462.22
476.38	6363.92
476.56	6438.81
476.74	6469.24
476.92	6565.20
477.10	6331.15
477.28	6361.58
477.46	6651.80
477.64	6715.00
477.82	6731.38
478.00	6916.28
478.18	6813.30
478.36	7005.22
478.54	6979.48
478.72	6857.77
478.90	7108.21
479.08	7187.79
479.26	7325.88
479.44	7272.04
479.62	7328.22
479.80	7461.63
479.98	7403.11
480.16	7433.54
480.34	7323.54
480.52	7581.00
480.70	7653.55
480.88	7564.61
481.06	7658.23
481.24	7672.28
481.41	7686.32
481.59	7941.44
481.77	7995.27
481.95	8128.68
482.13	8009.31
482.31	8105.28
482.49	8278.47
482.67	8067.83
482.85	8367.42
483.03	8336.99
483.21	8465.72
483.39	8683.39
483.57	8538.27
483.74	8671.68
483.92	8692.75
484.10	8739.56
484.28	8865.95
484.46	8990.00
484.64	9025.11
484.82	9111.71
485.00	9090.64
485.18	9217.03
485.35	9380.87
485.53	9493.21
485.71	9341.08
485.89	9474.49
486.07	9535.34
486.25	9280.22
486.43	9673.43
486.61	9856.00
486.78	9816.21
486.96	9837.27
487.14	9949.62
487.32	10019.83
487.50	10003.45
487.68	10038.56
487.85	10174.31
488.03	10478.58
488.21	10597.95
488.39	10623.69
488.57	10511.35
488.75	10663.48
488.92	10785.19
489.10	10951.37
489.28	11040.31
489.46	11012.22
489.64	11059.03
489.81	11225.21
489.99	11253.30
490.17	11222.87
490.35	11545.86
490.53	11398.41
490.70	11536.50
490.88	11566.93
491.06	11740.13
491.24	11379.68
491.41	11475.65
491.59	11786.94
491.77	11997.59
491.95	11878.22
492.13	12018.65
492.30	12013.97
492.48	11981.20
492.66	12138.02
492.84	12308.88
493.01	12489.10
493.19	12470.37
493.37	12805.07
493.54	12564.00
493.72	12662.30
493.90	12814.43
494.08	12966.57
494.25	12971.25
494.43	13055.51
494.61	13380.84
494.79	13209.98
494.96	12980.61
495.14	13217.01
495.32	13420.63
495.49	13448.72
495.67	13359.78
495.85	13708.52
496.02	14047.90
496.20	13820.86
496.38	13799.80
496.55	13844.27
496.73	14010.45
496.91	14277.27
497.09	13848.95
497.26	14438.76
497.44	14218.75
497.62	14120.45
497.79	14553.45
497.97	14501.96
498.14	14703.25
498.32	14918.57
498.50	14792.19
498.67	14710.27
498.85	14717.29
499.03	15138.58
499.20	14815.59
499.38	14785.16
499.56	14946.66
499.73	14967.73
499.91	15126.88
500.08	15208.80
500.26	15304.76
500.44	15524.77
500.61	15250.93
500.79	15393.70
500.97	15480.30
501.14	15777.55
501.32	15707.34
501.49	15637.12
501.67	15723.72
501.84	15803.30
502.02	15843.09
502.20	16079.48
502.37	15892.24
502.55	15857.13
502.72	16070.12
502.90	15946.07
503.07	16145.02
503.25	16201.19
503.43	16369.71
503.60	16320.56
503.78	16673.98
503.95	16498.44
504.13	16472.69
504.30	16781.64
504.48	16592.06
504.65	16737.17
504.83	16926.75
505.01	16933.78
505.18	16931.44
505.36	16826.11
505.53	16851.86
505.71	16767.60
505.88	16933.78
506.06	16903.35
506.23	17001.65
506.41	16807.39
506.58	17418.27
506.76	17378.48
506.93	17420.61
507.11	17291.88
507.28	17462.74
507.46	17628.92
507.63	17619.55
507.81	17846.58
507.98	17848.93
508.16	17790.41
508.33	17965.95
508.50	17825.52
508.68	18005.74
508.85	18181.28
509.03	18092.34
509.20	18085.32
509.38	18178.94
509.55	18579.17
509.73	18010.42
509.90	18068.94
510.08	18178.94
510.25	18345.12
510.42	18223.41
510.60	18263.20
510.77	18319.37
510.95	18328.74
511.12	18462.15
511.30	18616.62
511.47	18618.96
511.64	18656.41
511.82	18960.68
511.99	18642.37
512.17	18827.27
512.34	18988.77
512.51	18970.04
512.69	19002.81
512.86	19171.33
513.04	19407.72
513.21	19051.96
513.38	19353.89
513.56	19459.21
513.73	19271.97
513.90	19091.75
514.08	19372.61
514.25	19131.54
514.43	19372.61
514.60	19545.81
514.77	19634.75
514.95	19646.46
515.12	19421.77
515.29	19740.08
515.47	19648.80
515.64	20093.50
515.81	19990.52
515.99	20042.01
516.16	19899.23
516.33	20301.81
516.51	20259.68
516.68	20046.69
516.85	20149.67
517.03	19882.85
517.20	20376.70
517.37	20423.51
517.54	20699.70
517.72	20404.79
517.89	20184.78
518.06	20315.85
518.24	20381.38
518.41	20395.43
518.58	20311.17
518.75	20964.18
518.93	20812.04
519.10	20603.74
519.27	20528.84
519.45	20858.85
519.62	20739.49
519.79	20858.85
519.96	21212.28
520.14	21212.28
520.31	21144.40
520.48	21142.06
520.65	21149.08
520.83	21448.67
521.00	21326.96
521.17	21071.84
521.34	21305.90
521.52	21455.69
521.69	21528.25
521.86	21502.50
522.03	21626.55
522.20	21570.38
522.38	21460.37
522.55	21518.89
522.72	21736.56
522.89	21874.65
523.07	21834.86
523.24	21888.69
523.41	22279.56
523.58	21898.05
523.75	22073.59
523.92	21830.18
524.10	21825.50
524.27	22188.28
524.44	22157.85
524.61	22050.19
524.78	22246.79
524.96	22270.20
525.13	22448.08
525.30	22335.73
525.47	22345.09
525.64	22691.49
525.81	22630.64
525.98	22298.28
526.16	22773.41
526.33	22611.92
526.50	22471.48
526.67	22347.44
526.84	22588.51
527.01	22906.82
527.18	22911.50
527.36	22817.88
527.53	22724.26
527.70	22960.66
527.87	23253.22
528.04	23173.64
528.21	23119.81
528.38	23194.71
528.55	23007.47
528.72	23098.75
528.89	23388.97
529.07	23168.96
529.24	23346.84
529.41	23466.21
529.58	23365.57
529.75	23297.69
529.92	23620.69
530.09	23276.63
530.26	23335.14
530.43	23211.09
530.60	23154.92
530.77	23583.24
530.94	23309.40
531.11	23620.69
531.28	23850.06
531.46	23728.35
531.63	23576.22
531.80	23800.91
531.97	23836.02
532.14	24023.26
532.31	23758.78
532.48	24056.03
532.65	24294.76
532.82	23625.37
532.99	24034.96
533.16	23770.48
533.33	24271.36
533.50	24512.43
533.67	24231.57
533.84	24002.19
534.01	24266.67
534.18	24252.63
534.35	24346.25
534.52	24095.82
534.69	24290.08
534.86	24570.94
535.03	24627.12
535.20	24369.66
535.37	24629.46
535.54	24474.98
535.71	24751.17
535.88	24519.45
536.05	24613.07
536.22	24566.26
536.38	24788.61
536.55	24472.64
536.72	24648.18
536.89	24898.62
537.06	24875.21
537.23	24802.66
537.40	24858.83
537.57	24879.89
537.74	24992.24
537.91	25034.37
538.08	25111.61
538.25	24954.79
538.42	24947.77
538.59	24957.13
538.75	24762.87
538.92	24891.60
539.09	25666.31
539.26	24926.71
539.43	25256.72
539.60	25404.17
539.77	25214.59
539.94	25441.62
540.11	25362.04
540.28	25443.96
540.44	25500.14
540.61	25441.62
540.78	25399.49
540.95	25867.60
541.12	25645.25
541.29	25582.06
541.46	25563.33
541.62	25249.70
541.79	25652.27
541.96	25350.34
542.13	25542.27
542.30	25521.20
542.47	25553.97
542.63	26001.01
542.80	26003.35
542.97	26143.78
543.14	26347.41
543.31	26134.42
543.48	26015.05
543.64	26071.23
543.81	26560.40
543.98	26228.04
544.15	26635.30
544.32	26593.17
544.48	26651.68
544.65	25888.67
544.82	26232.72
544.99	25984.63
545.16	26120.38
545.32	26366.13
545.49	26581.46
545.66	26707.85
545.83	26801.47
546.00	26857.65
546.16	26363.79
546.33	26298.26
546.50	26230.38
546.67	26773.39
546.83	25818.45
547.00	26878.71
547.17	26466.78
547.34	26551.04
547.50	26801.47
547.67	26969.99
547.84	26773.39
548.00	26927.86
548.17	27054.25
548.34	27307.03
548.51	26789.77
548.67	27180.64
548.84	27005.10
549.01	26883.39
549.18	27171.28
549.34	26656.36
549.51	27232.13
549.68	26838.92
549.84	27421.72
550.01	27360.86
550.18	26967.65
550.34	26881.05
550.51	27295.33
550.68	27480.23
550.84	27157.24
551.01	27372.57
551.18	26888.07
551.34	27234.47
551.51	27407.67
551.68	27683.86
551.84	27328.10
552.01	27138.51
552.18	27620.66
552.34	27463.85
552.51	27576.19
552.68	27810.25
552.84	27445.12
553.01	27641.73
553.18	27524.70
553.34	27487.25
553.51	27522.36
553.67	27747.05
553.84	28257.29
554.01	27950.68
554.17	28112.17
554.34	27754.07
554.51	27990.47
554.67	28156.64
554.84	27749.39
555.00	28072.39
555.17	27899.19
555.33	28203.46
555.50	27976.42
555.67	27852.38
555.83	28149.62
556.00	27927.27
556.16	28056.00
556.33	28182.39
556.50	28238.56
556.66	28105.15
556.83	27784.50
556.99	28638.80
557.16	28706.67
557.32	28325.16
557.49	28173.03
557.65	28135.58
557.82	28112.17
557.98	28224.52
558.15	28570.92
558.32	28173.03
558.48	28418.78
558.65	28706.67
558.81	28290.06
558.98	28348.57
559.14	28364.95
559.31	28191.75
559.47	28147.28
559.64	28669.22
559.80	28687.95
559.97	28762.84
560.13	28608.37
560.30	28245.58
560.46	28912.64
560.63	28348.57
560.79	28545.17
560.96	28940.72
561.12	28390.70
561.29	28568.58
561.45	28467.94
561.61	28875.19
561.78	28683.27
561.94	28989.88
562.11	28701.99
562.27	28624.75
562.44	28739.44
562.60	28772.21
562.77	28547.51
562.93	28589.64
563.10	28664.54
563.26	28570.92
563.42	29237.97
563.59	28800.29
563.75	28669.22
563.92	28877.53
564.08	28879.87
564.24	28704.33
564.41	28872.85
564.57	28507.72
564.74	28936.04
564.90	29174.78
565.07	28814.34
565.23	28861.15
565.39	28945.41
565.56	29191.16
565.72	28830.72
565.88	28713.69
566.05	28606.03
566.21	28797.95
566.38	29041.37
566.54	29357.34
566.70	28833.06
566.87	29123.29
567.03	29174.78
567.19	29453.30
567.36	29064.77
567.52	28947.75
567.68	29273.08
567.85	29048.39
568.01	29106.90
568.17	29116.26
568.34	29333.93
568.50	29240.31
568.66	29317.55
568.83	29228.61
568.99	28943.06
569.15	28840.08
569.32	28907.96
569.48	29097.54
569.64	29249.67
569.81	29130.31
569.97	28982.85
570.13	29413.51
570.30	28999.24
570.46	29579.69
570.62	29500.11
570.78	29338.62
570.95	29050.73
571.11	29469.69
571.27	28943.06
571.43	28922.00
571.60	29125.63
571.76	28793.27
571.92	29336.27
572.09	29450.96
572.25	29385.43
572.41	29507.13
572.57	29603.10
572.74	29046.05
572.90	29216.91
573.06	29013.28
573.22	29589.05
573.38	29273.08
573.55	29340.96
573.71	29923.75
573.87	29514.16
574.03	29137.33
574.20	29383.09
574.36	28978.17
574.52	29127.97
574.68	29095.20
574.84	29186.48
575.01	29525.86
575.17	29333.93
575.33	29336.27
575.49	29345.64
575.65	29373.72
575.82	29364.36
575.98	29209.89
576.14	29614.80
576.30	29443.94
576.46	29434.58
576.62	29291.80
576.79	29418.19
576.95	29661.61
577.11	29795.02
577.27	29315.21
577.43	29560.97
577.59	29710.76
577.75	29771.61
577.92	29390.11
578.08	29345.64
578.24	29572.67
578.40	29476.71
578.56	29462.66
578.72	29495.43
578.88	29715.44
579.04	30174.19
579.21	29565.65
579.37	29848.85
579.53	29647.57
579.69	29308.19
579.85	29357.34
580.01	29556.28
580.17	29010.94
580.33	29788.00
580.49	29867.58
580.65	29488.41
580.82	29661.61
580.98	29530.54
581.14	29645.23
581.30	30008.01
581.46	29401.81
581.62	29507.13
581.78	29610.12
581.94	29500.11
582.10	29567.99
582.26	29481.39
582.42	29710.76
582.58	29729.48
582.74	29708.42
582.90	29701.40
583.06	29465.00
583.22	29905.02
583.38	29764.59
583.54	29900.34
583.70	29446.28
583.86	29752.89
584.02	29399.47
584.18	29724.80
584.34	30022.05
584.50	29610.12
584.66	29729.48
584.82	29333.93
584.98	29912.05
585.14	29607.78
585.30	29247.33
585.46	29310.53
585.62	29457.98
585.78	29619.48
585.94	29872.26
586.10	30150.78
586.26	29612.46
586.42	29984.60
586.58	29483.73
586.74	29764.59
586.90	29532.88
587.06	29516.50
587.22	29425.22
587.38	29371.38
587.54	29865.24
587.70	30368.45
587.86	29895.66
588.02	29951.84
588.18	29879.28
588.34	29788.00
588.49	30045.46
588.65	29675.65
588.81	29661.61
588.97	29970.56
589.13	29703.74
589.29	29799.70
589.45	29738.85
589.61	29853.53
589.77	30272.49
589.93	30064.18
590.08	30057.16
590.24	29820.77
590.40	29975.24
590.56	29968.22
590.72	29769.27
590.88	29668.63
591.04	29841.83
591.20	29942.47
591.35	29893.32
591.51	30511.22
591.67	30122.69
591.83	30478.46
591.99	30162.48
592.15	30022.05
592.31	30265.47
592.46	30141.42
592.62	29958.86
592.78	29736.51
592.94	29750.55
593.10	29780.98
593.26	30061.84
593.41	30008.01
593.57	30071.20
593.73	30115.67
593.89	30263.13
594.05	30235.04
594.20	30125.04
594.36	30410.58
594.52	30167.16
594.68	29986.94
594.84	29853.53
594.99	30335.68
595.15	30476.12
595.31	30286.53
595.47	30457.39
595.62	30253.76
595.78	29883.96
595.94	30005.67
596.10	30368.45
596.25	30003.33
596.41	30129.72
596.57	29970.56
596.73	30183.55
596.88	29764.59
597.04	30249.08
597.20	29923.75
597.36	30181.21
597.51	30389.52
597.67	30394.20
597.83	30274.83
597.99	30349.73
598.14	29993.97
598.30	30459.73
598.46	30354.41
598.61	30253.76
598.77	30459.73
598.93	30522.93
599.09	30478.46
599.24	30543.99
599.40	30424.62
599.56	30148.44
599.71	30668.04
599.87	30462.07
600.03	30525.27
600.18	30134.40
600.34	30059.50
600.50	30394.20
600.65	30373.13
600.81	30129.72
600.97	30323.98
601.12	30597.82
601.28	30366.11
601.44	30279.51
601.59	30459.73
601.75	30092.27
601.91	30714.85
602.06	29769.27
602.22	30209.29
602.37	30066.52
602.53	30120.35
602.69	30265.47
602.84	30286.53
603.00	30008.01
603.16	30298.23
603.31	30272.49
603.47	30438.67
603.62	30171.85
603.78	30122.69
603.94	30384.83
604.09	30242.06
604.25	30270.15
604.40	30059.50
604.56	30188.23
604.71	30642.29
604.87	30244.40
605.03	30249.08
605.18	30202.27
605.34	30284.19
605.49	30429.30
605.65	30316.96
605.80	29755.23
605.96	30471.43
606.12	29928.43
606.27	30237.38
606.43	29998.65
606.58	30338.02
606.74	30373.13
606.89	30801.45
607.05	30087.59
607.20	30073.54
607.36	30106.31
607.51	30206.95
607.67	29947.15
607.82	29954.18
607.98	30038.44
608.13	29930.77
608.29	29837.15
608.44	29834.81
608.60	29752.89
608.75	30354.41
608.91	30331.00
609.06	30125.04
609.22	30045.46
609.37	29670.97
609.53	29813.74
609.68	29869.92
609.84	30225.68
609.99	29752.89
610.15	29788.00
610.30	29961.20
610.46	29951.84
610.61	29947.15
610.76	30356.75
610.92	29898.00
611.07	29942.47
611.23	29755.23
611.38	29670.97
611.54	29773.95
611.69	29699.06
611.84	29525.86
612.00	29930.77
612.15	29710.76
612.31	29879.28
612.46	29972.90
612.62	29977.58
612.77	29921.41
612.92	30221.00
613.08	29670.97
613.23	29872.26
613.39	29654.59
613.54	29879.28
613.69	29940.13
613.85	29565.65
614.00	29958.86
614.15	29909.71
614.31	29542.24
614.46	29518.84
614.62	29607.78
614.77	29694.38
614.92	29457.98
615.08	29591.39
615.23	29713.10
615.38	29603.10
615.54	29530.54
615.69	29734.17
615.84	29799.70
616.00	29502.45
616.15	29457.98
616.30	29771.61
616.46	29579.69
616.61	29567.99
616.76	29968.22
616.92	29275.42
617.07	29483.73
617.22	29223.93
617.37	29549.26
617.53	29633.52
617.68	29387.77
617.83	29415.85
617.99	29156.05
618.14	29280.10
618.29	29390.11
618.45	29214.57
618.60	29607.78
618.75	29235.63
618.90	29558.63
619.06	29076.48
619.21	28943.06
619.36	29186.48
619.51	29076.48
619.67	28835.40
619.82	29048.39
619.97	29385.43
620.12	28819.02
620.28	28741.78
620.43	29088.18
620.58	29235.63
620.73	29153.71
620.89	29572.67
621.04	29024.98
621.19	29261.38
621.34	29003.92
621.49	28893.91
621.65	29137.33
621.80	28975.83
621.95	29242.65
622.10	28933.70
622.25	28905.62
622.41	28680.92
622.56	28617.73
622.71	29092.86
622.86	29120.95
623.01	29355.00
623.16	29170.10
623.32	28718.37
623.47	28727.74
623.62	29062.43
623.77	28678.58
623.92	28697.31
624.07	28631.77
624.23	28790.93
624.38	28718.37
624.53	28879.87
624.68	28676.24
624.83	28797.95
624.98	28966.47
625.13	28634.11
625.29	28711.35
625.44	28559.22
625.59	28381.34
625.74	28503.04
625.89	28308.78
626.04	28393.04
626.19	28521.77
626.34	28386.02
626.49	28517.09
626.65	28458.57
626.80	28526.45
626.95	28388.36
627.10	28481.98
627.25	28025.57
627.40	28484.32
627.55	28037.28
627.70	28212.82
627.85	28320.48
628.00	28311.12
628.15	28154.30
628.30	28126.22
628.45	28217.50
628.60	28430.49
628.76	28411.76
628.91	27943.66
629.06	27880.46
629.21	28018.55
629.36	28039.62
629.51	27882.80
629.66	27847.69
629.81	27716.62
629.96	27922.59
630.11	27807.90
630.26	27772.80
630.41	28156.64
630.56	27707.26
630.71	27950.68
630.86	27796.20
631.01	28425.81
631.16	27960.04
631.31	27564.49
631.46	27498.95
631.61	27690.88
631.76	27845.35
631.91	27206.39
632.06	27681.52
632.21	27761.09
632.36	27590.24
632.51	27873.44
632.66	27590.24
632.81	27550.45
632.96	27623.00
633.10	28018.55
633.25	27686.20
633.40	27943.66
633.55	27899.19
633.70	27372.57
633.85	27171.28
634.00	27384.27
634.15	27461.51
634.30	27311.71
634.45	27182.98
634.60	26955.95
634.75	27042.55
634.90	27515.34
635.05	27608.96
635.19	27615.98
635.34	27718.96
635.49	27641.73
635.64	27477.89
635.79	27154.90
635.94	27414.69
636.09	27419.38
636.24	27431.08
636.39	27379.59
636.53	27318.73
636.68	27309.37
636.83	27644.07
636.98	27538.74
637.13	27513.00
637.28	27285.97
637.43	27402.99
637.57	26958.29
637.72	27260.22
637.87	27278.94
638.02	27110.43
638.17	27082.34
638.32	26775.73
638.46	26675.09
638.61	26691.47
638.76	26668.06
638.91	26696.15
639.06	27026.17
639.20	26836.58
639.35	27042.55
639.50	26724.24
639.65	26714.87
639.80	26867.01
639.94	27061.27
640.09	26981.70
640.24	26885.73
640.39	26937.23
640.54	26555.72
640.68	26759.34
640.83	26412.95
640.98	26359.11
641.13	26441.03
641.27	26735.94
641.42	26658.70
641.57	26714.87
641.72	26745.30
641.86	26600.19
642.01	26457.42
642.16	26476.14
642.31	26518.27
642.45	26686.79
642.60	26057.18
642.75	26061.87
642.90	26295.92
643.04	26338.05
643.19	26363.79
643.34	26471.46
643.48	26647.00
643.63	26487.84
643.78	26403.58
643.93	26497.20
644.07	26923.18
644.22	26562.74
644.37	26487.84
644.51	26284.22
644.66	26527.63
644.81	26272.51
644.95	26043.14
645.10	26153.15
645.25	26260.81
645.39	26211.66
645.54	26462.10
645.69	26040.80
645.83	26375.50
645.98	26050.16
646.13	26429.33
646.27	26567.42
646.42	26008.03
646.57	26272.51
646.71	26085.27
646.86	26536.99
647.00	26312.30
647.15	26033.78
647.30	26134.42
647.44	25921.43
647.59	26272.51
647.74	25975.27
647.88	25874.62
648.03	26040.80
648.17	25891.01
648.32	25965.90
648.47	25912.07
648.61	26122.72
648.76	25947.18
648.90	26017.40
649.05	25956.54
649.20	25804.41
649.34	25935.48
649.49	25488.43
649.63	25811.43
649.78	25645.25
649.92	25722.49
650.07	25867.60
650.21	25956.54
650.36	25661.63
650.51	25458.01
650.65	25839.51
650.80	25399.49
650.94	25582.06
651.09	25392.47
651.23	25228.63
651.38	25584.40
651.52	25156.08
651.67	25778.66
651.81	25546.95
651.96	25511.84
652.10	25523.54
652.25	25532.90
652.39	25832.49
652.54	25869.94
652.68	25593.76
652.83	25830.15
652.97	25898.03
653.12	25514.18
653.26	25436.94
653.41	25521.20
653.55	25692.06
653.70	25303.53
653.84	25401.83
653.99	25127.99
654.13	25207.57
654.27	25151.40
654.42	24879.89
654.56	25163.10
654.71	25261.40
654.85	25565.67
655.00	25369.07
655.14	25207.57
655.29	25092.88
655.43	24975.86
655.57	25226.29
655.72	24980.54
655.86	25277.79
656.01	24919.68
656.15	25125.65
656.30	24891.60
656.44	25179.48
656.58	24767.55
656.73	25010.96
656.87	24907.98
657.01	24989.90
657.16	25074.16
657.30	25158.42
657.45	25233.32
657.59	25050.75
657.73	24805.00
657.88	24538.18
658.02	24669.25
658.16	24999.26
658.31	24795.64
658.45	24617.75
658.60	24912.66
658.74	24559.24
658.88	24444.56
659.03	24395.40
659.17	24863.51
659.31	24397.74
659.46	24254.97
659.60	24608.39
659.74	24622.44
659.89	24313.48
660.03	24276.04
660.17	24432.85
660.32	24388.38
660.46	24332.21
660.60	24147.31
660.74	24355.61
660.89	24168.37
661.03	23948.36
661.17	24079.43
661.32	24159.01
661.46	24119.22
661.60	24460.94
661.74	24013.90
661.89	24140.29
662.03	24063.05
662.17	24318.17
662.31	24013.90
662.46	24341.57
662.60	23864.10
662.74	23917.93
662.88	23976.45
663.03	23566.85
663.17	23695.58
663.31	23435.78
663.45	23681.54
663.60	23688.56
663.74	23765.80
663.88	23735.37
664.02	23976.45
664.17	23880.49
664.31	23702.61
664.45	23620.69
664.59	23571.54
664.73	23590.26
664.88	23068.32
665.02	23250.88
665.16	23484.94
665.30	23438.12
665.44	23388.97
665.59	22932.57
665.73	23599.62
665.87	23005.13
666.01	23381.95
666.15	23033.21
666.29	23218.11
666.44	23398.34
666.58	23051.94
666.72	22766.39
666.86	23068.32
667.00	23356.21
667.14	22850.65
667.28	22923.21
667.43	22955.97
667.57	22808.52
667.71	22951.29
667.85	22572.13
667.99	22993.42
668.13	22604.89
668.27	22600.21
668.41	22752.35
668.56	22490.21
668.70	23012.15
668.84	22558.08
668.98	22813.20
669.12	22686.81
669.26	22438.72
669.40	22604.89
669.54	22654.05
669.68	22483.19
669.82	22054.87
669.96	22190.62
670.10	22101.68
670.25	22239.77
670.39	22202.32
670.53	22155.51
670.67	22267.86
670.81	22232.75
670.95	21895.71
671.09	22178.92
671.23	22129.77
671.37	22307.65
671.51	22155.51
671.65	21989.33
671.79	21647.61
671.93	21809.11
672.07	21514.20
672.21	21757.62
672.35	21448.67
672.49	21418.24
672.63	21605.49
672.77	21280.15
672.91	21275.47
673.05	21378.45
673.19	21298.88
673.33	21315.26
673.47	21626.55
673.61	21357.39
673.75	21364.41
673.89	21273.13
674.03	21177.17
674.17	21277.81
674.31	21165.46
674.45	21109.29
674.59	20966.52
674.73	21046.10
674.87	20912.69
675.01	20938.43
675.15	20514.80
675.29	20709.06
675.43	20781.62
675.56	20306.49
675.70	20826.09
675.84	20512.46
675.98	20114.56
676.12	20657.57
676.26	20835.45
676.40	20531.18
676.54	20503.09
676.68	20205.84
676.82	20247.97
676.96	20343.94
677.10	19995.20
677.23	19878.17
677.37	20020.94
677.51	19936.68
677.65	19843.06
677.79	19646.46
677.93	19555.18
678.07	19700.29
678.21	19510.71
678.34	19564.54
678.48	19461.55
678.62	19552.84
678.76	19367.93
678.90	19454.53
679.04	19426.45
679.18	19318.78
679.31	19115.16
679.45	18916.21
679.59	19122.18
679.73	18794.50
679.87	18937.27
680.00	18836.63
680.14	19030.90
680.28	18979.40
680.42	18782.80
680.56	18967.70
680.70	18815.57
680.83	18864.72
680.97	18719.60
681.11	18658.75
681.25	18551.09
681.39	18530.02
681.52	18668.11
681.66	18380.23
681.80	18207.03
681.94	18565.13
682.07	18326.39
682.21	17965.95
682.35	17942.55
682.49	17977.65
682.62	17734.24
682.76	17745.94
682.90	17958.93
683.04	17855.95
683.17	17741.26
683.31	17832.54
683.45	17715.51
683.59	17802.11
683.72	17413.59
683.86	17727.22
684.00	17612.53
684.13	17537.63
684.27	17373.80
684.41	17102.29
684.55	16996.97
684.68	17156.13
684.82	17224.00
684.96	16924.41
685.09	17034.42
685.23	16758.24
685.37	16903.35
685.50	17184.21
685.64	16950.16
685.78	16671.64
685.91	16992.29
686.05	16662.27
686.19	16805.05
686.32	16779.30
686.46	16716.11
686.60	16409.50
686.73	16348.64
686.87	16086.50
687.01	16037.35
687.14	16390.77
687.28	16240.98
687.42	16049.05
687.55	16107.57
687.69	16116.93
687.82	16058.42
687.96	16013.95
688.10	15929.69
688.23	15913.30
688.37	15852.45
688.50	15602.01
688.64	15569.24
688.78	15658.18
688.91	15559.88
689.05	15517.75
689.18	15391.36
689.32	14993.47
689.46	15173.69
689.59	15562.22
689.73	15145.61
689.86	15309.44
690.00	15101.14
690.13	15126.88
690.27	14920.92
690.41	15037.94
690.54	14970.07
690.68	14719.63
690.81	14820.27
690.95	14916.23
691.08	14864.74
691.22	14963.04
691.35	14773.46
691.49	14572.18
691.62	14546.43
691.76	14785.16
691.89	14574.52
692.03	14244.50
692.16	14382.59
692.30	14356.85
692.43	14270.25
692.57	14071.30
692.70	14036.19
692.84	14054.92
692.97	14319.40
693.11	14181.31
693.24	13858.31
693.38	13830.23
693.51	13813.84
693.65	14045.55
693.78	13642.98
693.92	13745.97
694.05	13635.96
694.19	13408.93
694.32	13518.93
694.45	13535.32
694.59	13214.66
694.72	13158.49
694.86	13334.03
694.99	13137.43
695.13	13240.41
695.26	13043.81
695.39	13226.37
695.53	13097.64
695.66	13081.25
695.80	12872.95
695.93	12877.63
696.07	12872.95
696.20	13018.06
696.33	12645.91
696.47	12608.47
696.60	12587.40
696.73	12603.78
696.87	12992.31
697.00	12669.32
697.14	12365.05
697.27	12128.66
697.40	12156.74
697.54	12264.41
697.67	12088.87
697.80	12203.55
697.94	12032.69
698.07	11796.30
698.21	12023.33
698.34	11918.01
698.47	11899.28
698.61	11866.52
698.74	12058.44
698.87	11824.39
699.01	11871.20
699.14	11805.66
699.27	11658.21
699.40	11833.75
699.54	11606.72
699.67	11700.34
699.80	11365.64
699.94	11173.72
700.07	11360.96
700.20	11260.32
700.34	11103.50
700.47	11180.74
700.60	11115.20
700.73	11154.99
700.87	11061.37
701.00	10888.17
701.13	11145.63
701.26	11014.56
701.40	10967.75
701.53	10855.40
701.66	10864.77
701.79	10916.26
701.93	10857.75
702.06	10544.11
702.19	10548.79
702.32	10480.92
702.46	10434.11
702.59	10443.47
702.72	10333.47
702.85	10279.63
702.99	10307.72
703.12	10223.46
703.25	10359.21
703.38	10164.95
703.51	10335.81
703.65	10101.75
703.78	10080.69
703.91	10120.48
704.04	10057.28
704.17	10148.56
704.31	9963.66
704.44	9935.57
704.57	9933.23
704.70	9785.78
704.83	9572.79
704.96	9589.17
705.10	9680.46
705.23	9486.19
>>>>>End Processed Spectral Data<<<<<
