SpectraSuite Data File
++++++++++++++++++++++++++++++++++++
Date: Fri Oct 18 13:58:36 GMT-05:00 2013
User: bianchi
Dark Spectrum Present: No
Reference Spectrum Present: No
Number of Sampled Component Spectra: 1
Spectrometers: USB2+H05261
Integration Time (usec): 50000 (USB2+H05261)
Spectra Averaged: 1 (USB2+H05261)
Boxcar Smoothing: 0 (USB2+H05261)
Correct for Electrical Dark: No (USB2+H05261)
Strobe/Lamp Enabled: No (USB2+H05261)
Correct for Detector Non-linearity: No (USB2+H05261)
Correct for Stray Light: No (USB2+H05261)
Number of Pixels in Processed Spectrum: 2048
>>>>>Begin Processed Spectral Data<<<<<
365.73	0.00
365.92	0.00
366.12	0.00
366.32	0.00
366.52	0.00
366.72	0.00
366.91	0.00
367.11	0.00
367.31	0.00
367.51	0.00
367.70	0.00
367.90	0.00
368.10	0.00
368.30	0.00
368.49	0.00
368.69	0.00
368.89	0.00
369.09	0.00
369.28	0.00
369.48	0.00
369.68	0.00
369.87	0.00
370.07	0.00
370.27	0.00
370.47	0.00
370.66	65.54
370.86	140.43
371.06	86.60
371.25	173.20
371.45	154.48
371.65	168.52
371.84	135.75
372.04	152.13
372.24	159.16
372.44	100.64
372.63	184.90
372.83	241.08
373.03	159.16
373.22	208.31
373.42	152.13
373.62	161.50
373.81	294.91
374.01	222.35
374.21	177.88
374.40	201.29
374.60	208.31
374.79	201.29
374.99	283.20
375.19	318.31
375.38	198.95
375.58	180.22
375.78	351.08
375.97	234.05
376.17	222.35
376.37	271.50
376.56	318.31
376.76	250.44
376.95	231.71
377.15	285.55
377.35	362.78
377.54	205.97
377.74	264.48
377.93	278.52
378.13	259.80
378.33	252.78
378.52	210.65
378.72	182.56
378.91	320.65
379.11	304.27
379.31	315.97
379.50	250.44
379.70	367.46
379.89	273.84
380.09	252.78
380.28	266.82
380.48	365.12
380.68	348.74
380.87	325.33
381.07	348.74
381.26	301.93
381.46	388.53
381.65	341.72
381.85	250.44
382.04	243.42
382.24	322.99
382.43	360.44
382.63	215.33
382.83	360.44
383.02	330.02
383.22	442.36
383.41	386.19
383.61	337.04
383.80	475.13
384.00	372.15
384.19	409.59
384.39	397.89
384.58	351.08
384.78	346.40
384.97	440.02
385.17	355.76
385.36	461.09
385.56	294.91
385.75	367.46
385.95	362.78
386.14	421.30
386.34	341.72
386.53	461.09
386.72	393.21
386.92	383.85
387.11	458.74
387.31	524.28
387.50	421.30
387.70	470.45
387.89	360.44
388.09	395.55
388.28	402.57
388.48	381.51
388.67	414.27
388.86	496.19
389.06	491.51
389.25	447.04
389.45	433.00
389.64	493.85
389.84	416.62
390.03	454.06
390.22	461.09
390.42	489.17
390.61	433.00
390.81	456.40
391.00	463.43
391.19	374.49
391.39	404.91
391.58	468.11
391.78	521.94
391.97	524.28
392.16	470.45
392.36	528.96
392.55	486.83
392.75	533.64
392.94	524.28
393.13	526.62
393.33	531.30
393.52	568.75
393.71	540.66
393.91	629.60
394.10	573.43
394.29	493.85
394.49	594.50
394.68	603.86
394.88	615.56
395.07	557.05
395.26	503.22
395.46	629.60
395.65	596.84
395.84	697.48
396.04	683.44
396.23	613.22
396.42	620.24
396.62	662.37
396.81	622.58
397.00	657.69
397.19	610.88
397.39	650.67
397.58	695.14
397.77	624.92
397.97	730.25
398.16	676.41
398.35	772.38
398.55	667.05
398.74	627.26
398.93	784.08
399.12	702.16
399.32	645.99
399.51	629.60
399.70	739.61
399.90	727.91
400.09	727.91
400.28	802.80
400.47	812.17
400.67	830.89
400.86	809.83
401.05	758.33
401.24	891.74
401.44	800.46
401.63	779.40
401.82	795.78
402.01	861.32
402.21	835.57
402.40	777.06
402.59	784.08
402.78	882.38
402.97	844.93
403.17	823.87
403.36	961.96
403.55	765.36
403.74	917.49
403.93	915.15
404.13	922.17
404.32	873.02
404.51	861.32
404.70	851.96
404.89	842.59
405.09	976.00
405.28	924.51
405.47	912.81
405.66	983.02
405.85	1018.13
406.05	985.37
406.24	1081.33
406.43	990.05
406.62	964.30
406.81	945.58
407.00	1083.67
407.20	1020.47
407.39	964.30
407.58	1053.24
407.77	994.73
407.96	1060.26
408.15	1090.69
408.34	990.05
408.54	1125.80
408.73	1100.05
408.92	1130.48
409.11	1114.10
409.30	1123.46
409.49	1139.84
409.68	1097.71
409.87	1067.28
410.07	1200.69
410.26	1247.51
410.45	1240.48
410.64	1242.82
410.83	1266.23
411.02	1254.53
411.21	1331.76
411.40	1210.06
411.59	1128.14
411.78	1212.40
411.98	1254.53
412.17	1294.32
412.36	1200.69
412.55	1401.98
412.74	1331.76
412.93	1240.48
413.12	1343.47
413.31	1301.34
413.50	1430.07
413.69	1446.45
413.88	1462.83
414.07	1453.47
414.26	1516.67
414.45	1401.98
414.64	1409.00
414.83	1493.26
415.02	1439.43
415.22	1549.43
415.41	1612.63
415.60	1572.84
415.79	1631.35
415.98	1614.97
416.17	1619.65
416.36	1591.56
416.55	1657.10
416.74	1685.19
416.93	1624.33
417.12	1661.78
417.31	1600.93
417.50	1626.67
417.69	1827.96
417.88	1685.19
418.07	1771.79
418.26	1781.15
418.45	1837.32
418.64	1809.23
418.83	1746.04
419.02	1818.60
419.21	1811.57
419.39	1795.19
419.58	1832.64
419.77	1825.62
419.96	1732.00
420.15	1834.98
420.34	1806.89
420.53	1921.58
420.72	1921.58
420.91	1856.04
421.10	1832.64
421.29	1940.30
421.48	1842.00
421.67	2008.18
421.86	1942.64
422.05	1994.14
422.24	1909.88
422.43	1982.43
422.61	1977.75
422.80	1977.75
422.99	2083.08
423.18	1947.33
423.37	1947.33
423.56	1982.43
423.75	1968.39
423.94	1994.14
424.13	1980.09
424.32	1867.75
424.50	2064.35
424.69	2066.69
424.88	2047.97
425.07	1949.67
425.26	1952.01
425.45	2031.58
425.64	1973.07
425.83	1952.01
426.01	2057.33
426.20	2005.84
426.39	1998.82
426.58	2113.50
426.77	2155.63
426.96	2087.76
427.15	2083.08
427.33	2160.31
427.52	2036.27
427.71	2122.87
427.90	2071.37
428.09	2101.80
428.28	2111.16
428.46	2069.03
428.65	2195.42
428.84	2272.66
429.03	2209.47
429.22	2115.84
429.40	2190.74
429.59	2260.96
429.78	2139.25
429.97	2197.76
430.16	2188.40
430.34	2258.62
430.53	2380.32
430.72	2272.66
430.91	2314.79
431.10	2246.91
431.28	2260.96
431.47	2359.26
431.66	2380.32
431.85	2310.11
432.03	2422.45
432.22	2347.56
432.41	2403.73
432.60	2572.25
432.79	2422.45
432.97	2445.86
433.16	2506.71
433.35	2476.29
433.54	2483.31
433.72	2452.88
433.91	2516.08
434.10	2530.12
434.28	2476.29
434.47	2569.91
434.66	2555.86
434.85	2555.86
435.03	2588.63
435.22	2600.34
435.41	2621.40
435.59	2616.72
435.78	2621.40
435.97	2586.29
436.16	2607.36
436.34	2726.72
436.53	2675.23
436.72	2722.04
436.90	2644.81
437.09	2750.13
437.28	2569.91
437.46	2672.89
437.65	2799.28
437.84	2782.90
438.02	2761.83
438.21	2876.52
438.40	2637.78
438.58	2860.13
438.77	2902.26
438.96	2815.66
439.14	2839.07
439.33	2839.07
439.52	2920.99
439.70	2998.23
439.89	2995.89
440.08	3028.65
440.26	3026.31
440.45	3082.49
440.63	3080.14
440.82	3056.74
441.01	3023.97
441.19	3091.85
441.38	3281.43
441.57	3166.74
441.75	3349.31
441.94	3307.18
442.12	3241.64
442.31	3300.16
442.50	3272.07
442.68	3297.81
442.87	3239.30
443.05	3222.92
443.24	3428.88
443.43	3307.18
443.61	3442.93
443.80	3527.19
443.98	3403.14
444.17	3232.28
444.35	3428.88
444.54	3435.91
444.73	3344.63
444.91	3389.10
445.10	3330.58
445.28	3375.05
445.47	3454.63
445.65	3353.99
445.84	3461.65
446.02	3569.32
446.21	3421.86
446.39	3356.33
446.58	3529.53
446.77	3463.99
446.95	3431.23
447.14	3485.06
447.32	3632.51
447.51	3433.57
447.69	3478.04
447.88	3506.12
448.06	3613.79
448.25	3433.57
448.43	3527.19
448.62	3454.63
448.80	3588.04
448.99	3524.85
449.17	3545.91
449.36	3569.32
449.54	3684.00
449.73	3583.36
449.91	3801.03
450.10	3756.56
450.28	3803.37
450.46	3763.58
450.65	3712.09
450.83	3648.90
451.02	3686.34
451.20	3712.09
451.39	3625.49
451.57	3784.65
451.76	3705.07
451.94	3751.88
452.13	3918.06
452.31	3840.82
452.49	3822.09
452.68	3885.29
452.86	3908.69
453.05	3859.54
453.23	3964.87
453.42	3810.39
453.60	3784.65
453.78	3784.65
453.97	3887.63
454.15	3894.65
454.34	3782.31
454.52	3981.25
454.70	4098.28
454.89	3953.16
455.07	4081.89
455.26	3990.61
455.44	4215.30
455.62	4070.19
455.81	4053.81
455.99	4021.04
456.17	4105.30
456.36	4147.43
456.54	4119.34
456.73	4201.26
456.91	4147.43
457.09	4198.92
457.28	4257.43
457.46	4095.94
457.64	4346.37
457.83	4360.42
458.01	4236.37
458.19	4315.95
458.38	4283.18
458.56	4290.20
458.74	4409.57
458.93	4402.55
459.11	4346.37
459.29	4435.32
459.48	4358.08
459.66	4505.53
459.84	4484.47
460.03	4491.49
460.21	4500.85
460.39	4505.53
460.57	4657.67
460.76	4512.55
460.94	4655.33
461.12	4662.35
461.31	4699.80
461.49	4596.81
461.67	4505.53
461.85	4706.82
462.04	4716.18
462.22	4798.10
462.40	4821.50
462.59	4772.35
462.77	4758.31
462.95	4807.46
463.13	4781.71
463.32	4660.01
463.50	4812.14
463.68	4856.61
463.86	4809.80
464.05	4868.31
464.23	4781.71
464.41	4905.76
464.59	4851.93
464.78	5020.45
464.96	4819.16
465.14	4973.64
465.32	4884.70
465.50	4847.25
465.69	4873.00
465.87	4819.16
466.05	4999.38
466.23	4994.70
466.41	4915.12
466.60	5217.05
466.78	4882.36
466.96	5039.17
467.14	4774.69
467.32	5020.45
467.51	5228.76
467.69	4943.21
467.87	5146.84
468.05	5081.30
468.23	5081.30
468.41	5074.28
468.60	5203.01
468.78	5270.89
468.96	5205.35
469.14	5298.97
469.32	5359.83
469.50	5331.74
469.69	5397.28
469.87	5413.66
470.05	5511.96
470.23	5460.47
470.41	5373.87
470.59	5383.23
470.77	5371.53
470.95	5359.83
471.14	5514.30
471.32	5497.92
471.50	5650.05
471.68	5509.62
471.86	5743.67
472.04	5621.97
472.22	5841.98
472.40	5621.97
472.58	5781.12
472.77	5605.58
472.95	5762.40
473.13	5888.79
473.31	5738.99
473.49	5797.51
473.67	5783.46
473.85	5853.68
474.03	6108.80
474.21	5886.45
474.39	5912.19
474.57	6076.03
474.75	6162.63
474.93	6005.81
475.12	6108.80
475.30	6225.82
475.48	6244.55
475.66	5987.09
475.84	6239.87
476.02	6394.34
476.20	6300.72
476.38	6487.96
476.56	6497.33
476.74	6441.15
476.92	6480.94
477.10	6520.73
477.28	6693.93
477.46	6682.23
477.64	6729.04
477.82	6729.04
478.00	7054.37
478.18	6911.60
478.36	6927.99
478.54	6881.18
478.72	7166.72
478.90	7164.38
479.08	7047.35
479.26	7272.04
479.44	7253.32
479.62	7281.41
479.80	7365.67
479.98	7260.34
480.16	7398.43
480.34	7454.61
480.52	7620.78
480.70	7646.53
480.88	7616.10
481.06	7733.13
481.24	7421.84
481.41	7861.86
481.59	7969.52
481.77	8037.40
481.95	8154.43
482.13	8056.12
482.31	8191.88
482.49	7997.61
482.67	8030.38
482.85	8311.24
483.03	8528.91
483.21	8486.78
483.39	8542.96
483.57	8411.89
483.74	8669.34
483.92	8524.23
484.10	8725.52
484.28	8879.99
484.46	9221.71
484.64	8994.68
484.82	8990.00
485.00	9022.77
485.18	9308.31
485.35	9507.26
485.53	9495.55
485.71	9308.31
485.89	9465.13
486.07	9483.85
486.25	9540.02
486.43	9671.09
486.61	9511.94
486.78	9853.66
486.96	10188.35
487.14	10085.37
487.32	10003.45
487.50	10010.47
487.68	10363.89
487.85	10436.45
488.03	10459.85
488.21	10469.22
488.39	10630.71
488.57	10675.18
488.75	10523.05
488.92	10731.36
489.10	10827.32
489.28	11077.76
489.46	11145.63
489.64	10913.92
489.81	11056.69
489.99	11232.23
490.17	11414.79
490.35	11379.68
490.53	11424.15
490.70	11595.01
490.88	11463.94
491.06	11396.07
491.24	11735.45
491.41	11735.45
491.59	11899.28
491.77	11660.55
491.95	11978.86
492.13	12053.76
492.30	12142.70
492.48	12217.60
492.66	12058.44
492.84	12423.56
493.01	12388.46
493.19	12542.93
493.37	12650.60
493.54	12528.89
493.72	12688.04
493.90	12613.15
494.08	13125.72
494.25	13151.47
494.43	13118.70
494.61	13359.78
494.79	13151.47
494.96	13327.01
495.14	13462.76
495.32	13476.80
495.49	13528.30
495.67	13631.28
495.85	13858.31
496.02	13762.35
496.20	13940.23
496.38	13858.31
496.55	14015.13
496.73	14132.15
496.91	14146.20
497.09	14377.91
497.26	14415.36
497.44	14328.76
497.62	14251.52
497.79	14546.43
497.97	14483.24
498.14	14703.25
498.32	14740.69
498.50	14731.33
498.67	15044.96
498.85	14850.70
499.03	15061.35
499.20	15147.95
499.38	14759.42
499.56	14960.70
499.73	15206.46
499.91	15428.81
500.08	15302.42
500.26	15260.29
500.44	15353.91
500.61	15180.71
500.79	15484.98
500.97	15587.97
501.14	15920.32
501.32	15990.54
501.49	15775.21
501.67	15658.18
501.84	15800.96
502.02	15679.25
502.20	15967.13
502.37	16051.39
502.55	15976.50
502.72	16147.36
502.90	15969.48
503.07	16173.10
503.25	16180.12
503.43	16093.52
503.60	16545.25
503.78	16304.17
503.95	16395.45
504.13	16472.69
504.30	16730.15
504.48	16734.83
504.65	16449.28
504.83	16622.48
505.01	16929.09
505.18	16711.42
505.36	16903.35
505.53	16821.43
505.71	17174.85
505.88	17104.64
506.06	16968.88
506.23	17224.00
506.41	17151.45
506.58	17233.36
506.76	17315.28
506.93	17273.15
507.11	17071.87
507.28	17432.31
507.46	17383.16
507.63	17397.20
507.81	17638.28
507.98	17610.19
508.16	17296.56
508.33	17439.33
508.50	17584.44
508.68	18167.24
508.85	18071.28
509.03	18040.85
509.20	17961.27
509.38	18368.52
509.55	18459.81
509.73	18085.32
509.90	18228.09
510.08	18045.53
510.25	18420.02
510.42	18298.31
510.60	18403.63
510.77	18686.84
510.95	18588.53
511.12	18366.18
511.30	18483.21
511.47	18693.86
511.64	18843.65
511.82	18801.52
511.99	18590.88
512.17	19122.18
512.34	18986.43
512.51	18984.09
512.69	19190.05
512.86	19026.21
513.04	19489.64
513.21	19255.59
513.38	19510.71
513.56	19197.07
513.73	19152.60
513.90	19290.70
514.08	19456.87
514.25	19501.34
514.43	19466.24
514.60	20020.94
514.77	19693.27
514.95	19714.33
515.12	19616.03
515.29	19836.04
515.47	20077.12
515.64	19908.60
515.81	19817.32
515.99	20210.53
516.16	20229.25
516.33	20226.91
516.51	20329.89
516.68	20196.48
516.85	20060.73
517.03	20297.13
517.20	20587.35
517.37	20517.14
517.54	20407.13
517.72	20519.48
517.89	20243.29
518.06	20402.45
518.24	20287.76
518.41	20463.30
518.58	20601.40
518.75	20685.65
518.93	20802.68
519.10	20692.68
519.27	20910.35
519.45	20826.09
519.62	21069.50
519.79	20828.43
519.96	20844.81
520.14	20966.52
520.31	20753.53
520.48	20870.56
520.65	21064.82
520.83	21198.23
521.00	21352.71
521.17	21043.76
521.34	21331.64
521.52	21207.59
521.69	21453.35
521.86	21600.80
522.03	21898.05
522.20	21769.32
522.38	21731.87
522.55	21741.24
522.72	21881.67
522.89	21872.31
523.07	22094.66
523.24	21703.79
523.41	22068.91
523.58	21972.95
523.75	22347.44
523.92	22061.89
524.10	21940.18
524.27	21947.20
524.44	22230.41
524.61	22401.27
524.78	22305.31
524.96	22326.37
525.13	22455.10
525.30	22614.26
525.47	22455.10
525.64	22347.44
525.81	22492.55
525.98	22518.29
526.16	22661.07
526.33	22775.75
526.50	22710.22
526.67	22574.47
526.84	22389.56
527.01	22724.26
527.18	22675.11
527.36	23014.49
527.53	23061.30
527.70	23173.64
527.87	23379.61
528.04	23007.47
528.21	22937.25
528.38	23026.19
528.55	23126.83
528.72	23346.84
528.89	23337.48
529.07	23091.73
529.24	23585.58
529.41	23014.49
529.58	23489.62
529.75	23260.24
529.92	23559.83
530.09	23257.90
530.26	23566.85
530.43	23367.91
530.60	23363.23
530.77	23632.39
530.94	23606.64
531.11	23716.65
531.28	23590.26
531.46	23899.21
531.63	23875.80
531.80	24044.32
531.97	24114.54
532.14	24074.75
532.31	23831.33
532.48	24208.16
532.65	24393.06
532.82	23592.60
532.99	23749.42
533.16	24177.73
533.33	24189.44
533.50	24608.39
533.67	24311.14
533.84	24278.38
534.01	24175.39
534.18	23981.13
534.35	24472.64
534.52	24437.53
534.69	24463.28
534.86	24372.00
535.03	24514.77
535.20	24720.74
535.37	24753.51
535.54	24678.61
535.71	24512.43
535.88	24744.14
536.05	24617.75
536.22	25036.71
536.38	25170.12
536.55	24727.76
536.72	24975.86
536.89	25149.06
537.06	25209.91
537.23	25090.54
537.40	24943.09
537.57	24615.41
537.74	25055.43
537.91	25170.12
538.08	25406.52
538.25	25109.27
538.42	25720.15
538.59	24907.98
538.75	24627.12
538.92	25053.09
539.09	25205.23
539.26	25340.98
539.43	25483.75
539.60	25685.04
539.77	25263.74
539.94	25553.97
540.11	25563.33
540.28	25481.41
540.44	25450.99
540.61	25366.73
540.78	25467.37
540.95	25502.48
541.12	25916.75
541.29	25663.97
541.46	25413.54
541.62	25626.53
541.79	25727.17
541.96	25371.41
542.13	25872.28
542.30	25926.11
542.47	25916.75
542.63	26036.12
542.80	25996.33
542.97	26087.61
543.14	26352.09
543.31	26331.03
543.48	26022.08
543.64	26174.21
543.81	26511.25
543.98	26506.57
544.15	26281.88
544.32	26305.28
544.48	26375.50
544.65	26143.78
544.82	26342.73
544.99	26377.84
545.16	26630.62
545.32	26405.92
545.49	26586.15
545.66	26714.87
545.83	26984.04
546.00	26457.42
546.16	26494.86
546.33	26380.18
546.50	26396.56
546.67	26740.62
546.83	26089.95
547.00	27030.85
547.17	26801.47
547.34	26813.18
547.50	27239.15
547.67	27178.30
547.84	26768.71
548.00	27012.12
548.17	26778.07
548.34	26677.43
548.51	27054.25
548.67	27213.41
548.84	27274.26
549.01	27110.43
549.18	26881.05
549.34	27206.39
549.51	27098.72
549.68	27054.25
549.84	26838.92
550.01	27255.54
550.18	27058.93
550.34	27412.35
550.51	27562.15
550.68	27367.88
550.84	27070.64
551.01	27534.06
551.18	27363.20
551.34	26852.97
551.51	27150.21
551.68	27608.96
551.84	27494.27
552.01	27428.74
552.18	27761.09
552.34	27618.32
552.51	27770.46
552.68	27859.40
552.84	27351.50
553.01	27388.95
553.18	27702.58
553.34	27889.82
553.51	27402.99
553.67	27718.96
553.84	27847.69
554.01	27779.82
554.17	28123.88
554.34	28121.54
554.51	27871.10
554.67	27604.28
554.84	27962.38
555.00	27733.01
555.17	27772.80
555.33	27777.48
555.50	27857.06
555.67	27758.75
555.83	27646.41
556.00	28002.17
556.16	28559.22
556.33	28058.34
556.50	28177.71
556.66	28041.96
556.83	28208.14
556.99	28652.84
557.16	28503.04
557.32	28292.40
557.49	28252.61
557.65	27955.36
557.82	28128.56
557.98	28290.06
558.15	28456.23
558.32	28261.97
558.48	28212.82
558.65	28493.68
558.81	28624.75
558.98	28397.72
559.14	28624.75
559.31	27948.34
559.47	28587.30
559.64	28360.27
559.80	28622.41
559.97	28678.58
560.13	28449.21
560.30	28474.96
560.46	28463.25
560.63	28496.02
560.79	28781.57
560.96	28524.11
561.12	28587.30
561.29	28723.05
561.45	28678.58
561.61	28673.90
561.78	28842.42
561.94	28966.47
562.11	28489.00
562.27	28369.63
562.44	28959.45
562.60	28526.45
562.77	28584.96
562.93	28521.77
563.10	28505.38
563.26	28673.90
563.42	29064.77
563.59	29118.60
563.75	28828.38
563.92	29235.63
564.08	28802.63
564.24	28657.52
564.41	28622.41
564.57	28517.09
564.74	29043.71
564.90	28996.90
565.07	28861.15
565.23	29212.23
565.39	29158.39
565.56	29158.39
565.72	28893.91
565.88	28826.04
566.05	28936.04
566.21	28968.81
566.38	29064.77
566.54	29184.14
566.70	29242.65
566.87	29111.58
567.03	29041.37
567.19	29710.76
567.36	29333.93
567.52	29355.00
567.68	29385.43
567.85	28961.79
568.01	29249.67
568.17	29280.10
568.34	29113.92
568.50	29315.21
568.66	29163.08
568.83	29378.40
568.99	29186.48
569.15	29277.76
569.32	29329.25
569.48	28879.87
569.64	29579.69
569.81	28842.42
569.97	29268.40
570.13	29149.03
570.30	29095.20
570.46	29453.30
570.62	29408.83
570.78	29425.22
570.95	29287.12
571.11	29359.68
571.27	28966.47
571.43	28994.56
571.60	28931.36
571.76	29291.80
571.92	29605.44
572.09	29539.90
572.25	29638.20
572.41	29111.58
572.57	29289.46
572.74	29729.48
572.90	29530.54
573.06	29212.23
573.22	29195.84
573.38	29741.19
573.55	29146.69
573.71	29603.10
573.87	29586.71
574.03	29521.18
574.20	29965.88
574.36	29457.98
574.52	29469.69
574.68	29406.49
574.84	29280.10
575.01	29659.27
575.17	29490.75
575.33	29469.69
575.49	29429.90
575.65	29516.50
575.82	29434.58
575.98	29502.45
576.14	29333.93
576.30	29462.66
576.46	29607.78
576.62	29809.06
576.79	29544.58
576.95	29118.60
577.11	29635.86
577.27	29640.54
577.43	29612.46
577.59	29633.52
577.75	29516.50
577.92	29294.14
578.08	29090.52
578.24	29376.06
578.40	29717.78
578.56	29371.38
578.72	29209.89
578.88	29940.13
579.04	29862.90
579.21	29764.59
579.37	29659.27
579.53	29834.81
579.69	29350.32
579.85	29319.89
580.01	29542.24
580.17	29413.51
580.33	29429.90
580.49	29467.34
580.65	29879.28
580.82	29244.99
580.98	29771.61
581.14	29680.33
581.30	30089.93
581.46	30043.12
581.62	29886.30
581.78	29549.26
581.94	29635.86
582.10	29195.84
582.26	29479.05
582.42	29804.38
582.58	30024.39
582.74	29942.47
582.90	30080.56
583.06	29869.92
583.22	29600.76
583.38	29621.82
583.54	30008.01
583.70	29696.72
583.86	29551.60
584.02	29577.35
584.18	30162.48
584.34	29905.02
584.50	29816.08
584.66	29862.90
584.82	29308.19
584.98	30017.37
585.14	29518.84
585.30	29668.63
585.46	29837.15
585.62	29488.41
585.78	30066.52
585.94	29748.21
586.10	29790.34
586.26	29593.73
586.42	29923.75
586.58	29675.65
586.74	29663.95
586.90	29579.69
587.06	29624.16
587.22	29572.67
587.38	29736.51
587.54	29991.62
587.70	29741.19
587.86	29961.20
588.02	29862.90
588.18	30125.04
588.34	30148.44
588.49	30225.68
588.65	29509.47
588.81	30026.73
588.97	29837.15
589.13	29647.57
589.29	29806.72
589.45	30038.44
589.61	30085.25
589.77	30038.44
589.93	30045.46
590.08	30258.45
590.24	30113.33
590.40	30043.12
590.56	30108.65
590.72	29944.81
590.88	29727.14
591.04	30089.93
591.20	30604.84
591.35	30199.93
591.51	30316.96
591.67	30775.70
591.83	30305.26
591.99	30258.45
592.15	30085.25
592.31	29942.47
592.46	29958.86
592.62	30075.88
592.78	30096.95
592.94	29825.45
593.10	30153.12
593.26	30333.34
593.41	30281.85
593.57	30387.18
593.73	30113.33
593.89	30328.66
594.05	30508.88
594.20	30316.96
594.36	29804.38
594.52	30000.99
594.68	30525.27
594.84	29942.47
594.99	30466.75
595.15	29996.31
595.31	30260.79
595.47	30064.18
595.62	30586.12
595.78	29956.52
595.94	30190.57
596.10	30558.03
596.25	29996.31
596.41	30115.67
596.57	29874.60
596.73	30277.17
596.88	30256.11
597.04	30494.84
597.20	30426.96
597.36	30457.39
597.51	30408.24
597.67	30525.27
597.83	30265.47
597.99	30312.28
598.14	30314.62
598.30	30340.36
598.46	30178.87
598.61	30394.20
598.77	30391.86
598.93	30328.66
599.09	30569.74
599.24	30441.01
599.40	30684.42
599.56	30466.75
599.71	30848.26
599.87	30443.35
600.03	29933.11
600.18	30040.78
600.34	30274.83
600.50	30455.05
600.65	30590.80
600.81	30277.17
600.97	30045.46
601.12	30464.41
601.28	30457.39
601.44	30391.86
601.59	30958.27
601.75	30417.60
601.91	30272.49
602.06	30555.69
602.22	30520.59
602.37	30469.09
602.53	30426.96
602.69	30780.39
602.84	30522.93
603.00	30511.22
603.16	30258.45
603.31	30192.91
603.47	30089.93
603.62	30162.48
603.78	30682.08
603.94	30382.49
604.09	30221.00
604.25	29834.81
604.40	30085.25
604.56	30312.28
604.71	30370.79
604.87	30246.74
605.03	30438.67
605.18	30197.59
605.34	30256.11
605.49	30338.02
605.65	29825.45
605.80	30068.86
605.96	30260.79
606.12	30059.50
606.27	30478.46
606.43	30230.36
606.58	30293.55
606.74	30092.27
606.89	30221.00
607.05	30256.11
607.20	30038.44
607.36	30115.67
607.51	30029.07
607.67	29837.15
607.82	29930.77
607.98	29956.52
608.13	30267.81
608.29	30237.38
608.44	30621.23
608.60	30321.64
608.75	30291.21
608.91	30295.89
609.06	30024.39
609.22	30176.53
609.37	29790.34
609.53	30211.64
609.68	30251.42
609.84	29783.32
609.99	30176.53
610.15	30047.80
610.30	30272.49
610.46	29736.51
610.61	29951.84
610.76	29914.39
610.92	30204.61
611.07	30265.47
611.23	29935.45
611.38	29766.93
611.54	29881.62
611.69	29670.97
611.84	29682.67
612.00	29848.85
612.15	29886.30
612.31	30057.16
612.46	29998.65
612.62	30000.99
612.77	29635.86
612.92	29853.53
613.08	30232.70
613.23	30047.80
613.39	29436.92
613.54	29905.02
613.69	30108.65
613.85	29696.72
614.00	29776.30
614.15	30169.51
614.31	29942.47
614.46	29972.90
614.62	29605.44
614.77	29874.60
614.92	29692.04
615.08	29654.59
615.23	29518.84
615.38	29804.38
615.54	29390.11
615.69	29556.28
615.84	29635.86
616.00	29699.06
616.15	29778.64
616.30	29701.40
616.46	29544.58
616.61	29380.74
616.76	29661.61
616.92	29280.10
617.07	29818.42
617.22	29846.51
617.37	29572.67
617.53	29727.14
617.68	29518.84
617.83	29284.78
617.99	29469.69
618.14	29223.93
618.29	29507.13
618.45	29123.29
618.60	29392.45
618.75	29247.33
618.90	29516.50
619.06	29528.20
619.21	29394.79
619.36	29366.70
619.51	29177.12
619.67	28835.40
619.82	28900.94
619.97	29518.84
620.12	29359.68
620.28	29010.94
620.43	29111.58
620.58	29095.20
620.73	29291.80
620.89	29589.05
621.04	29450.96
621.19	29282.44
621.34	29425.22
621.49	29046.05
621.65	29085.84
621.80	29223.93
621.95	28706.67
622.10	28797.95
622.25	28594.32
622.41	29029.66
622.56	28830.72
622.71	29081.16
622.86	28772.21
623.01	28362.61
623.16	29116.26
623.32	29074.13
623.47	28847.10
623.62	28833.06
623.77	28807.31
623.92	28629.43
624.07	28872.85
624.23	28833.06
624.38	28620.07
624.53	28875.19
624.68	29046.05
624.83	29205.20
624.98	29055.41
625.13	28732.42
625.29	28987.53
625.44	28617.73
625.59	28212.82
625.74	28795.61
625.89	28858.81
626.04	28250.27
626.19	28594.32
626.34	28496.02
626.49	28226.86
626.65	28439.85
626.80	28692.63
626.95	28264.31
627.10	28638.80
627.25	28758.16
627.40	28168.35
627.55	28308.78
627.70	28407.08
627.85	28273.67
628.00	28137.92
628.15	28393.04
628.30	28011.53
628.45	28456.23
628.60	28182.39
628.76	28283.03
628.91	27943.66
629.06	28020.89
629.21	28219.84
629.36	28575.60
629.51	28032.60
629.66	27990.47
629.81	27931.95
629.96	28074.73
630.11	28074.73
630.26	27887.48
630.41	27910.89
630.56	28095.79
630.71	28126.22
630.86	27775.14
631.01	27974.08
631.16	28173.03
631.31	27957.70
631.46	27665.13
631.61	28009.19
631.76	28215.16
631.91	27688.54
632.06	27641.73
632.21	27611.30
632.36	27756.41
632.51	27417.04
632.66	28030.26
632.81	27665.13
632.96	28065.36
633.10	27653.43
633.25	27749.39
633.40	27601.94
633.55	27960.04
633.70	27255.54
633.85	27180.64
634.00	27873.44
634.15	27765.78
634.30	27646.41
634.45	27562.15
634.60	27728.33
634.75	27166.60
634.90	27531.72
635.05	27714.28
635.19	27700.24
635.34	27789.18
635.49	27744.71
635.64	27505.98
635.79	27431.08
635.94	27395.97
636.09	27314.05
636.24	27353.84
636.39	26757.00
636.53	27405.33
636.68	27194.68
636.83	27391.29
636.98	27070.64
637.13	27285.97
637.28	27410.01
637.43	27854.72
637.57	27323.41
637.72	27559.81
637.87	26855.31
638.02	27047.23
638.17	27133.83
638.32	26787.43
638.46	27197.02
638.61	27105.74
638.76	27101.06
638.91	26920.84
639.06	27089.36
639.20	27070.64
639.35	27096.38
639.50	27061.27
639.65	27180.64
639.80	27101.06
639.94	26962.97
640.09	27101.06
640.24	26806.16
640.39	26654.02
640.54	26778.07
640.68	26768.71
640.83	26960.63
640.98	26841.26
641.13	26373.16
641.27	27063.61
641.42	26785.09
641.57	26799.13
641.72	26719.56
641.86	26527.63
642.01	26382.52
642.16	26803.82
642.31	26820.20
642.45	26707.85
642.60	26567.42
642.75	26478.48
642.90	26565.08
643.04	26686.79
643.19	26560.40
643.34	26417.63
643.48	26728.92
643.63	26752.32
643.78	26930.20
643.93	26684.45
644.07	26630.62
644.22	26239.75
644.37	26307.62
644.51	26555.72
644.66	26246.77
644.81	26546.36
644.95	26389.54
645.10	26342.73
645.25	26246.77
645.39	26202.30
645.54	26237.41
645.69	26094.63
645.83	26419.97
645.98	26319.32
646.13	26405.92
646.27	26075.91
646.42	26527.63
646.57	26471.46
646.71	26181.23
646.86	26375.50
647.00	26235.06
647.15	26068.89
647.30	26256.13
647.44	25928.45
647.59	25839.51
647.74	26106.34
647.88	26228.04
648.03	26111.02
648.17	26054.84
648.32	26338.05
648.47	26253.79
648.61	25928.45
648.76	26003.35
648.90	26017.40
649.05	26010.37
649.20	26015.05
649.34	25940.16
649.49	25469.71
649.63	25635.89
649.78	25839.51
649.92	25982.29
650.07	25645.25
650.21	25689.72
650.36	25825.47
650.51	25832.49
650.65	25701.42
650.80	26216.34
650.94	25462.69
651.09	25851.22
651.23	25638.23
651.38	25287.15
651.52	25631.21
651.67	25731.85
651.81	25338.64
651.96	25729.51
652.10	25553.97
652.25	25799.73
652.39	25820.79
652.54	26204.64
652.68	25553.97
652.83	25352.68
652.97	25647.59
653.12	25495.46
653.26	25090.54
653.41	25722.49
653.55	25008.62
653.70	25174.80
653.84	25682.70
653.99	24975.86
654.13	25476.73
654.27	25020.33
654.42	25474.39
654.56	25226.29
654.71	25516.52
654.85	25479.07
655.00	25263.74
655.14	25446.30
655.29	25245.02
655.43	25462.69
655.57	25029.69
655.72	25081.18
655.86	25032.03
656.01	25256.72
656.15	25062.46
656.30	25137.35
656.44	25158.42
656.58	24812.02
656.73	24933.73
656.87	24926.71
657.01	25034.37
657.16	25319.92
657.30	25319.92
657.45	24978.20
657.59	25123.31
657.73	25083.52
657.88	24968.84
658.02	24931.39
658.16	24584.99
658.31	24528.81
658.45	24790.95
658.60	24907.98
658.74	24753.51
658.88	24865.85
659.03	24821.38
659.17	24582.65
659.31	24561.58
659.46	24865.85
659.60	24823.72
659.74	24823.72
659.89	24283.06
660.03	24318.17
660.17	24346.25
660.32	24526.47
660.46	24060.71
660.60	24386.04
660.74	24219.86
660.89	24147.31
661.03	23906.23
661.17	24030.28
661.32	24109.86
661.46	24498.39
661.60	24219.86
661.74	24472.64
661.89	24367.32
662.03	24388.38
662.17	24442.21
662.31	23974.11
662.46	24053.69
662.60	23857.08
662.74	23681.54
662.88	24093.47
663.03	24037.30
663.17	23761.12
663.31	23702.61
663.45	24070.07
663.60	23410.04
663.74	23707.29
663.88	23817.29
664.02	23866.44
664.17	23831.33
664.31	23611.32
664.45	23667.50
664.59	23590.26
664.73	23641.75
664.88	23288.33
665.02	23496.64
665.16	23166.62
665.30	23393.65
665.44	23194.71
665.59	22815.54
665.73	23536.43
665.87	22869.37
666.01	23278.97
666.15	22984.06
666.29	23115.13
666.44	23126.83
666.58	22899.80
666.72	23098.75
666.86	22644.68
667.00	23159.60
667.14	22822.56
667.28	22965.34
667.43	23105.77
667.57	22637.66
667.71	22630.64
667.85	22602.55
667.99	22923.21
668.13	22906.82
668.27	22705.54
668.41	22834.27
668.56	22780.43
668.70	22700.86
668.84	22712.56
668.98	22874.06
669.12	22649.36
669.26	22647.02
669.40	22719.58
669.54	22616.60
669.68	22696.17
669.82	22356.80
669.96	22415.31
670.10	22129.77
670.25	22099.34
670.39	22279.56
670.53	22141.47
670.67	22078.27
670.81	21876.99
670.95	22214.02
671.09	22157.85
671.23	22176.58
671.37	21963.59
671.51	21958.91
671.65	21982.31
671.79	21884.01
671.93	21640.59
672.07	21741.24
672.21	21757.62
672.35	21467.39
672.49	21769.32
672.63	21813.79
672.77	21427.60
672.91	21736.56
673.05	21420.58
673.19	21617.19
673.33	21469.73
673.47	21427.60
673.61	21446.33
673.75	21252.06
673.89	21188.87
674.03	21376.11
674.17	21319.94
674.31	21249.72
674.45	21291.85
674.59	21099.93
674.73	21369.09
674.87	20910.35
675.01	20744.17
675.15	20652.89
675.29	20954.82
675.43	20938.43
675.56	20786.30
675.70	21015.67
675.84	20821.41
675.98	20484.37
676.12	20624.80
676.26	21057.80
676.40	20547.56
676.54	20360.32
676.68	20435.22
676.82	20163.72
676.96	20215.21
677.10	20159.03
677.23	19957.75
677.37	20130.95
677.51	19910.94
677.65	20144.99
677.79	19779.87
677.93	19688.59
678.07	19906.26
678.21	19861.79
678.34	19531.77
678.48	19632.41
678.62	19522.41
678.76	19438.15
678.90	19405.38
679.04	19702.63
679.18	19414.74
679.31	19316.44
679.45	19112.81
679.59	19154.94
679.73	18815.57
679.87	18869.40
680.00	19176.01
680.14	19030.90
680.28	18829.61
680.42	18890.46
680.56	19012.17
680.70	18827.27
680.83	18948.98
680.97	18710.24
681.11	18803.86
681.25	18373.21
681.39	18398.95
681.52	18494.91
681.66	18298.31
681.80	18382.57
681.94	18200.01
682.07	18368.52
682.21	17900.42
682.35	18001.06
682.49	18008.08
682.62	18277.24
682.76	17610.19
682.90	17926.16
683.04	17907.44
683.17	18064.25
683.31	17937.87
683.45	17998.72
683.59	17743.60
683.72	17909.78
683.86	17823.18
684.00	17518.91
684.13	17605.51
684.27	17439.33
684.41	17448.69
684.55	17432.31
684.68	17224.00
684.82	17097.61
684.96	16847.18
685.09	16989.95
685.23	16950.16
685.37	16985.27
685.50	16940.80
685.64	16877.60
685.78	16877.60
685.91	16681.00
686.05	16606.10
686.19	16872.92
686.32	16828.45
686.46	16601.42
686.60	16320.56
686.73	16322.90
686.87	16386.09
687.01	16248.00
687.14	16231.62
687.28	16217.57
687.42	16063.10
687.55	16037.35
687.69	15936.71
687.82	16093.52
687.96	15978.84
688.10	16098.20
688.23	15805.64
688.37	15915.64
688.50	15880.53
688.64	15967.13
688.78	15786.91
688.91	15590.31
689.05	15559.88
689.18	15627.76
689.32	15122.20
689.46	15506.05
689.59	15274.34
689.73	15346.89
689.86	14988.79
690.00	14953.68
690.13	15229.87
690.27	14932.62
690.41	14881.13
690.54	14860.06
690.68	14869.42
690.81	14841.34
690.95	14946.66
691.08	14916.23
691.22	14918.57
691.35	14827.29
691.49	14757.08
691.62	14773.46
691.76	14160.24
691.89	14424.72
692.03	14293.65
692.16	14286.63
692.30	14244.50
692.43	14389.61
692.57	14054.92
692.70	13825.54
692.84	14005.77
692.97	13991.72
693.11	14286.63
693.24	14033.85
693.38	13823.20
693.51	14036.19
693.65	13867.67
693.78	13825.54
693.92	13832.57
694.05	13736.60
694.19	13504.89
694.32	13413.61
694.45	13654.69
694.59	12945.50
694.72	13181.90
694.86	13207.64
694.99	13151.47
695.13	13200.62
695.26	13193.60
695.39	13088.28
695.53	12994.65
695.66	13483.83
695.80	13071.89
695.93	13235.73
696.07	12882.31
696.20	12882.31
696.33	12954.87
696.47	12889.33
696.60	12549.95
696.73	12807.41
696.87	12540.59
697.00	12418.88
697.14	12376.75
697.27	12299.52
697.40	12423.56
697.54	12332.28
697.67	12189.51
697.80	11988.22
697.94	12009.29
698.07	12252.70
698.21	11899.28
698.34	11960.14
698.47	12100.57
698.61	11929.71
698.74	11960.14
698.87	11950.78
699.01	11789.28
699.14	11606.72
699.27	11690.98
699.40	11707.36
699.54	11496.71
699.67	11461.60
699.80	11426.50
699.94	11232.23
700.07	11587.99
700.20	11197.12
700.34	10883.49
700.47	11342.24
700.60	11379.68
700.73	11260.32
700.87	11192.44
701.00	10977.11
701.13	11012.22
701.26	11133.93
701.40	10972.43
701.53	11026.26
701.66	10803.91
701.79	10644.76
701.93	10829.66
702.06	10740.72
702.19	10651.78
702.32	10607.31
702.46	10410.70
702.59	10298.36
702.72	10253.89
702.85	10368.57
702.99	10186.01
703.12	10340.49
703.25	10078.35
703.38	10279.63
703.51	10127.50
703.65	10249.21
703.78	10204.74
703.91	9937.91
704.04	10078.35
704.17	10160.27
704.31	10066.64
704.44	9844.29
704.57	9809.19
704.70	9975.36
704.83	9645.35
704.96	9605.56
705.10	9530.66
705.23	9635.99
>>>>>End Processed Spectral Data<<<<<
