SpectraSuite Data File
++++++++++++++++++++++++++++++++++++
Date: Fri Oct 18 13:58:30 GMT-05:00 2013
User: bianchi
Dark Spectrum Present: No
Reference Spectrum Present: No
Number of Sampled Component Spectra: 1
Spectrometers: USB2+H05261
Integration Time (usec): 50000 (USB2+H05261)
Spectra Averaged: 1 (USB2+H05261)
Boxcar Smoothing: 0 (USB2+H05261)
Correct for Electrical Dark: No (USB2+H05261)
Strobe/Lamp Enabled: No (USB2+H05261)
Correct for Detector Non-linearity: No (USB2+H05261)
Correct for Stray Light: No (USB2+H05261)
Number of Pixels in Processed Spectrum: 2048
>>>>>Begin Processed Spectral Data<<<<<
365.73	0.00
365.92	0.00
366.12	0.00
366.32	0.00
366.52	0.00
366.72	0.00
366.91	0.00
367.11	0.00
367.31	0.00
367.51	0.00
367.70	0.00
367.90	0.00
368.10	0.00
368.30	0.00
368.49	0.00
368.69	0.00
368.89	0.00
369.09	0.00
369.28	0.00
369.48	0.00
369.68	0.00
369.87	0.00
370.07	0.00
370.27	0.00
370.47	0.00
370.66	25.75
370.86	95.96
371.06	117.03
371.25	119.37
371.45	131.07
371.65	119.37
371.84	86.60
372.04	145.11
372.24	131.07
372.44	102.98
372.63	227.03
372.83	262.14
373.03	142.77
373.22	208.31
373.42	241.08
373.62	311.29
373.81	203.63
374.01	243.42
374.21	236.39
374.40	210.65
374.60	250.44
374.79	236.39
374.99	236.39
375.19	255.12
375.38	257.46
375.58	290.23
375.78	318.31
375.97	245.76
376.17	257.46
376.37	287.89
376.56	306.61
376.76	278.52
376.95	180.22
377.15	245.76
377.35	212.99
377.54	229.37
377.74	271.50
377.93	191.92
378.13	301.93
378.33	297.25
378.52	334.70
378.72	351.08
378.91	252.78
379.11	255.12
379.31	217.67
379.50	332.36
379.70	320.65
379.89	297.25
380.09	264.48
380.28	285.55
380.48	266.82
380.68	325.33
380.87	294.91
381.07	290.23
381.26	353.42
381.46	294.91
381.65	320.65
381.85	337.04
382.04	276.18
382.24	362.78
382.43	388.53
382.63	327.68
382.83	308.95
383.02	425.98
383.22	367.46
383.41	332.36
383.61	395.55
383.80	266.82
384.00	397.89
384.19	311.29
384.39	360.44
384.58	325.33
384.78	348.74
384.97	421.30
385.17	327.68
385.36	369.80
385.56	311.29
385.75	374.49
385.95	407.25
386.14	381.51
386.34	423.64
386.53	437.68
386.72	383.85
386.92	435.34
387.11	454.06
387.31	379.17
387.50	351.08
387.70	393.21
387.89	463.43
388.09	456.40
388.28	454.06
388.48	449.38
388.67	409.59
388.86	400.23
389.06	477.47
389.25	428.32
389.45	484.49
389.64	374.49
389.84	491.51
390.03	535.98
390.22	486.83
390.42	456.40
390.61	468.11
390.81	496.19
391.00	531.30
391.19	517.26
391.39	486.83
391.58	603.86
391.78	519.60
391.97	587.47
392.16	493.85
392.36	503.22
392.55	510.24
392.75	519.60
392.94	540.66
393.13	526.62
393.33	505.56
393.52	500.87
393.71	519.60
393.91	547.69
394.10	538.32
394.29	608.54
394.49	519.60
394.68	559.39
394.88	606.20
395.07	512.58
395.26	587.47
395.46	564.07
395.65	578.11
395.84	648.33
396.04	578.11
396.23	697.48
396.42	564.07
396.62	678.76
396.81	669.39
397.00	662.37
397.19	681.10
397.39	631.94
397.58	671.73
397.77	608.54
397.97	683.44
398.16	636.63
398.35	620.24
398.55	641.31
398.74	681.10
398.93	713.86
399.12	781.74
399.32	720.88
399.51	737.27
399.70	688.12
399.90	713.86
400.09	770.04
400.28	786.42
400.47	688.12
400.67	767.70
400.86	788.76
401.05	741.95
401.24	676.41
401.44	802.80
401.63	805.14
401.82	720.88
402.01	758.33
402.21	732.59
402.40	781.74
402.59	786.42
402.78	697.48
402.97	826.21
403.17	856.64
403.36	889.40
403.55	746.63
403.74	856.64
403.93	887.06
404.13	821.53
404.32	851.96
404.51	844.93
404.70	973.66
404.89	971.32
405.09	945.58
405.28	1036.86
405.47	1004.09
405.66	945.58
405.85	978.34
406.05	929.19
406.24	840.25
406.43	945.58
406.62	1001.75
406.81	1008.77
407.00	891.74
407.20	964.30
407.39	966.64
407.58	1020.47
407.77	1020.47
407.96	1041.54
408.15	1018.13
408.34	961.96
408.54	1078.99
408.73	1008.77
408.92	1090.69
409.11	1114.10
409.30	1132.82
409.49	1128.14
409.68	1196.01
409.87	1018.13
410.07	1093.03
410.26	1088.35
410.45	1191.33
410.64	1181.97
410.83	1114.10
411.02	1263.89
411.21	1184.31
411.40	1128.14
411.59	1217.08
411.78	1188.99
411.98	1296.66
412.17	1303.68
412.36	1341.13
412.55	1345.81
412.74	1327.08
412.93	1303.68
413.12	1205.38
413.31	1467.52
413.50	1320.06
413.69	1322.40
413.88	1376.24
414.07	1387.94
414.26	1507.30
414.45	1425.39
414.64	1474.54
414.83	1441.77
415.02	1441.77
415.22	1465.18
415.41	1495.60
415.60	1565.82
415.79	1563.48
415.98	1554.12
416.17	1612.63
416.36	1425.39
416.55	1579.86
416.74	1563.48
416.93	1603.27
417.12	1603.27
417.31	1682.85
417.50	1717.95
417.69	1708.59
417.88	1654.76
418.07	1610.29
418.26	1762.42
418.45	1724.97
418.64	1729.66
418.83	1795.19
419.02	1750.72
419.21	1881.79
419.39	1797.53
419.58	1792.85
419.77	1783.49
419.96	1811.57
420.15	1769.44
420.34	1853.70
420.53	1837.32
420.72	1851.36
420.91	1898.17
421.10	1816.26
421.29	1975.41
421.48	1792.85
421.67	1813.92
421.86	1863.07
422.05	1898.17
422.24	1980.09
422.43	1921.58
422.61	1989.46
422.80	1987.11
422.99	2017.54
423.18	2008.18
423.37	1928.60
423.56	1998.82
423.75	1895.83
423.94	1949.67
424.13	1851.36
424.32	1902.86
424.50	1970.73
424.69	2045.63
424.88	2026.90
425.07	1909.88
425.26	2017.54
425.45	1968.39
425.64	1935.62
425.83	1886.47
426.01	2071.37
426.20	2031.58
426.39	1987.11
426.58	2076.06
426.77	2132.23
426.96	1996.48
427.15	2113.50
427.33	2160.31
427.52	2038.61
427.71	2094.78
427.90	2108.82
428.09	2057.33
428.28	2209.47
428.46	2010.52
428.65	2204.78
428.84	2097.12
429.03	2186.06
429.22	2099.46
429.40	2228.19
429.59	2172.02
429.78	2136.91
429.97	2038.61
430.16	2176.70
430.34	2385.01
430.53	2256.28
430.72	2263.30
430.91	2260.96
431.10	2246.91
431.28	2275.00
431.47	2251.60
431.66	2260.96
431.85	2363.94
432.03	2380.32
432.22	2495.01
432.41	2314.79
432.60	2476.29
432.79	2387.35
432.97	2413.09
433.16	2312.45
433.35	2427.14
433.54	2406.07
433.72	2445.86
433.91	2417.77
434.10	2445.86
434.28	2377.98
434.47	2534.80
434.66	2389.69
434.85	2546.50
435.03	2541.82
435.22	2420.11
435.41	2609.70
435.59	2654.17
435.78	2527.78
435.97	2553.52
436.16	2651.83
436.34	2686.94
436.53	2619.06
436.72	2726.72
436.90	2551.18
437.09	2689.28
437.28	2633.10
437.46	2715.02
437.65	2684.59
437.84	2782.90
438.02	2705.66
438.21	2691.62
438.40	2654.17
438.58	2782.90
438.77	2841.41
438.96	2780.56
439.14	2775.88
439.33	2862.48
439.52	2827.37
439.70	2923.33
439.89	2998.23
440.08	2942.05
440.26	2979.50
440.45	2949.08
440.63	3091.85
440.82	3080.14
441.01	3136.32
441.19	3063.76
441.38	3138.66
441.57	3220.58
441.75	3206.53
441.94	3180.79
442.12	3141.00
442.31	3267.39
442.50	3206.53
442.68	3283.77
442.87	3222.92
443.05	3133.98
443.24	3272.07
443.43	3227.60
443.61	3307.18
443.80	3356.33
443.98	3173.77
444.17	3141.00
444.35	3468.67
444.54	3391.44
444.73	3375.05
444.91	3227.60
445.10	3368.03
445.28	3332.92
445.47	3328.24
445.65	3215.90
445.84	3363.35
446.02	3389.10
446.21	3449.95
446.39	3403.14
446.58	3536.55
446.77	3454.63
446.95	3353.99
447.14	3398.46
447.32	3314.20
447.51	3517.83
447.69	3396.12
447.88	3616.13
448.06	3414.84
448.25	3508.46
448.43	3581.02
448.62	3440.59
448.80	3426.54
448.99	3536.55
449.17	3433.57
449.36	3508.46
449.54	3585.70
449.73	3548.25
449.91	3765.92
450.10	3639.53
450.28	3604.42
450.46	3571.66
450.65	3620.81
450.83	3665.28
451.02	3702.73
451.20	3747.20
451.39	3676.98
451.57	3721.45
451.76	3684.00
451.94	3723.79
452.13	3775.28
452.31	3686.34
452.49	3712.09
452.68	3728.47
452.86	3770.60
453.05	3873.59
453.23	3878.27
453.42	3875.93
453.60	3880.61
453.78	3882.95
453.97	3838.48
454.15	3992.95
454.34	3878.27
454.52	3911.04
454.70	3950.82
454.89	3929.76
455.07	3941.46
455.26	3904.01
455.44	3887.63
455.62	4021.04
455.81	4049.13
455.99	3950.82
456.17	4044.45
456.36	4109.98
456.54	4177.86
456.73	4117.00
456.91	4292.54
457.09	4208.28
457.28	4227.01
457.46	4119.34
457.64	4196.58
457.83	4227.01
458.01	4163.81
458.19	4362.76
458.38	4318.29
458.56	4449.36
458.74	4339.35
458.93	4245.73
459.11	4304.25
459.29	4191.90
459.48	4280.84
459.66	4484.47
459.84	4372.12
460.03	4444.68
460.21	4418.93
460.39	4325.31
460.57	4489.15
460.76	4491.49
460.94	4568.73
461.12	4500.85
461.31	4493.83
461.49	4594.47
461.67	4582.77
461.85	4711.50
462.04	4599.15
462.22	4748.95
462.40	4601.49
462.59	4519.57
462.77	4732.56
462.95	4622.56
463.13	4784.06
463.32	4828.53
463.50	4772.35
463.68	4732.56
463.86	4887.04
464.05	4702.14
464.23	4657.67
464.41	4739.58
464.59	4706.82
464.78	4877.68
464.96	4823.84
465.14	4751.29
465.32	5029.81
465.50	4788.74
465.69	4933.85
465.87	4924.49
466.05	4833.21
466.23	4849.59
466.41	4931.51
466.60	5097.69
466.78	4901.08
466.96	4985.34
467.14	4983.00
467.32	5055.56
467.51	5020.45
467.69	4903.42
467.87	5057.90
468.05	5102.37
468.23	5001.72
468.41	5029.81
468.60	4999.38
468.78	5114.07
468.96	5160.88
469.14	5310.68
469.32	5195.99
469.50	5078.96
469.69	5071.94
469.87	5186.63
470.05	5488.56
470.23	5357.49
470.41	5226.42
470.59	5383.23
470.77	5198.33
470.95	5371.53
471.14	5418.34
471.32	5324.72
471.50	5362.17
471.68	5401.96
471.86	5341.10
472.04	5638.35
472.22	5650.05
472.40	5430.04
472.58	5526.00
472.77	5511.96
472.95	5511.96
473.13	5813.89
473.31	5685.16
473.49	5624.31
473.67	5736.65
473.85	5832.62
474.03	5874.74
474.21	5809.21
474.39	6066.67
474.57	5844.32
474.75	5987.09
474.93	6164.97
475.12	6076.03
475.30	6118.16
475.48	6150.93
475.66	6113.48
475.84	6277.32
476.02	6038.58
476.20	5944.96
476.38	6162.63
476.56	6597.97
476.74	6352.21
476.92	6258.59
477.10	6312.42
477.28	6516.05
477.46	6647.12
477.64	6331.15
477.82	6642.44
478.00	6820.32
478.18	6583.93
478.36	6792.23
478.54	6977.14
478.72	7105.87
478.90	6958.41
479.08	7047.35
479.26	7140.97
479.44	7089.48
479.62	7297.79
479.80	7063.74
479.98	7157.36
480.16	7290.77
480.34	7269.70
480.52	7454.61
480.70	7569.29
480.88	7272.04
481.06	7602.06
481.24	7513.12
481.41	7527.16
481.59	7777.60
481.77	7873.56
481.95	7768.24
482.13	7868.88
482.31	7838.45
482.49	8004.63
482.67	8070.17
482.85	8163.79
483.03	8229.32
483.21	8393.16
483.39	8276.13
483.57	8472.74
483.74	8175.49
483.92	8620.19
484.10	8568.70
484.28	8652.96
484.46	8828.50
484.64	8819.14
484.82	8697.43
485.00	8959.57
485.18	8943.19
485.35	9198.31
485.53	9027.45
485.71	9200.65
485.89	9525.98
486.07	9186.60
486.25	9441.72
486.43	9282.56
486.61	9448.74
486.78	9788.12
486.96	9664.07
487.14	9851.31
487.32	9788.12
487.50	9947.28
487.68	9710.88
487.85	9933.23
488.03	10150.90
488.21	10228.14
488.39	10237.50
488.57	10195.37
488.75	10483.26
488.92	10588.58
489.10	10665.82
489.28	10656.46
489.46	10841.36
489.64	10848.38
489.81	11082.44
489.99	10925.62
490.17	10988.82
490.35	11272.02
490.53	11407.77
490.70	11218.19
490.88	11463.94
491.06	11328.19
491.24	11396.07
491.41	11400.75
491.59	11683.95
491.77	11552.88
491.95	11829.07
492.13	11751.83
492.30	12065.46
492.48	11899.28
492.66	12266.75
492.84	12030.35
493.01	12175.47
493.19	12189.51
493.37	12203.55
493.54	12383.77
493.72	12645.91
493.90	12608.47
494.08	12552.29
494.25	12725.49
494.43	12746.56
494.61	12865.92
494.79	13111.68
494.96	12912.74
495.14	13074.23
495.32	13415.95
495.49	13462.76
495.67	13224.03
495.85	13350.42
496.02	13521.27
496.20	13628.94
496.38	13373.82
496.55	13642.98
496.73	13858.31
496.91	13778.73
497.09	14040.87
497.26	14075.98
497.44	14038.53
497.62	13729.58
497.79	14207.05
497.97	13980.02
498.14	14288.97
498.32	14249.18
498.50	14394.29
498.67	14588.56
498.85	14513.66
499.03	14661.12
499.20	14539.41
499.38	14600.26
499.56	14932.62
499.73	14927.94
499.91	14850.70
500.08	15042.62
500.26	15080.07
500.44	15115.18
500.61	15119.86
500.79	15068.37
500.97	15356.25
501.14	15566.90
501.32	15323.49
501.49	15316.47
501.67	15475.62
501.84	15690.95
502.02	15637.12
502.20	15782.23
502.37	15658.18
502.55	15770.53
502.72	15728.40
502.90	15803.30
503.07	15859.47
503.25	15896.92
503.43	15962.45
503.60	16135.65
503.78	16152.04
503.95	16329.92
504.13	16315.87
504.30	16236.30
504.48	16208.21
504.65	16482.05
504.83	16231.62
505.01	16673.98
505.18	16418.86
505.36	16791.00
505.53	16512.48
505.71	16582.70
505.88	16606.10
506.06	16648.23
506.23	16950.16
506.41	16868.24
506.58	16844.84
506.76	16905.69
506.93	16830.79
507.11	17200.60
507.28	17142.08
507.46	16952.50
507.63	17319.96
507.81	17425.29
507.98	16996.97
508.16	17366.78
508.33	17228.68
508.50	17558.70
508.68	17518.91
508.85	17809.14
509.03	17778.71
509.20	17853.61
509.38	17797.43
509.55	18001.06
509.73	17893.40
509.90	18019.78
510.08	17963.61
510.25	18125.11
510.42	18054.89
510.60	18129.79
510.77	18366.18
510.95	18473.85
511.12	18153.20
511.30	18317.03
511.47	18181.28
511.64	18452.78
511.82	18633.00
511.99	18705.56
512.17	18738.33
512.34	18401.29
512.51	18984.09
512.69	18913.87
512.86	18520.66
513.04	18927.91
513.21	18953.66
513.38	19187.71
513.56	19098.77
513.73	18750.03
513.90	19084.73
514.08	18719.60
514.25	19243.88
514.43	19499.00
514.60	19314.10
514.77	19386.66
514.95	19730.72
515.12	19007.49
515.29	19241.54
515.47	19309.42
515.64	19730.72
515.81	19566.88
515.99	19508.37
516.16	19971.79
516.33	19445.17
516.51	19796.25
516.68	19683.91
516.85	19637.09
517.03	20123.93
517.20	20020.94
517.37	19868.81
517.54	20037.33
517.72	20002.22
517.89	20262.02
518.06	20137.97
518.24	20240.95
518.41	19894.55
518.58	20226.91
518.75	20121.59
518.93	20514.80
519.10	20655.23
519.27	20414.15
519.45	20381.38
519.62	20496.07
519.79	20404.79
519.96	20498.41
520.14	20798.00
520.31	20685.65
520.48	20802.68
520.65	21163.12
520.83	20971.20
521.00	20655.23
521.17	21090.57
521.34	20929.07
521.52	21116.31
521.69	21055.46
521.86	21172.49
522.03	21216.96
522.20	21296.53
522.38	21371.43
522.55	21165.46
522.72	21301.22
522.89	21743.58
523.07	21455.69
523.24	21586.76
523.41	21722.51
523.58	21249.72
523.75	21713.15
523.92	21158.44
524.10	21664.00
524.27	22066.57
524.44	21841.88
524.61	21968.27
524.78	21713.15
524.96	22045.51
525.13	21888.69
525.30	21944.86
525.47	22148.49
525.64	21986.99
525.81	21972.95
525.98	22113.38
526.16	21991.67
526.33	22359.14
526.50	22427.01
526.67	22085.30
526.84	22230.41
527.01	21891.03
527.18	22286.58
527.36	22628.30
527.53	22588.51
527.70	22766.39
527.87	22658.73
528.04	22665.75
528.21	22780.43
528.38	22398.93
528.55	22831.93
528.72	22642.34
528.89	23140.88
529.07	22647.02
529.24	22672.77
529.41	22689.15
529.58	22504.25
529.75	22782.77
529.92	22848.31
530.09	22869.37
530.26	22963.00
530.43	23250.88
530.60	23005.13
530.77	23103.43
530.94	23192.37
531.11	23073.00
531.28	23143.22
531.46	23133.86
531.63	23166.62
531.80	23578.56
531.97	23676.86
532.14	23208.75
532.31	23578.56
532.48	23571.54
532.65	23534.09
532.82	23592.60
532.99	23744.73
533.16	23351.52
533.33	24011.56
533.50	23913.25
533.67	23878.15
533.84	23604.30
534.01	23702.61
534.18	23679.20
534.35	23679.20
534.52	23789.20
534.69	23733.03
534.86	24119.22
535.03	24016.24
535.20	23903.89
535.37	23852.40
535.54	24435.19
535.71	24067.73
535.88	24081.77
536.05	24364.98
536.22	24503.07
536.38	24566.26
536.55	24304.12
536.72	24334.55
536.89	24250.29
537.06	24269.01
537.23	24435.19
537.40	24269.01
537.57	24177.73
537.74	24357.96
537.91	24847.13
538.08	24276.04
538.25	24835.42
538.42	24903.30
538.59	24535.84
538.75	24589.67
538.92	24809.68
539.09	24641.16
539.26	25046.07
539.43	24629.46
539.60	24861.17
539.77	24734.78
539.94	24847.13
540.11	24875.21
540.28	24669.25
540.44	24910.32
540.61	24865.85
540.78	24978.20
540.95	24819.04
541.12	25135.01
541.29	24912.66
541.46	24865.85
541.62	24812.02
541.79	25383.11
541.96	24730.10
542.13	25160.76
542.30	25446.30
542.47	25570.35
542.63	25294.17
542.80	25764.62
542.97	25680.36
543.14	25827.81
543.31	25568.01
543.48	25703.76
543.64	25825.47
543.81	26054.84
543.98	25776.32
544.15	25748.23
544.32	26089.95
544.48	25930.80
544.65	25715.47
544.82	25806.75
544.99	26171.87
545.16	25919.09
545.32	25731.85
545.49	26061.87
545.66	26190.59
545.83	26277.19
546.00	26050.16
546.16	26218.68
546.33	26188.25
546.50	25617.16
546.67	26228.04
546.83	25532.90
547.00	26071.23
547.17	26478.48
547.34	26405.92
547.50	26281.88
547.67	26532.31
547.84	26026.76
548.00	26576.78
548.17	26572.10
548.34	26611.89
548.51	26520.61
548.67	26639.98
548.84	26719.56
549.01	26450.39
549.18	26382.52
549.34	26443.37
549.51	26813.18
549.68	26529.97
549.84	26628.27
550.01	26391.88
550.18	26595.51
550.34	26808.50
550.51	26862.33
550.68	27075.32
550.84	26462.10
551.01	26986.38
551.18	26684.45
551.34	26930.20
551.51	26478.48
551.68	26862.33
551.84	26764.03
552.01	26822.54
552.18	27365.54
552.34	26951.27
552.51	26813.18
552.68	26810.84
552.84	27063.61
553.01	26972.33
553.18	26906.80
553.34	27496.61
553.51	27101.06
553.67	27220.43
553.84	27393.63
554.01	27204.05
554.17	27454.48
554.34	27065.96
554.51	27363.20
554.67	27515.34
554.84	27166.60
555.00	27377.25
555.17	26925.52
555.33	27552.79
555.50	27285.97
555.67	27335.12
555.83	27627.68
556.00	27452.14
556.16	27697.90
556.33	27475.55
556.50	27548.11
556.66	27922.59
556.83	27611.30
556.99	27852.38
557.16	27704.92
557.32	27700.24
557.49	28002.17
557.65	27520.02
557.82	27356.18
557.98	27412.35
558.15	27885.14
558.32	27770.46
558.48	27608.96
558.65	28039.62
558.81	27489.59
558.98	27850.03
559.14	28222.18
559.31	27725.99
559.47	27931.95
559.64	27711.94
559.80	27817.27
559.97	28009.19
560.13	27648.75
560.30	27718.96
560.46	27873.44
560.63	28030.26
560.79	28175.37
560.96	28130.90
561.12	28030.26
561.29	28072.39
561.45	27864.08
561.61	28107.49
561.78	28311.12
561.94	28142.60
562.11	28198.77
562.27	28224.52
562.44	28493.68
562.60	27826.63
562.77	27873.44
562.93	28147.28
563.10	28079.41
563.26	28048.98
563.42	28290.06
563.59	28526.45
563.75	28435.17
563.92	28379.00
564.08	28025.57
564.24	28336.87
564.41	28091.11
564.57	28318.14
564.74	28261.97
564.90	28711.35
565.07	28236.22
565.23	28381.34
565.39	28212.82
565.56	28650.50
565.72	28477.30
565.88	28400.06
566.05	27850.03
566.21	28573.26
566.38	28383.68
566.54	28456.23
566.70	28554.54
566.87	28584.96
567.03	28608.37
567.19	29134.99
567.36	28608.37
567.52	28620.07
567.68	28308.78
567.85	28575.60
568.01	28734.76
568.17	28687.95
568.34	28694.97
568.50	28439.85
568.66	28638.80
568.83	28500.70
568.99	28505.38
569.15	28538.15
569.32	28350.91
569.48	28503.04
569.64	28442.19
569.81	28774.55
569.97	28816.68
570.13	28687.95
570.30	29017.96
570.46	28797.95
570.62	28683.27
570.78	28371.97
570.95	28364.95
571.11	28781.57
571.27	28514.75
571.43	28329.84
571.60	28985.19
571.76	28776.89
571.92	28879.87
572.09	29001.58
572.25	28823.70
572.41	29020.30
572.57	28645.82
572.74	28631.77
572.90	28826.04
573.06	28620.07
573.22	28610.71
573.38	28732.42
573.55	28811.99
573.71	29043.71
573.87	28730.08
574.03	28795.61
574.20	28521.77
574.36	28603.69
574.52	28856.46
574.68	28884.55
574.84	28917.32
575.01	28706.67
575.17	28978.17
575.33	28917.32
575.49	29081.16
575.65	29146.69
575.82	28954.77
575.98	28596.67
576.14	28828.38
576.30	29095.20
576.46	28470.28
576.62	28620.07
576.79	28865.83
576.95	28629.43
577.11	28776.89
577.27	29235.63
577.43	29149.03
577.59	28886.89
577.75	29008.60
577.92	28498.36
578.08	28734.76
578.24	28418.78
578.40	28617.73
578.56	29024.98
578.72	29064.77
578.88	29020.30
579.04	28947.75
579.21	29193.50
579.37	29142.01
579.53	28994.56
579.69	28936.04
579.85	28945.41
580.01	28545.17
580.17	28549.85
580.33	28985.19
580.49	29123.29
580.65	29270.74
580.82	29097.54
580.98	28992.22
581.14	29263.72
581.30	29069.45
581.46	28971.15
581.62	28828.38
581.78	28945.41
581.94	29186.48
582.10	28804.97
582.26	28783.91
582.42	29357.34
582.58	29294.14
582.74	29001.58
582.90	29125.63
583.06	29034.35
583.22	28959.45
583.38	28865.83
583.54	29156.05
583.70	29003.92
583.86	28919.66
584.02	28786.25
584.18	29216.91
584.34	29172.44
584.50	29130.31
584.66	29214.57
584.82	29144.35
584.98	29221.59
585.14	29479.05
585.30	28718.37
585.46	28996.90
585.62	28886.89
585.78	29055.41
585.94	29195.84
586.10	28973.49
586.26	29097.54
586.42	29017.96
586.58	28760.50
586.74	29170.10
586.90	28835.40
587.06	29081.16
587.22	28788.59
587.38	28940.72
587.54	29048.39
587.70	29319.89
587.86	29280.10
588.02	28989.88
588.18	29287.12
588.34	29088.18
588.49	29378.40
588.65	29142.01
588.81	29048.39
588.97	29406.49
589.13	29284.78
589.29	29081.16
589.45	29057.75
589.61	29544.58
589.77	29532.88
589.93	29287.12
590.08	29200.52
590.24	29228.61
590.40	29511.81
590.56	29333.93
590.72	29593.73
590.88	29062.43
591.04	28971.15
591.20	29017.96
591.35	29813.74
591.51	29757.57
591.67	29230.95
591.83	29446.28
591.99	29366.70
592.15	29647.57
592.31	28809.65
592.46	29259.04
592.62	29116.26
592.78	28755.82
592.94	29256.70
593.10	29333.93
593.26	29453.30
593.41	29490.75
593.57	29748.21
593.73	29699.06
593.89	29699.06
594.05	29301.17
594.20	29455.64
594.36	29411.17
594.52	29294.14
594.68	29226.27
594.84	29067.11
594.99	29869.92
595.15	29237.97
595.31	29755.23
595.47	29493.09
595.62	29750.55
595.78	29427.56
595.94	29383.09
596.10	29511.81
596.25	29549.26
596.41	29214.57
596.57	29221.59
596.73	29699.06
596.88	29432.24
597.04	29661.61
597.20	29743.53
597.36	29551.60
597.51	29743.53
597.67	29893.32
597.83	29605.44
597.99	29614.80
598.14	29708.42
598.30	29582.03
598.46	29544.58
598.61	29565.65
598.77	29626.50
598.93	29717.78
599.09	29778.64
599.24	30169.51
599.40	29411.17
599.56	29481.39
599.71	29984.60
599.87	29717.78
600.03	29689.70
600.18	29565.65
600.34	29661.61
600.50	29598.41
600.65	29607.78
600.81	29724.80
600.97	29666.29
601.12	29572.67
601.28	29773.95
601.44	29467.34
601.59	29783.32
601.75	29149.03
601.91	29172.44
602.06	29308.19
602.22	29694.38
602.37	29525.86
602.53	29680.33
602.69	30024.39
602.84	29649.91
603.00	29734.17
603.16	29780.98
603.31	29820.77
603.47	29923.75
603.62	29722.46
603.78	29200.52
603.94	29699.06
604.09	29345.64
604.25	29502.45
604.40	29142.01
604.56	29724.80
604.71	29675.65
604.87	29975.24
605.03	29649.91
605.18	29750.55
605.34	29446.28
605.49	29401.81
605.65	29563.31
605.80	29340.96
605.96	29500.11
606.12	29088.18
606.27	29399.47
606.43	29350.32
606.58	29762.25
606.74	29532.88
606.89	29558.63
607.05	29841.83
607.20	29528.20
607.36	29598.41
607.51	29989.28
607.67	29469.69
607.82	29483.73
607.98	29560.97
608.13	29404.15
608.29	29422.87
608.44	29614.80
608.60	29500.11
608.75	29649.91
608.91	29301.17
609.06	29525.86
609.22	29542.24
609.37	28882.21
609.53	29525.86
609.68	29015.62
609.84	29137.33
609.99	29312.87
610.15	28964.13
610.30	29340.96
610.46	29343.30
610.61	29219.25
610.76	29488.41
610.92	29287.12
611.07	29371.38
611.23	29132.65
611.38	29408.83
611.54	29139.67
611.69	28980.51
611.84	28830.72
612.00	28896.25
612.15	28828.38
612.31	29240.31
612.46	29067.11
612.62	29537.56
612.77	28957.11
612.92	29200.52
613.08	28823.70
613.23	29137.33
613.39	29097.54
613.54	28865.83
613.69	29165.42
613.85	28800.29
614.00	29039.03
614.15	29053.07
614.31	29099.88
614.46	29415.85
614.62	29010.94
614.77	29289.46
614.92	28996.90
615.08	29104.56
615.23	29113.92
615.38	29118.60
615.54	28900.94
615.69	28697.31
615.84	28982.85
616.00	28896.25
616.15	29036.69
616.30	29024.98
616.46	29010.94
616.61	29069.45
616.76	29085.84
616.92	28893.91
617.07	29048.39
617.22	28793.27
617.37	28701.99
617.53	28704.33
617.68	28496.02
617.83	28587.30
617.99	28481.98
618.14	28631.77
618.29	28343.89
618.45	28772.21
618.60	28430.49
618.75	28603.69
618.90	28620.07
619.06	28964.13
619.21	28451.55
619.36	28762.84
619.51	28519.43
619.67	28297.08
619.82	28538.15
619.97	28568.58
620.12	27997.49
620.28	28327.50
620.43	28608.37
620.58	28538.15
620.73	28601.35
620.89	28556.88
621.04	28690.29
621.19	28517.09
621.34	28500.70
621.49	28283.03
621.65	28533.47
621.80	28290.06
621.95	27922.59
622.10	28095.79
622.25	28020.89
622.41	28215.16
622.56	28147.28
622.71	28137.92
622.86	28573.26
623.01	28673.90
623.16	28285.37
623.32	28191.75
623.47	28247.93
623.62	27885.14
623.77	27793.86
623.92	27875.78
624.07	28013.87
624.23	28093.45
624.38	28053.66
624.53	28100.47
624.68	28243.24
624.83	28673.90
624.98	28135.58
625.13	28081.75
625.29	27992.81
625.44	28084.09
625.59	28283.03
625.74	27814.93
625.89	27573.85
626.04	27784.50
626.19	28067.70
626.34	27861.74
626.49	28084.09
626.65	27653.43
626.80	27803.22
626.95	27515.34
627.10	27505.98
627.25	27740.03
627.40	27440.44
627.55	27405.33
627.70	27573.85
627.85	27669.81
628.00	27585.55
628.15	27292.99
628.30	27461.51
628.45	27372.57
628.60	27402.99
628.76	27419.38
628.91	27569.17
629.06	27810.25
629.21	27398.31
629.36	27557.47
629.51	27475.55
629.66	27302.35
629.81	27281.28
629.96	27072.98
630.11	27098.72
630.26	27325.75
630.41	27206.39
630.56	27302.35
630.71	27248.52
630.86	27473.21
631.01	27550.45
631.16	27555.13
631.31	27239.15
631.46	27061.27
631.61	27145.53
631.76	27103.40
631.91	26857.65
632.06	27213.41
632.21	27222.77
632.36	26862.33
632.51	26845.94
632.66	27262.56
632.81	27108.08
632.96	27215.75
633.10	27220.43
633.25	27056.59
633.40	27166.60
633.55	26967.65
633.70	26859.99
633.85	26955.95
634.00	26581.46
634.15	27070.64
634.30	26810.84
634.45	27281.28
634.60	27108.08
634.75	26499.55
634.90	26785.09
635.05	26820.20
635.19	26583.80
635.34	26995.74
635.49	27065.96
635.64	26932.54
635.79	26993.40
635.94	26728.92
636.09	26527.63
636.24	26710.19
636.39	26726.58
636.53	26520.61
636.68	26431.67
636.83	26602.53
636.98	26689.13
637.13	26373.16
637.28	26506.57
637.43	26532.31
637.57	26490.18
637.72	26492.52
637.87	26417.63
638.02	26745.30
638.17	26661.04
638.32	26359.11
638.46	26448.05
638.61	26202.30
638.76	26047.82
638.91	26309.96
639.06	26272.51
639.20	26307.62
639.35	26518.27
639.50	26143.78
639.65	26492.52
639.80	26050.16
639.94	26628.27
640.09	26209.32
640.24	26396.56
640.39	26099.31
640.54	26085.27
640.68	26162.51
640.83	26171.87
640.98	25823.13
641.13	25928.45
641.27	25993.99
641.42	25860.58
641.57	26314.64
641.72	26274.85
641.86	25865.26
642.01	25582.06
642.16	26108.68
642.31	25738.87
642.45	25834.83
642.60	25806.75
642.75	25673.34
642.90	25977.61
643.04	25851.22
643.19	25820.79
643.34	25764.62
643.48	25666.31
643.63	25776.32
643.78	25935.48
643.93	25916.75
644.07	26001.01
644.22	26204.64
644.37	26043.14
644.51	25682.70
644.66	25586.74
644.81	25455.67
644.95	25577.37
645.10	25724.83
645.25	25385.45
645.39	25266.08
645.54	25715.47
645.69	25514.18
645.83	25511.84
645.98	25479.07
646.13	25912.07
646.27	25745.89
646.42	25720.15
646.57	25488.43
646.71	25703.76
646.86	25226.29
647.00	25785.68
647.15	25109.27
647.30	24938.41
647.44	25369.07
647.59	25397.15
647.74	25322.26
647.88	25371.41
648.03	25408.86
648.17	25429.92
648.32	25282.47
648.47	25544.61
648.61	25266.08
648.76	25392.47
648.90	25469.71
649.05	25373.75
649.20	25167.78
649.34	25160.76
649.49	25207.57
649.63	24617.75
649.78	24676.27
649.92	25017.99
650.07	25488.43
650.21	25146.72
650.36	25160.76
650.51	25170.12
650.65	25322.26
650.80	25017.99
650.94	25032.03
651.09	24797.98
651.23	25111.61
651.38	24748.82
651.52	25025.01
651.67	25053.09
651.81	24847.13
651.96	24987.56
652.10	24840.11
652.25	24816.70
652.39	25123.31
652.54	24971.18
652.68	25144.38
652.83	24924.36
652.97	25172.46
653.12	25053.09
653.26	24687.97
653.41	24692.65
653.55	24690.31
653.70	24573.28
653.84	24758.19
653.99	24624.78
654.13	24758.19
654.27	24671.59
654.42	24919.68
654.56	24552.22
654.71	24634.14
654.85	24479.66
655.00	24971.18
655.14	24631.80
655.29	24823.72
655.43	24826.06
655.57	24208.16
655.72	24580.31
655.86	24676.27
656.01	24474.98
656.15	24116.88
656.30	24308.80
656.44	24318.17
656.58	24451.58
656.73	24269.01
656.87	24482.00
657.01	24580.31
657.16	24531.15
657.30	24500.73
657.45	24250.29
657.59	24367.32
657.73	24051.34
657.88	24187.10
658.02	24032.62
658.16	24294.76
658.31	24102.84
658.45	24343.91
658.60	23967.09
658.74	24252.63
658.88	24123.90
659.03	24137.94
659.17	23679.20
659.31	24357.96
659.46	24226.89
659.60	24049.00
659.74	23967.09
659.89	23999.85
660.03	24123.90
660.17	23920.28
660.32	23536.43
660.46	23931.98
660.60	23571.54
660.74	23800.91
660.89	23644.09
661.03	23510.68
661.17	23772.82
661.32	23672.18
661.46	23503.66
661.60	23573.88
661.74	23662.82
661.89	23688.56
662.03	23878.15
662.17	23283.65
662.31	23660.48
662.46	23791.55
662.60	23117.47
662.74	23564.51
662.88	23276.63
663.03	22988.74
663.17	23309.40
663.31	22876.40
663.45	23192.37
663.60	22867.03
663.74	22902.14
663.88	23274.29
664.02	22955.97
664.17	23192.37
664.31	22855.33
664.45	23131.51
664.59	22836.61
664.73	23040.23
664.88	22965.34
665.02	22841.29
665.16	22895.12
665.30	22845.97
665.44	22885.76
665.59	22419.99
665.73	22796.82
665.87	22436.38
666.01	22494.89
666.15	22731.28
666.29	22766.39
666.44	22221.05
666.58	22686.81
666.72	22614.26
666.86	22513.61
667.00	22424.67
667.14	22185.94
667.28	22501.91
667.43	22185.94
667.57	21874.65
667.71	22300.62
667.85	22024.44
667.99	22047.85
668.13	22064.23
668.27	22284.24
668.41	22017.42
668.56	21844.22
668.70	22141.47
668.84	22457.44
668.98	21998.70
669.12	21668.68
669.26	21919.12
669.40	22068.91
669.54	22150.83
669.68	21703.79
669.82	21645.27
669.96	21759.96
670.10	21825.50
670.25	21649.96
670.39	21640.59
670.53	21406.54
670.67	21556.33
670.81	21516.54
670.95	21394.84
671.09	21617.19
671.23	21137.38
671.37	21678.04
671.51	21420.58
671.65	21525.91
671.79	21371.43
671.93	21118.65
672.07	21341.00
672.21	20917.37
672.35	21125.68
672.49	21123.33
672.63	20816.72
672.77	21120.99
672.91	20877.58
673.05	20917.37
673.19	21010.99
673.33	20568.63
673.47	20711.40
673.61	20849.49
673.75	20795.66
673.89	20793.32
674.03	20538.20
674.17	20800.34
674.31	20826.09
674.45	20559.27
674.59	20526.50
674.73	20318.19
674.87	20353.30
675.01	20318.19
675.15	20280.74
675.29	20325.21
675.43	20168.40
675.56	20137.97
675.70	19990.52
675.84	20224.57
675.98	19503.68
676.12	20233.93
676.26	20114.56
676.40	19927.32
676.54	20238.61
676.68	19733.06
676.82	19606.67
676.96	20102.86
677.10	19651.14
677.23	19576.24
677.37	19372.61
677.51	19419.42
677.65	19150.26
677.79	19517.73
677.93	19286.01
678.07	19229.84
678.21	19140.90
678.34	19047.28
678.48	19080.05
678.62	18946.64
678.76	19077.71
678.90	18874.08
679.04	18902.17
679.18	19042.60
679.31	18555.77
679.45	18724.29
679.59	18420.02
679.73	18558.11
679.87	18324.05
680.00	18293.63
680.14	18544.06
680.28	18274.90
680.42	18178.94
680.56	18424.70
680.70	18523.00
680.83	18420.02
680.97	18174.26
681.11	17954.25
681.25	18108.72
681.39	17947.23
681.52	18293.63
681.66	17767.01
681.80	17785.73
681.94	17788.07
682.07	17912.12
682.21	17628.92
682.35	17624.23
682.49	17291.88
682.62	17390.18
682.76	17401.88
682.90	17481.46
683.04	17404.22
683.17	17493.16
683.31	17514.23
683.45	17219.32
683.59	17378.48
683.72	17022.72
683.86	17357.41
684.00	17116.34
684.13	17165.49
684.27	16683.34
684.41	16893.99
684.55	16695.04
684.68	16393.11
684.82	16830.79
684.96	16786.32
685.09	16486.73
685.23	16123.95
685.37	16622.48
685.50	16360.34
685.64	16561.63
685.78	16414.18
685.91	16388.43
686.05	16456.31
686.19	16159.06
686.32	16187.14
686.46	15817.34
686.60	15826.70
686.73	15751.81
686.87	16170.76
687.01	15939.05
687.14	15700.31
687.28	15653.50
687.42	15599.67
687.55	15606.69
687.69	15754.15
687.82	15714.36
687.96	15492.01
688.10	15630.10
688.23	15454.56
688.37	15573.92
688.50	15342.21
688.64	15117.52
688.78	15321.15
688.91	15211.14
689.05	15208.80
689.18	15178.37
689.32	14850.70
689.46	14705.59
689.59	15138.58
689.73	14803.89
689.86	14834.32
690.00	14941.98
690.13	14677.50
690.27	14787.50
690.41	14862.40
690.54	14586.22
690.68	14497.28
690.81	14464.51
690.95	14611.96
691.08	14501.96
691.22	14633.03
691.35	14293.65
691.49	14321.74
691.62	14443.45
691.76	14174.28
691.89	14010.45
692.03	13947.25
692.16	13755.33
692.30	14029.17
692.43	13701.50
692.57	13837.25
692.70	13881.72
692.84	13701.50
692.97	13507.23
693.11	13549.36
693.24	13390.20
693.38	13551.70
693.51	13451.06
693.65	13523.62
693.78	13177.22
693.92	13474.46
694.05	13254.45
694.19	13050.83
694.32	13034.44
694.45	13160.83
694.59	12933.80
694.72	12992.31
694.86	12908.05
694.99	12655.28
695.13	12692.73
695.26	12870.61
695.39	12592.08
695.53	12531.23
695.66	12669.32
695.80	12699.75
695.93	12446.97
696.07	12709.11
696.20	12491.44
696.33	12486.76
696.47	12367.39
696.60	12336.96
696.73	12304.20
696.87	12245.68
697.00	12030.35
697.14	11985.88
697.27	11843.11
697.40	11782.26
697.54	12006.95
697.67	11864.18
697.80	11906.31
697.94	11595.01
698.07	11632.46
698.21	11768.21
698.34	11630.12
698.47	11754.17
698.61	11623.10
698.74	11749.49
698.87	11564.59
699.01	11389.05
699.14	11419.47
699.27	11339.90
699.40	11510.75
699.54	11524.80
699.67	11400.75
699.80	11136.27
699.94	11059.03
700.07	11187.76
700.20	11030.94
700.34	11089.46
700.47	10883.49
700.60	10780.51
700.73	10841.36
700.87	10998.18
701.00	10731.36
701.13	10604.97
701.26	10745.40
701.40	10782.85
701.53	10771.15
701.66	10569.86
701.79	10553.48
701.93	10464.54
702.06	10441.13
702.19	10277.29
702.32	10223.46
702.46	10197.71
702.59	10120.48
702.72	10146.22
702.85	10113.45
702.99	10038.56
703.12	10029.20
703.25	9968.34
703.38	9954.30
703.51	9802.16
703.65	10010.47
703.78	9872.38
703.91	9804.50
704.04	9884.08
704.17	9879.40
704.31	9551.73
704.44	9387.89
704.57	9537.68
704.70	9518.96
704.83	9488.53
704.96	9549.39
705.10	9392.57
705.23	9074.26
>>>>>End Processed Spectral Data<<<<<
