SpectraSuite Data File
++++++++++++++++++++++++++++++++++++
Date: Fri Oct 18 13:58:23 GMT-05:00 2013
User: bianchi
Dark Spectrum Present: No
Reference Spectrum Present: No
Number of Sampled Component Spectra: 1
Spectrometers: USB2+H05261
Integration Time (usec): 50000 (USB2+H05261)
Spectra Averaged: 1 (USB2+H05261)
Boxcar Smoothing: 0 (USB2+H05261)
Correct for Electrical Dark: No (USB2+H05261)
Strobe/Lamp Enabled: No (USB2+H05261)
Correct for Detector Non-linearity: No (USB2+H05261)
Correct for Stray Light: No (USB2+H05261)
Number of Pixels in Processed Spectrum: 2048
>>>>>Begin Processed Spectral Data<<<<<
365.73	0.00
365.92	0.00
366.12	0.00
366.32	0.00
366.52	0.00
366.72	0.00
366.91	0.00
367.11	0.00
367.31	0.00
367.51	0.00
367.70	0.00
367.90	0.00
368.10	0.00
368.30	0.00
368.49	0.00
368.69	0.00
368.89	0.00
369.09	0.00
369.28	0.00
369.48	0.00
369.68	0.00
369.87	0.00
370.07	0.00
370.27	0.00
370.47	0.00
370.66	100.64
370.86	98.30
371.06	124.05
371.25	184.90
371.45	114.69
371.65	107.66
371.84	220.01
372.04	107.66
372.24	124.05
372.44	191.92
372.63	238.73
372.83	196.60
373.03	170.86
373.22	175.54
373.42	149.79
373.62	234.05
373.81	236.39
374.01	243.42
374.21	248.10
374.40	177.88
374.60	241.08
374.79	161.50
374.99	184.90
375.19	180.22
375.38	315.97
375.58	243.42
375.78	231.71
375.97	283.20
376.17	250.44
376.37	262.14
376.56	234.05
376.76	182.56
376.95	255.12
377.15	210.65
377.35	252.78
377.54	241.08
377.74	318.31
377.93	381.51
378.13	271.50
378.33	290.23
378.52	210.65
378.72	311.29
378.91	304.27
379.11	250.44
379.31	245.76
379.50	264.48
379.70	241.08
379.89	337.04
380.09	306.61
380.28	229.37
380.48	243.42
380.68	320.65
380.87	332.36
381.07	299.59
381.26	353.42
381.46	348.74
381.65	313.63
381.85	353.42
382.04	355.76
382.24	287.89
382.43	353.42
382.63	351.08
382.83	367.46
383.02	332.36
383.22	362.78
383.41	395.55
383.61	383.85
383.80	339.38
384.00	409.59
384.19	339.38
384.39	315.97
384.58	414.27
384.78	400.23
384.97	304.27
385.17	315.97
385.36	411.93
385.56	442.36
385.75	379.17
385.95	423.64
386.14	400.23
386.34	367.46
386.53	411.93
386.72	367.46
386.92	430.66
387.11	496.19
387.31	416.62
387.50	381.51
387.70	430.66
387.89	400.23
388.09	418.96
388.28	491.51
388.48	388.53
388.67	458.74
388.86	470.45
389.06	442.36
389.25	524.28
389.45	421.30
389.64	470.45
389.84	491.51
390.03	477.47
390.22	505.56
390.42	531.30
390.61	500.87
390.81	517.26
391.00	554.71
391.19	521.94
391.39	461.09
391.58	547.69
391.78	491.51
391.97	538.32
392.16	550.03
392.36	517.26
392.55	547.69
392.75	528.96
392.94	582.79
393.13	564.07
393.33	517.26
393.52	528.96
393.71	613.22
393.91	533.64
394.10	627.26
394.29	629.60
394.49	592.16
394.68	655.35
394.88	543.00
395.07	603.86
395.26	559.39
395.46	643.65
395.65	624.92
395.84	634.29
396.04	648.33
396.23	608.54
396.42	521.94
396.62	613.22
396.81	662.37
397.00	641.31
397.19	620.24
397.39	601.52
397.58	627.26
397.77	734.93
397.97	660.03
398.16	674.07
398.35	653.01
398.55	638.97
398.74	725.57
398.93	760.67
399.12	713.86
399.32	727.91
399.51	737.27
399.70	767.70
399.90	730.25
400.09	781.74
400.28	835.57
400.47	739.61
400.67	800.46
400.86	828.55
401.05	830.89
401.24	812.17
401.44	788.76
401.63	823.87
401.82	765.36
402.01	800.46
402.21	866.00
402.40	903.45
402.59	938.55
402.78	842.59
402.97	922.17
403.17	854.30
403.36	873.02
403.55	791.10
403.74	889.40
403.93	945.58
404.13	929.19
404.32	938.55
404.51	887.06
404.70	945.58
404.89	861.32
405.09	957.28
405.28	910.47
405.47	976.00
405.66	1008.77
405.85	961.96
406.05	994.73
406.24	931.53
406.43	957.28
406.62	1013.45
406.81	1013.45
407.00	994.73
407.20	987.71
407.39	931.53
407.58	1055.58
407.77	1053.24
407.96	1013.45
408.15	1001.75
408.34	1088.35
408.54	1128.14
408.73	1036.86
408.92	1104.73
409.11	1158.57
409.30	1095.37
409.49	1193.67
409.68	1078.99
409.87	1203.04
410.07	1118.78
410.26	1160.91
410.45	1153.88
410.64	1259.21
410.83	1174.95
411.02	1245.16
411.21	1324.74
411.40	1280.27
411.59	1184.31
411.78	1158.57
411.98	1224.10
412.17	1315.38
412.36	1327.08
412.55	1357.51
412.74	1315.38
412.93	1350.49
413.12	1254.53
413.31	1423.05
413.50	1317.72
413.69	1413.68
413.88	1497.94
414.07	1455.81
414.26	1373.89
414.45	1629.01
414.64	1483.90
414.83	1575.18
415.02	1558.80
415.22	1537.73
415.41	1659.44
415.60	1556.46
415.79	1537.73
415.98	1589.22
416.17	1643.06
416.36	1568.16
416.55	1664.12
416.74	1596.25
416.93	1629.01
417.12	1668.80
417.31	1636.03
417.50	1643.06
417.69	1755.40
417.88	1741.36
418.07	1659.44
418.26	1727.32
418.45	1792.85
418.64	1827.96
418.83	1844.34
419.02	1743.70
419.21	1776.47
419.39	1830.30
419.58	1909.88
419.77	1685.19
419.96	1778.81
420.15	1898.17
420.34	2010.52
420.53	1919.24
420.72	1895.83
420.91	1888.81
421.10	1886.47
421.29	1933.28
421.48	1984.77
421.67	1870.09
421.86	1865.41
422.05	1956.69
422.24	1888.81
422.43	1959.03
422.61	1926.26
422.80	2010.52
422.99	1987.11
423.18	1954.35
423.37	2003.50
423.56	2008.18
423.75	1991.80
423.94	1959.03
424.13	1921.58
424.32	1963.71
424.50	2090.10
424.69	2045.63
424.88	2057.33
425.07	1975.41
425.26	2085.42
425.45	2015.20
425.64	2064.35
425.83	2066.69
426.01	2059.67
426.20	2141.59
426.39	2078.40
426.58	1989.46
426.77	2129.89
426.96	2047.97
427.15	2143.93
427.33	2141.59
427.52	2062.01
427.71	2221.17
427.90	2090.10
428.09	2321.81
428.28	2172.02
428.46	2211.81
428.65	2146.27
428.84	2122.87
429.03	2270.32
429.22	2214.15
429.40	2239.89
429.59	2260.96
429.78	2228.19
429.97	2176.70
430.16	2286.70
430.34	2317.13
430.53	2326.49
430.72	2401.39
430.91	2249.25
431.10	2363.94
431.28	2286.70
431.47	2361.60
431.66	2326.49
431.85	2380.32
432.03	2443.52
432.22	2495.01
432.41	2326.49
432.60	2434.16
432.79	2392.03
432.97	2485.65
433.16	2480.97
433.35	2544.16
433.54	2473.95
433.72	2574.59
433.91	2605.02
434.10	2537.14
434.28	2541.82
434.47	2574.59
434.66	2544.16
434.85	2574.59
435.03	2590.97
435.22	2534.80
435.41	2696.30
435.59	2532.46
435.78	2588.63
435.97	2747.79
436.16	2736.09
436.34	2609.70
436.53	2642.46
436.72	2647.15
436.90	2590.97
437.09	2876.52
437.28	2651.83
437.46	2766.51
437.65	2740.77
437.84	2827.37
438.02	2661.19
438.21	2705.66
438.40	2801.62
438.58	2850.77
438.77	2972.48
438.96	2876.52
439.14	2857.79
439.33	3040.36
439.52	2939.71
439.70	3023.97
439.89	3000.57
440.08	3016.95
440.26	2939.71
440.45	3023.97
440.63	3059.08
440.82	3098.87
441.01	2993.55
441.19	3124.62
441.38	3272.07
441.57	3169.09
441.75	3283.77
441.94	3248.66
442.12	3152.70
442.31	3349.31
442.50	3248.66
442.68	3248.66
442.87	3431.23
443.05	3358.67
443.24	3414.84
443.43	3307.18
443.61	3440.59
443.80	3435.91
443.98	3267.39
444.17	3225.26
444.35	3398.46
444.54	3508.46
444.73	3471.01
444.91	3426.54
445.10	3482.72
445.28	3513.14
445.47	3342.28
445.65	3384.41
445.84	3475.70
446.02	3428.88
446.21	3325.90
446.39	3456.97
446.58	3552.93
446.77	3559.95
446.95	3351.65
447.14	3531.87
447.32	3499.10
447.51	3485.06
447.69	3492.08
447.88	3445.27
448.06	3538.89
448.25	3487.40
448.43	3667.62
448.62	3559.95
448.80	3634.85
448.99	3433.57
449.17	3517.83
449.36	3524.85
449.54	3630.17
449.73	3707.41
449.91	3770.60
450.10	3599.74
450.28	3808.05
450.46	3609.11
450.65	3777.62
450.83	3824.44
451.02	3786.99
451.20	3822.09
451.39	3747.20
451.57	3866.56
451.76	3871.25
451.94	3779.97
452.13	3894.65
452.31	3822.09
452.49	3911.04
452.68	3922.74
452.86	3794.01
453.05	3829.12
453.23	3969.55
453.42	3843.16
453.60	3906.35
453.78	3904.01
453.97	3955.51
454.15	3859.54
454.34	3889.97
454.52	4025.72
454.70	4056.15
454.89	4121.68
455.07	3953.16
455.26	4142.75
455.44	4187.22
455.62	3985.93
455.81	4077.21
455.99	3981.25
456.17	3911.04
456.36	4142.75
456.54	4402.55
456.73	4105.30
456.91	4383.82
457.09	4381.48
457.28	4339.35
457.46	4304.25
457.64	4273.82
457.83	4318.29
458.01	4243.39
458.19	4393.19
458.38	4465.74
458.56	4390.84
458.74	4531.28
458.93	4390.84
459.11	4402.55
459.29	4435.32
459.48	4472.76
459.66	4524.26
459.84	4528.94
460.03	4500.85
460.21	4566.39
460.39	4594.47
460.57	4550.00
460.76	4545.32
460.94	4507.87
461.12	4587.45
461.31	4652.98
461.49	4503.19
461.67	4496.17
461.85	4823.84
462.04	4711.50
462.22	4784.06
462.40	4730.22
462.59	4706.82
462.77	4788.74
462.95	4814.48
463.13	4779.37
463.32	4723.20
463.50	4917.47
463.68	4807.46
463.86	4828.53
464.05	4821.50
464.23	4802.78
464.41	4943.21
464.59	4793.42
464.78	4997.04
464.96	4858.95
465.14	4903.42
465.32	5008.75
465.50	5027.47
465.69	5034.49
465.87	5011.09
466.05	5046.20
466.23	4910.44
466.41	4959.60
466.60	5245.14
466.78	5139.82
466.96	5034.49
467.14	5123.43
467.32	5172.58
467.51	5273.23
467.69	5111.73
467.87	5177.26
468.05	5088.32
468.23	5352.81
468.41	5261.52
468.60	5210.03
468.78	5416.00
468.96	5184.29
469.14	5313.02
469.32	5434.72
469.50	5142.16
469.69	5486.22
469.87	5504.94
470.05	5551.75
470.23	5502.60
470.41	5357.49
470.59	5364.51
470.77	5411.32
470.95	5336.42
471.14	5343.44
471.32	5352.81
471.50	5570.48
471.68	5544.73
471.86	5614.95
472.04	5558.77
472.22	5834.96
472.40	5614.95
472.58	5724.95
472.77	5872.40
472.95	5851.34
473.13	5858.36
473.31	5928.58
473.49	5872.40
473.67	5696.86
473.85	5888.79
474.03	6057.31
474.21	5944.96
474.39	6071.35
474.57	5893.47
474.75	6045.60
474.93	5975.39
475.12	5980.07
475.30	6171.99
475.48	6253.91
475.66	6183.70
475.84	6244.55
476.02	6415.41
476.20	6204.76
476.38	6354.55
476.56	6679.89
476.74	6523.07
476.92	6511.37
477.10	6518.39
477.28	6750.10
477.46	6841.39
477.64	6644.78
477.82	6869.47
478.00	6965.43
478.18	6881.18
478.36	7063.74
478.54	7014.59
478.72	7138.63
478.90	7330.56
479.08	7269.70
479.26	7323.54
479.44	7119.91
479.62	7468.65
479.80	7360.98
479.98	7346.94
480.16	7585.68
480.34	7534.18
480.52	7716.75
480.70	7541.21
480.88	7623.12
481.06	7627.81
481.24	7793.98
481.41	7798.66
481.59	8058.46
481.77	8114.64
481.95	8133.36
482.13	7925.05
482.31	7967.18
482.49	8116.98
482.67	8266.77
482.85	8306.56
483.03	8592.11
483.21	8414.23
483.39	8762.97
483.57	8652.96
483.74	8512.53
483.92	8528.91
484.10	8828.50
484.28	8833.18
484.46	8784.03
484.64	9046.17
484.82	8961.91
485.00	9261.50
485.18	9146.81
485.35	9357.46
485.53	9420.66
485.71	9570.45
485.89	9713.22
486.07	9673.43
486.25	9554.07
486.43	9628.96
486.61	9858.34
486.78	9982.38
486.96	9966.00
487.14	10003.45
487.32	10164.95
487.50	10160.27
487.68	10228.14
487.85	10602.63
488.03	10246.87
488.21	10541.77
488.39	10565.18
488.57	10672.84
488.75	10698.59
488.92	10661.14
489.10	10946.69
489.28	10794.55
489.46	11000.52
489.64	11019.24
489.81	11276.70
489.99	11358.62
490.17	11267.34
490.35	11690.98
490.53	11627.78
490.70	11705.02
490.88	11632.46
491.06	11728.42
491.24	11843.11
491.41	11737.79
491.59	11960.14
491.77	11964.82
491.95	12341.64
492.13	12032.69
492.30	12627.19
492.48	12355.69
492.66	12262.07
492.84	12528.89
493.01	12650.60
493.19	12650.60
493.37	12706.77
493.54	12961.89
493.72	12739.54
493.90	13032.10
494.08	13137.43
494.25	12830.82
494.43	13193.60
494.61	13062.53
494.79	13135.09
494.96	13364.46
495.14	13415.95
495.32	13387.86
495.49	13572.77
495.67	13862.99
495.85	13645.32
496.02	14043.21
496.20	14040.87
496.38	13975.34
496.55	13958.96
496.73	14356.85
496.91	14178.97
497.09	14281.95
497.26	14455.15
497.44	14258.54
497.62	14424.72
497.79	14523.02
497.97	14548.77
498.14	14569.83
498.32	14803.89
498.50	14689.20
498.67	15044.96
498.85	14888.15
499.03	15176.03
499.20	14977.09
499.38	15211.14
499.56	15173.69
499.73	15342.21
499.91	15440.51
500.08	15716.70
500.26	15229.87
500.44	15407.75
500.61	15602.01
500.79	15585.63
500.97	15730.74
501.14	16123.95
501.32	15927.35
501.49	15878.19
501.67	16121.61
501.84	15798.62
502.02	16109.91
502.20	15857.13
502.37	15847.77
502.55	15927.35
502.72	16486.73
502.90	16222.25
503.07	16285.45
503.25	16449.28
503.43	16411.84
503.60	16451.63
503.78	16617.80
503.95	16360.34
504.13	16734.83
504.30	16262.04
504.48	16570.99
504.65	16758.24
504.83	16936.12
505.01	16989.95
505.18	16849.52
505.36	17139.74
505.53	16975.91
505.71	17109.32
505.88	17216.98
506.06	16865.90
506.23	17104.64
506.41	17390.18
506.58	17439.33
506.76	17041.44
506.93	17495.50
507.11	17577.42
507.28	17474.44
507.46	17319.96
507.63	17961.27
507.81	17661.68
507.98	17420.61
508.16	18082.98
508.33	17951.91
508.50	17823.18
508.68	17841.90
508.85	18265.54
509.03	18031.49
509.20	18045.53
509.38	18288.95
509.55	18340.44
509.73	18417.68
509.90	18403.63
510.08	18434.06
510.25	18534.70
510.42	18415.34
510.60	18532.36
510.77	18469.17
510.95	18806.20
511.12	18726.63
511.30	18478.53
511.47	18874.08
511.64	19068.34
511.82	18841.31
511.99	19173.67
512.17	19037.92
512.34	19204.10
512.51	19213.46
512.69	19356.23
512.86	19396.02
513.04	19342.19
513.21	19545.81
513.38	19297.72
513.56	19590.28
513.73	19700.29
513.90	19641.78
514.08	19346.87
514.25	19697.95
514.43	19683.91
514.60	19538.79
514.77	20016.26
514.95	19924.98
515.12	19903.92
515.29	19850.08
515.47	19793.91
515.64	19960.09
515.81	19913.28
515.99	20322.87
516.16	20276.06
516.33	20315.85
516.51	20500.75
516.68	20379.04
516.85	20269.04
517.03	20299.47
517.20	20659.91
517.37	20428.20
517.54	20657.57
517.72	20430.54
517.89	20629.48
518.06	20666.93
518.24	20613.10
518.41	20636.50
518.58	20893.96
518.75	20577.99
518.93	20905.66
519.10	20943.11
519.27	20851.83
519.45	20844.81
519.62	21088.23
519.79	21184.19
519.96	21270.79
520.14	21282.49
520.31	21228.66
520.48	21238.02
520.65	21490.80
520.83	21378.45
521.00	21631.23
521.17	20992.26
521.34	21331.64
521.52	21666.34
521.69	21626.55
521.86	21795.07
522.03	21919.12
522.20	21834.86
522.38	22050.19
522.55	21649.96
522.72	21771.66
522.89	22068.91
523.07	22078.27
523.24	21898.05
523.41	22347.44
523.58	21994.01
523.75	22338.07
523.92	21977.63
524.10	22169.55
524.27	22307.65
524.44	22328.71
524.61	22553.40
524.78	22710.22
524.96	22623.62
525.13	22331.05
525.30	22480.85
525.47	22752.35
525.64	22647.02
525.81	22836.61
525.98	22672.77
526.16	22808.52
526.33	22871.72
526.50	23077.68
526.67	22757.03
526.84	22927.89
527.01	22888.10
527.18	22796.82
527.36	23187.69
527.53	22953.63
527.70	23211.09
527.87	23379.61
528.04	23344.50
528.21	22955.97
528.38	23372.59
528.55	23190.03
528.72	23358.55
528.89	23754.10
529.07	23854.74
529.24	23063.64
529.41	23487.28
529.58	23672.18
529.75	23381.95
529.92	23625.37
530.09	23302.37
530.26	23335.14
530.43	23889.85
530.60	23480.25
530.77	23714.31
530.94	23761.12
531.11	23653.45
531.28	23653.45
531.46	23812.61
531.63	23878.15
531.80	24051.34
531.97	23999.85
532.14	24201.14
532.31	23866.44
532.48	24168.37
532.65	24428.17
532.82	24046.66
532.99	24212.84
533.16	23992.83
533.33	24652.86
533.50	24552.22
533.67	24369.66
533.84	23936.66
534.01	24446.90
534.18	24135.60
534.35	24367.32
534.52	24540.52
534.69	24264.33
534.86	24805.00
535.03	24589.67
535.20	25032.03
535.37	24453.92
535.54	24781.59
535.71	24702.01
535.88	24730.10
536.05	24449.24
536.22	25427.58
536.38	24802.66
536.55	24896.28
536.72	25048.41
536.89	24641.16
537.06	24783.93
537.23	25240.34
537.40	25097.56
537.57	24868.19
537.74	25003.94
537.91	25481.41
538.08	25132.67
538.25	25352.68
538.42	25263.74
538.59	25441.62
538.75	25071.82
538.92	25177.14
539.09	25340.98
539.26	25511.84
539.43	25600.78
539.60	25259.06
539.77	25422.90
539.94	25593.76
540.11	25509.50
540.28	25682.70
540.44	25427.58
540.61	25380.77
540.78	25694.40
540.95	25675.68
541.12	25532.90
541.29	25706.10
541.46	25635.89
541.62	25785.68
541.79	25790.36
541.96	25450.99
542.13	25701.42
542.30	25844.20
542.47	26260.81
542.63	26174.21
542.80	26326.35
542.97	26082.93
543.14	26298.26
543.31	26272.51
543.48	26176.55
543.64	26368.48
543.81	26288.90
543.98	26703.17
544.15	26515.93
544.32	26742.96
544.48	26745.30
544.65	26363.79
544.82	26347.41
544.99	26061.87
545.16	26518.27
545.32	26581.46
545.49	26944.25
545.66	27026.17
545.83	26581.46
546.00	27140.85
546.16	26656.36
546.33	26902.12
546.50	26242.09
546.67	26726.58
546.83	26494.86
547.00	27014.46
547.17	26988.72
547.34	27267.24
547.50	27314.05
547.67	27201.71
547.84	27098.72
548.00	27269.58
548.17	27281.28
548.34	26806.16
548.51	27220.43
548.67	27028.51
548.84	27243.84
549.01	27370.22
549.18	27096.38
549.34	27267.24
549.51	27007.44
549.68	27339.80
549.84	27321.07
550.01	27248.52
550.18	27215.75
550.34	27391.29
550.51	27704.92
550.68	27562.15
550.84	27147.87
551.01	27936.63
551.18	27047.23
551.34	27091.70
551.51	27793.86
551.68	28023.23
551.84	27992.81
552.01	27630.02
552.18	27676.83
552.34	27835.99
552.51	27702.58
552.68	27892.16
552.84	27576.19
553.01	27557.47
553.18	27709.60
553.34	27960.04
553.51	27810.25
553.67	27931.95
553.84	28170.69
554.01	27946.00
554.17	28151.96
554.34	27995.15
554.51	28058.34
554.67	28016.21
554.84	27978.76
555.00	28304.10
555.17	27999.83
555.33	28114.52
555.50	27927.27
555.67	28053.66
555.83	28252.61
556.00	28027.92
556.16	28496.02
556.33	28119.20
556.50	28086.43
556.66	28463.25
556.83	28116.86
556.99	28460.91
557.16	28470.28
557.32	28451.55
557.49	28732.42
557.65	28364.95
557.82	28168.35
557.98	28556.88
558.15	28713.69
558.32	28662.20
558.48	28430.49
558.65	28266.65
558.81	28231.54
558.98	28627.09
559.14	28727.74
559.31	28489.00
559.47	28762.84
559.64	28613.05
559.80	28535.81
559.97	28371.97
560.13	28510.07
560.30	28734.76
560.46	28479.64
560.63	28718.37
560.79	28929.02
560.96	28563.90
561.12	28709.01
561.29	28606.03
561.45	28854.12
561.61	28985.19
561.78	29127.97
561.94	28797.95
562.11	28685.61
562.27	29078.82
562.44	28713.69
562.60	29024.98
562.77	29003.92
562.93	28807.31
563.10	29092.86
563.26	29036.69
563.42	29069.45
563.59	28912.64
563.75	28856.46
563.92	29158.39
564.08	28720.71
564.24	29013.28
564.41	29125.63
564.57	29125.63
564.74	28809.65
564.90	29448.62
565.07	29244.99
565.23	29390.11
565.39	29046.05
565.56	29273.08
565.72	29282.44
565.88	29120.95
566.05	29144.35
566.21	28973.49
566.38	29010.94
566.54	29256.70
566.70	28964.13
566.87	29813.74
567.03	29673.31
567.19	29523.52
567.36	29383.09
567.52	28943.06
567.68	29340.96
567.85	29305.85
568.01	29039.03
568.17	29277.76
568.34	29230.95
568.50	29149.03
568.66	29118.60
568.83	29795.02
568.99	29270.74
569.15	29256.70
569.32	29443.94
569.48	29015.62
569.64	29556.28
569.81	29532.88
569.97	29369.04
570.13	29729.48
570.30	29034.35
570.46	29603.10
570.62	29296.49
570.78	29532.88
570.95	29322.23
571.11	29689.70
571.27	28907.96
571.43	29242.65
571.60	29598.41
571.76	29490.75
571.92	29750.55
572.09	29586.71
572.25	29453.30
572.41	29142.01
572.57	29308.19
572.74	29600.76
572.90	29600.76
573.06	29577.35
573.22	29439.26
573.38	29408.83
573.55	29284.78
573.71	29731.83
573.87	29874.60
574.03	29696.72
574.20	30082.91
574.36	29462.66
574.52	29425.22
574.68	29626.50
574.84	29661.61
575.01	29462.66
575.17	29310.53
575.33	29298.83
575.49	29607.78
575.65	29685.01
575.82	30082.91
575.98	29535.22
576.14	29764.59
576.30	29413.51
576.46	29425.22
576.62	29685.01
576.79	29771.61
576.95	29741.19
577.11	29694.38
577.27	29839.49
577.43	30094.61
577.59	30050.14
577.75	29642.88
577.92	29928.43
578.08	29713.10
578.24	29500.11
578.40	29855.87
578.56	29638.20
578.72	29832.47
578.88	30155.46
579.04	29923.75
579.21	29720.12
579.37	29989.28
579.53	29998.65
579.69	29837.15
579.85	29434.58
580.01	29633.52
580.17	29593.73
580.33	30078.22
580.49	29565.65
580.65	29675.65
580.82	30202.27
580.98	29631.18
581.14	29933.11
581.30	29923.75
581.46	29965.88
581.62	29855.87
581.78	29741.19
581.94	29972.90
582.10	29888.64
582.26	29802.04
582.42	29755.23
582.58	30052.48
582.74	29993.97
582.90	29975.24
583.06	29797.36
583.22	30015.03
583.38	29677.99
583.54	29570.33
583.70	30110.99
583.86	30307.60
584.02	29776.30
584.18	30115.67
584.34	29752.89
584.50	29860.55
584.66	29944.81
584.82	29624.16
584.98	30223.34
585.14	29926.09
585.30	29701.40
585.46	29888.64
585.62	29567.99
585.78	29766.93
585.94	29682.67
586.10	29769.27
586.26	30342.70
586.42	29867.58
586.58	29778.64
586.74	30221.00
586.90	29530.54
587.06	29586.71
587.22	29930.77
587.38	29804.38
587.54	30033.75
587.70	30300.58
587.86	29975.24
588.02	29909.71
588.18	30422.28
588.34	30328.66
588.49	29989.28
588.65	30050.14
588.81	30026.73
588.97	30532.29
589.13	29837.15
589.29	29841.83
589.45	29764.59
589.61	30195.25
589.77	30331.00
589.93	30239.72
590.08	30553.35
590.24	30419.94
590.40	30558.03
590.56	30536.97
590.72	30279.51
590.88	29773.95
591.04	30143.76
591.20	30401.22
591.35	30651.66
591.51	30340.36
591.67	30370.79
591.83	30541.65
591.99	30756.98
592.15	30045.46
592.31	30518.25
592.46	30534.63
592.62	30132.06
592.78	29916.73
592.94	30295.89
593.10	30246.74
593.26	30600.16
593.41	30333.34
593.57	30359.09
593.73	30529.95
593.89	30377.81
594.05	30506.54
594.20	30232.70
594.36	29954.18
594.52	29752.89
594.68	30513.56
594.84	30157.80
594.99	30532.29
595.15	30235.04
595.31	30256.11
595.47	30822.51
595.62	30424.62
595.78	30756.98
595.94	30314.62
596.10	30553.35
596.25	30497.18
596.41	30520.59
596.57	29993.97
596.73	30239.72
596.88	30412.92
597.04	30295.89
597.20	30735.92
597.36	30958.27
597.51	30866.98
597.67	30630.59
597.83	30618.89
597.99	30293.55
598.14	30174.19
598.30	30375.47
598.46	30225.68
598.61	30565.06
598.77	30192.91
598.93	30541.65
599.09	30756.98
599.24	31033.16
599.40	30588.46
599.56	31122.10
599.71	30567.40
599.87	30998.06
600.03	30838.90
600.18	30197.59
600.34	30684.42
600.50	30448.03
600.65	30398.88
600.81	30696.13
600.97	30904.43
601.12	30508.88
601.28	30885.71
601.44	30562.72
601.59	30494.84
601.75	30651.66
601.91	30712.51
602.06	30845.92
602.22	30536.97
602.37	30522.93
602.53	30419.94
602.69	30799.11
602.84	30342.70
603.00	30789.75
603.16	30976.99
603.31	30342.70
603.47	30675.06
603.62	30213.98
603.78	30548.67
603.94	30448.03
604.09	30321.64
604.25	30361.43
604.40	30567.40
604.56	30321.64
604.71	31016.78
604.87	30553.35
605.03	30726.55
605.18	30279.51
605.34	30569.74
605.49	30515.90
605.65	30483.14
605.80	30286.53
605.96	30375.47
606.12	30171.85
606.27	29965.88
606.43	30218.66
606.58	30586.12
606.74	30609.53
606.89	30529.95
607.05	30473.78
607.20	30394.20
607.36	30204.61
607.51	30698.47
607.67	30202.27
607.82	30022.05
607.98	30328.66
608.13	29993.97
608.29	30534.63
608.44	30291.21
608.60	30288.87
608.75	30691.44
608.91	30293.55
609.06	30153.12
609.22	30518.25
609.37	30218.66
609.53	30197.59
609.68	30270.15
609.84	30033.75
609.99	30433.99
610.15	30059.50
610.30	30338.02
610.46	30181.21
610.61	30162.48
610.76	30295.89
610.92	30223.34
611.07	30359.09
611.23	29937.79
611.38	30169.51
611.54	29837.15
611.69	30015.03
611.84	29900.34
612.00	30249.08
612.15	30202.27
612.31	29937.79
612.46	29930.77
612.62	30307.60
612.77	30249.08
612.92	30204.61
613.08	30118.01
613.23	30192.91
613.39	29956.52
613.54	30146.10
613.69	30022.05
613.85	30110.99
614.00	30281.85
614.15	30293.55
614.31	30094.61
614.46	30089.93
614.62	29809.06
614.77	30160.14
614.92	29996.31
615.08	29710.76
615.23	30281.85
615.38	30029.07
615.54	30078.22
615.69	29539.90
615.84	29565.65
616.00	29858.21
616.15	29853.53
616.30	29455.64
616.46	29701.40
616.61	29839.49
616.76	29905.02
616.92	30075.88
617.07	29902.68
617.22	29879.28
617.37	29516.50
617.53	29701.40
617.68	29528.20
617.83	29467.34
617.99	29273.08
618.14	29701.40
618.29	29020.30
618.45	29507.13
618.60	29446.28
618.75	29378.40
618.90	29539.90
619.06	29333.93
619.21	29254.36
619.36	29750.55
619.51	29160.73
619.67	28982.85
619.82	29029.66
619.97	29312.87
620.12	29170.10
620.28	29202.86
620.43	29802.04
620.58	29570.33
620.73	29708.42
620.89	29106.90
621.04	29460.32
621.19	29146.69
621.34	28982.85
621.49	28772.21
621.65	29160.73
621.80	29202.86
621.95	29329.25
622.10	29603.10
622.25	28971.15
622.41	28765.18
622.56	28996.90
622.71	29303.51
622.86	29352.66
623.01	29425.22
623.16	29024.98
623.32	28950.09
623.47	29308.19
623.62	28903.28
623.77	28954.77
623.92	28903.28
624.07	29041.37
624.23	28844.76
624.38	28521.77
624.53	29305.85
624.68	29041.37
624.83	28966.47
624.98	29186.48
625.13	28765.18
625.29	28671.56
625.44	29298.83
625.59	28786.25
625.74	28545.17
625.89	28627.09
626.04	28463.25
626.19	28533.47
626.34	28723.05
626.49	28699.65
626.65	28371.97
626.80	28954.77
626.95	28634.11
627.10	28416.44
627.25	28512.41
627.40	28840.08
627.55	28114.52
627.70	28222.18
627.85	28556.88
628.00	28531.13
628.15	28294.74
628.30	28481.98
628.45	28388.36
628.60	28301.76
628.76	28383.68
628.91	28521.77
629.06	28423.47
629.21	28540.49
629.36	28264.31
629.51	28332.18
629.66	28346.23
629.81	28189.41
629.96	28203.46
630.11	28271.33
630.26	28180.05
630.41	28250.27
630.56	28070.04
630.71	28498.36
630.86	28011.53
631.01	27969.40
631.16	28205.80
631.31	27866.42
631.46	27868.76
631.61	28229.20
631.76	27967.06
631.91	28329.84
632.06	27875.78
632.21	28098.13
632.36	27761.09
632.51	28077.07
632.66	27906.21
632.81	27765.78
632.96	28109.83
633.10	28018.55
633.25	28311.12
633.40	28081.75
633.55	28041.96
633.70	27896.85
633.85	27630.02
634.00	28095.79
634.15	27782.16
634.30	27618.32
634.45	27768.12
634.60	27791.52
634.75	27920.25
634.90	27721.30
635.05	28102.81
635.19	27765.78
635.34	27913.23
635.49	27744.71
635.64	27513.00
635.79	27852.38
635.94	27716.62
636.09	27903.87
636.24	27466.19
636.39	27068.30
636.53	27253.20
636.68	27779.82
636.83	27627.68
636.98	27611.30
637.13	27250.86
637.28	27599.60
637.43	27665.13
637.57	27555.13
637.72	27335.12
637.87	27463.85
638.02	27302.35
638.17	27557.47
638.32	27080.00
638.46	27344.48
638.61	26958.29
638.76	27262.56
638.91	27026.17
639.06	27131.49
639.20	27119.79
639.35	27646.41
639.50	27124.47
639.65	27482.57
639.80	27421.72
639.94	26965.31
640.09	27583.21
640.24	27040.21
640.39	27077.66
640.54	26724.24
640.68	26855.31
640.83	27278.94
640.98	27005.10
641.13	26728.92
641.27	26993.40
641.42	26932.54
641.57	27061.27
641.72	27068.30
641.86	26782.75
642.01	26780.41
642.16	26738.28
642.31	26485.50
642.45	26642.32
642.60	26810.84
642.75	26649.34
642.90	26752.32
643.04	26642.32
643.19	26876.37
643.34	26836.58
643.48	26546.36
643.63	26401.24
643.78	26794.45
643.93	26448.05
644.07	26836.58
644.22	26958.29
644.37	26869.35
644.51	26782.75
644.66	26520.61
644.81	26607.21
644.95	26672.74
645.10	26740.62
645.25	26656.36
645.39	26663.38
645.54	26562.74
645.69	26309.96
645.83	26684.45
645.98	26202.30
646.13	26478.48
646.27	26525.29
646.42	26434.01
646.57	26628.27
646.71	26611.89
646.86	26071.23
647.00	26197.62
647.15	26661.04
647.30	26359.11
647.44	26209.32
647.59	26307.62
647.74	26164.85
647.88	26043.14
648.03	26441.03
648.17	26398.90
648.32	26373.16
648.47	26324.01
648.61	26572.10
648.76	26389.54
648.90	26094.63
649.05	25806.75
649.20	26239.75
649.34	25921.43
649.49	26066.55
649.63	25757.60
649.78	25886.32
649.92	25687.38
650.07	26352.09
650.21	26050.16
650.36	26127.40
650.51	25825.47
650.65	26075.91
650.80	25678.02
650.94	26082.93
651.09	25888.67
651.23	25851.22
651.38	26015.05
651.52	25748.23
651.67	26118.04
651.81	25963.56
651.96	25593.76
652.10	25411.20
652.25	25982.29
652.39	25640.57
652.54	25713.13
652.68	25568.01
652.83	25841.85
652.97	25907.39
653.12	25621.84
653.26	25565.67
653.41	25972.92
653.55	25399.49
653.70	25488.43
653.84	25432.26
653.99	25319.92
654.13	25563.33
654.27	25429.92
654.42	25415.88
654.56	25678.02
654.71	25699.08
654.85	25532.90
655.00	25509.50
655.14	25415.88
655.29	25291.83
655.43	25530.56
655.57	25656.95
655.72	25497.80
655.86	25301.19
656.01	25462.69
656.15	25462.69
656.30	25460.35
656.44	25153.74
656.58	25191.19
656.73	25205.23
656.87	24926.71
657.01	25013.31
657.16	25362.04
657.30	25373.75
657.45	25088.20
657.59	24898.62
657.73	24975.86
657.88	24996.92
658.02	25331.62
658.16	25095.22
658.31	25025.01
658.45	25127.99
658.60	24601.37
658.74	25209.91
658.88	24807.34
659.03	24739.46
659.17	24606.05
659.31	25074.16
659.46	25022.67
659.60	25025.01
659.74	24692.65
659.89	24840.11
660.03	24451.58
660.17	24269.01
660.32	24678.61
660.46	24428.17
660.60	24238.59
660.74	24372.00
660.89	24383.70
661.03	24151.99
661.17	24467.96
661.32	24706.70
661.46	24606.05
661.60	24631.80
661.74	24081.77
661.89	24360.30
662.03	24339.23
662.17	24379.02
662.31	24072.41
662.46	24196.46
662.60	23681.54
662.74	24339.23
662.88	24095.82
663.03	23711.97
663.17	23955.38
663.31	23487.28
663.45	24112.20
663.60	23620.69
663.74	23882.83
663.88	23791.55
664.02	23583.24
664.17	23910.91
664.31	23541.11
664.45	23508.34
664.59	23770.48
664.73	23903.89
664.88	23807.93
665.02	23063.64
665.16	23466.21
665.30	23480.25
665.44	23548.13
665.59	23709.63
665.73	23316.42
665.87	23096.41
666.01	23796.23
666.15	23796.23
666.29	23477.91
666.44	23129.17
666.58	23267.27
666.72	23262.58
666.86	23480.25
667.00	23403.02
667.14	23346.84
667.28	23016.83
667.43	23063.64
667.57	23175.98
667.71	23117.47
667.85	22836.61
667.99	22869.37
668.13	22787.46
668.27	22696.17
668.41	23037.89
668.56	22820.22
668.70	23150.24
668.84	22728.94
668.98	22735.96
669.12	22632.98
669.26	22836.61
669.40	22892.78
669.54	22333.39
669.68	22820.22
669.82	22436.38
669.96	22218.71
670.10	22270.20
670.25	22403.61
670.39	22295.94
670.53	22029.12
670.67	22319.35
670.81	22216.36
670.95	22309.99
671.09	22352.12
671.23	22485.53
671.37	22075.93
671.51	22230.41
671.65	22188.28
671.79	22270.20
671.93	22078.27
672.07	21771.66
672.21	21858.26
672.35	21785.71
672.49	21654.64
672.63	21696.77
672.77	21624.21
672.91	21207.59
673.05	21720.17
673.19	21713.15
673.33	21710.81
673.47	21572.72
673.61	21661.66
673.75	21617.19
673.89	21860.60
674.03	21521.23
674.17	21301.22
674.31	21523.57
674.45	21408.88
674.59	21441.65
674.73	21378.45
674.87	20891.62
675.01	21067.16
675.15	21055.46
675.29	20903.32
675.43	20748.85
675.56	20851.83
675.70	21034.39
675.84	20922.05
675.98	20510.11
676.12	20992.26
676.26	21003.97
676.40	21001.63
676.54	20821.41
676.68	20826.09
676.82	19985.83
676.96	20142.65
677.10	20271.38
677.23	20065.41
677.37	20020.94
677.51	20086.48
677.65	19992.86
677.79	19847.74
677.93	19737.74
678.07	19871.15
678.21	19854.76
678.34	19800.93
678.48	19735.40
678.62	19562.20
678.76	19463.90
678.90	19454.53
679.04	19728.38
679.18	19278.99
679.31	19438.15
679.45	19089.41
679.59	19164.31
679.73	19199.41
679.87	19267.29
680.00	19176.01
680.14	18946.64
680.28	19026.21
680.42	18944.30
680.56	19115.16
680.70	18817.91
680.83	18686.84
680.97	18754.71
681.11	18913.87
681.25	18595.56
681.39	18625.98
681.52	18515.98
681.66	18817.91
681.80	18338.10
681.94	18665.77
682.07	18633.00
682.21	18181.28
682.35	18253.84
682.49	18122.77
682.62	18071.28
682.76	18349.80
682.90	18317.03
683.04	18036.17
683.17	18038.51
683.31	18209.37
683.45	18228.09
683.59	18001.06
683.72	17975.31
683.86	17715.51
684.00	17600.83
684.13	17759.98
684.27	17626.57
684.41	17291.88
684.55	17324.65
684.68	17081.23
684.82	17142.08
684.96	17181.87
685.09	17011.01
685.23	17359.75
685.37	17130.38
685.50	17118.68
685.64	17191.23
685.78	16978.25
685.91	17036.76
686.05	17205.28
686.19	16910.37
686.32	16851.86
686.46	16570.99
686.60	16547.59
686.73	16442.26
686.87	16428.22
687.01	16517.16
687.14	15939.05
687.28	16042.03
687.42	16486.73
687.55	16367.37
687.69	15857.13
687.82	16184.80
687.96	15962.45
688.10	15969.48
688.23	16016.29
688.37	16065.44
688.50	16011.60
688.64	16002.24
688.78	15815.00
688.91	15840.75
689.05	15819.68
689.18	15297.74
689.32	15253.27
689.46	15372.64
689.59	15445.20
689.73	15499.03
689.86	15236.89
690.00	15335.19
690.13	15129.22
690.27	15145.61
690.41	15105.82
690.54	14794.53
690.68	15248.59
690.81	14822.61
690.95	15103.48
691.08	14965.39
691.22	14937.30
691.35	14892.83
691.49	14792.19
691.62	14890.49
691.76	14644.73
691.89	14700.90
692.03	14586.22
692.16	14525.36
692.30	14391.95
692.43	14288.97
692.57	14279.61
692.70	14265.57
692.84	14202.37
692.97	14050.24
693.11	14073.64
693.24	13886.40
693.38	13961.30
693.51	13965.98
693.65	14122.79
693.78	13977.68
693.92	13886.40
694.05	13827.88
694.19	13799.80
694.32	13542.34
694.45	13584.47
694.59	13352.76
694.72	13228.71
694.86	13027.42
694.99	13078.91
695.13	13167.85
695.26	13144.45
695.39	13465.10
695.53	13233.39
695.66	13125.72
695.80	13247.43
695.93	13043.81
696.07	13092.96
696.20	13132.75
696.33	12891.67
696.47	12886.99
696.60	12725.49
696.73	12847.20
696.87	12662.30
697.00	12564.00
697.14	12531.23
697.27	12374.41
697.40	12248.02
697.54	12393.14
697.67	12119.29
697.80	12311.22
697.94	12046.74
698.07	12098.23
698.21	12191.85
698.34	12231.64
698.47	12109.93
698.61	12313.56
698.74	12020.99
698.87	12175.47
699.01	11777.58
699.14	11662.89
699.27	11822.05
699.40	11723.74
699.54	11978.86
699.67	11672.25
699.80	11480.33
699.94	11321.17
700.07	11332.87
700.20	11337.56
700.34	11283.72
700.47	11225.21
700.60	11295.43
700.73	11302.45
700.87	11290.74
701.00	11080.10
701.13	10970.09
701.26	11154.99
701.40	11007.54
701.53	10867.11
701.66	11028.60
701.79	10897.53
701.93	10923.28
702.06	10890.51
702.19	10855.40
702.32	10747.74
702.46	10464.54
702.59	10431.77
702.72	10242.18
702.85	10658.80
702.99	10328.78
703.12	10375.59
703.25	10207.08
703.38	10207.08
703.51	10466.88
703.65	10078.35
703.78	10298.36
703.91	10289.00
704.04	10143.88
704.17	10204.74
704.31	10197.71
704.44	9991.75
704.57	9989.41
704.70	9682.80
704.83	9706.20
704.96	9811.53
705.10	9570.45
705.23	9685.14
>>>>>End Processed Spectral Data<<<<<
