SpectraSuite Data File
++++++++++++++++++++++++++++++++++++
Date: Fri Oct 18 13:58:43 GMT-05:00 2013
User: bianchi
Dark Spectrum Present: No
Reference Spectrum Present: No
Number of Sampled Component Spectra: 1
Spectrometers: USB2+H05261
Integration Time (usec): 50000 (USB2+H05261)
Spectra Averaged: 1 (USB2+H05261)
Boxcar Smoothing: 0 (USB2+H05261)
Correct for Electrical Dark: No (USB2+H05261)
Strobe/Lamp Enabled: No (USB2+H05261)
Correct for Detector Non-linearity: No (USB2+H05261)
Correct for Stray Light: No (USB2+H05261)
Number of Pixels in Processed Spectrum: 2048
>>>>>Begin Processed Spectral Data<<<<<
365.73	0.00
365.92	0.00
366.12	0.00
366.32	0.00
366.52	0.00
366.72	0.00
366.91	0.00
367.11	0.00
367.31	0.00
367.51	0.00
367.70	0.00
367.90	0.00
368.10	0.00
368.30	0.00
368.49	0.00
368.69	0.00
368.89	0.00
369.09	0.00
369.28	0.00
369.48	0.00
369.68	0.00
369.87	0.00
370.07	0.00
370.27	0.00
370.47	0.00
370.66	126.39
370.86	159.16
371.06	39.79
371.25	152.13
371.45	142.77
371.65	154.48
371.84	93.62
372.04	152.13
372.24	105.32
372.44	227.03
372.63	184.90
372.83	189.58
373.03	220.01
373.22	173.20
373.42	180.22
373.62	227.03
373.81	196.60
374.01	170.86
374.21	243.42
374.40	126.39
374.60	205.97
374.79	299.59
374.99	322.99
375.19	236.39
375.38	259.80
375.58	259.80
375.78	252.78
375.97	248.10
376.17	238.73
376.37	215.33
376.56	278.52
376.76	224.69
376.95	210.65
377.15	248.10
377.35	287.89
377.54	255.12
377.74	276.18
377.93	306.61
378.13	229.37
378.33	280.86
378.52	245.76
378.72	301.93
378.91	294.91
379.11	273.84
379.31	283.20
379.50	348.74
379.70	369.80
379.89	276.18
380.09	297.25
380.28	362.78
380.48	315.97
380.68	365.12
380.87	304.27
381.07	330.02
381.26	285.55
381.46	308.95
381.65	184.90
381.85	264.48
382.04	325.33
382.24	294.91
382.43	386.19
382.63	320.65
382.83	393.21
383.02	372.15
383.22	299.59
383.41	379.17
383.61	304.27
383.80	344.06
384.00	341.72
384.19	386.19
384.39	402.57
384.58	344.06
384.78	355.76
384.97	388.53
385.17	383.85
385.36	421.30
385.56	404.91
385.75	402.57
385.95	358.10
386.14	400.23
386.34	390.87
386.53	409.59
386.72	416.62
386.92	428.32
387.11	433.00
387.31	442.36
387.50	416.62
387.70	404.91
387.89	362.78
388.09	397.89
388.28	470.45
388.48	425.98
388.67	461.09
388.86	484.49
389.06	465.77
389.25	444.70
389.45	449.38
389.64	521.94
389.84	463.43
390.03	458.74
390.22	463.43
390.42	369.80
390.61	472.79
390.81	491.51
391.00	461.09
391.19	475.13
391.39	491.51
391.58	531.30
391.78	510.24
391.97	477.47
392.16	503.22
392.36	498.53
392.55	468.11
392.75	540.66
392.94	486.83
393.13	526.62
393.33	489.17
393.52	552.37
393.71	638.97
393.91	601.52
394.10	554.71
394.29	550.03
394.49	535.98
394.68	601.52
394.88	571.09
395.07	641.31
395.26	631.94
395.46	634.29
395.65	596.84
395.84	601.52
396.04	723.23
396.23	622.58
396.42	561.73
396.62	660.03
396.81	676.41
397.00	631.94
397.19	622.58
397.39	763.01
397.58	636.63
397.77	662.37
397.97	657.69
398.16	610.88
398.35	692.80
398.55	641.31
398.74	713.86
398.93	739.61
399.12	685.78
399.32	695.14
399.51	765.36
399.70	711.52
399.90	718.54
400.09	755.99
400.28	758.33
400.47	734.93
400.67	840.25
400.86	779.40
401.05	816.85
401.24	709.18
401.44	889.40
401.63	774.72
401.82	837.91
402.01	866.00
402.21	755.99
402.40	795.78
402.59	823.87
402.78	716.20
402.97	835.57
403.17	809.83
403.36	823.87
403.55	858.98
403.74	954.94
403.93	800.46
404.13	938.55
404.32	856.64
404.51	873.02
404.70	929.19
404.89	954.94
405.09	987.71
405.28	915.15
405.47	950.26
405.66	922.17
405.85	926.85
406.05	985.37
406.24	894.08
406.43	1020.47
406.62	1036.86
406.81	1015.79
407.00	987.71
407.20	917.49
407.39	1011.11
407.58	1076.65
407.77	1048.56
407.96	1043.88
408.15	1050.90
408.34	1053.24
408.54	1090.69
408.73	1074.31
408.92	1090.69
409.11	1090.69
409.30	1116.44
409.49	1125.80
409.68	1050.90
409.87	1071.97
410.07	1109.41
410.26	1235.80
410.45	1139.84
410.64	1139.84
410.83	1207.72
411.02	1163.25
411.21	1249.85
411.40	1167.93
411.59	1259.21
411.78	1256.87
411.98	1158.57
412.17	1371.55
412.36	1320.06
412.55	1306.02
412.74	1303.68
412.93	1287.29
413.12	1282.61
413.31	1373.89
413.50	1345.81
413.69	1371.55
413.88	1392.62
414.07	1444.11
414.26	1460.49
414.45	1509.65
414.64	1519.01
414.83	1476.88
415.02	1519.01
415.22	1446.45
415.41	1598.59
415.60	1479.22
415.79	1533.05
415.98	1626.67
416.17	1535.39
416.36	1624.33
416.55	1696.89
416.74	1724.97
416.93	1633.69
417.12	1603.27
417.31	1591.56
417.50	1645.40
417.69	1757.74
417.88	1607.95
418.07	1687.53
418.26	1750.72
418.45	1809.23
418.64	1778.81
418.83	1827.96
419.02	1724.97
419.21	1832.64
419.39	1776.47
419.58	1757.74
419.77	1827.96
419.96	1818.60
420.15	1811.57
420.34	1806.89
420.53	1839.66
420.72	1886.47
420.91	1919.24
421.10	1954.35
421.29	1914.56
421.48	1874.77
421.67	1944.99
421.86	1830.30
422.05	1984.77
422.24	1940.30
422.43	1973.07
422.61	1954.35
422.80	2087.76
422.99	2001.16
423.18	2005.84
423.37	2043.29
423.56	1942.64
423.75	1977.75
423.94	1989.46
424.13	1856.04
424.32	1816.26
424.50	2097.12
424.69	1928.60
424.88	2026.90
425.07	1998.82
425.26	1989.46
425.45	1954.35
425.64	2111.16
425.83	2024.56
426.01	2118.18
426.20	2073.71
426.39	2024.56
426.58	1987.11
426.77	2073.71
426.96	2022.22
427.15	2136.91
427.33	2087.76
427.52	2076.06
427.71	2125.21
427.90	2188.40
428.09	2141.59
428.28	2155.63
428.46	2218.83
428.65	2120.53
428.84	2312.45
429.03	2232.87
429.22	2202.44
429.40	2162.66
429.59	2263.30
429.78	2141.59
429.97	2097.12
430.16	2214.15
430.34	2326.49
430.53	2340.54
430.72	2310.11
430.91	2214.15
431.10	2249.25
431.28	2211.81
431.47	2338.20
431.66	2380.32
431.85	2263.30
432.03	2340.54
432.22	2530.12
432.41	2298.41
432.60	2478.63
432.79	2462.24
432.97	2483.31
433.16	2485.65
433.35	2335.85
433.54	2492.67
433.72	2518.42
433.91	2436.50
434.10	2483.31
434.28	2534.80
434.47	2534.80
434.66	2422.45
434.85	2525.44
435.03	2525.44
435.22	2555.86
435.41	2712.68
435.59	2616.72
435.78	2668.21
435.97	2684.59
436.16	2588.63
436.34	2621.40
436.53	2649.49
436.72	2621.40
436.90	2661.19
437.09	2724.38
437.28	2738.43
437.46	2691.62
437.65	2803.96
437.84	2740.77
438.02	2846.09
438.21	2745.45
438.40	2780.56
438.58	2841.41
438.77	2881.20
438.96	2932.69
439.14	2988.86
439.33	2897.58
439.52	3021.63
439.70	2885.88
439.89	3045.04
440.08	2993.55
440.26	3035.67
440.45	2946.73
440.63	3220.58
440.82	3157.38
441.01	2986.52
441.19	3206.53
441.38	3234.62
441.57	3185.47
441.75	3265.05
441.94	3251.00
442.12	3318.88
442.31	3255.69
442.50	3260.37
442.68	3234.62
442.87	3300.16
443.05	3438.25
443.24	3272.07
443.43	3290.79
443.61	3272.07
443.80	3435.91
443.98	3288.45
444.17	3159.72
444.35	3405.48
444.54	3527.19
444.73	3449.95
444.91	3452.29
445.10	3316.54
445.28	3389.10
445.47	3400.80
445.65	3398.46
445.84	3463.99
446.02	3468.67
446.21	3314.20
446.39	3473.36
446.58	3623.15
446.77	3485.06
446.95	3454.63
447.14	3555.27
447.32	3463.99
447.51	3482.72
447.69	3494.42
447.88	3515.48
448.06	3517.83
448.25	3438.25
448.43	3461.65
448.62	3351.65
448.80	3609.11
448.99	3581.02
449.17	3489.74
449.36	3475.70
449.54	3609.11
449.73	3627.83
449.91	3672.30
450.10	3627.83
450.28	3625.49
450.46	3595.06
450.65	3789.33
450.83	3667.62
451.02	3681.66
451.20	3756.56
451.39	3733.15
451.57	3754.22
451.76	3592.72
451.94	3770.60
452.13	3812.73
452.31	3899.33
452.49	3789.33
452.68	3782.31
452.86	3758.90
453.05	3927.42
453.23	3847.84
453.42	3843.16
453.60	3803.37
453.78	3873.59
453.97	3794.01
454.15	3936.78
454.34	3927.42
454.52	4091.26
454.70	4002.32
454.89	4219.99
455.07	4030.40
455.26	4004.66
455.44	4042.11
455.62	4011.68
455.81	4077.21
455.99	3960.19
456.17	4095.94
456.36	4147.43
456.54	4259.78
456.73	4168.49
456.91	4332.33
457.09	4332.33
457.28	4369.78
457.46	4318.29
457.64	4227.01
457.83	4304.25
458.01	4332.33
458.19	4290.20
458.38	4301.90
458.56	4339.35
458.74	4454.04
458.93	4435.32
459.11	4437.66
459.29	4353.40
459.48	4472.76
459.66	4407.23
459.84	4615.54
460.03	4521.92
460.21	4540.64
460.39	4400.21
460.57	4559.36
460.76	4517.23
460.94	4599.15
461.12	4634.26
461.31	4580.43
461.49	4547.66
461.67	4538.30
461.85	4636.60
462.04	4608.51
462.22	4746.61
462.40	4753.63
462.59	4662.35
462.77	4877.68
462.95	4784.06
463.13	4706.82
463.32	4540.64
463.50	4695.11
463.68	4784.06
463.86	4720.86
464.05	4610.86
464.23	4767.67
464.41	4947.89
464.59	4739.58
464.78	4917.47
464.96	4821.50
465.14	4865.97
465.32	4894.06
465.50	4877.68
465.69	5034.49
465.87	5074.28
466.05	5004.07
466.23	4870.65
466.41	4877.68
466.60	5226.42
466.78	5013.43
466.96	5179.61
467.14	5121.09
467.32	5064.92
467.51	5109.39
467.69	5013.43
467.87	5114.07
468.05	5109.39
468.23	5015.77
468.41	4947.89
468.60	5191.31
468.78	5184.29
468.96	5139.82
469.14	5254.50
469.32	5128.11
469.50	5247.48
469.69	5334.08
469.87	5390.25
470.05	5413.66
470.23	5249.82
470.41	5263.86
470.59	5479.19
470.77	5352.81
470.95	5425.36
471.14	5638.35
471.32	5364.51
471.50	5542.39
471.68	5528.35
471.86	5640.69
472.04	5476.85
472.22	5710.91
472.40	5483.88
472.58	5582.18
472.77	5778.78
472.95	5720.27
473.13	5956.66
473.31	5872.40
473.49	5792.83
473.67	5827.93
473.85	5823.25
474.03	5942.62
474.21	5951.98
474.39	5760.06
474.57	6122.84
474.75	6167.31
474.93	6167.31
475.12	6150.93
475.30	6083.05
475.48	6260.93
475.66	6134.54
475.84	6312.42
476.02	6270.30
476.20	6059.65
476.38	6424.77
476.56	6569.88
476.74	6506.69
476.92	6457.54
477.10	6586.27
477.28	6513.71
477.46	6616.69
477.64	6560.52
477.82	6785.21
478.00	6888.20
478.18	6750.10
478.36	6958.41
478.54	6981.82
478.72	7047.35
478.90	6965.43
479.08	7070.76
479.26	7098.84
479.44	7225.23
479.62	7445.24
479.80	7360.98
479.98	7232.26
480.16	7428.86
480.34	7274.38
480.52	7655.89
480.70	7524.82
480.88	7419.50
481.06	7808.03
481.24	7658.23
481.41	7681.64
481.59	7868.88
481.77	7960.16
481.95	7936.76
482.13	7960.16
482.31	7976.55
482.49	8241.03
482.67	8198.90
482.85	8280.82
483.03	8456.36
483.21	8514.87
483.39	8629.56
483.57	8449.33
483.74	8650.62
483.92	8566.36
484.10	8564.02
484.28	8599.13
484.46	9085.96
484.64	9181.92
484.82	8980.64
485.00	9114.05
485.18	8978.30
485.35	9238.09
485.53	9341.08
485.71	9210.01
485.89	9528.32
486.07	9385.55
486.25	9355.12
486.43	9476.83
486.61	9867.70
486.78	9790.46
486.96	9970.68
487.14	10087.71
487.32	9886.42
487.50	10162.61
487.68	10256.23
487.85	10256.23
488.03	10317.08
488.21	10537.09
488.39	10188.35
488.57	10462.19
488.75	10679.86
488.92	10682.20
489.10	10883.49
489.28	10839.02
489.46	11166.70
489.64	10918.60
489.81	11073.07
489.99	11115.20
490.17	11159.67
490.35	11185.42
490.53	11309.47
490.70	11679.27
490.88	11641.82
491.06	11782.26
491.24	11744.81
491.41	11822.05
491.59	11793.96
491.77	11845.45
491.95	11733.11
492.13	12058.44
492.30	11957.80
492.48	11990.56
492.66	12016.31
492.84	12336.96
493.01	12512.50
493.19	12285.47
493.37	12849.54
493.54	12510.16
493.72	12772.30
493.90	12723.15
494.08	13046.15
494.25	13158.49
494.43	12978.27
494.61	12872.95
494.79	13156.15
494.96	13378.50
495.14	13331.69
495.32	13406.59
495.49	13703.84
495.67	13486.17
495.85	13451.06
496.02	13806.82
496.20	13717.88
496.38	13776.39
496.55	13909.80
496.73	14080.66
496.91	13923.85
497.09	14340.46
497.26	14127.47
497.44	14162.58
497.62	14061.94
497.79	14614.30
497.97	14314.72
498.14	14679.84
498.32	14644.73
498.50	14630.69
498.67	14846.02
498.85	14855.38
499.03	14808.57
499.20	14953.68
499.38	14984.11
499.56	15227.53
499.73	15040.28
499.91	15255.61
500.08	15169.01
500.26	15311.78
500.44	15087.09
500.61	15267.31
500.79	15131.56
500.97	15407.75
501.14	15499.03
501.32	16027.99
501.49	15592.65
501.67	15646.48
501.84	15658.18
502.02	15487.32
502.20	15791.59
502.37	16100.55
502.55	16027.99
502.72	16065.44
502.90	16023.31
503.07	15756.49
503.25	16191.83
503.43	16093.52
503.60	16407.16
503.78	16498.44
503.95	16112.25
504.13	16472.69
504.30	16638.87
504.48	16601.42
504.65	16655.25
504.83	16631.85
505.01	16985.27
505.18	17071.87
505.36	17027.40
505.53	16655.25
505.71	16851.86
505.88	16957.18
506.06	16994.63
506.23	17289.54
506.41	17095.27
506.58	17427.63
506.76	17455.72
506.93	17181.87
507.11	17151.45
507.28	17521.25
507.46	17422.95
507.63	17521.25
507.81	17334.01
507.98	17518.91
508.16	17460.40
508.33	17956.59
508.50	17593.81
508.68	17987.02
508.85	17853.61
509.03	18129.79
509.20	17729.56
509.38	18242.14
509.55	18239.79
509.73	18008.08
509.90	18167.24
510.08	18185.96
510.25	18120.43
510.42	18354.48
510.60	18654.07
510.77	18537.04
510.95	18647.05
511.12	18471.51
511.30	18471.51
511.47	19002.81
511.64	18714.92
511.82	18644.71
511.99	18904.51
512.17	19077.71
512.34	18789.82
512.51	18649.39
512.69	18892.80
512.86	19087.07
513.04	19096.43
513.21	19428.79
513.38	19351.55
513.56	19480.28
513.73	19178.35
513.90	19274.31
514.08	19260.27
514.25	19293.04
514.43	19569.22
514.60	19573.90
514.77	19723.69
514.95	19803.27
515.12	19470.92
515.29	19793.91
515.47	19707.31
515.64	19716.67
515.81	19899.23
515.99	19950.73
516.16	20184.78
516.33	20259.68
516.51	19866.47
516.68	20137.97
516.85	19702.63
517.03	20217.55
517.20	20264.36
517.37	20259.68
517.54	20163.72
517.72	20538.20
517.89	20379.04
518.06	20343.94
518.24	20566.29
518.41	20783.96
518.58	20690.34
518.75	20680.97
518.93	20503.09
519.10	20692.68
519.27	20748.85
519.45	20587.35
519.62	20882.26
519.79	20781.62
519.96	21010.99
520.14	20989.92
520.31	20975.88
520.48	21284.83
520.65	21172.49
520.83	21434.63
521.00	21469.73
521.17	20994.61
521.34	21069.50
521.52	21287.17
521.69	21521.23
521.86	21631.23
522.03	21610.17
522.20	21659.32
522.38	21928.48
522.55	21666.34
522.72	21532.93
522.89	21596.12
523.07	21944.86
523.24	22003.38
523.41	21968.27
523.58	21834.86
523.75	22005.72
523.92	21961.25
524.10	22097.00
524.27	21820.81
524.44	21994.01
524.61	22593.19
524.78	22270.20
524.96	22221.05
525.13	22052.53
525.30	22162.53
525.47	22478.50
525.64	22576.81
525.81	22305.31
525.98	22679.79
526.16	22457.44
526.33	22778.09
526.50	22326.37
526.67	22434.03
526.84	22532.34
527.01	22450.42
527.18	22815.54
527.36	22822.56
527.53	22724.26
527.70	22986.40
527.87	22991.08
528.04	23084.70
528.21	22448.08
528.38	23051.94
528.55	22967.68
528.72	22953.63
528.89	23267.27
529.07	23288.33
529.24	22965.34
529.41	23452.17
529.58	23222.80
529.75	23372.59
529.92	23115.13
530.09	23482.59
530.26	23314.08
530.43	23255.56
530.60	23232.16
530.77	23269.61
530.94	23709.63
531.11	23489.62
531.28	23482.59
531.46	23414.72
531.63	23527.06
531.80	23999.85
531.97	23807.93
532.14	23850.06
532.31	23831.33
532.48	24037.30
532.65	23653.45
532.82	23412.38
532.99	24025.60
533.16	24116.88
533.33	24119.22
533.50	24465.62
533.67	24168.37
533.84	24091.13
534.01	24559.24
534.18	24173.05
534.35	24229.23
534.52	24013.90
534.69	24704.35
534.86	24690.31
535.03	24353.27
535.20	24350.93
535.37	24643.50
535.54	24533.50
535.71	24327.53
535.88	24643.50
536.05	24442.21
536.22	24582.65
536.38	24840.11
536.55	24657.54
536.72	24648.18
536.89	24694.99
537.06	24631.80
537.23	25088.20
537.40	24711.38
537.57	24723.08
537.74	24929.05
537.91	24943.09
538.08	24999.26
538.25	24884.58
538.42	24875.21
538.59	25298.85
538.75	24465.62
538.92	25069.48
539.09	25385.45
539.26	25205.23
539.43	25149.06
539.60	25240.34
539.77	25282.47
539.94	25647.59
540.11	25287.15
540.28	25039.05
540.44	25362.04
540.61	25558.65
540.78	25289.49
540.95	25436.94
541.12	25521.20
541.29	25369.07
541.46	25642.91
541.62	25298.85
541.79	25685.04
541.96	25233.32
542.13	25811.43
542.30	25872.28
542.47	25769.30
542.63	25804.41
542.80	26221.02
542.97	26132.08
543.14	26249.11
543.31	25993.99
543.48	25937.82
543.64	26476.14
543.81	26448.05
543.98	26209.32
544.15	26387.20
544.32	26700.83
544.48	26630.62
544.65	25909.73
544.82	26295.92
544.99	26017.40
545.16	26401.24
545.32	25862.92
545.49	26560.40
545.66	26735.94
545.83	26572.10
546.00	26670.40
546.16	26522.95
546.33	26024.42
546.50	26181.23
546.67	26789.77
546.83	26272.51
547.00	26707.85
547.17	26607.21
547.34	27271.92
547.50	26857.65
547.67	26366.13
547.84	26787.43
548.00	26721.90
548.17	26878.71
548.34	26693.81
548.51	27351.50
548.67	26836.58
548.84	26962.97
549.01	26859.99
549.18	26934.88
549.34	26965.31
549.51	27339.80
549.68	27089.36
549.84	27220.43
550.01	26902.12
550.18	27021.48
550.34	26824.88
550.51	27611.30
550.68	26988.72
550.84	26892.76
551.01	27302.35
551.18	27370.22
551.34	27047.23
551.51	27065.96
551.68	27515.34
551.84	27267.24
552.01	27257.88
552.18	27559.81
552.34	27531.72
552.51	27669.81
552.68	27487.25
552.84	27716.62
553.01	27840.67
553.18	27513.00
553.34	27749.39
553.51	27716.62
553.67	27681.52
553.84	27817.27
554.01	27641.73
554.17	27463.85
554.34	27910.89
554.51	27613.64
554.67	27922.59
554.84	27627.68
555.00	27681.52
555.17	27536.40
555.33	28025.57
555.50	27854.72
555.67	27889.82
555.83	27494.27
556.00	27819.61
556.16	28318.14
556.33	28388.36
556.50	27814.93
556.66	28350.91
556.83	28119.20
556.99	28379.00
557.16	28753.48
557.32	28397.72
557.49	28369.63
557.65	28149.62
557.82	27704.92
557.98	28339.21
558.15	28367.29
558.32	28386.02
558.48	28006.85
558.65	28250.27
558.81	28643.48
558.98	28542.83
559.14	28376.66
559.31	28552.20
559.47	28194.09
559.64	28535.81
559.80	28573.26
559.97	28374.31
560.13	28669.22
560.30	28477.30
560.46	28465.60
560.63	28531.13
560.79	28453.89
560.96	28451.55
561.12	28168.35
561.29	28645.82
561.45	28404.74
561.61	28507.72
561.78	28985.19
561.94	28685.61
562.11	28739.44
562.27	28673.90
562.44	28648.16
562.60	27903.87
562.77	28613.05
562.93	28540.49
563.10	28556.88
563.26	28496.02
563.42	28737.10
563.59	29064.77
563.75	28704.33
563.92	28811.99
564.08	28402.40
564.24	28833.06
564.41	29027.32
564.57	28910.30
564.74	28416.44
564.90	29050.73
565.07	28966.47
565.23	28872.85
565.39	28814.34
565.56	29390.11
565.72	28563.90
565.88	29146.69
566.05	28870.51
566.21	29074.13
566.38	28559.22
566.54	29001.58
566.70	28959.45
566.87	29331.59
567.03	29219.25
567.19	29259.04
567.36	28877.53
567.52	28947.75
567.68	29420.53
567.85	28992.22
568.01	29036.69
568.17	28566.24
568.34	29102.22
568.50	28744.12
568.66	28940.72
568.83	29380.74
568.99	29247.33
569.15	29212.23
569.32	28727.74
569.48	29003.92
569.64	29113.92
569.81	28975.83
569.97	28727.74
570.13	29214.57
570.30	29081.16
570.46	29097.54
570.62	29284.78
570.78	28947.75
570.95	29123.29
571.11	29149.03
571.27	28917.32
571.43	29064.77
571.60	29362.02
571.76	28943.06
571.92	29261.38
572.09	29474.37
572.25	29151.37
572.41	29252.02
572.57	29228.61
572.74	28826.04
572.90	29177.12
573.06	28877.53
573.22	29106.90
573.38	29523.52
573.55	28861.15
573.71	29535.22
573.87	29532.88
574.03	29294.14
574.20	29457.98
574.36	29303.51
574.52	29371.38
574.68	28940.72
574.84	29371.38
575.01	29457.98
575.17	29205.20
575.33	29202.86
575.49	29034.35
575.65	29343.30
575.82	29507.13
575.98	28905.62
576.14	29486.07
576.30	29399.47
576.46	29160.73
576.62	29160.73
576.79	29687.36
576.95	29209.89
577.11	29404.15
577.27	29535.22
577.43	29376.06
577.59	29460.32
577.75	29661.61
577.92	29310.53
578.08	29397.13
578.24	29305.85
578.40	29287.12
578.56	29500.11
578.72	29631.18
578.88	29593.73
579.04	29647.57
579.21	29544.58
579.37	29523.52
579.53	29252.02
579.69	28683.27
579.85	29483.73
580.01	29369.04
580.17	29497.77
580.33	29366.70
580.49	29387.77
580.65	29741.19
580.82	29626.50
580.98	29490.75
581.14	29544.58
581.30	29472.03
581.46	29453.30
581.62	29359.68
581.78	29509.47
581.94	29806.72
582.10	29467.34
582.26	30019.71
582.42	29530.54
582.58	29752.89
582.74	29254.36
582.90	29652.25
583.06	29619.48
583.22	29331.59
583.38	29460.32
583.54	29181.80
583.70	29570.33
583.86	29680.33
584.02	29504.79
584.18	29993.97
584.34	29563.31
584.50	30005.67
584.66	29256.70
584.82	29359.68
584.98	29874.60
585.14	29689.70
585.30	29343.30
585.46	29504.79
585.62	29504.79
585.78	29582.03
585.94	29378.40
586.10	29582.03
586.26	29546.92
586.42	30136.74
586.58	29724.80
586.74	29455.64
586.90	29488.41
587.06	29266.06
587.22	29467.34
587.38	29514.16
587.54	29516.50
587.70	29565.65
587.86	29832.47
588.02	29823.11
588.18	30012.69
588.34	29825.45
588.49	29694.38
588.65	29865.24
588.81	29336.27
588.97	30155.46
589.13	29872.26
589.29	29996.31
589.45	29837.15
589.61	29977.58
589.77	30300.58
589.93	29820.77
590.08	30029.07
590.24	29813.74
590.40	29912.05
590.56	30040.78
590.72	29591.39
590.88	29434.58
591.04	29631.18
591.20	29947.15
591.35	29610.12
591.51	30221.00
591.67	29954.18
591.83	29944.81
591.99	30033.75
592.15	29802.04
592.31	29530.54
592.46	29837.15
592.62	29982.26
592.78	29516.50
592.94	29762.25
593.10	30319.30
593.26	30094.61
593.41	30068.86
593.57	30087.59
593.73	29921.41
593.89	29687.36
594.05	30291.21
594.20	30031.41
594.36	30015.03
594.52	30026.73
594.68	29926.09
594.84	29596.07
594.99	29977.58
595.15	30263.13
595.31	29975.24
595.47	30110.99
595.62	30171.85
595.78	30050.14
595.94	29956.52
596.10	30155.46
596.25	30024.39
596.41	29757.57
596.57	29685.01
596.73	30057.16
596.88	29968.22
597.04	30270.15
597.20	30022.05
597.36	30101.63
597.51	30595.48
597.67	30071.20
597.83	30174.19
597.99	30043.12
598.14	29820.77
598.30	30396.54
598.46	29860.55
598.61	30150.78
598.77	29949.50
598.93	30649.32
599.09	30148.44
599.24	30548.67
599.40	29785.66
599.56	30125.04
599.71	30373.13
599.87	30073.54
600.03	30438.67
600.18	30125.04
600.34	30052.48
600.50	30099.29
600.65	30469.09
600.81	30469.09
600.97	30286.53
601.12	30061.84
601.28	30019.71
601.44	30274.83
601.59	30476.12
601.75	30000.99
601.91	30375.47
602.06	29954.18
602.22	29652.25
602.37	29900.34
602.53	30206.95
602.69	30576.76
602.84	30445.69
603.00	30518.25
603.16	29991.62
603.31	30204.61
603.47	30532.29
603.62	29652.25
603.78	30356.75
603.94	29497.77
604.09	30153.12
604.25	30000.99
604.40	30017.37
604.56	30499.52
604.71	30377.81
604.87	30115.67
605.03	30256.11
605.18	30216.32
605.34	29965.88
605.49	29923.75
605.65	30169.51
605.80	29373.72
605.96	29982.26
606.12	30026.73
606.27	30148.44
606.43	30024.39
606.58	29930.77
606.74	30071.20
606.89	30148.44
607.05	30443.35
607.20	30178.87
607.36	30307.60
607.51	30211.64
607.67	30246.74
607.82	30204.61
607.98	30277.17
608.13	30064.18
608.29	30129.72
608.44	30340.36
608.60	30249.08
608.75	30249.08
608.91	29846.51
609.06	30162.48
609.22	30017.37
609.37	29783.32
609.53	29977.58
609.68	29888.64
609.84	29642.88
609.99	29865.24
610.15	29942.47
610.30	29708.42
610.46	29883.96
610.61	29788.00
610.76	29818.42
610.92	29898.00
611.07	29874.60
611.23	29907.37
611.38	29916.73
611.54	29584.37
611.69	29729.48
611.84	29614.80
612.00	29858.21
612.15	29979.92
612.31	29827.79
612.46	29961.20
612.62	29713.10
612.77	29972.90
612.92	29905.02
613.08	29521.18
613.23	29539.90
613.39	29399.47
613.54	29670.97
613.69	30050.14
613.85	29495.43
614.00	29219.25
614.15	29692.04
614.31	29254.36
614.46	29465.00
614.62	29273.08
614.77	29500.11
614.92	29776.30
615.08	29387.77
615.23	29422.87
615.38	29474.37
615.54	29254.36
615.69	29329.25
615.84	29467.34
616.00	29340.96
616.15	29525.86
616.30	29465.00
616.46	29647.57
616.61	29455.64
616.76	29909.71
616.92	29584.37
617.07	29514.16
617.22	28945.41
617.37	29319.89
617.53	29249.67
617.68	29149.03
617.83	29088.18
617.99	29205.20
618.14	28971.15
618.29	29053.07
618.45	28985.19
618.60	29024.98
618.75	29537.56
618.90	29355.00
619.06	29303.51
619.21	28854.12
619.36	29556.28
619.51	29060.09
619.67	28701.99
619.82	29078.82
619.97	28765.18
620.12	29209.89
620.28	28877.53
620.43	29219.25
620.58	29287.12
620.73	29303.51
620.89	28964.13
621.04	29186.48
621.19	28982.85
621.34	29020.30
621.49	28854.12
621.65	28922.00
621.80	28650.50
621.95	29036.69
622.10	28709.01
622.25	28463.25
622.41	28816.68
622.56	28603.69
622.71	28856.46
622.86	29092.86
623.01	28875.19
623.16	28720.71
623.32	28718.37
623.47	28718.37
623.62	28879.87
623.77	28563.90
623.92	28299.42
624.07	28416.44
624.23	28308.78
624.38	28652.84
624.53	28697.31
624.68	28390.70
624.83	28460.91
624.98	28484.32
625.13	28730.08
625.29	28547.51
625.44	28435.17
625.59	28086.43
625.74	28393.04
625.89	28503.04
626.04	28147.28
626.19	28285.37
626.34	28390.70
626.49	28369.63
626.65	28215.16
626.80	28510.07
626.95	28643.48
627.10	28388.36
627.25	28177.71
627.40	28308.78
627.55	27805.56
627.70	28142.60
627.85	27880.46
628.00	28037.28
628.15	28292.40
628.30	27819.61
628.45	27779.82
628.60	28212.82
628.76	28271.33
628.91	27864.08
629.06	27751.73
629.21	27833.65
629.36	28093.45
629.51	27679.18
629.66	27810.25
629.81	27630.02
629.96	27835.99
630.11	27714.28
630.26	28147.28
630.41	27913.23
630.56	27676.83
630.71	27889.82
630.86	27826.63
631.01	27903.87
631.16	27955.36
631.31	27758.75
631.46	27456.82
631.61	27903.87
631.76	27728.33
631.91	27950.68
632.06	27805.56
632.21	27522.36
632.36	27634.71
632.51	27522.36
632.66	27601.94
632.81	27496.61
632.96	27857.06
633.10	27693.22
633.25	27845.35
633.40	27452.14
633.55	27534.06
633.70	27278.94
633.85	27103.40
634.00	27042.55
634.15	26888.07
634.30	27367.88
634.45	27260.22
634.60	27374.91
634.75	27182.98
634.90	27292.99
635.05	27140.85
635.19	27197.02
635.34	27395.97
635.49	27461.51
635.64	27435.76
635.79	27138.51
635.94	27349.16
636.09	27384.27
636.24	27253.20
636.39	26988.72
636.53	27164.26
636.68	27063.61
636.83	26618.91
636.98	27253.20
637.13	27318.73
637.28	27482.57
637.43	27386.61
637.57	27218.09
637.72	26916.16
637.87	27208.73
638.02	27281.28
638.17	27215.75
638.32	26780.41
638.46	26768.71
638.61	26501.89
638.76	26700.83
638.91	26595.51
639.06	27105.74
639.20	26810.84
639.35	27012.12
639.50	26792.11
639.65	26904.46
639.80	27283.62
639.94	26738.28
640.09	26700.83
640.24	26698.49
640.39	26925.52
640.54	26747.64
640.68	26614.23
640.83	26742.96
640.98	26167.19
641.13	26794.45
641.27	26824.88
641.42	26600.19
641.57	26719.56
641.72	26469.12
641.86	26424.65
642.01	26426.99
642.16	26682.11
642.31	26464.44
642.45	26490.18
642.60	26520.61
642.75	26354.43
642.90	26480.82
643.04	26235.06
643.19	26455.08
643.34	26663.38
643.48	26405.92
643.63	26511.25
643.78	26665.72
643.93	26153.15
644.07	26588.49
644.22	26260.81
644.37	26277.19
644.51	26319.32
644.66	26251.45
644.81	25972.92
644.95	26085.27
645.10	25888.67
645.25	26169.53
645.39	26279.54
645.54	26118.04
645.69	25881.64
645.83	26267.83
645.98	26579.12
646.13	25972.92
646.27	26487.84
646.42	25963.56
646.57	25993.99
646.71	26230.38
646.86	26066.55
647.00	26235.06
647.15	25933.14
647.30	26132.08
647.44	25741.21
647.59	25745.89
647.74	25553.97
647.88	26284.22
648.03	25888.67
648.17	26111.02
648.32	25769.30
648.47	25879.30
648.61	26148.46
648.76	26118.04
648.90	25963.56
649.05	25905.05
649.20	25895.69
649.34	25844.20
649.49	25324.60
649.63	25401.83
649.78	25631.21
649.92	25383.11
650.07	25820.79
650.21	25832.49
650.36	25518.86
650.51	25745.89
650.65	25748.23
650.80	25486.09
650.94	25685.04
651.09	25371.41
651.23	25560.99
651.38	25560.99
651.52	25486.09
651.67	25359.70
651.81	25776.32
651.96	25743.55
652.10	25441.62
652.25	25837.17
652.39	25745.89
652.54	25518.86
652.68	25397.15
652.83	25507.16
652.97	25572.69
653.12	25319.92
653.26	25551.63
653.41	25254.38
653.55	25172.46
653.70	25308.21
653.84	24992.24
653.99	24795.64
654.13	25238.00
654.27	25345.66
654.42	25032.03
654.56	25053.09
654.71	25151.40
654.85	25048.41
655.00	25139.69
655.14	25223.95
655.29	24980.54
655.43	25017.99
655.57	25294.17
655.72	24931.39
655.86	25046.07
656.01	25053.09
656.15	24826.06
656.30	24947.77
656.44	24915.00
656.58	24727.76
656.73	24805.00
656.87	24704.35
657.01	24826.06
657.16	25207.57
657.30	24968.84
657.45	25130.33
657.59	24884.58
657.73	24725.42
657.88	24807.34
658.02	24826.06
658.16	24903.30
658.31	24521.79
658.45	24638.82
658.60	24687.97
658.74	24634.14
658.88	24500.73
659.03	24343.91
659.17	24830.74
659.31	24266.67
659.46	24587.33
659.60	24680.95
659.74	24173.05
659.89	24582.65
660.03	24353.27
660.17	24372.00
660.32	24259.65
660.46	24486.68
660.60	23793.89
660.74	23819.63
660.89	24002.19
661.03	24091.13
661.17	24313.48
661.32	24198.80
661.46	24194.12
661.60	23529.41
661.74	24329.87
661.89	24074.75
662.03	24407.11
662.17	23978.79
662.31	23929.64
662.46	23850.06
662.60	24285.40
662.74	23761.12
662.88	23646.43
663.03	23779.84
663.17	23651.11
663.31	23424.08
663.45	23896.87
663.60	23592.60
663.74	23316.42
663.88	23543.45
664.02	23468.55
664.17	23410.04
664.31	23520.04
664.45	23168.96
664.59	23798.57
664.73	23702.61
664.88	23206.41
665.02	23367.91
665.16	23241.52
665.30	23255.56
665.44	23262.58
665.59	23077.68
665.73	23218.11
665.87	23374.93
666.01	23421.74
666.15	23145.56
666.29	23276.63
666.44	22843.63
666.58	22937.25
666.72	22862.35
666.86	23115.13
667.00	23428.76
667.14	22817.88
667.28	22874.06
667.43	22459.78
667.57	22890.44
667.71	22733.62
667.85	22576.81
667.99	22637.66
668.13	22356.80
668.27	22572.13
668.41	22574.47
668.56	22359.14
668.70	22773.41
668.84	22333.39
668.98	22214.02
669.12	22588.51
669.26	22677.45
669.40	22471.48
669.54	22548.72
669.68	22078.27
669.82	22340.41
669.96	22412.97
670.10	22101.68
670.25	22321.69
670.39	22160.19
670.53	21792.73
670.67	22050.19
670.81	22300.62
670.95	21926.14
671.09	22127.42
671.23	21942.52
671.37	21839.54
671.51	22038.48
671.65	21930.82
671.79	21743.58
671.93	21645.27
672.07	21928.48
672.21	21703.79
672.35	21331.64
672.49	21493.14
672.63	21640.59
672.77	21408.88
672.91	21406.54
673.05	21172.49
673.19	21570.38
673.33	21245.04
673.47	21128.02
673.61	21043.76
673.75	21015.67
673.89	21256.75
674.03	21015.67
674.17	20971.20
674.31	21128.02
674.45	20835.45
674.59	20863.54
674.73	21235.68
674.87	20659.91
675.01	20563.95
675.15	21104.61
675.29	20624.80
675.43	20872.90
675.56	20690.34
675.70	20819.07
675.84	20517.14
675.98	20044.35
676.12	20655.23
676.26	20531.18
676.40	20570.97
676.54	20479.69
676.68	20411.81
676.82	19775.19
676.96	19960.09
677.10	20166.06
677.23	20259.68
677.37	19742.42
677.51	19800.93
677.65	19922.64
677.79	19906.26
677.93	19609.01
678.07	19688.59
678.21	19538.79
678.34	19454.53
678.48	19576.24
678.62	19414.74
678.76	19227.50
678.90	19323.46
679.04	19278.99
679.18	19220.48
679.31	18979.40
679.45	18883.44
679.59	18916.21
679.73	18888.12
679.87	18611.94
680.00	18913.87
680.14	18820.25
680.28	18834.29
680.42	18771.10
680.56	18972.38
680.70	18752.37
680.83	18796.84
680.97	18906.85
681.11	18464.49
681.25	18553.43
681.39	18391.93
681.52	18450.44
681.66	18207.03
681.80	17907.44
681.94	18012.76
682.07	18272.56
682.21	18066.60
682.35	18082.98
682.49	17869.99
682.62	17774.03
682.76	17727.22
682.90	18024.47
683.04	17888.71
683.17	17752.96
683.31	17872.33
683.45	17752.96
683.59	17474.44
683.72	17474.44
683.86	17752.96
684.00	17528.27
684.13	17858.29
684.27	17458.06
684.41	17177.19
684.55	16999.31
684.68	17046.12
684.82	17240.39
684.96	17165.49
685.09	16975.91
685.23	17046.12
685.37	16858.88
685.50	16781.64
685.64	16971.22
685.78	16716.11
685.91	16910.37
686.05	16648.23
686.19	16662.27
686.32	16514.82
686.46	16278.43
686.60	16100.55
686.73	16744.19
686.87	16100.55
687.01	16159.06
687.14	16149.70
687.28	15864.15
687.42	15854.79
687.55	15817.34
687.69	16058.42
687.82	16081.82
687.96	15847.77
688.10	16051.39
688.23	16114.59
688.37	15515.41
688.50	15583.29
688.64	15850.11
688.78	15857.13
688.91	15653.50
689.05	15548.18
689.18	15264.97
689.32	15143.27
689.46	15243.91
689.59	15288.38
689.73	15035.60
689.86	15021.56
690.00	14934.96
690.13	14661.12
690.27	14768.78
690.41	15030.92
690.54	14829.63
690.68	14740.69
690.81	14703.25
690.95	14820.27
691.08	14696.22
691.22	14750.06
691.35	14712.61
691.49	14668.14
691.62	14459.83
691.76	14583.88
691.89	14331.10
692.03	14075.98
692.16	14153.22
692.30	14132.15
692.43	14314.72
692.57	14036.19
692.70	14111.09
692.84	14090.02
692.97	13907.46
693.11	14164.92
693.24	13832.57
693.38	13935.55
693.51	13654.69
693.65	13757.67
693.78	13547.02
693.92	13474.46
694.05	13486.17
694.19	13483.83
694.32	13413.61
694.45	13254.45
694.59	13364.46
694.72	13128.06
694.86	13268.50
694.99	13116.36
695.13	12947.84
695.26	12849.54
695.39	13050.83
695.53	13130.41
695.66	12802.73
695.80	12915.08
695.93	12978.27
696.07	12868.27
696.20	13008.70
696.33	12798.05
696.47	12564.00
696.60	12627.19
696.73	12559.31
696.87	12559.31
697.00	12503.14
697.14	12437.61
697.27	12248.02
697.40	12346.33
697.54	12065.46
697.67	12116.95
697.80	11971.84
697.94	12121.63
698.07	11990.56
698.21	11721.40
698.34	11988.22
698.47	11964.82
698.61	11903.96
698.74	11934.39
698.87	12093.55
699.01	11517.78
699.14	11384.37
699.27	11648.85
699.40	11749.49
699.54	11550.54
699.67	11356.28
699.80	11304.79
699.94	11475.65
700.07	11192.44
700.20	10972.43
700.34	11000.52
700.47	11089.46
700.60	11035.63
700.73	11047.33
700.87	11138.61
701.00	10916.26
701.13	11005.20
701.26	11059.03
701.40	10981.79
701.53	10977.11
701.66	10775.83
701.79	10750.08
701.93	10846.04
702.06	10485.60
702.19	10352.19
702.32	10647.10
702.46	10518.37
702.59	10396.66
702.72	10317.08
702.85	10532.41
702.99	10008.13
703.12	10207.08
703.25	10223.46
703.38	10099.41
703.51	10139.20
703.65	10043.24
703.78	10370.91
703.91	9961.32
704.04	10106.43
704.17	9745.99
704.31	9984.73
704.44	9888.76
704.57	9743.65
704.70	9345.76
704.83	9549.39
704.96	9582.15
705.10	9593.86
705.23	9502.58
>>>>>End Processed Spectral Data<<<<<
