SpectraSuite Data File
++++++++++++++++++++++++++++++++++++
Date: Fri Oct 18 13:58:17 GMT-05:00 2013
User: bianchi
Dark Spectrum Present: No
Reference Spectrum Present: No
Number of Sampled Component Spectra: 1
Spectrometers: USB2+H05261
Integration Time (usec): 50000 (USB2+H05261)
Spectra Averaged: 1 (USB2+H05261)
Boxcar Smoothing: 0 (USB2+H05261)
Correct for Electrical Dark: No (USB2+H05261)
Strobe/Lamp Enabled: No (USB2+H05261)
Correct for Detector Non-linearity: No (USB2+H05261)
Correct for Stray Light: No (USB2+H05261)
Number of Pixels in Processed Spectrum: 2048
>>>>>Begin Processed Spectral Data<<<<<
365.73	0.00
365.92	0.00
366.12	0.00
366.32	0.00
366.52	0.00
366.72	0.00
366.91	0.00
367.11	0.00
367.31	0.00
367.51	0.00
367.70	0.00
367.90	0.00
368.10	0.00
368.30	0.00
368.49	0.00
368.69	0.00
368.89	0.00
369.09	0.00
369.28	0.00
369.48	0.00
369.68	0.00
369.87	0.00
370.07	0.00
370.27	0.00
370.47	0.00
370.66	147.45
370.86	79.58
371.06	107.66
371.25	184.90
371.45	110.01
371.65	147.45
371.84	100.64
372.04	128.73
372.24	161.50
372.44	187.24
372.63	156.82
372.83	234.05
373.03	224.69
373.22	198.95
373.42	205.97
373.62	220.01
373.81	224.69
374.01	241.08
374.21	154.48
374.40	184.90
374.60	220.01
374.79	222.35
374.99	220.01
375.19	283.20
375.38	285.55
375.58	203.63
375.78	175.54
375.97	241.08
376.17	278.52
376.37	180.22
376.56	184.90
376.76	241.08
376.95	271.50
377.15	238.73
377.35	262.14
377.54	313.63
377.74	236.39
377.93	285.55
378.13	257.46
378.33	308.95
378.52	243.42
378.72	229.37
378.91	203.63
379.11	255.12
379.31	320.65
379.50	210.65
379.70	348.74
379.89	264.48
380.09	278.52
380.28	236.39
380.48	294.91
380.68	344.06
380.87	229.37
381.07	397.89
381.26	348.74
381.46	346.40
381.65	390.87
381.85	351.08
382.04	351.08
382.24	362.78
382.43	322.99
382.63	269.16
382.83	290.23
383.02	365.12
383.22	318.31
383.41	292.57
383.61	318.31
383.80	369.80
384.00	322.99
384.19	313.63
384.39	353.42
384.58	320.65
384.78	332.36
384.97	372.15
385.17	416.62
385.36	468.11
385.56	374.49
385.75	383.85
385.95	383.85
386.14	365.12
386.34	430.66
386.53	322.99
386.72	369.80
386.92	388.53
387.11	423.64
387.31	440.02
387.50	367.46
387.70	425.98
387.89	393.21
388.09	402.57
388.28	402.57
388.48	456.40
388.67	416.62
388.86	409.59
389.06	369.80
389.25	395.55
389.45	440.02
389.64	447.04
389.84	468.11
390.03	465.77
390.22	435.34
390.42	514.92
390.61	496.19
390.81	482.15
391.00	505.56
391.19	528.96
391.39	566.41
391.58	461.09
391.78	500.87
391.97	442.36
392.16	510.24
392.36	571.09
392.55	533.64
392.75	592.16
392.94	498.53
393.13	575.77
393.33	535.98
393.52	650.67
393.71	568.75
393.91	617.90
394.10	622.58
394.29	662.37
394.49	573.43
394.68	575.77
394.88	615.56
395.07	610.88
395.26	613.22
395.46	526.62
395.65	688.12
395.84	575.77
396.04	606.20
396.23	599.18
396.42	599.18
396.62	664.71
396.81	660.03
397.00	720.88
397.19	634.29
397.39	660.03
397.58	669.39
397.77	622.58
397.97	603.86
398.16	645.99
398.35	725.57
398.55	692.80
398.74	695.14
398.93	732.59
399.12	753.65
399.32	664.71
399.51	760.67
399.70	732.59
399.90	706.84
400.09	819.19
400.28	748.97
400.47	751.31
400.67	765.36
400.86	711.52
401.05	884.72
401.24	826.21
401.44	753.65
401.63	800.46
401.82	802.80
402.01	767.70
402.21	767.70
402.40	793.44
402.59	847.27
402.78	844.93
402.97	844.93
403.17	802.80
403.36	861.32
403.55	833.23
403.74	915.15
403.93	870.68
404.13	875.36
404.32	943.24
404.51	947.92
404.70	926.85
404.89	919.83
405.09	926.85
405.28	994.73
405.47	929.19
405.66	863.66
405.85	987.71
406.05	894.08
406.24	870.68
406.43	968.98
406.62	997.07
406.81	1048.56
407.00	1015.79
407.20	973.66
407.39	971.32
407.58	1064.94
407.77	987.71
407.96	1067.28
408.15	1111.75
408.34	1083.67
408.54	1071.97
408.73	1158.57
408.92	1118.78
409.11	1146.86
409.30	1076.65
409.49	1224.10
409.68	1121.12
409.87	1114.10
410.07	1128.14
410.26	1158.57
410.45	1153.88
410.64	1186.65
410.83	1179.63
411.02	1170.27
411.21	1252.19
411.40	1233.46
411.59	1247.51
411.78	1270.91
411.98	1177.29
412.17	1301.34
412.36	1306.02
412.55	1355.17
412.74	1310.70
412.93	1348.15
413.12	1406.66
413.31	1369.21
413.50	1411.34
413.69	1284.95
413.88	1406.66
414.07	1329.42
414.26	1324.74
414.45	1444.11
414.64	1504.96
414.83	1467.52
415.02	1448.79
415.22	1526.03
415.41	1514.33
415.60	1488.58
415.79	1490.92
415.98	1551.78
416.17	1645.40
416.36	1645.40
416.55	1591.56
416.74	1589.22
416.93	1643.06
417.12	1586.88
417.31	1673.48
417.50	1603.27
417.69	1654.76
417.88	1724.97
418.07	1687.53
418.26	1736.68
418.45	1699.23
418.64	1753.06
418.83	1781.15
419.02	1673.48
419.21	1867.75
419.39	1830.30
419.58	1689.87
419.77	1760.08
419.96	1944.99
420.15	1856.04
420.34	1762.42
420.53	1753.06
420.72	1912.22
420.91	1792.85
421.10	1816.26
421.29	1900.52
421.48	1870.09
421.67	1844.34
421.86	1961.37
422.05	1909.88
422.24	1963.71
422.43	1898.17
422.61	1933.28
422.80	1947.33
422.99	1984.77
423.18	2008.18
423.37	2029.24
423.56	1921.58
423.75	2031.58
423.94	1881.79
424.13	1867.75
424.32	1959.03
424.50	2040.95
424.69	2064.35
424.88	2045.63
425.07	2012.86
425.26	1991.80
425.45	2026.90
425.64	1952.01
425.83	2010.52
426.01	2101.80
426.20	2031.58
426.39	2050.31
426.58	2036.27
426.77	1998.82
426.96	1998.82
427.15	2043.29
427.33	2057.33
427.52	2054.99
427.71	2127.55
427.90	2190.74
428.09	2155.63
428.28	2265.64
428.46	2186.06
428.65	2169.68
428.84	2246.91
429.03	2275.00
429.22	2113.50
429.40	2225.85
429.59	2188.40
429.78	2010.52
429.97	2113.50
430.16	2190.74
430.34	2289.04
430.53	2319.47
430.72	2228.19
430.91	2265.64
431.10	2284.36
431.28	2263.30
431.47	2478.63
431.66	2403.73
431.85	2204.78
432.03	2389.69
432.22	2408.41
432.41	2389.69
432.60	2429.48
432.79	2279.68
432.97	2466.92
433.16	2466.92
433.35	2352.24
433.54	2537.14
433.72	2452.88
433.91	2427.14
434.10	2464.58
434.28	2438.84
434.47	2448.20
434.66	2448.20
434.85	2483.31
435.03	2537.14
435.22	2553.52
435.41	2710.34
435.59	2607.36
435.78	2654.17
435.97	2541.82
436.16	2597.99
436.34	2487.99
436.53	2553.52
436.72	2759.49
436.90	2644.81
437.09	2703.32
437.28	2642.46
437.46	2717.36
437.65	2719.70
437.84	2789.92
438.02	2785.24
438.21	2775.88
438.40	2787.58
438.58	2820.35
438.77	2775.88
438.96	2768.85
439.14	2855.45
439.33	2909.29
439.52	2920.99
439.70	3002.91
439.89	3101.21
440.08	2958.44
440.26	3063.76
440.45	3061.42
440.63	3098.87
440.82	3197.17
441.01	3033.33
441.19	2979.50
441.38	3038.02
441.57	3112.91
441.75	3253.34
441.94	3180.79
442.12	3260.37
442.31	3220.58
442.50	3222.92
442.68	3382.07
442.87	3344.63
443.05	3318.88
443.24	3349.31
443.43	3398.46
443.61	3377.39
443.80	3419.52
443.98	3370.37
444.17	3262.71
444.35	3391.44
444.54	3463.99
444.73	3431.23
444.91	3475.70
445.10	3459.31
445.28	3391.44
445.47	3262.71
445.65	3318.88
445.84	3517.83
446.02	3400.80
446.21	3471.01
446.39	3290.79
446.58	3463.99
446.77	3454.63
446.95	3447.61
447.14	3459.31
447.32	3496.76
447.51	3435.91
447.69	3428.88
447.88	3375.05
448.06	3447.61
448.25	3449.95
448.43	3599.74
448.62	3576.34
448.80	3496.76
448.99	3552.93
449.17	3686.34
449.36	3604.42
449.54	3630.17
449.73	3581.02
449.91	3801.03
450.10	3726.13
450.28	3740.18
450.46	3569.32
450.65	3714.43
450.83	3719.11
451.02	3747.20
451.20	3770.60
451.39	3889.97
451.57	3693.37
451.76	3756.56
451.94	3803.37
452.13	3875.93
452.31	3901.67
452.49	3770.60
452.68	3889.97
452.86	3845.50
453.05	3779.97
453.23	3868.91
453.42	3836.14
453.60	3784.65
453.78	3908.69
453.97	3882.95
454.15	3833.80
454.34	3885.29
454.52	3873.59
454.70	3941.46
454.89	4009.34
455.07	4009.34
455.26	4053.81
455.44	4037.42
455.62	4114.66
455.81	4128.70
455.99	4072.53
456.17	4215.30
456.36	4037.42
456.54	4224.67
456.73	4264.46
456.91	4238.71
457.09	4182.54
457.28	4470.42
457.46	4311.27
457.64	4451.70
457.83	4372.12
458.01	4255.09
458.19	4379.14
458.38	4442.34
458.56	4491.49
458.74	4374.46
458.93	4325.31
459.11	4346.37
459.29	4444.68
459.48	4421.27
459.66	4468.08
459.84	4533.62
460.03	4636.60
460.21	4641.28
460.39	4561.70
460.57	4587.45
460.76	4496.17
460.94	4603.83
461.12	4671.71
461.31	4627.24
461.49	4655.33
461.67	4486.81
461.85	4667.03
462.04	4678.73
462.22	4863.63
462.40	4826.18
462.59	4854.27
462.77	4798.10
462.95	4557.02
463.13	4774.69
463.32	4952.57
463.50	4695.11
463.68	4819.16
463.86	4755.97
464.05	4748.95
464.23	4795.76
464.41	4807.46
464.59	4739.58
464.78	4924.49
464.96	4758.31
465.14	4954.91
465.32	4971.30
465.50	4868.31
465.69	5020.45
465.87	4851.93
466.05	5018.11
466.23	4931.51
466.41	4945.55
466.60	5006.41
466.78	4980.66
466.96	4994.70
467.14	5097.69
467.32	5102.37
467.51	5121.09
467.69	5114.07
467.87	5022.79
468.05	5029.81
468.23	5142.16
468.41	5121.09
468.60	5039.17
468.78	5252.16
468.96	5205.35
469.14	5219.39
469.32	5188.97
469.50	5226.42
469.69	5397.28
469.87	5214.71
470.05	5373.87
470.23	5336.42
470.41	5315.36
470.59	5427.70
470.77	5383.23
470.95	5535.37
471.14	5453.45
471.32	5502.60
471.50	5589.20
471.68	5338.76
471.86	5530.69
472.04	5547.07
472.22	5788.14
472.40	5483.88
472.58	5591.54
472.77	5877.09
472.95	5458.13
473.13	5846.66
473.31	5860.70
473.49	5685.16
473.67	5710.91
473.85	5846.66
474.03	5963.68
474.21	5874.74
474.39	6113.48
474.57	6029.22
474.75	6073.69
474.93	6279.66
475.12	6141.57
475.30	6286.68
475.48	6069.01
475.66	6263.27
475.84	6284.34
476.02	6307.74
476.20	6195.40
476.38	6499.67
476.56	6347.53
476.74	6534.78
476.92	6672.87
477.10	6429.45
477.28	6736.06
477.46	6490.31
477.64	6771.17
477.82	6733.72
478.00	6878.83
478.18	6789.89
478.36	6956.07
478.54	6935.01
478.72	6890.54
478.90	7023.95
479.08	7112.89
479.26	7241.62
479.44	7098.84
479.62	7201.83
479.80	7372.69
479.98	7379.71
480.16	7630.15
480.34	7573.97
480.52	7719.09
480.70	7524.82
480.88	7449.93
481.06	7508.44
481.24	7590.36
481.41	7672.28
481.59	7758.88
481.77	7960.16
481.95	7826.75
482.13	7922.71
482.31	8128.68
482.49	8109.96
482.67	8074.85
482.85	8430.61
483.03	8505.51
483.21	8521.89
483.39	8451.67
483.57	8535.93
483.74	8664.66
483.92	8638.92
484.10	8571.04
484.28	8828.50
484.46	8924.46
484.64	9153.84
484.82	8926.80
485.00	9011.06
485.18	9226.39
485.35	9296.61
485.53	9221.71
485.71	9357.46
485.89	9504.92
486.07	9408.95
486.25	9493.21
486.43	9589.17
486.61	9650.03
486.78	9877.06
486.96	9881.74
487.14	9856.00
487.32	10115.80
487.50	9823.23
487.68	10087.71
487.85	10431.77
488.03	10200.05
488.21	10698.59
488.39	10506.66
488.57	10544.11
488.75	10665.82
488.92	10881.15
489.10	10782.85
489.28	10864.77
489.46	11042.65
489.64	10871.79
489.81	11201.80
489.99	11269.68
490.17	11463.94
490.35	11721.40
490.53	11365.64
490.70	11431.18
490.88	11520.12
491.06	11651.19
491.24	11637.14
491.41	11756.51
491.59	12030.35
491.77	11957.80
491.95	12035.03
492.13	12091.21
492.30	12233.98
492.48	12028.01
492.66	12278.45
492.84	12339.30
493.01	12463.35
493.19	12255.04
493.37	12482.08
493.54	12807.41
493.72	12781.67
493.90	12678.68
494.08	12905.71
494.25	13198.28
494.43	12917.42
494.61	13259.13
494.79	13315.31
494.96	13221.69
495.14	13277.86
495.32	13350.42
495.49	13549.36
495.67	13827.88
495.85	13673.41
496.02	13834.91
496.20	13781.07
496.38	13642.98
496.55	13703.84
496.73	14293.65
496.91	14193.01
497.09	14190.67
497.26	14291.31
497.44	14200.03
497.62	14326.42
497.79	14490.26
497.97	14298.33
498.14	14658.78
498.32	14724.31
498.50	14743.03
498.67	15044.96
498.85	14834.32
499.03	14967.73
499.20	15068.37
499.38	15051.99
499.56	14775.80
499.73	14998.15
499.91	14839.00
500.08	15377.32
500.26	15316.47
500.44	15075.39
500.61	15360.94
500.79	15407.75
500.97	15552.86
501.14	15810.32
501.32	15810.32
501.49	15744.78
501.67	15550.52
501.84	15901.60
502.02	15917.98
502.20	15974.16
502.37	16030.33
502.55	16042.03
502.72	15882.88
502.90	15836.06
503.07	15985.86
503.25	15978.84
503.43	16222.25
503.60	16341.62
503.78	16458.65
503.95	16542.91
504.13	16355.66
504.30	16610.78
504.48	16355.66
504.65	16292.47
504.83	16613.12
505.01	16727.81
505.18	16575.67
505.36	17076.55
505.53	16884.62
505.71	17088.25
505.88	16690.36
506.06	17053.14
506.23	17165.49
506.41	17209.96
506.58	17240.39
506.76	17380.82
506.93	17315.28
507.11	17200.60
507.28	17373.80
507.46	17439.33
507.63	17741.26
507.81	17619.55
507.98	17523.59
508.16	17717.86
508.33	17877.01
508.50	17561.04
508.68	17755.30
508.85	17881.69
509.03	17453.37
509.20	17825.52
509.38	18036.17
509.55	17998.72
509.73	18513.64
509.90	18377.89
510.08	18132.13
510.25	18497.25
510.42	18431.72
510.60	18576.83
510.77	18698.54
510.95	18841.31
511.12	18485.55
511.30	18150.85
511.47	18679.82
511.64	18796.84
511.82	18841.31
511.99	18611.94
512.17	18668.11
512.34	18717.26
512.51	19220.48
512.69	18869.40
512.86	19080.05
513.04	19147.92
513.21	19014.51
513.38	19283.67
513.56	19332.82
513.73	19386.66
513.90	19323.46
514.08	19470.92
514.25	19463.90
514.43	19482.62
514.60	19669.86
514.77	19831.36
514.95	20126.27
515.12	19707.31
515.29	19477.94
515.47	19583.26
515.64	20210.53
515.81	19548.15
515.99	20058.39
516.16	20109.88
516.33	20285.42
516.51	20353.30
516.68	20285.42
516.85	20123.93
517.03	19892.21
517.20	20388.41
517.37	20484.37
517.54	20568.63
517.72	20601.40
517.89	20360.32
518.06	20456.28
518.24	20809.70
518.41	20596.71
518.58	20664.59
518.75	20589.69
518.93	20418.83
519.10	20758.21
519.27	20929.07
519.45	20690.34
519.62	20837.79
519.79	20709.06
519.96	20975.88
520.14	21142.06
520.31	21167.80
520.48	21195.89
520.65	21303.56
520.83	21050.78
521.00	20987.58
521.17	21373.77
521.34	21565.70
521.52	21338.66
521.69	21530.59
521.86	21656.98
522.03	21252.06
522.20	21701.45
522.38	21736.56
522.55	21638.25
522.72	21757.62
522.89	21675.70
523.07	22202.32
523.24	21694.43
523.41	21991.67
523.58	21614.85
523.75	22228.07
523.92	21855.92
524.10	21921.46
524.27	22097.00
524.44	22501.91
524.61	22104.02
524.78	22108.70
524.96	22141.47
525.13	22462.12
525.30	22464.46
525.47	22445.74
525.64	22490.21
525.81	22452.76
525.98	22705.54
526.16	22623.62
526.33	22429.35
526.50	22806.18
526.67	22656.39
526.84	22677.45
527.01	22459.78
527.18	22738.30
527.36	22412.97
527.53	22939.59
527.70	23014.49
527.87	23131.51
528.04	22948.95
528.21	23150.24
528.38	22937.25
528.55	23218.11
528.72	23213.43
528.89	23058.96
529.07	23377.27
529.24	23253.22
529.41	23211.09
529.58	23339.82
529.75	23243.86
529.92	23215.77
530.09	23087.04
530.26	23590.26
530.43	23515.36
530.60	23824.31
530.77	23531.75
530.94	23714.31
531.11	23599.62
531.28	23639.41
531.46	23590.26
531.63	23957.72
531.80	23917.93
531.97	23924.96
532.14	24004.53
532.31	23974.11
532.48	23782.18
532.65	24154.33
532.82	23763.46
532.99	23974.11
533.16	24002.19
533.33	24297.10
533.50	24257.31
533.67	24482.00
533.84	23880.49
534.01	24156.67
534.18	24105.18
534.35	24402.43
534.52	24306.46
534.69	24650.52
534.86	24889.26
535.03	24657.54
535.20	24566.26
535.37	24283.06
535.54	24751.17
535.71	24479.66
535.88	24910.32
536.05	24510.09
536.22	24547.54
536.38	24800.32
536.55	25064.80
536.72	24741.80
536.89	24711.38
537.06	25046.07
537.23	24758.19
537.40	24912.66
537.57	25017.99
537.74	24870.53
537.91	25352.68
538.08	25207.57
538.25	25209.91
538.42	24978.20
538.59	24933.73
538.75	24758.19
538.92	25081.18
539.09	25071.82
539.26	25144.38
539.43	25500.14
539.60	25319.92
539.77	25308.21
539.94	25713.13
540.11	25458.01
540.28	25230.98
540.44	25392.47
540.61	25476.73
540.78	25348.00
540.95	25303.53
541.12	25205.23
541.29	25544.61
541.46	25504.82
541.62	25708.44
541.79	25858.24
541.96	25607.80
542.13	25514.18
542.30	25696.74
542.47	25680.36
542.63	25926.11
542.80	26164.85
542.97	26054.84
543.14	25926.11
543.31	25853.56
543.48	26202.30
543.64	26363.79
543.81	26642.32
543.98	26450.39
544.15	26448.05
544.32	26735.94
544.48	26567.42
544.65	26536.99
544.82	26382.52
544.99	25891.01
545.16	26401.24
545.32	26356.77
545.49	26611.89
545.66	26504.23
545.83	26590.83
546.00	26848.29
546.16	26534.65
546.33	26471.46
546.50	26431.67
546.67	26604.87
546.83	26258.47
547.00	26553.38
547.17	26438.69
547.34	26948.93
547.50	26836.58
547.67	26679.77
547.84	26757.00
548.00	27002.76
548.17	26979.36
548.34	27005.10
548.51	27178.30
548.67	26988.72
548.84	27206.39
549.01	27061.27
549.18	27241.50
549.34	27110.43
549.51	27197.02
549.68	26836.58
549.84	27129.15
550.01	27061.27
550.18	26939.57
550.34	27227.45
550.51	27342.14
550.68	27271.92
550.84	27171.28
551.01	27145.53
551.18	27056.59
551.34	27012.12
551.51	27243.84
551.68	27440.44
551.84	27281.28
552.01	27318.73
552.18	27489.59
552.34	27716.62
552.51	27840.67
552.68	27414.69
552.84	27976.42
553.01	27704.92
553.18	27527.04
553.34	27723.65
553.51	27520.02
553.67	27723.65
553.84	27938.97
554.01	28020.89
554.17	27835.99
554.34	27810.25
554.51	27887.48
554.67	27704.92
554.84	27550.45
555.00	28404.74
555.17	28299.42
555.33	28077.07
555.50	27892.16
555.67	27882.80
555.83	27761.09
556.00	28020.89
556.16	28151.96
556.33	27936.63
556.50	27913.23
556.66	28182.39
556.83	28084.09
556.99	28395.38
557.16	28519.43
557.32	28341.55
557.49	28292.40
557.65	28016.21
557.82	27889.82
557.98	28102.81
558.15	28308.78
558.32	28591.98
558.48	28437.51
558.65	28563.90
558.81	28638.80
558.98	28294.74
559.14	28388.36
559.31	28332.18
559.47	28526.45
559.64	28683.27
559.80	28659.86
559.97	28863.49
560.13	28329.84
560.30	28400.06
560.46	28650.50
560.63	28397.72
560.79	28746.46
560.96	28540.49
561.12	28245.58
561.29	28577.94
561.45	28404.74
561.61	29116.26
561.78	28741.78
561.94	28732.42
562.11	28802.63
562.27	28936.04
562.44	28290.06
562.60	28648.16
562.77	28793.27
562.93	28617.73
563.10	28994.56
563.26	28676.24
563.42	29017.96
563.59	29282.44
563.75	28992.22
563.92	28914.98
564.08	28720.71
564.24	28861.15
564.41	29118.60
564.57	28608.37
564.74	28907.96
564.90	29130.31
565.07	29247.33
565.23	28982.85
565.39	29137.33
565.56	29184.14
565.72	28840.08
565.88	29172.44
566.05	28755.82
566.21	28737.10
566.38	28917.32
566.54	28872.85
566.70	29139.67
566.87	29179.46
567.03	29064.77
567.19	29481.39
567.36	28833.06
567.52	29001.58
567.68	29130.31
567.85	29181.80
568.01	29446.28
568.17	29039.03
568.34	29415.85
568.50	29310.53
568.66	29429.90
568.83	29493.09
568.99	29102.22
569.15	29076.48
569.32	29071.79
569.48	28723.05
569.64	29200.52
569.81	29111.58
569.97	29106.90
570.13	29493.09
570.30	29336.27
570.46	29455.64
570.62	29422.87
570.78	29502.45
570.95	29347.98
571.11	29223.93
571.27	29076.48
571.43	29397.13
571.60	29312.87
571.76	29315.21
571.92	29252.02
572.09	29397.13
572.25	29816.08
572.41	29617.14
572.57	29125.63
572.74	29401.81
572.90	29048.39
573.06	29373.72
573.22	29259.04
573.38	29502.45
573.55	29219.25
573.71	29996.31
573.87	29883.96
574.03	29427.56
574.20	29432.24
574.36	29179.46
574.52	29610.12
574.68	29139.67
574.84	29558.63
575.01	29736.51
575.17	29390.11
575.33	29303.51
575.49	29497.77
575.65	29200.52
575.82	29558.63
575.98	29661.61
576.14	29677.99
576.30	29738.85
576.46	29415.85
576.62	29462.66
576.79	29193.50
576.95	29502.45
577.11	29469.69
577.27	29553.94
577.43	29682.67
577.59	29802.04
577.75	29635.86
577.92	29345.64
578.08	29968.22
578.24	29432.24
578.40	29425.22
578.56	29883.96
578.72	29743.53
578.88	29476.71
579.04	29371.38
579.21	29249.67
579.37	29273.08
579.53	29507.13
579.69	29783.32
579.85	29500.11
580.01	29685.01
580.17	29287.12
580.33	29453.30
580.49	29570.33
580.65	29631.18
580.82	29633.52
580.98	29816.08
581.14	29654.59
581.30	29703.74
581.46	29418.19
581.62	29556.28
581.78	29406.49
581.94	29886.30
582.10	29350.32
582.26	29570.33
582.42	29567.99
582.58	29750.55
582.74	29720.12
582.90	29804.38
583.06	29893.32
583.22	29408.83
583.38	29898.00
583.54	29542.24
583.70	29788.00
583.86	29610.12
584.02	29692.04
584.18	29752.89
584.34	29867.58
584.50	29907.37
584.66	30026.73
584.82	29855.87
584.98	29811.40
585.14	29209.89
585.30	29708.42
585.46	29465.00
585.62	29687.36
585.78	29516.50
585.94	29663.95
586.10	29390.11
586.26	29649.91
586.42	29958.86
586.58	29614.80
586.74	29390.11
586.90	29584.37
587.06	29869.92
587.22	29844.17
587.38	29490.75
587.54	29958.86
587.70	30370.79
587.86	29865.24
588.02	29926.09
588.18	30143.76
588.34	29979.92
588.49	29942.47
588.65	29858.21
588.81	30192.91
588.97	29720.12
589.13	30199.93
589.29	30075.88
589.45	30040.78
589.61	29783.32
589.77	30309.94
589.93	30286.53
590.08	30157.80
590.24	30127.38
590.40	30099.29
590.56	30235.04
590.72	30008.01
590.88	30017.37
591.04	29935.45
591.20	30155.46
591.35	30157.80
591.51	30595.48
591.67	30579.10
591.83	30338.02
591.99	29979.92
592.15	29944.81
592.31	30359.09
592.46	30078.22
592.62	29818.42
592.78	29928.43
592.94	30038.44
593.10	29825.45
593.26	30169.51
593.41	30003.33
593.57	30054.82
593.73	29989.28
593.89	30433.99
594.05	30204.61
594.20	30024.39
594.36	30183.55
594.52	30237.38
594.68	30188.23
594.84	30171.85
594.99	30267.81
595.15	30101.63
595.31	30239.72
595.47	30459.73
595.62	30492.50
595.78	30260.79
595.94	30429.30
596.10	30129.72
596.25	30008.01
596.41	30209.29
596.57	29940.13
596.73	30340.36
596.88	30274.83
597.04	30148.44
597.20	30197.59
597.36	30546.33
597.51	30600.16
597.67	30155.46
597.83	30291.21
597.99	30258.45
598.14	30525.27
598.30	30064.18
598.46	30595.48
598.61	30085.25
598.77	30338.02
598.93	30380.15
599.09	30445.69
599.24	30485.48
599.40	30684.42
599.56	30235.04
599.71	30382.49
599.87	30242.06
600.03	30478.46
600.18	30429.30
600.34	30228.02
600.50	30052.48
600.65	29926.09
600.81	30649.32
600.97	30445.69
601.12	30272.49
601.28	30494.84
601.44	30316.96
601.59	30431.65
601.75	30305.26
601.91	30450.37
602.06	30213.98
602.22	30197.59
602.37	29993.97
602.53	30485.48
602.69	30654.00
602.84	30546.33
603.00	30532.29
603.16	30927.84
603.31	30354.41
603.47	30075.88
603.62	30206.95
603.78	30139.08
603.94	30155.46
604.09	30274.83
604.25	29883.96
604.40	30202.27
604.56	30239.72
604.71	30368.45
604.87	30459.73
605.03	30361.43
605.18	30565.06
605.34	30108.65
605.49	30106.31
605.65	30242.06
605.80	30134.40
605.96	30239.72
606.12	30174.19
606.27	30192.91
606.43	30036.09
606.58	30473.78
606.74	30218.66
606.89	29968.22
607.05	30504.20
607.20	30237.38
607.36	30504.20
607.51	30199.93
607.67	29727.14
607.82	30127.38
607.98	30082.91
608.13	30251.42
608.29	30040.78
608.44	30141.42
608.60	30008.01
608.75	30441.01
608.91	30218.66
609.06	29914.39
609.22	30197.59
609.37	29577.35
609.53	30246.74
609.68	29961.20
609.84	30211.64
609.99	30071.20
610.15	30288.87
610.30	29968.22
610.46	30410.58
610.61	30218.66
610.76	30127.38
610.92	29853.53
611.07	30153.12
611.23	29993.97
611.38	30246.74
611.54	29947.15
611.69	29785.66
611.84	29869.92
612.00	29493.09
612.15	29745.87
612.31	30558.03
612.46	29947.15
612.62	29916.73
612.77	29738.85
612.92	30148.44
613.08	30003.33
613.23	29862.90
613.39	30036.09
613.54	29827.79
613.69	29930.77
613.85	29577.35
614.00	30050.14
614.15	30050.14
614.31	29935.45
614.46	29881.62
614.62	29813.74
614.77	29944.81
614.92	30075.88
615.08	29706.08
615.23	29956.52
615.38	29755.23
615.54	29748.21
615.69	29874.60
615.84	29572.67
616.00	29563.31
616.15	29530.54
616.30	29362.02
616.46	29586.71
616.61	29696.72
616.76	29738.85
616.92	29472.03
617.07	29385.43
617.22	29200.52
617.37	29633.52
617.53	29500.11
617.68	29535.22
617.83	29174.78
617.99	29326.91
618.14	29027.32
618.29	29598.41
618.45	29308.19
618.60	29631.18
618.75	29537.56
618.90	29455.64
619.06	29481.39
619.21	29579.69
619.36	29441.60
619.51	29099.88
619.67	28849.44
619.82	28879.87
619.97	28905.62
620.12	28753.48
620.28	28830.72
620.43	29010.94
620.58	29355.00
620.73	29268.40
620.89	29149.03
621.04	29308.19
621.19	29081.16
621.34	28954.77
621.49	28849.44
621.65	29104.56
621.80	29083.50
621.95	28985.19
622.10	29139.67
622.25	28802.63
622.41	29050.73
622.56	29163.08
622.71	29418.19
622.86	29097.54
623.01	28481.98
623.16	28678.58
623.32	28994.56
623.47	28891.57
623.62	29165.42
623.77	28519.43
623.92	28671.56
624.07	28620.07
624.23	28627.09
624.38	28879.87
624.53	28606.03
624.68	29123.29
624.83	28704.33
624.98	28875.19
625.13	28575.60
625.29	28739.44
625.44	28996.90
625.59	28643.48
625.74	28999.24
625.89	28435.17
626.04	28479.64
626.19	28687.95
626.34	28353.25
626.49	28732.42
626.65	28673.90
626.80	28624.75
626.95	28446.87
627.10	28484.32
627.25	28456.23
627.40	28313.46
627.55	28257.29
627.70	27953.02
627.85	28615.39
628.00	27974.08
628.15	28615.39
628.30	28119.20
628.45	28360.27
628.60	28407.08
628.76	28116.86
628.91	28126.22
629.06	28187.07
629.21	28182.39
629.36	28334.53
629.51	28362.61
629.66	28163.67
629.81	28116.86
629.96	27861.74
630.11	28025.57
630.26	28217.50
630.41	27971.74
630.56	28023.23
630.71	27873.44
630.86	27615.98
631.01	27803.22
631.16	28142.60
631.31	27964.72
631.46	28180.05
631.61	28116.86
631.76	27740.03
631.91	27749.39
632.06	27620.66
632.21	27974.08
632.36	27864.08
632.51	27405.33
632.66	27859.40
632.81	27646.41
632.96	27861.74
633.10	27637.05
633.25	27976.42
633.40	27894.50
633.55	27632.36
633.70	27992.81
633.85	27393.63
634.00	27288.31
634.15	27637.05
634.30	27784.50
634.45	27651.09
634.60	27618.32
634.75	27138.51
634.90	27288.31
635.05	27693.22
635.19	27557.47
635.34	27789.18
635.49	27730.67
635.64	27653.43
635.79	27634.71
635.94	27211.07
636.09	27234.47
636.24	27524.70
636.39	27030.85
636.53	27646.41
636.68	27014.46
636.83	27445.12
636.98	27410.01
637.13	27672.15
637.28	27527.04
637.43	27623.00
637.57	27225.11
637.72	27295.33
637.87	26955.95
638.02	27056.59
638.17	27159.58
638.32	26930.20
638.46	26972.33
638.61	27152.55
638.76	26977.01
638.91	26700.83
639.06	27012.12
639.20	27033.19
639.35	27372.57
639.50	26862.33
639.65	27175.96
639.80	27098.72
639.94	26588.49
640.09	26967.65
640.24	27033.19
640.39	26916.16
640.54	26565.08
640.68	26672.74
640.83	26801.47
640.98	26478.48
641.13	26277.19
641.27	27122.13
641.42	26852.97
641.57	26761.69
641.72	27136.17
641.86	26771.05
642.01	26998.08
642.16	26391.88
642.31	26759.34
642.45	26829.56
642.60	26539.33
642.75	26455.08
642.90	26541.68
643.04	26717.22
643.19	26242.09
643.34	26934.88
643.48	26356.77
643.63	26403.58
643.78	26616.57
643.93	26735.94
644.07	26834.24
644.22	26794.45
644.37	26326.35
644.51	26354.43
644.66	26302.94
644.81	26356.77
644.95	26202.30
645.10	26008.03
645.25	26326.35
645.39	26108.68
645.54	26436.35
645.69	26426.99
645.83	26249.11
645.98	26209.32
646.13	26281.88
646.27	26415.29
646.42	26026.76
646.57	26125.06
646.71	25979.95
646.86	26384.86
647.00	25923.77
647.15	25841.85
647.30	25979.95
647.44	25991.65
647.59	26153.15
647.74	26061.87
647.88	26258.47
648.03	26061.87
648.17	25872.28
648.32	26092.29
648.47	26405.92
648.61	26099.31
648.76	25996.33
648.90	26045.48
649.05	25956.54
649.20	25687.38
649.34	26050.16
649.49	25802.07
649.63	25972.92
649.78	25954.20
649.92	25631.21
650.07	26024.42
650.21	25663.97
650.36	25816.11
650.51	25942.50
650.65	25813.77
650.80	26136.76
650.94	25951.86
651.09	25626.53
651.23	25600.78
651.38	25469.71
651.52	25675.68
651.67	25954.20
651.81	25483.75
651.96	25551.63
652.10	25696.74
652.25	25610.14
652.39	25844.20
652.54	25783.34
652.68	25514.18
652.83	25280.13
652.97	25701.42
653.12	25809.09
653.26	25500.14
653.41	25628.87
653.55	25329.28
653.70	25336.30
653.84	25490.77
653.99	25483.75
654.13	25523.54
654.27	25275.45
654.42	25369.07
654.56	25289.49
654.71	25575.03
654.85	25682.70
655.00	25425.24
655.14	25266.08
655.29	25308.21
655.43	25509.50
655.57	25228.63
655.72	25282.47
655.86	25170.12
656.01	24973.52
656.15	24945.43
656.30	24802.66
656.44	25032.03
656.58	25076.50
656.73	25312.89
656.87	25067.14
657.01	25230.98
657.16	24929.05
657.30	25006.28
657.45	25111.61
657.59	25156.08
657.73	24858.83
657.88	25017.99
658.02	24879.89
658.16	24751.17
658.31	24655.20
658.45	25127.99
658.60	24868.19
658.74	24950.11
658.88	24594.35
659.03	24603.71
659.17	24718.40
659.31	24587.33
659.46	24772.23
659.60	24526.47
659.74	24596.69
659.89	24596.69
660.03	24582.65
660.17	24580.31
660.32	24444.56
660.46	24444.56
660.60	24250.29
660.74	24102.84
660.89	24423.49
661.03	24126.24
661.17	24261.99
661.32	24400.08
661.46	24547.54
661.60	24276.04
661.74	24386.04
661.89	24205.82
662.03	24432.85
662.17	24486.68
662.31	23962.40
662.46	23988.15
662.60	24063.05
662.74	24030.28
662.88	23690.90
663.03	23679.20
663.17	23864.10
663.31	23323.44
663.45	23641.75
663.60	23508.34
663.74	23718.99
663.88	23887.51
664.02	23559.83
664.17	23857.08
664.31	23562.17
664.45	23758.78
664.59	23367.91
664.73	23611.32
664.88	23627.71
665.02	23248.54
665.16	23377.27
665.30	23733.03
665.44	23405.36
665.59	23218.11
665.73	23506.00
665.87	23241.52
666.01	23447.49
666.15	23384.29
666.29	23147.90
666.44	22925.55
666.58	23353.87
666.72	23105.77
666.86	23264.92
667.00	23124.49
667.14	22977.04
667.28	22927.89
667.43	22817.88
667.57	23044.91
667.71	22817.88
667.85	22670.43
667.99	22773.41
668.13	22735.96
668.27	22583.83
668.41	22628.30
668.56	22628.30
668.70	22473.82
668.84	22593.19
668.98	22771.07
669.12	22995.76
669.26	22843.63
669.40	22754.69
669.54	22518.29
669.68	22735.96
669.82	22398.93
669.96	22307.65
670.10	22199.98
670.25	22438.72
670.39	22487.87
670.53	22195.30
670.67	21965.93
670.81	22185.94
670.95	22721.92
671.09	22057.21
671.23	22038.48
671.37	22164.87
671.51	21895.71
671.65	21926.14
671.79	22246.79
671.93	22029.12
672.07	21745.92
672.21	21876.99
672.35	21446.33
672.49	21881.67
672.63	21462.71
672.77	21462.71
672.91	21308.24
673.05	21766.98
673.19	21514.20
673.33	21394.84
673.47	21598.46
673.61	21233.34
673.75	21516.54
673.89	21146.74
674.03	21458.03
674.17	21371.43
674.31	21116.31
674.45	21181.85
674.59	21039.08
674.73	21027.37
674.87	20805.02
675.01	20961.84
675.15	20898.64
675.29	20849.49
675.43	20662.25
675.56	21055.46
675.70	20566.29
675.84	20748.85
675.98	20257.34
676.12	20716.08
676.26	20830.77
676.40	20692.68
676.54	20531.18
676.68	20432.88
676.82	20091.16
676.96	20404.79
677.10	20105.20
677.23	19812.63
677.37	20191.80
677.51	20140.31
677.65	20046.69
677.79	19618.37
677.93	19431.13
678.07	20013.92
678.21	19667.52
678.34	19730.72
678.48	19616.03
678.62	19594.96
678.76	19679.22
678.90	19410.06
679.04	19836.04
679.18	19250.91
679.31	18972.38
679.45	18775.78
679.59	19168.99
679.73	19028.56
679.87	19185.37
680.00	18848.33
680.14	18817.91
680.28	18651.73
680.42	18916.21
680.56	19236.86
680.70	18930.25
680.83	18803.86
680.97	18824.93
681.11	18965.36
681.25	18497.25
681.39	18607.26
681.52	18436.40
681.66	18595.56
681.80	18171.92
681.94	17958.93
682.07	18370.86
682.21	18139.15
682.35	18118.09
682.49	18003.40
682.62	17923.82
682.76	17874.67
682.90	17844.24
683.04	17848.93
683.17	18092.34
683.31	17860.63
683.45	18162.56
683.59	17790.41
683.72	17406.56
683.86	17867.65
684.00	17713.17
684.13	17429.97
684.27	17406.56
684.41	17495.50
684.55	17018.04
684.68	17191.23
684.82	16919.73
684.96	17111.66
685.09	17130.38
685.23	16746.53
685.37	16987.61
685.50	17139.74
685.64	17111.66
685.78	17001.65
685.91	16919.73
686.05	16999.31
686.19	16924.41
686.32	16886.97
686.46	16311.19
686.60	16217.57
686.73	16645.89
686.87	16348.64
687.01	16442.26
687.14	16341.62
687.28	16100.55
687.42	16175.44
687.55	16072.46
687.69	16030.33
687.82	16025.65
687.96	16187.14
688.10	15985.86
688.23	15847.77
688.37	15896.92
688.50	15887.56
688.64	16095.86
688.78	15917.98
688.91	15534.14
689.05	15735.42
689.18	15492.01
689.32	15192.42
689.46	15262.63
689.59	15112.84
689.73	15307.10
689.86	15496.69
690.00	15459.24
690.13	14782.82
690.27	15257.95
690.41	15033.26
690.54	15051.99
690.68	14775.80
690.81	15321.15
690.95	15002.83
691.08	14799.21
691.22	14792.19
691.35	14988.79
691.49	14923.26
691.62	14771.12
691.76	14647.07
691.89	14249.18
692.03	14406.00
692.16	14176.62
692.30	14195.35
692.43	14333.44
692.57	14136.84
692.70	14230.46
692.84	14012.79
692.97	13926.19
693.11	14075.98
693.24	14085.34
693.38	14258.54
693.51	13937.89
693.65	13848.95
693.78	13762.35
693.92	13650.00
694.05	13570.43
694.19	13666.39
694.32	13586.81
694.45	13453.40
694.59	13483.83
694.72	13287.22
694.86	13076.57
694.99	13125.72
695.13	13350.42
695.26	12931.46
695.39	13177.22
695.53	13013.38
695.66	12833.16
695.80	13170.19
695.93	12947.84
696.07	12854.22
696.20	12816.77
696.33	12889.33
696.47	12795.71
696.60	12437.61
696.73	12367.39
696.87	12601.44
697.00	12613.15
697.14	12528.89
697.27	12381.43
697.40	12468.03
697.54	12238.66
697.67	12168.45
697.80	12109.93
697.94	12037.38
698.07	12072.48
698.21	11936.73
698.34	12205.89
698.47	12070.14
698.61	11925.03
698.74	12109.93
698.87	11999.93
699.01	12112.27
699.14	11826.73
699.27	11721.40
699.40	11613.74
699.54	11566.93
699.67	11515.44
699.80	11445.22
699.94	11307.13
700.07	11335.21
700.20	11304.79
700.34	11236.91
700.47	11094.14
700.60	11091.80
700.73	11190.10
700.87	11154.99
701.00	11227.55
701.13	11154.99
701.26	11145.63
701.40	11169.04
701.53	10932.64
701.66	10864.77
701.79	10745.40
701.93	10836.68
702.06	10839.02
702.19	10619.01
702.32	10389.64
702.46	10441.13
702.59	10588.58
702.72	10377.94
702.85	10434.11
702.99	10487.94
703.12	10464.54
703.25	10108.77
703.38	10408.36
703.51	10162.61
703.65	10171.97
703.78	10061.96
703.91	10080.69
704.04	10244.52
704.17	10012.81
704.31	9916.85
704.44	9944.94
704.57	9879.40
704.70	9830.25
704.83	9895.78
704.96	9535.34
705.10	9652.37
705.23	9516.62
>>>>>End Processed Spectral Data<<<<<
