SpectraSuite Data File
++++++++++++++++++++++++++++++++++++
Date: Fri Oct 18 13:57:57 GMT-05:00 2013
User: bianchi
Dark Spectrum Present: No
Reference Spectrum Present: No
Number of Sampled Component Spectra: 1
Spectrometers: USB2+H05261
Integration Time (usec): 50000 (USB2+H05261)
Spectra Averaged: 1 (USB2+H05261)
Boxcar Smoothing: 0 (USB2+H05261)
Correct for Electrical Dark: No (USB2+H05261)
Strobe/Lamp Enabled: No (USB2+H05261)
Correct for Detector Non-linearity: No (USB2+H05261)
Correct for Stray Light: No (USB2+H05261)
Number of Pixels in Processed Spectrum: 2048
>>>>>Begin Processed Spectral Data<<<<<
365.73	0.00
365.92	0.00
366.12	0.00
366.32	0.00
366.52	0.00
366.72	0.00
366.91	0.00
367.11	0.00
367.31	0.00
367.51	0.00
367.70	0.00
367.90	0.00
368.10	0.00
368.30	0.00
368.49	0.00
368.69	0.00
368.89	0.00
369.09	0.00
369.28	0.00
369.48	0.00
369.68	0.00
369.87	0.00
370.07	0.00
370.27	0.00
370.47	0.00
370.66	98.30
370.86	65.54
371.06	100.64
371.25	170.86
371.45	131.07
371.65	173.20
371.84	133.41
372.04	98.30
372.24	175.54
372.44	117.03
372.63	201.29
372.83	245.76
373.03	208.31
373.22	191.92
373.42	224.69
373.62	229.37
373.81	187.24
374.01	280.86
374.21	227.03
374.40	248.10
374.60	255.12
374.79	238.73
374.99	311.29
375.19	243.42
375.38	241.08
375.58	234.05
375.78	241.08
375.97	273.84
376.17	381.51
376.37	297.25
376.56	224.69
376.76	241.08
376.95	259.80
377.15	238.73
377.35	294.91
377.54	320.65
377.74	348.74
377.93	252.78
378.13	191.92
378.33	266.82
378.52	243.42
378.72	301.93
378.91	271.50
379.11	334.70
379.31	322.99
379.50	348.74
379.70	292.57
379.89	386.19
380.09	327.68
380.28	299.59
380.48	311.29
380.68	241.08
380.87	257.46
381.07	362.78
381.26	344.06
381.46	273.84
381.65	341.72
381.85	330.02
382.04	252.78
382.24	393.21
382.43	353.42
382.63	327.68
382.83	278.52
383.02	299.59
383.22	369.80
383.41	337.04
383.61	311.29
383.80	383.85
384.00	334.70
384.19	341.72
384.39	400.23
384.58	327.68
384.78	348.74
384.97	400.23
385.17	444.70
385.36	414.27
385.56	348.74
385.75	353.42
385.95	381.51
386.14	449.38
386.34	447.04
386.53	341.72
386.72	390.87
386.92	489.17
387.11	414.27
387.31	367.46
387.50	372.15
387.70	428.32
387.89	372.15
388.09	365.12
388.28	332.36
388.48	386.19
388.67	425.98
388.86	437.68
389.06	444.70
389.25	486.83
389.45	411.93
389.64	451.72
389.84	498.53
390.03	531.30
390.22	423.64
390.42	521.94
390.61	505.56
390.81	533.64
391.00	514.92
391.19	543.00
391.39	528.96
391.58	514.92
391.78	486.83
391.97	519.60
392.16	465.77
392.36	521.94
392.55	545.34
392.75	554.71
392.94	514.92
393.13	596.84
393.33	631.94
393.52	489.17
393.71	634.29
393.91	585.13
394.10	601.52
394.29	535.98
394.49	535.98
394.68	634.29
394.88	552.37
395.07	653.01
395.26	601.52
395.46	678.76
395.65	624.92
395.84	587.47
396.04	610.88
396.23	624.92
396.42	629.60
396.62	557.05
396.81	692.80
397.00	734.93
397.19	636.63
397.39	660.03
397.58	730.25
397.77	643.65
397.97	711.52
398.16	653.01
398.35	699.82
398.55	737.27
398.74	676.41
398.93	706.84
399.12	704.50
399.32	711.52
399.51	732.59
399.70	753.65
399.90	793.44
400.09	751.31
400.28	795.78
400.47	772.38
400.67	828.55
400.86	807.48
401.05	699.82
401.24	873.02
401.44	842.59
401.63	856.64
401.82	851.96
402.01	840.25
402.21	784.08
402.40	858.98
402.59	851.96
402.78	851.96
402.97	877.70
403.17	891.74
403.36	896.43
403.55	858.98
403.74	863.66
403.93	875.36
404.13	882.38
404.32	926.85
404.51	929.19
404.70	997.07
404.89	936.21
405.09	1046.22
405.28	971.32
405.47	964.30
405.66	1036.86
405.85	1039.20
406.05	1034.52
406.24	1043.88
406.43	924.51
406.62	968.98
406.81	1074.31
407.00	1027.50
407.20	945.58
407.39	1013.45
407.58	1076.65
407.77	1025.15
407.96	1081.33
408.15	1135.16
408.34	1086.01
408.54	1146.86
408.73	1144.52
408.92	1095.37
409.11	1167.93
409.30	1116.44
409.49	1165.59
409.68	1174.95
409.87	1217.08
410.07	1280.27
410.26	1193.67
410.45	1282.61
410.64	1184.31
410.83	1210.06
411.02	1252.19
411.21	1270.91
411.40	1191.33
411.59	1364.53
411.78	1287.29
411.98	1254.53
412.17	1320.06
412.36	1416.02
412.55	1334.11
412.74	1406.66
412.93	1303.68
413.12	1394.96
413.31	1418.36
413.50	1385.60
413.69	1411.34
413.88	1579.86
414.07	1507.30
414.26	1540.07
414.45	1441.77
414.64	1397.30
414.83	1528.37
415.02	1535.39
415.22	1523.69
415.41	1535.39
415.60	1523.69
415.79	1556.46
415.98	1589.22
416.17	1647.74
416.36	1664.12
416.55	1666.46
416.74	1710.93
416.93	1755.40
417.12	1570.50
417.31	1654.76
417.50	1689.87
417.69	1666.46
417.88	1736.68
418.07	1771.79
418.26	1760.08
418.45	1696.89
418.64	1804.55
418.83	1795.19
419.02	1891.15
419.21	1844.34
419.39	1877.11
419.58	1858.39
419.77	1872.43
419.96	1921.58
420.15	1961.37
420.34	1968.39
420.53	1947.33
420.72	1975.41
420.91	1947.33
421.10	2008.18
421.29	2057.33
421.48	1930.94
421.67	2066.69
421.86	1954.35
422.05	2062.01
422.24	1996.48
422.43	2012.86
422.61	1933.28
422.80	2052.65
422.99	2069.03
423.18	1998.82
423.37	2071.37
423.56	2101.80
423.75	1989.46
423.94	2066.69
424.13	1893.49
424.32	2054.99
424.50	2078.40
424.69	2143.93
424.88	2106.48
425.07	2026.90
425.26	1973.07
425.45	1994.14
425.64	2195.42
425.83	2019.88
426.01	2101.80
426.20	2087.76
426.39	2181.38
426.58	2097.12
426.77	2176.70
426.96	2167.34
427.15	2129.89
427.33	2162.66
427.52	1987.11
427.71	2120.53
427.90	2115.84
428.09	2333.51
428.28	2216.49
428.46	2277.34
428.65	2221.17
428.84	2235.21
429.03	2275.00
429.22	2242.23
429.40	2249.25
429.59	2307.77
429.78	2289.04
429.97	2237.55
430.16	2312.45
430.34	2321.81
430.53	2441.18
430.72	2370.96
430.91	2354.58
431.10	2331.17
431.28	2345.22
431.47	2406.07
431.66	2366.28
431.85	2370.96
432.03	2595.65
432.22	2562.89
432.41	2518.42
432.60	2420.11
432.79	2551.18
432.97	2490.33
433.16	2548.84
433.35	2459.90
433.54	2593.31
433.72	2628.42
433.91	2565.23
434.10	2661.19
434.28	2665.87
434.47	2605.02
434.66	2635.44
434.85	2675.23
435.03	2588.63
435.22	2609.70
435.41	2731.41
435.59	2729.06
435.78	2743.11
435.97	2726.72
436.16	2726.72
436.34	2719.70
436.53	2719.70
436.72	2888.22
436.90	2703.32
437.09	2827.37
437.28	2738.43
437.46	2743.11
437.65	2850.77
437.84	2801.62
438.02	2834.39
438.21	2813.32
438.40	2874.18
438.58	2939.71
438.77	2920.99
438.96	3040.36
439.14	2998.23
439.33	3002.91
439.52	3159.72
439.70	2953.76
439.89	3101.21
440.08	3150.36
440.26	3232.28
440.45	3133.98
440.63	3119.93
440.82	3239.30
441.01	3136.32
441.19	3173.77
441.38	3239.30
441.57	3243.98
441.75	3337.60
441.94	3260.37
442.12	3332.92
442.31	3417.18
442.50	3389.10
442.68	3433.57
442.87	3358.67
443.05	3307.18
443.24	3449.95
443.43	3368.03
443.61	3471.01
443.80	3485.06
443.98	3426.54
444.17	3241.64
444.35	3447.61
444.54	3506.12
444.73	3534.21
444.91	3454.63
445.10	3475.70
445.28	3421.86
445.47	3566.98
445.65	3552.93
445.84	3576.34
446.02	3492.08
446.21	3407.82
446.39	3578.68
446.58	3609.11
446.77	3702.73
446.95	3461.65
447.14	3559.95
447.32	3595.06
447.51	3531.87
447.69	3538.89
447.88	3669.96
448.06	3550.59
448.25	3578.68
448.43	3534.21
448.62	3653.58
448.80	3693.37
448.99	3611.45
449.17	3662.94
449.36	3623.15
449.54	3630.17
449.73	3808.05
449.91	3709.75
450.10	3719.11
450.28	3882.95
450.46	3716.77
450.65	3735.50
450.83	3882.95
451.02	3932.10
451.20	3761.24
451.39	3889.97
451.57	3735.50
451.76	3765.92
451.94	3761.24
452.13	4016.36
452.31	3808.05
452.49	3829.12
452.68	3981.25
452.86	3859.54
453.05	3934.44
453.23	4011.68
453.42	3845.50
453.60	3906.35
453.78	3934.44
453.97	3866.56
454.15	4093.60
454.34	3889.97
454.52	4079.55
454.70	4070.19
454.89	4018.70
455.07	4219.99
455.26	4081.89
455.44	4266.80
455.62	4145.09
455.81	4173.18
455.99	4203.60
456.17	4131.05
456.36	4198.92
456.54	4248.07
456.73	4451.70
456.91	4449.36
457.09	4510.21
457.28	4376.80
457.46	4287.86
457.64	4526.60
457.83	4519.57
458.01	4400.21
458.19	4376.80
458.38	4379.14
458.56	4493.83
458.74	4482.13
458.93	4491.49
459.11	4620.22
459.29	4594.47
459.48	4594.47
459.66	4285.52
459.84	4531.28
460.03	4674.05
460.21	4723.20
460.39	4521.92
460.57	4667.03
460.76	4786.40
460.94	4744.27
461.12	4622.56
461.31	4624.90
461.49	4774.69
461.67	4762.99
461.85	4919.81
462.04	4809.80
462.22	5146.84
462.40	4882.36
462.59	4718.52
462.77	4875.34
462.95	4795.76
463.13	4882.36
463.32	4894.06
463.50	4882.36
463.68	4821.50
463.86	4854.27
464.05	4898.74
464.23	4964.28
464.41	5116.41
464.59	4851.93
464.78	5053.22
464.96	5034.49
465.14	5181.95
465.32	5181.95
465.50	5043.85
465.69	5090.67
465.87	5088.32
466.05	5156.20
466.23	4985.34
466.41	5128.11
466.60	5294.29
466.78	5179.61
466.96	5294.29
467.14	5135.14
467.32	5249.82
467.51	5160.88
467.69	5116.41
467.87	5125.77
468.05	5338.76
468.23	5397.28
468.41	5338.76
468.60	5397.28
468.78	5418.34
468.96	5289.61
469.14	5235.78
469.32	5343.44
469.50	5170.24
469.69	5509.62
469.87	5694.52
470.05	5504.94
470.23	5547.07
470.41	5636.01
470.59	5799.85
470.77	5582.18
470.95	5593.88
471.14	5738.99
471.32	5462.81
471.50	5809.21
471.68	5764.74
471.86	5659.42
472.04	5687.50
472.22	5954.32
472.40	5694.52
472.58	5949.64
472.77	5884.11
472.95	5839.64
473.13	6043.26
473.31	5923.90
473.49	5874.74
473.67	5888.79
473.85	6108.80
474.03	6080.71
474.21	6066.67
474.39	6300.72
474.57	6174.33
474.75	6179.01
474.93	6333.49
475.12	6155.61
475.30	6263.27
475.48	6188.38
475.66	6441.15
475.84	6396.68
476.02	6443.49
476.20	6478.60
476.38	6705.63
476.56	6810.96
476.74	6703.29
476.92	6759.47
477.10	6640.10
477.28	6745.42
477.46	6700.95
477.64	6689.25
477.82	6979.48
478.00	7105.87
478.18	7094.16
478.36	7215.87
478.54	7159.70
478.72	7346.94
478.90	7290.77
479.08	7428.86
479.26	7332.90
479.44	7461.63
479.62	7552.91
479.80	7424.18
479.98	7606.74
480.16	7592.70
480.34	7756.54
480.52	7847.82
480.70	7927.39
480.88	7679.30
481.06	7793.98
481.24	7927.39
481.41	8046.76
481.59	8147.40
481.77	8161.45
481.95	8416.57
482.13	8140.38
482.31	8273.79
482.49	8360.39
482.67	8500.83
482.85	8622.53
483.03	8655.30
483.21	8868.29
483.39	8704.45
483.57	8545.30
483.74	8954.89
483.92	9029.79
484.10	8912.76
484.28	9008.72
484.46	9074.26
484.64	9495.55
484.82	9280.22
485.00	9336.40
485.18	9413.63
485.35	9776.42
485.53	9605.56
485.71	9685.14
485.89	9935.57
486.07	9783.44
486.25	9891.10
486.43	9921.53
486.61	9848.97
486.78	10120.48
486.96	10239.84
487.14	10335.81
487.32	10384.96
487.50	10335.81
487.68	10443.47
487.85	10626.03
488.03	10883.49
488.21	10890.51
488.39	11035.63
488.57	10736.04
488.75	11019.24
488.92	10998.18
489.10	11243.93
489.28	11063.71
489.46	11281.38
489.64	11173.72
489.81	11468.62
489.99	11414.79
490.17	11597.35
490.35	11695.66
490.53	11695.66
490.70	11793.96
490.88	11995.25
491.06	12175.47
491.24	11896.94
491.41	12269.09
491.59	12269.09
491.77	12273.77
491.95	12521.87
492.13	12369.73
492.30	12336.96
492.48	12627.19
492.66	12779.32
492.84	12800.39
493.01	12730.17
493.19	12961.89
493.37	12891.67
493.54	13036.78
493.72	12863.58
493.90	13221.69
494.08	13062.53
494.25	13329.35
494.43	13266.16
494.61	13525.96
494.79	13659.37
494.96	13628.94
495.14	13757.67
495.32	13862.99
495.49	13755.33
495.67	13928.53
495.85	14134.50
496.02	14029.17
496.20	14293.65
496.38	14249.18
496.55	14064.28
496.73	14572.18
496.91	14338.12
497.09	14553.45
497.26	14703.25
497.44	14829.63
497.62	14853.04
497.79	15147.95
497.97	14979.43
498.14	15154.97
498.32	15143.27
498.50	15389.02
498.67	15131.56
498.85	15293.06
499.03	15325.83
499.20	15492.01
499.38	15573.92
499.56	15412.43
499.73	15730.74
499.91	15531.80
500.08	15637.12
500.26	15559.88
500.44	15861.81
500.61	16116.93
500.79	16009.26
500.97	15936.71
501.14	16278.43
501.32	16374.39
501.49	16376.73
501.67	16046.71
501.84	16313.53
502.02	16332.26
502.20	16503.12
502.37	16533.54
502.55	16425.88
502.72	16659.93
502.90	16896.33
503.07	16489.07
503.25	17003.99
503.43	16673.98
503.60	16959.52
503.78	17022.72
503.95	17027.40
504.13	16814.41
504.30	17046.12
504.48	16959.52
504.65	16931.44
504.83	17493.16
505.01	17518.91
505.18	17549.34
505.36	17502.53
505.53	17371.46
505.71	17291.88
505.88	17425.29
506.06	17439.33
506.23	17612.53
506.41	17617.21
506.58	17764.67
506.76	18012.76
506.93	17928.50
507.11	17710.83
507.28	18022.12
507.46	17846.58
507.63	18106.38
507.81	18417.68
507.98	18036.17
508.16	18420.02
508.33	18031.49
508.50	18104.04
508.68	18572.15
508.85	18286.61
509.03	18684.50
509.20	18684.50
509.38	18806.20
509.55	18794.50
509.73	18956.00
509.90	18637.69
510.08	18801.52
510.25	18785.14
510.42	19098.77
510.60	19300.06
510.77	18951.32
510.95	19377.30
511.12	19398.36
511.30	19246.23
511.47	19232.18
511.64	19419.42
511.82	19393.68
511.99	19307.08
512.17	19487.30
512.34	19735.40
512.51	19611.35
512.69	19559.86
512.86	19564.54
513.04	19885.19
513.21	20168.40
513.38	20046.69
513.56	20020.94
513.73	20009.24
513.90	20086.48
514.08	20053.71
514.25	20196.48
514.43	20313.51
514.60	20238.61
514.77	20365.00
514.95	20533.52
515.12	20051.37
515.29	19964.77
515.47	20542.88
515.64	20540.54
515.81	20840.13
515.99	20774.60
516.16	21027.37
516.33	20844.81
516.51	21003.97
516.68	20596.71
516.85	20599.05
517.03	20975.88
517.20	20856.51
517.37	21097.59
517.54	21188.87
517.72	20982.90
517.89	21181.85
518.06	20996.95
518.24	21137.38
518.41	21156.10
518.58	21556.33
518.75	21284.83
518.93	21476.76
519.10	21532.93
519.27	21607.83
519.45	21549.31
519.62	21310.58
519.79	21717.83
519.96	21628.89
520.14	21909.75
520.31	21612.51
520.48	21846.56
520.65	21755.28
520.83	21841.88
521.00	21771.66
521.17	22094.66
521.34	22129.77
521.52	22260.84
521.69	22485.53
521.86	22457.44
522.03	22078.27
522.20	22651.70
522.38	22590.85
522.55	22410.63
522.72	22251.47
522.89	22281.90
523.07	22768.73
523.24	22565.10
523.41	22640.00
523.58	22452.76
523.75	22654.05
523.92	22649.36
524.10	22497.23
524.27	22831.93
524.44	22960.66
524.61	23260.24
524.78	22927.89
524.96	22843.63
525.13	23147.90
525.30	23094.07
525.47	23283.65
525.64	23089.38
525.81	23044.91
525.98	23417.06
526.16	23403.02
526.33	22979.38
526.50	23817.29
526.67	23349.18
526.84	23456.85
527.01	23608.98
527.18	23606.64
527.36	23749.42
527.53	23566.85
527.70	23700.26
527.87	23658.14
528.04	23550.47
528.21	23770.48
528.38	23695.58
528.55	24290.08
528.72	24058.37
528.89	23726.01
529.07	24217.52
529.24	23931.98
529.41	24088.79
529.58	23985.81
529.75	23641.75
529.92	24147.31
530.09	24137.94
530.26	23985.81
530.43	24294.76
530.60	24112.20
530.77	24350.93
530.94	24346.25
531.11	24435.19
531.28	24617.75
531.46	24458.60
531.63	24723.08
531.80	24561.58
531.97	24809.68
532.14	24849.47
532.31	24692.65
532.48	24837.76
532.65	24968.84
532.82	24456.26
532.99	24847.13
533.16	24404.77
533.33	25135.01
533.50	24959.47
533.67	25006.28
533.84	24865.85
534.01	25158.42
534.18	24879.89
534.35	25174.80
534.52	24952.45
534.69	25348.00
534.86	25308.21
535.03	25441.62
535.20	25439.28
535.37	25450.99
535.54	25619.50
535.71	25359.70
535.88	25081.18
536.05	25233.32
536.22	25198.21
536.38	25598.44
536.55	25144.38
536.72	25582.06
536.89	25502.48
537.06	25448.64
537.23	25832.49
537.40	25366.73
537.57	25905.05
537.74	25799.73
537.91	26192.94
538.08	26515.93
538.25	26024.42
538.42	26036.12
538.59	26284.22
538.75	25645.25
538.92	25919.09
539.09	26111.02
539.26	26148.46
539.43	26157.83
539.60	26279.54
539.77	26312.30
539.94	26204.64
540.11	26253.79
540.28	26356.77
540.44	26012.71
540.61	26031.44
540.78	26251.45
540.95	26349.75
541.12	26305.28
541.29	26396.56
541.46	26214.00
541.62	26541.68
541.79	26522.95
541.96	26326.35
542.13	26319.32
542.30	26555.72
542.47	26834.24
542.63	26752.32
542.80	26855.31
542.97	26934.88
543.14	26986.38
543.31	27040.21
543.48	26939.57
543.64	27349.16
543.81	27229.79
543.98	27307.03
544.15	27150.21
544.32	27300.01
544.48	27498.95
544.65	27246.18
544.82	27063.61
544.99	27445.12
545.16	27122.13
545.32	27213.41
545.49	27803.22
545.66	27454.48
545.83	27962.38
546.00	27527.04
546.16	27456.82
546.33	27498.95
546.50	27253.20
546.67	27672.15
546.83	26984.04
547.00	27852.38
547.17	27428.74
547.34	27531.72
547.50	27763.43
547.67	28013.87
547.84	27737.69
548.00	27931.95
548.17	27800.88
548.34	27674.49
548.51	28023.23
548.67	27665.13
548.84	28180.05
549.01	28016.21
549.18	27850.03
549.34	27700.24
549.51	27924.93
549.68	27768.12
549.84	27950.68
550.01	27917.91
550.18	28224.52
550.34	28336.87
550.51	28254.95
550.68	28503.04
550.84	28287.71
551.01	28364.95
551.18	28006.85
551.34	28156.64
551.51	27953.02
551.68	28091.11
551.84	28603.69
552.01	28402.40
552.18	28416.44
552.34	28407.08
552.51	28456.23
552.68	28449.21
552.84	28357.93
553.01	28606.03
553.18	28650.50
553.34	28680.92
553.51	28666.88
553.67	28877.53
553.84	28877.53
554.01	28758.16
554.17	28996.90
554.34	28687.95
554.51	28833.06
554.67	28889.23
554.84	28737.10
555.00	28690.29
555.17	28968.81
555.33	28945.41
555.50	28947.75
555.67	29010.94
555.83	28961.79
556.00	29134.99
556.16	29263.72
556.33	28966.47
556.50	29228.61
556.66	29315.21
556.83	28978.17
556.99	29130.31
557.16	29457.98
557.32	29134.99
557.49	29560.97
557.65	29134.99
557.82	28959.45
557.98	29067.11
558.15	28952.43
558.32	29359.68
558.48	29209.89
558.65	29881.62
558.81	29432.24
558.98	29151.37
559.14	29326.91
559.31	29301.17
559.47	29383.09
559.64	29284.78
559.80	29509.47
559.97	29380.74
560.13	29450.96
560.30	29186.48
560.46	29347.98
560.63	29511.81
560.79	29654.59
560.96	29645.23
561.12	29427.56
561.29	29394.79
561.45	29729.48
561.61	29813.74
561.78	29780.98
561.94	29762.25
562.11	29811.40
562.27	29832.47
562.44	29848.85
562.60	30024.39
562.77	29832.47
562.93	29750.55
563.10	29855.87
563.26	30153.12
563.42	29844.17
563.59	30015.03
563.75	29607.78
563.92	29900.34
564.08	29677.99
564.24	29825.45
564.41	29851.19
564.57	29624.16
564.74	29701.40
564.90	29790.34
565.07	30270.15
565.23	29734.17
565.39	30242.06
565.56	30438.67
565.72	29572.67
565.88	29883.96
566.05	29895.66
566.21	29654.59
566.38	30040.78
566.54	30052.48
566.70	30398.88
566.87	30305.26
567.03	30157.80
567.19	30127.38
567.36	30291.21
567.52	30293.55
567.68	30160.14
567.85	29811.40
568.01	30022.05
568.17	29820.77
568.34	30132.06
568.50	30368.45
568.66	30036.09
568.83	30412.92
568.99	30682.08
569.15	30267.81
569.32	30228.02
569.48	30068.86
569.64	30267.81
569.81	29998.65
569.97	30511.22
570.13	30457.39
570.30	30099.29
570.46	30398.88
570.62	30471.43
570.78	29958.86
570.95	30312.28
571.11	30122.69
571.27	29993.97
571.43	30061.84
571.60	30508.88
571.76	29876.94
571.92	30604.84
572.09	30618.89
572.25	30553.35
572.41	30452.71
572.57	30284.19
572.74	30583.78
572.90	30403.56
573.06	30689.10
573.22	30213.98
573.38	30480.80
573.55	30286.53
573.71	30277.17
573.87	30663.36
574.03	30459.73
574.20	30249.08
574.36	30433.99
574.52	30321.64
574.68	30527.61
574.84	30436.33
575.01	30515.90
575.17	30586.12
575.33	30249.08
575.49	30307.60
575.65	30436.33
575.82	30553.35
575.98	30710.17
576.14	30426.96
576.30	30534.63
576.46	30314.62
576.62	30462.07
576.79	30532.29
576.95	30796.77
577.11	30698.47
577.27	30677.40
577.43	30712.51
577.59	30560.37
577.75	30960.61
577.92	30700.81
578.08	30361.43
578.24	30478.46
578.40	30689.10
578.56	31129.12
578.72	30792.09
578.88	30813.15
579.04	30918.48
579.21	30581.44
579.37	30696.13
579.53	31005.08
579.69	30815.49
579.85	30424.62
580.01	30895.07
580.17	30576.76
580.33	30424.62
580.49	30927.84
580.65	30906.77
580.82	30831.88
580.98	30948.90
581.14	30719.53
581.30	30792.09
581.46	30555.69
581.62	30527.61
581.78	30789.75
581.94	30621.23
582.10	30574.42
582.26	30658.68
582.42	30759.32
582.58	30902.09
582.74	30455.05
582.90	30778.04
583.06	30998.06
583.22	30700.81
583.38	30841.24
583.54	30445.69
583.70	30642.29
583.86	30911.46
584.02	30764.00
584.18	31213.38
584.34	30527.61
584.50	31133.81
584.66	30480.80
584.82	30782.73
584.98	30607.19
585.14	31000.40
585.30	30160.14
585.46	30670.38
585.62	30752.30
585.78	30895.07
585.94	30778.04
586.10	31012.10
586.26	30827.20
586.42	30930.18
586.58	31061.25
586.74	30691.44
586.90	30789.75
587.06	30581.44
587.22	31007.42
587.38	31063.59
587.54	31054.23
587.70	31262.54
587.86	30941.88
588.02	30944.22
588.18	31136.15
588.34	30881.03
588.49	31049.55
588.65	31124.44
588.81	30525.27
588.97	30981.67
589.13	30878.69
589.29	30969.97
589.45	30946.56
589.61	31335.09
589.77	31541.06
589.93	31580.85
590.08	31353.82
590.24	31295.30
590.40	31283.60
590.56	31356.16
590.72	30794.43
590.88	30937.20
591.04	31070.61
591.20	31152.53
591.35	31091.68
591.51	31353.82
591.67	31292.96
591.83	31367.86
591.99	31250.83
592.15	31393.61
592.31	31374.88
592.46	31173.60
592.62	31328.07
592.78	31089.34
592.94	31119.76
593.10	30895.07
593.26	31192.32
593.41	31307.01
593.57	31512.97
593.73	31035.50
593.89	31648.72
594.05	31510.63
594.20	31299.98
594.36	31150.19
594.52	31222.75
594.68	31234.45
594.84	31012.10
594.99	31288.28
595.15	31360.84
595.31	31590.21
595.47	31887.46
595.62	31147.85
595.78	31496.59
595.94	31330.41
596.10	31512.97
596.25	31433.39
596.41	31438.08
596.57	31166.57
596.73	31409.99
596.88	31089.34
597.04	31639.36
597.20	31316.37
597.36	31475.52
597.51	31681.49
597.67	31253.17
597.83	31152.53
597.99	31576.17
598.14	31047.21
598.30	31197.00
598.46	31096.36
598.61	31330.41
598.77	31204.02
598.93	31489.57
599.09	31325.73
599.24	31688.51
599.40	31690.85
599.56	31384.24
599.71	31669.79
599.87	31433.39
600.03	31459.14
600.18	31248.49
600.34	31145.51
600.50	31482.55
600.65	31505.95
600.81	31651.06
600.97	31604.25
601.12	32011.51
601.28	31707.24
601.44	31842.99
601.59	31672.13
601.75	31672.13
601.91	31573.83
602.06	31292.96
602.22	31515.31
602.37	31349.14
602.53	31721.28
602.69	31573.83
602.84	31669.79
603.00	31456.80
603.16	31761.07
603.31	31040.18
603.47	31718.94
603.62	31328.07
603.78	31271.90
603.94	31264.88
604.09	31456.80
604.25	31651.06
604.40	31311.69
604.56	31945.97
604.71	31627.66
604.87	31519.99
605.03	31435.74
605.18	31452.12
605.34	31435.74
605.49	31185.30
605.65	31314.03
605.80	30759.32
605.96	31204.02
606.12	31274.24
606.27	31398.29
606.43	31194.66
606.58	30944.22
606.74	31351.48
606.89	31562.12
607.05	31384.24
607.20	31615.96
607.36	31534.04
607.51	31215.72
607.67	31204.02
607.82	31173.60
607.98	31072.95
608.13	31358.50
608.29	31662.77
608.44	31428.71
608.60	31154.87
608.75	31805.54
608.91	31679.15
609.06	31337.43
609.22	31700.22
609.37	30775.70
609.53	31187.64
609.68	31119.76
609.84	31246.15
609.99	31290.62
610.15	30733.57
610.30	30967.63
610.46	30834.22
610.61	31178.28
610.76	31187.64
610.92	31136.15
611.07	31105.72
611.23	30836.56
611.38	31276.58
611.54	30920.82
611.69	30806.13
611.84	31056.57
612.00	30944.22
612.15	30787.41
612.31	31150.19
612.46	30810.81
612.62	31281.26
612.77	31239.13
612.92	31229.77
613.08	30974.65
613.23	31000.40
613.39	30991.03
613.54	30583.78
613.69	30707.83
613.85	31189.98
614.00	30764.00
614.15	30932.52
614.31	30902.09
614.46	30967.63
614.62	30543.99
614.77	31044.87
614.92	30855.28
615.08	31152.53
615.23	31023.80
615.38	30527.61
615.54	30698.47
615.69	30658.68
615.84	30293.55
616.00	30616.55
616.15	30721.87
616.30	31084.65
616.46	30452.71
616.61	30843.58
616.76	30841.24
616.92	30583.78
617.07	30389.52
617.22	30625.91
617.37	30305.26
617.53	30930.18
617.68	30576.76
617.83	30515.90
617.99	30403.56
618.14	30754.64
618.29	30787.41
618.45	30213.98
618.60	30822.51
618.75	30260.79
618.90	30450.37
619.06	30749.96
619.21	29883.96
619.36	30356.75
619.51	30389.52
619.67	30120.35
619.82	30057.16
619.97	30485.48
620.12	30405.90
620.28	30167.16
620.43	30661.02
620.58	30466.75
620.73	30485.48
620.89	30590.80
621.04	30497.18
621.19	30331.00
621.34	30466.75
621.49	30237.38
621.65	30082.91
621.80	30211.64
621.95	30000.99
622.10	30068.86
622.25	29839.49
622.41	30066.52
622.56	30115.67
622.71	30302.92
622.86	30136.74
623.01	29933.11
623.16	29970.56
623.32	30033.75
623.47	29986.94
623.62	29806.72
623.77	29858.21
623.92	30050.14
624.07	29940.13
624.23	29839.49
624.38	29757.57
624.53	29879.28
624.68	30125.04
624.83	30176.53
624.98	30052.48
625.13	30157.80
625.29	30089.93
625.44	29757.57
625.59	29762.25
625.74	29567.99
625.89	29598.41
626.04	29713.10
626.19	29614.80
626.34	29563.31
626.49	29631.18
626.65	29469.69
626.80	29722.46
626.95	29776.30
627.10	29764.59
627.25	29209.89
627.40	29558.63
627.55	29626.50
627.70	29497.77
627.85	29628.84
628.00	29326.91
628.15	29593.73
628.30	29284.78
628.45	29280.10
628.60	29415.85
628.76	29446.28
628.91	29635.86
629.06	29439.26
629.21	29060.09
629.36	29226.27
629.51	29235.63
629.66	29109.24
629.81	29268.40
629.96	29383.09
630.11	28840.08
630.26	28940.72
630.41	28790.93
630.56	28821.36
630.71	29453.30
630.86	29111.58
631.01	28985.19
631.16	29497.77
631.31	29193.50
631.46	28610.71
631.61	29296.49
631.76	29179.46
631.91	29125.63
632.06	28556.88
632.21	28905.62
632.36	29041.37
632.51	28964.13
632.66	29085.84
632.81	28566.24
632.96	28540.49
633.10	28917.32
633.25	28975.83
633.40	28760.50
633.55	28685.61
633.70	28594.32
633.85	28816.68
634.00	28339.21
634.15	28664.54
634.30	28533.47
634.45	28587.30
634.60	28177.71
634.75	28683.27
634.90	28477.30
635.05	28432.83
635.19	28709.01
635.34	28882.21
635.49	28744.12
635.64	28549.85
635.79	28711.35
635.94	28512.41
636.09	28596.67
636.24	28421.13
636.39	28397.72
636.53	28470.28
636.68	28276.01
636.83	28435.17
636.98	28657.52
637.13	28376.66
637.28	28547.51
637.43	28531.13
637.57	28596.67
637.72	28587.30
637.87	28341.55
638.02	28297.08
638.17	28114.52
638.32	28114.52
638.46	28018.55
638.61	28268.99
638.76	27971.74
638.91	28119.20
639.06	28402.40
639.20	28226.86
639.35	27915.57
639.50	28114.52
639.65	28402.40
639.80	28287.71
639.94	28266.65
640.09	28360.27
640.24	27903.87
640.39	28037.28
640.54	28063.02
640.68	27419.38
640.83	27978.76
640.98	27754.07
641.13	27742.37
641.27	27882.80
641.42	28126.22
641.57	28240.90
641.72	28023.23
641.86	27903.87
642.01	27704.92
642.16	27777.48
642.31	27358.52
642.45	27709.60
642.60	27482.57
642.75	27316.39
642.90	27845.35
643.04	27447.46
643.19	27323.41
643.34	27983.44
643.48	27669.81
643.63	27407.67
643.78	27534.06
643.93	27999.83
644.07	27784.50
644.22	27580.87
644.37	27606.62
644.51	27611.30
644.66	27604.28
644.81	27477.89
644.95	27826.63
645.10	27372.57
645.25	27644.07
645.39	27175.96
645.54	27459.16
645.69	27215.75
645.83	27267.24
645.98	27440.44
646.13	27552.79
646.27	27220.43
646.42	27014.46
646.57	27225.11
646.71	27395.97
646.86	27021.48
647.00	27412.35
647.15	26967.65
647.30	27253.20
647.44	26937.23
647.59	27281.28
647.74	27229.79
647.88	27129.15
648.03	27283.62
648.17	27218.09
648.32	26885.73
648.47	27110.43
648.61	26628.27
648.76	27112.77
648.90	27117.45
649.05	27168.94
649.20	27091.70
649.34	26721.90
649.49	26504.23
649.63	26703.17
649.78	26888.07
649.92	27115.11
650.07	26745.30
650.21	26934.88
650.36	27089.36
650.51	26864.67
650.65	26808.50
650.80	27147.87
650.94	26752.32
651.09	26712.53
651.23	26735.94
651.38	26747.64
651.52	26527.63
651.67	26913.82
651.81	26658.70
651.96	26656.36
652.10	26340.39
652.25	26588.49
652.39	26513.59
652.54	26829.56
652.68	26789.77
652.83	26670.40
652.97	26682.11
653.12	26628.27
653.26	26356.77
653.41	26712.53
653.55	26572.10
653.70	26539.33
653.84	26459.76
653.99	26651.68
654.13	26506.57
654.27	26375.50
654.42	26419.97
654.56	26387.20
654.71	26274.85
654.85	26691.47
655.00	26249.11
655.14	26656.36
655.29	26438.69
655.43	26576.78
655.57	26115.70
655.72	26302.94
655.86	25993.99
656.01	26036.12
656.15	26064.21
656.30	26071.23
656.44	25539.93
656.58	25921.43
656.73	26263.15
656.87	26157.83
657.01	26239.75
657.16	25982.29
657.30	25923.77
657.45	26340.39
657.59	26188.25
657.73	26192.94
657.88	25851.22
658.02	25912.07
658.16	25879.30
658.31	25287.15
658.45	26232.72
658.60	25926.11
658.74	25844.20
658.88	25565.67
659.03	25591.42
659.17	25773.98
659.31	25834.83
659.46	25671.00
659.60	25743.55
659.74	25422.90
659.89	25841.85
660.03	25666.31
660.17	26085.27
660.32	25668.66
660.46	25142.03
660.60	24891.60
660.74	25448.64
660.89	25362.04
661.03	25369.07
661.17	25383.11
661.32	25200.55
661.46	25560.99
661.60	25050.75
661.74	25268.42
661.89	25326.94
662.03	25441.62
662.17	24854.15
662.31	25130.33
662.46	25034.37
662.60	24973.52
662.74	25111.61
662.88	24933.73
663.03	24889.26
663.17	24758.19
663.31	24592.01
663.45	24531.15
663.60	24620.10
663.74	24638.82
663.88	24676.27
664.02	24697.33
664.17	24673.93
664.31	24669.25
664.45	24554.56
664.59	24769.89
664.73	24222.20
664.88	24496.05
665.02	24041.98
665.16	24580.31
665.30	24184.76
665.44	24306.46
665.59	24336.89
665.73	24151.99
665.87	24058.37
666.01	24500.73
666.15	24428.17
666.29	24159.01
666.44	24154.33
666.58	23665.16
666.72	23936.66
666.86	23955.38
667.00	24156.67
667.14	23821.97
667.28	24093.47
667.43	23681.54
667.57	23718.99
667.71	23985.81
667.85	23667.50
667.99	23868.78
668.13	23679.20
668.27	23646.43
668.41	23960.06
668.56	23498.98
668.70	23405.36
668.84	23494.30
668.98	23716.65
669.12	23981.13
669.26	23981.13
669.40	23529.41
669.54	23594.94
669.68	23508.34
669.82	23264.92
669.96	22691.49
670.10	23194.71
670.25	23384.29
670.39	23033.21
670.53	22946.61
670.67	23040.23
670.81	22806.18
670.95	22944.27
671.09	22815.54
671.23	22995.76
671.37	23192.37
671.51	22948.95
671.65	23145.56
671.79	22731.28
671.93	22785.12
672.07	22752.35
672.21	22862.35
672.35	22309.99
672.49	22473.82
672.63	22300.62
672.77	22483.19
672.91	22377.86
673.05	22553.40
673.19	22668.09
673.33	22307.65
673.47	22518.29
673.61	22719.58
673.75	22286.58
673.89	22188.28
674.03	21989.33
674.17	22003.38
674.31	22054.87
674.45	22092.32
674.59	22043.17
674.73	22064.23
674.87	21762.30
675.01	21790.39
675.15	21556.33
675.29	21593.78
675.43	21572.72
675.56	21818.47
675.70	21671.02
675.84	21586.76
675.98	21317.60
676.12	21523.57
676.26	21919.12
676.40	21652.30
676.54	21628.89
676.68	21558.67
676.82	20851.83
676.96	21425.26
677.10	21312.92
677.23	20648.21
677.37	20959.50
677.51	21158.44
677.65	20851.83
677.79	20908.01
677.93	20671.61
678.07	20460.96
678.21	20423.51
678.34	20594.37
678.48	20383.73
678.62	20264.36
678.76	20233.93
678.90	20243.29
679.04	20210.53
679.18	20428.20
679.31	20032.65
679.45	19953.07
679.59	19924.98
679.73	19653.48
679.87	19896.89
680.00	19824.34
680.14	19555.18
680.28	19421.77
680.42	19639.44
680.56	19899.23
680.70	19655.82
680.83	19468.58
680.97	19667.52
681.11	19510.71
681.25	19307.08
681.39	19103.45
681.52	19281.33
681.66	19222.82
681.80	19358.57
681.94	19005.15
682.07	19194.73
682.21	19061.32
682.35	18539.38
682.49	18590.88
682.62	18916.21
682.76	18520.66
682.90	18771.10
683.04	18677.48
683.17	18513.64
683.31	18359.16
683.45	18778.12
683.59	18293.63
683.72	18455.12
683.86	18342.78
684.00	18361.50
684.13	18417.68
684.27	18270.22
684.41	18424.70
684.55	18319.37
684.68	17816.16
684.82	17963.61
684.96	17907.44
685.09	17823.18
685.23	17621.89
685.37	17848.93
685.50	18012.76
685.64	17671.04
685.78	17394.86
685.91	17678.07
686.05	17628.92
686.19	17481.46
686.32	17390.18
686.46	17137.40
686.60	16931.44
686.73	17025.06
686.87	17247.41
687.01	17149.11
687.14	16929.09
687.28	16744.19
687.42	16901.01
687.55	17116.34
687.69	16952.50
687.82	16847.18
687.96	16669.30
688.10	16711.42
688.23	16711.42
688.37	16308.85
688.50	16636.53
688.64	16332.26
688.78	16460.99
688.91	16358.00
689.05	16219.91
689.18	15950.75
689.32	15873.51
689.46	16205.87
689.59	16030.33
689.73	15929.69
689.86	15854.79
690.00	15857.13
690.13	15875.85
690.27	15728.40
690.41	15833.72
690.54	15597.33
690.68	15749.46
690.81	15784.57
690.95	15503.71
691.08	15454.56
691.22	15543.50
691.35	15499.03
691.49	15183.06
691.62	15335.19
691.76	15026.24
691.89	15339.87
692.03	15009.86
692.16	14916.23
692.30	14651.75
692.43	14839.00
692.57	15033.26
692.70	14609.62
692.84	14600.26
692.97	14843.68
693.11	14574.52
693.24	14429.40
693.38	14621.33
693.51	14445.79
693.65	14572.18
693.78	14523.02
693.92	14338.12
694.05	14284.29
694.19	14366.21
694.32	14176.62
694.45	14078.32
694.59	13832.57
694.72	13762.35
694.86	13561.06
694.99	13586.81
695.13	13858.31
695.26	13584.47
695.39	13673.41
695.53	13610.22
695.66	13830.23
695.80	13563.40
695.93	13434.68
696.07	13437.02
696.20	13394.89
696.33	13373.82
696.47	13142.11
696.60	13350.42
696.73	13188.92
696.87	13247.43
697.00	13226.37
697.14	12931.46
697.27	12992.31
697.40	12968.91
697.54	12894.01
697.67	12767.62
697.80	12578.04
697.94	12479.74
698.07	12592.08
698.21	12470.37
698.34	12547.61
698.47	12540.59
698.61	12615.49
698.74	12315.90
698.87	12341.64
699.01	12376.75
699.14	12475.06
699.27	12154.40
699.40	12156.74
699.54	12006.95
699.67	11974.18
699.80	11864.18
699.94	12067.80
700.07	11871.20
700.20	11903.96
700.34	11590.33
700.47	11744.81
700.60	11768.21
700.73	11709.70
700.87	11595.01
701.00	11655.87
701.13	11363.30
701.26	11454.58
701.40	11555.22
701.53	11524.80
701.66	11564.59
701.79	11403.09
701.93	11370.32
702.06	10949.03
702.19	11122.23
702.32	10822.64
702.46	10750.08
702.59	10759.44
702.72	10752.42
702.85	10750.08
702.99	10656.46
703.12	10733.70
703.25	10455.17
703.38	10644.76
703.51	10764.12
703.65	10593.26
703.78	10448.15
703.91	10443.47
704.04	10525.39
704.17	10457.51
704.31	10356.87
704.44	10593.26
704.57	10277.29
704.70	10424.75
704.83	10143.88
704.96	10216.44
705.10	10216.44
705.23	9870.04
>>>>>End Processed Spectral Data<<<<<
