SpectraSuite Data File
++++++++++++++++++++++++++++++++++++
Date: Fri Oct 18 13:58:02 GMT-05:00 2013
User: bianchi
Dark Spectrum Present: No
Reference Spectrum Present: No
Number of Sampled Component Spectra: 1
Spectrometers: USB2+H05261
Integration Time (usec): 50000 (USB2+H05261)
Spectra Averaged: 1 (USB2+H05261)
Boxcar Smoothing: 0 (USB2+H05261)
Correct for Electrical Dark: No (USB2+H05261)
Strobe/Lamp Enabled: No (USB2+H05261)
Correct for Detector Non-linearity: No (USB2+H05261)
Correct for Stray Light: No (USB2+H05261)
Number of Pixels in Processed Spectrum: 2048
>>>>>Begin Processed Spectral Data<<<<<
365.73	0.00
365.92	0.00
366.12	0.00
366.32	0.00
366.52	0.00
366.72	0.00
366.91	0.00
367.11	0.00
367.31	0.00
367.51	0.00
367.70	0.00
367.90	0.00
368.10	0.00
368.30	0.00
368.49	0.00
368.69	0.00
368.89	0.00
369.09	0.00
369.28	0.00
369.48	0.00
369.68	0.00
369.87	0.00
370.07	0.00
370.27	0.00
370.47	0.00
370.66	112.35
370.86	21.06
371.06	81.92
371.25	126.39
371.45	145.11
371.65	252.78
371.84	220.01
372.04	210.65
372.24	255.12
372.44	189.58
372.63	184.90
372.83	290.23
373.03	189.58
373.22	224.69
373.42	257.46
373.62	175.54
373.81	170.86
374.01	208.31
374.21	198.95
374.40	203.63
374.60	217.67
374.79	255.12
374.99	276.18
375.19	273.84
375.38	306.61
375.58	287.89
375.78	273.84
375.97	259.80
376.17	264.48
376.37	238.73
376.56	278.52
376.76	320.65
376.95	262.14
377.15	304.27
377.35	283.20
377.54	266.82
377.74	236.39
377.93	266.82
378.13	322.99
378.33	325.33
378.52	327.68
378.72	306.61
378.91	297.25
379.11	177.88
379.31	313.63
379.50	278.52
379.70	304.27
379.89	369.80
380.09	283.20
380.28	290.23
380.48	280.86
380.68	355.76
380.87	262.14
381.07	301.93
381.26	346.40
381.46	332.36
381.65	355.76
381.85	259.80
382.04	269.16
382.24	299.59
382.43	337.04
382.63	383.85
382.83	346.40
383.02	395.55
383.22	381.51
383.41	355.76
383.61	301.93
383.80	360.44
384.00	404.91
384.19	430.66
384.39	367.46
384.58	388.53
384.78	418.96
384.97	327.68
385.17	372.15
385.36	414.27
385.56	416.62
385.75	425.98
385.95	489.17
386.14	458.74
386.34	325.33
386.53	428.32
386.72	435.34
386.92	383.85
387.11	447.04
387.31	414.27
387.50	421.30
387.70	367.46
387.89	416.62
388.09	454.06
388.28	381.51
388.48	428.32
388.67	500.87
388.86	491.51
389.06	454.06
389.25	468.11
389.45	491.51
389.64	383.85
389.84	507.90
390.03	521.94
390.22	482.15
390.42	533.64
390.61	514.92
390.81	507.90
391.00	552.37
391.19	535.98
391.39	524.28
391.58	573.43
391.78	514.92
391.97	531.30
392.16	550.03
392.36	517.26
392.55	578.11
392.75	505.56
392.94	547.69
393.13	507.90
393.33	587.47
393.52	575.77
393.71	627.26
393.91	557.05
394.10	557.05
394.29	510.24
394.49	533.64
394.68	622.58
394.88	585.13
395.07	613.22
395.26	683.44
395.46	660.03
395.65	507.90
395.84	599.18
396.04	622.58
396.23	634.29
396.42	624.92
396.62	685.78
396.81	718.54
397.00	692.80
397.19	706.84
397.39	720.88
397.58	758.33
397.77	720.88
397.97	788.76
398.16	636.63
398.35	683.44
398.55	667.05
398.74	688.12
398.93	734.93
399.12	723.23
399.32	737.27
399.51	706.84
399.70	844.93
399.90	727.91
400.09	786.42
400.28	800.46
400.47	760.67
400.67	727.91
400.86	753.65
401.05	842.59
401.24	758.33
401.44	814.51
401.63	791.10
401.82	763.01
402.01	781.74
402.21	800.46
402.40	753.65
402.59	856.64
402.78	809.83
402.97	830.89
403.17	912.81
403.36	896.43
403.55	812.17
403.74	870.68
403.93	917.49
404.13	866.00
404.32	847.27
404.51	936.21
404.70	933.87
404.89	835.57
405.09	976.00
405.28	968.98
405.47	931.53
405.66	915.15
405.85	952.60
406.05	1029.84
406.24	957.28
406.43	968.98
406.62	994.73
406.81	1039.20
407.00	971.32
407.20	1046.22
407.39	1057.92
407.58	1055.58
407.77	1186.65
407.96	1067.28
408.15	1008.77
408.34	1083.67
408.54	1050.90
408.73	1137.50
408.92	1135.16
409.11	1114.10
409.30	1210.06
409.49	1170.27
409.68	1153.88
409.87	1200.69
410.07	1224.10
410.26	1186.65
410.45	1256.87
410.64	1151.54
410.83	1273.25
411.02	1224.10
411.21	1188.99
411.40	1219.42
411.59	1203.04
411.78	1263.89
411.98	1320.06
412.17	1397.30
412.36	1345.81
412.55	1301.34
412.74	1369.21
412.93	1380.92
413.12	1268.57
413.31	1416.02
413.50	1329.42
413.69	1469.86
413.88	1376.24
414.07	1390.28
414.26	1502.62
414.45	1425.39
414.64	1493.26
414.83	1530.71
415.02	1509.65
415.22	1568.16
415.41	1549.43
415.60	1469.86
415.79	1619.65
415.98	1631.35
416.17	1647.74
416.36	1647.74
416.55	1572.84
416.74	1600.93
416.93	1682.85
417.12	1671.14
417.31	1769.44
417.50	1727.32
417.69	1741.36
417.88	1811.57
418.07	1732.00
418.26	1771.79
418.45	1811.57
418.64	1820.94
418.83	1776.47
419.02	1827.96
419.21	1771.79
419.39	1849.02
419.58	1795.19
419.77	1842.00
419.96	1853.70
420.15	1844.34
420.34	1905.20
420.53	1863.07
420.72	1989.46
420.91	1926.26
421.10	1991.80
421.29	1949.67
421.48	1996.48
421.67	1944.99
421.86	1893.49
422.05	2001.16
422.24	1881.79
422.43	1966.05
422.61	2003.50
422.80	1952.01
422.99	2005.84
423.18	2019.88
423.37	1982.43
423.56	2136.91
423.75	1926.26
423.94	2038.61
424.13	1919.24
424.32	1935.62
424.50	2033.93
424.69	2005.84
424.88	2062.01
425.07	1956.69
425.26	2050.31
425.45	1933.28
425.64	2122.87
425.83	2033.93
426.01	2005.84
426.20	2036.27
426.39	1928.60
426.58	2083.08
426.77	2120.53
426.96	2186.06
427.15	2132.23
427.33	2183.72
427.52	2083.08
427.71	2129.89
427.90	2078.40
428.09	2153.29
428.28	2204.78
428.46	2172.02
428.65	2289.04
428.84	2228.19
429.03	2321.81
429.22	2195.42
429.40	2244.57
429.59	2218.83
429.78	2202.44
429.97	2129.89
430.16	2146.27
430.34	2326.49
430.53	2375.64
430.72	2380.32
430.91	2366.28
431.10	2303.09
431.28	2361.60
431.47	2349.90
431.66	2385.01
431.85	2303.09
432.03	2431.82
432.22	2541.82
432.41	2476.29
432.60	2387.35
432.79	2497.35
432.97	2431.82
433.16	2450.54
433.35	2452.88
433.54	2417.77
433.72	2576.93
433.91	2513.74
434.10	2513.74
434.28	2499.69
434.47	2518.42
434.66	2579.27
434.85	2532.46
435.03	2626.08
435.22	2644.81
435.41	2691.62
435.59	2576.93
435.78	2663.53
435.97	2602.68
436.16	2754.81
436.34	2619.06
436.53	2729.06
436.72	2726.72
436.90	2621.40
437.09	2832.05
437.28	2654.17
437.46	2597.99
437.65	2642.46
437.84	2843.75
438.02	2789.92
438.21	2724.38
438.40	2731.41
438.58	2874.18
438.77	2892.90
438.96	2942.05
439.14	2977.16
439.33	2918.65
439.52	2928.01
439.70	3087.17
439.89	3012.27
440.08	3077.80
440.26	3002.91
440.45	3066.10
440.63	3063.76
440.82	3101.21
441.01	3143.34
441.19	3204.19
441.38	3108.23
441.57	3234.62
441.75	3258.03
441.94	3316.54
442.12	3255.69
442.31	3255.69
442.50	3330.58
442.68	3328.24
442.87	3272.07
443.05	3229.94
443.24	3384.41
443.43	3389.10
443.61	3384.41
443.80	3499.10
443.98	3330.58
444.17	3316.54
444.35	3454.63
444.54	3503.78
444.73	3471.01
444.91	3407.82
445.10	3501.44
445.28	3536.55
445.47	3417.18
445.65	3337.60
445.84	3449.95
446.02	3562.30
446.21	3463.99
446.39	3424.20
446.58	3424.20
446.77	3506.12
446.95	3461.65
447.14	3592.72
447.32	3559.95
447.51	3449.95
447.69	3452.29
447.88	3515.48
448.06	3461.65
448.25	3496.76
448.43	3672.30
448.62	3520.17
448.80	3639.53
448.99	3602.08
449.17	3646.55
449.36	3712.09
449.54	3669.96
449.73	3772.94
449.91	3794.01
450.10	3721.45
450.28	3772.94
450.46	3712.09
450.65	3779.97
450.83	3585.70
451.02	3812.73
451.20	3838.48
451.39	3892.31
451.57	3822.09
451.76	3772.94
451.94	3880.61
452.13	3899.33
452.31	3899.33
452.49	3782.31
452.68	3819.75
452.86	3866.56
453.05	3906.35
453.23	3885.29
453.42	3786.99
453.60	4021.04
453.78	3932.10
453.97	3859.54
454.15	4004.66
454.34	3936.78
454.52	3978.91
454.70	4077.21
454.89	4074.87
455.07	4114.66
455.26	4063.17
455.44	4042.11
455.62	4051.47
455.81	4093.60
455.99	4212.96
456.17	4245.73
456.36	4208.28
456.54	4238.71
456.73	4109.98
456.91	4447.02
457.09	4215.30
457.28	4348.72
457.46	4208.28
457.64	4440.00
457.83	4292.54
458.01	4273.82
458.19	4355.74
458.38	4329.99
458.56	4437.66
458.74	4585.11
458.93	4528.94
459.11	4641.28
459.29	4500.85
459.48	4566.39
459.66	4428.29
459.84	4620.22
460.03	4578.09
460.21	4442.34
460.39	4526.60
460.57	4428.29
460.76	4657.67
460.94	4629.58
461.12	4575.75
461.31	4737.24
461.49	4819.16
461.67	4505.53
461.85	4660.01
462.04	4826.18
462.22	4901.08
462.40	4788.74
462.59	4622.56
462.77	5011.09
462.95	4809.80
463.13	4751.29
463.32	4791.08
463.50	4798.10
463.68	4889.38
463.86	4858.95
464.05	4788.74
464.23	4821.50
464.41	5039.17
464.59	4793.42
464.78	5069.60
464.96	5001.72
465.14	4812.14
465.32	4954.91
465.50	5137.48
465.69	5139.82
465.87	5018.11
466.05	5097.69
466.23	5050.88
466.41	4997.04
466.60	5334.08
466.78	5078.96
466.96	4891.72
467.14	5078.96
467.32	5163.22
467.51	5233.44
467.69	5270.89
467.87	5142.16
468.05	5144.50
468.23	5221.74
468.41	5076.62
468.60	5102.37
468.78	5308.34
468.96	5329.40
469.14	5282.59
469.32	5191.31
469.50	5191.31
469.69	5266.21
469.87	5540.05
470.05	5390.25
470.23	5483.88
470.41	5444.09
470.59	5327.06
470.77	5406.64
470.95	5577.50
471.14	5577.50
471.32	5420.68
471.50	5577.50
471.68	5633.67
471.86	5671.12
472.04	5645.37
472.22	5741.33
472.40	5764.74
472.58	5664.10
472.77	5750.70
472.95	5935.60
473.13	5874.74
473.31	6057.31
473.49	5713.25
473.67	5956.66
473.85	5764.74
474.03	5994.11
474.21	5919.21
474.39	5919.21
474.57	6169.65
474.75	6204.76
474.93	6256.25
475.12	6218.80
475.30	6359.24
475.48	6160.29
475.66	6342.85
475.84	6387.32
476.02	6401.37
476.20	6382.64
476.38	6464.56
476.56	6691.59
476.74	6431.79
476.92	6745.42
477.10	6574.56
477.28	6698.61
477.46	6813.30
477.64	6738.40
477.82	6906.92
478.00	6883.52
478.18	6904.58
478.36	7007.56
478.54	7185.44
478.72	7129.27
478.90	7304.81
479.08	7311.83
479.26	7428.86
479.44	7440.56
479.62	7555.25
479.80	7431.20
479.98	7672.28
480.16	7442.90
480.34	7447.58
480.52	7871.22
480.70	7597.38
480.88	7784.62
481.06	7658.23
481.24	7630.15
481.41	7634.83
481.59	8046.76
481.77	8212.94
481.95	8086.55
482.13	8098.25
482.31	8119.32
482.49	8404.86
482.67	8238.69
482.85	8454.02
483.03	8542.96
483.21	8503.17
483.39	8547.64
483.57	8669.34
483.74	8690.41
483.92	8809.78
484.10	8894.04
484.28	8936.17
484.46	9043.83
484.64	9294.27
484.82	8840.20
485.00	9200.65
485.18	9345.76
485.35	9493.21
485.53	9493.21
485.71	9504.92
485.89	9383.21
486.07	9507.26
486.25	9657.05
486.43	9734.29
486.61	9734.29
486.78	10038.56
486.96	9848.97
487.14	9837.27
487.32	10155.58
487.50	10080.69
487.68	10129.84
487.85	10305.38
488.03	10670.50
488.21	10581.56
488.39	10604.97
488.57	10672.84
488.75	10780.51
488.92	10904.56
489.10	11084.78
489.28	11122.23
489.46	10944.34
489.64	11122.23
489.81	11257.98
489.99	11372.66
490.17	11445.22
490.35	11634.80
490.53	11566.93
490.70	11712.04
490.88	11527.14
491.06	11845.45
491.24	11742.47
491.41	11754.17
491.59	11768.21
491.77	12098.23
491.95	12257.39
492.13	12135.68
492.30	12465.69
492.48	12432.93
492.66	12461.01
492.84	12222.28
493.01	12538.25
493.19	12798.05
493.37	12788.69
493.54	12517.18
493.72	12704.43
493.90	12945.50
494.08	13018.06
494.25	13170.19
494.43	13242.75
494.61	13247.43
494.79	13579.79
494.96	13193.60
495.14	13432.33
495.32	13387.86
495.49	13462.76
495.67	13832.57
495.85	13720.22
496.02	13837.25
496.20	13926.19
496.38	14043.21
496.55	14083.00
496.73	14506.64
496.91	14356.85
497.09	14326.42
497.26	14684.52
497.44	14094.71
497.62	14618.99
497.79	14504.30
497.97	14684.52
498.14	14855.38
498.32	14658.78
498.50	14998.15
498.67	15009.86
498.85	15096.46
499.03	15014.54
499.20	15005.17
499.38	15007.52
499.56	15264.97
499.73	15506.05
499.91	15293.06
500.08	15407.75
500.26	15201.78
500.44	15494.35
500.61	15609.03
500.79	15559.88
500.97	16044.37
501.14	16119.27
501.32	15749.46
501.49	16063.10
501.67	15817.34
501.84	15927.35
502.02	15805.64
502.20	16077.14
502.37	16423.54
502.55	16250.34
502.72	16435.24
502.90	16320.56
503.07	16224.59
503.25	16322.90
503.43	16346.30
503.60	16688.02
503.78	16561.63
503.95	16732.49
504.13	16898.67
504.30	16652.91
504.48	16673.98
504.65	17055.48
504.83	16833.13
505.01	17200.60
505.18	17172.51
505.36	17174.85
505.53	17242.73
505.71	17118.68
505.88	17268.47
506.06	16996.97
506.23	17315.28
506.41	17406.56
506.58	17462.74
506.76	17451.03
506.93	17348.05
507.11	17406.56
507.28	17554.02
507.46	17525.93
507.63	17561.04
507.81	17916.80
507.98	17862.97
508.16	17820.84
508.33	17689.77
508.50	17844.24
508.68	18047.87
508.85	18188.30
509.03	18288.95
509.20	18169.58
509.38	18361.50
509.55	18539.38
509.73	18394.27
509.90	18436.40
510.08	18445.76
510.25	18050.21
510.42	18663.43
510.60	18719.60
510.77	18960.68
510.95	18705.56
511.12	18775.78
511.30	18845.99
511.47	18647.05
511.64	18803.86
511.82	19037.92
511.99	18806.20
512.17	19220.48
512.34	19445.17
512.51	19066.00
512.69	19227.50
512.86	19426.45
513.04	19639.44
513.21	19459.21
513.38	19730.72
513.56	19594.96
513.73	19527.09
513.90	19620.71
514.08	19721.35
514.25	19489.64
514.43	19943.70
514.60	20049.03
514.77	20135.63
514.95	19971.79
515.12	19690.93
515.29	19751.78
515.47	19875.83
515.64	20100.52
515.81	20166.06
515.99	20170.74
516.16	20159.03
516.33	20311.17
516.51	20533.52
516.68	20388.41
516.85	20353.30
517.03	20386.07
517.20	20510.11
517.37	20587.35
517.54	20809.70
517.72	20840.13
517.89	20643.52
518.06	20648.21
518.24	20884.60
518.41	21046.10
518.58	21097.59
518.75	21053.12
518.93	20823.75
519.10	21205.25
519.27	21046.10
519.45	20947.79
519.62	21032.05
519.79	21231.00
519.96	21338.66
520.14	21209.93
520.31	21109.29
520.48	21415.90
520.65	21511.86
520.83	21343.35
521.00	21640.59
521.17	21420.58
521.34	21762.30
521.52	21532.93
521.69	21659.32
521.86	21799.75
522.03	22029.12
522.20	21879.33
522.38	21937.84
522.55	21991.67
522.72	21809.11
522.89	21933.16
523.07	22244.45
523.24	22309.99
523.41	22750.01
523.58	22052.53
523.75	22064.23
523.92	22029.12
524.10	22228.07
524.27	22522.98
524.44	22548.72
524.61	22691.49
524.78	22693.83
524.96	22469.14
525.13	22703.20
525.30	22293.60
525.47	22569.79
525.64	22867.03
525.81	23023.85
525.98	22864.69
526.16	22827.24
526.33	22689.15
526.50	23091.73
526.67	23044.91
526.84	23122.15
527.01	22920.87
527.18	22857.67
527.36	23147.90
527.53	23433.44
527.70	23585.58
527.87	23337.48
528.04	23199.39
528.21	23346.84
528.38	23033.21
528.55	23550.47
528.72	23267.27
528.89	23531.75
529.07	23885.17
529.24	23646.43
529.41	23585.58
529.58	23761.12
529.75	23321.10
529.92	23812.61
530.09	23903.89
530.26	23618.35
530.43	23744.73
530.60	23601.96
530.77	23711.97
530.94	23997.51
531.11	24119.22
531.28	23866.44
531.46	23864.10
531.63	24142.63
531.80	23859.42
531.97	24060.71
532.14	24203.48
532.31	24367.32
532.48	24149.65
532.65	24390.72
532.82	24250.29
532.99	24093.47
533.16	24383.70
533.33	24348.59
533.50	24467.96
533.67	24643.50
533.84	24538.18
534.01	24554.56
534.18	24587.33
534.35	24737.12
534.52	24482.00
534.69	24531.15
534.86	24659.88
535.03	24805.00
535.20	25109.27
535.37	25116.29
535.54	25017.99
535.71	24444.56
535.88	24617.75
536.05	24957.13
536.22	25022.67
536.38	25490.77
536.55	25083.52
536.72	25188.85
536.89	25142.03
537.06	25223.95
537.23	25502.48
537.40	25022.67
537.57	25544.61
537.74	25371.41
537.91	25502.48
538.08	25228.63
538.25	25352.68
538.42	25493.12
538.59	25331.62
538.75	25263.74
538.92	25310.55
539.09	25247.36
539.26	25741.21
539.43	25338.64
539.60	25596.10
539.77	25490.77
539.94	25762.28
540.11	25458.01
540.28	25769.30
540.44	25549.29
540.61	25635.89
540.78	25268.42
540.95	26029.10
541.12	26216.34
541.29	25902.71
541.46	26155.49
541.62	25699.08
541.79	25799.73
541.96	25769.30
542.13	25806.75
542.30	25895.69
542.47	26501.89
542.63	26272.51
542.80	26408.26
542.97	26639.98
543.14	26668.06
543.31	26834.24
543.48	26096.97
543.64	26581.46
543.81	26539.33
543.98	26639.98
544.15	26768.71
544.32	26728.92
544.48	26850.63
544.65	26754.66
544.82	26609.55
544.99	26235.06
545.16	26630.62
545.32	26806.16
545.49	26979.36
545.66	26986.38
545.83	26733.60
546.00	26590.83
546.16	26941.91
546.33	26906.80
546.50	26508.91
546.67	27295.33
546.83	26604.87
547.00	26803.82
547.17	27438.10
547.34	26813.18
547.50	27159.58
547.67	27473.21
547.84	27384.27
548.00	27728.33
548.17	27704.92
548.34	27215.75
548.51	27564.49
548.67	27447.46
548.84	27913.23
549.01	27288.31
549.18	27283.62
549.34	27307.03
549.51	27358.52
549.68	27618.32
549.84	27524.70
550.01	27702.58
550.18	27445.12
550.34	27557.47
550.51	27550.45
550.68	27606.62
550.84	27681.52
551.01	27655.77
551.18	27321.07
551.34	27529.38
551.51	27843.01
551.68	27241.50
551.84	27868.76
552.01	28093.45
552.18	27817.27
552.34	27903.87
552.51	27941.32
552.68	27946.00
552.84	27803.22
553.01	28189.41
553.18	27838.33
553.34	27854.72
553.51	28189.41
553.67	28093.45
553.84	28533.47
554.01	28407.08
554.17	28259.63
554.34	28058.34
554.51	28016.21
554.67	28353.25
554.84	28308.78
555.00	28198.77
555.17	28460.91
555.33	28210.48
555.50	28240.90
555.67	28430.49
555.83	28620.07
556.00	28606.03
556.16	28470.28
556.33	28322.82
556.50	28070.04
556.66	28746.46
556.83	28727.74
556.99	28514.75
557.16	28804.97
557.32	28559.22
557.49	28795.61
557.65	28788.59
557.82	28512.41
557.98	28837.74
558.15	28676.24
558.32	28545.17
558.48	28767.52
558.65	28687.95
558.81	28809.65
558.98	29053.07
559.14	28709.01
559.31	28531.13
559.47	28620.07
559.64	28884.55
559.80	29111.58
559.97	28762.84
560.13	28704.33
560.30	29130.31
560.46	29172.44
560.63	28924.34
560.79	29235.63
560.96	29144.35
561.12	29095.20
561.29	28711.35
561.45	29387.77
561.61	29032.00
561.78	28854.12
561.94	29338.62
562.11	29570.33
562.27	28790.93
562.44	29502.45
562.60	29125.63
562.77	28727.74
562.93	29296.49
563.10	29654.59
563.26	29399.47
563.42	29542.24
563.59	28903.28
563.75	29343.30
563.92	29453.30
564.08	29123.29
564.24	28994.56
564.41	28914.98
564.57	29099.88
564.74	29191.16
564.90	29748.21
565.07	29422.87
565.23	29329.25
565.39	29041.37
565.56	29479.05
565.72	29436.92
565.88	29336.27
566.05	29097.54
566.21	29083.50
566.38	29429.90
566.54	29619.48
566.70	30000.99
566.87	29806.72
567.03	29600.76
567.19	29612.46
567.36	29549.26
567.52	29434.58
567.68	29617.14
567.85	29376.06
568.01	29771.61
568.17	29291.80
568.34	29441.60
568.50	29825.45
568.66	29467.34
568.83	29816.08
568.99	29598.41
569.15	29867.58
569.32	29591.39
569.48	29268.40
569.64	30024.39
569.81	29603.10
569.97	29530.54
570.13	29738.85
570.30	29572.67
570.46	29713.10
570.62	29813.74
570.78	29345.64
570.95	29582.03
571.11	29544.58
571.27	29237.97
571.43	29759.91
571.60	29663.95
571.76	29521.18
571.92	29694.38
572.09	29706.08
572.25	29792.68
572.41	29743.53
572.57	30059.50
572.74	29759.91
572.90	29589.05
573.06	30134.40
573.22	29823.11
573.38	29694.38
573.55	29890.98
573.71	30115.67
573.87	30096.95
574.03	29876.94
574.20	29900.34
574.36	29495.43
574.52	30003.33
574.68	29752.89
574.84	29940.13
575.01	29982.26
575.17	29827.79
575.33	29724.80
575.49	30263.13
575.65	29986.94
575.82	30110.99
575.98	29834.81
576.14	30373.13
576.30	29752.89
576.46	29778.64
576.62	29776.30
576.79	29841.83
576.95	29729.48
577.11	29921.41
577.27	30073.54
577.43	30316.96
577.59	29865.24
577.75	30110.99
577.92	29633.52
578.08	29783.32
578.24	29795.02
578.40	29862.90
578.56	29975.24
578.72	30122.69
578.88	30038.44
579.04	30228.02
579.21	30087.59
579.37	30347.39
579.53	30038.44
579.69	30036.09
579.85	29928.43
580.01	29802.04
580.17	30293.55
580.33	29858.21
580.49	30017.37
580.65	30038.44
580.82	30263.13
580.98	29949.50
581.14	30008.01
581.30	30157.80
581.46	30352.07
581.62	30099.29
581.78	30110.99
581.94	30267.81
582.10	29951.84
582.26	29799.70
582.42	30080.56
582.58	30218.66
582.74	30389.52
582.90	30167.16
583.06	30171.85
583.22	30155.46
583.38	29858.21
583.54	30026.73
583.70	30213.98
583.86	30328.66
584.02	29886.30
584.18	30422.28
584.34	30457.39
584.50	30487.82
584.66	30410.58
584.82	30157.80
584.98	29935.45
585.14	30211.64
585.30	29783.32
585.46	29722.46
585.62	29972.90
585.78	30148.44
585.94	30637.61
586.10	30307.60
586.26	30281.85
586.42	30548.67
586.58	30536.97
586.74	30075.88
586.90	30012.69
587.06	29895.66
587.22	30316.96
587.38	29944.81
587.54	30429.30
587.70	30394.20
587.86	30551.01
588.02	30429.30
588.18	30998.06
588.34	30445.69
588.49	30129.72
588.65	30391.86
588.81	30206.95
588.97	30221.00
589.13	30539.31
589.29	30394.20
589.45	30426.96
589.61	30057.16
589.77	30848.26
589.93	30520.59
590.08	30553.35
590.24	30705.49
590.40	30539.31
590.56	30782.73
590.72	30101.63
590.88	30396.54
591.04	30651.66
591.20	30679.74
591.35	30892.73
591.51	31084.65
591.67	30782.73
591.83	30661.02
591.99	30574.42
592.15	30525.27
592.31	30583.78
592.46	30539.31
592.62	30359.09
592.78	30422.28
592.94	30405.90
593.10	30693.79
593.26	30518.25
593.41	30483.14
593.57	30560.37
593.73	30719.53
593.89	30735.92
594.05	30803.79
594.20	30232.70
594.36	30663.36
594.52	30703.15
594.68	30450.37
594.84	30464.41
594.99	30700.81
595.15	30574.42
595.31	30738.26
595.47	30939.54
595.62	30848.26
595.78	30731.23
595.94	30717.19
596.10	30518.25
596.25	30630.59
596.41	30560.37
596.57	30274.83
596.73	30375.47
596.88	30483.14
597.04	30836.56
597.20	31096.36
597.36	30679.74
597.51	31056.57
597.67	30881.03
597.83	30590.80
597.99	30490.16
598.14	30555.69
598.30	30118.01
598.46	30927.84
598.61	30778.04
598.77	30562.72
598.93	30464.41
599.09	30843.58
599.24	31452.12
599.40	30838.90
599.56	31428.71
599.71	31009.76
599.87	30618.89
600.03	30941.88
600.18	30473.78
600.34	30799.11
600.50	30822.51
600.65	30806.13
600.81	30740.60
600.97	30752.30
601.12	30941.88
601.28	30806.13
601.44	31058.91
601.59	31049.55
601.75	30986.35
601.91	30976.99
602.06	30836.56
602.22	30993.37
602.37	30614.21
602.53	30630.59
602.69	31087.00
602.84	30953.58
603.00	31007.42
603.16	30991.03
603.31	30796.77
603.47	30527.61
603.62	30810.81
603.78	30668.04
603.94	30499.52
604.09	30607.19
604.25	30817.83
604.40	31147.85
604.56	30522.93
604.71	30642.29
604.87	30881.03
605.03	31028.48
605.18	31117.42
605.34	31016.78
605.49	30639.95
605.65	30691.44
605.80	30628.25
605.96	30576.76
606.12	30199.93
606.27	30836.56
606.43	30541.65
606.58	30960.61
606.74	30764.00
606.89	30892.73
607.05	31138.49
607.20	30902.09
607.36	30742.94
607.51	30654.00
607.67	30377.81
607.82	30583.78
607.98	30450.37
608.13	30560.37
608.29	30480.80
608.44	30321.64
608.60	30810.81
608.75	31087.00
608.91	30534.63
609.06	30705.49
609.22	30623.57
609.37	30394.20
609.53	30363.77
609.68	30597.82
609.84	30845.92
609.99	30714.85
610.15	30590.80
610.30	30398.88
610.46	30583.78
610.61	30356.75
610.76	30733.57
610.92	30185.89
611.07	30504.20
611.23	30235.04
611.38	30794.43
611.54	30263.13
611.69	30405.90
611.84	30616.55
612.00	30366.11
612.15	30139.08
612.31	30511.22
612.46	30494.84
612.62	30230.36
612.77	30136.74
612.92	30637.61
613.08	30405.90
613.23	30384.83
613.39	30082.91
613.54	29734.17
613.69	30326.32
613.85	30244.40
614.00	30228.02
614.15	30398.88
614.31	30125.04
614.46	30232.70
614.62	30485.48
614.77	30473.78
614.92	30691.44
615.08	30043.12
615.23	30087.59
615.38	29771.61
615.54	29958.86
615.69	30103.97
615.84	30033.75
616.00	30216.32
616.15	29659.27
616.30	30263.13
616.46	30162.48
616.61	30134.40
616.76	30155.46
616.92	29825.45
617.07	30192.91
617.22	29685.01
617.37	29706.08
617.53	29902.68
617.68	29921.41
617.83	29991.62
617.99	30085.25
618.14	29883.96
618.29	29813.74
618.45	29862.90
618.60	30204.61
618.75	29820.77
618.90	29647.57
619.06	29778.64
619.21	29841.83
619.36	29876.94
619.51	29912.05
619.67	29834.81
619.82	29685.01
619.97	29024.98
620.12	29493.09
620.28	29474.37
620.43	29813.74
620.58	30134.40
620.73	29563.31
620.89	29762.25
621.04	29816.08
621.19	29963.54
621.34	29467.34
621.49	29488.41
621.65	29422.87
621.80	29422.87
621.95	29233.29
622.10	29834.81
622.25	29069.45
622.41	29694.38
622.56	29209.89
622.71	29539.90
622.86	29432.24
623.01	29703.74
623.16	29474.37
623.32	29113.92
623.47	29589.05
623.62	29516.50
623.77	29301.17
623.92	29591.39
624.07	29336.27
624.23	29249.67
624.38	29371.38
624.53	28945.41
624.68	29427.56
624.83	29818.42
624.98	29237.97
625.13	28847.10
625.29	29001.58
625.44	29109.24
625.59	28861.15
625.74	29301.17
625.89	29244.99
626.04	28795.61
626.19	28854.12
626.34	29015.62
626.49	28964.13
626.65	28996.90
626.80	29008.60
626.95	29027.32
627.10	29015.62
627.25	29268.40
627.40	28533.47
627.55	28802.63
627.70	28496.02
627.85	28877.53
628.00	28678.58
628.15	28643.48
628.30	28453.89
628.45	28847.10
628.60	28465.60
628.76	28657.52
628.91	28517.09
629.06	28477.30
629.21	28751.14
629.36	28582.62
629.51	28673.90
629.66	28287.71
629.81	28472.62
629.96	28360.27
630.11	28259.63
630.26	28568.58
630.41	28470.28
630.56	28011.53
630.71	28893.91
630.86	28437.51
631.01	28362.61
631.16	28680.92
631.31	28322.82
631.46	28458.57
631.61	28608.37
631.76	28701.99
631.91	28142.60
632.06	28395.38
632.21	28395.38
632.36	28268.99
632.51	28184.73
632.66	28350.91
632.81	28254.95
632.96	28379.00
633.10	28254.95
633.25	28519.43
633.40	28203.46
633.55	28353.25
633.70	28332.18
633.85	28023.23
634.00	27702.58
634.15	28224.52
634.30	27873.44
634.45	28039.62
634.60	27618.32
634.75	28074.73
634.90	28079.41
635.05	28070.04
635.19	28011.53
635.34	28098.13
635.49	28158.99
635.64	27971.74
635.79	28233.88
635.94	27789.18
636.09	28107.49
636.24	27363.20
636.39	27548.11
636.53	28046.64
636.68	27531.72
636.83	27559.81
636.98	27688.54
637.13	27962.38
637.28	27793.86
637.43	27807.90
637.57	27723.65
637.72	27550.45
637.87	27885.14
638.02	27400.65
638.17	27337.46
638.32	27496.61
638.46	27377.25
638.61	27826.63
638.76	27615.98
638.91	27138.51
639.06	27695.56
639.20	27321.07
639.35	27070.64
639.50	27271.92
639.65	27786.84
639.80	27845.35
639.94	27260.22
640.09	27271.92
640.24	27700.24
640.39	27253.20
640.54	26916.16
640.68	27136.17
640.83	27520.02
640.98	27138.51
641.13	27087.02
641.27	27323.41
641.42	27157.24
641.57	27220.43
641.72	27337.46
641.86	27040.21
642.01	27033.19
642.16	27136.17
642.31	26958.29
642.45	27117.45
642.60	26700.83
642.75	26508.91
642.90	27161.92
643.04	26972.33
643.19	26923.18
643.34	27206.39
643.48	26733.60
643.63	27204.05
643.78	26525.29
643.93	27084.68
644.07	26888.07
644.22	26955.95
644.37	26806.16
644.51	27033.19
644.66	26955.95
644.81	26881.05
644.95	26885.73
645.10	26944.25
645.25	26553.38
645.39	26417.63
645.54	26916.16
645.69	26932.54
645.83	26693.81
645.98	26991.06
646.13	26775.73
646.27	26714.87
646.42	26696.15
646.57	27049.57
646.71	26764.03
646.86	26724.24
647.00	26735.94
647.15	26536.99
647.30	26302.94
647.44	26333.37
647.59	26712.53
647.74	26363.79
647.88	26286.56
648.03	26647.00
648.17	26616.57
648.32	26293.58
648.47	26588.49
648.61	26260.81
648.76	26508.91
648.90	26164.85
649.05	26047.82
649.20	26272.51
649.34	26221.02
649.49	26265.49
649.63	26127.40
649.78	26111.02
649.92	26230.38
650.07	26221.02
650.21	26073.57
650.36	26183.57
650.51	26019.74
650.65	26300.60
650.80	26206.98
650.94	26260.81
651.09	25893.35
651.23	26204.64
651.38	25909.73
651.52	26235.06
651.67	26185.91
651.81	26354.43
651.96	26300.60
652.10	26146.12
652.25	26211.66
652.39	26321.66
652.54	26375.50
652.68	25865.26
652.83	26333.37
652.97	26419.97
653.12	25905.05
653.26	25921.43
653.41	25834.83
653.55	25909.73
653.70	25912.07
653.84	26019.74
653.99	25699.08
654.13	25624.18
654.27	25579.71
654.42	25823.13
654.56	25804.41
654.71	26038.46
654.85	25806.75
655.00	25837.17
655.14	25731.85
655.29	25591.42
655.43	25912.07
655.57	25240.34
655.72	25762.28
655.86	25446.30
656.01	25738.87
656.15	25598.44
656.30	25596.10
656.44	25591.42
656.58	25223.95
656.73	25862.92
656.87	25776.32
657.01	25172.46
657.16	25556.31
657.30	25687.38
657.45	25429.92
657.59	25338.64
657.73	25170.12
657.88	25352.68
658.02	25006.28
658.16	24896.28
658.31	25401.83
658.45	25488.43
658.60	24868.19
658.74	24985.22
658.88	25240.34
659.03	25123.31
659.17	25249.70
659.31	25273.10
659.46	25216.93
659.60	25439.28
659.74	24613.07
659.89	25095.22
660.03	25219.27
660.17	25125.65
660.32	24765.21
660.46	24779.25
660.60	24524.13
660.74	24540.52
660.89	24631.80
661.03	24519.45
661.17	24425.83
661.32	24673.93
661.46	24828.40
661.60	24783.93
661.74	24837.76
661.89	24694.99
662.03	24531.15
662.17	24727.76
662.31	24748.82
662.46	24779.25
662.60	24411.79
662.74	24592.01
662.88	24376.68
663.03	24088.79
663.17	24526.47
663.31	23920.28
663.45	24278.38
663.60	24322.85
663.74	23819.63
663.88	24102.84
664.02	24077.09
664.17	24451.58
664.31	24027.94
664.45	24144.97
664.59	24046.66
664.73	23852.40
664.88	23885.17
665.02	23239.18
665.16	23737.71
665.30	23700.26
665.44	23557.49
665.59	23662.82
665.73	23749.42
665.87	23693.24
666.01	23983.47
666.15	23433.44
666.29	23690.90
666.44	23601.96
666.58	23241.52
666.72	23400.68
666.86	23414.72
667.00	23597.28
667.14	23496.64
667.28	23236.84
667.43	23243.86
667.57	23470.89
667.71	23386.63
667.85	23583.24
667.99	23077.68
668.13	23058.96
668.27	23019.17
668.41	23344.50
668.56	22948.95
668.70	23173.64
668.84	23220.45
668.98	23096.41
669.12	22955.97
669.26	23161.94
669.40	22752.35
669.54	22862.35
669.68	22726.60
669.82	22677.45
669.96	22616.60
670.10	22555.74
670.25	22937.25
670.39	23084.70
670.53	22799.16
670.67	22609.58
670.81	22452.76
670.95	22600.21
671.09	22553.40
671.23	22813.20
671.37	22661.07
671.51	22391.91
671.65	22321.69
671.79	22155.51
671.93	22216.36
672.07	22370.84
672.21	22174.24
672.35	21900.39
672.49	21844.22
672.63	22202.32
672.77	21860.60
672.91	21701.45
673.05	22066.57
673.19	21778.68
673.33	21841.88
673.47	21965.93
673.61	21902.73
673.75	21855.92
673.89	22012.74
674.03	21844.22
674.17	21289.51
674.31	21797.41
674.45	21553.99
674.59	21706.13
674.73	21792.73
674.87	21781.03
675.01	21195.89
675.15	21062.48
675.29	21050.78
675.43	21268.45
675.56	21111.63
675.70	20954.82
675.84	21106.95
675.98	20325.21
676.12	21118.65
676.26	21476.76
676.40	20954.82
676.54	21060.14
676.68	20966.52
676.82	20636.50
676.96	20823.75
677.10	20727.78
677.23	20596.71
677.37	20269.04
677.51	20538.20
677.65	20325.21
677.79	20063.07
677.93	20444.58
678.07	19983.49
678.21	20098.18
678.34	19978.81
678.48	19648.80
678.62	19901.58
678.76	19709.65
678.90	19693.27
679.04	19826.68
679.18	19754.12
679.31	19625.39
679.45	19466.24
679.59	19590.28
679.73	19192.39
679.87	19555.18
680.00	19499.00
680.14	19360.91
680.28	19140.90
680.42	19482.62
680.56	19477.94
680.70	19477.94
680.83	19321.12
680.97	18977.06
681.11	18951.32
681.25	18913.87
681.39	18932.59
681.52	18939.62
681.66	18956.00
681.80	18548.75
681.94	18768.76
682.07	19016.85
682.21	18118.09
682.35	18267.88
682.49	18457.46
682.62	18146.17
682.76	18340.44
682.90	18532.36
683.04	18492.57
683.17	18434.06
683.31	17987.02
683.45	18094.68
683.59	18167.24
683.72	17893.40
683.86	17893.40
684.00	17785.73
684.13	17750.62
684.27	17706.15
684.41	17392.52
684.55	17401.88
684.68	17338.69
684.82	17481.46
684.96	17341.03
685.09	17455.72
685.23	17310.60
685.37	17397.20
685.50	17177.19
685.64	17369.12
685.78	17427.63
685.91	17532.95
686.05	17305.92
686.19	16837.81
686.32	17064.85
686.46	16896.33
686.60	16879.94
686.73	16840.15
686.87	16772.28
687.01	16638.87
687.14	16606.10
687.28	16395.45
687.42	16320.56
687.55	16400.13
687.69	16271.40
687.82	16196.51
687.96	16353.32
688.10	16372.05
688.23	15981.18
688.37	16091.18
688.50	16238.64
688.64	16072.46
688.78	16245.66
688.91	16002.24
689.05	15843.09
689.18	15838.41
689.32	15477.96
689.46	15410.09
689.59	15382.00
689.73	15538.82
689.86	15779.89
690.00	15461.58
690.13	15477.96
690.27	15419.45
690.41	15559.88
690.54	15370.30
690.68	15225.18
690.81	15468.60
690.95	15681.59
691.08	15178.37
691.22	15171.35
691.35	15033.26
691.49	14958.36
691.62	14934.96
691.76	14843.68
691.89	14801.55
692.03	14661.12
692.16	14487.92
692.30	14532.39
692.43	14356.85
692.57	14562.81
692.70	14324.08
692.84	14586.22
692.97	14022.15
693.11	14157.90
693.24	14216.41
693.38	14274.93
693.51	14256.20
693.65	14061.94
693.78	13760.01
693.92	13973.00
694.05	13846.61
694.19	13764.69
694.32	13710.86
694.45	13755.33
694.59	13598.51
694.72	13727.24
694.86	13411.27
694.99	13153.81
695.13	13177.22
695.26	13275.52
695.39	13245.09
695.53	13284.88
695.66	13380.84
695.80	13284.88
695.93	13348.08
696.07	13104.66
696.20	13181.90
696.33	13092.96
696.47	12776.98
696.60	12989.97
696.73	12910.40
696.87	12938.48
697.00	12615.49
697.14	12755.92
697.27	12535.91
697.40	12437.61
697.54	12519.53
697.67	12458.67
697.80	12294.83
697.94	12308.88
698.07	12161.42
698.21	12077.16
698.34	12341.64
698.47	12187.17
698.61	12397.82
698.74	12123.98
698.87	12011.63
699.01	12114.61
699.14	12065.46
699.27	11950.78
699.40	11964.82
699.54	11779.92
699.67	12028.01
699.80	11793.96
699.94	11611.40
700.07	11651.19
700.20	11351.60
700.34	11304.79
700.47	11197.12
700.60	11431.18
700.73	11438.20
700.87	11426.50
701.00	11477.99
701.13	11257.98
701.26	11143.29
701.40	11337.56
701.53	11257.98
701.66	11157.33
701.79	11164.36
701.93	11068.39
702.06	10925.62
702.19	10754.76
702.32	10827.32
702.46	10607.31
702.59	10602.63
702.72	10658.80
702.85	10509.01
702.99	10354.53
703.12	10511.35
703.25	10473.90
703.38	10459.85
703.51	10516.03
703.65	10787.53
703.78	10305.38
703.91	10324.10
704.04	10319.42
704.17	10232.82
704.31	10312.40
704.44	10223.46
704.57	10054.94
704.70	9863.02
704.83	9734.29
704.96	9771.74
705.10	9778.76
705.23	9823.23
>>>>>End Processed Spectral Data<<<<<
