SpectraSuite Data File
++++++++++++++++++++++++++++++++++++
Date: Fri Oct 18 13:58:20 GMT-05:00 2013
User: bianchi
Dark Spectrum Present: No
Reference Spectrum Present: No
Number of Sampled Component Spectra: 1
Spectrometers: USB2+H05261
Integration Time (usec): 50000 (USB2+H05261)
Spectra Averaged: 1 (USB2+H05261)
Boxcar Smoothing: 0 (USB2+H05261)
Correct for Electrical Dark: No (USB2+H05261)
Strobe/Lamp Enabled: No (USB2+H05261)
Correct for Detector Non-linearity: No (USB2+H05261)
Correct for Stray Light: No (USB2+H05261)
Number of Pixels in Processed Spectrum: 2048
>>>>>Begin Processed Spectral Data<<<<<
365.73	0.00
365.92	0.00
366.12	0.00
366.32	0.00
366.52	0.00
366.72	0.00
366.91	0.00
367.11	0.00
367.31	0.00
367.51	0.00
367.70	0.00
367.90	0.00
368.10	0.00
368.30	0.00
368.49	0.00
368.69	0.00
368.89	0.00
369.09	0.00
369.28	0.00
369.48	0.00
369.68	0.00
369.87	0.00
370.07	0.00
370.27	0.00
370.47	0.00
370.66	56.17
370.86	91.28
371.06	107.66
371.25	173.20
371.45	149.79
371.65	140.43
371.84	142.77
372.04	180.22
372.24	201.29
372.44	147.45
372.63	229.37
372.83	187.24
373.03	168.52
373.22	210.65
373.42	222.35
373.62	217.67
373.81	208.31
374.01	271.50
374.21	271.50
374.40	250.44
374.60	301.93
374.79	266.82
374.99	266.82
375.19	210.65
375.38	212.99
375.58	301.93
375.78	278.52
375.97	252.78
376.17	292.57
376.37	220.01
376.56	269.16
376.76	257.46
376.95	290.23
377.15	255.12
377.35	245.76
377.54	318.31
377.74	255.12
377.93	245.76
378.13	234.05
378.33	297.25
378.52	334.70
378.72	346.40
378.91	276.18
379.11	266.82
379.31	287.89
379.50	271.50
379.70	273.84
379.89	278.52
380.09	362.78
380.28	301.93
380.48	273.84
380.68	304.27
380.87	294.91
381.07	374.49
381.26	330.02
381.46	278.52
381.65	311.29
381.85	334.70
382.04	273.84
382.24	353.42
382.43	369.80
382.63	421.30
382.83	365.12
383.02	372.15
383.22	381.51
383.41	238.73
383.61	362.78
383.80	301.93
384.00	369.80
384.19	278.52
384.39	299.59
384.58	318.31
384.78	374.49
384.97	390.87
385.17	390.87
385.36	313.63
385.56	351.08
385.75	386.19
385.95	414.27
386.14	358.10
386.34	402.57
386.53	407.25
386.72	381.51
386.92	451.72
387.11	444.70
387.31	400.23
387.50	416.62
387.70	367.46
387.89	444.70
388.09	454.06
388.28	414.27
388.48	306.61
388.67	472.79
388.86	372.15
389.06	486.83
389.25	425.98
389.45	447.04
389.64	386.19
389.84	411.93
390.03	440.02
390.22	461.09
390.42	514.92
390.61	458.74
390.81	430.66
391.00	463.43
391.19	528.96
391.39	493.85
391.58	433.00
391.78	540.66
391.97	526.62
392.16	479.81
392.36	566.41
392.55	477.47
392.75	573.43
392.94	477.47
393.13	559.39
393.33	559.39
393.52	503.22
393.71	543.00
393.91	540.66
394.10	587.47
394.29	594.50
394.49	561.73
394.68	641.31
394.88	575.77
395.07	613.22
395.26	671.73
395.46	603.86
395.65	582.79
395.84	578.11
396.04	678.76
396.23	653.01
396.42	575.77
396.62	636.63
396.81	627.26
397.00	653.01
397.19	599.18
397.39	620.24
397.58	636.63
397.77	589.82
397.97	627.26
398.16	620.24
398.35	739.61
398.55	674.07
398.74	704.50
398.93	795.78
399.12	737.27
399.32	784.08
399.51	720.88
399.70	695.14
399.90	723.23
400.09	842.59
400.28	779.40
400.47	814.51
400.67	791.10
400.86	758.33
401.05	755.99
401.24	828.55
401.44	809.83
401.63	798.12
401.82	807.48
402.01	781.74
402.21	919.83
402.40	748.97
402.59	823.87
402.78	819.19
402.97	830.89
403.17	835.57
403.36	833.23
403.55	919.83
403.74	894.08
403.93	866.00
404.13	922.17
404.32	887.06
404.51	835.57
404.70	926.85
404.89	870.68
405.09	997.07
405.28	931.53
405.47	882.38
405.66	973.66
405.85	992.39
406.05	1022.81
406.24	940.90
406.43	983.02
406.62	1088.35
406.81	1142.18
407.00	908.13
407.20	1008.77
407.39	919.83
407.58	1081.33
407.77	997.07
407.96	1022.81
408.15	1013.45
408.34	1067.28
408.54	1053.24
408.73	1132.82
408.92	1139.84
409.11	1074.31
409.30	1123.46
409.49	1184.31
409.68	1191.33
409.87	1109.41
410.07	1090.69
410.26	1149.20
410.45	1163.25
410.64	1071.97
410.83	1259.21
411.02	1249.85
411.21	1268.57
411.40	1217.08
411.59	1310.70
411.78	1170.27
411.98	1254.53
412.17	1245.16
412.36	1191.33
412.55	1303.68
412.74	1324.74
412.93	1418.36
413.12	1315.38
413.31	1334.11
413.50	1432.41
413.69	1390.28
413.88	1516.67
414.07	1397.30
414.26	1462.83
414.45	1521.35
414.64	1390.28
414.83	1462.83
415.02	1469.86
415.22	1486.24
415.41	1530.71
415.60	1589.22
415.79	1502.62
415.98	1526.03
416.17	1577.52
416.36	1558.80
416.55	1596.25
416.74	1685.19
416.93	1636.03
417.12	1717.95
417.31	1696.89
417.50	1659.44
417.69	1675.82
417.88	1664.12
418.07	1732.00
418.26	1708.59
418.45	1732.00
418.64	1853.70
418.83	1762.42
419.02	1753.06
419.21	1856.04
419.39	1919.24
419.58	1865.41
419.77	1783.49
419.96	1795.19
420.15	1790.51
420.34	1809.23
420.53	1923.92
420.72	1863.07
420.91	1940.30
421.10	1926.26
421.29	1996.48
421.48	1930.94
421.67	1893.49
421.86	2003.50
422.05	1952.01
422.24	2012.86
422.43	1970.73
422.61	2010.52
422.80	1942.64
422.99	2050.31
423.18	1968.39
423.37	2010.52
423.56	1952.01
423.75	2047.97
423.94	1966.05
424.13	1844.34
424.32	1947.33
424.50	2090.10
424.69	2087.76
424.88	2104.14
425.07	2106.48
425.26	1968.39
425.45	1937.96
425.64	2076.06
425.83	2050.31
426.01	2057.33
426.20	2054.99
426.39	2008.18
426.58	2050.31
426.77	2090.10
426.96	2146.27
427.15	2108.82
427.33	2001.16
427.52	2099.46
427.71	2167.34
427.90	2125.21
428.09	2155.63
428.28	2181.38
428.46	2176.70
428.65	2228.19
428.84	2209.47
429.03	2310.11
429.22	2141.59
429.40	2225.85
429.59	2284.36
429.78	2207.13
429.97	2204.78
430.16	2200.10
430.34	2246.91
430.53	2361.60
430.72	2347.56
430.91	2253.94
431.10	2340.54
431.28	2253.94
431.47	2232.87
431.66	2441.18
431.85	2401.39
432.03	2363.94
432.22	2368.62
432.41	2394.37
432.60	2399.05
432.79	2370.96
432.97	2410.75
433.16	2462.24
433.35	2406.07
433.54	2459.90
433.72	2427.14
433.91	2499.69
434.10	2530.12
434.28	2457.56
434.47	2541.82
434.66	2471.61
434.85	2569.91
435.03	2619.06
435.22	2607.36
435.41	2656.51
435.59	2630.76
435.78	2764.17
435.97	2579.27
436.16	2602.68
436.34	2579.27
436.53	2658.85
436.72	2670.55
436.90	2689.28
437.09	2738.43
437.28	2621.40
437.46	2703.32
437.65	2705.66
437.84	2867.16
438.02	2651.83
438.21	2649.49
438.40	2736.09
438.58	2796.94
438.77	2991.20
438.96	2832.05
439.14	2935.03
439.33	3049.72
439.52	2913.97
439.70	2888.22
439.89	2888.22
440.08	3026.31
440.26	3045.04
440.45	3033.33
440.63	3047.38
440.82	3070.78
441.01	3077.80
441.19	3157.38
441.38	3171.43
441.57	3155.04
441.75	3232.28
441.94	3272.07
442.12	3363.35
442.31	3307.18
442.50	3208.87
442.68	3328.24
442.87	3286.11
443.05	3368.03
443.24	3391.44
443.43	3358.67
443.61	3356.33
443.80	3330.58
443.98	3243.98
444.17	3255.69
444.35	3438.25
444.54	3384.41
444.73	3344.63
444.91	3396.12
445.10	3447.61
445.28	3480.38
445.47	3435.91
445.65	3382.07
445.84	3527.19
446.02	3442.93
446.21	3428.88
446.39	3449.95
446.58	3475.70
446.77	3438.25
446.95	3480.38
447.14	3564.64
447.32	3473.36
447.51	3574.00
447.69	3428.88
447.88	3522.51
448.06	3562.30
448.25	3419.52
448.43	3555.27
448.62	3421.86
448.80	3529.53
448.99	3623.15
449.17	3599.74
449.36	3569.32
449.54	3730.81
449.73	3791.67
449.91	3770.60
450.10	3756.56
450.28	3674.64
450.46	3728.47
450.65	3810.39
450.83	3798.69
451.02	3735.50
451.20	3700.39
451.39	3831.46
451.57	3805.71
451.76	3651.24
451.94	3796.35
452.13	3815.07
452.31	3801.03
452.49	3817.41
452.68	3878.27
452.86	3749.54
453.05	3929.76
453.23	3775.28
453.42	3866.56
453.60	3843.16
453.78	3803.37
453.97	3786.99
454.15	3932.10
454.34	3885.29
454.52	3962.53
454.70	3885.29
454.89	4042.11
455.07	4032.74
455.26	3981.25
455.44	4152.11
455.62	4147.43
455.81	4025.72
455.99	4121.68
456.17	4147.43
456.36	4114.66
456.54	4170.83
456.73	4119.34
456.91	4229.35
457.09	4318.29
457.28	4234.03
457.46	4072.53
457.64	4292.54
457.83	4344.03
458.01	4128.70
458.19	4311.27
458.38	4360.42
458.56	4437.66
458.74	4421.27
458.93	4461.06
459.11	4308.93
459.29	4430.63
459.48	4367.44
459.66	4367.44
459.84	4662.35
460.03	4568.73
460.21	4531.28
460.39	4608.51
460.57	4634.26
460.76	4489.15
460.94	4587.45
461.12	4580.43
461.31	4526.60
461.49	4678.73
461.67	4388.50
461.85	4903.42
462.04	4828.53
462.22	5008.75
462.40	4746.61
462.59	4770.01
462.77	4758.31
462.95	4849.59
463.13	4645.96
463.32	4711.50
463.50	4805.12
463.68	4858.95
463.86	4809.80
464.05	4809.80
464.23	4828.53
464.41	4826.18
464.59	4739.58
464.78	5078.96
464.96	4847.25
465.14	4823.84
465.32	4905.76
465.50	4924.49
465.69	4971.30
465.87	5081.30
466.05	4940.87
466.23	5050.88
466.41	4922.15
466.60	5156.20
466.78	5071.94
466.96	5090.67
467.14	5081.30
467.32	5011.09
467.51	5095.35
467.69	5001.72
467.87	5011.09
468.05	5135.14
468.23	5160.88
468.41	5029.81
468.60	5132.79
468.78	5200.67
468.96	5093.01
469.14	5294.29
469.32	5263.86
469.50	5214.71
469.69	5275.57
469.87	5430.04
470.05	5268.55
470.23	5504.94
470.41	5406.64
470.59	5493.24
470.77	5504.94
470.95	5483.88
471.14	5603.24
471.32	5336.42
471.50	5563.45
471.68	5556.43
471.86	5533.03
472.04	5619.63
472.22	5802.19
472.40	5614.95
472.58	5764.74
472.77	5886.45
472.95	5837.30
473.13	6099.44
473.31	5870.06
473.49	5795.17
473.67	5738.99
473.85	5923.90
474.03	5888.79
474.21	6043.26
474.39	6087.73
474.57	6033.90
474.75	6071.35
474.93	6277.32
475.12	6267.95
475.30	6092.41
475.48	6282.00
475.66	6188.38
475.84	6188.38
476.02	6466.90
476.20	6452.86
476.38	6511.37
476.56	6480.94
476.74	6583.93
476.92	6328.81
477.10	6555.84
477.28	6663.51
477.46	6595.63
477.64	6700.95
477.82	6782.87
478.00	6925.65
478.18	6822.66
478.36	6825.00
478.54	7000.54
478.72	7045.01
478.90	7140.97
479.08	7211.19
479.26	7087.14
479.44	7520.14
479.62	7461.63
479.80	7466.31
479.98	7405.46
480.16	7520.14
480.34	7559.93
480.52	7545.89
480.70	7646.53
480.88	7489.71
481.06	7599.72
481.24	7707.38
481.41	7730.79
481.59	8042.08
481.77	8035.06
481.95	7936.76
482.13	8100.59
482.31	8184.85
482.49	8229.32
482.67	8166.13
482.85	8320.60
483.03	8657.64
483.21	8599.13
483.39	8685.73
483.57	8669.34
483.74	8662.32
483.92	8641.26
484.10	8603.81
484.28	8762.97
484.46	9067.24
484.64	9301.29
484.82	9025.11
485.00	9221.71
485.18	9308.31
485.35	9366.82
485.53	9296.61
485.71	9603.22
485.89	9451.08
486.07	9652.37
486.25	9715.56
486.43	9502.58
486.61	9771.74
486.78	9771.74
486.96	9755.35
487.14	9926.21
487.32	9973.02
487.50	10270.27
487.68	10303.04
487.85	10310.06
488.03	10523.05
488.21	10593.26
488.39	10621.35
488.57	10548.79
488.75	10478.58
488.92	10899.87
489.10	10832.00
489.28	11030.94
489.46	11091.80
489.64	11110.52
489.81	11211.17
489.99	11426.50
490.17	11016.90
490.35	11304.79
490.53	11431.18
490.70	11585.65
490.88	11452.24
491.06	11651.19
491.24	11660.55
491.41	11679.27
491.59	11700.34
491.77	12112.27
491.95	11894.60
492.13	12131.00
492.30	12259.73
492.48	12453.99
492.66	12039.72
492.84	12482.08
493.01	12641.23
493.19	12657.62
493.37	12610.81
493.54	12692.73
493.72	12856.56
493.90	12683.36
494.08	12973.59
494.25	13006.36
494.43	13025.08
494.61	13132.75
494.79	13357.44
494.96	13504.89
495.14	13355.10
495.32	13558.72
495.49	13647.66
495.67	13437.02
495.85	13745.97
496.02	13769.37
496.20	13891.08
496.38	13764.69
496.55	13937.89
496.73	14036.19
496.91	14200.03
497.09	14125.13
497.26	14494.94
497.44	14366.21
497.62	14396.64
497.79	14576.86
497.97	14780.48
498.14	14848.36
498.32	14963.04
498.50	14934.96
498.67	15417.11
498.85	14768.78
499.03	14885.81
499.20	14909.21
499.38	14853.04
499.56	15161.99
499.73	15283.70
499.91	15250.93
500.08	15389.02
500.26	15232.21
500.44	15517.75
500.61	15480.30
500.79	15461.58
500.97	15620.74
501.14	15784.57
501.32	15812.66
501.49	15688.61
501.67	15815.00
501.84	16049.05
502.02	15594.99
502.20	16149.70
502.37	16051.39
502.55	16203.53
502.72	16051.39
502.90	15999.90
503.07	16159.06
503.25	16468.01
503.43	16437.58
503.60	16432.90
503.78	16500.78
503.95	16472.69
504.13	16451.63
504.30	16613.12
504.48	16629.51
504.65	16732.49
504.83	16982.93
505.01	16791.00
505.18	17233.36
505.36	17341.03
505.53	16966.54
505.71	17076.55
505.88	16816.75
506.06	17022.72
506.23	16971.22
506.41	17565.72
506.58	17291.88
506.76	17465.08
506.93	17193.58
507.11	17034.42
507.28	17263.79
507.46	17804.46
507.63	17558.70
507.81	17544.66
507.98	17743.60
508.16	17741.26
508.33	17680.41
508.50	17888.71
508.68	17795.09
508.85	18153.20
509.03	18178.94
509.20	18352.14
509.38	18345.12
509.55	18221.07
509.73	18354.48
509.90	17926.16
510.08	18092.34
510.25	18211.71
510.42	18202.35
510.60	18857.70
510.77	18853.02
510.95	19040.26
511.12	18420.02
511.30	18689.18
511.47	18822.59
511.64	18890.46
511.82	18836.63
511.99	18927.91
512.17	19194.73
512.34	19096.43
512.51	19161.97
512.69	19183.03
512.86	19080.05
513.04	19484.96
513.21	19499.00
513.38	19403.04
513.56	19566.88
513.73	19295.38
513.90	19456.87
514.08	19276.65
514.25	19440.49
514.43	19730.72
514.60	19946.05
514.77	19711.99
514.95	19796.25
515.12	19674.54
515.29	19812.63
515.47	20107.54
515.64	19957.75
515.81	19833.70
515.99	19784.55
516.16	20376.70
516.33	20287.76
516.51	20194.14
516.68	20240.95
516.85	20467.98
517.03	20751.19
517.20	20467.98
517.37	20709.06
517.54	20505.43
517.72	20365.00
517.89	20475.01
518.06	20540.54
518.24	20563.95
518.41	20662.25
518.58	20992.26
518.75	20556.93
518.93	21209.93
519.10	20688.00
519.27	20945.45
519.45	20929.07
519.62	21273.13
519.79	21034.39
519.96	21078.86
520.14	21181.85
520.31	21111.63
520.48	21523.57
520.65	21319.94
520.83	21441.65
521.00	21123.33
521.17	21301.22
521.34	21511.86
521.52	21392.50
521.69	21535.27
521.86	21851.24
522.03	21589.10
522.20	21575.06
522.38	21886.35
522.55	21649.96
522.72	22097.00
522.89	21841.88
523.07	22235.09
523.24	22050.19
523.41	21893.37
523.58	22125.08
523.75	22225.73
523.92	21553.99
524.10	22078.27
524.27	22003.38
524.44	22412.97
524.61	22574.47
524.78	22328.71
524.96	22422.33
525.13	22340.41
525.30	22263.18
525.47	22471.48
525.64	22253.81
525.81	22780.43
525.98	22843.63
526.16	22700.86
526.33	22824.90
526.50	23101.09
526.67	22953.63
526.84	22955.97
527.01	22735.96
527.18	22862.35
527.36	23246.20
527.53	22752.35
527.70	23147.90
527.87	23213.43
528.04	22986.40
528.21	22874.06
528.38	23147.90
528.55	23332.80
528.72	23283.65
528.89	23594.94
529.07	23459.19
529.24	23459.19
529.41	23695.58
529.58	23538.77
529.75	23442.81
529.92	23616.01
530.09	23454.51
530.26	23498.98
530.43	23770.48
530.60	23468.55
530.77	23658.14
530.94	23962.40
531.11	23871.12
531.28	23627.71
531.46	23630.05
531.63	23981.13
531.80	24053.69
531.97	24077.09
532.14	24123.90
532.31	24126.24
532.48	23981.13
532.65	24292.42
532.82	23782.18
532.99	23983.47
533.16	24025.60
533.33	24528.81
533.50	24418.81
533.67	24315.83
533.84	24173.05
534.01	24301.78
534.18	24102.84
534.35	24613.07
534.52	24261.99
534.69	24577.97
534.86	24505.41
535.03	24442.21
535.20	24559.24
535.37	24835.42
535.54	24847.13
535.71	24662.22
535.88	24556.90
536.05	24982.88
536.22	25001.60
536.38	25064.80
536.55	25120.97
536.72	25172.46
536.89	24760.53
537.06	24805.00
537.23	25088.20
537.40	24907.98
537.57	24716.06
537.74	25446.30
537.91	25296.51
538.08	25362.04
538.25	24898.62
538.42	25242.68
538.59	25165.44
538.75	25186.50
538.92	24971.18
539.09	25591.42
539.26	25111.61
539.43	25266.08
539.60	25198.21
539.77	25486.09
539.94	25532.90
540.11	25743.55
540.28	25809.09
540.44	25661.63
540.61	25497.80
540.78	25495.46
540.95	25694.40
541.12	25640.57
541.29	25624.18
541.46	25617.16
541.62	25577.37
541.79	25865.26
541.96	25472.05
542.13	25738.87
542.30	25502.48
542.47	25671.00
542.63	26071.23
542.80	26157.83
542.97	26162.51
543.14	26225.70
543.31	26436.35
543.48	26146.12
543.64	26712.53
543.81	26742.96
543.98	26476.14
544.15	26335.71
544.32	26405.92
544.48	26611.89
544.65	26335.71
544.82	26658.70
544.99	25928.45
545.16	26766.37
545.32	26466.78
545.49	26508.91
545.66	26768.71
545.83	26991.06
546.00	26731.26
546.16	26525.29
546.33	26764.03
546.50	26492.52
546.67	26691.47
546.83	26389.54
547.00	26986.38
547.17	27220.43
547.34	26946.59
547.50	26897.44
547.67	27173.62
547.84	27307.03
548.00	27405.33
548.17	27328.10
548.34	26773.39
548.51	27325.75
548.67	27140.85
548.84	27042.55
549.01	27260.22
549.18	27161.92
549.34	26857.65
549.51	27510.66
549.68	27037.87
549.84	27339.80
550.01	27257.88
550.18	27548.11
550.34	27505.98
550.51	27260.22
550.68	27487.25
550.84	27103.40
551.01	27400.65
551.18	27475.55
551.34	27402.99
551.51	27569.17
551.68	27419.38
551.84	27978.76
552.01	27690.88
552.18	27700.24
552.34	27594.92
552.51	27402.99
552.68	27428.74
552.84	27817.27
553.01	27665.13
553.18	27655.77
553.34	28060.68
553.51	27990.47
553.67	27695.56
553.84	28034.94
554.01	28030.26
554.17	28037.28
554.34	27955.36
554.51	27716.62
554.67	28229.20
554.84	27903.87
555.00	27857.06
555.17	27913.23
555.33	28065.36
555.50	28486.66
555.67	28060.68
555.83	27931.95
556.00	28383.68
556.16	28187.07
556.33	28011.53
556.50	28271.33
556.66	28718.37
556.83	28407.08
556.99	28472.62
557.16	27906.21
557.32	28393.04
557.49	28524.11
557.65	28332.18
557.82	28458.57
557.98	28034.94
558.15	28290.06
558.32	28767.52
558.48	28531.13
558.65	28458.57
558.81	28603.69
558.98	28519.43
559.14	28456.23
559.31	28531.13
559.47	28634.11
559.64	28587.30
559.80	28636.45
559.97	28865.83
560.13	28545.17
560.30	28755.82
560.46	28966.47
560.63	28226.86
560.79	28584.96
560.96	28842.42
561.12	28538.15
561.29	28350.91
561.45	28776.89
561.61	28840.08
561.78	28996.90
561.94	28856.46
562.11	28830.72
562.27	28849.44
562.44	28589.64
562.60	28690.29
562.77	28709.01
562.93	28751.14
563.10	29146.69
563.26	28664.54
563.42	29053.07
563.59	28737.10
563.75	28826.04
563.92	28847.10
564.08	28854.12
564.24	28868.17
564.41	28751.14
564.57	28811.99
564.74	28917.32
564.90	29062.43
565.07	29212.23
565.23	29439.26
565.39	28982.85
565.56	29259.04
565.72	29048.39
565.88	28809.65
566.05	28819.02
566.21	29008.60
566.38	29013.28
566.54	29006.26
566.70	29165.42
566.87	29230.95
567.03	29385.43
567.19	29631.18
567.36	29488.41
567.52	29050.73
567.68	29179.46
567.85	29249.67
568.01	29401.81
568.17	28952.43
568.34	29137.33
568.50	29209.89
568.66	29198.18
568.83	29511.81
568.99	29198.18
569.15	29303.51
569.32	29298.83
569.48	28835.40
569.64	29261.38
569.81	29521.18
569.97	29549.26
570.13	29668.63
570.30	29151.37
570.46	29509.47
570.62	29457.98
570.78	29308.19
570.95	29635.86
571.11	29493.09
571.27	29329.25
571.43	29230.95
571.60	28938.38
571.76	29446.28
571.92	29575.01
572.09	29736.51
572.25	29549.26
572.41	29371.38
572.57	29558.63
572.74	29551.60
572.90	29277.76
573.06	29434.58
573.22	29120.95
573.38	29596.07
573.55	29434.58
573.71	30192.91
573.87	29785.66
574.03	29539.90
574.20	29446.28
574.36	29455.64
574.52	29357.34
574.68	29069.45
574.84	29694.38
575.01	29457.98
575.17	29670.97
575.33	29373.72
575.49	29827.79
575.65	29469.69
575.82	29696.72
575.98	29287.12
576.14	29607.78
576.30	29963.54
576.46	29261.38
576.62	29308.19
576.79	29685.01
576.95	29371.38
577.11	29280.10
577.27	30223.34
577.43	29926.09
577.59	30122.69
577.75	29628.84
577.92	29537.56
578.08	29455.64
578.24	29542.24
578.40	29977.58
578.56	29532.88
578.72	29572.67
578.88	29649.91
579.04	29776.30
579.21	29729.48
579.37	30031.41
579.53	29593.73
579.69	29734.17
579.85	29429.90
580.01	29968.22
580.17	29465.00
580.33	29441.60
580.49	29584.37
580.65	29883.96
580.82	29944.81
580.98	30017.37
581.14	29820.77
581.30	29668.63
581.46	29399.47
581.62	29902.68
581.78	29359.68
581.94	29542.24
582.10	29586.71
582.26	29795.02
582.42	29933.11
582.58	30043.12
582.74	29677.99
582.90	29883.96
583.06	30071.20
583.22	30054.82
583.38	29907.37
583.54	29958.86
583.70	30040.78
583.86	29575.01
584.02	29785.66
584.18	29694.38
584.34	30181.21
584.50	30087.59
584.66	29701.40
584.82	29570.33
584.98	30080.56
585.14	29603.10
585.30	29596.07
585.46	29944.81
585.62	30022.05
585.78	29965.88
585.94	29893.32
586.10	29500.11
586.26	30277.17
586.42	29823.11
586.58	29844.17
586.74	29935.45
586.90	29575.01
587.06	29764.59
587.22	29483.73
587.38	29958.86
587.54	30129.72
587.70	30417.60
587.86	29902.68
588.02	30108.65
588.18	30396.54
588.34	30307.60
588.49	29837.15
588.65	30010.35
588.81	30075.88
588.97	30228.02
589.13	29900.34
589.29	30183.55
589.45	29675.65
589.61	29998.65
589.77	30391.86
589.93	30066.52
590.08	30426.96
590.24	30316.96
590.40	30225.68
590.56	30389.52
590.72	30148.44
590.88	29832.47
591.04	30110.99
591.20	30235.04
591.35	30508.88
591.51	30417.60
591.67	30457.39
591.83	30703.15
591.99	30382.49
592.15	30852.94
592.31	30436.33
592.46	30082.91
592.62	29823.11
592.78	30108.65
592.94	29993.97
593.10	30239.72
593.26	30410.58
593.41	30326.32
593.57	30096.95
593.73	30649.32
593.89	30412.92
594.05	30644.63
594.20	30501.86
594.36	30733.57
594.52	30398.88
594.68	29928.43
594.84	30143.76
594.99	30621.23
595.15	30459.73
595.31	30497.18
595.47	30689.10
595.62	30497.18
595.78	30450.37
595.94	30155.46
596.10	30326.32
596.25	30478.46
596.41	30015.03
596.57	29956.52
596.73	30141.42
596.88	30459.73
597.04	30506.54
597.20	30775.70
597.36	30529.95
597.51	30483.14
597.67	30473.78
597.83	30389.52
597.99	30635.27
598.14	30429.30
598.30	30232.70
598.46	30141.42
598.61	30251.42
598.77	30405.90
598.93	30953.58
599.09	30164.82
599.24	31133.81
599.40	30733.57
599.56	30560.37
599.71	30445.69
599.87	30532.29
600.03	30466.75
600.18	30473.78
600.34	30160.14
600.50	30398.88
600.65	30134.40
600.81	30572.08
600.97	31192.32
601.12	30799.11
601.28	30513.56
601.44	30527.61
601.59	30143.76
601.75	30522.93
601.91	30707.83
602.06	30684.42
602.22	30611.87
602.37	30127.38
602.53	30445.69
602.69	30600.16
602.84	30373.13
603.00	30356.75
603.16	30616.55
603.31	30705.49
603.47	30665.70
603.62	30368.45
603.78	30340.36
603.94	30094.61
604.09	30646.97
604.25	30190.57
604.40	30118.01
604.56	30356.75
604.71	30815.49
604.87	30848.26
605.03	30558.03
605.18	30761.66
605.34	30534.63
605.49	30178.87
605.65	30630.59
605.80	30064.18
605.96	30139.08
606.12	30253.76
606.27	30529.95
606.43	30022.05
606.58	30635.27
606.74	30192.91
606.89	30424.62
607.05	30183.55
607.20	30749.96
607.36	30279.51
607.51	30115.67
607.67	30024.39
607.82	30389.52
607.98	30230.36
608.13	30288.87
608.29	30511.22
608.44	30654.00
608.60	30150.78
608.75	30199.93
608.91	29874.60
609.06	29933.11
609.22	30106.31
609.37	29926.09
609.53	30015.03
609.68	30113.33
609.84	30143.76
609.99	29900.34
610.15	30085.25
610.30	29876.94
610.46	30195.25
610.61	30501.86
610.76	30272.49
610.92	30012.69
611.07	29926.09
611.23	30335.68
611.38	30300.58
611.54	29736.51
611.69	29869.92
611.84	30012.69
612.00	29919.07
612.15	29750.55
612.31	30361.43
612.46	29837.15
612.62	29802.04
612.77	30345.05
612.92	30148.44
613.08	29890.98
613.23	29720.12
613.39	29766.93
613.54	29579.69
613.69	29905.02
613.85	30040.78
614.00	29776.30
614.15	29881.62
614.31	29589.05
614.46	30321.64
614.62	29596.07
614.77	29944.81
614.92	30031.41
615.08	29359.68
615.23	29846.51
615.38	29968.22
615.54	29780.98
615.69	29675.65
615.84	29474.37
616.00	29455.64
616.15	29457.98
616.30	29729.48
616.46	29757.57
616.61	29565.65
616.76	29336.27
616.92	29617.14
617.07	29385.43
617.22	29577.35
617.37	29071.79
617.53	29689.70
617.68	29364.36
617.83	29160.73
617.99	29778.64
618.14	29605.44
618.29	29703.74
618.45	29137.33
618.60	29640.54
618.75	29530.54
618.90	29687.36
619.06	29495.43
619.21	29333.93
619.36	29359.68
619.51	29392.45
619.67	29106.90
619.82	29219.25
619.97	29603.10
620.12	29326.91
620.28	29223.93
620.43	29460.32
620.58	29252.02
620.73	29413.51
620.89	29305.85
621.04	29441.60
621.19	29191.16
621.34	28945.41
621.49	29329.25
621.65	29282.44
621.80	29682.67
621.95	28655.18
622.10	29015.62
622.25	28870.51
622.41	29212.23
622.56	29226.27
622.71	29305.85
622.86	28971.15
623.01	29067.11
623.16	28723.05
623.32	28816.68
623.47	29008.60
623.62	28922.00
623.77	29149.03
623.92	29015.62
624.07	29202.86
624.23	29111.58
624.38	29020.30
624.53	29191.16
624.68	29024.98
624.83	28826.04
624.98	28978.17
625.13	28865.83
625.29	28994.56
625.44	28821.36
625.59	28617.73
625.74	28739.44
625.89	28664.54
626.04	28231.54
626.19	28517.09
626.34	28290.06
626.49	28329.84
626.65	28589.64
626.80	29001.58
626.95	28837.74
627.10	28599.01
627.25	28203.46
627.40	28474.96
627.55	28369.63
627.70	28091.11
627.85	28259.63
628.00	28226.86
628.15	28627.09
628.30	27929.61
628.45	28648.16
628.60	28219.84
628.76	28273.67
628.91	28517.09
629.06	28252.61
629.21	28404.74
629.36	28268.99
629.51	28222.18
629.66	28158.99
629.81	27960.04
629.96	28177.71
630.11	28182.39
630.26	28161.33
630.41	28006.85
630.56	27960.04
630.71	28173.03
630.86	28020.89
631.01	28034.94
631.16	28086.43
631.31	28168.35
631.46	28030.26
631.61	28332.18
631.76	28196.43
631.91	27693.22
632.06	27700.24
632.21	27637.05
632.36	28011.53
632.51	27604.28
632.66	27758.75
632.81	27723.65
632.96	28126.22
633.10	27896.85
633.25	28144.94
633.40	27707.26
633.55	27854.72
633.70	27564.49
633.85	27398.31
634.00	27742.37
634.15	27807.90
634.30	27948.34
634.45	27580.87
634.60	27445.12
634.75	27295.33
634.90	27522.36
635.05	27559.81
635.19	27538.74
635.34	27824.29
635.49	27938.97
635.64	27590.24
635.79	27606.62
635.94	27208.73
636.09	27349.16
636.24	27522.36
636.39	27468.53
636.53	27302.35
636.68	27318.73
636.83	27470.87
636.98	27552.79
637.13	27171.28
637.28	27489.59
637.43	27562.15
637.57	27718.96
637.72	27426.40
637.87	27353.84
638.02	27143.19
638.17	27505.98
638.32	27426.40
638.46	27035.53
638.61	26993.40
638.76	26738.28
638.91	26939.57
639.06	26691.47
639.20	27122.13
639.35	26827.22
639.50	27084.68
639.65	27508.32
639.80	27393.63
639.94	27372.57
640.09	27211.07
640.24	27087.02
640.39	27030.85
640.54	26951.27
640.68	26850.63
640.83	26918.50
640.98	26724.24
641.13	26874.03
641.27	27023.83
641.42	26937.23
641.57	27117.45
641.72	26988.72
641.86	26623.59
642.01	26761.69
642.16	26724.24
642.31	26735.94
642.45	26981.70
642.60	26590.83
642.75	26424.65
642.90	26518.27
643.04	26623.59
643.19	26405.92
643.34	26719.56
643.48	26092.29
643.63	26677.43
643.78	26721.90
643.93	26672.74
644.07	26902.12
644.22	26651.68
644.37	26794.45
644.51	26597.85
644.66	26602.53
644.81	26518.27
644.95	26471.46
645.10	26398.90
645.25	26501.89
645.39	26209.32
645.54	26347.41
645.69	26513.59
645.83	26429.33
645.98	26235.06
646.13	26387.20
646.27	26466.78
646.42	26658.70
646.57	26396.56
646.71	26298.26
646.86	26536.99
647.00	26803.82
647.15	26485.50
647.30	26171.87
647.44	25827.81
647.59	26309.96
647.74	25638.23
647.88	26075.91
648.03	26078.25
648.17	26361.45
648.32	26244.43
648.47	26239.75
648.61	26445.71
648.76	26279.54
648.90	26155.49
649.05	25970.58
649.20	26132.08
649.34	25755.26
649.49	25755.26
649.63	25792.70
649.78	25558.65
649.92	26132.08
650.07	26265.49
650.21	25982.29
650.36	25748.23
650.51	25942.50
650.65	26036.12
650.80	25919.09
650.94	25989.31
651.09	25511.84
651.23	25476.73
651.38	25692.06
651.52	25598.44
651.67	25619.50
651.81	25935.48
651.96	25778.66
652.10	25673.34
652.25	25617.16
652.39	25998.67
652.54	25633.55
652.68	25916.75
652.83	25933.14
652.97	25979.95
653.12	25539.93
653.26	25483.75
653.41	25769.30
653.55	25722.49
653.70	25158.42
653.84	25532.90
653.99	25476.73
654.13	25755.26
654.27	25291.83
654.42	25600.78
654.56	25336.30
654.71	25462.69
654.85	25579.71
655.00	25408.86
655.14	25228.63
655.29	25223.95
655.43	25743.55
655.57	25607.80
655.72	25298.85
655.86	25319.92
656.01	25296.51
656.15	24989.90
656.30	25071.82
656.44	25041.39
656.58	24903.30
656.73	25069.48
656.87	25116.29
657.01	25560.99
657.16	25254.38
657.30	25228.63
657.45	25151.40
657.59	24971.18
657.73	24929.05
657.88	25029.69
658.02	25034.37
658.16	24631.80
658.31	24760.53
658.45	24844.79
658.60	24737.12
658.74	24727.76
658.88	24606.05
659.03	24615.41
659.17	24833.08
659.31	24828.40
659.46	24884.58
659.60	25127.99
659.74	24641.16
659.89	24716.06
660.03	24741.80
660.17	24472.64
660.32	24580.31
660.46	24465.62
660.60	24166.03
660.74	24472.64
660.89	24278.38
661.03	24336.89
661.17	24049.00
661.32	24446.90
661.46	24219.86
661.60	24510.09
661.74	24507.75
661.89	24584.99
662.03	24056.03
662.17	24137.94
662.31	24325.19
662.46	24496.05
662.60	23929.64
662.74	24425.83
662.88	23896.87
663.03	23913.25
663.17	23964.75
663.31	23641.75
663.45	23985.81
663.60	23857.08
663.74	23763.46
663.88	23861.76
664.02	23772.82
664.17	23836.02
664.31	23456.85
664.45	23721.33
664.59	23695.58
664.73	23213.43
664.88	23447.49
665.02	23517.70
665.16	23473.23
665.30	23637.07
665.44	23271.95
665.59	23452.17
665.73	23374.93
665.87	23344.50
666.01	23613.66
666.15	23403.02
666.29	23335.14
666.44	23410.04
666.58	23358.55
666.72	23138.54
666.86	23496.64
667.00	23438.12
667.14	23037.89
667.28	22998.10
667.43	23152.58
667.57	23096.41
667.71	22834.27
667.85	22829.59
667.99	22988.74
668.13	22998.10
668.27	22888.10
668.41	22820.22
668.56	22487.87
668.70	22391.91
668.84	22719.58
668.98	23098.75
669.12	22867.03
669.26	22691.49
669.40	22654.05
669.54	22686.81
669.68	22614.26
669.82	22347.44
669.96	22265.52
670.10	22038.48
670.25	22490.21
670.39	22335.73
670.53	22134.45
670.67	22223.39
670.81	22419.99
670.95	22368.50
671.09	22207.00
671.23	22228.07
671.37	22106.36
671.51	22038.48
671.65	22036.14
671.79	22015.08
671.93	21942.52
672.07	21926.14
672.21	21898.05
672.35	21664.00
672.49	21469.73
672.63	21635.91
672.77	21350.37
672.91	21687.40
673.05	21600.80
673.19	21825.50
673.33	21156.10
673.47	21734.21
673.61	21612.51
673.75	21378.45
673.89	21535.27
674.03	21219.30
674.17	21453.35
674.31	21528.25
674.45	21128.02
674.59	20943.11
674.73	21179.51
674.87	21303.56
675.01	20879.92
675.15	20809.70
675.29	20835.45
675.43	20765.23
675.56	20587.35
675.70	20870.56
675.84	20662.25
675.98	20290.10
676.12	20886.94
676.26	20903.32
676.40	20786.30
676.54	20627.14
676.68	20329.89
676.82	20383.73
676.96	20247.97
677.10	20367.34
677.23	20264.36
677.37	20271.38
677.51	20030.30
677.65	20166.06
677.79	19917.96
677.93	19775.19
678.07	19599.65
678.21	19613.69
678.34	19800.93
678.48	19892.21
678.62	19552.84
678.76	19653.48
678.90	19578.58
679.04	19616.03
679.18	19571.56
679.31	19274.31
679.45	18972.38
679.59	19087.07
679.73	19201.76
679.87	19201.76
680.00	18958.34
680.14	18761.73
680.28	19051.96
680.42	18801.52
680.56	18878.76
680.70	19026.21
680.83	18948.98
680.97	18689.18
681.11	19009.83
681.25	18707.90
681.39	18623.64
681.52	18555.77
681.66	18541.72
681.80	18347.46
681.94	18319.37
682.07	18225.75
682.21	17935.53
682.35	17937.87
682.49	18162.56
682.62	17792.75
682.76	17837.22
682.90	18253.84
683.04	18078.30
683.17	17944.89
683.31	18164.90
683.45	18001.06
683.59	17729.56
683.72	17666.36
683.86	17631.26
684.00	17816.16
684.13	17617.21
684.27	17275.49
684.41	17380.82
684.55	17104.64
684.68	17153.79
684.82	16816.75
684.96	17022.72
685.09	17020.38
685.23	17018.04
685.37	17184.21
685.50	17053.14
685.64	17167.83
685.78	16823.77
685.91	16957.18
686.05	16854.20
686.19	16917.39
686.32	17088.25
686.46	16535.88
686.60	16592.06
686.73	16648.23
686.87	16173.10
687.01	16156.72
687.14	16386.09
687.28	16372.05
687.42	16074.80
687.55	16187.14
687.69	16067.78
687.82	16016.29
687.96	16086.50
688.10	16018.63
688.23	16032.67
688.37	16009.26
688.50	15789.25
688.64	15697.97
688.78	15604.35
688.91	15569.24
689.05	15585.63
689.18	15646.48
689.32	15009.86
689.46	15438.17
689.59	15257.95
689.73	15538.82
689.86	15349.23
690.00	15014.54
690.13	15342.21
690.27	15159.65
690.41	14965.39
690.54	15056.67
690.68	15056.67
690.81	14881.13
690.95	14885.81
691.08	15152.63
691.22	14719.63
691.35	14888.15
691.49	14724.31
691.62	14714.95
691.76	14534.73
691.89	14464.51
692.03	14298.33
692.16	14272.59
692.30	14387.27
692.43	14239.82
692.57	14525.36
692.70	14108.75
692.84	14221.10
692.97	13879.38
693.11	14012.79
693.24	13944.91
693.38	14057.26
693.51	13778.73
693.65	13785.76
693.78	13727.24
693.92	14073.64
694.05	13823.20
694.19	13792.78
694.32	13458.08
694.45	13394.89
694.59	13369.14
694.72	13317.65
694.86	13516.59
694.99	13118.70
695.13	13050.83
695.26	13139.77
695.39	12978.27
695.53	13179.56
695.66	13081.25
695.80	13139.77
695.93	12975.93
696.07	12994.65
696.20	13048.49
696.33	12905.71
696.47	12737.20
696.60	12528.89
696.73	12475.06
696.87	12603.78
697.00	12669.32
697.14	12449.31
697.27	12269.09
697.40	12313.56
697.54	12376.75
697.67	12311.22
697.80	12180.15
697.94	11927.37
698.07	11988.22
698.21	11901.62
698.34	12053.76
698.47	12203.55
698.61	11906.31
698.74	11969.50
698.87	11805.66
699.01	11754.17
699.14	11873.54
699.27	11861.84
699.40	11564.59
699.54	11555.22
699.67	11730.76
699.80	11248.61
699.94	11508.41
700.07	11328.19
700.20	11246.27
700.34	11152.65
700.47	11295.43
700.60	11349.26
700.73	11400.75
700.87	11199.46
701.00	11136.27
701.13	11030.94
701.26	11173.72
701.40	11119.89
701.53	10956.05
701.66	11110.52
701.79	11101.16
701.93	10862.43
702.06	10604.97
702.19	10565.18
702.32	10616.67
702.46	10726.68
702.59	10382.62
702.72	10766.46
702.85	10267.93
702.99	10431.77
703.12	10157.92
703.25	10314.74
703.38	10415.38
703.51	10377.94
703.65	10153.24
703.78	10218.78
703.91	10310.06
704.04	10146.22
704.17	10239.84
704.31	10148.56
704.44	10113.45
704.57	9879.40
704.70	9877.06
704.83	9507.26
704.96	9884.08
705.10	9710.88
705.23	9748.33
>>>>>End Processed Spectral Data<<<<<
