SpectraSuite Data File
++++++++++++++++++++++++++++++++++++
Date: Fri Oct 18 13:58:20 GMT-05:00 2013
User: bianchi
Dark Spectrum Present: No
Reference Spectrum Present: No
Number of Sampled Component Spectra: 1
Spectrometers: USB2+H05261
Integration Time (usec): 50000 (USB2+H05261)
Spectra Averaged: 1 (USB2+H05261)
Boxcar Smoothing: 0 (USB2+H05261)
Correct for Electrical Dark: No (USB2+H05261)
Strobe/Lamp Enabled: No (USB2+H05261)
Correct for Detector Non-linearity: No (USB2+H05261)
Correct for Stray Light: No (USB2+H05261)
Number of Pixels in Processed Spectrum: 2048
>>>>>Begin Processed Spectral Data<<<<<
365.73	0.00
365.92	0.00
366.12	0.00
366.32	0.00
366.52	0.00
366.72	0.00
366.91	0.00
367.11	0.00
367.31	0.00
367.51	0.00
367.70	0.00
367.90	0.00
368.10	0.00
368.30	0.00
368.49	0.00
368.69	0.00
368.89	0.00
369.09	0.00
369.28	0.00
369.48	0.00
369.68	0.00
369.87	0.00
370.07	0.00
370.27	0.00
370.47	0.00
370.66	18.72
370.86	107.66
371.06	65.54
371.25	168.52
371.45	145.11
371.65	98.30
371.84	198.95
372.04	170.86
372.24	140.43
372.44	142.77
372.63	173.20
372.83	135.75
373.03	257.46
373.22	231.71
373.42	262.14
373.62	264.48
373.81	241.08
374.01	182.56
374.21	234.05
374.40	198.95
374.60	220.01
374.79	210.65
374.99	292.57
375.19	266.82
375.38	271.50
375.58	365.12
375.78	229.37
375.97	236.39
376.17	322.99
376.37	271.50
376.56	220.01
376.76	159.16
376.95	220.01
377.15	276.18
377.35	325.33
377.54	201.29
377.74	262.14
377.93	252.78
378.13	227.03
378.33	259.80
378.52	313.63
378.72	208.31
378.91	301.93
379.11	322.99
379.31	346.40
379.50	360.44
379.70	283.20
379.89	241.08
380.09	301.93
380.28	327.68
380.48	283.20
380.68	229.37
380.87	290.23
381.07	327.68
381.26	318.31
381.46	353.42
381.65	325.33
381.85	290.23
382.04	376.83
382.24	393.21
382.43	290.23
382.63	330.02
382.83	362.78
383.02	353.42
383.22	379.17
383.41	325.33
383.61	435.34
383.80	372.15
384.00	376.83
384.19	320.65
384.39	299.59
384.58	322.99
384.78	379.17
384.97	355.76
385.17	320.65
385.36	367.46
385.56	425.98
385.75	376.83
385.95	344.06
386.14	341.72
386.34	367.46
386.53	433.00
386.72	330.02
386.92	409.59
387.11	444.70
387.31	463.43
387.50	414.27
387.70	402.57
387.89	372.15
388.09	489.17
388.28	461.09
388.48	409.59
388.67	390.87
388.86	421.30
389.06	493.85
389.25	498.53
389.45	435.34
389.64	400.23
389.84	428.32
390.03	421.30
390.22	465.77
390.42	440.02
390.61	451.72
390.81	404.91
391.00	524.28
391.19	463.43
391.39	568.75
391.58	559.39
391.78	524.28
391.97	538.32
392.16	524.28
392.36	580.45
392.55	575.77
392.75	601.52
392.94	496.19
393.13	547.69
393.33	524.28
393.52	500.87
393.71	547.69
393.91	571.09
394.10	561.73
394.29	599.18
394.49	559.39
394.68	636.63
394.88	564.07
395.07	617.90
395.26	648.33
395.46	566.41
395.65	631.94
395.84	669.39
396.04	713.86
396.23	578.11
396.42	648.33
396.62	669.39
396.81	620.24
397.00	648.33
397.19	660.03
397.39	645.99
397.58	695.14
397.77	643.65
397.97	653.01
398.16	741.95
398.35	830.89
398.55	653.01
398.74	678.76
398.93	748.97
399.12	716.20
399.32	662.37
399.51	713.86
399.70	800.46
399.90	748.97
400.09	786.42
400.28	870.68
400.47	751.31
400.67	713.86
400.86	779.40
401.05	793.44
401.24	802.80
401.44	798.12
401.63	861.32
401.82	882.38
402.01	763.01
402.21	802.80
402.40	809.83
402.59	763.01
402.78	802.80
402.97	734.93
403.17	915.15
403.36	856.64
403.55	826.21
403.74	894.08
403.93	866.00
404.13	952.60
404.32	826.21
404.51	915.15
404.70	917.49
404.89	894.08
405.09	959.62
405.28	943.24
405.47	917.49
405.66	922.17
405.85	919.83
406.05	875.36
406.24	1064.94
406.43	945.58
406.62	924.51
406.81	1097.71
407.00	891.74
407.20	947.92
407.39	1050.90
407.58	1011.11
407.77	1015.79
407.96	1008.77
408.15	1064.94
408.34	1081.33
408.54	1067.28
408.73	1078.99
408.92	1116.44
409.11	1233.46
409.30	1057.92
409.49	1137.50
409.68	1193.67
409.87	1104.73
410.07	1221.76
410.26	1107.07
410.45	1191.33
410.64	1174.95
410.83	1193.67
411.02	1242.82
411.21	1263.89
411.40	1289.64
411.59	1287.29
411.78	1233.46
411.98	1240.48
412.17	1238.14
412.36	1313.04
412.55	1322.40
412.74	1362.19
412.93	1273.25
413.12	1392.62
413.31	1378.58
413.50	1338.79
413.69	1378.58
413.88	1331.76
414.07	1437.09
414.26	1455.81
414.45	1324.74
414.64	1476.88
414.83	1528.37
415.02	1448.79
415.22	1563.48
415.41	1591.56
415.60	1521.35
415.79	1530.71
415.98	1570.50
416.17	1474.54
416.36	1582.20
416.55	1586.88
416.74	1619.65
416.93	1607.95
417.12	1743.70
417.31	1696.89
417.50	1680.50
417.69	1792.85
417.88	1753.06
418.07	1694.55
418.26	1727.32
418.45	1753.06
418.64	1710.93
418.83	1781.15
419.02	1830.30
419.21	1764.76
419.39	1834.98
419.58	1837.32
419.77	1849.02
419.96	1935.62
420.15	1912.22
420.34	1874.77
420.53	1818.60
420.72	1907.54
420.91	1879.45
421.10	1975.41
421.29	2029.24
421.48	1895.83
421.67	1935.62
421.86	1975.41
422.05	1900.52
422.24	1940.30
422.43	1947.33
422.61	2019.88
422.80	2045.63
422.99	2005.84
423.18	2069.03
423.37	1963.71
423.56	2029.24
423.75	2136.91
423.94	2008.18
424.13	1820.94
424.32	1909.88
424.50	1977.75
424.69	2031.58
424.88	2062.01
425.07	1959.03
425.26	1940.30
425.45	2054.99
425.64	2083.08
425.83	2017.54
426.01	2050.31
426.20	2043.29
426.39	2029.24
426.58	2101.80
426.77	2153.29
426.96	2129.89
427.15	2108.82
427.33	2033.93
427.52	2141.59
427.71	2141.59
427.90	2097.12
428.09	2209.47
428.28	2181.38
428.46	2197.76
428.65	2277.34
428.84	2237.55
429.03	2176.70
429.22	2120.53
429.40	2244.57
429.59	2256.28
429.78	2223.51
429.97	2167.34
430.16	2253.94
430.34	2242.23
430.53	2347.56
430.72	2314.79
430.91	2235.21
431.10	2265.64
431.28	2319.47
431.47	2377.98
431.66	2363.94
431.85	2300.75
432.03	2349.90
432.22	2466.92
432.41	2504.37
432.60	2427.14
432.79	2452.88
432.97	2457.56
433.16	2473.95
433.35	2485.65
433.54	2459.90
433.72	2520.76
433.91	2649.49
434.10	2572.25
434.28	2434.16
434.47	2583.95
434.66	2562.89
434.85	2616.72
435.03	2583.95
435.22	2600.34
435.41	2724.38
435.59	2548.84
435.78	2525.44
435.97	2656.51
436.16	2731.41
436.34	2708.00
436.53	2670.55
436.72	2775.88
436.90	2733.75
437.09	2848.43
437.28	2654.17
437.46	2715.02
437.65	2768.85
437.84	2745.45
438.02	2810.98
438.21	2836.73
438.40	2703.32
438.58	3016.95
438.77	2785.24
438.96	2822.69
439.14	2939.71
439.33	2956.10
439.52	2972.48
439.70	2904.60
439.89	2935.03
440.08	2897.58
440.26	3136.32
440.45	3077.80
440.63	3033.33
440.82	3023.97
441.01	3171.43
441.19	3091.85
441.38	3183.13
441.57	3070.78
441.75	3171.43
441.94	3323.56
442.12	3190.15
442.31	3260.37
442.50	3351.65
442.68	3389.10
442.87	3297.81
443.05	3323.56
443.24	3435.91
443.43	3405.48
443.61	3496.76
443.80	3421.86
443.98	3382.07
444.17	3311.86
444.35	3431.23
444.54	3489.74
444.73	3520.17
444.91	3398.46
445.10	3463.99
445.28	3534.21
445.47	3396.12
445.65	3438.25
445.84	3524.85
446.02	3508.46
446.21	3496.76
446.39	3496.76
446.58	3447.61
446.77	3620.81
446.95	3419.52
447.14	3398.46
447.32	3604.42
447.51	3391.44
447.69	3433.57
447.88	3555.27
448.06	3590.38
448.25	3426.54
448.43	3531.87
448.62	3566.98
448.80	3468.67
448.99	3545.91
449.17	3538.89
449.36	3447.61
449.54	3588.04
449.73	3672.30
449.91	3744.86
450.10	3653.58
450.28	3693.37
450.46	3574.00
450.65	3674.64
450.83	3707.41
451.02	3616.13
451.20	3751.88
451.39	3866.56
451.57	3866.56
451.76	3758.90
451.94	3850.18
452.13	3882.95
452.31	3768.26
452.49	3789.33
452.68	3934.44
452.86	3838.48
453.05	3742.52
453.23	3932.10
453.42	3815.07
453.60	3899.33
453.78	3983.59
453.97	3922.74
454.15	3943.80
454.34	4018.70
454.52	4105.30
454.70	3932.10
454.89	4107.64
455.07	4011.68
455.26	4095.94
455.44	4124.02
455.62	3990.61
455.81	4107.64
455.99	4140.41
456.17	4098.28
456.36	4177.86
456.54	4198.92
456.73	4283.18
456.91	4292.54
457.09	4290.20
457.28	4404.89
457.46	4212.96
457.64	4257.43
457.83	4355.74
458.01	4243.39
458.19	4472.76
458.38	4447.02
458.56	4369.78
458.74	4376.80
458.93	4540.64
459.11	4381.48
459.29	4472.76
459.48	4498.51
459.66	4414.25
459.84	4486.81
460.03	4519.57
460.21	4585.11
460.39	4578.09
460.57	4437.66
460.76	4498.51
460.94	4580.43
461.12	4638.94
461.31	4636.60
461.49	4779.37
461.67	4449.36
461.85	4755.97
462.04	4720.86
462.22	4844.91
462.40	4676.39
462.59	4777.03
462.77	4669.37
462.95	4685.75
463.13	4800.44
463.32	4741.93
463.50	4966.62
463.68	4983.00
463.86	4800.44
464.05	4833.21
464.23	4887.04
464.41	4898.74
464.59	4774.69
464.78	4968.96
464.96	4997.04
465.14	4938.53
465.32	4896.40
465.50	4978.32
465.69	5027.47
465.87	4938.53
466.05	4975.98
466.23	5018.11
466.41	5135.14
466.60	5282.59
466.78	4851.93
466.96	5011.09
467.14	5158.54
467.32	5036.83
467.51	5195.99
467.69	5046.20
467.87	5146.84
468.05	5184.29
468.23	5149.18
468.41	4959.60
468.60	5149.18
468.78	5338.76
468.96	5081.30
469.14	5378.55
469.32	5247.48
469.50	5277.91
469.69	5317.70
469.87	5416.00
470.05	5392.59
470.23	5385.57
470.41	5556.43
470.59	5619.63
470.77	5500.26
470.95	5387.91
471.14	5416.00
471.32	5320.04
471.50	5462.81
471.68	5558.77
471.86	5654.73
472.04	5596.22
472.22	5764.74
472.40	5596.22
472.58	5533.03
472.77	5729.63
472.95	5518.98
473.13	5970.71
473.31	5736.65
473.49	5781.12
473.67	5923.90
473.85	5942.62
474.03	6015.18
474.21	6052.63
474.39	5888.79
474.57	6141.57
474.75	6012.84
474.93	6064.33
475.12	6188.38
475.30	6230.51
475.48	6069.01
475.66	6375.62
475.84	6368.60
476.02	6265.61
476.20	6492.65
476.38	6352.21
476.56	6392.00
476.74	6569.88
476.92	6487.96
477.10	6670.53
477.28	6567.54
477.46	6649.46
477.64	6609.67
477.82	6834.36
478.00	6949.05
478.18	6848.41
478.36	6906.92
478.54	7040.33
478.72	7103.53
478.90	7164.38
479.08	7162.04
479.26	7162.04
479.44	7236.94
479.62	7316.51
479.80	7368.01
479.98	7372.69
480.16	7653.55
480.34	7229.91
480.52	7714.41
480.70	7501.42
480.88	7527.16
481.06	7791.64
481.24	7499.08
481.41	7779.94
481.59	7934.42
481.77	8210.60
481.95	8006.97
482.13	7936.76
482.31	8250.39
482.49	8294.86
482.67	8297.20
482.85	8432.95
483.03	8407.20
483.21	8533.59
483.39	8486.78
483.57	8439.97
483.74	8650.62
483.92	8840.20
484.10	8662.32
484.28	8915.10
484.46	8877.65
484.64	9277.88
484.82	8975.95
485.00	9029.79
485.18	9301.29
485.35	9415.98
485.53	9385.55
485.71	9504.92
485.89	9577.47
486.07	9331.72
486.25	9518.96
486.43	9645.35
486.61	9575.13
486.78	9863.02
486.96	9802.16
487.14	10155.58
487.32	10167.29
487.50	10122.82
487.68	10221.12
487.85	10293.68
488.03	10462.19
488.21	10654.12
488.39	10729.02
488.57	10452.83
488.75	10810.93
488.92	10839.02
489.10	10836.68
489.28	10927.96
489.46	10986.47
489.64	11192.44
489.81	11398.41
489.99	11129.25
490.17	11272.02
490.35	11473.31
490.53	11817.36
490.70	11758.85
490.88	11545.86
491.06	11864.18
491.24	11712.04
491.41	11894.60
491.59	11922.69
491.77	12051.42
491.95	12013.97
492.13	12496.12
492.30	12259.73
492.48	12264.41
492.66	12430.59
492.84	12411.86
493.01	12418.88
493.19	12290.15
493.37	12636.55
493.54	12755.92
493.72	12716.13
493.90	13036.78
494.08	13001.68
494.25	13139.77
494.43	13097.64
494.61	13233.39
494.79	13123.38
494.96	13160.83
495.14	13315.31
495.32	13572.77
495.49	13458.08
495.67	13444.04
495.85	13834.91
496.02	13944.91
496.20	13645.32
496.38	13839.59
496.55	13830.23
496.73	14253.86
496.91	14265.57
497.09	14221.10
497.26	14307.69
497.44	14338.12
497.62	14424.72
497.79	14567.49
497.97	14361.53
498.14	14710.27
498.32	14820.27
498.50	14824.95
498.67	14766.44
498.85	15178.37
499.03	15014.54
499.20	14944.32
499.38	15005.17
499.56	15225.18
499.73	15213.48
499.91	15412.43
500.08	15552.86
500.26	15283.70
500.44	15309.44
500.61	15555.20
500.79	15634.78
500.97	15627.76
501.14	15772.87
501.32	15894.58
501.49	15812.66
501.67	15594.99
501.84	15840.75
502.02	16163.74
502.20	16044.37
502.37	16166.08
502.55	15925.00
502.72	16126.29
502.90	16182.46
503.07	16229.27
503.25	16287.79
503.43	16416.52
503.60	16269.06
503.78	16533.54
503.95	16500.78
504.13	16575.67
504.30	16868.24
504.48	16807.39
504.65	17025.06
504.83	16739.51
505.01	17205.28
505.18	16877.60
505.36	16957.18
505.53	16985.27
505.71	17181.87
505.88	17228.68
506.06	17158.47
506.23	17310.60
506.41	17151.45
506.58	17343.37
506.76	17561.04
506.93	17436.99
507.11	17249.75
507.28	17570.40
507.46	17774.03
507.63	17806.80
507.81	17696.79
507.98	17811.48
508.16	17823.18
508.33	17912.12
508.50	17902.76
508.68	17951.91
508.85	18338.10
509.03	18253.84
509.20	18340.44
509.38	18420.02
509.55	18494.91
509.73	18345.12
509.90	18415.34
510.08	18003.40
510.25	18450.44
510.42	18621.30
510.60	18649.39
510.77	18843.65
510.95	18642.37
511.12	18569.81
511.30	18562.79
511.47	18948.98
511.64	19239.20
511.82	19019.19
511.99	19089.41
512.17	19286.01
512.34	18998.13
512.51	19143.24
512.69	19136.22
512.86	19286.01
513.04	19267.29
513.21	19372.61
513.38	19271.97
513.56	19239.20
513.73	19321.12
513.90	19482.62
514.08	19456.87
514.25	19559.86
514.43	19829.02
514.60	19784.55
514.77	19644.12
514.95	19983.49
515.12	19499.00
515.29	20011.58
515.47	20018.60
515.64	20247.97
515.81	20306.49
515.99	20290.10
516.16	20278.40
516.33	20360.32
516.51	20493.73
516.68	19964.77
516.85	20325.21
517.03	20395.43
517.20	20688.00
517.37	20582.67
517.54	20493.73
517.72	20741.83
517.89	20526.50
518.06	20603.74
518.24	20376.70
518.41	20585.01
518.58	20755.87
518.75	20769.91
518.93	20952.48
519.10	20753.53
519.27	21090.57
519.45	20594.37
519.62	20940.77
519.79	20945.45
519.96	21139.72
520.14	21095.25
520.31	21273.13
520.48	21406.54
520.65	20900.98
520.83	21298.88
521.00	21366.75
521.17	21312.92
521.34	21120.99
521.52	21326.96
521.69	21460.37
521.86	21617.19
522.03	21830.18
522.20	21905.07
522.38	21535.27
522.55	21916.78
522.72	22057.21
522.89	22171.89
523.07	21898.05
523.24	21923.80
523.41	22305.31
523.58	21933.16
523.75	22267.86
523.92	22143.81
524.10	21968.27
524.27	22324.03
524.44	22319.35
524.61	22380.20
524.78	22256.15
524.96	22483.19
525.13	22553.40
525.30	22305.31
525.47	22459.78
525.64	22373.18
525.81	22698.52
525.98	22855.33
526.16	22574.47
526.33	22740.64
526.50	22813.20
526.67	22733.62
526.84	23164.28
527.01	22522.98
527.18	22815.54
527.36	23019.17
527.53	23119.81
527.70	23215.77
527.87	23201.73
528.04	23187.69
528.21	22913.84
528.38	23030.87
528.55	23274.29
528.72	23105.77
528.89	23358.55
529.07	23229.82
529.24	23435.78
529.41	23330.46
529.58	23714.31
529.75	23648.77
529.92	23630.05
530.09	23711.97
530.26	23700.26
530.43	23821.97
530.60	23740.05
530.77	23634.73
530.94	23379.61
531.11	23564.51
531.28	23756.44
531.46	23543.45
531.63	23770.48
531.80	23838.36
531.97	24046.66
532.14	24489.03
532.31	24250.29
532.48	24313.48
532.65	23981.13
532.82	23648.77
532.99	24233.91
533.16	24154.33
533.33	23967.09
533.50	24554.56
533.67	24446.90
533.84	24397.74
534.01	24053.69
534.18	24470.30
534.35	24797.98
534.52	24449.24
534.69	25151.40
534.86	24781.59
535.03	24418.81
535.20	24620.10
535.37	24694.99
535.54	24795.64
535.71	24278.38
535.88	24664.57
536.05	24900.96
536.22	25055.43
536.38	25207.57
536.55	24971.18
536.72	24840.11
536.89	24849.47
537.06	24996.92
537.23	25116.29
537.40	24507.75
537.57	25188.85
537.74	25422.90
537.91	25202.89
538.08	25549.29
538.25	25092.88
538.42	25324.60
538.59	25326.94
538.75	25226.29
538.92	25359.70
539.09	25614.82
539.26	25345.66
539.43	25301.19
539.60	25270.76
539.77	25282.47
539.94	25921.43
540.11	25560.99
540.28	25645.25
540.44	25530.56
540.61	25617.16
540.78	25537.59
540.95	25720.15
541.12	25649.93
541.29	26284.22
541.46	25846.54
541.62	25647.59
541.79	25743.55
541.96	25392.47
542.13	25820.79
542.30	25954.20
542.47	26202.30
542.63	25982.29
542.80	25862.92
542.97	26431.67
543.14	26352.09
543.31	26288.90
543.48	25928.45
543.64	26501.89
543.81	26202.30
543.98	26366.13
544.15	26700.83
544.32	26518.27
544.48	26576.78
544.65	26726.58
544.82	26553.38
544.99	26115.70
545.16	26520.61
545.32	26621.25
545.49	26808.50
545.66	26541.68
545.83	27051.91
546.00	26885.73
546.16	26883.39
546.33	26539.33
546.50	26600.19
546.67	27005.10
546.83	26745.30
547.00	26679.77
547.17	26892.76
547.34	26960.63
547.50	27339.80
547.67	27175.96
547.84	26841.26
548.00	27292.99
548.17	26902.12
548.34	27229.79
548.51	27227.45
548.67	27491.93
548.84	27026.17
549.01	27393.63
549.18	27332.78
549.34	26867.01
549.51	27304.69
549.68	27271.92
549.84	27110.43
550.01	27211.07
550.18	27201.71
550.34	27491.93
550.51	27503.64
550.68	27711.94
550.84	27257.88
551.01	27707.26
551.18	27564.49
551.34	26991.06
551.51	27199.37
551.68	27725.99
551.84	27749.39
552.01	27442.78
552.18	27740.03
552.34	27321.07
552.51	28002.17
552.68	27718.96
552.84	28102.81
553.01	27550.45
553.18	27854.72
553.34	27887.48
553.51	27374.91
553.67	27889.82
553.84	28187.07
554.01	28187.07
554.17	28163.67
554.34	27953.02
554.51	27910.89
554.67	27587.89
554.84	28189.41
555.00	28116.86
555.17	28175.37
555.33	28058.34
555.50	28142.60
555.67	27639.39
555.83	28545.17
556.00	28072.39
556.16	28301.76
556.33	27871.10
556.50	28105.15
556.66	28271.33
556.83	28250.27
556.99	28638.80
557.16	28393.04
557.32	28634.11
557.49	28554.54
557.65	28184.73
557.82	28477.30
557.98	28456.23
558.15	28535.81
558.32	28360.27
558.48	28531.13
558.65	28758.16
558.81	28439.85
558.98	28732.42
559.14	28655.18
559.31	28587.30
559.47	28540.49
559.64	28444.53
559.80	28837.74
559.97	28872.85
560.13	28872.85
560.30	28531.13
560.46	28858.81
560.63	28687.95
560.79	29104.56
560.96	29235.63
561.12	28634.11
561.29	29109.24
561.45	28947.75
561.61	29191.16
561.78	28809.65
561.94	29205.20
562.11	29043.71
562.27	28910.30
562.44	28783.91
562.60	28772.21
562.77	28584.96
562.93	28720.71
563.10	28947.75
563.26	28943.06
563.42	29235.63
563.59	29193.50
563.75	29364.36
563.92	29331.59
564.08	28851.78
564.24	29050.73
564.41	28800.29
564.57	28823.70
564.74	28418.78
564.90	29495.43
565.07	29146.69
565.23	29024.98
565.39	29149.03
565.56	29085.84
565.72	28964.13
565.88	29191.16
566.05	28882.21
566.21	28868.17
566.38	29252.02
566.54	29322.23
566.70	29301.17
566.87	29193.50
567.03	29411.17
567.19	29743.53
567.36	29467.34
567.52	29179.46
567.68	29530.54
567.85	29408.83
568.01	29474.37
568.17	29380.74
568.34	29455.64
568.50	29151.37
568.66	29266.06
568.83	29759.91
568.99	29422.87
569.15	29214.57
569.32	29132.65
569.48	29441.60
569.64	29270.74
569.81	29514.16
569.97	29345.64
570.13	29661.61
570.30	29301.17
570.46	29645.23
570.62	29542.24
570.78	29371.38
570.95	29259.04
571.11	29223.93
571.27	29345.64
571.43	29198.18
571.60	29408.83
571.76	29420.53
571.92	29766.93
572.09	29675.65
572.25	29380.74
572.41	29649.91
572.57	29315.21
572.74	29687.36
572.90	29303.51
573.06	29273.08
573.22	29490.75
573.38	29340.96
573.55	29530.54
573.71	29493.09
573.87	29617.14
574.03	29584.37
574.20	29287.12
574.36	29355.00
574.52	29687.36
574.68	29291.80
574.84	29333.93
575.01	29738.85
575.17	29563.31
575.33	29689.70
575.49	29570.33
575.65	29535.22
575.82	29486.07
575.98	29685.01
576.14	29724.80
576.30	29474.37
576.46	29780.98
576.62	29582.03
576.79	29682.67
576.95	29663.95
577.11	29591.39
577.27	29486.07
577.43	29570.33
577.59	29898.00
577.75	29429.90
577.92	29858.21
578.08	29886.30
578.24	29986.94
578.40	29813.74
578.56	29780.98
578.72	29937.79
578.88	30153.12
579.04	30008.01
579.21	29565.65
579.37	29649.91
579.53	30036.09
579.69	29771.61
579.85	29687.36
580.01	29954.18
580.17	29778.64
580.33	29827.79
580.49	30143.76
580.65	29958.86
580.82	30272.49
580.98	29727.14
581.14	30005.67
581.30	30110.99
581.46	29673.31
581.62	29521.18
581.78	29631.18
581.94	30050.14
582.10	29769.27
582.26	29813.74
582.42	29900.34
582.58	29823.11
582.74	29956.52
582.90	29839.49
583.06	30195.25
583.22	29757.57
583.38	30354.41
583.54	29809.06
583.70	29759.91
583.86	30096.95
584.02	29780.98
584.18	29792.68
584.34	30558.03
584.50	30153.12
584.66	29839.49
584.82	29654.59
584.98	29795.02
585.14	29947.15
585.30	29741.19
585.46	30040.78
585.62	29717.78
585.78	29617.14
585.94	29729.48
586.10	29905.02
586.26	30216.32
586.42	30380.15
586.58	30506.54
586.74	30106.31
586.90	29642.88
587.06	30120.35
587.22	29640.54
587.38	29521.18
587.54	30352.07
587.70	30202.27
587.86	29919.07
588.02	30108.65
588.18	30066.52
588.34	30080.56
588.49	29942.47
588.65	30066.52
588.81	30122.69
588.97	29970.56
589.13	29919.07
589.29	30415.26
589.45	30087.59
589.61	30642.29
589.77	30405.90
589.93	30204.61
590.08	30202.27
590.24	30492.50
590.40	30293.55
590.56	30298.23
590.72	29860.55
590.88	29996.31
591.04	29919.07
591.20	30075.88
591.35	30426.96
591.51	30911.46
591.67	30403.56
591.83	30471.43
591.99	30553.35
592.15	30436.33
592.31	30632.93
592.46	29989.28
592.62	30085.25
592.78	30249.08
592.94	30326.32
593.10	29914.39
593.26	30686.76
593.41	30689.10
593.57	30132.06
593.73	30387.18
593.89	30602.50
594.05	30492.50
594.20	30022.05
594.36	30258.45
594.52	30291.21
594.68	30197.59
594.84	30237.38
594.99	30155.46
595.15	30206.95
595.31	30466.75
595.47	30548.67
595.62	30735.92
595.78	30499.52
595.94	30314.62
596.10	30295.89
596.25	29965.88
596.41	30478.46
596.57	29930.77
596.73	30476.12
596.88	30408.24
597.04	30583.78
597.20	30703.15
597.36	30499.52
597.51	30679.74
597.67	30562.72
597.83	30071.20
597.99	30560.37
598.14	30202.27
598.30	30277.17
598.46	30356.75
598.61	30616.55
598.77	30707.83
598.93	30366.11
599.09	30202.27
599.24	31075.29
599.40	30745.28
599.56	30597.82
599.71	30649.32
599.87	30857.62
600.03	30487.82
600.18	30778.04
600.34	30256.11
600.50	30347.39
600.65	30586.12
600.81	31122.10
600.97	30572.08
601.12	30780.39
601.28	30815.49
601.44	30635.27
601.59	30588.46
601.75	30342.70
601.91	30824.86
602.06	30813.15
602.22	30707.83
602.37	30387.18
602.53	30756.98
602.69	30672.72
602.84	30307.60
603.00	30450.37
603.16	30478.46
603.31	30504.20
603.47	30572.08
603.62	30251.42
603.78	30569.74
603.94	30267.81
604.09	30408.24
604.25	30148.44
604.40	30415.26
604.56	30588.46
604.71	30841.24
604.87	30368.45
605.03	30689.10
605.18	30534.63
605.34	30597.82
605.49	29907.37
605.65	30515.90
605.80	30597.82
605.96	30312.28
606.12	30125.04
606.27	30424.62
606.43	30230.36
606.58	30419.94
606.74	30628.25
606.89	30518.25
607.05	30572.08
607.20	30574.42
607.36	30106.31
607.51	30501.86
607.67	30209.29
607.82	30141.42
607.98	30672.72
608.13	30221.00
608.29	30426.96
608.44	30677.40
608.60	30293.55
608.75	30724.21
608.91	30522.93
609.06	30153.12
609.22	30141.42
609.37	30747.62
609.53	30398.88
609.68	29930.77
609.84	30099.29
609.99	30118.01
610.15	30033.75
610.30	30389.52
610.46	30162.48
610.61	30167.16
610.76	30003.33
610.92	30160.14
611.07	29963.54
611.23	30218.66
611.38	30162.48
611.54	29820.77
611.69	29809.06
611.84	29771.61
612.00	29998.65
612.15	30162.48
612.31	30139.08
612.46	29893.32
612.62	30141.42
612.77	30195.25
612.92	30153.12
613.08	30185.89
613.23	30380.15
613.39	29764.59
613.54	29937.79
613.69	30136.74
613.85	30057.16
614.00	29640.54
614.15	30082.91
614.31	29486.07
614.46	30174.19
614.62	29926.09
614.77	29912.05
614.92	29907.37
615.08	29872.26
615.23	29788.00
615.38	29624.16
615.54	29673.31
615.69	29804.38
615.84	29816.08
616.00	29954.18
616.15	29757.57
616.30	29682.67
616.46	30263.13
616.61	29862.90
616.76	29823.11
616.92	29759.91
617.07	29631.18
617.22	29137.33
617.37	29282.44
617.53	29441.60
617.68	29523.52
617.83	29673.31
617.99	29546.92
618.14	29443.94
618.29	29862.90
618.45	29582.03
618.60	29434.58
618.75	29626.50
618.90	29528.20
619.06	29958.86
619.21	29509.47
619.36	29570.33
619.51	29635.86
619.67	29310.53
619.82	28940.72
619.97	29273.08
620.12	28840.08
620.28	28989.88
620.43	29315.21
620.58	29394.79
620.73	29207.55
620.89	29567.99
621.04	29710.76
621.19	29282.44
621.34	29259.04
621.49	29092.86
621.65	28938.38
621.80	29530.54
621.95	28889.23
622.10	28957.11
622.25	28760.50
622.41	29397.13
622.56	28884.55
622.71	29319.89
622.86	28868.17
623.01	29256.70
623.16	29034.35
623.32	29039.03
623.47	29275.42
623.62	29364.36
623.77	28978.17
623.92	29074.13
624.07	29230.95
624.23	28788.59
624.38	29092.86
624.53	29046.05
624.68	29116.26
624.83	28931.36
624.98	29046.05
625.13	28950.09
625.29	28807.31
625.44	28755.82
625.59	28833.06
625.74	28826.04
625.89	28514.75
626.04	28608.37
626.19	28879.87
626.34	28751.14
626.49	28669.22
626.65	28851.78
626.80	28680.92
626.95	28758.16
627.10	28496.02
627.25	28240.90
627.40	28669.22
627.55	28226.86
627.70	28067.70
627.85	28599.01
628.00	28325.16
628.15	28489.00
628.30	28154.30
628.45	28554.54
628.60	28535.81
628.76	28140.26
628.91	28311.12
629.06	28596.67
629.21	28723.05
629.36	28542.83
629.51	28477.30
629.66	28018.55
629.81	27964.72
629.96	28114.52
630.11	28081.75
630.26	27805.56
630.41	28091.11
630.56	28030.26
630.71	28189.41
630.86	28053.66
631.01	28290.06
631.16	28575.60
631.31	28119.20
631.46	27800.88
631.61	28147.28
631.76	28121.54
631.91	28142.60
632.06	27833.65
632.21	27831.31
632.36	28046.64
632.51	27688.54
632.66	27953.02
632.81	27297.67
632.96	28095.79
633.10	28112.17
633.25	28144.94
633.40	27864.08
633.55	27749.39
633.70	27761.09
633.85	27683.86
634.00	27672.15
634.15	27915.57
634.30	27505.98
634.45	27592.58
634.60	27690.88
634.75	27665.13
634.90	27615.98
635.05	27950.68
635.19	27536.40
635.34	28060.68
635.49	27903.87
635.64	27941.32
635.79	27948.34
635.94	27711.94
636.09	27805.56
636.24	27402.99
636.39	27159.58
636.53	27192.34
636.68	27314.05
636.83	27234.47
636.98	27531.72
637.13	27309.37
637.28	27459.16
637.43	27456.82
637.57	27824.29
637.72	27367.88
637.87	27608.96
638.02	27571.51
638.17	27253.20
638.32	27517.68
638.46	27150.21
638.61	26969.99
638.76	27222.77
638.91	26827.22
639.06	27180.64
639.20	26948.93
639.35	26962.97
639.50	27056.59
639.65	27122.13
639.80	27374.91
639.94	27264.90
640.09	27056.59
640.24	26834.24
640.39	27185.32
640.54	26721.90
640.68	26822.54
640.83	26838.92
640.98	26780.41
641.13	26806.16
641.27	27009.78
641.42	26806.16
641.57	26696.15
641.72	26668.06
641.86	26752.32
642.01	26710.19
642.16	26813.18
642.31	26515.93
642.45	26857.65
642.60	26422.31
642.75	26595.51
642.90	26696.15
643.04	26501.89
643.19	26483.16
643.34	26478.48
643.48	26600.19
643.63	26740.62
643.78	26628.27
643.93	26831.90
644.07	26925.52
644.22	26967.65
644.37	26602.53
644.51	26813.18
644.66	26586.15
644.81	26579.12
644.95	26569.76
645.10	26019.74
645.25	26567.42
645.39	26487.84
645.54	26782.75
645.69	26527.63
645.83	26579.12
645.98	26356.77
646.13	26677.43
646.27	26469.12
646.42	26459.76
646.57	26663.38
646.71	26333.37
646.86	26270.17
647.00	26204.64
647.15	26398.90
647.30	25986.97
647.44	25989.31
647.59	26373.16
647.74	26001.01
647.88	26375.50
648.03	26361.45
648.17	26338.05
648.32	26246.77
648.47	26059.52
648.61	26265.49
648.76	26405.92
648.90	26148.46
649.05	26199.96
649.20	25848.88
649.34	26160.17
649.49	26101.65
649.63	25970.58
649.78	25907.39
649.92	25827.81
650.07	25898.03
650.21	26246.77
650.36	26059.52
650.51	25755.26
650.65	25944.84
650.80	26129.74
650.94	25858.24
651.09	25886.32
651.23	25708.44
651.38	26237.41
651.52	25806.75
651.67	25659.29
651.81	25778.66
651.96	25998.67
652.10	25895.69
652.25	25888.67
652.39	25947.18
652.54	25818.45
652.68	25876.96
652.83	25853.56
652.97	26078.25
653.12	25762.28
653.26	25663.97
653.41	25802.07
653.55	25626.53
653.70	25366.73
653.84	25123.31
653.99	25560.99
654.13	25495.46
654.27	25790.36
654.42	25427.58
654.56	25310.55
654.71	25542.27
654.85	25546.95
655.00	25551.63
655.14	25893.35
655.29	25539.93
655.43	25514.18
655.57	25177.14
655.72	25312.89
655.86	25193.53
656.01	25497.80
656.15	25247.36
656.30	25408.86
656.44	25266.08
656.58	25462.69
656.73	25233.32
656.87	25088.20
657.01	25266.08
657.16	25069.48
657.30	25404.17
657.45	25380.77
657.59	24980.54
657.73	25191.19
657.88	24929.05
658.02	24856.49
658.16	25130.33
658.31	24678.61
658.45	25090.54
658.60	24627.12
658.74	24828.40
658.88	24879.89
659.03	25266.08
659.17	24739.46
659.31	24657.54
659.46	24709.04
659.60	25130.33
659.74	24945.43
659.89	24421.15
660.03	24870.53
660.17	24931.39
660.32	24594.35
660.46	24512.43
660.60	24355.61
660.74	24526.47
660.89	24203.48
661.03	24318.17
661.17	24311.14
661.32	24388.38
661.46	24360.30
661.60	24292.42
661.74	24657.54
661.89	24311.14
662.03	24421.15
662.17	24421.15
662.31	24407.11
662.46	24250.29
662.60	24269.01
662.74	24322.85
662.88	23908.57
663.03	23768.14
663.17	24009.22
663.31	23641.75
663.45	24189.44
663.60	23730.69
663.74	23843.04
663.88	24151.99
664.02	23807.93
664.17	24222.20
664.31	23625.37
664.45	23868.78
664.59	23828.99
664.73	23744.73
664.88	23714.31
665.02	23534.09
665.16	23653.45
665.30	23316.42
665.44	23491.96
665.59	23344.50
665.73	23431.10
665.87	23091.73
666.01	23482.59
666.15	23122.15
666.29	23438.12
666.44	23482.59
666.58	23131.51
666.72	23159.60
666.86	23201.73
667.00	23494.30
667.14	23199.39
667.28	22740.64
667.43	23384.29
667.57	22944.27
667.71	22518.29
667.85	22913.84
667.99	22757.03
668.13	22904.48
668.27	22890.44
668.41	22972.36
668.56	22663.41
668.70	22834.27
668.84	22740.64
668.98	22656.39
669.12	22644.68
669.26	22710.22
669.40	22651.70
669.54	22572.13
669.68	22696.17
669.82	22562.76
669.96	22518.29
670.10	22331.05
670.25	22373.18
670.39	22574.47
670.53	22115.72
670.67	22153.17
670.81	22513.61
670.95	22246.79
671.09	22064.23
671.23	22328.71
671.37	22373.18
671.51	22263.18
671.65	22139.13
671.79	22059.55
671.93	21958.91
672.07	22125.08
672.21	21617.19
672.35	21806.77
672.49	21731.87
672.63	21490.80
672.77	21539.95
672.91	21745.92
673.05	21766.98
673.19	21624.21
673.33	21546.97
673.47	21631.23
673.61	21497.82
673.75	21790.39
673.89	21205.25
674.03	21441.65
674.17	21254.40
674.31	21266.11
674.45	21153.76
674.59	21219.30
674.73	21226.32
674.87	21446.33
675.01	21025.03
675.15	21081.21
675.29	20912.69
675.43	21090.57
675.56	20891.62
675.70	21020.35
675.84	20805.02
675.98	20189.46
676.12	21081.21
676.26	20929.07
676.40	20776.94
676.54	20669.27
676.68	21001.63
676.82	20252.66
676.96	20327.55
677.10	20491.39
677.23	20638.84
677.37	20320.53
677.51	20046.69
677.65	20299.47
677.79	20025.62
677.93	20011.58
678.07	20009.24
678.21	19889.87
678.34	19719.01
678.48	19627.73
678.62	19634.75
678.76	19733.06
678.90	19508.37
679.04	19601.99
679.18	19627.73
679.31	19475.60
679.45	19009.83
679.59	19215.80
679.73	19183.03
679.87	19215.80
680.00	18991.11
680.14	19236.86
680.28	19267.29
680.42	19253.25
680.56	18944.30
680.70	19215.80
680.83	19232.18
680.97	18995.79
681.11	18948.98
681.25	18677.48
681.39	18537.04
681.52	18712.58
681.66	18525.34
681.80	18317.03
681.94	18232.77
682.07	18537.04
682.21	18377.89
682.35	18246.82
682.49	18125.11
682.62	17654.66
682.76	18197.67
682.90	18113.41
683.04	18265.54
683.17	18143.83
683.31	17600.83
683.45	18216.39
683.59	17762.33
683.72	18075.96
683.86	17701.47
684.00	17696.79
684.13	17666.36
684.27	17589.13
684.41	17671.04
684.55	17207.62
684.68	17249.75
684.82	17514.23
684.96	16954.84
685.09	17151.45
685.23	17053.14
685.37	17081.23
685.50	16982.93
685.64	17179.53
685.78	16964.20
685.91	16877.60
686.05	16767.60
686.19	17020.38
686.32	16943.14
686.46	16620.14
686.60	16652.91
686.73	16716.11
686.87	16245.66
687.01	16348.64
687.14	16587.38
687.28	16404.81
687.42	16049.05
687.55	16233.96
687.69	16154.38
687.82	16215.23
687.96	16074.80
688.10	16049.05
688.23	16177.78
688.37	15758.83
688.50	15955.43
688.64	15822.02
688.78	15950.75
688.91	15681.59
689.05	15880.53
689.18	15475.62
689.32	15229.87
689.46	15515.41
689.59	15213.48
689.73	15442.85
689.86	15330.51
690.00	15136.24
690.13	15246.25
690.27	15042.62
690.41	15180.71
690.54	15152.63
690.68	14986.45
690.81	15016.88
690.95	15051.99
691.08	15103.48
691.22	15084.75
691.35	15007.52
691.49	14993.47
691.62	15007.52
691.76	14700.90
691.89	14682.18
692.03	14597.92
692.16	14293.65
692.30	14148.54
692.43	14548.77
692.57	14258.54
692.70	14263.22
692.84	14225.78
692.97	13937.89
693.11	14097.05
693.24	13989.38
693.38	13916.83
693.51	13795.12
693.65	14019.81
693.78	13839.59
693.92	13820.86
694.05	13544.68
694.19	13755.33
694.32	13593.83
694.45	13671.07
694.59	13348.08
694.72	13469.78
694.86	13376.16
694.99	13130.41
695.13	13408.93
695.26	13163.17
695.39	12851.88
695.53	13149.13
695.66	12996.99
695.80	12999.34
695.93	13245.09
696.07	13057.85
696.20	13015.72
696.33	13006.36
696.47	12865.92
696.60	12725.49
696.73	12952.52
696.87	12624.85
697.00	12519.53
697.14	12458.67
697.27	12400.16
697.40	12477.40
697.54	12320.58
697.67	12198.87
697.80	12453.99
697.94	12152.06
698.07	11978.86
698.21	11957.80
698.34	11955.46
698.47	12074.82
698.61	11903.96
698.74	12030.35
698.87	12135.68
699.01	11733.11
699.14	12044.40
699.27	11866.52
699.40	11698.00
699.54	11611.40
699.67	11438.20
699.80	11702.68
699.94	11489.69
700.07	11592.67
700.20	11229.89
700.34	11269.68
700.47	11192.44
700.60	11358.62
700.73	11318.83
700.87	11253.30
701.00	11300.11
701.13	11152.65
701.26	11176.06
701.40	11126.91
701.53	11145.63
701.66	10944.34
701.79	10881.15
701.93	10827.32
702.06	10654.12
702.19	10462.19
702.32	10672.84
702.46	10497.30
702.59	10607.31
702.72	10391.98
702.85	10464.54
702.99	10384.96
703.12	10228.14
703.25	10111.11
703.38	10256.23
703.51	10256.23
703.65	10457.51
703.78	10178.99
703.91	10127.50
704.04	10317.08
704.17	10232.82
704.31	9867.70
704.44	9820.89
704.57	9706.20
704.70	9827.91
704.83	9549.39
704.96	9724.93
705.10	9514.28
705.23	9687.48
>>>>>End Processed Spectral Data<<<<<
