SpectraSuite Data File
++++++++++++++++++++++++++++++++++++
Date: Fri Oct 18 13:58:28 GMT-05:00 2013
User: bianchi
Dark Spectrum Present: No
Reference Spectrum Present: No
Number of Sampled Component Spectra: 1
Spectrometers: USB2+H05261
Integration Time (usec): 50000 (USB2+H05261)
Spectra Averaged: 1 (USB2+H05261)
Boxcar Smoothing: 0 (USB2+H05261)
Correct for Electrical Dark: No (USB2+H05261)
Strobe/Lamp Enabled: No (USB2+H05261)
Correct for Detector Non-linearity: No (USB2+H05261)
Correct for Stray Light: No (USB2+H05261)
Number of Pixels in Processed Spectrum: 2048
>>>>>Begin Processed Spectral Data<<<<<
365.73	0.00
365.92	0.00
366.12	0.00
366.32	0.00
366.52	0.00
366.72	0.00
366.91	0.00
367.11	0.00
367.31	0.00
367.51	0.00
367.70	0.00
367.90	0.00
368.10	0.00
368.30	0.00
368.49	0.00
368.69	0.00
368.89	0.00
369.09	0.00
369.28	0.00
369.48	0.00
369.68	0.00
369.87	0.00
370.07	0.00
370.27	0.00
370.47	0.00
370.66	112.35
370.86	67.88
371.06	154.48
371.25	112.35
371.45	107.66
371.65	236.39
371.84	107.66
372.04	131.07
372.24	166.18
372.44	126.39
372.63	131.07
372.83	138.09
373.03	217.67
373.22	140.43
373.42	210.65
373.62	229.37
373.81	187.24
374.01	203.63
374.21	257.46
374.40	262.14
374.60	287.89
374.79	224.69
374.99	198.95
375.19	236.39
375.38	264.48
375.58	236.39
375.78	276.18
375.97	341.72
376.17	367.46
376.37	198.95
376.56	182.56
376.76	180.22
376.95	250.44
377.15	257.46
377.35	205.97
377.54	360.44
377.74	332.36
377.93	238.73
378.13	266.82
378.33	205.97
378.52	334.70
378.72	306.61
378.91	203.63
379.11	250.44
379.31	259.80
379.50	224.69
379.70	304.27
379.89	367.46
380.09	271.50
380.28	306.61
380.48	348.74
380.68	297.25
380.87	290.23
381.07	332.36
381.26	353.42
381.46	322.99
381.65	313.63
381.85	315.97
382.04	322.99
382.24	379.17
382.43	374.49
382.63	315.97
382.83	337.04
383.02	435.34
383.22	390.87
383.41	332.36
383.61	397.89
383.80	381.51
384.00	369.80
384.19	337.04
384.39	390.87
384.58	304.27
384.78	407.25
384.97	341.72
385.17	294.91
385.36	365.12
385.56	407.25
385.75	395.55
385.95	315.97
386.14	421.30
386.34	390.87
386.53	421.30
386.72	351.08
386.92	428.32
387.11	390.87
387.31	402.57
387.50	390.87
387.70	447.04
387.89	397.89
388.09	374.49
388.28	423.64
388.48	435.34
388.67	447.04
388.86	528.96
389.06	517.26
389.25	411.93
389.45	498.53
389.64	442.36
389.84	430.66
390.03	482.15
390.22	526.62
390.42	521.94
390.61	510.24
390.81	442.36
391.00	449.38
391.19	470.45
391.39	557.05
391.58	538.32
391.78	571.09
391.97	500.87
392.16	517.26
392.36	601.52
392.55	575.77
392.75	554.71
392.94	557.05
393.13	526.62
393.33	505.56
393.52	589.82
393.71	585.13
393.91	575.77
394.10	575.77
394.29	573.43
394.49	608.54
394.68	547.69
394.88	498.53
395.07	608.54
395.26	552.37
395.46	557.05
395.65	627.26
395.84	585.13
396.04	690.46
396.23	636.63
396.42	624.92
396.62	601.52
396.81	634.29
397.00	634.29
397.19	667.05
397.39	688.12
397.58	648.33
397.77	697.48
397.97	631.94
398.16	737.27
398.35	681.10
398.55	620.24
398.74	786.42
398.93	713.86
399.12	748.97
399.32	692.80
399.51	718.54
399.70	805.14
399.90	702.16
400.09	702.16
400.28	795.78
400.47	770.04
400.67	835.57
400.86	753.65
401.05	830.89
401.24	849.61
401.44	791.10
401.63	837.91
401.82	812.17
402.01	816.85
402.21	791.10
402.40	863.66
402.59	781.74
402.78	837.91
402.97	884.72
403.17	816.85
403.36	835.57
403.55	884.72
403.74	889.40
403.93	903.45
404.13	898.77
404.32	882.38
404.51	971.32
404.70	940.90
404.89	945.58
405.09	940.90
405.28	896.43
405.47	997.07
405.66	994.73
405.85	922.17
406.05	1011.11
406.24	889.40
406.43	994.73
406.62	966.64
406.81	1034.52
407.00	992.39
407.20	1006.43
407.39	1057.92
407.58	1060.26
407.77	1043.88
407.96	1109.41
408.15	1069.62
408.34	1062.60
408.54	1071.97
408.73	1090.69
408.92	1088.35
409.11	1221.76
409.30	1132.82
409.49	1149.20
409.68	1188.99
409.87	1078.99
410.07	1043.88
410.26	1071.97
410.45	1240.48
410.64	1245.16
410.83	1184.31
411.02	1327.08
411.21	1252.19
411.40	1240.48
411.59	1273.25
411.78	1266.23
411.98	1221.76
412.17	1317.72
412.36	1203.04
412.55	1320.06
412.74	1376.24
412.93	1385.60
413.12	1329.42
413.31	1397.30
413.50	1432.41
413.69	1418.36
413.88	1476.88
414.07	1446.45
414.26	1448.79
414.45	1432.41
414.64	1511.99
414.83	1519.01
415.02	1502.62
415.22	1507.30
415.41	1514.33
415.60	1533.05
415.79	1575.18
415.98	1476.88
416.17	1607.95
416.36	1547.09
416.55	1631.35
416.74	1682.85
416.93	1701.57
417.12	1659.44
417.31	1612.63
417.50	1678.16
417.69	1671.14
417.88	1792.85
418.07	1685.19
418.26	1722.63
418.45	1774.13
418.64	1827.96
418.83	1856.04
419.02	1797.53
419.21	1879.45
419.39	1802.21
419.58	1788.17
419.77	1870.09
419.96	1872.43
420.15	1961.37
420.34	1767.10
420.53	1853.70
420.72	1905.20
420.91	1996.48
421.10	2040.95
421.29	1839.66
421.48	1947.33
421.67	1926.26
421.86	1884.13
422.05	1909.88
422.24	1935.62
422.43	1867.75
422.61	1891.15
422.80	1977.75
422.99	1963.71
423.18	2008.18
423.37	2043.29
423.56	2036.27
423.75	2005.84
423.94	1961.37
424.13	1900.52
424.32	1942.64
424.50	2003.50
424.69	2057.33
424.88	2195.42
425.07	2022.22
425.26	1989.46
425.45	2094.78
425.64	1975.41
425.83	2146.27
426.01	2050.31
426.20	2099.46
426.39	2050.31
426.58	2017.54
426.77	2066.69
426.96	2083.08
427.15	2087.76
427.33	2062.01
427.52	2181.38
427.71	2169.68
427.90	2148.61
428.09	2225.85
428.28	2211.81
428.46	2197.76
428.65	2134.57
428.84	2286.70
429.03	2260.96
429.22	2118.18
429.40	2232.87
429.59	2333.51
429.78	2284.36
429.97	2237.55
430.16	2129.89
430.34	2181.38
430.53	2235.21
430.72	2296.07
430.91	2249.25
431.10	2314.79
431.28	2434.16
431.47	2380.32
431.66	2410.75
431.85	2363.94
432.03	2396.71
432.22	2492.67
432.41	2495.01
432.60	2368.62
432.79	2410.75
432.97	2429.48
433.16	2366.28
433.35	2509.05
433.54	2476.29
433.72	2590.97
433.91	2619.06
434.10	2499.69
434.28	2490.33
434.47	2370.96
434.66	2572.25
434.85	2459.90
435.03	2633.10
435.22	2621.40
435.41	2609.70
435.59	2665.87
435.78	2658.85
435.97	2712.68
436.16	2621.40
436.34	2764.17
436.53	2696.30
436.72	2796.94
436.90	2579.27
437.09	2602.68
437.28	2621.40
437.46	2668.21
437.65	2754.81
437.84	2773.53
438.02	2782.90
438.21	2827.37
438.40	2623.74
438.58	2981.84
438.77	2888.22
438.96	2892.90
439.14	2841.41
439.33	3014.61
439.52	2930.35
439.70	2928.01
439.89	3028.65
440.08	3035.67
440.26	2895.24
440.45	3091.85
440.63	3026.31
440.82	3143.34
441.01	3087.17
441.19	3096.53
441.38	3126.96
441.57	3138.66
441.75	3241.64
441.94	3297.81
442.12	3265.05
442.31	3314.20
442.50	3300.16
442.68	3232.28
442.87	3398.46
443.05	3330.58
443.24	3447.61
443.43	3384.41
443.61	3368.03
443.80	3438.25
443.98	3316.54
444.17	3180.79
444.35	3508.46
444.54	3471.01
444.73	3353.99
444.91	3414.84
445.10	3538.89
445.28	3351.65
445.47	3358.67
445.65	3417.18
445.84	3466.33
446.02	3508.46
446.21	3372.71
446.39	3314.20
446.58	3506.12
446.77	3414.84
446.95	3492.08
447.14	3419.52
447.32	3557.61
447.51	3365.69
447.69	3522.51
447.88	3566.98
448.06	3449.95
448.25	3480.38
448.43	3562.30
448.62	3499.10
448.80	3552.93
448.99	3562.30
449.17	3515.48
449.36	3651.24
449.54	3613.79
449.73	3695.71
449.91	3613.79
450.10	3679.32
450.28	3808.05
450.46	3765.92
450.65	3662.94
450.83	3861.88
451.02	3754.22
451.20	3815.07
451.39	3796.35
451.57	3705.07
451.76	3709.75
451.94	3850.18
452.13	3908.69
452.31	3801.03
452.49	3779.97
452.68	3798.69
452.86	3833.80
453.05	3913.38
453.23	3960.19
453.42	3908.69
453.60	3714.43
453.78	4002.32
453.97	3840.82
454.15	4049.13
454.34	3845.50
454.52	4086.58
454.70	3920.40
454.89	3988.27
455.07	3866.56
455.26	4138.07
455.44	4140.41
455.62	4114.66
455.81	4102.96
455.99	4051.47
456.17	4170.83
456.36	4182.54
456.54	4189.56
456.73	4084.23
456.91	4294.88
457.09	4255.09
457.28	4278.50
457.46	4248.07
457.64	4367.44
457.83	4332.33
458.01	4337.01
458.19	4271.48
458.38	4266.80
458.56	4514.89
458.74	4533.62
458.93	4395.53
459.11	4376.80
459.29	4404.89
459.48	4409.57
459.66	4542.98
459.84	4524.26
460.03	4559.36
460.21	4365.10
460.39	4451.70
460.57	4421.27
460.76	4564.04
460.94	4585.11
461.12	4711.50
461.31	4587.45
461.49	4629.58
461.67	4512.55
461.85	4805.12
462.04	4496.17
462.22	4793.42
462.40	4770.01
462.59	4615.54
462.77	4755.97
462.95	4620.22
463.13	4880.02
463.32	4650.64
463.50	4702.14
463.68	4812.14
463.86	4793.42
464.05	4828.53
464.23	4711.50
464.41	4924.49
464.59	4734.90
464.78	4762.99
464.96	4971.30
465.14	4809.80
465.32	5109.39
465.50	4910.44
465.69	4849.59
465.87	5083.64
466.05	4945.55
466.23	5074.28
466.41	5107.05
466.60	4964.28
466.78	4971.30
466.96	5083.64
467.14	5001.72
467.32	5142.16
467.51	5020.45
467.69	4896.40
467.87	5212.37
468.05	5252.16
468.23	4985.34
468.41	5088.32
468.60	5191.31
468.78	5301.31
468.96	5186.63
469.14	5298.97
469.32	5287.27
469.50	5228.76
469.69	5406.64
469.87	5322.38
470.05	5408.98
470.23	5448.77
470.41	5399.62
470.59	5397.28
470.77	5460.47
470.95	5479.19
471.14	5582.18
471.32	5469.83
471.50	5645.37
471.68	5624.31
471.86	5572.82
472.04	5813.89
472.22	5664.10
472.40	5558.77
472.58	5533.03
472.77	5781.12
472.95	5680.48
473.13	5996.45
473.31	5832.62
473.49	5783.46
473.67	5977.73
473.85	5797.51
474.03	6005.81
474.21	6038.58
474.39	6157.95
474.57	6069.01
474.75	6232.85
474.93	6125.18
475.12	6221.14
475.30	6174.33
475.48	6122.84
475.66	6232.85
475.84	6256.25
476.02	6300.72
476.20	6272.64
476.38	6506.69
476.56	6459.88
476.74	6593.29
476.92	6651.80
477.10	6560.52
477.28	6548.82
477.46	6635.42
477.64	6604.99
477.82	6817.98
478.00	6822.66
478.18	6855.43
478.36	6953.73
478.54	7059.06
478.72	7056.72
478.90	6998.20
479.08	7192.47
479.26	7332.90
479.44	7393.75
479.62	7454.61
479.80	7419.50
479.98	7440.56
480.16	7487.37
480.34	7501.42
480.52	7447.58
480.70	7548.23
480.88	7644.19
481.06	7517.80
481.24	7581.00
481.41	7646.53
481.59	8023.36
481.77	8058.46
481.95	7969.52
482.13	8065.49
482.31	8074.85
482.49	8299.54
482.67	8222.30
482.85	8374.44
483.03	8606.15
483.21	8428.27
483.39	8505.51
483.57	8535.93
483.74	8617.85
483.92	8603.81
484.10	8692.75
484.28	9006.38
484.46	9057.87
484.64	9163.20
484.82	8903.40
485.00	9022.77
485.18	9233.41
485.35	9380.87
485.53	9275.54
485.71	9348.10
485.89	9549.39
486.07	9420.66
486.25	9490.87
486.43	9575.13
486.61	9570.45
486.78	9795.14
486.96	9755.35
487.14	10078.35
487.32	10115.80
487.50	10136.86
487.68	10242.18
487.85	10347.51
488.03	10562.84
488.21	10611.99
488.39	10530.07
488.57	10609.65
488.75	10661.14
488.92	10633.05
489.10	10719.65
489.28	10778.17
489.46	10934.98
489.64	11232.23
489.81	11243.93
489.99	11323.51
490.17	11325.85
490.35	11267.34
490.53	11587.99
490.70	11587.99
490.88	11599.70
491.06	11723.74
491.24	11744.81
491.41	11985.88
491.59	11845.45
491.77	12102.91
491.95	12131.00
492.13	12299.52
492.30	12123.98
492.48	12016.31
492.66	12198.87
492.84	12269.09
493.01	12531.23
493.19	12489.10
493.37	12587.40
493.54	12716.13
493.72	12720.81
493.90	12723.15
494.08	12772.30
494.25	13001.68
494.43	13188.92
494.61	13282.54
494.79	13282.54
494.96	13240.41
495.14	13418.29
495.32	13226.37
495.49	13458.08
495.67	13701.50
495.85	13940.23
496.02	13706.18
496.20	13816.18
496.38	13898.10
496.55	13741.29
496.73	14022.15
496.91	14157.90
497.09	14207.05
497.26	14153.22
497.44	14104.07
497.62	14246.84
497.79	14401.32
497.97	14761.76
498.14	14736.01
498.32	14537.07
498.50	14897.51
498.67	15220.50
498.85	14977.09
499.03	14876.44
499.20	14988.79
499.38	15082.41
499.56	15119.86
499.73	15316.47
499.91	15377.32
500.08	15442.85
500.26	15136.24
500.44	15309.44
500.61	15309.44
500.79	15325.83
500.97	15407.75
501.14	15843.09
501.32	15791.59
501.49	15955.43
501.67	15679.25
501.84	16130.97
502.02	15953.09
502.20	15845.43
502.37	16161.40
502.55	16114.59
502.72	15878.19
502.90	16027.99
503.07	16025.65
503.25	16163.74
503.43	16255.02
503.60	16507.80
503.78	16365.03
503.95	16407.16
504.13	16425.88
504.30	16442.26
504.48	16367.37
504.65	16826.11
504.83	16783.98
505.01	17022.72
505.18	17039.10
505.36	16943.14
505.53	16643.55
505.71	16980.59
505.88	17146.76
506.06	16746.53
506.23	17125.70
506.41	17076.55
506.58	17495.50
506.76	17256.77
506.93	17544.66
507.11	17418.27
507.28	17572.74
507.46	17326.99
507.63	17652.32
507.81	18015.10
507.98	17954.25
508.16	17764.67
508.33	17841.90
508.50	17750.62
508.68	17811.48
508.85	18071.28
509.03	17984.68
509.20	18207.03
509.38	18157.88
509.55	18394.27
509.73	18541.72
509.90	18300.65
510.08	18251.50
510.25	18321.71
510.42	18663.43
510.60	18558.11
510.77	18518.32
510.95	18562.79
511.12	18569.81
511.30	18726.63
511.47	18649.39
511.64	19037.92
511.82	19075.37
511.99	19115.16
512.17	19084.73
512.34	19080.05
512.51	18944.30
512.69	19342.19
512.86	19262.61
513.04	19176.01
513.21	19517.73
513.38	19463.90
513.56	19199.41
513.73	19232.18
513.90	19353.89
514.08	19253.25
514.25	19407.72
514.43	19377.30
514.60	19674.54
514.77	19641.78
514.95	19861.79
515.12	19571.56
515.29	19742.42
515.47	19772.85
515.64	19838.38
515.81	19859.45
515.99	19901.58
516.16	20009.24
516.33	20194.14
516.51	20631.82
516.68	20147.33
516.85	20067.75
517.03	20065.41
517.20	20414.15
517.37	20460.96
517.54	20720.76
517.72	20465.64
517.89	20376.70
518.06	20641.18
518.24	20659.91
518.41	20673.95
518.58	20577.99
518.75	20910.35
518.93	21003.97
519.10	20655.23
519.27	20788.64
519.45	20783.96
519.62	20723.10
519.79	21050.78
519.96	20896.30
520.14	20947.79
520.31	21132.70
520.48	20964.18
520.65	21247.38
520.83	21149.08
521.00	21352.71
521.17	21394.84
521.34	21525.91
521.52	21120.99
521.69	21333.98
521.86	21720.17
522.03	21799.75
522.20	21687.40
522.38	21879.33
522.55	21858.26
522.72	21895.71
522.89	21781.03
523.07	22118.06
523.24	21944.86
523.41	22017.42
523.58	21764.64
523.75	22232.75
523.92	22040.82
524.10	22120.40
524.27	22197.64
524.44	22298.28
524.61	22602.55
524.78	22504.25
524.96	22305.31
525.13	22459.78
525.30	22382.54
525.47	22361.48
525.64	22431.69
525.81	22532.34
525.98	22642.34
526.16	22651.70
526.33	22637.66
526.50	23096.41
526.67	22494.89
526.84	22757.03
527.01	22824.90
527.18	22728.94
527.36	22932.57
527.53	22965.34
527.70	23206.41
527.87	23065.98
528.04	22944.27
528.21	23250.88
528.38	23297.69
528.55	23206.41
528.72	23194.71
528.89	23175.98
529.07	23285.99
529.24	23239.18
529.41	23515.36
529.58	23047.26
529.75	23351.52
529.92	23274.29
530.09	23321.10
530.26	23419.40
530.43	23543.45
530.60	23475.57
530.77	23573.88
530.94	23592.60
531.11	23651.11
531.28	23391.31
531.46	23644.09
531.63	24013.90
531.80	23627.71
531.97	23548.13
532.14	23939.00
532.31	23861.76
532.48	23882.83
532.65	24114.54
532.82	23915.59
532.99	24191.78
533.16	24259.65
533.33	24196.46
533.50	24205.82
533.67	24507.75
533.84	24212.84
534.01	23896.87
534.18	24535.84
534.35	24306.46
534.52	24407.11
534.69	24837.76
534.86	24709.04
535.03	24559.24
535.20	24322.85
535.37	24512.43
535.54	24439.87
535.71	24755.85
535.88	24858.83
536.05	24645.84
536.22	25083.52
536.38	24826.06
536.55	24711.38
536.72	24760.53
536.89	24767.55
537.06	24566.26
537.23	24924.36
537.40	24774.57
537.57	24472.64
537.74	24823.72
537.91	25071.82
538.08	25315.23
538.25	24975.86
538.42	25331.62
538.59	25256.72
538.75	25153.74
538.92	25046.07
539.09	25137.35
539.26	25336.30
539.43	25542.27
539.60	25537.59
539.77	25282.47
539.94	25696.74
540.11	25631.21
540.28	25399.49
540.44	25092.88
540.61	25319.92
540.78	25610.14
540.95	25621.84
541.12	25296.51
541.29	25717.81
541.46	25764.62
541.62	25778.66
541.79	25483.75
541.96	25507.16
542.13	25715.47
542.30	25820.79
542.47	26066.55
542.63	25537.59
542.80	26167.19
542.97	26384.86
543.14	25879.30
543.31	26103.99
543.48	25937.82
543.64	26331.03
543.81	26309.96
543.98	26401.24
544.15	26445.71
544.32	26693.81
544.48	26749.98
544.65	26501.89
544.82	26497.20
544.99	26214.00
545.16	26363.79
545.32	26113.36
545.49	26883.39
545.66	26635.30
545.83	26501.89
546.00	26719.56
546.16	26389.54
546.33	26583.80
546.50	26326.35
546.67	26434.01
546.83	26632.96
547.00	26396.56
547.17	26979.36
547.34	26820.20
547.50	26979.36
547.67	27058.93
547.84	26663.38
548.00	27044.89
548.17	27164.26
548.34	26986.38
548.51	27241.50
548.67	27445.12
548.84	27400.65
549.01	26885.73
549.18	27316.39
549.34	27168.94
549.51	27117.45
549.68	26920.84
549.84	27136.17
550.01	27005.10
550.18	27072.98
550.34	27236.81
550.51	27480.23
550.68	27669.81
550.84	27129.15
551.01	27505.98
551.18	27543.42
551.34	27056.59
551.51	27218.09
551.68	27524.70
551.84	27634.71
552.01	27669.81
552.18	27559.81
552.34	27543.42
552.51	27704.92
552.68	27314.05
552.84	27543.42
553.01	27431.08
553.18	27697.90
553.34	27800.88
553.51	27592.58
553.67	27967.06
553.84	28006.85
554.01	27934.29
554.17	27889.82
554.34	27765.78
554.51	27857.06
554.67	27548.11
554.84	27580.87
555.00	28196.43
555.17	27840.67
555.33	27936.63
555.50	27978.76
555.67	27866.42
555.83	27648.75
556.00	28308.78
556.16	28191.75
556.33	28203.46
556.50	28439.85
556.66	28360.27
556.83	28215.16
556.99	28439.85
557.16	28451.55
557.32	28294.74
557.49	28552.20
557.65	28086.43
557.82	28238.56
557.98	28287.71
558.15	28460.91
558.32	28620.07
558.48	28404.74
558.65	28107.49
558.81	28484.32
558.98	28379.00
559.14	28465.60
559.31	28283.03
559.47	28676.24
559.64	28498.36
559.80	28676.24
559.97	28638.80
560.13	28591.98
560.30	28407.08
560.46	28837.74
560.63	28826.04
560.79	28755.82
560.96	28833.06
561.12	28767.52
561.29	28797.95
561.45	28748.80
561.61	28584.96
561.78	28444.53
561.94	29214.57
562.11	29092.86
562.27	29050.73
562.44	28360.27
562.60	28732.42
562.77	28734.76
562.93	28587.30
563.10	28542.83
563.26	28559.22
563.42	29254.36
563.59	28961.79
563.75	28975.83
563.92	28833.06
564.08	28835.40
564.24	28811.99
564.41	28596.67
564.57	28673.90
564.74	28945.41
564.90	28697.31
565.07	28905.62
565.23	29029.66
565.39	29146.69
565.56	29130.31
565.72	28900.94
565.88	28971.15
566.05	28627.09
566.21	28844.76
566.38	28849.44
566.54	29362.02
566.70	29570.33
566.87	29338.62
567.03	29319.89
567.19	29167.76
567.36	29324.57
567.52	28835.40
567.68	29060.09
567.85	28650.50
568.01	29357.34
568.17	29027.32
568.34	29256.70
568.50	29394.79
568.66	28819.02
568.83	29476.71
568.99	29053.07
569.15	29570.33
569.32	29390.11
569.48	28968.81
569.64	29457.98
569.81	29364.36
569.97	29254.36
570.13	29223.93
570.30	29022.64
570.46	29069.45
570.62	29322.23
570.78	29759.91
570.95	28879.87
571.11	29221.59
571.27	29104.56
571.43	29017.96
571.60	29209.89
571.76	28968.81
571.92	29525.86
572.09	29366.70
572.25	29546.92
572.41	29472.03
572.57	29064.77
572.74	29586.71
572.90	29205.20
573.06	29256.70
573.22	29551.60
573.38	29418.19
573.55	29287.12
573.71	29757.57
573.87	29563.31
574.03	29111.58
574.20	29369.04
574.36	29617.14
574.52	29567.99
574.68	29294.14
574.84	29125.63
575.01	29532.88
575.17	29497.77
575.33	29703.74
575.49	29727.14
575.65	29378.40
575.82	29921.41
575.98	29355.00
576.14	29617.14
576.30	29493.09
576.46	29338.62
576.62	29352.66
576.79	29390.11
576.95	29397.13
577.11	29729.48
577.27	29663.95
577.43	29841.83
577.59	29795.02
577.75	29685.01
577.92	29603.10
578.08	29296.49
578.24	29668.63
578.40	29757.57
578.56	29755.23
578.72	29385.43
578.88	29926.09
579.04	30160.14
579.21	29504.79
579.37	29699.06
579.53	29666.29
579.69	29383.09
579.85	29811.40
580.01	29867.58
580.17	29652.25
580.33	29326.91
580.49	29558.63
580.65	29378.40
580.82	29919.07
580.98	29596.07
581.14	29785.66
581.30	29776.30
581.46	29308.19
581.62	29598.41
581.78	29149.03
581.94	29502.45
582.10	29619.48
582.26	29720.12
582.42	29729.48
582.58	29762.25
582.74	29750.55
582.90	29500.11
583.06	29893.32
583.22	29504.79
583.38	29443.94
583.54	29378.40
583.70	29560.97
583.86	29729.48
584.02	29500.11
584.18	30223.34
584.34	29661.61
584.50	29977.58
584.66	29790.34
584.82	29394.79
584.98	29694.38
585.14	29631.18
585.30	29420.53
585.46	29598.41
585.62	29621.82
585.78	29991.62
585.94	29706.08
586.10	29504.79
586.26	30164.82
586.42	30272.49
586.58	29638.20
586.74	29745.87
586.90	29909.71
587.06	29516.50
587.22	29860.55
587.38	29823.11
587.54	29593.73
587.70	30192.91
587.86	29848.85
588.02	29867.58
588.18	29872.26
588.34	29813.74
588.49	29708.42
588.65	29895.66
588.81	29895.66
588.97	30071.20
589.13	29982.26
589.29	29565.65
589.45	30253.76
589.61	30246.74
589.77	30015.03
589.93	29741.19
590.08	30202.27
590.24	29998.65
590.40	29914.39
590.56	30185.89
590.72	30263.13
590.88	29626.50
591.04	30167.16
591.20	29956.52
591.35	29996.31
591.51	30490.16
591.67	30129.72
591.83	30167.16
591.99	30408.24
592.15	30279.51
592.31	29818.42
592.46	30047.80
592.62	29652.25
592.78	29919.07
592.94	29862.90
593.10	30103.97
593.26	29839.49
593.41	30022.05
593.57	30387.18
593.73	30071.20
593.89	30462.07
594.05	30094.61
594.20	30588.46
594.36	30319.30
594.52	30160.14
594.68	30581.44
594.84	30024.39
594.99	30438.67
595.15	30487.82
595.31	30487.82
595.47	30054.82
595.62	30305.26
595.78	30029.07
595.94	30101.63
596.10	30012.69
596.25	30008.01
596.41	30345.05
596.57	30103.97
596.73	29926.09
596.88	29937.79
597.04	30593.14
597.20	30153.12
597.36	30487.82
597.51	30473.78
597.67	29813.74
597.83	30052.48
597.99	30518.25
598.14	30316.96
598.30	30433.99
598.46	30209.29
598.61	30263.13
598.77	29825.45
598.93	30499.52
599.09	30394.20
599.24	30600.16
599.40	30338.02
599.56	30431.65
599.71	30174.19
599.87	30541.65
600.03	29883.96
600.18	30108.65
600.34	30087.59
600.50	30270.15
600.65	30445.69
600.81	30375.47
600.97	30361.43
601.12	30522.93
601.28	30356.75
601.44	30195.25
601.59	30239.72
601.75	30354.41
601.91	30253.76
602.06	30459.73
602.22	30422.28
602.37	30354.41
602.53	30373.13
602.69	30370.79
602.84	30246.74
603.00	30396.54
603.16	30684.42
603.31	30466.75
603.47	30188.23
603.62	30513.56
603.78	30197.59
603.94	30389.52
604.09	30141.42
604.25	30223.34
604.40	30270.15
604.56	30094.61
604.71	30583.78
604.87	30263.13
605.03	30429.30
605.18	30602.50
605.34	30309.94
605.49	30176.53
605.65	30010.35
605.80	30082.91
605.96	30672.72
606.12	30333.34
606.27	30352.07
606.43	29954.18
606.58	30677.40
606.74	30185.89
606.89	30352.07
607.05	30272.49
607.20	30354.41
607.36	30167.16
607.51	30155.46
607.67	29867.58
607.82	30405.90
607.98	30433.99
608.13	30441.01
608.29	29972.90
608.44	30246.74
608.60	30139.08
608.75	30253.76
608.91	30204.61
609.06	30134.40
609.22	30651.66
609.37	29720.12
609.53	30019.71
609.68	29809.06
609.84	29921.41
609.99	30085.25
610.15	29998.65
610.30	29858.21
610.46	29741.19
610.61	30118.01
610.76	30232.70
610.92	29975.24
611.07	30326.32
611.23	29830.13
611.38	29802.04
611.54	29528.20
611.69	29542.24
611.84	29802.04
612.00	29528.20
612.15	29638.20
612.31	29766.93
612.46	29593.73
612.62	29738.85
612.77	29771.61
612.92	30047.80
613.08	29802.04
613.23	29750.55
613.39	29628.84
613.54	29598.41
613.69	30108.65
613.85	29804.38
614.00	29802.04
614.15	30129.72
614.31	29666.29
614.46	29544.58
614.62	29923.75
614.77	29675.65
614.92	29710.76
615.08	29577.35
615.23	29631.18
615.38	30005.67
615.54	29570.33
615.69	29624.16
615.84	29420.53
616.00	29675.65
616.15	29240.31
616.30	29638.20
616.46	29179.46
616.61	29174.78
616.76	29593.73
616.92	29598.41
617.07	29621.82
617.22	29589.05
617.37	29467.34
617.53	29198.18
617.68	29408.83
617.83	29502.45
617.99	29034.35
618.14	29422.87
618.29	29486.07
618.45	29577.35
618.60	29287.12
618.75	29223.93
618.90	29001.58
619.06	29254.36
619.21	29694.38
619.36	29689.70
619.51	29249.67
619.67	28786.25
619.82	29301.17
619.97	29149.03
620.12	28980.51
620.28	28774.55
620.43	29116.26
620.58	29376.06
620.73	29387.77
620.89	29631.18
621.04	29259.04
621.19	29507.13
621.34	28999.24
621.49	28751.14
621.65	29069.45
621.80	29366.70
621.95	28917.32
622.10	28973.49
622.25	28987.53
622.41	28634.11
622.56	28828.38
622.71	29017.96
622.86	28987.53
623.01	28919.66
623.16	28943.06
623.32	28690.29
623.47	28929.02
623.62	28690.29
623.77	28809.65
623.92	28624.75
624.07	28608.37
624.23	28947.75
624.38	29053.07
624.53	28938.38
624.68	28872.85
624.83	28556.88
624.98	28692.63
625.13	28496.02
625.29	28636.45
625.44	28730.08
625.59	28709.01
625.74	28201.11
625.89	28697.31
626.04	28409.42
626.19	28556.88
626.34	28371.97
626.49	28243.24
626.65	28512.41
626.80	28226.86
626.95	28348.57
627.10	28540.49
627.25	28276.01
627.40	28276.01
627.55	28123.88
627.70	28041.96
627.85	28304.10
628.00	27943.66
628.15	27903.87
628.30	27948.34
628.45	27971.74
628.60	28006.85
628.76	28114.52
628.91	28107.49
629.06	27915.57
629.21	28112.17
629.36	27852.38
629.51	28119.20
629.66	28168.35
629.81	27681.52
629.96	27730.67
630.11	27917.91
630.26	28041.96
630.41	28142.60
630.56	27730.67
630.71	27803.22
630.86	27634.71
631.01	28077.07
631.16	28247.93
631.31	27742.37
631.46	28002.17
631.61	28156.64
631.76	27805.56
631.91	27573.85
632.06	27861.74
632.21	27875.78
632.36	28133.24
632.51	27365.54
632.66	27983.44
632.81	27723.65
632.96	28135.58
633.10	27742.37
633.25	27840.67
633.40	27529.38
633.55	27360.86
633.70	27566.83
633.85	27246.18
634.00	27370.22
634.15	27580.87
634.30	27388.95
634.45	27435.76
634.60	27658.11
634.75	27304.69
634.90	27271.92
635.05	27763.43
635.19	27711.94
635.34	27545.76
635.49	27845.35
635.64	27367.88
635.79	27452.14
635.94	27459.16
636.09	27604.28
636.24	27302.35
636.39	27515.34
636.53	27112.77
636.68	27140.85
636.83	27021.48
636.98	27316.39
637.13	27302.35
637.28	27314.05
637.43	27297.67
637.57	27625.34
637.72	27054.25
637.87	27126.81
638.02	27194.68
638.17	27131.49
638.32	26874.03
638.46	27173.62
638.61	27171.28
638.76	27002.76
638.91	26796.79
639.06	26712.53
639.20	26831.90
639.35	27194.68
639.50	27030.85
639.65	27503.64
639.80	27012.12
639.94	26796.79
640.09	26796.79
640.24	26593.17
640.39	26632.96
640.54	26504.23
640.68	26951.27
640.83	26595.51
640.98	26513.59
641.13	26195.28
641.27	27068.30
641.42	26642.32
641.57	26506.57
641.72	26888.07
641.86	26686.79
642.01	26721.90
642.16	26817.86
642.31	26246.77
642.45	26651.68
642.60	26223.36
642.75	26604.87
642.90	26574.44
643.04	26377.84
643.19	26370.82
643.34	26380.18
643.48	26778.07
643.63	26539.33
643.78	26312.30
643.93	26579.12
644.07	26721.90
644.22	26637.64
644.37	26551.04
644.51	26630.62
644.66	26302.94
644.81	26174.21
644.95	26274.85
645.10	26218.68
645.25	25968.24
645.39	26092.29
645.54	26565.08
645.69	26221.02
645.83	26277.19
645.98	26277.19
646.13	26766.37
646.27	26295.92
646.42	26279.54
646.57	26181.23
646.71	26260.81
646.86	26270.17
647.00	25940.16
647.15	25823.13
647.30	26050.16
647.44	25951.86
647.59	26017.40
647.74	26094.63
647.88	26167.19
648.03	26118.04
648.17	26246.77
648.32	26391.88
648.47	26235.06
648.61	25942.50
648.76	26298.26
648.90	25989.31
649.05	26068.89
649.20	25841.85
649.34	25633.55
649.49	25804.41
649.63	25773.98
649.78	25891.01
649.92	25797.38
650.07	26054.84
650.21	25647.59
650.36	25940.16
650.51	25701.42
650.65	25883.98
650.80	25589.08
650.94	25947.18
651.09	25731.85
651.23	25223.95
651.38	25565.67
651.52	25633.55
651.67	25813.77
651.81	25619.50
651.96	25736.53
652.10	25429.92
652.25	25570.35
652.39	25579.71
652.54	25383.11
652.68	25429.92
652.83	25640.57
652.97	25825.47
653.12	25633.55
653.26	25429.92
653.41	25425.24
653.55	25137.35
653.70	25043.73
653.84	25174.80
653.99	25200.55
654.13	25476.73
654.27	25273.10
654.42	25373.75
654.56	25144.38
654.71	25563.33
654.85	25472.05
655.00	25399.49
655.14	25404.17
655.29	25036.71
655.43	25411.20
655.57	25088.20
655.72	25146.72
655.86	25254.38
656.01	24788.61
656.15	25062.46
656.30	24875.21
656.44	25067.14
656.58	25104.59
656.73	24938.41
656.87	24893.94
657.01	24884.58
657.16	25137.35
657.30	24964.15
657.45	24870.53
657.59	25106.93
657.73	24931.39
657.88	24940.75
658.02	25069.48
658.16	25151.40
658.31	25036.71
658.45	24840.11
658.60	24652.86
658.74	24727.76
658.88	24634.14
659.03	24617.75
659.17	24886.92
659.31	24727.76
659.46	24620.10
659.60	24769.89
659.74	24734.78
659.89	24496.05
660.03	24739.46
660.17	24533.50
660.32	24306.46
660.46	24130.92
660.60	24233.91
660.74	24144.97
660.89	24231.57
661.03	24037.30
661.17	24418.81
661.32	24034.96
661.46	24168.37
661.60	24168.37
661.74	24566.26
661.89	24507.75
662.03	24238.59
662.17	23875.80
662.31	24205.82
662.46	24252.63
662.60	24224.54
662.74	23969.43
662.88	23747.08
663.03	23873.46
663.17	23660.48
663.31	23723.67
663.45	23674.52
663.60	23751.76
663.74	23812.61
663.88	23887.51
664.02	23653.45
664.17	24121.56
664.31	23625.37
664.45	23410.04
664.59	23449.83
664.73	23571.54
664.88	23133.86
665.02	23040.23
665.16	23723.67
665.30	23122.15
665.44	23147.90
665.59	22988.74
665.73	23335.14
665.87	23318.76
666.01	23098.75
666.15	23098.75
666.29	23115.13
666.44	23220.45
666.58	22927.89
666.72	22953.63
666.86	23037.89
667.00	22934.91
667.14	22960.66
667.28	23058.96
667.43	22747.67
667.57	22965.34
667.71	22719.58
667.85	22852.99
667.99	22759.37
668.13	22548.72
668.27	22515.95
668.41	22757.03
668.56	22129.77
668.70	22918.53
668.84	22747.67
668.98	22522.98
669.12	22504.25
669.26	22438.72
669.40	22471.48
669.54	22368.50
669.68	22403.61
669.82	22148.49
669.96	22171.89
670.10	22249.13
670.25	22504.25
670.39	21977.63
670.53	22029.12
670.67	21926.14
670.81	22197.64
670.95	22001.04
671.09	22127.42
671.23	22197.64
671.37	22092.32
671.51	22052.53
671.65	21656.98
671.79	21759.96
671.93	21752.94
672.07	21652.30
672.21	21841.88
672.35	21671.02
672.49	21652.30
672.63	21565.70
672.77	21521.23
672.91	21568.04
673.05	21413.56
673.19	21476.76
673.33	21542.29
673.47	21369.09
673.61	21523.57
673.75	21130.36
673.89	21132.70
674.03	20926.73
674.17	21113.97
674.31	21345.69
674.45	21144.40
674.59	21242.70
674.73	21102.27
674.87	21003.97
675.01	21055.46
675.15	20938.43
675.29	20809.70
675.43	20809.70
675.56	20833.11
675.70	20947.79
675.84	20898.64
675.98	20093.50
676.12	20830.77
676.26	20657.57
676.40	20414.15
676.54	20393.09
676.68	20292.44
676.82	20365.00
676.96	20177.76
677.10	20091.16
677.23	20247.97
677.37	19761.14
677.51	20142.65
677.65	19913.28
677.79	19838.38
677.93	19852.42
678.07	19939.02
678.21	19271.97
678.34	19758.80
678.48	19433.47
678.62	19346.87
678.76	19723.69
678.90	19190.05
679.04	19447.51
679.18	19407.72
679.31	19323.46
679.45	18890.46
679.59	19295.38
679.73	19110.47
679.87	19066.00
680.00	18853.02
680.14	18991.11
680.28	18944.30
680.42	18778.12
680.56	18909.19
680.70	18885.78
680.83	18860.04
680.97	18817.91
681.11	18838.97
681.25	18342.78
681.39	18623.64
681.52	18434.06
681.66	18452.78
681.80	18111.07
681.94	18338.10
682.07	18115.75
682.21	18125.11
682.35	17949.57
682.49	17980.00
682.62	17862.97
682.76	17963.61
682.90	17926.16
683.04	17701.47
683.17	17589.13
683.31	17369.12
683.45	17884.03
683.59	17867.65
683.72	17549.34
683.86	17619.55
684.00	17343.37
684.13	17247.41
684.27	17280.18
684.41	17390.18
684.55	17165.49
684.68	16877.60
684.82	16826.11
684.96	16795.68
685.09	16882.28
685.23	16788.66
685.37	17078.89
685.50	17195.92
685.64	16973.56
685.78	16844.84
685.91	16912.71
686.05	16765.26
686.19	16741.85
686.32	16795.68
686.46	16566.31
686.60	16449.28
686.73	16369.71
686.87	16079.48
687.01	16465.67
687.14	16058.42
687.28	16032.67
687.42	15955.43
687.55	16224.59
687.69	15775.21
687.82	16123.95
687.96	15859.47
688.10	16145.02
688.23	15967.13
688.37	15960.11
688.50	15882.88
688.64	15632.44
688.78	15779.89
688.91	15602.01
689.05	15683.93
689.18	15590.31
689.32	15178.37
689.46	15431.15
689.59	15438.17
689.73	15281.36
689.86	15239.23
690.00	15098.80
690.13	15290.72
690.27	14977.09
690.41	15152.63
690.54	14949.00
690.68	15023.90
690.81	14995.81
690.95	14668.14
691.08	15023.90
691.22	14916.23
691.35	14700.90
691.49	14670.48
691.62	14689.20
691.76	14277.27
691.89	14223.44
692.03	14288.97
692.16	14017.47
692.30	14209.39
692.43	14075.98
692.57	14134.50
692.70	13942.57
692.84	13996.40
692.97	14001.08
693.11	14150.88
693.24	13865.33
693.38	14054.92
693.51	13980.02
693.65	13682.77
693.78	13568.09
693.92	13820.86
694.05	13624.26
694.19	13568.09
694.32	13315.31
694.45	13472.12
694.59	13053.17
694.72	13158.49
694.86	13317.65
694.99	12987.63
695.13	13015.72
695.26	13018.06
695.39	13245.09
695.53	12989.97
695.66	13181.90
695.80	13081.25
695.93	12762.94
696.07	13078.91
696.20	13001.68
696.33	12966.57
696.47	12865.92
696.60	12751.24
696.73	12706.77
696.87	12585.06
697.00	12564.00
697.14	12409.52
697.27	12140.36
697.40	12404.84
697.54	12028.01
697.67	12145.04
697.80	12343.99
697.94	12311.22
698.07	11955.46
698.21	12009.29
698.34	11983.54
698.47	12035.03
698.61	11985.88
698.74	12006.95
698.87	11721.40
699.01	11662.89
699.14	11845.45
699.27	11599.70
699.40	11651.19
699.54	11531.82
699.67	11555.22
699.80	11492.03
699.94	11417.13
700.07	11281.38
700.20	11110.52
700.34	11131.59
700.47	11103.50
700.60	11243.93
700.73	11225.21
700.87	11178.40
701.00	11030.94
701.13	10986.47
701.26	11054.35
701.40	11239.25
701.53	11164.36
701.66	10789.87
701.79	10911.58
701.93	10686.89
702.06	10537.09
702.19	10644.76
702.32	10546.45
702.46	10532.41
702.59	10464.54
702.72	10253.89
702.85	10567.52
702.99	10190.69
703.12	10373.25
703.25	10036.22
703.38	10104.09
703.51	10263.25
703.65	10328.78
703.78	10298.36
703.91	10186.01
704.04	10380.28
704.17	10296.02
704.31	10045.58
704.44	10111.11
704.57	9839.61
704.70	9521.30
704.83	9776.42
704.96	9717.90
705.10	9472.15
705.23	9579.81
>>>>>End Processed Spectral Data<<<<<
