SpectraSuite Data File
++++++++++++++++++++++++++++++++++++
Date: Fri Oct 18 13:58:14 GMT-05:00 2013
User: bianchi
Dark Spectrum Present: No
Reference Spectrum Present: No
Number of Sampled Component Spectra: 1
Spectrometers: USB2+H05261
Integration Time (usec): 50000 (USB2+H05261)
Spectra Averaged: 1 (USB2+H05261)
Boxcar Smoothing: 0 (USB2+H05261)
Correct for Electrical Dark: No (USB2+H05261)
Strobe/Lamp Enabled: No (USB2+H05261)
Correct for Detector Non-linearity: No (USB2+H05261)
Correct for Stray Light: No (USB2+H05261)
Number of Pixels in Processed Spectrum: 2048
>>>>>Begin Processed Spectral Data<<<<<
365.73	0.00
365.92	0.00
366.12	0.00
366.32	0.00
366.52	0.00
366.72	0.00
366.91	0.00
367.11	0.00
367.31	0.00
367.51	0.00
367.70	0.00
367.90	0.00
368.10	0.00
368.30	0.00
368.49	0.00
368.69	0.00
368.89	0.00
369.09	0.00
369.28	0.00
369.48	0.00
369.68	0.00
369.87	0.00
370.07	0.00
370.27	0.00
370.47	0.00
370.66	9.36
370.86	65.54
371.06	126.39
371.25	170.86
371.45	112.35
371.65	53.83
371.84	79.58
372.04	152.13
372.24	203.63
372.44	168.52
372.63	201.29
372.83	212.99
373.03	114.69
373.22	184.90
373.42	196.60
373.62	215.33
373.81	231.71
374.01	212.99
374.21	243.42
374.40	184.90
374.60	318.31
374.79	191.92
374.99	248.10
375.19	189.58
375.38	276.18
375.58	245.76
375.78	313.63
375.97	271.50
376.17	290.23
376.37	269.16
376.56	273.84
376.76	180.22
376.95	159.16
377.15	285.55
377.35	259.80
377.54	238.73
377.74	285.55
377.93	196.60
378.13	215.33
378.33	278.52
378.52	318.31
378.72	322.99
378.91	294.91
379.11	313.63
379.31	390.87
379.50	280.86
379.70	325.33
379.89	301.93
380.09	339.38
380.28	266.82
380.48	269.16
380.68	306.61
380.87	210.65
381.07	348.74
381.26	330.02
381.46	262.14
381.65	264.48
381.85	297.25
382.04	330.02
382.24	374.49
382.43	322.99
382.63	280.86
382.83	351.08
383.02	348.74
383.22	332.36
383.41	294.91
383.61	315.97
383.80	348.74
384.00	332.36
384.19	409.59
384.39	430.66
384.58	344.06
384.78	367.46
384.97	393.21
385.17	287.89
385.36	332.36
385.56	308.95
385.75	322.99
385.95	435.34
386.14	379.17
386.34	351.08
386.53	395.55
386.72	369.80
386.92	402.57
387.11	332.36
387.31	430.66
387.50	362.78
387.70	386.19
387.89	374.49
388.09	376.83
388.28	491.51
388.48	400.23
388.67	491.51
388.86	402.57
389.06	561.73
389.25	505.56
389.45	482.15
389.64	475.13
389.84	449.38
390.03	444.70
390.22	444.70
390.42	423.64
390.61	468.11
390.81	500.87
391.00	486.83
391.19	531.30
391.39	575.77
391.58	571.09
391.78	503.22
391.97	489.17
392.16	402.57
392.36	582.79
392.55	566.41
392.75	582.79
392.94	592.16
393.13	554.71
393.33	533.64
393.52	568.75
393.71	500.87
393.91	547.69
394.10	585.13
394.29	610.88
394.49	606.20
394.68	578.11
394.88	617.90
395.07	624.92
395.26	533.64
395.46	617.90
395.65	643.65
395.84	589.82
396.04	596.84
396.23	683.44
396.42	734.93
396.62	636.63
396.81	589.82
397.00	697.48
397.19	725.57
397.39	709.18
397.58	636.63
397.77	631.94
397.97	657.69
398.16	685.78
398.35	676.41
398.55	704.50
398.74	730.25
398.93	713.86
399.12	727.91
399.32	688.12
399.51	711.52
399.70	772.38
399.90	751.31
400.09	716.20
400.28	716.20
400.47	802.80
400.67	835.57
400.86	842.59
401.05	800.46
401.24	814.51
401.44	779.40
401.63	741.95
401.82	805.14
402.01	837.91
402.21	807.48
402.40	791.10
402.59	873.02
402.78	882.38
402.97	961.96
403.17	929.19
403.36	933.87
403.55	896.43
403.74	1013.45
403.93	940.90
404.13	1020.47
404.32	976.00
404.51	882.38
404.70	938.55
404.89	947.92
405.09	931.53
405.28	826.21
405.47	931.53
405.66	1048.56
405.85	978.34
406.05	924.51
406.24	957.28
406.43	999.41
406.62	1036.86
406.81	1069.62
407.00	1102.39
407.20	1034.52
407.39	1128.14
407.58	1067.28
407.77	1032.18
407.96	1062.60
408.15	1018.13
408.34	1081.33
408.54	1015.79
408.73	1090.69
408.92	1071.97
409.11	1142.18
409.30	1114.10
409.49	1104.73
409.68	1170.27
409.87	1137.50
410.07	1132.82
410.26	1086.01
410.45	1142.18
410.64	1219.42
410.83	1109.41
411.02	1188.99
411.21	1315.38
411.40	1221.76
411.59	1324.74
411.78	1294.32
411.98	1266.23
412.17	1238.14
412.36	1235.80
412.55	1404.32
412.74	1380.92
412.93	1364.53
413.12	1280.27
413.31	1390.28
413.50	1336.45
413.69	1434.75
413.88	1427.73
414.07	1411.34
414.26	1444.11
414.45	1451.13
414.64	1376.24
414.83	1432.41
415.02	1469.86
415.22	1544.75
415.41	1589.22
415.60	1605.61
415.79	1544.75
415.98	1570.50
416.17	1610.29
416.36	1607.95
416.55	1586.88
416.74	1617.31
416.93	1607.95
417.12	1614.97
417.31	1652.42
417.50	1753.06
417.69	1788.17
417.88	1746.04
418.07	1694.55
418.26	1579.86
418.45	1809.23
418.64	1788.17
418.83	1769.44
419.02	1764.76
419.21	1741.36
419.39	1806.89
419.58	1785.83
419.77	1732.00
419.96	1830.30
420.15	1879.45
420.34	1959.03
420.53	1956.69
420.72	1949.67
420.91	1902.86
421.10	1898.17
421.29	1928.60
421.48	1888.81
421.67	2054.99
421.86	1860.73
422.05	2043.29
422.24	1930.94
422.43	1872.43
422.61	2003.50
422.80	2040.95
422.99	2167.34
423.18	2036.27
423.37	2019.88
423.56	1987.11
423.75	1996.48
423.94	1966.05
424.13	1884.13
424.32	1949.67
424.50	2118.18
424.69	2064.35
424.88	2155.63
425.07	1982.43
425.26	2031.58
425.45	2022.22
425.64	2033.93
425.83	2022.22
426.01	2031.58
426.20	2087.76
426.39	2043.29
426.58	2094.78
426.77	2092.44
426.96	2125.21
427.15	2085.42
427.33	2038.61
427.52	2197.76
427.71	2069.03
427.90	2076.06
428.09	2190.74
428.28	2207.13
428.46	2235.21
428.65	2167.34
428.84	2165.00
429.03	2230.53
429.22	2172.02
429.40	2256.28
429.59	2242.23
429.78	2232.87
429.97	2022.22
430.16	2155.63
430.34	2443.52
430.53	2253.94
430.72	2291.38
430.91	2251.60
431.10	2352.24
431.28	2361.60
431.47	2415.43
431.66	2403.73
431.85	2396.71
432.03	2459.90
432.22	2476.29
432.41	2387.35
432.60	2457.56
432.79	2333.51
432.97	2537.14
433.16	2417.77
433.35	2452.88
433.54	2469.27
433.72	2487.99
433.91	2541.82
434.10	2588.63
434.28	2497.35
434.47	2431.82
434.66	2656.51
434.85	2647.15
435.03	2682.25
435.22	2593.31
435.41	2703.32
435.59	2686.94
435.78	2686.94
435.97	2647.15
436.16	2663.53
436.34	2647.15
436.53	2745.45
436.72	2782.90
436.90	2715.02
437.09	2789.92
437.28	2754.81
437.46	2658.85
437.65	2670.55
437.84	2871.84
438.02	2848.43
438.21	2829.71
438.40	2703.32
438.58	2935.03
438.77	2799.28
438.96	2810.98
439.14	2918.65
439.33	2862.48
439.52	2904.60
439.70	2888.22
439.89	3045.04
440.08	3035.67
440.26	3194.83
440.45	3098.87
440.63	2977.16
440.82	3066.10
441.01	3061.42
441.19	3148.02
441.38	3138.66
441.57	3131.64
441.75	3234.62
441.94	3258.03
442.12	3124.62
442.31	3375.05
442.50	3258.03
442.68	3302.50
442.87	3281.43
443.05	3295.47
443.24	3389.10
443.43	3370.37
443.61	3396.12
443.80	3431.23
443.98	3286.11
444.17	3272.07
444.35	3267.39
444.54	3445.27
444.73	3421.86
444.91	3459.31
445.10	3445.27
445.28	3272.07
445.47	3356.33
445.65	3435.91
445.84	3428.88
446.02	3543.57
446.21	3478.04
446.39	3372.71
446.58	3578.68
446.77	3473.36
446.95	3456.97
447.14	3538.89
447.32	3581.02
447.51	3473.36
447.69	3473.36
447.88	3536.55
448.06	3545.91
448.25	3543.57
448.43	3620.81
448.62	3541.23
448.80	3531.87
448.99	3487.40
449.17	3492.08
449.36	3557.61
449.54	3611.45
449.73	3714.43
449.91	3627.83
450.10	3641.87
450.28	3639.53
450.46	3667.62
450.65	3866.56
450.83	3808.05
451.02	3723.79
451.20	3707.41
451.39	3693.37
451.57	3845.50
451.76	3819.75
451.94	3716.77
452.13	3803.37
452.31	3871.25
452.49	3824.44
452.68	3763.58
452.86	3918.06
453.05	3850.18
453.23	3918.06
453.42	3915.72
453.60	3803.37
453.78	3761.24
453.97	3817.41
454.15	3866.56
454.34	3981.25
454.52	4058.49
454.70	4032.74
454.89	3950.82
455.07	4044.45
455.26	4056.15
455.44	4229.35
455.62	4201.26
455.81	4203.60
455.99	4184.88
456.17	4222.33
456.36	4294.88
456.54	4292.54
456.73	4126.36
456.91	4374.46
457.09	4355.74
457.28	4367.44
457.46	4105.30
457.64	4353.40
457.83	4482.13
458.01	4334.67
458.19	4322.97
458.38	4322.97
458.56	4447.02
458.74	4397.87
458.93	4360.42
459.11	4397.87
459.29	4388.50
459.48	4484.47
459.66	4526.60
459.84	4472.76
460.03	4578.09
460.21	4685.75
460.39	4402.55
460.57	4505.53
460.76	4671.71
460.94	4741.93
461.12	4624.90
461.31	4528.94
461.49	4493.83
461.67	4554.68
461.85	4671.71
462.04	4823.84
462.22	4983.00
462.40	4755.97
462.59	4821.50
462.77	4737.24
462.95	4767.67
463.13	4746.61
463.32	4723.20
463.50	4884.70
463.68	4760.65
463.86	4851.93
464.05	4741.93
464.23	4898.74
464.41	5032.15
464.59	4844.91
464.78	4898.74
464.96	4861.29
465.14	4954.91
465.32	4807.46
465.50	5025.13
465.69	4978.32
465.87	5029.81
466.05	5071.94
466.23	4894.06
466.41	5015.77
466.60	5071.94
466.78	5158.54
466.96	4917.47
467.14	5121.09
467.32	5137.48
467.51	5266.21
467.69	5022.79
467.87	5142.16
468.05	5053.22
468.23	5289.61
468.41	5238.12
468.60	5083.64
468.78	5158.54
468.96	5109.39
469.14	5364.51
469.32	5406.64
469.50	5041.51
469.69	5397.28
469.87	5355.15
470.05	5572.82
470.23	5275.57
470.41	5355.15
470.59	5432.38
470.77	5607.92
470.95	5575.16
471.14	5713.25
471.32	5397.28
471.50	5675.80
471.68	5556.43
471.86	5598.56
472.04	5577.50
472.22	5785.80
472.40	5563.45
472.58	5900.49
472.77	5799.85
472.95	5804.53
473.13	5954.32
473.31	5738.99
473.49	5781.12
473.67	5680.48
473.85	5830.27
474.03	6148.59
474.21	5874.74
474.39	6038.58
474.57	5954.32
474.75	6094.76
474.93	6139.23
475.12	6136.88
475.30	6293.70
475.48	6235.19
475.66	6300.72
475.84	6258.59
476.02	6214.12
476.20	6349.87
476.38	6504.35
476.56	6616.69
476.74	6506.69
476.92	6560.52
477.10	6523.07
477.28	6637.76
477.46	6551.16
477.64	6787.55
477.82	6588.61
478.00	6939.69
478.18	6801.60
478.36	7112.89
478.54	7019.27
478.72	7068.42
478.90	6998.20
479.08	7148.00
479.26	7087.14
479.44	7281.41
479.62	7265.02
479.80	7426.52
479.98	7489.71
480.16	7344.60
480.34	7407.80
480.52	7733.13
480.70	7613.76
480.88	7475.67
481.06	7599.72
481.24	7592.70
481.41	8023.36
481.59	7896.97
481.77	8037.40
481.95	8112.30
482.13	8095.91
482.31	8210.60
482.49	8149.75
482.67	8336.99
482.85	8446.99
483.03	8386.14
483.21	8758.28
483.39	8720.84
483.57	8587.43
483.74	8692.75
483.92	8765.31
484.10	8578.06
484.28	8678.71
484.46	8933.82
484.64	9327.03
484.82	9011.06
485.00	9221.71
485.18	9390.23
485.35	9404.27
485.53	9561.09
485.71	9415.98
485.89	9397.25
486.07	9722.59
486.25	9591.52
486.43	9668.75
486.61	9673.43
486.78	9947.28
486.96	9764.72
487.14	10038.56
487.32	10237.50
487.50	10061.96
487.68	10036.22
487.85	10188.35
488.03	10312.40
488.21	10504.32
488.39	10600.29
488.57	10677.52
488.75	10588.58
488.92	10754.76
489.10	10881.15
489.28	10775.83
489.46	11351.60
489.64	10977.11
489.81	11419.47
489.99	11080.10
490.17	11267.34
490.35	11503.73
490.53	11389.05
490.70	11571.61
490.88	11604.38
491.06	11700.34
491.24	11859.49
491.41	11620.76
491.59	12088.87
491.77	12065.46
491.95	12060.78
492.13	12255.04
492.30	12358.03
492.48	12365.05
492.66	12266.75
492.84	12386.12
493.01	12381.43
493.19	12655.28
493.37	12800.39
493.54	12865.92
493.72	12692.73
493.90	12631.87
494.08	12926.78
494.25	13027.42
494.43	13200.62
494.61	13172.54
494.79	13507.23
494.96	13413.61
495.14	13511.91
495.32	13434.68
495.49	13514.25
495.67	13752.99
495.85	13589.15
496.02	13862.99
496.20	14038.53
496.38	13703.84
496.55	13736.60
496.73	14200.03
496.91	14160.24
497.09	14054.92
497.26	14148.54
497.44	14321.74
497.62	14286.63
497.79	14567.49
497.97	14520.68
498.14	14572.18
498.32	15021.56
498.50	14689.20
498.67	14824.95
498.85	15044.96
499.03	14824.95
499.20	14892.83
499.38	15281.36
499.56	15257.95
499.73	15487.32
499.91	15286.04
500.08	15459.24
500.26	15030.92
500.44	15192.42
500.61	15728.40
500.79	15597.33
500.97	15566.90
501.14	15697.97
501.32	15754.15
501.49	15754.15
501.67	15690.95
501.84	15807.98
502.02	16002.24
502.20	16042.03
502.37	16137.99
502.55	16114.59
502.72	16231.62
502.90	16189.49
503.07	16215.23
503.25	16273.74
503.43	16301.83
503.60	16273.74
503.78	16514.82
503.95	16491.41
504.13	16524.18
504.30	16524.18
504.48	16704.40
504.65	17027.40
504.83	16922.07
505.01	17200.60
505.18	17025.06
505.36	17099.95
505.53	16793.34
505.71	17041.44
505.88	17135.06
506.06	16910.37
506.23	17568.06
506.41	16936.12
506.58	17310.60
506.76	17514.23
506.93	17207.62
507.11	17231.02
507.28	17486.14
507.46	17446.35
507.63	17809.14
507.81	17970.63
507.98	17514.23
508.16	17811.48
508.33	17750.62
508.50	17862.97
508.68	17869.99
508.85	18078.30
509.03	17909.78
509.20	18436.40
509.38	18277.24
509.55	18443.42
509.73	18441.08
509.90	18363.84
510.08	18335.76
510.25	18380.23
510.42	18553.43
510.60	18630.66
510.77	18735.99
510.95	18853.02
511.12	19089.41
511.30	18691.52
511.47	18689.18
511.64	18899.83
511.82	19267.29
511.99	19232.18
512.17	18977.06
512.34	18759.39
512.51	19274.31
512.69	19389.00
512.86	19276.65
513.04	19454.53
513.21	19346.87
513.38	19681.56
513.56	19571.56
513.73	19283.67
513.90	19674.54
514.08	19459.21
514.25	19789.23
514.43	19634.75
514.60	20030.30
514.77	19852.42
514.95	19744.76
515.12	19704.97
515.29	19903.92
515.47	19793.91
515.64	19957.75
515.81	20084.14
515.99	20011.58
516.16	20404.79
516.33	20287.76
516.51	20362.66
516.68	19985.83
516.85	20107.54
517.03	20369.68
517.20	20512.46
517.37	20449.26
517.54	20610.76
517.72	20702.04
517.89	20308.83
518.06	20482.03
518.24	20360.32
518.41	20535.86
518.58	20238.61
518.75	20828.43
518.93	21343.35
519.10	20711.40
519.27	20996.95
519.45	21060.14
519.62	21006.31
519.79	21029.71
519.96	21191.21
520.14	21163.12
520.31	21249.72
520.48	21523.57
520.65	21275.47
520.83	21448.67
521.00	21476.76
521.17	21329.30
521.34	21120.99
521.52	21472.07
521.69	21916.78
521.86	21420.58
522.03	21848.90
522.20	21853.58
522.38	21556.33
522.55	21783.37
522.72	21895.71
522.89	21898.05
523.07	22216.36
523.24	21989.33
523.41	22111.04
523.58	21942.52
523.75	22307.65
523.92	21968.27
524.10	22331.05
524.27	22113.38
524.44	22307.65
524.61	22558.08
524.78	22380.20
524.96	22670.43
525.13	22115.72
525.30	22450.42
525.47	22380.20
525.64	22359.14
525.81	22693.83
525.98	22831.93
526.16	22876.40
526.33	22712.56
526.50	23026.19
526.67	22581.49
526.84	22438.72
527.01	22881.08
527.18	22782.77
527.36	23178.33
527.53	23047.26
527.70	23538.77
527.87	23477.91
528.04	23250.88
528.21	23480.25
528.38	22871.72
528.55	23269.61
528.72	23005.13
528.89	23597.28
529.07	23480.25
529.24	23080.02
529.41	23330.46
529.58	23632.39
529.75	23271.95
529.92	23494.30
530.09	23342.16
530.26	23529.41
530.43	23800.91
530.60	23431.10
530.77	23896.87
530.94	23597.28
531.11	23906.23
531.28	23866.44
531.46	23693.24
531.63	24137.94
531.80	23873.46
531.97	24238.59
532.14	24266.67
532.31	23901.55
532.48	24376.68
532.65	24137.94
532.82	24474.98
532.99	24369.66
533.16	24379.02
533.33	24350.93
533.50	24086.45
533.67	24395.40
533.84	24297.10
534.01	24240.93
534.18	24386.04
534.35	24491.37
534.52	24460.94
534.69	24830.74
534.86	24767.55
535.03	24758.19
535.20	24467.96
535.37	24362.64
535.54	24875.21
535.71	24327.53
535.88	24552.22
536.05	24498.39
536.22	24961.81
536.38	25013.31
536.55	24650.52
536.72	24886.92
536.89	24535.84
537.06	24905.64
537.23	25230.98
537.40	25036.71
537.57	24980.54
537.74	24959.47
537.91	24865.85
538.08	25369.07
538.25	25212.25
538.42	25462.69
538.59	25219.27
538.75	25116.29
538.92	25067.14
539.09	25450.99
539.26	25727.17
539.43	25532.90
539.60	25659.29
539.77	25495.46
539.94	25376.09
540.11	25247.36
540.28	25392.47
540.44	25668.66
540.61	25638.23
540.78	25291.83
540.95	25488.43
541.12	25556.31
541.29	25750.57
541.46	25907.39
541.62	25694.40
541.79	25818.45
541.96	25481.41
542.13	25813.77
542.30	26094.63
542.47	26003.35
542.63	26181.23
542.80	26396.56
542.97	26335.71
543.14	26441.03
543.31	26478.48
543.48	26373.16
543.64	26340.39
543.81	26370.82
543.98	26529.97
544.15	26239.75
544.32	26623.59
544.48	27012.12
544.65	26642.32
544.82	26401.24
544.99	25989.31
545.16	26270.17
545.32	26363.79
545.49	26977.01
545.66	27035.53
545.83	27077.66
546.00	26864.67
546.16	26335.71
546.33	26604.87
546.50	26642.32
546.67	27075.32
546.83	26782.75
547.00	26829.56
547.17	26775.73
547.34	26897.44
547.50	27096.38
547.67	27147.87
547.84	27271.92
548.00	27070.64
548.17	27164.26
548.34	26881.05
548.51	27145.53
548.67	27386.61
548.84	27028.51
549.01	27042.55
549.18	27119.79
549.34	27178.30
549.51	27194.68
549.68	27175.96
549.84	27133.83
550.01	27536.40
550.18	27068.30
550.34	27449.80
550.51	27339.80
550.68	27641.73
550.84	27115.11
551.01	27742.37
551.18	27711.94
551.34	27150.21
551.51	27126.81
551.68	27782.16
551.84	27407.67
552.01	27402.99
552.18	27948.34
552.34	27658.11
552.51	27786.84
552.68	27559.81
552.84	28046.64
553.01	27585.55
553.18	28065.36
553.34	27971.74
553.51	27667.47
553.67	27882.80
553.84	28128.56
554.01	27782.16
554.17	28280.69
554.34	27969.40
554.51	28027.92
554.67	28191.75
554.84	28060.68
555.00	28041.96
555.17	27625.34
555.33	27978.76
555.50	28044.30
555.67	28311.12
555.83	28364.95
556.00	27819.61
556.16	28397.72
556.33	28313.46
556.50	28322.82
556.66	28304.10
556.83	28301.76
556.99	28496.02
557.16	28851.78
557.32	28395.38
557.49	28374.31
557.65	28320.48
557.82	28472.62
557.98	28142.60
558.15	28158.99
558.32	28353.25
558.48	28409.42
558.65	28629.43
558.81	28744.12
558.98	28631.77
559.14	28641.14
559.31	28606.03
559.47	28748.80
559.64	28545.17
559.80	28854.12
559.97	28662.20
560.13	28460.91
560.30	28554.54
560.46	28575.60
560.63	29113.92
560.79	29097.54
560.96	29006.26
561.12	28596.67
561.29	28814.34
561.45	28704.33
561.61	28961.79
561.78	28821.36
561.94	29067.11
562.11	29127.97
562.27	28985.19
562.44	28620.07
562.60	28966.47
562.77	28641.14
562.93	28641.14
563.10	29024.98
563.26	28613.05
563.42	29237.97
563.59	28765.18
563.75	29008.60
563.92	28868.17
564.08	28987.53
564.24	28872.85
564.41	28734.76
564.57	28507.72
564.74	29015.62
564.90	29507.13
565.07	29212.23
565.23	29163.08
565.39	29310.53
565.56	29312.87
565.72	29067.11
565.88	29326.91
566.05	29097.54
566.21	29319.89
566.38	29036.69
566.54	29032.00
566.70	29043.71
566.87	29635.86
567.03	29151.37
567.19	29558.63
567.36	29446.28
567.52	29195.84
567.68	29518.84
567.85	29298.83
568.01	28898.59
568.17	29095.20
568.34	29483.73
568.50	29490.75
568.66	29401.81
568.83	29589.05
568.99	29242.65
569.15	29317.55
569.32	29502.45
569.48	28989.88
569.64	29518.84
569.81	29415.85
569.97	29315.21
570.13	29610.12
570.30	29567.99
570.46	29352.66
570.62	29355.00
570.78	29511.81
570.95	29408.83
571.11	29453.30
571.27	29369.04
571.43	29521.18
571.60	29460.32
571.76	29312.87
571.92	29446.28
572.09	29532.88
572.25	29582.03
572.41	29738.85
572.57	29535.22
572.74	29523.52
572.90	29373.72
573.06	29486.07
573.22	29467.34
573.38	29722.46
573.55	29706.08
573.71	29968.22
573.87	29699.06
574.03	29340.96
574.20	29591.39
574.36	29397.13
574.52	29652.25
574.68	29799.70
574.84	29521.18
575.01	29673.31
575.17	29748.21
575.33	29610.12
575.49	29755.23
575.65	29408.83
575.82	29371.38
575.98	29397.13
576.14	29628.84
576.30	29876.94
576.46	29795.02
576.62	29713.10
576.79	29610.12
576.95	29465.00
577.11	29926.09
577.27	30052.48
577.43	30228.02
577.59	29750.55
577.75	29635.86
577.92	29692.04
578.08	29488.41
578.24	29493.09
578.40	29766.93
578.56	29689.70
578.72	29905.02
578.88	30192.91
579.04	30008.01
579.21	29902.68
579.37	29886.30
579.53	30010.35
579.69	29556.28
579.85	29523.52
580.01	29881.62
580.17	29734.17
580.33	29841.83
580.49	29841.83
580.65	30382.49
580.82	30026.73
580.98	29961.20
581.14	29900.34
581.30	29649.91
581.46	29656.93
581.62	29551.60
581.78	29841.83
581.94	29436.92
582.10	29823.11
582.26	29748.21
582.42	29937.79
582.58	30026.73
582.74	30036.09
582.90	30003.33
583.06	29898.00
583.22	30096.95
583.38	29757.57
583.54	29713.10
583.70	30029.07
583.86	29823.11
584.02	29975.24
584.18	30148.44
584.34	30338.02
584.50	29682.67
584.66	29832.47
584.82	29776.30
584.98	30174.19
585.14	29865.24
585.30	29876.94
585.46	30022.05
585.62	29675.65
585.78	29972.90
585.94	30015.03
586.10	29750.55
586.26	29996.31
586.42	30401.22
586.58	30103.97
586.74	29989.28
586.90	29970.56
587.06	29689.70
587.22	30043.12
587.38	29869.92
587.54	30066.52
587.70	30192.91
587.86	29984.60
588.02	30323.98
588.18	30075.88
588.34	30061.84
588.49	30029.07
588.65	29841.83
588.81	29757.57
588.97	30356.75
589.13	30174.19
589.29	30295.89
589.45	29933.11
589.61	30433.99
589.77	30445.69
589.93	30511.22
590.08	30309.94
590.24	30082.91
590.40	30230.36
590.56	30370.79
590.72	29921.41
590.88	29862.90
591.04	29703.74
591.20	30595.48
591.35	30621.23
591.51	30682.08
591.67	30492.50
591.83	30820.17
591.99	30429.30
592.15	30459.73
592.31	30649.32
592.46	30153.12
592.62	30106.31
592.78	29874.60
592.94	30263.13
593.10	30052.48
593.26	30211.64
593.41	30487.82
593.57	30410.58
593.73	30410.58
593.89	30373.13
594.05	30338.02
594.20	30302.92
594.36	30047.80
594.52	30326.32
594.68	30391.86
594.84	29947.15
594.99	30597.82
595.15	30235.04
595.31	30405.90
595.47	30331.00
595.62	30546.33
595.78	30345.05
595.94	30433.99
596.10	30391.86
596.25	30441.01
596.41	30335.68
596.57	29951.84
596.73	30401.22
596.88	30249.08
597.04	30494.84
597.20	30843.58
597.36	30981.67
597.51	30925.50
597.67	30024.39
597.83	30672.72
597.99	30639.95
598.14	30576.76
598.30	30735.92
598.46	30724.21
598.61	30064.18
598.77	30251.42
598.93	30405.90
599.09	30417.60
599.24	31058.91
599.40	30625.91
599.56	30441.01
599.71	30721.87
599.87	30726.55
600.03	30429.30
600.18	30455.05
600.34	30195.25
600.50	30230.36
600.65	30445.69
600.81	30621.23
600.97	31065.93
601.12	30665.70
601.28	30850.60
601.44	30771.02
601.59	30749.96
601.75	30466.75
601.91	30368.45
602.06	30295.89
602.22	30228.02
602.37	30373.13
602.53	30469.09
602.69	30611.87
602.84	30576.76
603.00	30543.99
603.16	30441.01
603.31	31061.25
603.47	30705.49
603.62	30085.25
603.78	30040.78
603.94	30251.42
604.09	30342.70
604.25	30433.99
604.40	30342.70
604.56	30382.49
604.71	30272.49
604.87	30302.92
605.03	30698.47
605.18	30548.67
605.34	30323.98
605.49	30422.28
605.65	30513.56
605.80	30171.85
605.96	30443.35
606.12	30015.03
606.27	30794.43
606.43	30174.19
606.58	30838.90
606.74	30635.27
606.89	30836.56
607.05	30597.82
607.20	30646.97
607.36	30071.20
607.51	30632.93
607.67	30459.73
607.82	30157.80
607.98	30778.04
608.13	30382.49
608.29	30183.55
608.44	30192.91
608.60	30253.76
608.75	30424.62
608.91	30522.93
609.06	30017.37
609.22	30174.19
609.37	30050.14
609.53	30286.53
609.68	30162.48
609.84	30218.66
609.99	30153.12
610.15	30029.07
610.30	30373.13
610.46	30185.89
610.61	30122.69
610.76	30258.45
610.92	30026.73
611.07	30045.46
611.23	30003.33
611.38	30171.85
611.54	29720.12
611.69	30005.67
611.84	30204.61
612.00	30010.35
612.15	29958.86
612.31	30295.89
612.46	29748.21
612.62	30183.55
612.77	29984.60
612.92	30202.27
613.08	29944.81
613.23	29883.96
613.39	29764.59
613.54	29928.43
613.69	29926.09
613.85	29972.90
614.00	29832.47
614.15	29879.28
614.31	30000.99
614.46	29827.79
614.62	29687.36
614.77	30029.07
614.92	29958.86
615.08	30099.29
615.23	29888.64
615.38	29989.28
615.54	29465.00
615.69	29848.85
615.84	29717.78
616.00	29479.05
616.15	29689.70
616.30	29640.54
616.46	29434.58
616.61	29635.86
616.76	29993.97
616.92	29710.76
617.07	30085.25
617.22	29752.89
617.37	29614.80
617.53	29788.00
617.68	29422.87
617.83	29242.65
617.99	29259.04
618.14	29465.00
618.29	29773.95
618.45	29591.39
618.60	29631.18
618.75	29577.35
618.90	29752.89
619.06	29450.96
619.21	29195.84
619.36	29649.91
619.51	29076.48
619.67	29071.79
619.82	29188.82
619.97	29247.33
620.12	29200.52
620.28	29060.09
620.43	29184.14
620.58	29488.41
620.73	29624.16
620.89	29628.84
621.04	29507.13
621.19	29687.36
621.34	29268.40
621.49	29130.31
621.65	29120.95
621.80	29158.39
621.95	29142.01
622.10	28755.82
622.25	28807.31
622.41	29083.50
622.56	29404.15
622.71	29462.66
622.86	29441.60
623.01	29289.46
623.16	28636.45
623.32	28964.13
623.47	28786.25
623.62	29373.72
623.77	28811.99
623.92	28861.15
624.07	28748.80
624.23	29102.22
624.38	28910.30
624.53	28849.44
624.68	29134.99
624.83	29120.95
624.98	29317.55
625.13	28762.84
625.29	28968.81
625.44	29003.92
625.59	28830.72
625.74	28804.97
625.89	28713.69
626.04	28589.64
626.19	28776.89
626.34	28767.52
626.49	28872.85
626.65	28397.72
626.80	28723.05
626.95	28650.50
627.10	28421.13
627.25	28900.94
627.40	28079.41
627.55	28533.47
627.70	28493.68
627.85	28259.63
628.00	28313.46
628.15	28311.12
628.30	28201.11
628.45	28591.98
628.60	28105.15
628.76	28336.87
628.91	28479.64
629.06	28276.01
629.21	28563.90
629.36	28407.08
629.51	28119.20
629.66	28369.63
629.81	27920.25
629.96	28439.85
630.11	28259.63
630.26	27887.48
630.41	28329.84
630.56	28018.55
630.71	27875.78
630.86	27978.76
631.01	28254.95
631.16	28170.69
631.31	28418.78
631.46	27936.63
631.61	28278.35
631.76	27798.54
631.91	28044.30
632.06	28280.69
632.21	27807.90
632.36	28009.19
632.51	27648.75
632.66	28044.30
632.81	27740.03
632.96	27644.07
633.10	28458.57
633.25	27960.04
633.40	27733.01
633.55	27908.55
633.70	27534.06
633.85	27819.61
634.00	27459.16
634.15	28034.94
634.30	27955.36
634.45	27861.74
634.60	27665.13
634.75	27590.24
634.90	27950.68
635.05	27761.09
635.19	27733.01
635.34	27693.22
635.49	28074.73
635.64	28044.30
635.79	27407.67
635.94	27608.96
636.09	27381.93
636.24	27264.90
636.39	27452.14
636.53	27730.67
636.68	27550.45
636.83	27281.28
636.98	27527.04
637.13	27470.87
637.28	27505.98
637.43	27550.45
637.57	27571.51
637.72	27117.45
637.87	27335.12
638.02	27515.34
638.17	27304.69
638.32	27487.25
638.46	26857.65
638.61	27030.85
638.76	26998.08
638.91	27058.93
639.06	27143.19
639.20	27307.03
639.35	27405.33
639.50	27339.80
639.65	27606.62
639.80	27400.65
639.94	27222.77
640.09	26789.77
640.24	27190.00
640.39	27236.81
640.54	26794.45
640.68	26871.69
640.83	26962.97
640.98	26991.06
641.13	26574.44
641.27	26745.30
641.42	27051.91
641.57	26792.11
641.72	26955.95
641.86	26962.97
642.01	26724.24
642.16	26684.45
642.31	26401.24
642.45	26960.63
642.60	26560.40
642.75	26527.63
642.90	26569.76
643.04	26597.85
643.19	26338.05
643.34	26820.20
643.48	26890.41
643.63	26562.74
643.78	26778.07
643.93	26787.43
644.07	26700.83
644.22	26670.40
644.37	26710.19
644.51	26410.60
644.66	26930.20
644.81	26419.97
644.95	26527.63
645.10	26656.36
645.25	26345.07
645.39	26188.25
645.54	26630.62
645.69	26508.91
645.83	26473.80
645.98	26324.01
646.13	26558.06
646.27	26246.77
646.42	26342.73
646.57	26373.16
646.71	26670.40
646.86	26054.84
647.00	26450.39
647.15	26249.11
647.30	25837.17
647.44	26087.61
647.59	26525.29
647.74	26134.42
647.88	26162.51
648.03	26312.30
648.17	26670.40
648.32	26417.63
648.47	26590.83
648.61	25827.81
648.76	26441.03
648.90	25968.24
649.05	26298.26
649.20	26099.31
649.34	26223.36
649.49	25881.64
649.63	25776.32
649.78	26118.04
649.92	25970.58
650.07	26202.30
650.21	25799.73
650.36	26221.02
650.51	25876.96
650.65	25909.73
650.80	25834.83
650.94	25965.90
651.09	25876.96
651.23	25500.14
651.38	25729.51
651.52	25570.35
651.67	25408.86
651.81	26024.42
651.96	25816.11
652.10	25743.55
652.25	25661.63
652.39	26174.21
652.54	25640.57
652.68	25965.90
652.83	25605.46
652.97	25954.20
653.12	25518.86
653.26	25390.13
653.41	25785.68
653.55	25717.81
653.70	25626.53
653.84	25614.82
653.99	25720.15
654.13	25188.85
654.27	25549.29
654.42	25645.25
654.56	25425.24
654.71	25783.34
654.85	25355.02
655.00	25610.14
655.14	25418.22
655.29	25284.81
655.43	25586.74
655.57	25303.53
655.72	25146.72
655.86	25443.96
656.01	25333.96
656.15	25106.93
656.30	25207.57
656.44	25160.76
656.58	25324.60
656.73	25104.59
656.87	25083.52
657.01	25518.86
657.16	25479.07
657.30	25610.14
657.45	25511.84
657.59	25235.66
657.73	24989.90
657.88	25193.53
658.02	24809.68
658.16	24833.08
658.31	25123.31
658.45	25165.44
658.60	24425.83
658.74	24739.46
658.88	25120.97
659.03	24680.95
659.17	24687.97
659.31	25069.48
659.46	24971.18
659.60	25123.31
659.74	24837.76
659.89	24957.13
660.03	24463.28
660.17	24727.76
660.32	24580.31
660.46	24636.48
660.60	24388.38
660.74	24652.86
660.89	24474.98
661.03	23978.79
661.17	24692.65
661.32	24477.32
661.46	24425.83
661.60	24367.32
661.74	24325.19
661.89	24535.84
662.03	24491.37
662.17	24493.71
662.31	23955.38
662.46	24299.44
662.60	23782.18
662.74	24498.39
662.88	24060.71
663.03	23583.24
663.17	23999.85
663.31	23606.64
663.45	23688.56
663.60	23978.79
663.74	23871.12
663.88	23557.49
664.02	23915.59
664.17	24065.39
664.31	23662.82
664.45	23981.13
664.59	23674.52
664.73	23962.40
664.88	23583.24
665.02	23431.10
665.16	23360.89
665.30	23901.55
665.44	23398.34
665.59	23171.30
665.73	23524.72
665.87	23573.88
666.01	23337.48
666.15	23426.42
666.29	23278.97
666.44	23180.67
666.58	22778.09
666.72	23386.63
666.86	23365.57
667.00	23307.05
667.14	23325.78
667.28	22918.53
667.43	22920.87
667.57	22930.23
667.71	22670.43
667.85	23173.64
667.99	23070.66
668.13	22738.30
668.27	22876.40
668.41	22967.68
668.56	22773.41
668.70	22951.29
668.84	22946.61
668.98	22658.73
669.12	22778.09
669.26	23304.71
669.40	22438.72
669.54	22700.86
669.68	22867.03
669.82	22565.10
669.96	22530.00
670.10	22192.96
670.25	22319.35
670.39	22342.75
670.53	22335.73
670.67	21991.67
670.81	22274.88
670.95	22274.88
671.09	22239.77
671.23	22181.26
671.37	22202.32
671.51	22183.60
671.65	22134.45
671.79	21998.70
671.93	21937.84
672.07	21764.64
672.21	22010.40
672.35	21713.15
672.49	21673.36
672.63	21921.46
672.77	21467.39
672.91	21631.23
673.05	21488.46
673.19	21781.03
673.33	21696.77
673.47	21214.62
673.61	21324.62
673.75	21614.85
673.89	21539.95
674.03	21371.43
674.17	21125.68
674.31	21245.04
674.45	21179.51
674.59	21081.21
674.73	21355.05
674.87	20840.13
675.01	21296.53
675.15	20671.61
675.29	21032.05
675.43	20959.50
675.56	21125.68
675.70	20790.98
675.84	20755.87
675.98	20395.43
676.12	20709.06
676.26	20936.09
676.40	21043.76
676.54	20535.86
676.68	20418.83
676.82	20297.13
676.96	20507.77
677.10	19985.83
677.23	20264.36
677.37	19953.07
677.51	20262.02
677.65	20084.14
677.79	19901.58
677.93	20018.60
678.07	19850.08
678.21	19983.49
678.34	19672.20
678.48	19545.81
678.62	19711.99
678.76	19463.90
678.90	19314.10
679.04	19613.69
679.18	19456.87
679.31	19098.77
679.45	19035.58
679.59	19386.66
679.73	19063.66
679.87	19377.30
680.00	18902.17
680.14	18792.16
680.28	19051.96
680.42	19122.18
680.56	18923.23
680.70	19122.18
680.83	18860.04
680.97	19012.17
681.11	18518.32
681.25	18698.54
681.39	18590.88
681.52	18794.50
681.66	18443.42
681.80	18293.63
681.94	18544.06
682.07	18200.01
682.21	18188.30
682.35	18195.32
682.49	18122.77
682.62	17921.48
682.76	18148.51
682.90	17820.84
683.04	17942.55
683.17	17696.79
683.31	18019.78
683.45	17975.31
683.59	17867.65
683.72	17998.72
683.86	17816.16
684.00	17626.57
684.13	17708.49
684.27	17467.42
684.41	17652.32
684.55	17521.25
684.68	17247.41
684.82	17334.01
684.96	17053.14
685.09	17233.36
685.23	16898.67
685.37	16814.41
685.50	17050.80
685.64	17137.40
685.78	17130.38
685.91	17116.34
686.05	17149.11
686.19	16992.29
686.32	16957.18
686.46	16554.61
686.60	16753.55
686.73	16519.50
686.87	16379.07
687.01	16416.52
687.14	16460.99
687.28	16140.33
687.42	16182.46
687.55	15929.69
687.69	15967.13
687.82	16039.69
687.96	16081.82
688.10	15976.50
688.23	15978.84
688.37	16037.35
688.50	15950.75
688.64	15737.76
688.78	15917.98
688.91	15929.69
689.05	15859.47
689.18	15391.36
689.32	15332.85
689.46	15424.13
689.59	15257.95
689.73	15442.85
689.86	15206.46
690.00	15047.30
690.13	15222.84
690.27	15147.95
690.41	15119.86
690.54	15021.56
690.68	15112.84
690.81	15044.96
690.95	14941.98
691.08	15131.56
691.22	14949.00
691.35	14909.21
691.49	14623.67
691.62	14787.50
691.76	14682.18
691.89	14403.66
692.03	14230.46
692.16	14424.72
692.30	14305.35
692.43	14160.24
692.57	14164.92
692.70	14295.99
692.84	13886.40
692.97	13963.64
693.11	14125.13
693.24	14319.40
693.38	13895.76
693.51	13987.04
693.65	14005.77
693.78	13516.59
693.92	13872.36
694.05	13778.73
694.19	13525.96
694.32	13528.30
694.45	13617.24
694.59	13661.71
694.72	13441.70
694.86	13142.11
694.99	13228.71
695.13	13132.75
695.26	13135.09
695.39	13081.25
695.53	12954.87
695.66	13062.53
695.80	12891.67
695.93	13165.51
696.07	12954.87
696.20	13020.40
696.33	12968.91
696.47	12863.58
696.60	12730.17
696.73	13029.76
696.87	12556.97
697.00	12603.78
697.14	12580.38
697.27	12311.22
697.40	12198.87
697.54	12472.71
697.67	12245.68
697.80	12196.53
697.94	12013.97
698.07	12147.38
698.21	12196.53
698.34	11978.86
698.47	12177.81
698.61	11796.30
698.74	12210.57
698.87	12173.13
699.01	11852.47
699.14	11805.66
699.27	11899.28
699.40	11599.70
699.54	11793.96
699.67	11660.55
699.80	11573.95
699.94	11400.75
700.07	11246.27
700.20	11438.20
700.34	11262.66
700.47	11370.32
700.60	11253.30
700.73	11370.32
700.87	11194.78
701.00	11110.52
701.13	11077.76
701.26	11197.12
701.40	11126.91
701.53	11150.31
701.66	11087.12
701.79	10930.30
701.93	10785.19
702.06	10537.09
702.19	10579.22
702.32	10644.76
702.46	10476.24
702.59	10558.16
702.72	10279.63
702.85	10619.01
702.99	10408.36
703.12	10373.25
703.25	10544.11
703.38	10188.35
703.51	10228.14
703.65	10370.91
703.78	10150.90
703.91	10399.00
704.04	10284.31
704.17	10267.93
704.31	10251.55
704.44	9921.53
704.57	9919.19
704.70	9919.19
704.83	9811.53
704.96	9713.22
705.10	9724.93
705.23	9680.46
>>>>>End Processed Spectral Data<<<<<
