SpectraSuite Data File
++++++++++++++++++++++++++++++++++++
Date: Fri Oct 18 13:58:03 GMT-05:00 2013
User: bianchi
Dark Spectrum Present: No
Reference Spectrum Present: No
Number of Sampled Component Spectra: 1
Spectrometers: USB2+H05261
Integration Time (usec): 50000 (USB2+H05261)
Spectra Averaged: 1 (USB2+H05261)
Boxcar Smoothing: 0 (USB2+H05261)
Correct for Electrical Dark: No (USB2+H05261)
Strobe/Lamp Enabled: No (USB2+H05261)
Correct for Detector Non-linearity: No (USB2+H05261)
Correct for Stray Light: No (USB2+H05261)
Number of Pixels in Processed Spectrum: 2048
>>>>>Begin Processed Spectral Data<<<<<
365.73	0.00
365.92	0.00
366.12	0.00
366.32	0.00
366.52	0.00
366.72	0.00
366.91	0.00
367.11	0.00
367.31	0.00
367.51	0.00
367.70	0.00
367.90	0.00
368.10	0.00
368.30	0.00
368.49	0.00
368.69	0.00
368.89	0.00
369.09	0.00
369.28	0.00
369.48	0.00
369.68	0.00
369.87	0.00
370.07	0.00
370.27	0.00
370.47	0.00
370.66	91.28
370.86	135.75
371.06	102.98
371.25	149.79
371.45	95.96
371.65	100.64
371.84	138.09
372.04	159.16
372.24	259.80
372.44	133.41
372.63	227.03
372.83	187.24
373.03	187.24
373.22	191.92
373.42	217.67
373.62	147.45
373.81	187.24
374.01	255.12
374.21	266.82
374.40	198.95
374.60	168.52
374.79	180.22
374.99	227.03
375.19	227.03
375.38	269.16
375.58	264.48
375.78	283.20
375.97	259.80
376.17	299.59
376.37	245.76
376.56	276.18
376.76	245.76
376.95	208.31
377.15	285.55
377.35	332.36
377.54	283.20
377.74	278.52
377.93	259.80
378.13	276.18
378.33	315.97
378.52	292.57
378.72	292.57
378.91	315.97
379.11	283.20
379.31	269.16
379.50	257.46
379.70	325.33
379.89	304.27
380.09	292.57
380.28	241.08
380.48	285.55
380.68	250.44
380.87	283.20
381.07	264.48
381.26	238.73
381.46	367.46
381.65	276.18
381.85	360.44
382.04	269.16
382.24	411.93
382.43	351.08
382.63	327.68
382.83	339.38
383.02	367.46
383.22	395.55
383.41	348.74
383.61	365.12
383.80	386.19
384.00	367.46
384.19	425.98
384.39	325.33
384.58	379.17
384.78	346.40
384.97	393.21
385.17	365.12
385.36	367.46
385.56	344.06
385.75	315.97
385.95	360.44
386.14	433.00
386.34	482.15
386.53	353.42
386.72	400.23
386.92	411.93
387.11	423.64
387.31	400.23
387.50	409.59
387.70	456.40
387.89	425.98
388.09	339.38
388.28	528.96
388.48	447.04
388.67	407.25
388.86	484.49
389.06	376.83
389.25	468.11
389.45	484.49
389.64	454.06
389.84	479.81
390.03	456.40
390.22	475.13
390.42	470.45
390.61	472.79
390.81	470.45
391.00	489.17
391.19	592.16
391.39	526.62
391.58	528.96
391.78	550.03
391.97	580.45
392.16	552.37
392.36	528.96
392.55	507.90
392.75	493.85
392.94	528.96
393.13	561.73
393.33	514.92
393.52	510.24
393.71	596.84
393.91	535.98
394.10	514.92
394.29	596.84
394.49	526.62
394.68	545.34
394.88	622.58
395.07	631.94
395.26	617.90
395.46	636.63
395.65	650.67
395.84	608.54
396.04	746.63
396.23	732.59
396.42	608.54
396.62	678.76
396.81	678.76
397.00	592.16
397.19	629.60
397.39	681.10
397.58	692.80
397.77	603.86
397.97	645.99
398.16	695.14
398.35	699.82
398.55	767.70
398.74	737.27
398.93	793.44
399.12	676.41
399.32	676.41
399.51	751.31
399.70	739.61
399.90	709.18
400.09	812.17
400.28	823.87
400.47	744.29
400.67	751.31
400.86	809.83
401.05	751.31
401.24	770.04
401.44	809.83
401.63	755.99
401.82	823.87
402.01	685.78
402.21	854.30
402.40	882.38
402.59	856.64
402.78	849.61
402.97	767.70
403.17	807.48
403.36	861.32
403.55	894.08
403.74	943.24
403.93	868.34
404.13	957.28
404.32	856.64
404.51	971.32
404.70	997.07
404.89	931.53
405.09	968.98
405.28	971.32
405.47	971.32
405.66	905.79
405.85	983.02
406.05	940.90
406.24	1029.84
406.43	987.71
406.62	1144.52
406.81	999.41
407.00	1088.35
407.20	1029.84
407.39	1088.35
407.58	1027.50
407.77	968.98
407.96	1158.57
408.15	1121.12
408.34	1046.22
408.54	1057.92
408.73	1083.67
408.92	1064.94
409.11	1078.99
409.30	1109.41
409.49	1104.73
409.68	1149.20
409.87	1144.52
410.07	1219.42
410.26	1118.78
410.45	1181.97
410.64	1170.27
410.83	1144.52
411.02	1306.02
411.21	1160.91
411.40	1221.76
411.59	1280.27
411.78	1273.25
411.98	1263.89
412.17	1252.19
412.36	1366.87
412.55	1299.00
412.74	1413.68
412.93	1451.13
413.12	1373.89
413.31	1437.09
413.50	1315.38
413.69	1336.45
413.88	1455.81
414.07	1385.60
414.26	1448.79
414.45	1516.67
414.64	1432.41
414.83	1486.24
415.02	1500.28
415.22	1526.03
415.41	1547.09
415.60	1544.75
415.79	1554.12
415.98	1593.90
416.17	1556.46
416.36	1668.80
416.55	1589.22
416.74	1605.61
416.93	1699.23
417.12	1647.74
417.31	1717.95
417.50	1767.10
417.69	1781.15
417.88	1652.42
418.07	1619.65
418.26	1701.57
418.45	1720.29
418.64	1870.09
418.83	1776.47
419.02	1715.61
419.21	1797.53
419.39	1811.57
419.58	1804.55
419.77	1757.74
419.96	1834.98
420.15	1785.83
420.34	1792.85
420.53	1792.85
420.72	1942.64
420.91	1858.39
421.10	1916.90
421.29	1930.94
421.48	1846.68
421.67	2001.16
421.86	1975.41
422.05	1961.37
422.24	1989.46
422.43	1954.35
422.61	2010.52
422.80	1968.39
422.99	1966.05
423.18	2003.50
423.37	2134.57
423.56	2052.65
423.75	2012.86
423.94	2052.65
424.13	1900.52
424.32	2010.52
424.50	2111.16
424.69	2076.06
424.88	2031.58
425.07	2043.29
425.26	2005.84
425.45	2003.50
425.64	1966.05
425.83	2052.65
426.01	1998.82
426.20	2099.46
426.39	2001.16
426.58	1980.09
426.77	2080.74
426.96	2146.27
427.15	1975.41
427.33	2069.03
427.52	2197.76
427.71	2106.48
427.90	2122.87
428.09	2216.49
428.28	2097.12
428.46	2148.61
428.65	2172.02
428.84	2225.85
429.03	2305.43
429.22	2267.98
429.40	2218.83
429.59	2256.28
429.78	2162.66
429.97	2059.67
430.16	2209.47
430.34	2200.10
430.53	2277.34
430.72	2272.66
430.91	2279.68
431.10	2305.43
431.28	2326.49
431.47	2368.62
431.66	2499.69
431.85	2356.92
432.03	2338.20
432.22	2455.22
432.41	2495.01
432.60	2441.18
432.79	2452.88
432.97	2417.77
433.16	2413.09
433.35	2506.71
433.54	2478.63
433.72	2520.76
433.91	2385.01
434.10	2497.35
434.28	2436.50
434.47	2527.78
434.66	2583.95
434.85	2588.63
435.03	2565.23
435.22	2576.93
435.41	2698.64
435.59	2654.17
435.78	2799.28
435.97	2600.34
436.16	2628.42
436.34	2703.32
436.53	2778.22
436.72	2780.56
436.90	2703.32
437.09	2693.96
437.28	2665.87
437.46	2626.08
437.65	2860.13
437.84	2750.13
438.02	2789.92
438.21	2855.45
438.40	2633.10
438.58	2726.72
438.77	2981.84
438.96	2813.32
439.14	2874.18
439.33	3075.46
439.52	2967.80
439.70	2960.78
439.89	3084.83
440.08	3080.14
440.26	3014.61
440.45	3148.02
440.63	3122.27
440.82	3187.81
441.01	3023.97
441.19	3232.28
441.38	3115.25
441.57	3232.28
441.75	3164.40
441.94	3054.40
442.12	3201.85
442.31	3473.36
442.50	3325.90
442.68	3386.76
442.87	3419.52
443.05	3330.58
443.24	3283.77
443.43	3473.36
443.61	3440.59
443.80	3421.86
443.98	3398.46
444.17	3342.28
444.35	3482.72
444.54	3426.54
444.73	3358.67
444.91	3459.31
445.10	3438.25
445.28	3396.12
445.47	3370.37
445.65	3400.80
445.84	3449.95
446.02	3499.10
446.21	3581.02
446.39	3372.71
446.58	3485.06
446.77	3503.78
446.95	3522.51
447.14	3517.83
447.32	3574.00
447.51	3452.29
447.69	3536.55
447.88	3471.01
448.06	3566.98
448.25	3506.12
448.43	3459.31
448.62	3449.95
448.80	3541.23
448.99	3545.91
449.17	3602.08
449.36	3604.42
449.54	3740.18
449.73	3681.66
449.91	3796.35
450.10	3627.83
450.28	3829.12
450.46	3676.98
450.65	3733.15
450.83	3524.85
451.02	3803.37
451.20	3733.15
451.39	3805.71
451.57	3810.39
451.76	3789.33
451.94	3817.41
452.13	3765.92
452.31	3721.45
452.49	3791.67
452.68	3826.78
452.86	3859.54
453.05	4091.26
453.23	3918.06
453.42	3847.84
453.60	3866.56
453.78	4030.40
453.97	3913.38
454.15	3955.51
454.34	3836.14
454.52	4032.74
454.70	4161.47
454.89	4070.19
455.07	4049.13
455.26	4032.74
455.44	4203.60
455.62	4182.54
455.81	4175.52
455.99	4084.23
456.17	4201.26
456.36	4140.41
456.54	4154.45
456.73	4283.18
456.91	4276.16
457.09	4365.10
457.28	4402.55
457.46	4351.06
457.64	4290.20
457.83	4313.61
458.01	4215.30
458.19	4435.32
458.38	4498.51
458.56	4449.36
458.74	4484.47
458.93	4367.44
459.11	4489.15
459.29	4297.22
459.48	4470.42
459.66	4571.07
459.84	4465.74
460.03	4447.02
460.21	4559.36
460.39	4559.36
460.57	4456.38
460.76	4774.69
460.94	4594.47
461.12	4519.57
461.31	4643.62
461.49	4683.41
461.67	4704.48
461.85	4723.20
462.04	4608.51
462.22	5034.49
462.40	4805.12
462.59	4690.43
462.77	4674.05
462.95	4791.08
463.13	4826.18
463.32	5006.41
463.50	4671.71
463.68	4767.67
463.86	4873.00
464.05	4863.63
464.23	4762.99
464.41	4924.49
464.59	4849.59
464.78	5039.17
464.96	4849.59
465.14	4973.64
465.32	5095.35
465.50	4992.36
465.69	5233.44
465.87	5020.45
466.05	4847.25
466.23	5069.60
466.41	5069.60
466.60	5301.31
466.78	5116.41
466.96	5121.09
467.14	5123.43
467.32	5172.58
467.51	5121.09
467.69	4999.38
467.87	5123.43
468.05	5343.44
468.23	5177.26
468.41	5153.86
468.60	5366.85
468.78	5233.44
468.96	5163.22
469.14	5390.25
469.32	5467.49
469.50	5081.30
469.69	5198.33
469.87	5383.23
470.05	5427.70
470.23	5530.69
470.41	5406.64
470.59	5547.07
470.77	5406.64
470.95	5303.65
471.14	5675.80
471.32	5467.49
471.50	5795.17
471.68	5465.15
471.86	5605.58
472.04	5825.59
472.22	5762.40
472.40	5523.66
472.58	5671.12
472.77	5849.00
472.95	5748.36
473.13	6001.13
473.31	5827.93
473.49	5806.87
473.67	5870.06
473.85	5872.40
474.03	6122.84
474.21	6076.03
474.39	5951.98
474.57	6083.05
474.75	6108.80
474.93	6289.02
475.12	6190.72
475.30	6155.61
475.48	6153.27
475.66	6317.11
475.84	6282.00
476.02	6504.35
476.20	6237.53
476.38	6684.57
476.56	6670.53
476.74	6651.80
476.92	6588.61
477.10	6572.22
477.28	6586.27
477.46	6616.69
477.64	6761.81
477.82	6738.40
478.00	7033.31
478.18	6974.80
478.36	7152.68
478.54	6965.43
478.72	7126.93
478.90	7201.83
479.08	7108.21
479.26	7276.73
479.44	7295.45
479.62	7337.58
479.80	7478.01
479.98	7440.56
480.16	7550.57
480.34	7630.15
480.52	7683.98
480.70	7571.63
480.88	7506.10
481.06	7660.57
481.24	7751.85
481.41	7915.69
481.59	8161.45
481.77	8142.72
481.95	8051.44
482.13	8112.30
482.31	8191.88
482.49	8341.67
482.67	8322.94
482.85	8336.99
483.03	8409.54
483.21	8596.79
483.39	8652.96
483.57	8641.26
483.74	8571.04
483.92	8814.46
484.10	8688.07
484.28	9006.38
484.46	8903.40
484.64	9151.49
484.82	8865.95
485.00	9254.48
485.18	9298.95
485.35	9476.83
485.53	9469.81
485.71	9245.12
485.89	9666.41
486.07	9500.23
486.25	9886.42
486.43	9884.08
486.61	9975.36
486.78	9860.68
486.96	10054.94
487.14	10036.22
487.32	10097.07
487.50	10246.87
487.68	10143.88
487.85	10396.66
488.03	10413.04
488.21	10541.77
488.39	10574.54
488.57	10736.04
488.75	10792.21
488.92	11007.54
489.10	10925.62
489.28	11007.54
489.46	11091.80
489.64	11002.86
489.81	11400.75
489.99	11211.17
490.17	11199.46
490.35	11382.03
490.53	11370.32
490.70	11791.62
490.88	11669.91
491.06	11559.91
491.24	11648.85
491.41	12023.33
491.59	12182.49
491.77	12042.06
491.95	12233.98
492.13	12311.22
492.30	12489.10
492.48	12348.67
492.66	12409.52
492.84	12437.61
493.01	12683.36
493.19	12547.61
493.37	12835.50
493.54	12636.55
493.72	12971.25
493.90	13022.74
494.08	12952.52
494.25	13146.79
494.43	13291.90
494.61	13497.87
494.79	13568.09
494.96	13614.90
495.14	13586.81
495.32	13874.70
495.49	13570.43
495.67	13933.21
495.85	14001.08
496.02	14036.19
496.20	14092.37
496.38	13968.32
496.55	14101.73
496.73	14190.67
496.91	14424.72
497.09	14354.51
497.26	14457.49
497.44	14139.18
497.62	14551.11
497.79	14590.90
497.97	14525.36
498.14	14717.29
498.32	14953.68
498.50	14960.70
498.67	15197.10
498.85	14630.69
499.03	14815.59
499.20	14890.49
499.38	14902.19
499.56	15101.14
499.73	15183.06
499.91	15445.20
500.08	15396.04
500.26	15370.30
500.44	15723.72
500.61	15489.67
500.79	15810.32
500.97	15922.66
501.14	15815.00
501.32	15836.06
501.49	15889.90
501.67	15960.11
501.84	16077.14
502.02	16233.96
502.20	16290.13
502.37	16346.30
502.55	16217.57
502.72	16159.06
502.90	16393.11
503.07	16161.40
503.25	16257.36
503.43	16290.13
503.60	16407.16
503.78	16631.85
503.95	16840.15
504.13	16393.11
504.30	16812.07
504.48	16767.60
504.65	16751.21
504.83	17221.66
505.01	17216.98
505.18	17123.36
505.36	17247.41
505.53	17081.23
505.71	17397.20
505.88	17158.47
506.06	16950.16
506.23	17315.28
506.41	17617.21
506.58	17568.06
506.76	17439.33
506.93	17479.12
507.11	17434.65
507.28	17649.98
507.46	17888.71
507.63	17769.35
507.81	17947.23
507.98	17874.67
508.16	18029.15
508.33	17982.34
508.50	18106.38
508.68	18167.24
508.85	18202.35
509.03	18232.77
509.20	18314.69
509.38	18427.04
509.55	18752.37
509.73	18160.22
509.90	18441.08
510.08	18579.17
510.25	18352.14
510.42	18644.71
510.60	18923.23
510.77	19019.19
510.95	18785.14
511.12	18508.96
511.30	18724.29
511.47	19066.00
511.64	18677.48
511.82	19040.26
511.99	18850.67
512.17	19185.37
512.34	19356.23
512.51	19389.00
512.69	19286.01
512.86	19176.01
513.04	19606.67
513.21	19470.92
513.38	19501.34
513.56	19651.14
513.73	19346.87
513.90	19550.49
514.08	19417.08
514.25	19887.53
514.43	19723.69
514.60	19756.46
514.77	20056.05
514.95	20276.06
515.12	20166.06
515.29	19934.34
515.47	20273.72
515.64	20112.22
515.81	20231.59
515.99	20503.09
516.16	20599.05
516.33	20402.45
516.51	20561.61
516.68	20393.09
516.85	19934.34
517.03	20582.67
517.20	20549.90
517.37	20442.24
517.54	20767.57
517.72	20730.12
517.89	20830.77
518.06	20982.90
518.24	20629.48
518.41	21097.59
518.58	21032.05
518.75	20854.17
518.93	20938.43
519.10	20711.40
519.27	21090.57
519.45	20739.49
519.62	21462.71
519.79	21345.69
519.96	21329.30
520.14	21532.93
520.31	21275.47
520.48	21493.14
520.65	21530.59
520.83	21551.65
521.00	21717.83
521.17	21366.75
521.34	21687.40
521.52	21556.33
521.69	21799.75
521.86	22010.40
522.03	22361.48
522.20	21914.44
522.38	22024.44
522.55	22038.48
522.72	22160.19
522.89	21879.33
523.07	22480.85
523.24	21996.35
523.41	22466.80
523.58	22001.04
523.75	22530.00
523.92	22314.67
524.10	22347.44
524.27	22361.48
524.44	22759.37
524.61	22759.37
524.78	22532.34
524.96	22532.34
525.13	22738.30
525.30	22689.15
525.47	22930.23
525.64	22815.54
525.81	23014.49
525.98	22906.82
526.16	23033.21
526.33	22710.22
526.50	23007.47
526.67	23159.60
526.84	22979.38
527.01	22960.66
527.18	23351.52
527.36	23288.33
527.53	23461.53
527.70	23690.90
527.87	23250.88
528.04	23506.00
528.21	23192.37
528.38	23276.63
528.55	23187.69
528.72	23538.77
528.89	23735.37
529.07	23456.85
529.24	23805.59
529.41	23941.34
529.58	23506.00
529.75	23318.76
529.92	23803.25
530.09	23901.55
530.26	24156.67
530.43	23625.37
530.60	23983.47
530.77	23566.85
530.94	23941.34
531.11	23651.11
531.28	23686.22
531.46	24093.47
531.63	24140.29
531.80	24271.36
531.97	24215.18
532.14	24549.88
532.31	24339.23
532.48	24222.20
532.65	24095.82
532.82	24011.56
532.99	24182.42
533.16	24596.69
533.33	24620.10
533.50	24594.35
533.67	24446.90
533.84	24512.43
534.01	24456.26
534.18	24606.05
534.35	24739.46
534.52	24961.81
534.69	24882.24
534.86	24812.02
535.03	24954.79
535.20	24767.55
535.37	24999.26
535.54	25078.84
535.71	24741.80
535.88	25034.37
536.05	25017.99
536.22	24940.75
536.38	25064.80
536.55	25120.97
536.72	25275.45
536.89	25240.34
537.06	25202.89
537.23	25259.06
537.40	25392.47
537.57	25240.34
537.74	25163.10
537.91	25420.56
538.08	25394.81
538.25	25144.38
538.42	25446.30
538.59	25495.46
538.75	25179.48
538.92	25586.74
539.09	25689.72
539.26	25490.77
539.43	25462.69
539.60	25778.66
539.77	25422.90
539.94	25638.23
540.11	25944.84
540.28	25759.94
540.44	25699.08
540.61	25542.27
540.78	25879.30
540.95	25844.20
541.12	25886.32
541.29	26204.64
541.46	25996.33
541.62	25743.55
541.79	26143.78
541.96	25818.45
542.13	25827.81
542.30	26134.42
542.47	26457.42
542.63	26312.30
542.80	26473.80
542.97	26707.85
543.14	26815.52
543.31	26431.67
543.48	26295.92
543.64	26651.68
543.81	26801.47
543.98	26787.43
544.15	26522.95
544.32	26621.25
544.48	26916.16
544.65	26558.06
544.82	26567.42
544.99	26595.51
545.16	26448.05
545.32	26590.83
545.49	26881.05
545.66	27274.26
545.83	26941.91
546.00	26972.33
546.16	27080.00
546.33	26859.99
546.50	26817.86
546.67	27058.93
546.83	26724.24
547.00	27044.89
547.17	27225.11
547.34	27292.99
547.50	27218.09
547.67	27786.84
547.84	27283.62
548.00	26883.39
548.17	27117.45
548.34	27337.46
548.51	27353.84
548.67	27454.48
548.84	27363.20
549.01	27454.48
549.18	27168.94
549.34	27480.23
549.51	27969.40
549.68	27391.29
549.84	27735.35
550.01	27569.17
550.18	27388.95
550.34	27644.07
550.51	27711.94
550.68	28074.73
550.84	27718.96
551.01	27543.42
551.18	27463.85
551.34	27948.34
551.51	27634.71
551.68	27658.11
551.84	27740.03
552.01	27885.14
552.18	27751.73
552.34	27922.59
552.51	27868.76
552.68	27978.76
552.84	28046.64
553.01	28093.45
553.18	28060.68
553.34	28041.96
553.51	27824.29
553.67	28177.71
553.84	28278.35
554.01	28205.80
554.17	28460.91
554.34	28388.36
554.51	28105.15
554.67	28072.39
554.84	28276.01
555.00	28229.20
555.17	28140.26
555.33	28268.99
555.50	28364.95
555.67	28362.61
555.83	28680.92
556.00	28505.38
556.16	28732.42
556.33	28236.22
556.50	28425.81
556.66	28737.10
556.83	28591.98
556.99	28858.81
557.16	28591.98
557.32	28823.70
557.49	28786.25
557.65	28491.34
557.82	28601.35
557.98	28985.19
558.15	28809.65
558.32	29013.28
558.48	28821.36
558.65	28861.15
558.81	29069.45
558.98	28631.77
559.14	29076.48
559.31	28599.01
559.47	29078.82
559.64	28978.17
559.80	29132.65
559.97	29076.48
560.13	28739.44
560.30	28701.99
560.46	29191.16
560.63	29036.69
560.79	29102.22
560.96	29380.74
561.12	28900.94
561.29	29127.97
561.45	29193.50
561.61	28641.14
561.78	29024.98
561.94	29050.73
562.11	28957.11
562.27	29137.33
562.44	29284.78
562.60	29071.79
562.77	29102.22
562.93	28783.91
563.10	29333.93
563.26	29511.81
563.42	29411.17
563.59	29109.24
563.75	29347.98
563.92	29383.09
564.08	29177.12
564.24	29200.52
564.41	29092.86
564.57	29289.46
564.74	29357.34
564.90	29692.04
565.07	29432.24
565.23	29516.50
565.39	29577.35
565.56	29436.92
565.72	29488.41
565.88	29610.12
566.05	29198.18
566.21	29244.99
566.38	29558.63
566.54	29553.94
566.70	29940.13
566.87	29607.78
567.03	29715.44
567.19	30052.48
567.36	29785.66
567.52	29418.19
567.68	29713.10
567.85	29816.08
568.01	29916.73
568.17	29626.50
568.34	30000.99
568.50	29635.86
568.66	29680.33
568.83	29579.69
568.99	29748.21
569.15	29202.86
569.32	29521.18
569.48	29560.97
569.64	29546.92
569.81	29778.64
569.97	29881.62
570.13	29912.05
570.30	29682.67
570.46	29998.65
570.62	29717.78
570.78	29827.79
570.95	29888.64
571.11	29397.13
571.27	29825.45
571.43	29495.43
571.60	29820.77
571.76	29694.38
571.92	29717.78
572.09	29689.70
572.25	30153.12
572.41	29951.84
572.57	29633.52
572.74	29778.64
572.90	29549.26
573.06	30059.50
573.22	30244.40
573.38	29888.64
573.55	30040.78
573.71	29961.20
573.87	30132.06
574.03	30218.66
574.20	30377.81
574.36	29729.48
574.52	29996.31
574.68	29912.05
574.84	29689.70
575.01	30031.41
575.17	30263.13
575.33	29703.74
575.49	29830.13
575.65	29750.55
575.82	30237.38
575.98	29818.42
576.14	30026.73
576.30	29956.52
576.46	29771.61
576.62	29818.42
576.79	29855.87
576.95	30054.82
577.11	29956.52
577.27	30396.54
577.43	30183.55
577.59	29659.27
577.75	30078.22
577.92	29879.28
578.08	29762.25
578.24	29907.37
578.40	29776.30
578.56	30040.78
578.72	30092.27
578.88	30433.99
579.04	30192.91
579.21	29909.71
579.37	30199.93
579.53	30127.38
579.69	29734.17
579.85	30068.86
580.01	29867.58
580.17	29558.63
580.33	30162.48
580.49	30518.25
580.65	30328.66
580.82	30267.81
580.98	30103.97
581.14	30005.67
581.30	30352.07
581.46	29872.26
581.62	29961.20
581.78	30202.27
581.94	30068.86
582.10	29888.64
582.26	30085.25
582.42	30160.14
582.58	30366.11
582.74	30312.28
582.90	30267.81
583.06	30162.48
583.22	30396.54
583.38	30103.97
583.54	30321.64
583.70	30300.58
583.86	30190.57
584.02	29905.02
584.18	30548.67
584.34	30162.48
584.50	30536.97
584.66	30270.15
584.82	29551.60
584.98	30448.03
585.14	30178.87
585.30	30139.08
585.46	30017.37
585.62	29869.92
585.78	30565.06
585.94	29968.22
586.10	30251.42
586.26	30206.95
586.42	30579.10
586.58	30267.81
586.74	30279.51
586.90	29958.86
587.06	29848.85
587.22	30181.21
587.38	30115.67
587.54	30314.62
587.70	30794.43
587.86	30274.83
588.02	30710.17
588.18	30532.29
588.34	30466.75
588.49	30522.93
588.65	30347.39
588.81	30260.79
588.97	30263.13
589.13	30433.99
589.29	30312.28
589.45	30448.03
589.61	30642.29
589.77	30642.29
589.93	30614.21
590.08	30906.77
590.24	30469.09
590.40	30691.44
590.56	30469.09
590.72	30480.80
590.88	30677.40
591.04	30485.48
591.20	30829.54
591.35	30637.61
591.51	30998.06
591.67	30787.41
591.83	31110.40
591.99	30899.75
592.15	30918.48
592.31	30806.13
592.46	30771.02
592.62	30494.84
592.78	30775.70
592.94	30242.06
593.10	30707.83
593.26	30939.54
593.41	31058.91
593.57	30506.54
593.73	30457.39
593.89	30422.28
594.05	30752.30
594.20	30843.58
594.36	30785.07
594.52	30780.39
594.68	30536.97
594.84	30410.58
594.99	30801.45
595.15	30829.54
595.31	31117.42
595.47	30595.48
595.62	30682.08
595.78	30967.63
595.94	30700.81
596.10	31019.12
596.25	30492.50
596.41	30700.81
596.57	30604.84
596.73	30139.08
596.88	30462.07
597.04	31065.93
597.20	31119.76
597.36	30698.47
597.51	31072.95
597.67	30581.44
597.83	30892.73
597.99	30991.03
598.14	30464.41
598.30	30532.29
598.46	30792.09
598.61	30616.55
598.77	30494.84
598.93	30621.23
599.09	30562.72
599.24	31009.76
599.40	31028.48
599.56	31213.38
599.71	30892.73
599.87	30955.93
600.03	30904.43
600.18	30668.04
600.34	31096.36
600.50	31014.44
600.65	30787.41
600.81	31040.18
600.97	31311.69
601.12	30747.62
601.28	31241.47
601.44	31049.55
601.59	30890.39
601.75	30871.67
601.91	31063.59
602.06	30972.31
602.22	30923.16
602.37	30831.88
602.53	30469.09
602.69	30764.00
602.84	30768.68
603.00	30944.22
603.16	31033.16
603.31	31021.46
603.47	30864.64
603.62	30665.70
603.78	30822.51
603.94	30714.85
604.09	30738.26
604.25	30642.29
604.40	31068.27
604.56	30717.19
604.71	30864.64
604.87	30855.28
605.03	30630.59
605.18	30656.34
605.34	31063.59
605.49	30551.01
605.65	30604.84
605.80	30450.37
605.96	30909.11
606.12	30431.65
606.27	30789.75
606.43	30759.32
606.58	30686.76
606.74	30518.25
606.89	30939.54
607.05	30689.10
607.20	30962.95
607.36	30859.96
607.51	30721.87
607.67	30504.20
607.82	30771.02
607.98	30485.48
608.13	30885.71
608.29	30820.17
608.44	30731.23
608.60	30705.49
608.75	31007.42
608.91	30405.90
609.06	30808.47
609.22	30955.93
609.37	30181.21
609.53	30607.19
609.68	30714.85
609.84	30876.35
609.99	30405.90
610.15	30408.24
610.30	30668.04
610.46	30782.73
610.61	30611.87
610.76	30541.65
610.92	30764.00
611.07	30581.44
611.23	30452.71
611.38	30307.60
611.54	30394.20
611.69	30448.03
611.84	30361.43
612.00	30377.81
612.15	30213.98
612.31	30487.82
612.46	30448.03
612.62	30342.70
612.77	30464.41
612.92	30941.88
613.08	30632.93
613.23	30555.69
613.39	30192.91
613.54	30251.42
613.69	30087.59
613.85	30206.95
614.00	30373.13
614.15	30501.86
614.31	30307.60
614.46	30588.46
614.62	30160.14
614.77	30382.49
614.92	30548.67
615.08	30333.34
615.23	30195.25
615.38	30221.00
615.54	30199.93
615.69	29937.79
615.84	29968.22
616.00	30052.48
616.15	30064.18
616.30	30129.72
616.46	29670.97
616.61	29680.33
616.76	30312.28
616.92	29624.16
617.07	30160.14
617.22	29720.12
617.37	29731.83
617.53	30024.39
617.68	29937.79
617.83	29722.46
617.99	30232.70
618.14	29666.29
618.29	30085.25
618.45	29804.38
618.60	29893.32
618.75	29771.61
618.90	29888.64
619.06	29876.94
619.21	30153.12
619.36	29745.87
619.51	29710.76
619.67	29731.83
619.82	29846.51
619.97	29528.20
620.12	29490.75
620.28	29404.15
620.43	29902.68
620.58	29991.62
620.73	29621.82
620.89	29628.84
621.04	29486.07
621.19	29638.20
621.34	29872.26
621.49	29233.29
621.65	29216.91
621.80	29638.20
621.95	29343.30
622.10	29488.41
622.25	29589.05
622.41	29378.40
622.56	29280.10
622.71	29387.77
622.86	29453.30
623.01	29518.84
623.16	29633.52
623.32	29041.37
623.47	29319.89
623.62	29652.25
623.77	29481.39
623.92	29106.90
624.07	29109.24
624.23	29443.94
624.38	29167.76
624.53	29340.96
624.68	29446.28
624.83	29387.77
624.98	29394.79
625.13	29120.95
625.29	29699.06
625.44	29509.47
625.59	29287.12
625.74	29476.71
625.89	29127.97
626.04	28458.57
626.19	28947.75
626.34	29057.75
626.49	28741.78
626.65	29067.11
626.80	29153.71
626.95	29139.67
627.10	29069.45
627.25	28966.47
627.40	29104.56
627.55	28823.70
627.70	28783.91
627.85	28451.55
628.00	28903.28
628.15	28676.24
628.30	28905.62
628.45	28706.67
628.60	28606.03
628.76	28922.00
628.91	29043.71
629.06	28673.90
629.21	28608.37
629.36	28882.21
629.51	28407.08
629.66	28669.22
629.81	28599.01
629.96	28238.56
630.11	28797.95
630.26	28664.54
630.41	28591.98
630.56	28421.13
630.71	28643.48
630.86	28369.63
631.01	28250.27
631.16	28631.77
631.31	28676.24
631.46	28093.45
631.61	28687.95
631.76	28364.95
631.91	28367.29
632.06	28402.40
632.21	28058.34
632.36	28063.02
632.51	28060.68
632.66	28175.37
632.81	28011.53
632.96	28407.08
633.10	28201.11
633.25	28278.35
633.40	28493.68
633.55	28086.43
633.70	27810.25
633.85	28297.08
634.00	28105.15
634.15	27992.81
634.30	27929.61
634.45	28137.92
634.60	28301.76
634.75	27978.76
634.90	28168.35
635.05	28151.96
635.19	28046.64
635.34	28297.08
635.49	28081.75
635.64	27936.63
635.79	27843.01
635.94	27887.48
636.09	28074.73
636.24	27908.55
636.39	27847.69
636.53	27765.78
636.68	27601.94
636.83	27906.21
636.98	28063.02
637.13	27807.90
637.28	27763.43
637.43	27978.76
637.57	27798.54
637.72	28121.54
637.87	28088.77
638.02	27428.74
638.17	28053.66
638.32	27646.41
638.46	27393.63
638.61	27180.64
638.76	27197.02
638.91	27211.07
639.06	27356.18
639.20	27763.43
639.35	27503.64
639.50	27805.56
639.65	27796.20
639.80	27648.75
639.94	27463.85
640.09	27260.22
640.24	27407.67
640.39	27297.67
640.54	27077.66
640.68	27056.59
640.83	27283.62
640.98	26991.06
641.13	27185.32
641.27	27269.58
641.42	27147.87
641.57	26885.73
641.72	27353.84
641.86	27157.24
642.01	27136.17
642.16	26792.11
642.31	27026.17
642.45	27225.11
642.60	26693.81
642.75	26967.65
642.90	26934.88
643.04	26862.33
643.19	26993.40
643.34	27040.21
643.48	27281.28
643.63	27019.14
643.78	26909.14
643.93	27133.83
644.07	27269.58
644.22	27101.06
644.37	26820.20
644.51	26934.88
644.66	26855.31
644.81	27056.59
644.95	26621.25
645.10	26614.23
645.25	26419.97
645.39	26764.03
645.54	26789.77
645.69	26742.96
645.83	26747.64
645.98	27105.74
646.13	26885.73
646.27	26857.65
646.42	26649.34
646.57	26522.95
646.71	26527.63
646.86	26593.17
647.00	26536.99
647.15	27002.76
647.30	26693.81
647.44	26794.45
647.59	26298.26
647.74	26677.43
647.88	26831.90
648.03	26576.78
648.17	26890.41
648.32	26529.97
648.47	26434.01
648.61	26455.08
648.76	26480.82
648.90	26417.63
649.05	26675.09
649.20	26008.03
649.34	26270.17
649.49	26108.68
649.63	25947.18
649.78	26429.33
649.92	26195.28
650.07	26284.22
650.21	26321.66
650.36	26387.20
650.51	26146.12
650.65	26029.10
650.80	26403.58
650.94	26183.57
651.09	26160.17
651.23	25844.20
651.38	26040.80
651.52	26164.85
651.67	26106.34
651.81	26162.51
651.96	25982.29
652.10	26024.42
652.25	26251.45
652.39	26408.26
652.54	26302.94
652.68	25851.22
652.83	25986.97
652.97	26106.34
653.12	26307.62
653.26	25846.54
653.41	25766.96
653.55	25741.21
653.70	25933.14
653.84	25979.95
653.99	25811.43
654.13	25638.23
654.27	26134.42
654.42	25666.31
654.56	25619.50
654.71	26010.37
654.85	25610.14
655.00	25802.07
655.14	25568.01
655.29	25963.56
655.43	25921.43
655.57	25469.71
655.72	25816.11
655.86	25841.85
656.01	25626.53
656.15	25633.55
656.30	25589.08
656.44	25909.73
656.58	25188.85
656.73	25397.15
656.87	25324.60
657.01	25240.34
657.16	25598.44
657.30	25458.01
657.45	25172.46
657.59	25530.56
657.73	25539.93
657.88	25434.60
658.02	25200.55
658.16	25207.57
658.31	25076.50
658.45	25371.41
658.60	25259.06
658.74	25111.61
658.88	25380.77
659.03	25284.81
659.17	24896.28
659.31	25113.95
659.46	25242.68
659.60	24957.13
659.74	25106.93
659.89	25015.65
660.03	24840.11
660.17	25135.01
660.32	24840.11
660.46	24821.38
660.60	24615.41
660.74	24624.78
660.89	24903.30
661.03	24730.10
661.17	24442.21
661.32	24250.29
661.46	24847.13
661.60	24711.38
661.74	24795.64
661.89	24634.14
662.03	24617.75
662.17	24592.01
662.31	24325.19
662.46	24503.07
662.60	24582.65
662.74	24547.54
662.88	24400.08
663.03	23978.79
663.17	24325.19
663.31	24156.67
663.45	24151.99
663.60	23873.46
663.74	23903.89
663.88	24259.65
664.02	24350.93
664.17	24439.87
664.31	23943.68
664.45	24114.54
664.59	23889.85
664.73	24233.91
664.88	24056.03
665.02	23653.45
665.16	23618.35
665.30	24091.13
665.44	23805.59
665.59	23843.04
665.73	23466.21
665.87	23513.02
666.01	24011.56
666.15	23868.78
666.29	23690.90
666.44	23782.18
666.58	23098.75
666.72	23367.91
666.86	23946.02
667.00	23461.53
667.14	23412.38
667.28	23386.63
667.43	23396.00
667.57	23594.94
667.71	23360.89
667.85	22981.72
667.99	23463.87
668.13	23356.21
668.27	23271.95
668.41	23388.97
668.56	23140.88
668.70	23335.14
668.84	23194.71
668.98	23454.51
669.12	23110.45
669.26	23271.95
669.40	22984.06
669.54	23122.15
669.68	22761.71
669.82	22389.56
669.96	22824.90
670.10	22735.96
670.25	22836.61
670.39	22668.09
670.53	22625.96
670.67	22228.07
670.81	22504.25
670.95	22363.82
671.09	22270.20
671.23	22717.24
671.37	22501.91
671.51	22389.56
671.65	22445.74
671.79	21998.70
671.93	22309.99
672.07	22506.59
672.21	22469.14
672.35	22075.93
672.49	22146.15
672.63	21862.94
672.77	22136.79
672.91	21593.78
673.05	21879.33
673.19	21752.94
673.33	21860.60
673.47	21748.26
673.61	21949.54
673.75	21848.90
673.89	21738.90
674.03	21708.47
674.17	21633.57
674.31	21525.91
674.45	21607.83
674.59	21411.22
674.73	21766.98
674.87	21158.44
675.01	21385.47
675.15	21420.58
675.29	21355.05
675.43	20992.26
675.56	20924.39
675.70	21043.76
675.84	21081.21
675.98	20554.58
676.12	21263.77
676.26	21135.04
676.40	21268.45
676.54	20933.75
676.68	21067.16
676.82	20285.42
676.96	20889.28
677.10	20744.17
677.23	20507.77
677.37	20535.86
677.51	20563.95
677.65	20411.81
677.79	20395.43
677.93	20432.88
678.07	20299.47
678.21	20175.42
678.34	20116.90
678.48	19939.02
678.62	19927.32
678.76	19772.85
678.90	19939.02
679.04	19683.91
679.18	19903.92
679.31	19494.32
679.45	19548.15
679.59	19700.29
679.73	19768.16
679.87	19281.33
680.00	19473.26
680.14	19360.91
680.28	19377.30
680.42	19344.53
680.56	19183.03
680.70	19318.78
680.83	19080.05
680.97	19267.29
681.11	18803.86
681.25	19066.00
681.39	18946.64
681.52	18827.27
681.66	18665.77
681.80	18668.11
681.94	18590.88
682.07	18876.42
682.21	18572.15
682.35	18391.93
682.49	18310.01
682.62	18459.81
682.76	18127.45
682.90	18415.34
683.04	18317.03
683.17	18113.41
683.31	18134.47
683.45	18345.12
683.59	18284.26
683.72	18092.34
683.86	17874.67
684.00	18017.44
684.13	17930.84
684.27	17717.86
684.41	17619.55
684.55	17589.13
684.68	17523.59
684.82	17472.10
684.96	17481.46
685.09	17458.06
685.23	17305.92
685.37	17242.73
685.50	17502.53
685.64	17586.79
685.78	17074.21
685.91	17422.95
686.05	17434.65
686.19	17130.38
686.32	17146.76
686.46	16716.11
686.60	16835.47
686.73	16837.81
686.87	16566.31
687.01	16430.56
687.14	16643.55
687.28	16517.16
687.42	16240.98
687.55	16500.78
687.69	16449.28
687.82	16463.33
687.96	16116.93
688.10	16243.32
688.23	16102.89
688.37	16315.87
688.50	16287.79
688.64	16112.25
688.78	15880.53
688.91	15805.64
689.05	15894.58
689.18	15906.28
689.32	15527.11
689.46	15618.39
689.59	15564.56
689.73	15580.95
689.86	15353.91
690.00	15440.51
690.13	15435.83
690.27	15204.12
690.41	15393.70
690.54	15328.17
690.68	14951.34
690.81	15054.33
690.95	15110.50
691.08	15077.73
691.22	15087.09
691.35	14956.02
691.49	14888.15
691.62	15131.56
691.76	14806.23
691.89	14817.93
692.03	14450.47
692.16	14658.78
692.30	14630.69
692.43	14511.32
692.57	14448.13
692.70	14551.11
692.84	14541.75
692.97	14331.10
693.11	14506.64
693.24	14155.56
693.38	14354.51
693.51	14148.54
693.65	14029.17
693.78	13823.20
693.92	14071.30
694.05	14075.98
694.19	13781.07
694.32	14001.08
694.45	13706.18
694.59	13535.32
694.72	13589.15
694.86	13460.42
694.99	13209.98
695.13	13312.97
695.26	13277.86
695.39	13235.73
695.53	13392.55
695.66	13301.26
695.80	13472.12
695.93	13483.83
696.07	13397.23
696.20	13064.87
696.33	13060.19
696.47	12929.12
696.60	12849.54
696.73	12912.74
696.87	12812.09
697.00	12807.41
697.14	12627.19
697.27	12432.93
697.40	12346.33
697.54	12294.83
697.67	12329.94
697.80	12269.09
697.94	12161.42
698.07	12210.57
698.21	12411.86
698.34	12219.94
698.47	12224.62
698.61	12262.07
698.74	12173.13
698.87	11948.43
699.01	12109.93
699.14	11943.75
699.27	11906.31
699.40	11936.73
699.54	11808.00
699.67	11859.49
699.80	11660.55
699.94	11658.21
700.07	11892.26
700.20	11482.67
700.34	11618.42
700.47	11286.06
700.60	11410.11
700.73	11367.98
700.87	11260.32
701.00	11477.99
701.13	11363.30
701.26	11358.62
701.40	11262.66
701.53	11084.78
701.66	11218.19
701.79	10899.87
701.93	11026.26
702.06	10810.93
702.19	11080.10
702.32	10745.40
702.46	10942.00
702.59	10590.92
702.72	10560.50
702.85	10738.38
702.99	10551.14
703.12	10497.30
703.25	10338.15
703.38	10469.22
703.51	10466.88
703.65	10312.40
703.78	10274.95
703.91	10443.47
704.04	10396.66
704.17	10399.00
704.31	10237.50
704.44	10139.20
704.57	9933.23
704.70	10005.79
704.83	9703.86
704.96	9879.40
705.10	9886.42
705.23	9575.13
>>>>>End Processed Spectral Data<<<<<
