SpectraSuite Data File
++++++++++++++++++++++++++++++++++++
Date: Fri Oct 18 13:58:31 GMT-05:00 2013
User: bianchi
Dark Spectrum Present: No
Reference Spectrum Present: No
Number of Sampled Component Spectra: 1
Spectrometers: USB2+H05261
Integration Time (usec): 50000 (USB2+H05261)
Spectra Averaged: 1 (USB2+H05261)
Boxcar Smoothing: 0 (USB2+H05261)
Correct for Electrical Dark: No (USB2+H05261)
Strobe/Lamp Enabled: No (USB2+H05261)
Correct for Detector Non-linearity: No (USB2+H05261)
Correct for Stray Light: No (USB2+H05261)
Number of Pixels in Processed Spectrum: 2048
>>>>>Begin Processed Spectral Data<<<<<
365.73	0.00
365.92	0.00
366.12	0.00
366.32	0.00
366.52	0.00
366.72	0.00
366.91	0.00
367.11	0.00
367.31	0.00
367.51	0.00
367.70	0.00
367.90	0.00
368.10	0.00
368.30	0.00
368.49	0.00
368.69	0.00
368.89	0.00
369.09	0.00
369.28	0.00
369.48	0.00
369.68	0.00
369.87	0.00
370.07	0.00
370.27	0.00
370.47	0.00
370.66	7.02
370.86	77.24
371.06	102.98
371.25	107.66
371.45	11.70
371.65	149.79
371.84	198.95
372.04	74.90
372.24	138.09
372.44	201.29
372.63	161.50
372.83	203.63
373.03	140.43
373.22	210.65
373.42	203.63
373.62	208.31
373.81	212.99
374.01	299.59
374.21	184.90
374.40	227.03
374.60	266.82
374.79	231.71
374.99	229.37
375.19	257.46
375.38	217.67
375.58	229.37
375.78	220.01
375.97	285.55
376.17	252.78
376.37	231.71
376.56	238.73
376.76	180.22
376.95	205.97
377.15	203.63
377.35	245.76
377.54	234.05
377.74	220.01
377.93	227.03
378.13	283.20
378.33	327.68
378.52	208.31
378.72	264.48
378.91	248.10
379.11	292.57
379.31	315.97
379.50	241.08
379.70	297.25
379.89	241.08
380.09	215.33
380.28	320.65
380.48	294.91
380.68	334.70
380.87	294.91
381.07	290.23
381.26	308.95
381.46	367.46
381.65	339.38
381.85	351.08
382.04	313.63
382.24	334.70
382.43	341.72
382.63	348.74
382.83	404.91
383.02	339.38
383.22	348.74
383.41	351.08
383.61	362.78
383.80	386.19
384.00	353.42
384.19	400.23
384.39	451.72
384.58	339.38
384.78	330.02
384.97	428.32
385.17	292.57
385.36	383.85
385.56	327.68
385.75	372.15
385.95	381.51
386.14	369.80
386.34	390.87
386.53	393.21
386.72	404.91
386.92	376.83
387.11	477.47
387.31	330.02
387.50	355.76
387.70	374.49
387.89	409.59
388.09	421.30
388.28	379.17
388.48	449.38
388.67	447.04
388.86	393.21
389.06	409.59
389.25	430.66
389.45	400.23
389.64	458.74
389.84	437.68
390.03	372.15
390.22	454.06
390.42	561.73
390.61	489.17
390.81	493.85
391.00	444.70
391.19	491.51
391.39	472.79
391.58	461.09
391.78	514.92
391.97	547.69
392.16	486.83
392.36	519.60
392.55	500.87
392.75	475.13
392.94	533.64
393.13	575.77
393.33	566.41
393.52	587.47
393.71	528.96
393.91	514.92
394.10	545.34
394.29	486.83
394.49	608.54
394.68	526.62
394.88	589.82
395.07	606.20
395.26	585.13
395.46	594.50
395.65	674.07
395.84	662.37
396.04	638.97
396.23	671.73
396.42	697.48
396.62	660.03
396.81	617.90
397.00	620.24
397.19	648.33
397.39	641.31
397.58	669.39
397.77	657.69
397.97	660.03
398.16	669.39
398.35	734.93
398.55	695.14
398.74	704.50
398.93	681.10
399.12	730.25
399.32	667.05
399.51	692.80
399.70	795.78
399.90	692.80
400.09	730.25
400.28	758.33
400.47	678.76
400.67	739.61
400.86	826.21
401.05	800.46
401.24	702.16
401.44	748.97
401.63	816.85
401.82	690.46
402.01	746.63
402.21	800.46
402.40	760.67
402.59	830.89
402.78	835.57
402.97	798.12
403.17	793.44
403.36	800.46
403.55	819.19
403.74	856.64
403.93	844.93
404.13	887.06
404.32	835.57
404.51	903.45
404.70	924.51
404.89	938.55
405.09	917.49
405.28	966.64
405.47	823.87
405.66	952.60
405.85	968.98
406.05	880.04
406.24	1011.11
406.43	964.30
406.62	952.60
406.81	983.02
407.00	985.37
407.20	1006.43
407.39	999.41
407.58	1039.20
407.77	1022.81
407.96	1050.90
408.15	1039.20
408.34	1057.92
408.54	1086.01
408.73	1088.35
408.92	1071.97
409.11	1100.05
409.30	1102.39
409.49	1146.86
409.68	1093.03
409.87	1090.69
410.07	1132.82
410.26	1121.12
410.45	1151.54
410.64	1238.14
410.83	1235.80
411.02	1207.72
411.21	1174.95
411.40	1095.37
411.59	1238.14
411.78	1165.59
411.98	1203.04
412.17	1294.32
412.36	1310.70
412.55	1301.34
412.74	1303.68
412.93	1334.11
413.12	1228.78
413.31	1420.71
413.50	1439.43
413.69	1383.26
413.88	1432.41
414.07	1401.98
414.26	1380.92
414.45	1404.32
414.64	1376.24
414.83	1502.62
415.02	1352.83
415.22	1486.24
415.41	1507.30
415.60	1511.99
415.79	1605.61
415.98	1521.35
416.17	1631.35
416.36	1549.43
416.55	1486.24
416.74	1582.20
416.93	1636.03
417.12	1640.72
417.31	1734.34
417.50	1631.35
417.69	1720.29
417.88	1771.79
418.07	1703.91
418.26	1675.82
418.45	1706.25
418.64	1849.02
418.83	1748.38
419.02	1736.68
419.21	1788.17
419.39	1907.54
419.58	1804.55
419.77	1729.66
419.96	1722.63
420.15	1809.23
420.34	1891.15
420.53	1872.43
420.72	1874.77
420.91	1863.07
421.10	1870.09
421.29	1968.39
421.48	1823.28
421.67	1893.49
421.86	1893.49
422.05	1949.67
422.24	1872.43
422.43	1860.73
422.61	1853.70
422.80	1928.60
422.99	2010.52
423.18	2012.86
423.37	1968.39
423.56	1888.81
423.75	1935.62
423.94	1762.42
424.13	1877.11
424.32	1764.76
424.50	2029.24
424.69	2047.97
424.88	2001.16
425.07	1902.86
425.26	1982.43
425.45	2001.16
425.64	2010.52
425.83	2115.84
426.01	2012.86
426.20	1980.09
426.39	2015.20
426.58	2003.50
426.77	2031.58
426.96	2066.69
427.15	2031.58
427.33	1989.46
427.52	2111.16
427.71	2097.12
427.90	2019.88
428.09	2106.48
428.28	2160.31
428.46	2218.83
428.65	2218.83
428.84	2195.42
429.03	2246.91
429.22	2204.78
429.40	2249.25
429.59	2083.08
429.78	2202.44
429.97	2066.69
430.16	2127.55
430.34	2186.06
430.53	2284.36
430.72	2160.31
430.91	2188.40
431.10	2256.28
431.28	2279.68
431.47	2253.94
431.66	2349.90
431.85	2256.28
432.03	2410.75
432.22	2368.62
432.41	2356.92
432.60	2422.45
432.79	2333.51
432.97	2396.71
433.16	2464.58
433.35	2417.77
433.54	2420.11
433.72	2396.71
433.91	2441.18
434.10	2483.31
434.28	2457.56
434.47	2483.31
434.66	2506.71
434.85	2487.99
435.03	2569.91
435.22	2551.18
435.41	2581.61
435.59	2649.49
435.78	2670.55
435.97	2703.32
436.16	2537.14
436.34	2616.72
436.53	2649.49
436.72	2679.91
436.90	2567.57
437.09	2572.25
437.28	2635.44
437.46	2679.91
437.65	2609.70
437.84	2612.04
438.02	2712.68
438.21	2813.32
438.40	2663.53
438.58	2766.51
438.77	2789.92
438.96	2759.49
439.14	2771.19
439.33	2640.12
439.52	2843.75
439.70	2832.05
439.89	2960.78
440.08	3009.93
440.26	3096.53
440.45	3061.42
440.63	3133.98
440.82	3194.83
441.01	2904.60
441.19	3131.64
441.38	3220.58
441.57	3115.25
441.75	3143.34
441.94	3211.22
442.12	3084.83
442.31	3201.85
442.50	3185.47
442.68	3337.60
442.87	3375.05
443.05	3218.24
443.24	3258.03
443.43	3323.56
443.61	3194.83
443.80	3405.48
443.98	3325.90
444.17	3183.13
444.35	3332.92
444.54	3417.18
444.73	3421.86
444.91	3393.78
445.10	3447.61
445.28	3337.60
445.47	3403.14
445.65	3293.13
445.84	3463.99
446.02	3384.41
446.21	3442.93
446.39	3445.27
446.58	3452.29
446.77	3417.18
446.95	3279.09
447.14	3389.10
447.32	3562.30
447.51	3510.80
447.69	3435.91
447.88	3562.30
448.06	3431.23
448.25	3433.57
448.43	3454.63
448.62	3461.65
448.80	3471.01
448.99	3466.33
449.17	3506.12
449.36	3541.23
449.54	3548.25
449.73	3662.94
449.91	3599.74
450.10	3559.95
450.28	3676.98
450.46	3742.52
450.65	3531.87
450.83	3604.42
451.02	3515.48
451.20	3693.37
451.39	3583.36
451.57	3669.96
451.76	3571.66
451.94	3812.73
452.13	3810.39
452.31	3775.28
452.49	3843.16
452.68	3953.16
452.86	3602.08
453.05	3850.18
453.23	3948.48
453.42	3754.22
453.60	3726.13
453.78	3894.65
453.97	3810.39
454.15	3978.91
454.34	3894.65
454.52	4135.73
454.70	3854.86
454.89	4039.76
455.07	3925.08
455.26	3960.19
455.44	3920.40
455.62	4025.72
455.81	4088.92
455.99	3997.64
456.17	3978.91
456.36	4056.15
456.54	4056.15
456.73	4058.49
456.91	4238.71
457.09	4245.73
457.28	4147.43
457.46	4215.30
457.64	4248.07
457.83	4325.31
458.01	4156.79
458.19	4351.06
458.38	4238.71
458.56	4496.17
458.74	4390.84
458.93	4332.33
459.11	4278.50
459.29	4311.27
459.48	4374.46
459.66	4276.16
459.84	4421.27
460.03	4498.51
460.21	4393.19
460.39	4402.55
460.57	4440.00
460.76	4510.21
460.94	4425.95
461.12	4657.67
461.31	4561.70
461.49	4592.13
461.67	4524.26
461.85	4624.90
462.04	4669.37
462.22	4587.45
462.40	4758.31
462.59	4554.68
462.77	4493.83
462.95	4720.86
463.13	4652.98
463.32	4624.90
463.50	4746.61
463.68	4479.79
463.86	4873.00
464.05	4690.43
464.23	4599.15
464.41	4884.70
464.59	4617.88
464.78	4880.02
464.96	4760.65
465.14	4851.93
465.32	4779.37
465.50	4915.12
465.69	5015.77
465.87	4873.00
466.05	4706.82
466.23	4926.83
466.41	5055.56
466.60	5114.07
466.78	5006.41
466.96	4943.21
467.14	4926.83
467.32	5170.24
467.51	5097.69
467.69	4891.72
467.87	4936.19
468.05	5048.54
468.23	5107.05
468.41	5055.56
468.60	5088.32
468.78	5067.26
468.96	5046.20
469.14	5191.31
469.32	5146.84
469.50	5013.43
469.69	5135.14
469.87	5259.18
470.05	5224.08
470.23	5289.61
470.41	5165.56
470.59	5233.44
470.77	5420.68
470.95	5394.93
471.14	5369.19
471.32	5387.91
471.50	5467.49
471.68	5577.50
471.86	5645.37
472.04	5458.13
472.22	5715.59
472.40	5535.37
472.58	5586.86
472.77	5544.73
472.95	5643.03
473.13	5851.34
473.31	5832.62
473.49	5708.57
473.67	5781.12
473.85	5699.20
474.03	5820.91
474.21	5891.13
474.39	5757.72
474.57	5982.41
474.75	6076.03
474.93	5982.41
475.12	6052.63
475.30	6045.60
475.48	5977.73
475.66	6101.78
475.84	6150.93
476.02	6043.26
476.20	6153.27
476.38	6368.60
476.56	6394.34
476.74	6399.02
476.92	6305.40
477.10	6384.98
477.28	6471.58
477.46	6401.37
477.64	6572.22
477.82	6642.44
478.00	6724.36
478.18	6766.49
478.36	6853.09
478.54	6930.33
478.72	6909.26
478.90	6932.67
479.08	7052.03
479.26	7140.97
479.44	7337.58
479.62	7321.20
479.80	7197.15
479.98	7148.00
480.16	7302.47
480.34	7421.84
480.52	7412.48
480.70	7510.78
480.88	7452.27
481.06	7599.72
481.24	7571.63
481.41	7538.87
481.59	7784.62
481.77	7796.32
481.95	7985.91
482.13	7730.79
482.31	7936.76
482.49	7992.93
482.67	8105.28
482.85	8156.77
483.03	8322.94
483.21	8402.52
483.39	8329.97
483.57	8395.50
483.74	8461.04
483.92	8791.05
484.10	8477.42
484.28	8734.88
484.46	8805.10
484.64	8894.04
484.82	8805.10
485.00	8936.17
485.18	8952.55
485.35	9004.04
485.53	9109.36
485.71	9277.88
485.89	9423.00
486.07	9483.85
486.25	9329.38
486.43	9441.72
486.61	9565.77
486.78	9729.61
486.96	9661.73
487.14	9912.17
487.32	9818.55
487.50	9902.81
487.68	10178.99
487.85	9987.07
488.03	10317.08
488.21	10244.52
488.39	10164.95
488.57	10410.70
488.75	10382.62
488.92	10626.03
489.10	10670.50
489.28	10787.53
489.46	10993.50
489.64	11122.23
489.81	11108.18
489.99	11002.86
490.17	10942.00
490.35	11145.63
490.53	11185.42
490.70	11211.17
490.88	11393.73
491.06	11435.86
491.24	11552.88
491.41	11719.06
491.59	11749.49
491.77	11679.27
491.95	11749.49
492.13	11749.49
492.30	11609.06
492.48	12194.19
492.66	12116.95
492.84	12072.48
493.01	12292.49
493.19	12252.70
493.37	12564.00
493.54	12542.93
493.72	12571.02
493.90	12533.57
494.08	12688.04
494.25	12791.03
494.43	13104.66
494.61	12805.07
494.79	12730.17
494.96	12849.54
495.14	13198.28
495.32	13111.68
495.49	13270.84
495.67	13439.36
495.85	13537.66
496.02	13673.41
496.20	13521.27
496.38	13729.58
496.55	13687.45
496.73	13715.54
496.91	13980.02
497.09	13703.84
497.26	13881.72
497.44	13802.14
497.62	13987.04
497.79	14174.28
497.97	14003.43
498.14	14569.83
498.32	14628.35
498.50	14368.55
498.67	14736.01
498.85	14441.11
499.03	14532.39
499.20	14721.97
499.38	14668.14
499.56	14736.01
499.73	14972.41
499.91	14920.92
500.08	15173.69
500.26	14848.36
500.44	14972.41
500.61	15187.74
500.79	15084.75
500.97	15424.13
501.14	15213.48
501.32	15592.65
501.49	15482.64
501.67	15211.14
501.84	15384.34
502.02	15693.29
502.20	15665.21
502.37	15791.59
502.55	15875.85
502.72	15826.70
502.90	15826.70
503.07	15864.15
503.25	15997.56
503.43	16079.48
503.60	16257.36
503.78	16187.14
503.95	16154.38
504.13	16156.72
504.30	16313.53
504.48	16259.70
504.65	16308.85
504.83	16608.44
505.01	16683.34
505.18	16526.52
505.36	16643.55
505.53	16592.06
505.71	16489.07
505.88	16783.98
506.06	16601.42
506.23	16636.53
506.41	17022.72
506.58	17013.35
506.76	16886.97
506.93	16765.26
507.11	16919.73
507.28	17064.85
507.46	17193.58
507.63	17504.87
507.81	17198.26
507.98	17303.58
508.16	17654.66
508.33	17544.66
508.50	17640.62
508.68	17722.54
508.85	17715.51
509.03	17666.36
509.20	17858.29
509.38	17933.18
509.55	17771.69
509.73	17762.33
509.90	17886.37
510.08	17834.88
510.25	18361.50
510.42	17846.58
510.60	18274.90
510.77	18129.79
510.95	18326.39
511.12	18075.96
511.30	18071.28
511.47	17987.02
511.64	18466.83
511.82	18420.02
511.99	18595.56
512.17	18623.64
512.34	18759.39
512.51	18534.70
512.69	18665.77
512.86	18707.90
513.04	18948.98
513.21	18824.93
513.38	19140.90
513.56	19276.65
513.73	18794.50
513.90	19058.98
514.08	19040.26
514.25	19147.92
514.43	19126.86
514.60	19307.08
514.77	19381.98
514.95	19545.81
515.12	19585.60
515.29	19466.24
515.47	19300.06
515.64	19426.45
515.81	19372.61
515.99	19599.65
516.16	19871.15
516.33	19880.51
516.51	19707.31
516.68	19506.02
516.85	20098.18
517.03	19941.36
517.20	19632.41
517.37	20243.29
517.54	20044.35
517.72	20135.63
517.89	20056.05
518.06	20144.99
518.24	20149.67
518.41	19896.89
518.58	20294.79
518.75	20556.93
518.93	20238.61
519.10	20189.46
519.27	20552.24
519.45	20161.37
519.62	20432.88
519.79	20545.22
519.96	20608.42
520.14	20760.55
520.31	20702.04
520.48	20727.78
520.65	20905.66
520.83	21029.71
521.00	21057.80
521.17	21050.78
521.34	20830.77
521.52	21116.31
521.69	20938.43
521.86	20968.86
522.03	21209.93
522.20	21338.66
522.38	21198.23
522.55	21062.48
522.72	20957.16
522.89	21736.56
523.07	21451.01
523.24	21731.87
523.41	21614.85
523.58	21277.81
523.75	21532.93
523.92	21432.29
524.10	21474.42
524.27	21743.58
524.44	21827.84
524.61	21991.67
524.78	21982.31
524.96	22036.14
525.13	22043.17
525.30	21811.45
525.47	22176.58
525.64	22183.60
525.81	22097.00
525.98	22249.13
526.16	22541.70
526.33	22185.94
526.50	22307.65
526.67	22136.79
526.84	22111.04
527.01	22162.53
527.18	22253.81
527.36	22822.56
527.53	22544.04
527.70	22855.33
527.87	22897.46
528.04	22625.96
528.21	23007.47
528.38	22792.14
528.55	22860.01
528.72	22766.39
528.89	23030.87
529.07	22984.06
529.24	22457.44
529.41	22757.03
529.58	23119.81
529.75	23197.05
529.92	23166.62
530.09	23068.32
530.26	23033.21
530.43	22986.40
530.60	23192.37
530.77	23285.99
530.94	23435.78
531.11	23276.63
531.28	23030.87
531.46	23309.40
531.63	23374.93
531.80	23374.93
531.97	23278.97
532.14	23681.54
532.31	23236.84
532.48	23531.75
532.65	23915.59
532.82	23365.57
532.99	23290.67
533.16	23344.50
533.33	23821.97
533.50	23939.00
533.67	23807.93
533.84	23667.50
534.01	23735.37
534.18	23737.71
534.35	23644.09
534.52	23693.24
534.69	24261.99
534.86	24257.31
535.03	23894.53
535.20	24180.07
535.37	24070.07
535.54	24233.91
535.71	24350.93
535.88	24327.53
536.05	24247.95
536.22	24463.28
536.38	24243.27
536.55	24460.94
536.72	24645.84
536.89	24151.99
537.06	24353.27
537.23	24290.08
537.40	24159.01
537.57	24287.74
537.74	24189.44
537.91	25046.07
538.08	24549.88
538.25	24580.31
538.42	24879.89
538.59	24751.17
538.75	24807.34
538.92	24863.51
539.09	24542.86
539.26	24748.82
539.43	25076.50
539.60	25097.56
539.77	25046.07
539.94	25097.56
540.11	25174.80
540.28	24823.72
540.44	25053.09
540.61	24959.47
540.78	24938.41
540.95	25125.65
541.12	24992.24
541.29	25043.73
541.46	25015.65
541.62	24947.77
541.79	24879.89
541.96	24786.27
542.13	25310.55
542.30	25376.09
542.47	25553.97
542.63	25460.35
542.80	25680.36
542.97	25832.49
543.14	25975.27
543.31	25560.99
543.48	25408.86
543.64	25766.96
543.81	25628.87
543.98	26368.48
544.15	25968.24
544.32	25996.33
544.48	25888.67
544.65	26190.59
544.82	25914.41
544.99	25607.80
545.16	25572.69
545.32	26120.38
545.49	26263.15
545.66	26225.70
545.83	25804.41
546.00	26328.69
546.16	26089.95
546.33	26003.35
546.50	25759.94
546.67	26132.08
546.83	25914.41
547.00	26092.29
547.17	26277.19
547.34	26412.95
547.50	26246.77
547.67	26663.38
547.84	26106.34
548.00	26221.02
548.17	26558.06
548.34	26630.62
548.51	26581.46
548.67	26469.12
548.84	26787.43
549.01	26394.22
549.18	26590.83
549.34	26218.68
549.51	26654.02
549.68	26504.23
549.84	26693.81
550.01	26773.39
550.18	26731.26
550.34	26852.97
550.51	26497.20
550.68	26588.49
550.84	26422.31
551.01	26967.65
551.18	26888.07
551.34	26441.03
551.51	26738.28
551.68	27063.61
551.84	26897.44
552.01	26988.72
552.18	27218.09
552.34	26845.94
552.51	26792.11
552.68	26768.71
552.84	27264.90
553.01	27365.54
553.18	26824.88
553.34	27016.80
553.51	27321.07
553.67	27398.31
553.84	27302.35
554.01	27316.39
554.17	27377.25
554.34	27108.08
554.51	27421.72
554.67	26965.31
554.84	27356.18
555.00	27234.47
555.17	27627.68
555.33	27604.28
555.50	27440.44
555.67	27405.33
555.83	27213.41
556.00	27466.19
556.16	27594.92
556.33	27367.88
556.50	27311.71
556.66	27793.86
556.83	27569.17
556.99	28023.23
557.16	28126.22
557.32	27758.75
557.49	27943.66
557.65	27534.06
557.82	27505.98
557.98	27807.90
558.15	27543.42
558.32	28095.79
558.48	27800.88
558.65	27899.19
558.81	27662.79
558.98	27782.16
559.14	27967.06
559.31	27840.67
559.47	28147.28
559.64	27995.15
559.80	28271.33
559.97	28144.94
560.13	28114.52
560.30	27938.97
560.46	27826.63
560.63	28002.17
560.79	27843.01
560.96	27924.93
561.12	27929.61
561.29	28135.58
561.45	27955.36
561.61	28177.71
561.78	27962.38
561.94	27969.40
562.11	28161.33
562.27	27936.63
562.44	28046.64
562.60	28011.53
562.77	27847.69
562.93	28044.30
563.10	28292.40
563.26	28261.97
563.42	28236.22
563.59	28306.44
563.75	28163.67
563.92	28166.01
564.08	28034.94
564.24	28177.71
564.41	28308.78
564.57	28098.13
564.74	28491.34
564.90	28350.91
565.07	28259.63
565.23	28444.53
565.39	28222.18
565.56	28788.59
565.72	28353.25
565.88	28376.66
566.05	28278.35
566.21	28280.69
566.38	28451.55
566.54	28690.29
566.70	28573.26
566.87	28694.97
567.03	28456.23
567.19	28767.52
567.36	28706.67
567.52	28360.27
567.68	28657.52
567.85	28451.55
568.01	28402.40
568.17	28191.75
568.34	28484.32
568.50	28912.64
568.66	28601.35
568.83	28790.93
568.99	28360.27
569.15	28456.23
569.32	28793.27
569.48	28133.24
569.64	28432.83
569.81	29085.84
569.97	28528.79
570.13	28694.97
570.30	28299.42
570.46	28622.41
570.62	28584.96
570.78	28563.90
570.95	28723.05
571.11	28795.61
571.27	28512.41
571.43	28261.97
571.60	28430.49
571.76	28903.28
571.92	28643.48
572.09	28968.81
572.25	28985.19
572.41	28886.89
572.57	28659.86
572.74	28734.76
572.90	28601.35
573.06	28570.92
573.22	28772.21
573.38	28673.90
573.55	29043.71
573.71	29366.70
573.87	29039.03
574.03	28687.95
574.20	28926.68
574.36	28933.70
574.52	28669.22
574.68	28945.41
574.84	28582.62
575.01	28893.91
575.17	28870.51
575.33	28767.52
575.49	29020.30
575.65	28833.06
575.82	29252.02
575.98	28716.03
576.14	28683.27
576.30	28779.23
576.46	28971.15
576.62	28793.27
576.79	29069.45
576.95	28591.98
577.11	29029.66
577.27	29200.52
577.43	29088.18
577.59	28938.38
577.75	29188.82
577.92	28577.94
578.08	28786.25
578.24	28732.42
578.40	28910.30
578.56	28999.24
578.72	29074.13
578.88	29289.46
579.04	29317.55
579.21	29411.17
579.37	28889.23
579.53	29237.97
579.69	29022.64
579.85	28856.46
580.01	29111.58
580.17	29024.98
580.33	29069.45
580.49	28917.32
580.65	28734.76
580.82	28872.85
580.98	29263.72
581.14	29116.26
581.30	29022.64
581.46	29010.94
581.62	28819.02
581.78	28830.72
581.94	28893.91
582.10	29235.63
582.26	28943.06
582.42	29457.98
582.58	29275.42
582.74	29188.82
582.90	29380.74
583.06	28849.44
583.22	29284.78
583.38	29362.02
583.54	29120.95
583.70	28847.10
583.86	29151.37
584.02	29214.57
584.18	29137.33
584.34	29188.82
584.50	29546.92
584.66	29003.92
584.82	28809.65
584.98	29024.98
585.14	29343.30
585.30	28723.05
585.46	29029.66
585.62	29167.76
585.78	29453.30
585.94	28889.23
586.10	29151.37
586.26	29088.18
586.42	29460.32
586.58	29558.63
586.74	29001.58
586.90	28940.72
587.06	28769.86
587.22	29280.10
587.38	29371.38
587.54	29085.84
587.70	29280.10
587.86	29596.07
588.02	29373.72
588.18	29469.69
588.34	29369.04
588.49	29113.92
588.65	29118.60
588.81	29212.23
588.97	29818.42
589.13	29439.26
589.29	28999.24
589.45	29249.67
589.61	29493.09
589.77	29764.59
589.93	29572.67
590.08	29537.56
590.24	29266.06
590.40	29729.48
590.56	29483.73
590.72	29528.20
590.88	29242.65
591.04	29350.32
591.20	29394.79
591.35	29687.36
591.51	29907.37
591.67	29968.22
591.83	29748.21
591.99	29795.02
592.15	29401.81
592.31	29156.05
592.46	29589.05
592.62	29364.36
592.78	29455.64
592.94	29371.38
593.10	29530.54
593.26	29656.93
593.41	29605.44
593.57	29387.77
593.73	29759.91
593.89	29476.71
594.05	29839.49
594.20	29528.20
594.36	29275.42
594.52	29198.18
594.68	29469.69
594.84	29359.68
594.99	29542.24
595.15	29345.64
595.31	29724.80
595.47	29790.34
595.62	29853.53
595.78	29612.46
595.94	29544.58
596.10	29631.18
596.25	29509.47
596.41	29457.98
596.57	29188.82
596.73	29446.28
596.88	29563.31
597.04	29652.25
597.20	29982.26
597.36	29965.88
597.51	29785.66
597.67	29710.76
597.83	29436.92
597.99	29626.50
598.14	29252.02
598.30	29689.70
598.46	29675.65
598.61	29909.71
598.77	29418.19
598.93	29549.26
599.09	29823.11
599.24	29778.64
599.40	29858.21
599.56	29855.87
599.71	29656.93
599.87	29525.86
600.03	29436.92
600.18	29607.78
600.34	29710.76
600.50	29469.69
600.65	29685.01
600.81	29778.64
600.97	29717.78
601.12	29490.75
601.28	29804.38
601.44	29926.09
601.59	29607.78
601.75	29710.76
601.91	30125.04
602.06	29898.00
602.22	29710.76
602.37	29734.17
602.53	29755.23
602.69	29401.81
602.84	30085.25
603.00	29865.24
603.16	29745.87
603.31	29816.08
603.47	29811.40
603.62	29741.19
603.78	29530.54
603.94	29298.83
604.09	29727.14
604.25	29413.51
604.40	29570.33
604.56	29776.30
604.71	29834.81
604.87	29577.35
605.03	29811.40
605.18	29600.76
605.34	29844.17
605.49	29563.31
605.65	29472.03
605.80	29689.70
605.96	29181.80
606.12	29298.83
606.27	29560.97
606.43	29685.01
606.58	29862.90
606.74	29551.60
606.89	29687.36
607.05	29771.61
607.20	29783.32
607.36	30146.10
607.51	29832.47
607.67	29273.08
607.82	29413.51
607.98	29579.69
608.13	29308.19
608.29	29663.95
608.44	29668.63
608.60	29876.94
608.75	29802.04
608.91	29626.50
609.06	29303.51
609.22	29722.46
609.37	29481.39
609.53	29284.78
609.68	29116.26
609.84	29490.75
609.99	29305.85
610.15	28910.30
610.30	29486.07
610.46	29113.92
610.61	29385.43
610.76	29362.02
610.92	29324.57
611.07	29434.58
611.23	29254.36
611.38	29139.67
611.54	29261.38
611.69	28767.52
611.84	29315.21
612.00	29317.55
612.15	28830.72
612.31	29387.77
612.46	29090.52
612.62	29336.27
612.77	29001.58
612.92	29434.58
613.08	29380.74
613.23	29582.03
613.39	29188.82
613.54	28870.51
613.69	28762.84
613.85	29130.31
614.00	29273.08
614.15	29001.58
614.31	29242.65
614.46	29188.82
614.62	28718.37
614.77	29146.69
614.92	29179.46
615.08	29015.62
615.23	28999.24
615.38	28924.34
615.54	28730.08
615.69	28760.50
615.84	29076.48
616.00	28697.31
616.15	28641.14
616.30	29027.32
616.46	29010.94
616.61	28463.25
616.76	29125.63
616.92	28666.88
617.07	28903.28
617.22	28898.59
617.37	28402.40
617.53	28858.81
617.68	28947.75
617.83	28549.85
617.99	28762.84
618.14	29256.70
618.29	28645.82
618.45	28676.24
618.60	28914.98
618.75	28870.51
618.90	28575.60
619.06	28594.32
619.21	28425.81
619.36	28388.36
619.51	28477.30
619.67	28479.64
619.82	28411.76
619.97	28416.44
620.12	28517.09
620.28	28996.90
620.43	28591.98
620.58	28704.33
620.73	28690.29
620.89	28706.67
621.04	28781.57
621.19	28767.52
621.34	28601.35
621.49	27859.40
621.65	28245.58
621.80	28556.88
621.95	28327.50
622.10	28325.16
622.25	27988.13
622.41	28147.28
622.56	28449.21
622.71	28540.49
622.86	28460.91
623.01	28091.11
623.16	28130.90
623.32	28161.33
623.47	28252.61
623.62	28053.66
623.77	28381.34
623.92	28126.22
624.07	28376.66
624.23	27866.42
624.38	28102.81
624.53	28067.70
624.68	28343.89
624.83	28067.70
624.98	28128.56
625.13	27899.19
625.29	28318.14
625.44	27758.75
625.59	27798.54
625.74	27555.13
625.89	27791.52
626.04	27997.49
626.19	27634.71
626.34	28149.62
626.49	27667.47
626.65	28053.66
626.80	27814.93
626.95	27721.30
627.10	27800.88
627.25	28037.28
627.40	27803.22
627.55	27623.00
627.70	27789.18
627.85	27480.23
628.00	27754.07
628.15	27115.11
628.30	27475.55
628.45	27564.49
628.60	27594.92
628.76	27651.09
628.91	27346.82
629.06	27812.59
629.21	27723.65
629.36	27683.86
629.51	27480.23
629.66	27255.54
629.81	27269.58
629.96	27438.10
630.11	27241.50
630.26	27564.49
630.41	27208.73
630.56	27480.23
630.71	27264.90
630.86	27239.15
631.01	27564.49
631.16	27442.78
631.31	27538.74
631.46	26707.85
631.61	27311.71
631.76	27449.80
631.91	27384.27
632.06	27101.06
632.21	27192.34
632.36	27206.39
632.51	26787.43
632.66	27187.66
632.81	26939.57
632.96	27466.19
633.10	26906.80
633.25	27218.09
633.40	27218.09
633.55	27283.62
633.70	26700.83
633.85	27110.43
634.00	26728.92
634.15	26871.69
634.30	26581.46
634.45	26621.25
634.60	26710.19
634.75	27173.62
634.90	26731.26
635.05	26923.18
635.19	26822.54
635.34	27021.48
635.49	26604.87
635.64	27119.79
635.79	26995.74
635.94	26874.03
636.09	26518.27
636.24	26586.15
636.39	26766.37
636.53	26726.58
636.68	26539.33
636.83	26710.19
636.98	26583.80
637.13	26590.83
637.28	26829.56
637.43	26771.05
637.57	26827.22
637.72	26483.16
637.87	26288.90
638.02	26852.97
638.17	26354.43
638.32	26703.17
638.46	26160.17
638.61	26541.68
638.76	26345.07
638.91	26363.79
639.06	26225.70
639.20	26625.93
639.35	26436.35
639.50	26031.44
639.65	26647.00
639.80	26202.30
639.94	26773.39
640.09	26768.71
640.24	26127.40
640.39	26160.17
640.54	25951.86
640.68	26101.65
640.83	25940.16
640.98	25619.50
641.13	25921.43
641.27	26153.15
641.42	26244.43
641.57	26295.92
641.72	26244.43
641.86	25717.81
642.01	25830.15
642.16	25893.35
642.31	25755.26
642.45	25963.56
642.60	25813.77
642.75	25860.58
642.90	25839.51
643.04	26054.84
643.19	25804.41
643.34	25841.85
643.48	25951.86
643.63	26342.73
643.78	26291.24
643.93	25907.39
644.07	26347.41
644.22	26153.15
644.37	25802.07
644.51	25811.43
644.66	26190.59
644.81	25717.81
644.95	25886.32
645.10	25523.54
645.25	25596.10
645.39	25570.35
645.54	25551.63
645.69	25752.91
645.83	25563.33
645.98	25525.88
646.13	25811.43
646.27	26164.85
646.42	25802.07
646.57	25633.55
646.71	25661.63
646.86	25235.66
647.00	25654.61
647.15	25319.92
647.30	25652.27
647.44	25177.14
647.59	25539.93
647.74	25109.27
647.88	25015.65
648.03	25469.71
648.17	25441.62
648.32	25663.97
648.47	25624.18
648.61	25181.82
648.76	25415.88
648.90	25600.78
649.05	25270.76
649.20	25270.76
649.34	25221.61
649.49	25357.36
649.63	25125.65
649.78	25502.48
649.92	25102.25
650.07	25053.09
650.21	25282.47
650.36	25277.79
650.51	25200.55
650.65	25376.09
650.80	25135.01
650.94	25439.28
651.09	24847.13
651.23	25120.97
651.38	25256.72
651.52	24964.15
651.67	25069.48
651.81	24879.89
651.96	24982.88
652.10	24947.77
652.25	24919.68
652.39	24896.28
652.54	25036.71
652.68	24861.17
652.83	24872.87
652.97	25186.50
653.12	24985.22
653.26	24910.32
653.41	24833.08
653.55	24521.79
653.70	24765.21
653.84	24868.19
653.99	24694.99
654.13	24390.72
654.27	24566.26
654.42	24584.99
654.56	24554.56
654.71	24891.60
654.85	24531.15
655.00	24751.17
655.14	24608.39
655.29	24879.89
655.43	25039.05
655.57	24718.40
655.72	24458.60
655.86	24299.44
656.01	24428.17
656.15	24678.61
656.30	24620.10
656.44	24486.68
656.58	24397.74
656.73	24404.77
656.87	24222.20
657.01	24180.07
657.16	24624.78
657.30	24617.75
657.45	24678.61
657.59	24325.19
657.73	24304.12
657.88	24194.12
658.02	24116.88
658.16	24577.97
658.31	24327.53
658.45	24264.33
658.60	23953.04
658.74	24203.48
658.88	24283.06
659.03	23758.78
659.17	24271.36
659.31	23875.80
659.46	24322.85
659.60	24301.78
659.74	23992.83
659.89	24091.13
660.03	24112.20
660.17	24393.06
660.32	23662.82
660.46	23854.74
660.60	23534.09
660.74	23410.04
660.89	23681.54
661.03	23613.66
661.17	23541.11
661.32	23592.60
661.46	23639.41
661.60	23529.41
661.74	23604.30
661.89	24053.69
662.03	23672.18
662.17	23548.13
662.31	23428.76
662.46	23456.85
662.60	23473.23
662.74	23410.04
662.88	23154.92
663.03	23173.64
663.17	23161.94
663.31	23012.15
663.45	23068.32
663.60	23192.37
663.74	23353.87
663.88	23068.32
664.02	23103.43
664.17	23384.29
664.31	22881.08
664.45	22672.77
664.59	23447.49
664.73	22948.95
664.88	22948.95
665.02	22707.88
665.16	22967.68
665.30	22614.26
665.44	22424.67
665.59	22712.56
665.73	22696.17
665.87	22532.34
666.01	22778.09
666.15	22611.92
666.29	22607.23
666.44	22789.80
666.58	22490.21
666.72	22293.60
666.86	22539.36
667.00	22742.99
667.14	22270.20
667.28	22480.85
667.43	22094.66
667.57	22560.42
667.71	22157.85
667.85	22340.41
667.99	22225.73
668.13	22008.06
668.27	22274.88
668.41	22527.66
668.56	22031.46
668.70	22113.38
668.84	22281.90
668.98	21830.18
669.12	21926.14
669.26	22221.05
669.40	21879.33
669.54	21958.91
669.68	21682.72
669.82	21879.33
669.96	21352.71
670.10	21872.31
670.25	21900.39
670.39	21490.80
670.53	21532.93
670.67	21310.58
670.81	21649.96
670.95	21612.51
671.09	21734.21
671.23	21640.59
671.37	21535.27
671.51	21553.99
671.65	21692.08
671.79	21523.57
671.93	21532.93
672.07	21387.82
672.21	21261.43
672.35	20954.82
672.49	20957.16
672.63	21013.33
672.77	20659.91
672.91	20772.25
673.05	21116.31
673.19	20688.00
673.33	20917.37
673.47	20772.25
673.61	20854.17
673.75	20952.48
673.89	20877.58
674.03	20903.32
674.17	20575.65
674.31	20507.77
674.45	20568.63
674.59	20744.17
674.73	20636.50
674.87	20472.67
675.01	20269.04
675.15	20159.03
675.29	20343.94
675.43	19880.51
675.56	20568.63
675.70	20294.79
675.84	20210.53
675.98	19908.60
676.12	20423.51
676.26	20561.61
676.40	20320.53
676.54	19985.83
676.68	19960.09
676.82	19777.53
676.96	19887.53
677.10	19812.63
677.23	19571.56
677.37	19405.38
677.51	19393.68
677.65	19711.99
677.79	19208.78
677.93	19248.57
678.07	19309.42
678.21	19047.28
678.34	19199.41
678.48	19178.35
678.62	19131.54
678.76	19199.41
678.90	19007.49
679.04	18836.63
679.18	18911.53
679.31	18597.90
679.45	18707.90
679.59	18410.65
679.73	18637.69
679.87	18560.45
680.00	18377.89
680.14	18115.75
680.28	18537.04
680.42	18331.08
680.56	18670.45
680.70	18204.69
680.83	18075.96
680.97	18155.54
681.11	18033.83
681.25	18169.58
681.39	17923.82
681.52	18270.22
681.66	17795.09
681.80	17724.88
681.94	17914.46
682.07	17912.12
682.21	17872.33
682.35	17591.47
682.49	17624.23
682.62	17385.50
682.76	17638.28
682.90	17219.32
683.04	17458.06
683.17	17586.79
683.31	17593.81
683.45	17509.55
683.59	17399.54
683.72	17006.33
683.86	16926.75
684.00	17207.62
684.13	16994.63
684.27	16877.60
684.41	17125.70
684.55	16713.77
684.68	16435.24
684.82	16538.23
684.96	16507.80
685.09	16315.87
685.23	16500.78
685.37	16491.41
685.50	16671.64
685.64	16217.57
685.78	16128.63
685.91	16423.54
686.05	16320.56
686.19	16152.04
686.32	16505.46
686.46	15978.84
686.60	15660.52
686.73	16187.14
686.87	15857.13
687.01	16159.06
687.14	15632.44
687.28	15875.85
687.42	15683.93
687.55	15688.61
687.69	15847.77
687.82	15480.30
687.96	15454.56
688.10	15318.81
688.23	15520.09
688.37	15386.68
688.50	15234.55
688.64	15480.30
688.78	15386.68
688.91	15178.37
689.05	15091.77
689.18	14768.78
689.32	14871.76
689.46	14864.74
689.59	14876.44
689.73	14850.70
689.86	14696.22
690.00	14661.12
690.13	14817.93
690.27	14621.33
690.41	14850.70
690.54	14593.24
690.68	14700.90
690.81	14759.42
690.95	14766.44
691.08	14518.34
691.22	14239.82
691.35	14438.76
691.49	14408.34
691.62	14139.18
691.76	14019.81
691.89	14139.18
692.03	13963.64
692.16	13982.36
692.30	13886.40
692.43	13781.07
692.57	13593.83
692.70	13879.38
692.84	13638.30
692.97	13799.80
693.11	13668.73
693.24	13334.03
693.38	13596.17
693.51	13628.94
693.65	13598.51
693.78	13614.90
693.92	13366.80
694.05	13420.63
694.19	13310.63
694.32	13198.28
694.45	13217.01
694.59	12957.21
694.72	13048.49
694.86	13118.70
694.99	13088.28
695.13	12795.71
695.26	12472.71
695.39	12657.62
695.53	12798.05
695.66	12716.13
695.80	12758.26
695.93	12510.16
696.07	12603.78
696.20	12437.61
696.33	12585.06
696.47	12351.01
696.60	12343.99
696.73	12512.50
696.87	12248.02
697.00	12262.07
697.14	11953.12
697.27	11988.22
697.40	11815.02
697.54	11845.45
697.67	11845.45
697.80	11896.94
697.94	11728.42
698.07	11676.93
698.21	11817.36
698.34	11662.89
698.47	11810.34
698.61	11440.54
698.74	11707.36
698.87	11686.29
699.01	11435.86
699.14	11389.05
699.27	11386.71
699.40	11510.75
699.54	11349.26
699.67	11314.15
699.80	11115.20
699.94	10937.32
700.07	11136.27
700.20	10836.68
700.34	10899.87
700.47	11089.46
700.60	10993.50
700.73	11012.22
700.87	10920.94
701.00	10885.83
701.13	10642.42
701.26	11000.52
701.40	10794.55
701.53	10731.36
701.66	10813.28
701.79	10539.43
701.93	10258.57
702.06	10410.70
702.19	10459.85
702.32	10284.31
702.46	10225.80
702.59	10249.21
702.72	10017.49
702.85	10181.33
702.99	9900.47
703.12	10052.60
703.25	9865.36
703.38	9907.49
703.51	9921.53
703.65	10148.56
703.78	10005.79
703.91	9891.10
704.04	9776.42
704.17	10047.92
704.31	9783.44
704.44	9607.90
704.57	9881.74
704.70	9596.20
704.83	9179.58
704.96	9551.73
705.10	9359.80
705.23	9369.16
>>>>>End Processed Spectral Data<<<<<
