SpectraSuite Data File
++++++++++++++++++++++++++++++++++++
Date: Fri Oct 18 13:58:23 GMT-05:00 2013
User: bianchi
Dark Spectrum Present: No
Reference Spectrum Present: No
Number of Sampled Component Spectra: 1
Spectrometers: USB2+H05261
Integration Time (usec): 50000 (USB2+H05261)
Spectra Averaged: 1 (USB2+H05261)
Boxcar Smoothing: 0 (USB2+H05261)
Correct for Electrical Dark: No (USB2+H05261)
Strobe/Lamp Enabled: No (USB2+H05261)
Correct for Detector Non-linearity: No (USB2+H05261)
Correct for Stray Light: No (USB2+H05261)
Number of Pixels in Processed Spectrum: 2048
>>>>>Begin Processed Spectral Data<<<<<
365.73	0.00
365.92	0.00
366.12	0.00
366.32	0.00
366.52	0.00
366.72	0.00
366.91	0.00
367.11	0.00
367.31	0.00
367.51	0.00
367.70	0.00
367.90	0.00
368.10	0.00
368.30	0.00
368.49	0.00
368.69	0.00
368.89	0.00
369.09	0.00
369.28	0.00
369.48	0.00
369.68	0.00
369.87	0.00
370.07	0.00
370.27	0.00
370.47	0.00
370.66	65.54
370.86	114.69
371.06	170.86
371.25	121.71
371.45	112.35
371.65	196.60
371.84	140.43
372.04	138.09
372.24	133.41
372.44	105.32
372.63	205.97
372.83	224.69
373.03	229.37
373.22	248.10
373.42	227.03
373.62	236.39
373.81	234.05
374.01	290.23
374.21	222.35
374.40	217.67
374.60	241.08
374.79	266.82
374.99	205.97
375.19	257.46
375.38	217.67
375.58	273.84
375.78	304.27
375.97	266.82
376.17	271.50
376.37	283.20
376.56	257.46
376.76	180.22
376.95	262.14
377.15	264.48
377.35	276.18
377.54	241.08
377.74	208.31
377.93	210.65
378.13	299.59
378.33	269.16
378.52	315.97
378.72	287.89
378.91	238.73
379.11	318.31
379.31	301.93
379.50	227.03
379.70	299.59
379.89	351.08
380.09	294.91
380.28	273.84
380.48	259.80
380.68	334.70
380.87	292.57
381.07	318.31
381.26	339.38
381.46	292.57
381.65	266.82
381.85	397.89
382.04	362.78
382.24	327.68
382.43	334.70
382.63	411.93
382.83	299.59
383.02	306.61
383.22	269.16
383.41	318.31
383.61	341.72
383.80	433.00
384.00	315.97
384.19	416.62
384.39	367.46
384.58	269.16
384.78	339.38
384.97	332.36
385.17	351.08
385.36	433.00
385.56	374.49
385.75	351.08
385.95	416.62
386.14	383.85
386.34	390.87
386.53	423.64
386.72	468.11
386.92	407.25
387.11	369.80
387.31	428.32
387.50	430.66
387.70	369.80
387.89	383.85
388.09	372.15
388.28	388.53
388.48	409.59
388.67	428.32
388.86	475.13
389.06	402.57
389.25	477.47
389.45	547.69
389.64	486.83
389.84	524.28
390.03	440.02
390.22	437.68
390.42	463.43
390.61	458.74
390.81	521.94
391.00	409.59
391.19	526.62
391.39	491.51
391.58	514.92
391.78	561.73
391.97	507.90
392.16	505.56
392.36	472.79
392.55	491.51
392.75	575.77
392.94	470.45
393.13	507.90
393.33	533.64
393.52	514.92
393.71	547.69
393.91	524.28
394.10	526.62
394.29	493.85
394.49	552.37
394.68	475.13
394.88	526.62
395.07	669.39
395.26	599.18
395.46	575.77
395.65	725.57
395.84	622.58
396.04	645.99
396.23	748.97
396.42	685.78
396.62	653.01
396.81	664.71
397.00	603.86
397.19	767.70
397.39	667.05
397.58	718.54
397.77	704.50
397.97	681.10
398.16	662.37
398.35	645.99
398.55	720.88
398.74	634.29
398.93	770.04
399.12	763.01
399.32	709.18
399.51	643.65
399.70	744.29
399.90	791.10
400.09	802.80
400.28	819.19
400.47	681.10
400.67	784.08
400.86	835.57
401.05	753.65
401.24	812.17
401.44	826.21
401.63	716.20
401.82	758.33
402.01	734.93
402.21	800.46
402.40	866.00
402.59	784.08
402.78	823.87
402.97	814.51
403.17	791.10
403.36	873.02
403.55	896.43
403.74	952.60
403.93	976.00
404.13	938.55
404.32	882.38
404.51	931.53
404.70	823.87
404.89	863.66
405.09	905.79
405.28	976.00
405.47	922.17
405.66	1011.11
405.85	1046.22
406.05	950.26
406.24	1050.90
406.43	889.40
406.62	1025.15
406.81	1046.22
407.00	1095.37
407.20	1053.24
407.39	1025.15
407.58	1032.18
407.77	1043.88
407.96	1149.20
408.15	1114.10
408.34	987.71
408.54	1036.86
408.73	1086.01
408.92	1090.69
409.11	1086.01
409.30	1107.07
409.49	1153.88
409.68	1104.73
409.87	1179.63
410.07	1109.41
410.26	1149.20
410.45	1233.46
410.64	1203.04
410.83	1193.67
411.02	1254.53
411.21	1242.82
411.40	1233.46
411.59	1310.70
411.78	1170.27
411.98	1306.02
412.17	1324.74
412.36	1406.66
412.55	1301.34
412.74	1458.15
412.93	1350.49
413.12	1245.16
413.31	1397.30
413.50	1380.92
413.69	1444.11
413.88	1371.55
414.07	1380.92
414.26	1521.35
414.45	1406.66
414.64	1488.58
414.83	1458.15
415.02	1392.62
415.22	1507.30
415.41	1472.20
415.60	1540.07
415.79	1493.26
415.98	1612.63
416.17	1547.09
416.36	1547.09
416.55	1706.25
416.74	1699.23
416.93	1657.10
417.12	1607.95
417.31	1755.40
417.50	1692.21
417.69	1671.14
417.88	1778.81
418.07	1732.00
418.26	1804.55
418.45	1753.06
418.64	1952.01
418.83	1755.40
419.02	1851.36
419.21	1771.79
419.39	1900.52
419.58	1743.70
419.77	1806.89
419.96	1788.17
420.15	1832.64
420.34	1795.19
420.53	1888.81
420.72	1923.92
420.91	1984.77
421.10	2083.08
421.29	1942.64
421.48	1907.54
421.67	2045.63
421.86	1989.46
422.05	1989.46
422.24	2005.84
422.43	2029.24
422.61	2031.58
422.80	2050.31
422.99	2087.76
423.18	2101.80
423.37	1956.69
423.56	1944.99
423.75	2038.61
423.94	1944.99
424.13	1937.96
424.32	1933.28
424.50	2101.80
424.69	2015.20
424.88	2010.52
425.07	1935.62
425.26	2080.74
425.45	2076.06
425.64	1980.09
425.83	2001.16
426.01	2115.84
426.20	1959.03
426.39	2066.69
426.58	2188.40
426.77	1984.77
426.96	2172.02
427.15	2085.42
427.33	2167.34
427.52	2157.97
427.71	2106.48
427.90	2057.33
428.09	2148.61
428.28	2038.61
428.46	2122.87
428.65	2258.62
428.84	2267.98
429.03	2258.62
429.22	2115.84
429.40	2223.51
429.59	2267.98
429.78	2179.04
429.97	2118.18
430.16	2179.04
430.34	2286.70
430.53	2289.04
430.72	2275.00
430.91	2356.92
431.10	2352.24
431.28	2410.75
431.47	2331.17
431.66	2377.98
431.85	2429.48
432.03	2459.90
432.22	2466.92
432.41	2356.92
432.60	2403.73
432.79	2392.03
432.97	2427.14
433.16	2480.97
433.35	2338.20
433.54	2581.61
433.72	2583.95
433.91	2576.93
434.10	2487.99
434.28	2576.93
434.47	2490.33
434.66	2612.04
434.85	2525.44
435.03	2581.61
435.22	2539.48
435.41	2677.57
435.59	2595.65
435.78	2588.63
435.97	2668.21
436.16	2710.34
436.34	2700.98
436.53	2719.70
436.72	2665.87
436.90	2724.38
437.09	2729.06
437.28	2719.70
437.46	2689.28
437.65	2551.18
437.84	2799.28
438.02	2803.96
438.21	2829.71
438.40	2885.88
438.58	2839.07
438.77	2878.86
438.96	2740.77
439.14	2904.60
439.33	3052.06
439.52	3030.99
439.70	2862.48
439.89	2963.12
440.08	2998.23
440.26	3148.02
440.45	2928.01
440.63	3030.99
440.82	3087.17
441.01	3094.19
441.19	3075.46
441.38	3133.98
441.57	3171.43
441.75	3251.00
441.94	3283.77
442.12	3276.75
442.31	3339.94
442.50	3255.69
442.68	3335.26
442.87	3417.18
443.05	3410.16
443.24	3363.35
443.43	3496.76
443.61	3265.05
443.80	3566.98
443.98	3269.73
444.17	3222.92
444.35	3351.65
444.54	3431.23
444.73	3449.95
444.91	3368.03
445.10	3463.99
445.28	3400.80
445.47	3279.09
445.65	3405.48
445.84	3510.80
446.02	3522.51
446.21	3398.46
446.39	3344.63
446.58	3459.31
446.77	3529.53
446.95	3372.71
447.14	3541.23
447.32	3496.76
447.51	3370.37
447.69	3527.19
447.88	3426.54
448.06	3508.46
448.25	3520.17
448.43	3510.80
448.62	3569.32
448.80	3543.57
448.99	3585.70
449.17	3585.70
449.36	3534.21
449.54	3529.53
449.73	3583.36
449.91	3665.28
450.10	3702.73
450.28	3871.25
450.46	3684.00
450.65	3590.38
450.83	3726.13
451.02	3674.64
451.20	3730.81
451.39	3791.67
451.57	3751.88
451.76	3721.45
451.94	3845.50
452.13	3936.78
452.31	3861.88
452.49	3632.51
452.68	3819.75
452.86	3831.46
453.05	3838.48
453.23	3960.19
453.42	3791.67
453.60	3845.50
453.78	3838.48
453.97	3955.51
454.15	3866.56
454.34	3908.69
454.52	4051.47
454.70	4035.08
454.89	3962.53
455.07	3992.95
455.26	4091.26
455.44	4077.21
455.62	3927.42
455.81	4067.85
455.99	4159.13
456.17	4098.28
456.36	4074.87
456.54	4079.55
456.73	4297.22
456.91	4355.74
457.09	4360.42
457.28	4259.78
457.46	4280.84
457.64	4636.60
457.83	4465.74
458.01	4306.59
458.19	4376.80
458.38	4358.08
458.56	4339.35
458.74	4318.29
458.93	4400.21
459.11	4428.29
459.29	4421.27
459.48	4358.08
459.66	4414.25
459.84	4662.35
460.03	4554.68
460.21	4507.87
460.39	4486.81
460.57	4594.47
460.76	4568.73
460.94	4482.13
461.12	4596.81
461.31	4648.30
461.49	4678.73
461.67	4610.86
461.85	4758.31
462.04	4629.58
462.22	4692.77
462.40	4746.61
462.59	4713.84
462.77	4830.87
462.95	4608.51
463.13	4802.78
463.32	4734.90
463.50	4821.50
463.68	4943.21
463.86	4877.68
464.05	4770.01
464.23	4858.95
464.41	5067.26
464.59	4856.61
464.78	4828.53
464.96	4884.70
465.14	4861.29
465.32	5053.22
465.50	5055.56
465.69	4891.72
465.87	4819.16
466.05	4931.51
466.23	5025.13
466.41	5067.26
466.60	5259.18
466.78	4805.12
466.96	5111.73
467.14	5064.92
467.32	4994.70
467.51	5132.79
467.69	5071.94
467.87	5060.24
468.05	5210.03
468.23	4968.96
468.41	5268.55
468.60	5128.11
468.78	5298.97
468.96	5093.01
469.14	5296.63
469.32	5345.78
469.50	5219.39
469.69	5434.72
469.87	5474.51
470.05	5284.93
470.23	5427.70
470.41	5392.59
470.59	5362.17
470.77	5324.72
470.95	5497.92
471.14	5568.13
471.32	5666.44
471.50	5657.07
471.68	5565.79
471.86	5652.39
472.04	5511.96
472.22	5708.57
472.40	5584.52
472.58	5647.71
472.77	5778.78
472.95	5811.55
473.13	5977.73
473.31	5692.18
473.49	5820.91
473.67	5830.27
473.85	5827.93
474.03	6010.50
474.21	5877.09
474.39	6005.81
474.57	5975.39
474.75	5991.77
474.93	6279.66
475.12	6078.37
475.30	6207.10
475.48	6071.35
475.66	6417.75
475.84	6277.32
476.02	6300.72
476.20	6218.80
476.38	6455.20
476.56	6649.46
476.74	6497.33
476.92	6548.82
477.10	6537.12
477.28	6773.51
477.46	6672.87
477.64	6750.10
477.82	6820.32
478.00	6857.77
478.18	6965.43
478.36	6998.20
478.54	7077.78
478.72	7159.70
478.90	7126.93
479.08	7215.87
479.26	7236.94
479.44	7351.62
479.62	7250.98
479.80	7351.62
479.98	7276.73
480.16	7536.52
480.34	7581.00
480.52	7705.04
480.70	7576.31
480.88	7569.29
481.06	7709.72
481.24	7749.51
481.41	7735.47
481.59	8140.38
481.77	7925.05
481.95	7840.79
482.13	8203.58
482.31	8086.55
482.49	8255.07
482.67	8306.56
482.85	8423.59
483.03	8468.06
483.21	8388.48
483.39	8683.39
483.57	8456.36
483.74	8760.63
483.92	8739.56
484.10	8762.97
484.28	8779.35
484.46	9048.51
484.64	9109.36
484.82	9027.45
485.00	9123.41
485.18	9406.61
485.35	9282.56
485.53	9415.98
485.71	9549.39
485.89	9507.26
486.07	9521.30
486.25	9666.41
486.43	9722.59
486.61	9839.61
486.78	9844.29
486.96	9621.94
487.14	9996.43
487.32	10015.15
487.50	9949.62
487.68	10136.86
487.85	10272.61
488.03	10359.21
488.21	10619.01
488.39	10480.92
488.57	10661.14
488.75	10574.54
488.92	10836.68
489.10	10920.94
489.28	11033.29
489.46	11150.31
489.64	10984.13
489.81	11279.04
489.99	11407.77
490.17	11066.05
490.35	11456.92
490.53	11595.01
490.70	11583.31
490.88	11573.95
491.06	11756.51
491.24	11707.36
491.41	11817.36
491.59	11896.94
491.77	12011.63
491.95	12250.36
492.13	12233.98
492.30	12208.23
492.48	12229.30
492.66	12294.83
492.84	12407.18
493.01	12629.53
493.19	12627.19
493.37	12627.19
493.54	12671.66
493.72	12711.45
493.90	12877.63
494.08	13015.72
494.25	12814.43
494.43	13200.62
494.61	13146.79
494.79	13268.50
494.96	13455.74
495.14	13397.23
495.32	13474.46
495.49	13589.15
495.67	13687.45
495.85	13872.36
496.02	13947.25
496.20	13991.72
496.38	13762.35
496.55	13926.19
496.73	14225.78
496.91	13942.57
497.09	14466.85
497.26	14366.21
497.44	14401.32
497.62	14457.49
497.79	14321.74
497.97	14469.19
498.14	14670.48
498.32	14927.94
498.50	14862.40
498.67	14974.75
498.85	15147.95
499.03	14995.81
499.20	15019.22
499.38	14860.06
499.56	15080.07
499.73	15250.93
499.91	15260.29
500.08	15349.23
500.26	15225.18
500.44	15342.21
500.61	15316.47
500.79	15604.35
500.97	15651.16
501.14	16095.86
501.32	16109.91
501.49	15829.04
501.67	15775.21
501.84	15754.15
502.02	15592.65
502.20	16126.29
502.37	16112.25
502.55	16081.82
502.72	16287.79
502.90	16180.12
503.07	16088.84
503.25	16358.00
503.43	16030.33
503.60	16533.54
503.78	16435.24
503.95	16566.31
504.13	16374.39
504.30	16819.09
504.48	16695.04
504.65	16863.56
504.83	16987.61
505.01	17097.61
505.18	16975.91
505.36	17191.23
505.53	16840.15
505.71	17125.70
505.88	17158.47
506.06	16954.84
506.23	17373.80
506.41	17198.26
506.58	17383.16
506.76	17579.76
506.93	17116.34
507.11	16978.25
507.28	17350.39
507.46	17692.11
507.63	17362.09
507.81	18073.62
507.98	17603.17
508.16	17731.90
508.33	17886.37
508.50	17762.33
508.68	17919.14
508.85	18256.18
509.03	18148.51
509.20	18090.00
509.38	18176.60
509.55	18377.89
509.73	18452.78
509.90	18359.16
510.08	18274.90
510.25	18427.04
510.42	18476.19
510.60	18789.82
510.77	18609.60
510.95	18663.43
511.12	18642.37
511.30	18633.00
511.47	18881.10
511.64	18920.89
511.82	19026.21
511.99	18939.62
512.17	19215.80
512.34	18895.14
512.51	19405.38
512.69	19433.47
512.86	18925.57
513.04	19569.22
513.21	19665.18
513.38	19377.30
513.56	19510.71
513.73	19356.23
513.90	19728.38
514.08	19393.68
514.25	19655.82
514.43	19613.69
514.60	19632.41
514.77	19786.89
514.95	19999.88
515.12	19711.99
515.29	19957.75
515.47	20137.97
515.64	19906.26
515.81	19765.82
515.99	20329.89
516.16	20009.24
516.33	20269.04
516.51	20517.14
516.68	20252.66
516.85	20437.56
517.03	20697.36
517.20	20313.51
517.37	20526.50
517.54	20451.60
517.72	20566.29
517.89	20688.00
518.06	20819.07
518.24	20793.32
518.41	20477.35
518.58	20573.31
518.75	20812.04
518.93	21018.01
519.10	20865.88
519.27	21003.97
519.45	20727.78
519.62	21294.19
519.79	20985.24
519.96	20950.14
520.14	20936.09
520.31	20865.88
520.48	21043.76
520.65	21399.52
520.83	21624.21
521.00	21123.33
521.17	21366.75
521.34	21724.85
521.52	21329.30
521.69	21710.81
521.86	21809.11
522.03	21759.96
522.20	21942.52
522.38	21965.93
522.55	21577.40
522.72	22080.61
522.89	21862.94
523.07	21879.33
523.24	22244.45
523.41	22302.96
523.58	22127.42
523.75	22239.77
523.92	22043.17
524.10	22265.52
524.27	22008.06
524.44	22314.67
524.61	22464.46
524.78	22434.03
524.96	22054.87
525.13	22457.44
525.30	22705.54
525.47	22602.55
525.64	22459.78
525.81	22881.08
525.98	22925.55
526.16	22682.13
526.33	22778.09
526.50	22998.10
526.67	22876.40
526.84	22822.56
527.01	22864.69
527.18	22810.86
527.36	22841.29
527.53	23405.36
527.70	23190.03
527.87	23386.63
528.04	23257.90
528.21	23044.91
528.38	23339.82
528.55	23175.98
528.72	23168.96
528.89	23171.30
529.07	23543.45
529.24	23330.46
529.41	23494.30
529.58	23316.42
529.75	23686.22
529.92	23503.66
530.09	23339.82
530.26	23627.71
530.43	23557.49
530.60	23859.42
530.77	23611.32
530.94	23934.32
531.11	23964.75
531.28	23793.89
531.46	23531.75
531.63	23828.99
531.80	24065.39
531.97	24074.75
532.14	24011.56
532.31	23726.01
532.48	24140.29
532.65	24142.63
532.82	23800.91
532.99	24189.44
533.16	23814.95
533.33	24067.73
533.50	24805.00
533.67	24212.84
533.84	24336.89
534.01	24182.42
534.18	24315.83
534.35	24786.27
534.52	24229.23
534.69	24926.71
534.86	24395.40
535.03	24208.16
535.20	24767.55
535.37	24896.28
535.54	24589.67
535.71	24400.08
535.88	24907.98
536.05	24727.76
536.22	24788.61
536.38	25165.44
536.55	24819.04
536.72	25188.85
536.89	24858.83
537.06	24702.01
537.23	24863.51
537.40	24725.42
537.57	24762.87
537.74	24936.07
537.91	25448.64
538.08	25642.91
538.25	25198.21
538.42	25703.76
538.59	25310.55
538.75	24812.02
538.92	25106.93
539.09	25301.19
539.26	25432.26
539.43	25483.75
539.60	25392.47
539.77	25551.63
539.94	25427.58
540.11	25348.00
540.28	25783.34
540.44	25635.89
540.61	25544.61
540.78	25521.20
540.95	25621.84
541.12	25900.37
541.29	25549.29
541.46	25312.89
541.62	25591.42
541.79	25825.47
541.96	25596.10
542.13	25862.92
542.30	26188.25
542.47	26312.30
542.63	26026.76
542.80	26111.02
542.97	26370.82
543.14	26150.81
543.31	26043.14
543.48	26354.43
543.64	26501.89
543.81	26726.58
543.98	26298.26
544.15	26665.72
544.32	26679.77
544.48	26632.96
544.65	26265.49
544.82	26384.86
544.99	26338.05
545.16	26698.49
545.32	26625.93
545.49	26724.24
545.66	26876.37
545.83	26852.97
546.00	26539.33
546.16	27035.53
546.33	26483.16
546.50	26223.36
546.67	26831.90
546.83	26677.43
547.00	26855.31
547.17	26958.29
547.34	26803.82
547.50	26841.26
547.67	27459.16
547.84	27297.67
548.00	27190.00
548.17	27314.05
548.34	26939.57
548.51	27178.30
548.67	27534.06
548.84	27297.67
549.01	27227.45
549.18	26993.40
549.34	27400.65
549.51	27381.93
549.68	27091.70
549.84	27229.79
550.01	27182.98
550.18	27513.00
550.34	27740.03
550.51	27288.31
550.68	27550.45
550.84	27548.11
551.01	27901.53
551.18	27276.60
551.34	27243.84
551.51	27421.72
551.68	27498.95
551.84	27779.82
552.01	27367.88
552.18	27325.75
552.34	27943.66
552.51	27665.13
552.68	27620.66
552.84	27520.02
553.01	27594.92
553.18	27407.67
553.34	27997.49
553.51	27585.55
553.67	27559.81
553.84	28210.48
554.01	27873.44
554.17	27721.30
554.34	28180.05
554.51	28044.30
554.67	28238.56
554.84	27974.08
555.00	27770.46
555.17	27896.85
555.33	28004.51
555.50	27845.35
555.67	28095.79
555.83	27887.48
556.00	28201.11
556.16	28589.64
556.33	28142.60
556.50	28297.08
556.66	28638.80
556.83	28711.35
556.99	28290.06
557.16	28283.03
557.32	28521.77
557.49	28353.25
557.65	28599.01
557.82	28318.14
557.98	28278.35
558.15	28730.08
558.32	28306.44
558.48	28306.44
558.65	28844.76
558.81	28479.64
558.98	28711.35
559.14	28371.97
559.31	28645.82
559.47	28603.69
559.64	28390.70
559.80	28847.10
559.97	28662.20
560.13	28470.28
560.30	28673.90
560.46	29174.78
560.63	28699.65
560.79	28666.88
560.96	29060.09
561.12	28648.16
561.29	28362.61
561.45	29015.62
561.61	28950.09
561.78	28854.12
561.94	28697.31
562.11	28772.21
562.27	29228.61
562.44	28797.95
562.60	28769.86
562.77	28629.43
562.93	29036.69
563.10	29076.48
563.26	28807.31
563.42	28907.96
563.59	28914.98
563.75	28961.79
563.92	29013.28
564.08	29139.67
564.24	28964.13
564.41	29046.05
564.57	29048.39
564.74	28725.39
564.90	29163.08
565.07	29090.52
565.23	29202.86
565.39	28996.90
565.56	29542.24
565.72	28936.04
565.88	29085.84
566.05	28924.34
566.21	29429.90
566.38	29195.84
566.54	28980.51
566.70	29551.60
566.87	29305.85
567.03	29053.07
567.19	29371.38
567.36	29020.30
567.52	28863.49
567.68	29434.58
567.85	28889.23
568.01	29064.77
568.17	29078.82
568.34	29198.18
568.50	29186.48
568.66	29324.57
568.83	29331.59
568.99	29439.26
569.15	29631.18
569.32	29539.90
569.48	29039.03
569.64	29596.07
569.81	29486.07
569.97	29329.25
570.13	29429.90
570.30	29661.61
570.46	29799.70
570.62	29390.11
570.78	29312.87
570.95	29090.52
571.11	29523.52
571.27	29160.73
571.43	29614.80
571.60	29486.07
571.76	29579.69
571.92	29476.71
572.09	29706.08
572.25	29668.63
572.41	29652.25
572.57	29486.07
572.74	29834.81
572.90	29408.83
573.06	29717.78
573.22	29706.08
573.38	29589.05
573.55	29448.62
573.71	29935.45
573.87	29851.19
574.03	29528.20
574.20	29476.71
574.36	29184.14
574.52	29186.48
574.68	29823.11
574.84	29427.56
575.01	29879.28
575.17	29776.30
575.33	29371.38
575.49	29827.79
575.65	29881.62
575.82	29755.23
575.98	29593.73
576.14	29617.14
576.30	29736.51
576.46	29631.18
576.62	29317.55
576.79	29539.90
576.95	29586.71
577.11	29652.25
577.27	29933.11
577.43	29692.04
577.59	29820.77
577.75	29991.62
577.92	29343.30
578.08	29516.50
578.24	29710.76
578.40	29701.40
578.56	30026.73
578.72	30192.91
578.88	29928.43
579.04	30099.29
579.21	29493.09
579.37	29776.30
579.53	29654.59
579.69	29486.07
579.85	29270.74
580.01	29750.55
580.17	29394.79
580.33	29853.53
580.49	29720.12
580.65	30019.71
580.82	29956.52
580.98	29874.60
581.14	29841.83
581.30	29947.15
581.46	29736.51
581.62	29687.36
581.78	29584.37
581.94	29788.00
582.10	29570.33
582.26	29694.38
582.42	29844.17
582.58	29972.90
582.74	29818.42
582.90	30183.55
583.06	30003.33
583.22	29734.17
583.38	29642.88
583.54	29855.87
583.70	29521.18
583.86	30169.51
584.02	29909.71
584.18	29883.96
584.34	30160.14
584.50	30059.50
584.66	29902.68
584.82	29926.09
584.98	29809.06
585.14	29949.50
585.30	29921.41
585.46	29928.43
585.62	29949.50
585.78	30071.20
585.94	29432.24
586.10	30015.03
586.26	29860.55
586.42	30347.39
586.58	30059.50
586.74	30026.73
586.90	29804.38
587.06	29855.87
587.22	29659.27
587.38	29668.63
587.54	29907.37
587.70	30277.17
587.86	30338.02
588.02	30204.61
588.18	30150.78
588.34	29949.50
588.49	30188.23
588.65	29771.61
588.81	30012.69
588.97	30089.93
589.13	29947.15
589.29	29722.46
589.45	30010.35
589.61	30312.28
589.77	30038.44
589.93	30003.33
590.08	30211.64
590.24	30342.70
590.40	30274.83
590.56	30485.48
590.72	30279.51
590.88	30221.00
591.04	29961.20
591.20	30277.17
591.35	30562.72
591.51	30387.18
591.67	30185.89
591.83	30300.58
591.99	30469.09
592.15	30298.23
592.31	30113.33
592.46	30281.85
592.62	30036.09
592.78	30499.52
592.94	30260.79
593.10	30316.96
593.26	30532.29
593.41	30621.23
593.57	30469.09
593.73	30160.14
593.89	30436.33
594.05	30225.68
594.20	30443.35
594.36	30302.92
594.52	29954.18
594.68	30267.81
594.84	30375.47
594.99	30476.12
595.15	30368.45
595.31	30752.30
595.47	30361.43
595.62	30625.91
595.78	30630.59
595.94	30384.83
596.10	30672.72
596.25	30298.23
596.41	30183.55
596.57	30033.75
596.73	30548.67
596.88	30099.29
597.04	29993.97
597.20	30368.45
597.36	31007.42
597.51	30948.90
597.67	30476.12
597.83	30167.16
597.99	30370.79
598.14	30621.23
598.30	30305.26
598.46	30651.66
598.61	30534.63
598.77	30600.16
598.93	30359.09
599.09	30380.15
599.24	30712.51
599.40	30506.54
599.56	30682.08
599.71	30452.71
599.87	30749.96
600.03	30534.63
600.18	30354.41
600.34	30438.67
600.50	30731.23
600.65	30398.88
600.81	30834.22
600.97	30546.33
601.12	30499.52
601.28	30309.94
601.44	30745.28
601.59	30590.80
601.75	30658.68
601.91	30635.27
602.06	30543.99
602.22	30455.05
602.37	30368.45
602.53	30649.32
602.69	30866.98
602.84	30532.29
603.00	30501.86
603.16	30476.12
603.31	30394.20
603.47	30663.36
603.62	30335.68
603.78	30562.72
603.94	30246.74
604.09	30373.13
604.25	30174.19
604.40	30728.89
604.56	30361.43
604.71	30597.82
604.87	30389.52
605.03	30810.81
605.18	30551.01
605.34	30506.54
605.49	30260.79
605.65	30670.38
605.80	30141.42
605.96	30466.75
606.12	30319.30
606.27	30384.83
606.43	30216.32
606.58	30511.22
606.74	30331.00
606.89	30684.42
607.05	30555.69
607.20	30705.49
607.36	30469.09
607.51	30424.62
607.67	30352.07
607.82	30356.75
607.98	30223.34
608.13	30415.26
608.29	30316.96
608.44	30272.49
608.60	30010.35
608.75	30525.27
608.91	30232.70
609.06	30281.85
609.22	30604.84
609.37	29755.23
609.53	30417.60
609.68	29944.81
609.84	30162.48
609.99	30118.01
610.15	30073.54
610.30	30059.50
610.46	30078.22
610.61	30536.97
610.76	30169.51
610.92	30508.88
611.07	30338.02
611.23	30316.96
611.38	29883.96
611.54	29958.86
611.69	29818.42
611.84	29865.24
612.00	29912.05
612.15	30127.38
612.31	29912.05
612.46	30078.22
612.62	30253.76
612.77	30162.48
612.92	29965.88
613.08	30129.72
613.23	30134.40
613.39	30333.34
613.54	29546.92
613.69	30103.97
613.85	30206.95
614.00	30059.50
614.15	29832.47
614.31	29635.86
614.46	30197.59
614.62	29827.79
614.77	29624.16
614.92	29722.46
615.08	29589.05
615.23	30026.73
615.38	30064.18
615.54	29804.38
615.69	29549.26
615.84	29633.52
616.00	30202.27
616.15	30040.78
616.30	30017.37
616.46	29638.20
616.61	29408.83
616.76	29949.50
616.92	29680.33
617.07	29539.90
617.22	29820.77
617.37	29448.62
617.53	29560.97
617.68	30029.07
617.83	29788.00
617.99	29579.69
618.14	29600.76
618.29	29567.99
618.45	29792.68
618.60	29802.04
618.75	29722.46
618.90	29546.92
619.06	29216.91
619.21	29296.49
619.36	29476.71
619.51	29509.47
619.67	28804.97
619.82	29134.99
619.97	29249.67
620.12	29144.35
620.28	29092.86
620.43	29076.48
620.58	29373.72
620.73	29406.49
620.89	29633.52
621.04	29848.85
621.19	29298.83
621.34	29221.59
621.49	29198.18
621.65	29024.98
621.80	29322.23
621.95	29165.42
622.10	29212.23
622.25	28950.09
622.41	28830.72
622.56	29273.08
622.71	29598.41
622.86	28519.43
623.01	29331.59
623.16	29092.86
623.32	28758.16
623.47	28996.90
623.62	29074.13
623.77	28863.49
623.92	28924.34
624.07	28554.54
624.23	28758.16
624.38	28924.34
624.53	28985.19
624.68	28950.09
624.83	29270.74
624.98	28900.94
625.13	28650.50
625.29	28800.29
625.44	28959.45
625.59	28779.23
625.74	28402.40
625.89	28786.25
626.04	28416.44
626.19	28842.42
626.34	28573.26
626.49	28240.90
626.65	28573.26
626.80	28376.66
626.95	28577.94
627.10	28561.56
627.25	28699.65
627.40	28407.08
627.55	28418.78
627.70	28580.28
627.85	28519.43
628.00	28657.52
628.15	28346.23
628.30	28765.18
628.45	28341.55
628.60	28243.24
628.76	28446.87
628.91	28620.07
629.06	28210.48
629.21	28175.37
629.36	28507.72
629.51	27943.66
629.66	28411.76
629.81	28081.75
629.96	27969.40
630.11	27931.95
630.26	27985.79
630.41	28112.17
630.56	28105.15
630.71	28240.90
630.86	28245.58
631.01	28240.90
631.16	28376.66
631.31	28051.32
631.46	27644.07
631.61	27967.06
631.76	28383.68
631.91	28030.26
632.06	27805.56
632.21	27740.03
632.36	27564.49
632.51	27571.51
632.66	28016.21
632.81	27786.84
632.96	27903.87
633.10	28191.75
633.25	28065.36
633.40	28030.26
633.55	27953.02
633.70	27620.66
633.85	27630.02
634.00	27758.75
634.15	27491.93
634.30	27573.85
634.45	27395.97
634.60	27997.49
634.75	27604.28
634.90	27651.09
635.05	27754.07
635.19	27634.71
635.34	27971.74
635.49	27604.28
635.64	27819.61
635.79	27821.95
635.94	27821.95
636.09	27620.66
636.24	27379.59
636.39	27417.04
636.53	27491.93
636.68	27084.68
636.83	27676.83
636.98	27981.10
637.13	27421.72
637.28	27543.42
637.43	27571.51
637.57	27520.02
637.72	27487.25
637.87	27318.73
638.02	26843.60
638.17	27363.20
638.32	27030.85
638.46	27012.12
638.61	26885.73
638.76	27005.10
638.91	26988.72
639.06	27274.26
639.20	27264.90
639.35	27197.02
639.50	27110.43
639.65	27288.31
639.80	27435.76
639.94	27351.50
640.09	27182.98
640.24	27094.04
640.39	27049.57
640.54	27016.80
640.68	26885.73
640.83	26852.97
640.98	26817.86
641.13	26803.82
641.27	26925.52
641.42	26852.97
641.57	26946.59
641.72	26979.36
641.86	26747.64
642.01	26764.03
642.16	26883.39
642.31	26721.90
642.45	26632.96
642.60	26726.58
642.75	26347.41
642.90	26684.45
643.04	26532.31
643.19	26820.20
643.34	26789.77
643.48	26897.44
643.63	26707.85
643.78	26707.85
643.93	26745.30
644.07	26815.52
644.22	26609.55
644.37	26527.63
644.51	26377.84
644.66	26183.57
644.81	26705.51
644.95	26424.65
645.10	26188.25
645.25	26471.46
645.39	26218.68
645.54	26288.90
645.69	26527.63
645.83	26267.83
645.98	26621.25
646.13	26426.99
646.27	26176.55
646.42	26426.99
646.57	26312.30
646.71	26361.45
646.86	26309.96
647.00	26214.00
647.15	26300.60
647.30	26415.29
647.44	26127.40
647.59	26059.52
647.74	26045.48
647.88	25883.98
648.03	26246.77
648.17	26356.77
648.32	26059.52
648.47	26490.18
648.61	26391.88
648.76	26232.72
648.90	26218.68
649.05	26206.98
649.20	26101.65
649.34	25912.07
649.49	25797.38
649.63	26054.84
649.78	25799.73
649.92	25387.79
650.07	26005.69
650.21	25874.62
650.36	25984.63
650.51	25675.68
650.65	25958.88
650.80	26209.32
650.94	25603.12
651.09	25687.38
651.23	25355.02
651.38	25825.47
651.52	25855.90
651.67	25553.97
651.81	25867.60
651.96	25474.39
652.10	25507.16
652.25	25781.00
652.39	25663.97
652.54	25741.21
652.68	25902.71
652.83	25652.27
652.97	26071.23
653.12	25715.47
653.26	25373.75
653.41	25523.54
653.55	25497.80
653.70	25532.90
653.84	25369.07
653.99	25523.54
654.13	25060.12
654.27	25373.75
654.42	25694.40
654.56	25408.86
654.71	25249.70
654.85	25436.94
655.00	25184.16
655.14	25425.24
655.29	25223.95
655.43	25596.10
655.57	25352.68
655.72	25291.83
655.86	25436.94
656.01	25572.69
656.15	24854.15
656.30	25242.68
656.44	25289.49
656.58	25230.98
656.73	25235.66
656.87	25184.16
657.01	25008.62
657.16	25708.44
657.30	25284.81
657.45	25298.85
657.59	25256.72
657.73	24898.62
657.88	24943.09
658.02	24692.65
658.16	25130.33
658.31	25207.57
658.45	24819.04
658.60	24563.92
658.74	24814.36
658.88	24823.72
659.03	24746.48
659.17	24559.24
659.31	24769.89
659.46	25125.65
659.60	25017.99
659.74	24690.31
659.89	24538.18
660.03	24493.71
660.17	24568.60
660.32	24751.17
660.46	24575.62
660.60	24374.34
660.74	24697.33
660.89	24575.62
661.03	24187.10
661.17	24191.78
661.32	24308.80
661.46	24610.73
661.60	24144.97
661.74	24357.96
661.89	24800.32
662.03	24201.14
662.17	24458.60
662.31	24060.71
662.46	24140.29
662.60	24388.38
662.74	23962.40
662.88	24088.79
663.03	24011.56
663.17	24107.52
663.31	23814.95
663.45	23833.68
663.60	23735.37
663.74	24067.73
663.88	23545.79
664.02	23854.74
664.17	23948.36
664.31	23718.99
664.45	23910.91
664.59	23824.31
664.73	23524.72
664.88	23669.84
665.02	23274.29
665.16	23517.70
665.30	23819.63
665.44	23494.30
665.59	23152.58
665.73	23229.82
665.87	23154.92
666.01	23330.46
666.15	23400.68
666.29	23267.27
666.44	23175.98
666.58	23269.61
666.72	23377.27
666.86	22977.04
667.00	23470.89
667.14	22986.40
667.28	23166.62
667.43	22789.80
667.57	23358.55
667.71	22691.49
667.85	22806.18
667.99	23030.87
668.13	22684.47
668.27	23044.91
668.41	23070.66
668.56	22677.45
668.70	22682.13
668.84	22684.47
668.98	22981.72
669.12	22668.09
669.26	22897.46
669.40	22494.89
669.54	22525.32
669.68	22398.93
669.82	22398.93
669.96	22174.24
670.10	22293.60
670.25	22134.45
670.39	22225.73
670.53	22176.58
670.67	22270.20
670.81	22600.21
670.95	22104.02
671.09	22342.75
671.23	22221.05
671.37	22415.31
671.51	22375.52
671.65	22136.79
671.79	22207.00
671.93	22082.95
672.07	21949.54
672.21	21584.42
672.35	21364.41
672.49	21738.90
672.63	22029.12
672.77	21626.55
672.91	21448.67
673.05	21621.87
673.19	21645.27
673.33	21422.92
673.47	21467.39
673.61	21771.66
673.75	21476.76
673.89	21184.19
674.03	21186.53
674.17	21387.82
674.31	21544.63
674.45	21001.63
674.59	21397.18
674.73	21333.98
674.87	21078.86
675.01	21324.62
675.15	20851.83
675.29	20547.56
675.43	20879.92
675.56	20959.50
675.70	20884.60
675.84	20739.49
675.98	20336.91
676.12	21116.31
676.26	20915.03
676.40	20844.81
676.54	20802.68
676.68	20697.36
676.82	19964.77
676.96	20123.93
677.10	20439.90
677.23	20247.97
677.37	20320.53
677.51	20081.80
677.65	19665.18
677.79	20013.92
677.93	20023.28
678.07	19889.87
678.21	19751.78
678.34	19681.56
678.48	19545.81
678.62	20042.01
678.76	19775.19
678.90	19529.43
679.04	19419.42
679.18	19487.30
679.31	18855.36
679.45	19220.48
679.59	19084.73
679.73	19117.50
679.87	18948.98
680.00	19119.84
680.14	18904.51
680.28	18927.91
680.42	18934.93
680.56	19328.14
680.70	18948.98
680.83	18558.11
680.97	18747.69
681.11	18672.79
681.25	18766.42
681.39	18661.09
681.52	18710.24
681.66	18473.85
681.80	18284.26
681.94	18457.46
682.07	18361.50
682.21	18277.24
682.35	18057.23
682.49	17996.38
682.62	18146.17
682.76	17909.78
682.90	17909.78
683.04	17905.10
683.17	18082.98
683.31	17848.93
683.45	17947.23
683.59	17741.26
683.72	17884.03
683.86	17404.22
684.00	17621.89
684.13	17509.55
684.27	17336.35
684.41	17474.44
684.55	17076.55
684.68	17181.87
684.82	16861.22
684.96	17048.46
685.09	17139.74
685.23	17102.29
685.37	16816.75
685.50	16882.28
685.64	17048.46
685.78	16805.05
685.91	17015.69
686.05	16952.50
686.19	16814.41
686.32	16798.02
686.46	16648.23
686.60	16456.31
686.73	16664.61
686.87	16535.88
687.01	16362.69
687.14	16453.97
687.28	16358.00
687.42	16322.90
687.55	16395.45
687.69	16112.25
687.82	16121.61
687.96	16252.68
688.10	15819.68
688.23	16168.42
688.37	15779.89
688.50	15847.77
688.64	15943.73
688.78	15683.93
688.91	15726.06
689.05	15744.78
689.18	15857.13
689.32	15349.23
689.46	15351.57
689.59	15644.14
689.73	15356.25
689.86	15269.66
690.00	15424.13
690.13	15248.59
690.27	14979.43
690.41	15260.29
690.54	15183.06
690.68	15091.77
690.81	14778.14
690.95	15087.09
691.08	15049.64
691.22	14958.36
691.35	14607.28
691.49	14810.91
691.62	14911.55
691.76	14761.76
691.89	14544.09
692.03	14441.11
692.16	14368.55
692.30	14267.91
692.43	14235.14
692.57	14232.80
692.70	13900.44
692.84	14122.79
692.97	14136.84
693.11	14017.47
693.24	13870.01
693.38	14075.98
693.51	14092.37
693.65	14080.66
693.78	13935.55
693.92	13865.33
694.05	13689.79
694.19	13635.96
694.32	13392.55
694.45	13479.15
694.59	13547.02
694.72	13315.31
694.86	13418.29
694.99	13160.83
695.13	13303.60
695.26	13282.54
695.39	13074.23
695.53	13287.22
695.66	12982.95
695.80	13013.38
695.93	12844.86
696.07	12877.63
696.20	12987.63
696.33	12762.94
696.47	12711.45
696.60	12861.24
696.73	12636.55
696.87	12662.30
697.00	12554.63
697.14	12606.13
697.27	12428.24
697.40	12343.99
697.54	12241.00
697.67	11941.41
697.80	12297.17
697.94	12149.72
698.07	12009.29
698.21	12084.19
698.34	11950.78
698.47	11929.71
698.61	11791.62
698.74	12243.34
698.87	11934.39
699.01	11709.70
699.14	11714.38
699.27	11602.04
699.40	11908.65
699.54	11513.10
699.67	11494.37
699.80	11454.58
699.94	11218.19
700.07	11485.01
700.20	11332.87
700.34	11311.81
700.47	11250.96
700.60	11454.58
700.73	11417.13
700.87	11171.38
701.00	11101.16
701.13	11103.50
701.26	11138.61
701.40	11176.06
701.53	11119.89
701.66	11002.86
701.79	10857.75
701.93	11023.92
702.06	10855.40
702.19	10911.58
702.32	10520.71
702.46	10651.78
702.59	10595.61
702.72	10455.17
702.85	10352.19
702.99	10501.98
703.12	10490.28
703.25	10326.44
703.38	10387.30
703.51	10104.09
703.65	10296.02
703.78	10097.07
703.91	10244.52
704.04	10108.77
704.17	10291.34
704.31	10050.26
704.44	9984.73
704.57	10195.37
704.70	9872.38
704.83	9994.09
704.96	9788.12
705.10	9776.42
705.23	9680.46
>>>>>End Processed Spectral Data<<<<<
