SpectraSuite Data File
++++++++++++++++++++++++++++++++++++
Date: Fri Oct 18 13:58:27 GMT-05:00 2013
User: bianchi
Dark Spectrum Present: No
Reference Spectrum Present: No
Number of Sampled Component Spectra: 1
Spectrometers: USB2+H05261
Integration Time (usec): 50000 (USB2+H05261)
Spectra Averaged: 1 (USB2+H05261)
Boxcar Smoothing: 0 (USB2+H05261)
Correct for Electrical Dark: No (USB2+H05261)
Strobe/Lamp Enabled: No (USB2+H05261)
Correct for Detector Non-linearity: No (USB2+H05261)
Correct for Stray Light: No (USB2+H05261)
Number of Pixels in Processed Spectrum: 2048
>>>>>Begin Processed Spectral Data<<<<<
365.73	0.00
365.92	0.00
366.12	0.00
366.32	0.00
366.52	0.00
366.72	0.00
366.91	0.00
367.11	0.00
367.31	0.00
367.51	0.00
367.70	0.00
367.90	0.00
368.10	0.00
368.30	0.00
368.49	0.00
368.69	0.00
368.89	0.00
369.09	0.00
369.28	0.00
369.48	0.00
369.68	0.00
369.87	0.00
370.07	0.00
370.27	0.00
370.47	0.00
370.66	105.32
370.86	112.35
371.06	133.41
371.25	100.64
371.45	163.84
371.65	126.39
371.84	173.20
372.04	63.19
372.24	180.22
372.44	152.13
372.63	231.71
372.83	292.57
373.03	255.12
373.22	248.10
373.42	175.54
373.62	229.37
373.81	175.54
374.01	234.05
374.21	250.44
374.40	262.14
374.60	292.57
374.79	236.39
374.99	238.73
375.19	280.86
375.38	280.86
375.58	262.14
375.78	257.46
375.97	299.59
376.17	241.08
376.37	252.78
376.56	238.73
376.76	250.44
376.95	290.23
377.15	238.73
377.35	353.42
377.54	315.97
377.74	301.93
377.93	276.18
378.13	278.52
378.33	332.36
378.52	187.24
378.72	215.33
378.91	255.12
379.11	234.05
379.31	264.48
379.50	201.29
379.70	311.29
379.89	315.97
380.09	351.08
380.28	273.84
380.48	290.23
380.68	287.89
380.87	294.91
381.07	341.72
381.26	365.12
381.46	283.20
381.65	367.46
381.85	322.99
382.04	353.42
382.24	311.29
382.43	362.78
382.63	318.31
382.83	447.04
383.02	376.83
383.22	318.31
383.41	273.84
383.61	318.31
383.80	430.66
384.00	390.87
384.19	433.00
384.39	313.63
384.58	287.89
384.78	348.74
384.97	428.32
385.17	390.87
385.36	395.55
385.56	299.59
385.75	351.08
385.95	299.59
386.14	444.70
386.34	365.12
386.53	386.19
386.72	269.16
386.92	433.00
387.11	418.96
387.31	463.43
387.50	386.19
387.70	437.68
387.89	435.34
388.09	402.57
388.28	416.62
388.48	367.46
388.67	421.30
388.86	472.79
389.06	482.15
389.25	447.04
389.45	447.04
389.64	395.55
389.84	543.00
390.03	519.60
390.22	505.56
390.42	456.40
390.61	503.22
390.81	526.62
391.00	463.43
391.19	500.87
391.39	418.96
391.58	517.26
391.78	465.77
391.97	526.62
392.16	456.40
392.36	575.77
392.55	528.96
392.75	533.64
392.94	526.62
393.13	444.70
393.33	505.56
393.52	421.30
393.71	620.24
393.91	503.22
394.10	592.16
394.29	552.37
394.49	662.37
394.68	653.01
394.88	571.09
395.07	580.45
395.26	641.31
395.46	554.71
395.65	578.11
395.84	587.47
396.04	695.14
396.23	608.54
396.42	622.58
396.62	676.41
396.81	723.23
397.00	552.37
397.19	730.25
397.39	629.60
397.58	645.99
397.77	608.54
397.97	741.95
398.16	613.22
398.35	674.07
398.55	695.14
398.74	622.58
398.93	744.29
399.12	741.95
399.32	755.99
399.51	746.63
399.70	674.07
399.90	767.70
400.09	758.33
400.28	770.04
400.47	720.88
400.67	723.23
400.86	842.59
401.05	844.93
401.24	730.25
401.44	763.01
401.63	814.51
401.82	830.89
402.01	781.74
402.21	861.32
402.40	805.14
402.59	835.57
402.78	807.48
402.97	842.59
403.17	746.63
403.36	758.33
403.55	828.55
403.74	882.38
403.93	875.36
404.13	926.85
404.32	954.94
404.51	938.55
404.70	884.72
404.89	945.58
405.09	980.68
405.28	1011.11
405.47	926.85
405.66	910.47
405.85	954.94
406.05	966.64
406.24	994.73
406.43	980.68
406.62	1029.84
406.81	1001.75
407.00	971.32
407.20	1029.84
407.39	952.60
407.58	987.71
407.77	1067.28
407.96	1001.75
408.15	1062.60
408.34	1034.52
408.54	1015.79
408.73	1104.73
408.92	1104.73
409.11	1027.50
409.30	1116.44
409.49	1128.14
409.68	1057.92
409.87	1067.28
410.07	1153.88
410.26	1207.72
410.45	1116.44
410.64	1158.57
410.83	1151.54
411.02	1121.12
411.21	1261.55
411.40	1277.93
411.59	1240.48
411.78	1273.25
411.98	1212.40
412.17	1338.79
412.36	1270.91
412.55	1224.10
412.74	1343.47
412.93	1343.47
413.12	1416.02
413.31	1420.71
413.50	1357.51
413.69	1291.98
413.88	1490.92
414.07	1364.53
414.26	1373.89
414.45	1369.21
414.64	1500.28
414.83	1432.41
415.02	1502.62
415.22	1474.54
415.41	1577.52
415.60	1565.82
415.79	1507.30
415.98	1689.87
416.17	1554.12
416.36	1568.16
416.55	1605.61
416.74	1629.01
416.93	1598.59
417.12	1593.90
417.31	1603.27
417.50	1703.91
417.69	1760.08
417.88	1701.57
418.07	1736.68
418.26	1703.91
418.45	1774.13
418.64	1783.49
418.83	1802.21
419.02	1678.16
419.21	1783.49
419.39	1832.64
419.58	1825.62
419.77	1774.13
419.96	1783.49
420.15	1867.75
420.34	1870.09
420.53	1884.13
420.72	1956.69
420.91	1813.92
421.10	1888.81
421.29	1940.30
421.48	1977.75
421.67	1961.37
421.86	1816.26
422.05	1952.01
422.24	1919.24
422.43	1968.39
422.61	1916.90
422.80	2008.18
422.99	2080.74
423.18	2001.16
423.37	2162.66
423.56	2052.65
423.75	1982.43
423.94	2003.50
424.13	1884.13
424.32	1944.99
424.50	2036.27
424.69	2040.95
424.88	2085.42
425.07	1968.39
425.26	2005.84
425.45	1989.46
425.64	2104.14
425.83	2083.08
426.01	1994.14
426.20	1942.64
426.39	2092.44
426.58	2104.14
426.77	2036.27
426.96	2092.44
427.15	1994.14
427.33	2246.91
427.52	2099.46
427.71	2195.42
427.90	2179.04
428.09	2195.42
428.28	2270.32
428.46	2146.27
428.65	2221.17
428.84	2195.42
429.03	2228.19
429.22	2211.81
429.40	2239.89
429.59	2242.23
429.78	2097.12
429.97	2223.51
430.16	2136.91
430.34	2207.13
430.53	2244.57
430.72	2361.60
430.91	2251.60
431.10	2352.24
431.28	2368.62
431.47	2331.17
431.66	2464.58
431.85	2483.31
432.03	2410.75
432.22	2415.43
432.41	2483.31
432.60	2471.61
432.79	2443.52
432.97	2490.33
433.16	2520.76
433.35	2487.99
433.54	2490.33
433.72	2560.55
433.91	2392.03
434.10	2450.54
434.28	2506.71
434.47	2560.55
434.66	2525.44
434.85	2649.49
435.03	2635.44
435.22	2565.23
435.41	2708.00
435.59	2708.00
435.78	2637.78
435.97	2560.55
436.16	2696.30
436.34	2476.29
436.53	2675.23
436.72	2700.98
436.90	2745.45
437.09	2712.68
437.28	2572.25
437.46	2719.70
437.65	2888.22
437.84	2787.58
438.02	2759.49
438.21	2782.90
438.40	2764.17
438.58	2928.01
438.77	2771.19
438.96	2944.39
439.14	2874.18
439.33	3091.85
439.52	3007.59
439.70	3023.97
439.89	3009.93
440.08	3143.34
440.26	3005.25
440.45	2932.69
440.63	3035.67
440.82	3241.64
441.01	3206.53
441.19	3185.47
441.38	3199.51
441.57	3110.57
441.75	3248.66
441.94	3236.96
442.12	3068.44
442.31	3276.75
442.50	3194.83
442.68	3145.68
442.87	3255.69
443.05	3421.86
443.24	3232.28
443.43	3295.47
443.61	3328.24
443.80	3574.00
443.98	3440.59
444.17	3199.51
444.35	3435.91
444.54	3403.14
444.73	3410.16
444.91	3468.67
445.10	3365.69
445.28	3382.07
445.47	3506.12
445.65	3379.73
445.84	3449.95
446.02	3449.95
446.21	3473.36
446.39	3349.31
446.58	3459.31
446.77	3499.10
446.95	3431.23
447.14	3398.46
447.32	3574.00
447.51	3569.32
447.69	3487.40
447.88	3555.27
448.06	3431.23
448.25	3463.99
448.43	3634.85
448.62	3508.46
448.80	3550.59
448.99	3585.70
449.17	3574.00
449.36	3606.77
449.54	3606.77
449.73	3791.67
449.91	3604.42
450.10	3679.32
450.28	3662.94
450.46	3644.21
450.65	3562.30
450.83	3679.32
451.02	3709.75
451.20	3688.68
451.39	3794.01
451.57	3850.18
451.76	3637.19
451.94	3833.80
452.13	3894.65
452.31	3875.93
452.49	3999.98
452.68	3791.67
452.86	3765.92
453.05	3843.16
453.23	3833.80
453.42	3812.73
453.60	3810.39
453.78	3784.65
453.97	3829.12
454.15	3889.97
454.34	3922.74
454.52	3915.72
454.70	4016.36
454.89	3957.85
455.07	3971.89
455.26	4037.42
455.44	4081.89
455.62	3967.21
455.81	4030.40
455.99	4131.05
456.17	4072.53
456.36	4051.47
456.54	4163.81
456.73	4140.41
456.91	4280.84
457.09	4217.65
457.28	4311.27
457.46	4217.65
457.64	4273.82
457.83	4227.01
458.01	4229.35
458.19	4432.97
458.38	4374.46
458.56	4404.89
458.74	4561.70
458.93	4355.74
459.11	4456.38
459.29	4227.01
459.48	4603.83
459.66	4472.76
459.84	4407.23
460.03	4601.49
460.21	4507.87
460.39	4535.96
460.57	4435.32
460.76	4472.76
460.94	4638.94
461.12	4760.65
461.31	4599.15
461.49	4620.22
461.67	4580.43
461.85	4784.06
462.04	4580.43
462.22	4774.69
462.40	4751.29
462.59	4690.43
462.77	4652.98
462.95	4667.03
463.13	4744.27
463.32	4840.23
463.50	4875.34
463.68	4865.97
463.86	4798.10
464.05	4711.50
464.23	4786.40
464.41	4947.89
464.59	4718.52
464.78	4861.29
464.96	4849.59
465.14	4877.68
465.32	4994.70
465.50	4959.60
465.69	4992.36
465.87	5006.41
466.05	4987.68
466.23	4992.36
466.41	4992.36
466.60	5158.54
466.78	5018.11
466.96	4898.74
467.14	4990.02
467.32	5186.63
467.51	5205.35
467.69	4865.97
467.87	5235.78
468.05	5139.82
468.23	5102.37
468.41	5135.14
468.60	5231.10
468.78	5273.23
468.96	5125.77
469.14	5170.24
469.32	5327.06
469.50	5032.15
469.69	5228.76
469.87	5479.19
470.05	5493.24
470.23	5448.77
470.41	5408.98
470.59	5331.74
470.77	5497.92
470.95	5416.00
471.14	5533.03
471.32	5385.57
471.50	5701.54
471.68	5467.49
471.86	5593.88
472.04	5582.18
472.22	5741.33
472.40	5621.97
472.58	5650.05
472.77	5666.44
472.95	5703.89
473.13	6054.97
473.31	5703.89
473.49	5776.44
473.67	5900.49
473.85	5783.46
474.03	5933.26
474.21	6038.58
474.39	6050.28
474.57	6001.13
474.75	6026.88
474.93	6017.52
475.12	6122.84
475.30	6162.63
475.48	6333.49
475.66	6197.74
475.84	6190.72
476.02	6239.87
476.20	6230.51
476.38	6424.77
476.56	6497.33
476.74	6663.51
476.92	6473.92
477.10	6602.65
477.28	6794.58
477.46	6590.95
477.64	6621.38
477.82	6670.53
478.00	6890.54
478.18	6939.69
478.36	6927.99
478.54	6864.79
478.72	6965.43
478.90	7073.10
479.08	7234.60
479.26	6979.48
479.44	7190.13
479.62	7272.04
479.80	7548.23
479.98	7445.24
480.16	7492.05
480.34	7602.06
480.52	7581.00
480.70	7707.38
480.88	7538.87
481.06	7538.87
481.24	7623.12
481.41	7810.37
481.59	7903.99
481.77	8004.63
481.95	7992.93
482.13	8070.17
482.31	8030.38
482.49	8060.80
482.67	8248.05
482.85	8278.47
483.03	8439.97
483.21	8517.21
483.39	8514.87
483.57	8500.83
483.74	8739.56
483.92	8837.86
484.10	8561.68
484.28	8840.20
484.46	9062.55
484.64	9025.11
484.82	9107.02
485.00	8882.33
485.18	9378.53
485.35	9390.23
485.53	9479.17
485.71	9392.57
485.89	9434.70
486.07	9359.80
486.25	9614.92
486.43	9832.59
486.61	9678.12
486.78	9823.23
486.96	10083.03
487.14	9856.00
487.32	10141.54
487.50	10078.35
487.68	10092.39
487.85	10380.28
488.03	10427.09
488.21	10665.82
488.39	10307.72
488.57	10773.49
488.75	10399.00
488.92	10871.79
489.10	10771.15
489.28	10965.41
489.46	11002.86
489.64	11211.17
489.81	11171.38
489.99	11290.74
490.17	11211.17
490.35	11403.09
490.53	11295.43
490.70	11468.62
490.88	11300.11
491.06	11683.95
491.24	11604.38
491.41	11662.89
491.59	11815.02
491.77	11901.62
491.95	12018.65
492.13	11985.88
492.30	12224.62
492.48	12030.35
492.66	12470.37
492.84	12224.62
493.01	12601.44
493.19	12648.26
493.37	12528.89
493.54	12486.76
493.72	12737.20
493.90	12734.85
494.08	13099.98
494.25	13109.34
494.43	13092.96
494.61	13191.26
494.79	13301.26
494.96	13317.65
495.14	13376.16
495.32	13518.93
495.49	13465.10
495.67	13607.87
495.85	13769.37
496.02	13947.25
496.20	14005.77
496.38	13743.63
496.55	13961.30
496.73	14134.50
496.91	14178.97
497.09	13961.30
497.26	14312.38
497.44	14279.61
497.62	14335.78
497.79	14406.00
497.97	14230.46
498.14	14490.26
498.32	14492.60
498.50	14850.70
498.67	14801.55
498.85	14874.10
499.03	14902.19
499.20	14972.41
499.38	15070.71
499.56	15028.58
499.73	15089.43
499.91	15098.80
500.08	15248.59
500.26	15094.11
500.44	15225.18
500.61	15379.66
500.79	15501.37
500.97	15470.94
501.14	15822.02
501.32	15786.91
501.49	15772.87
501.67	15831.38
501.84	15793.94
502.02	15826.70
502.20	16004.58
502.37	16154.38
502.55	16119.27
502.72	16046.71
502.90	16105.23
503.07	16210.55
503.25	16264.38
503.43	16126.29
503.60	16503.12
503.78	16460.99
503.95	16580.36
504.13	16491.41
504.30	16533.54
504.48	16393.11
504.65	16711.42
504.83	16793.34
505.01	17062.51
505.18	17025.06
505.36	17242.73
505.53	17053.14
505.71	16968.88
505.88	16947.82
506.06	17121.02
506.23	16959.52
506.41	17296.56
506.58	17301.24
506.76	17153.79
506.93	17352.73
507.11	17181.87
507.28	17408.90
507.46	17305.92
507.63	17509.55
507.81	17657.00
507.98	17544.66
508.16	17862.97
508.33	17584.44
508.50	17771.69
508.68	17778.71
508.85	17874.67
509.03	17956.59
509.20	18368.52
509.38	18396.61
509.55	18057.23
509.73	18197.67
509.90	18382.57
510.08	18370.86
510.25	18340.44
510.42	18188.30
510.60	18658.75
510.77	18417.68
510.95	18696.20
511.12	18537.04
511.30	18422.36
511.47	18630.66
511.64	18813.23
511.82	18569.81
511.99	18958.34
512.17	18932.59
512.34	19021.53
512.51	18845.99
512.69	19014.51
512.86	19089.41
513.04	19510.71
513.21	19363.25
513.38	19133.88
513.56	19143.24
513.73	19297.72
513.90	19363.25
514.08	19229.84
514.25	19648.80
514.43	19662.84
514.60	19697.95
514.77	19676.88
514.95	19693.27
515.12	19770.51
515.29	19639.44
515.47	19611.35
515.64	19894.55
515.81	20081.80
515.99	20020.94
516.16	20390.75
516.33	20058.39
516.51	20240.95
516.68	20212.87
516.85	20034.99
517.03	20194.14
517.20	20414.15
517.37	20224.57
517.54	20404.79
517.72	20381.38
517.89	20634.16
518.06	20332.23
518.24	20575.65
518.41	20465.64
518.58	20727.78
518.75	20554.58
518.93	20741.83
519.10	20683.31
519.27	21125.68
519.45	20961.84
519.62	20868.22
519.79	21029.71
519.96	21001.63
520.14	21387.82
520.31	21231.00
520.48	21483.78
520.65	21195.89
520.83	21511.86
521.00	21153.76
521.17	21504.84
521.34	21446.33
521.52	21640.59
521.69	21296.53
521.86	21376.11
522.03	22141.47
522.20	21436.97
522.38	21738.90
522.55	21490.80
522.72	21820.81
522.89	21853.58
523.07	22199.98
523.24	21820.81
523.41	22204.66
523.58	21507.18
523.75	21884.01
523.92	22078.27
524.10	22101.68
524.27	22347.44
524.44	22309.99
524.61	22082.95
524.78	22534.68
524.96	22581.49
525.13	22438.72
525.30	22305.31
525.47	22209.34
525.64	22302.96
525.81	22448.08
525.98	22361.48
526.16	22387.22
526.33	22644.68
526.50	22909.16
526.67	22759.37
526.84	22614.26
527.01	22525.32
527.18	22506.59
527.36	22778.09
527.53	22871.72
527.70	22951.29
527.87	22932.57
528.04	22834.27
528.21	22827.24
528.38	23133.86
528.55	23152.58
528.72	22906.82
528.89	23124.49
529.07	23101.09
529.24	23040.23
529.41	23365.57
529.58	23403.02
529.75	23384.29
529.92	23239.18
530.09	23536.43
530.26	23658.14
530.43	23534.09
530.60	23470.89
530.77	23335.14
530.94	23967.09
531.11	23611.32
531.28	23407.70
531.46	23520.04
531.63	23604.30
531.80	23770.48
531.97	23711.97
532.14	23908.57
532.31	24060.71
532.48	23962.40
532.65	23892.19
532.82	23749.42
532.99	23913.25
533.16	24044.32
533.33	24456.26
533.50	24437.53
533.67	24425.83
533.84	23924.96
534.01	24151.99
534.18	24102.84
534.35	24428.17
534.52	23812.61
534.69	24254.97
534.86	24463.28
535.03	24577.97
535.20	24526.47
535.37	24629.46
535.54	24423.49
535.71	24299.44
535.88	24601.37
536.05	24687.97
536.22	24596.69
536.38	24563.92
536.55	24959.47
536.72	24793.29
536.89	24439.87
537.06	24622.44
537.23	24868.19
537.40	24758.19
537.57	24896.28
537.74	24762.87
537.91	25125.65
538.08	25181.82
538.25	24992.24
538.42	24964.15
538.59	25125.65
538.75	24643.50
538.92	25081.18
539.09	25207.57
539.26	25273.10
539.43	25137.35
539.60	25579.71
539.77	25455.67
539.94	25294.17
540.11	25095.22
540.28	25429.92
540.44	25446.30
540.61	25710.78
540.78	25216.93
540.95	25490.77
541.12	25427.58
541.29	25968.24
541.46	25160.76
541.62	25656.95
541.79	25495.46
541.96	25500.14
542.13	25610.14
542.30	25947.18
542.47	25710.78
542.63	25958.88
542.80	26146.12
542.97	26068.89
543.14	25827.81
543.31	26398.90
543.48	25846.54
543.64	26377.84
543.81	26661.04
543.98	26457.42
544.15	26373.16
544.32	26576.78
544.48	26721.90
544.65	26324.01
544.82	26235.06
544.99	26246.77
545.16	26195.28
545.32	26279.54
545.49	26749.98
545.66	26309.96
545.83	26724.24
546.00	26792.11
546.16	26621.25
546.33	26497.20
546.50	26478.48
546.67	26534.65
546.83	26429.33
547.00	26450.39
547.17	26838.92
547.34	26642.32
547.50	26684.45
547.67	26878.71
547.84	26686.79
548.00	26958.29
548.17	26766.37
548.34	26958.29
548.51	27129.15
548.67	27159.58
548.84	27215.75
549.01	26984.04
549.18	27000.42
549.34	26897.44
549.51	26820.20
549.68	27173.62
549.84	26944.25
550.01	26967.65
550.18	27101.06
550.34	27124.47
550.51	27545.76
550.68	27342.14
550.84	26993.40
551.01	27417.04
551.18	27152.55
551.34	27091.70
551.51	27166.60
551.68	27248.52
551.84	27555.13
552.01	27178.30
552.18	27938.97
552.34	27353.84
552.51	27374.91
552.68	27522.36
552.84	27304.69
553.01	27585.55
553.18	27386.61
553.34	27585.55
553.51	27573.85
553.67	28002.17
553.84	27983.44
554.01	27728.33
554.17	27779.82
554.34	27770.46
554.51	27580.87
554.67	27819.61
554.84	28156.64
555.00	27936.63
555.17	27908.55
555.33	28121.54
555.50	28048.98
555.67	28343.89
555.83	27669.81
556.00	27934.29
556.16	28063.02
556.33	28016.21
556.50	27953.02
556.66	28027.92
556.83	28100.47
556.99	28327.50
557.16	28292.40
557.32	28404.74
557.49	27992.81
557.65	27960.04
557.82	28301.76
557.98	28011.53
558.15	28395.38
558.32	28318.14
558.48	28348.57
558.65	28481.98
558.81	28308.78
558.98	28510.07
559.14	28636.45
559.31	28484.32
559.47	28268.99
559.64	28481.98
559.80	28371.97
559.97	28374.31
560.13	28432.83
560.30	28528.79
560.46	28484.32
560.63	28613.05
560.79	28435.17
560.96	28584.96
561.12	28453.89
561.29	28360.27
561.45	28170.69
561.61	28601.35
561.78	28587.30
561.94	28718.37
562.11	28760.50
562.27	28655.18
562.44	28191.75
562.60	29008.60
562.77	28563.90
562.93	28453.89
563.10	28943.06
563.26	29221.59
563.42	28788.59
563.59	28723.05
563.75	28737.10
563.92	28716.03
564.08	28453.89
564.24	28849.44
564.41	28828.38
564.57	28638.80
564.74	28898.59
564.90	28800.29
565.07	29371.38
565.23	29209.89
565.39	28706.67
565.56	28992.22
565.72	29142.01
565.88	28741.78
566.05	29195.84
566.21	28959.45
566.38	28458.57
566.54	28673.90
566.70	29296.49
566.87	29275.42
567.03	29174.78
567.19	29116.26
567.36	29106.90
567.52	28814.34
567.68	28966.47
567.85	29109.24
568.01	29163.08
568.17	29090.52
568.34	29219.25
568.50	29647.57
568.66	29013.28
568.83	29254.36
568.99	28861.15
569.15	29130.31
569.32	29113.92
569.48	28922.00
569.64	29252.02
569.81	28922.00
569.97	29202.86
570.13	29333.93
570.30	28919.66
570.46	29408.83
570.62	29481.39
570.78	29399.47
570.95	28938.38
571.11	29427.56
571.27	28968.81
571.43	28996.90
571.60	29326.91
571.76	28868.17
571.92	29296.49
572.09	28826.04
572.25	29790.34
572.41	29226.27
572.57	29099.88
572.74	29687.36
572.90	29144.35
573.06	28992.22
573.22	29308.19
573.38	29617.14
573.55	29429.90
573.71	29692.04
573.87	29486.07
574.03	29092.86
574.20	29394.79
574.36	29244.99
574.52	29560.97
574.68	29268.40
574.84	29048.39
575.01	29340.96
575.17	29406.49
575.33	29205.20
575.49	28903.28
575.65	29193.50
575.82	29558.63
575.98	29134.99
576.14	29261.38
576.30	29544.58
576.46	29207.55
576.62	29153.71
576.79	29666.29
576.95	29106.90
577.11	29537.56
577.27	29532.88
577.43	29528.20
577.59	29504.79
577.75	29661.61
577.92	29343.30
578.08	29411.17
578.24	29092.86
578.40	29535.22
578.56	29539.90
578.72	29755.23
578.88	29640.54
579.04	29406.49
579.21	29607.78
579.37	29537.56
579.53	29785.66
579.69	29333.93
579.85	29619.48
580.01	29535.22
580.17	29357.34
580.33	29640.54
580.49	29322.23
580.65	29783.32
580.82	29820.77
580.98	29450.96
581.14	29647.57
581.30	29717.78
581.46	29439.26
581.62	29764.59
581.78	29699.06
581.94	29762.25
582.10	29310.53
582.26	29696.72
582.42	29366.70
582.58	29933.11
582.74	29759.91
582.90	29387.77
583.06	29453.30
583.22	29893.32
583.38	29560.97
583.54	29434.58
583.70	29418.19
583.86	29647.57
584.02	29663.95
584.18	29518.84
584.34	29724.80
584.50	29675.65
584.66	29797.36
584.82	29640.54
584.98	29392.45
585.14	29944.81
585.30	29839.49
585.46	29659.27
585.62	29331.59
585.78	29455.64
585.94	29067.11
586.10	29668.63
586.26	29701.40
586.42	29818.42
586.58	30043.12
586.74	29743.53
586.90	29820.77
587.06	29556.28
587.22	29837.15
587.38	29436.92
587.54	30169.51
587.70	30096.95
587.86	29771.61
588.02	30127.38
588.18	30272.49
588.34	30192.91
588.49	29780.98
588.65	29565.65
588.81	29785.66
588.97	29940.13
589.13	29408.83
589.29	29713.10
589.45	29738.85
589.61	29912.05
589.77	29902.68
589.93	29687.36
590.08	30323.98
590.24	29596.07
590.40	29951.84
590.56	29923.75
590.72	29858.21
590.88	30078.22
591.04	29823.11
591.20	30286.53
591.35	29748.21
591.51	30288.87
591.67	30099.29
591.83	30094.61
591.99	29982.26
592.15	30108.65
592.31	30167.16
592.46	29914.39
592.62	30349.73
592.78	30160.14
592.94	29745.87
593.10	30087.59
593.26	29984.60
593.41	30113.33
593.57	30436.33
593.73	30038.44
593.89	30106.31
594.05	29935.45
594.20	29989.28
594.36	30101.63
594.52	30022.05
594.68	29795.02
594.84	30209.29
594.99	30204.61
595.15	29916.73
595.31	30333.34
595.47	30115.67
595.62	30022.05
595.78	29736.51
595.94	29687.36
596.10	30235.04
596.25	29722.46
596.41	30045.46
596.57	30459.73
596.73	30164.82
596.88	30012.69
597.04	30087.59
597.20	30511.22
597.36	30176.53
597.51	30504.20
597.67	30368.45
597.83	30204.61
597.99	30094.61
598.14	30031.41
598.30	30384.83
598.46	29848.85
598.61	30075.88
598.77	29954.18
598.93	30267.81
599.09	30221.00
599.24	30581.44
599.40	30258.45
599.56	30323.98
599.71	30096.95
599.87	30532.29
600.03	30242.06
600.18	30504.20
600.34	29745.87
600.50	30080.56
600.65	30178.87
600.81	30457.39
600.97	30405.90
601.12	30579.10
601.28	30801.45
601.44	30338.02
601.59	30546.33
601.75	30316.96
601.91	30202.27
602.06	30281.85
602.22	30485.48
602.37	30015.03
602.53	30169.51
602.69	30333.34
602.84	30314.62
603.00	30061.84
603.16	30335.68
603.31	30314.62
603.47	30307.60
603.62	30323.98
603.78	30089.93
603.94	30321.64
604.09	30211.64
604.25	30071.20
604.40	30057.16
604.56	30370.79
604.71	30534.63
604.87	30352.07
605.03	30527.61
605.18	30417.60
605.34	30223.34
605.49	30010.35
605.65	30239.72
605.80	29401.81
605.96	29926.09
606.12	30108.65
606.27	30270.15
606.43	30080.56
606.58	30054.82
606.74	30202.27
606.89	30085.25
607.05	30101.63
607.20	30181.21
607.36	30293.55
607.51	30085.25
607.67	30047.80
607.82	29919.07
607.98	30263.13
608.13	30047.80
608.29	29696.72
608.44	30082.91
608.60	29951.84
608.75	30244.40
608.91	30340.36
609.06	29621.82
609.22	30349.73
609.37	29324.57
609.53	29818.42
609.68	29926.09
609.84	29958.86
609.99	30192.91
610.15	29558.63
610.30	29935.45
610.46	30099.29
610.61	30019.71
610.76	29785.66
610.92	29890.98
611.07	29982.26
611.23	29465.00
611.38	29518.84
611.54	29273.08
611.69	29668.63
611.84	29546.92
612.00	29462.66
612.15	30150.78
612.31	30183.55
612.46	30064.18
612.62	29886.30
612.77	29706.08
612.92	29539.90
613.08	29727.14
613.23	30176.53
613.39	29532.88
613.54	29640.54
613.69	29539.90
613.85	29589.05
614.00	29539.90
614.15	29972.90
614.31	29560.97
614.46	29755.23
614.62	29993.97
614.77	29369.04
614.92	29336.27
615.08	29575.01
615.23	29724.80
615.38	29530.54
615.54	29333.93
615.69	29294.14
615.84	29273.08
616.00	29219.25
616.15	29579.69
616.30	29359.68
616.46	29376.06
616.61	29139.67
616.76	29638.20
616.92	29457.98
617.07	29521.18
617.22	29352.66
617.37	29207.55
617.53	29556.28
617.68	29284.78
617.83	29076.48
617.99	29177.12
618.14	29291.80
618.29	29284.78
618.45	29287.12
618.60	29345.64
618.75	29380.74
618.90	29191.16
619.06	28926.68
619.21	29118.60
619.36	29207.55
619.51	28989.88
619.67	29125.63
619.82	28973.49
619.97	29310.53
620.12	28704.33
620.28	28950.09
620.43	29439.26
620.58	28957.11
620.73	29284.78
620.89	29193.50
621.04	29001.58
621.19	28657.52
621.34	29142.01
621.49	28388.36
621.65	29008.60
621.80	28898.59
621.95	28711.35
622.10	28753.48
622.25	28711.35
622.41	28643.48
622.56	28982.85
622.71	28582.62
622.86	28844.76
623.01	29048.39
623.16	28903.28
623.32	28643.48
623.47	29078.82
623.62	28664.54
623.77	28732.42
623.92	28891.57
624.07	28758.16
624.23	28566.24
624.38	28774.55
624.53	29022.64
624.68	28797.95
624.83	28470.28
624.98	28545.17
625.13	28271.33
625.29	28823.70
625.44	28767.52
625.59	28322.82
625.74	28879.87
625.89	28264.31
626.04	28421.13
626.19	28467.94
626.34	27992.81
626.49	28732.42
626.65	28388.36
626.80	28470.28
626.95	28615.39
627.10	28154.30
627.25	28437.51
627.40	28376.66
627.55	28105.15
627.70	27927.27
627.85	28224.52
628.00	27812.59
628.15	27964.72
628.30	28084.09
628.45	28135.58
628.60	27929.61
628.76	28210.48
628.91	28182.39
629.06	27852.38
629.21	28058.34
629.36	27580.87
629.51	28095.79
629.66	28011.53
629.81	27882.80
629.96	27662.79
630.11	28006.85
630.26	27686.20
630.41	27789.18
630.56	27402.99
630.71	27686.20
630.86	28121.54
631.01	27892.16
631.16	27850.03
631.31	27866.42
631.46	27747.05
631.61	27786.84
631.76	28072.39
631.91	27740.03
632.06	27597.26
632.21	27700.24
632.36	27847.69
632.51	27484.91
632.66	27597.26
632.81	27538.74
632.96	27545.76
633.10	27522.36
633.25	27796.20
633.40	27946.00
633.55	27489.59
633.70	27225.11
633.85	27337.46
634.00	27318.73
634.15	27068.30
634.30	27300.01
634.45	27229.79
634.60	27323.41
634.75	27353.84
634.90	27611.30
635.05	27594.92
635.19	27267.24
635.34	27583.21
635.49	27793.86
635.64	27639.39
635.79	27501.29
635.94	27077.66
636.09	27569.17
636.24	27318.73
636.39	27288.31
636.53	27220.43
636.68	27005.10
636.83	27122.13
636.98	27094.04
637.13	27108.08
637.28	27077.66
637.43	27211.07
637.57	26864.67
637.72	27353.84
637.87	27276.60
638.02	26820.20
638.17	27042.55
638.32	26948.93
638.46	26930.20
638.61	26761.69
638.76	26565.08
638.91	26906.80
639.06	26920.84
639.20	27047.23
639.35	27304.69
639.50	27096.38
639.65	27150.21
639.80	26902.12
639.94	26918.50
640.09	26927.86
640.24	26740.62
640.39	26621.25
640.54	26600.19
640.68	26359.11
640.83	26623.59
640.98	26595.51
641.13	26349.75
641.27	26923.18
641.42	26396.56
641.57	26848.29
641.72	26478.48
641.86	26536.99
642.01	26312.30
642.16	26452.73
642.31	26663.38
642.45	26927.86
642.60	26478.48
642.75	26190.59
642.90	26508.91
643.04	26272.51
643.19	26373.16
643.34	26162.51
643.48	26270.17
643.63	26630.62
643.78	26663.38
643.93	26452.73
644.07	26548.70
644.22	26836.58
644.37	26380.18
644.51	25935.48
644.66	26279.54
644.81	26122.72
644.95	26328.69
645.10	26094.63
645.25	26806.16
645.39	26356.77
645.54	26148.46
645.69	26045.48
645.83	26235.06
645.98	26129.74
646.13	26335.71
646.27	26459.76
646.42	26188.25
646.57	25806.75
646.71	25820.79
646.86	25790.36
647.00	26471.46
647.15	26080.59
647.30	25757.60
647.44	25898.03
647.59	25731.85
647.74	25914.41
647.88	26050.16
648.03	25823.13
648.17	25907.39
648.32	26108.68
648.47	26010.37
648.61	25963.56
648.76	26188.25
648.90	25891.01
649.05	25914.41
649.20	25654.61
649.34	25792.70
649.49	25521.20
649.63	25579.71
649.78	25420.56
649.92	25680.36
650.07	25874.62
650.21	25837.17
650.36	25617.16
650.51	25638.23
650.65	25663.97
650.80	25865.26
650.94	25462.69
651.09	25514.18
651.23	25415.88
651.38	25453.33
651.52	25326.94
651.67	25228.63
651.81	25479.07
651.96	25324.60
652.10	25408.86
652.25	25350.34
652.39	25373.75
652.54	25460.35
652.68	25546.95
652.83	25568.01
652.97	25483.75
653.12	25481.41
653.26	25076.50
653.41	25378.43
653.55	25142.03
653.70	25198.21
653.84	25156.08
653.99	25205.23
654.13	25275.45
654.27	25212.25
654.42	25242.68
654.56	25179.48
654.71	25366.73
654.85	24844.79
655.00	25233.32
655.14	24996.92
655.29	25125.65
655.43	25010.96
655.57	25223.95
655.72	24893.94
655.86	24966.49
656.01	24875.21
656.15	24943.09
656.30	25170.12
656.44	24833.08
656.58	24910.32
656.73	24643.50
656.87	25109.27
657.01	25156.08
657.16	24877.55
657.30	25315.23
657.45	24835.42
657.59	24584.99
657.73	24547.54
657.88	25050.75
658.02	24884.58
658.16	24304.12
658.31	24505.41
658.45	24687.97
658.60	24374.34
658.74	24348.59
658.88	24545.20
659.03	24514.77
659.17	24545.20
659.31	24592.01
659.46	24809.68
659.60	24795.64
659.74	24491.37
659.89	24299.44
660.03	24041.98
660.17	24575.62
660.32	24458.60
660.46	24418.81
660.60	23946.02
660.74	24542.86
660.89	24201.14
661.03	23887.51
661.17	24212.84
661.32	23974.11
661.46	24259.65
661.60	24034.96
661.74	24093.47
661.89	23910.91
662.03	24372.00
662.17	23955.38
662.31	23871.12
662.46	23807.93
662.60	23590.26
662.74	23620.69
662.88	23859.42
663.03	23665.16
663.17	23604.30
663.31	23386.63
663.45	23524.72
663.60	23232.16
663.74	23192.37
663.88	23908.57
664.02	23473.23
664.17	23695.58
664.31	23379.61
664.45	23398.34
664.59	23641.75
664.73	23517.70
664.88	23082.36
665.02	23241.52
665.16	22977.04
665.30	23026.19
665.44	23285.99
665.59	23012.15
665.73	23021.51
665.87	22995.76
666.01	22986.40
666.15	23255.56
666.29	22986.40
666.44	23220.45
666.58	23009.81
666.72	22941.93
666.86	22824.90
667.00	22993.42
667.14	22750.01
667.28	22860.01
667.43	22913.84
667.57	22771.07
667.71	22719.58
667.85	22609.58
667.99	22328.71
668.13	22600.21
668.27	22750.01
668.41	22745.33
668.56	22356.80
668.70	22352.12
668.84	22618.94
668.98	22448.08
669.12	22569.79
669.26	22143.81
669.40	22417.65
669.54	22628.30
669.68	22274.88
669.82	22061.89
669.96	22298.28
670.10	22185.94
670.25	22108.70
670.39	22017.42
670.53	22431.69
670.67	21944.86
670.81	22171.89
670.95	22321.69
671.09	21893.37
671.23	22087.64
671.37	21956.57
671.51	22087.64
671.65	21994.01
671.79	21942.52
671.93	21598.46
672.07	21603.14
672.21	21418.24
672.35	21413.56
672.49	21710.81
672.63	21486.12
672.77	21345.69
672.91	21436.97
673.05	21504.84
673.19	21329.30
673.33	21247.38
673.47	21223.98
673.61	21446.33
673.75	21209.93
673.89	21443.99
674.03	21156.10
674.17	21352.71
674.31	21106.95
674.45	20840.13
674.59	21006.31
674.73	21184.19
674.87	21060.14
675.01	20858.85
675.15	20610.76
675.29	20900.98
675.43	20404.79
675.56	20542.88
675.70	20737.15
675.84	20556.93
675.98	19990.52
676.12	20786.30
676.26	20615.44
676.40	20489.05
676.54	20472.67
676.68	20109.88
676.82	20128.61
676.96	20016.26
677.10	20032.65
677.23	19955.41
677.37	19784.55
677.51	19449.85
677.65	19943.70
677.79	19735.40
677.93	19548.15
678.07	19571.56
678.21	19278.99
678.34	19410.06
678.48	19730.72
678.62	19604.33
678.76	19154.94
678.90	19101.11
679.04	19164.31
679.18	19360.91
679.31	19098.77
679.45	18810.89
679.59	19096.43
679.73	19213.46
679.87	18761.73
680.00	18707.90
680.14	18789.82
680.28	18754.71
680.42	18829.61
680.56	18843.65
680.70	18462.15
680.83	18768.76
680.97	18642.37
681.11	18492.57
681.25	18087.66
681.39	18438.74
681.52	18520.66
681.66	18209.37
681.80	18061.91
681.94	18260.86
682.07	18082.98
682.21	17940.21
682.35	17851.27
682.49	18005.74
682.62	17989.36
682.76	17769.35
682.90	18064.25
683.04	17713.17
683.17	17806.80
683.31	17680.41
683.45	17769.35
683.59	17734.24
683.72	17530.61
683.86	17589.13
684.00	17633.60
684.13	17362.09
684.27	17310.60
684.41	17355.07
684.55	17069.53
684.68	17057.82
684.82	16847.18
684.96	17069.53
685.09	16872.92
685.23	16704.40
685.37	17027.40
685.50	16833.13
685.64	16950.16
685.78	16734.83
685.91	16886.97
686.05	16762.92
686.19	16734.83
686.32	16568.65
686.46	16369.71
686.60	16453.97
686.73	16271.40
686.87	16198.85
687.01	16566.31
687.14	16149.70
687.28	16027.99
687.42	16020.97
687.55	15690.95
687.69	16020.97
687.82	15796.28
687.96	15824.36
688.10	15768.19
688.23	15712.02
688.37	15831.38
688.50	15702.65
688.64	15527.11
688.78	15564.56
688.91	15566.90
689.05	15297.74
689.18	15379.66
689.32	15346.89
689.46	15274.34
689.59	15126.88
689.73	15133.90
689.86	14902.19
690.00	14972.41
690.13	14967.73
690.27	15044.96
690.41	15023.90
690.54	14710.27
690.68	14988.79
690.81	15009.86
690.95	14693.88
691.08	14934.96
691.22	14572.18
691.35	14988.79
691.49	14586.22
691.62	14656.43
691.76	14508.98
691.89	14525.36
692.03	14328.76
692.16	14211.73
692.30	14270.25
692.43	14061.94
692.57	14099.39
692.70	14050.24
692.84	13844.27
692.97	14029.17
693.11	14026.83
693.24	14099.39
693.38	13898.10
693.51	13994.06
693.65	13865.33
693.78	13806.82
693.92	13444.04
694.05	13584.47
694.19	13460.42
694.32	13483.83
694.45	13247.43
694.59	13085.94
694.72	13121.04
694.86	12952.52
694.99	13158.49
695.13	13069.55
695.26	13053.17
695.39	12966.57
695.53	13022.74
695.66	12877.63
695.80	12961.89
695.93	12870.61
696.07	12854.22
696.20	12931.46
696.33	12540.59
696.47	12596.76
696.60	12739.54
696.73	12540.59
696.87	12444.63
697.00	12388.46
697.14	12348.67
697.27	12217.60
697.40	12222.28
697.54	12152.06
697.67	12067.80
697.80	12173.13
697.94	11822.05
698.07	11953.12
698.21	11887.58
698.34	11770.55
698.47	11899.28
698.61	11957.80
698.74	11929.71
698.87	11730.76
699.01	11768.21
699.14	11541.18
699.27	11499.05
699.40	11660.55
699.54	11433.52
699.67	11330.53
699.80	11597.35
699.94	11527.14
700.07	11414.79
700.20	11199.46
700.34	11030.94
700.47	11110.52
700.60	10977.11
700.73	11276.70
700.87	10974.77
701.00	11042.65
701.13	11009.88
701.26	11089.46
701.40	10949.03
701.53	10864.77
701.66	10857.75
701.79	10473.90
701.93	10663.48
702.06	10738.38
702.19	10466.88
702.32	10558.16
702.46	10658.80
702.59	10345.17
702.72	10333.47
702.85	10221.12
702.99	10375.59
703.12	10228.14
703.25	10150.90
703.38	10335.81
703.51	10036.22
703.65	10186.01
703.78	10209.42
703.91	10080.69
704.04	10073.67
704.17	9879.40
704.31	9888.76
704.44	9893.44
704.57	9710.88
704.70	9598.54
704.83	9645.35
704.96	9703.86
705.10	9558.75
705.23	9364.48
>>>>>End Processed Spectral Data<<<<<
