SpectraSuite Data File
++++++++++++++++++++++++++++++++++++
Date: Fri Oct 18 13:55:22 GMT-05:00 2013
User: bianchi
Dark Spectrum Present: No
Reference Spectrum Present: No
Number of Sampled Component Spectra: 1
Spectrometers: USB2+H05261
Integration Time (usec): 100000 (USB2+H05261)
Spectra Averaged: 1 (USB2+H05261)
Boxcar Smoothing: 0 (USB2+H05261)
Correct for Electrical Dark: No (USB2+H05261)
Strobe/Lamp Enabled: No (USB2+H05261)
Correct for Detector Non-linearity: No (USB2+H05261)
Correct for Stray Light: No (USB2+H05261)
Number of Pixels in Processed Spectrum: 2048
>>>>>Begin Processed Spectral Data<<<<<
365.73	0.00
365.92	0.00
366.12	0.00
366.32	0.00
366.52	0.00
366.72	0.00
366.91	0.00
367.11	0.00
367.31	0.00
367.51	0.00
367.70	0.00
367.90	0.00
368.10	0.00
368.30	0.00
368.49	0.00
368.69	0.00
368.89	0.00
369.09	0.00
369.28	0.00
369.48	0.00
369.68	0.00
369.87	0.00
370.07	0.00
370.27	0.00
370.47	0.00
370.66	205.97
370.86	325.33
371.06	360.44
371.25	381.51
371.45	285.55
371.65	411.93
371.84	257.46
372.04	388.53
372.24	341.72
372.44	374.49
372.63	367.46
372.83	500.87
373.03	425.98
373.22	517.26
373.42	451.72
373.62	470.45
373.81	489.17
374.01	545.34
374.21	547.69
374.40	479.81
374.60	447.04
374.79	468.11
374.99	491.51
375.19	493.85
375.38	564.07
375.58	521.94
375.78	533.64
375.97	545.34
376.17	613.22
376.37	571.09
376.56	496.19
376.76	512.58
376.95	540.66
377.15	566.41
377.35	592.16
377.54	571.09
377.74	589.82
377.93	559.39
378.13	631.94
378.33	491.51
378.52	627.26
378.72	585.13
378.91	664.71
379.11	571.09
379.31	514.92
379.50	615.56
379.70	636.63
379.89	587.47
380.09	613.22
380.28	615.56
380.48	655.35
380.68	653.01
380.87	578.11
381.07	653.01
381.26	706.84
381.46	592.16
381.65	685.78
381.85	629.60
382.04	730.25
382.24	711.52
382.43	636.63
382.63	615.56
382.83	697.48
383.02	650.67
383.22	711.52
383.41	753.65
383.61	655.35
383.80	903.45
384.00	795.78
384.19	739.61
384.39	765.36
384.58	741.95
384.78	716.20
384.97	784.08
385.17	763.01
385.36	781.74
385.56	793.44
385.75	784.08
385.95	793.44
386.14	814.51
386.34	816.85
386.53	866.00
386.72	856.64
386.92	863.66
387.11	924.51
387.31	898.77
387.50	919.83
387.70	889.40
387.89	875.36
388.09	807.48
388.28	858.98
388.48	837.91
388.67	983.02
388.86	905.79
389.06	889.40
389.25	889.40
389.45	961.96
389.64	896.43
389.84	966.64
390.03	994.73
390.22	1015.79
390.42	1057.92
390.61	947.92
390.81	1046.22
391.00	1076.65
391.19	1057.92
391.39	1020.47
391.58	1001.75
391.78	1093.03
391.97	1083.67
392.16	1081.33
392.36	1076.65
392.55	1137.50
392.75	1188.99
392.94	1158.57
393.13	1081.33
393.33	1013.45
393.52	1114.10
393.71	1188.99
393.91	1151.54
394.10	1196.01
394.29	1212.40
394.49	1212.40
394.68	1219.42
394.88	1270.91
395.07	1270.91
395.26	1284.95
395.46	1313.04
395.65	1350.49
395.84	1228.78
396.04	1334.11
396.23	1256.87
396.42	1306.02
396.62	1394.96
396.81	1350.49
397.00	1373.89
397.19	1348.15
397.39	1371.55
397.58	1455.81
397.77	1334.11
397.97	1451.13
398.16	1486.24
398.35	1497.94
398.55	1504.96
398.74	1533.05
398.93	1490.92
399.12	1640.72
399.32	1441.77
399.51	1441.77
399.70	1626.67
399.90	1528.37
400.09	1533.05
400.28	1682.85
400.47	1514.33
400.67	1596.25
400.86	1535.39
401.05	1619.65
401.24	1696.89
401.44	1717.95
401.63	1682.85
401.82	1666.46
402.01	1708.59
402.21	1661.78
402.40	1732.00
402.59	1823.28
402.78	1816.26
402.97	1874.77
403.17	1816.26
403.36	1774.13
403.55	1865.41
403.74	1930.94
403.93	1895.83
404.13	1954.35
404.32	1982.43
404.51	1907.54
404.70	2008.18
404.89	1949.67
405.09	1987.11
405.28	1998.82
405.47	1930.94
405.66	2069.03
405.85	2092.44
406.05	2143.93
406.24	2078.40
406.43	2022.22
406.62	2122.87
406.81	2139.25
407.00	2160.31
407.20	2207.13
407.39	2312.45
407.58	2167.34
407.77	2289.04
407.96	2321.81
408.15	2359.26
408.34	2282.02
408.54	2256.28
408.73	2427.14
408.92	2326.49
409.11	2480.97
409.30	2466.92
409.49	2471.61
409.68	2480.97
409.87	2452.88
410.07	2579.27
410.26	2553.52
410.45	2544.16
410.64	2544.16
410.83	2642.46
411.02	2759.49
411.21	2700.98
411.40	2818.00
411.59	2818.00
411.78	2684.59
411.98	2661.19
412.17	2832.05
412.36	2920.99
412.55	2881.20
412.74	2869.50
412.93	2890.56
413.12	2923.33
413.31	3066.10
413.50	2892.90
413.69	3059.08
413.88	3265.05
414.07	3049.72
414.26	3094.19
414.45	3206.53
414.64	3141.00
414.83	3321.22
415.02	3351.65
415.22	3353.99
415.41	3471.01
415.60	3386.76
415.79	3449.95
415.98	3492.08
416.17	3559.95
416.36	3513.14
416.55	3581.02
416.74	3684.00
416.93	3702.73
417.12	3688.68
417.31	3861.88
417.50	3782.31
417.69	3812.73
417.88	3744.86
418.07	3803.37
418.26	3880.61
418.45	3908.69
418.64	4028.06
418.83	4014.02
419.02	3932.10
419.21	4081.89
419.39	4056.15
419.58	3957.85
419.77	4018.70
419.96	4187.22
420.15	4201.26
420.34	4119.34
420.53	4227.01
420.72	4269.14
420.91	4175.52
421.10	4231.69
421.29	4421.27
421.48	4269.14
421.67	4374.46
421.86	4210.62
422.05	4472.76
422.24	4416.59
422.43	4191.90
422.61	4416.59
422.80	4484.47
422.99	4318.29
423.18	4505.53
423.37	4447.02
423.56	4624.90
423.75	4269.14
423.94	4407.23
424.13	4065.51
424.32	4428.29
424.50	4557.02
424.69	4667.03
424.88	4580.43
425.07	4432.97
425.26	4442.34
425.45	4571.07
425.64	4493.83
425.83	4528.94
426.01	4641.28
426.20	4538.30
426.39	4608.51
426.58	4669.37
426.77	4657.67
426.96	4627.24
427.15	4582.77
427.33	4667.03
427.52	4681.07
427.71	4868.31
427.90	4819.16
428.09	4966.62
428.28	4849.59
428.46	4870.65
428.65	4903.42
428.84	5085.98
429.03	5013.43
429.22	4954.91
429.40	5020.45
429.59	5247.48
429.78	4917.47
429.97	4891.72
430.16	5032.15
430.34	5100.03
430.53	5277.91
430.72	5130.45
430.91	5296.63
431.10	5224.08
431.28	5329.40
431.47	5266.21
431.66	5434.72
431.85	5184.29
432.03	5430.04
432.22	5371.53
432.41	5411.32
432.60	5394.93
432.79	5338.76
432.97	5301.31
433.16	5671.12
433.35	5558.77
433.54	5568.13
433.72	5619.63
433.91	5593.88
434.10	5710.91
434.28	5591.54
434.47	5586.86
434.66	5633.67
434.85	5755.38
435.03	5846.66
435.22	5813.89
435.41	6090.07
435.59	5783.46
435.78	5696.86
435.97	5944.96
436.16	6040.92
436.34	5895.81
436.53	5858.36
436.72	6282.00
436.90	5928.58
437.09	6087.73
437.28	6076.03
437.46	6069.01
437.65	6059.65
437.84	6258.59
438.02	6111.14
438.21	6277.32
438.40	6209.44
438.58	6354.55
438.77	6373.28
438.96	6354.55
439.14	6609.67
439.33	6677.55
439.52	6546.48
439.70	6614.35
439.89	6808.62
440.08	6705.63
440.26	6825.00
440.45	6958.41
440.63	6960.75
440.82	6892.88
441.01	7183.10
441.19	7070.76
441.38	7199.49
441.57	7267.36
441.75	7241.62
441.94	7321.20
442.12	7272.04
442.31	7370.35
442.50	7279.07
442.68	7527.16
442.87	7297.79
443.05	7403.11
443.24	7510.78
443.43	7309.49
443.61	7524.82
443.80	7536.52
443.98	7365.67
444.17	7293.11
444.35	7459.29
444.54	7705.04
444.73	7737.81
444.91	7604.40
445.10	7894.63
445.28	7887.61
445.47	7644.19
445.65	7786.96
445.84	8051.44
446.02	7875.90
446.21	7819.73
446.39	7775.26
446.58	7817.39
446.77	7716.75
446.95	7728.45
447.14	7784.62
447.32	7934.42
447.51	7719.09
447.69	7854.84
447.88	7838.45
448.06	7747.17
448.25	7735.47
448.43	7805.69
448.62	7911.01
448.80	7995.27
448.99	7798.66
449.17	8025.70
449.36	7911.01
449.54	8262.09
449.73	8290.18
449.91	8374.44
450.10	8114.64
450.28	8491.46
450.46	8315.92
450.65	8173.15
450.83	8514.87
451.02	8491.46
451.20	8456.36
451.39	8250.39
451.57	8353.37
451.76	8381.46
451.94	8505.51
452.13	8559.34
452.31	8746.58
452.49	8395.50
452.68	8669.34
452.86	8734.88
453.05	8706.79
453.23	8681.05
453.42	8667.00
453.60	8706.79
453.78	8894.04
453.97	8695.09
454.15	8725.52
454.34	8737.22
454.52	8978.30
454.70	9067.24
454.89	8891.70
455.07	9062.55
455.26	8952.55
455.44	9303.63
455.62	9221.71
455.81	9226.39
455.99	9329.38
456.17	9369.16
456.36	9277.88
456.54	9518.96
456.73	9504.92
456.91	9523.64
457.09	9647.69
457.28	9741.31
457.46	9598.54
457.64	9703.86
457.83	9790.46
458.01	9565.77
458.19	9748.33
458.38	9734.29
458.56	9799.82
458.74	9940.26
458.93	9928.55
459.11	9951.96
459.29	9912.17
459.48	9811.53
459.66	9958.98
459.84	10071.33
460.03	10424.75
460.21	10155.58
460.39	10162.61
460.57	10008.13
460.76	10045.58
460.94	10317.08
461.12	10249.21
461.31	10366.23
461.49	10265.59
461.67	10509.01
461.85	10562.84
462.04	10237.50
462.22	10539.43
462.40	10485.60
462.59	10647.10
462.77	10696.25
462.95	10628.37
463.13	10640.08
463.32	10806.25
463.50	10471.56
463.68	10785.19
463.86	10822.64
464.05	10649.44
464.23	10782.85
464.41	10864.77
464.59	10651.78
464.78	11077.76
464.96	11021.58
465.14	10717.31
465.32	11187.76
465.50	11283.72
465.69	11257.98
465.87	10944.34
466.05	11087.12
466.23	11147.97
466.41	11255.64
466.60	11463.94
466.78	11243.93
466.96	11037.97
467.14	10993.50
467.32	11414.79
467.51	11454.58
467.69	11197.12
467.87	11398.41
468.05	11515.44
468.23	11398.41
468.41	11234.57
468.60	11527.14
468.78	11784.60
468.96	11538.84
469.14	12060.78
469.32	11871.20
469.50	11492.03
469.69	12035.03
469.87	11953.12
470.05	12081.85
470.23	11843.11
470.41	12243.34
470.59	11981.20
470.77	11981.20
470.95	11920.35
471.14	12367.39
471.32	12042.06
471.50	12561.66
471.68	12299.52
471.86	12425.90
472.04	12596.76
472.22	12896.35
472.40	12540.59
472.58	12601.44
472.77	12666.98
472.95	12863.58
473.13	13568.09
473.31	12922.10
473.49	12879.97
473.67	12966.57
473.85	12961.89
474.03	13198.28
474.21	13504.89
474.39	13422.97
474.57	13437.02
474.75	13516.59
474.93	13675.75
475.12	13624.26
475.30	13760.01
475.48	13935.55
475.66	13970.66
475.84	14127.47
476.02	14380.25
476.20	14083.00
476.38	14703.25
476.56	14506.64
476.74	14724.31
476.92	14553.45
477.10	14525.36
477.28	14712.61
477.46	14998.15
477.64	15171.35
477.82	15215.82
478.00	15389.02
478.18	15440.51
478.36	15431.15
478.54	15569.24
478.72	15690.95
478.90	16009.26
479.08	16063.10
479.26	16226.93
479.44	16240.98
479.62	16229.27
479.80	16552.27
479.98	16688.02
480.16	16931.44
480.34	16741.85
480.52	16966.54
480.70	17043.78
480.88	16676.32
481.06	17118.68
481.24	16910.37
481.41	17235.70
481.59	17649.98
481.77	17937.87
481.95	18141.49
482.13	17954.25
482.31	18017.44
482.49	18321.71
482.67	18377.89
482.85	18595.56
483.03	19117.50
483.21	19056.64
483.39	19077.71
483.57	19145.58
483.74	19517.73
483.92	19494.32
484.10	19632.41
484.28	20037.33
484.46	19988.18
484.64	20339.26
484.82	20304.15
485.00	20168.40
485.18	20858.85
485.35	20966.52
485.53	21116.31
485.71	21025.03
485.89	21809.11
486.07	21406.54
486.25	21188.87
486.43	21645.27
486.61	21745.92
486.78	22141.47
486.96	22134.45
487.14	22553.40
487.32	22394.25
487.50	22539.36
487.68	22923.21
487.85	22979.38
488.03	23569.19
488.21	23838.36
488.39	23660.48
488.57	23983.47
488.75	23852.40
488.92	23885.17
489.10	24346.25
489.28	24393.06
489.46	24833.08
489.64	25053.09
489.81	25046.07
489.99	24900.96
490.17	25263.74
490.35	25771.64
490.53	25362.04
490.70	26015.05
490.88	25848.88
491.06	26546.36
491.24	26143.78
491.41	26546.36
491.59	27122.13
491.77	26544.02
491.95	27295.33
492.13	27084.68
492.30	27080.00
492.48	27555.13
492.66	27360.86
492.84	27683.86
493.01	27784.50
493.19	28004.51
493.37	28332.18
493.54	28360.27
493.72	28842.42
493.90	28683.27
494.08	28833.06
494.25	29366.70
494.43	29163.08
494.61	29888.64
494.79	29713.10
494.96	29706.08
495.14	29731.83
495.32	30380.15
495.49	30373.13
495.67	30738.26
495.85	30920.82
496.02	30927.84
496.20	30892.73
496.38	30953.58
496.55	31009.76
496.73	31824.26
496.91	31737.66
497.09	31842.99
497.26	32240.88
497.44	32030.23
497.62	31765.75
497.79	32521.74
497.97	32409.40
498.14	33015.60
498.32	33041.34
498.50	33123.26
498.67	33153.69
498.85	32971.13
499.03	32863.46
499.20	33179.43
499.38	33724.78
499.56	33867.55
499.73	34085.22
499.91	34211.61
500.08	34153.10
500.26	33778.61
500.44	34188.21
500.61	34618.86
500.79	34167.14
500.97	34700.78
501.14	35524.65
501.32	34892.71
501.49	35023.78
501.67	35454.44
501.84	35409.96
502.02	35648.70
502.20	35995.10
502.37	35957.65
502.55	35388.90
502.72	35943.61
502.90	35770.41
503.07	35817.22
503.25	36158.94
503.43	36126.17
503.60	36430.44
503.78	36699.60
503.95	36591.94
504.13	36938.33
504.30	36910.25
504.48	36889.18
504.65	37074.09
504.83	37347.93
505.01	37940.08
505.18	37619.43
505.36	37991.58
505.53	37872.21
505.71	38153.07
505.88	37923.70
506.06	37471.98
506.23	38415.21
506.41	37778.59
506.58	38316.91
506.76	38525.22
506.93	38670.33
507.11	38295.85
507.28	39056.52
507.46	38464.36
507.63	39096.31
507.81	39498.88
507.98	39292.91
508.16	39138.44
508.33	39255.46
508.50	39782.09
508.68	39627.61
508.85	40041.88
509.03	39950.60
509.20	40163.59
509.38	40449.14
509.55	40781.49
509.73	40325.09
509.90	40311.05
510.08	40620.00
510.25	40474.88
510.42	40877.46
510.60	40989.80
510.77	41305.77
510.95	41193.43
511.12	40917.25
511.30	41076.40
511.47	41883.89
511.64	42057.09
511.82	41750.48
511.99	41666.22
512.17	41872.18
512.34	41933.04
512.51	41963.46
512.69	42101.56
512.86	42494.77
513.04	42471.36
513.21	42794.36
513.38	42937.13
513.56	42831.80
513.73	42658.60
513.90	43143.09
514.08	42796.70
514.25	43079.90
514.43	43391.19
514.60	43182.88
514.77	43316.29
514.95	43789.08
515.12	43206.29
515.29	43384.17
515.47	43840.57
515.64	44048.88
515.81	43732.91
515.99	44172.93
516.16	44144.84
516.33	44296.98
516.51	44575.50
516.68	44116.76
516.85	44683.17
517.03	44666.78
517.20	44390.60
517.37	44168.25
517.54	45191.06
517.72	44849.35
517.89	44985.10
518.06	44947.65
518.24	44678.49
518.41	44992.12
518.58	45160.64
518.75	45397.03
518.93	45684.92
519.10	45682.58
519.27	45909.61
519.45	45530.44
519.62	45696.62
519.79	45780.88
519.96	45581.93
520.14	45982.16
520.31	45916.63
520.48	46461.97
520.65	45626.40
520.83	46597.73
521.00	46387.08
521.17	46529.85
521.34	46153.02
521.52	46321.54
521.69	46705.39
521.86	46850.50
522.03	46857.52
522.20	46887.95
522.38	46997.96
522.55	47021.36
522.72	47147.75
522.89	47306.91
523.07	47391.17
523.24	47110.30
523.41	47639.26
523.58	47372.44
523.75	47445.00
523.92	47393.51
524.10	48058.22
524.27	47924.81
524.44	47756.29
524.61	48224.40
524.78	48311.00
524.96	48247.80
525.13	48107.37
525.30	48016.09
525.47	48133.12
525.64	48273.55
525.81	48947.62
525.98	48992.09
526.16	48762.72
526.33	48350.79
526.50	49130.19
526.67	48683.14
526.84	48933.58
527.01	48832.94
527.18	49029.54
527.36	48877.41
527.53	49364.24
527.70	49251.89
527.87	49261.26
528.04	49446.16
528.21	49397.01
528.38	49670.85
528.55	49382.96
528.72	49450.84
528.89	49675.53
529.07	49570.21
529.24	49469.56
529.41	49869.79
529.58	49851.07
529.75	49511.69
529.92	49680.21
530.09	49432.11
530.26	49979.80
530.43	50349.60
530.60	50010.23
530.77	50171.72
530.94	49865.11
531.11	50129.59
531.28	50234.92
531.46	50520.46
531.63	50305.13
531.80	50705.37
531.97	50782.60
532.14	50887.93
532.31	50597.70
532.48	50506.42
532.65	50728.77
532.82	50543.87
532.99	50618.77
533.16	50791.97
533.33	50965.17
533.50	51311.56
533.67	51217.94
533.84	51079.85
534.01	50871.54
534.18	51145.39
534.35	51323.27
534.52	51136.02
534.69	51323.27
534.86	51503.49
535.03	51196.88
535.20	51753.93
535.37	51349.01
535.54	51489.45
535.71	51241.35
535.88	51229.65
536.05	51622.86
536.22	51936.49
536.38	51789.03
536.55	51571.36
536.72	51800.74
536.89	51655.62
537.06	51606.47
537.23	51807.76
537.40	51423.91
537.57	52116.71
537.74	52069.90
537.91	52315.65
538.08	52196.29
538.25	52222.03
538.42	52144.80
538.59	51931.81
538.75	52280.55
538.92	52388.21
539.09	52322.68
539.26	52458.43
539.43	52425.66
539.60	52430.34
539.77	52694.82
539.94	52697.16
540.11	52622.26
540.28	52638.65
540.44	52650.35
540.61	52453.75
540.78	52535.66
540.95	52793.12
541.12	52741.63
541.29	52725.25
541.46	52708.86
541.62	52706.52
541.79	52989.73
541.96	52449.06
542.13	53123.14
542.30	53109.10
542.47	53265.91
542.63	53219.10
542.80	52947.60
542.97	53354.85
543.14	53598.27
543.31	53116.12
543.48	53354.85
543.64	53609.97
543.81	53776.15
543.98	53797.21
544.15	53642.74
544.32	53984.46
544.48	53581.88
544.65	53736.36
544.82	53485.92
544.99	53469.54
545.16	53455.50
545.32	53549.12
545.49	53972.75
545.66	54401.07
545.83	54089.78
546.00	54160.00
546.16	53944.67
546.33	53846.36
546.50	53647.42
546.67	53911.90
546.83	53631.04
547.00	53937.65
547.17	54052.33
547.34	54085.10
547.50	54064.03
547.67	54426.82
547.84	54314.47
548.00	54394.05
548.17	54267.66
548.34	54138.93
548.51	54429.16
548.67	54677.25
548.84	54681.94
549.01	54450.22
549.18	54494.69
549.34	54424.48
549.51	54492.35
549.68	54330.86
549.84	54382.35
550.01	54927.69
550.18	54478.31
550.34	54511.08
550.51	54782.58
550.68	54864.50
550.84	54504.06
551.01	54894.92
551.18	54593.00
551.34	54749.81
551.51	54539.16
551.68	54892.58
551.84	54831.73
552.01	54745.13
552.18	54923.01
552.34	54801.30
552.51	54967.48
552.68	54639.81
552.84	55028.34
553.01	55159.41
553.18	54815.35
553.34	55185.15
553.51	55023.65
553.67	55341.97
553.84	55292.82
554.01	55316.22
554.17	55201.53
554.34	55105.57
554.51	54934.71
554.67	54955.78
554.84	54927.69
555.00	55274.09
555.17	55140.68
555.33	55475.38
555.50	55379.42
555.67	55374.73
555.83	55377.08
556.00	55440.27
556.16	55458.99
556.33	55517.51
556.50	55180.47
556.66	55508.14
556.83	55182.81
556.99	55742.20
557.16	55702.41
557.32	55852.20
557.49	55454.31
557.65	55358.35
557.82	55370.05
557.98	55423.89
558.15	55325.58
558.32	55664.96
558.48	55814.76
558.65	55831.14
558.81	55978.59
558.98	55599.43
559.14	55615.81
559.31	55711.77
559.47	55812.41
559.64	55781.99
559.80	55732.84
559.97	55845.18
560.13	55894.33
560.30	55997.32
560.46	55833.48
560.63	55786.67
560.79	55819.44
560.96	56102.64
561.12	55693.05
561.29	55711.77
561.45	55929.44
561.61	55952.85
561.78	55899.01
561.94	56147.11
562.11	56200.94
562.27	55948.17
562.44	55777.31
562.60	55957.53
562.77	56027.74
562.93	55976.25
563.10	56086.26
563.26	55959.87
563.42	56322.65
563.59	56074.55
563.75	56133.07
563.92	56184.56
564.08	56009.02
564.24	56112.00
564.41	56041.79
564.57	56041.79
564.74	56025.40
564.90	56090.94
565.07	56233.71
565.23	56346.06
565.39	56261.80
565.56	56313.29
565.72	55870.93
565.88	56126.05
566.05	56011.36
566.21	56121.37
566.38	56097.96
566.54	56147.11
566.70	56324.99
566.87	56507.55
567.03	56200.94
567.19	56615.22
567.36	56341.38
567.52	56294.56
567.68	56324.99
567.85	56156.47
568.01	56280.52
568.17	56198.60
568.34	56320.31
568.50	56575.43
568.66	56320.31
568.83	56690.12
568.99	56172.86
569.15	56343.72
569.32	56409.25
569.48	56161.15
569.64	56336.69
569.81	56500.53
569.97	56509.89
570.13	56322.65
570.30	56416.27
570.46	56439.68
570.62	56250.09
570.78	56299.25
570.95	56435.00
571.11	56306.27
571.27	56154.13
571.43	56090.94
571.60	56390.53
571.76	56362.44
571.92	56420.95
572.09	56561.39
572.25	56439.68
572.41	56500.53
572.57	56399.89
572.74	56568.41
572.90	56584.79
573.06	56416.27
573.22	56523.94
573.38	56704.16
573.55	56554.36
573.71	57020.13
573.87	56390.53
574.03	56453.72
574.20	56502.87
574.36	56502.87
574.52	56514.58
574.68	56413.93
574.84	56306.27
575.01	56500.53
575.17	56615.22
575.33	56385.85
575.49	56706.50
575.65	56963.96
575.82	56776.72
575.98	56530.96
576.14	56985.02
576.30	56589.47
576.46	56332.01
576.62	56310.95
576.79	56425.64
576.95	56463.08
577.11	56694.80
577.27	56589.47
577.43	56432.66
577.59	56509.89
577.75	56699.48
577.92	56245.41
578.08	56378.82
578.24	56605.86
578.40	56271.16
578.56	56633.94
578.72	56437.34
578.88	56736.93
579.04	56734.59
579.21	56748.63
579.37	56554.36
579.53	56734.59
579.69	56680.75
579.85	56666.71
580.01	56683.09
580.17	56212.65
580.33	56376.48
580.49	56477.13
580.65	56797.78
580.82	56671.39
580.98	56685.43
581.14	56549.68
581.30	56884.38
581.46	56844.59
581.62	56491.17
581.78	56694.80
581.94	56788.42
582.10	56530.96
582.26	56500.53
582.42	56699.48
582.58	56947.57
582.74	56741.61
582.90	57095.03
583.06	56736.93
583.22	56673.73
583.38	56657.35
583.54	56587.13
583.70	56315.63
583.86	56547.34
584.02	56472.45
584.18	56554.36
584.34	57090.35
584.50	56942.89
584.66	56926.51
584.82	56687.78
584.98	56467.76
585.14	56694.80
585.30	56659.69
585.46	56699.48
585.62	56566.07
585.78	56753.31
585.94	56523.94
586.10	56725.22
586.26	56872.68
586.42	56734.59
586.58	56933.53
586.74	56851.61
586.90	56619.90
587.06	56568.41
587.22	56533.30
587.38	56720.54
587.54	56821.19
587.70	57029.49
587.86	56793.10
588.02	56825.87
588.18	57155.88
588.34	56769.69
588.49	56779.06
588.65	56765.01
588.81	56868.00
588.97	56701.82
589.13	56755.65
589.29	56968.64
589.45	56715.86
589.61	56821.19
589.77	56896.08
589.93	56872.68
590.08	56954.60
590.24	57006.09
590.40	57006.09
590.56	57034.17
590.72	56987.36
590.88	56437.34
591.04	57034.17
591.20	56875.02
591.35	57202.69
591.51	57088.01
591.67	57015.45
591.83	57165.24
591.99	56699.48
592.15	56896.08
592.31	57001.41
592.46	56802.46
592.62	56980.34
592.78	56781.40
592.94	56821.19
593.10	56980.34
593.26	56858.63
593.41	56919.49
593.57	57102.05
593.73	56966.30
593.89	57343.12
594.05	57148.86
594.20	56870.34
594.36	56811.82
594.52	57006.09
594.68	56907.79
594.84	56779.06
594.99	57254.18
595.15	56896.08
595.31	57174.61
595.47	57134.82
595.62	57045.88
595.78	57036.51
595.94	56872.68
596.10	56821.19
596.25	56584.79
596.41	57043.54
596.57	56896.08
596.73	56933.53
596.88	57038.86
597.04	57198.01
597.20	57188.65
597.36	57041.20
597.51	57237.80
597.67	56886.72
597.83	57249.50
597.99	56914.81
598.14	56952.26
598.30	56999.07
598.46	57034.17
598.61	56973.32
598.77	57064.60
598.93	56734.59
599.09	57092.69
599.24	57308.02
599.40	57258.87
599.56	57235.46
599.71	57022.47
599.87	57167.58
600.03	56935.87
600.18	57057.58
600.34	57050.56
600.50	57022.47
600.65	56905.44
600.81	57113.75
600.97	57176.95
601.12	57153.54
601.28	57160.56
601.44	57186.31
601.59	57022.47
601.75	57041.20
601.91	57347.81
602.06	56870.34
602.22	57003.75
602.37	56973.32
602.53	56928.85
602.69	57008.43
602.84	57116.09
603.00	57062.26
603.16	57141.84
603.31	57076.30
603.47	57193.33
603.62	56886.72
603.78	56980.34
603.94	56966.30
604.09	56978.00
604.25	56851.61
604.40	56870.34
604.56	57153.54
604.71	57160.56
604.87	57029.49
605.03	57186.31
605.18	56860.97
605.34	56975.66
605.49	56582.45
605.65	57001.41
605.80	56816.50
605.96	56994.39
606.12	56645.65
606.27	57024.81
606.43	56683.09
606.58	57095.03
606.74	56687.78
606.89	57151.20
607.05	56924.17
607.20	57247.16
607.36	56877.36
607.51	56875.02
607.67	56687.78
607.82	56767.35
607.98	56786.08
608.13	56671.39
608.29	56846.93
608.44	56903.10
608.60	56715.86
608.75	56811.82
608.91	56655.01
609.06	56673.73
609.22	56645.65
609.37	56463.08
609.53	56729.90
609.68	56633.94
609.84	56615.22
609.99	56549.68
610.15	56619.90
610.30	56647.99
610.46	56566.07
610.61	56891.40
610.76	56804.80
610.92	56357.76
611.07	56753.31
611.23	56435.00
611.38	56383.51
611.54	56552.02
611.69	56521.60
611.84	56353.08
612.00	56495.85
612.15	56500.53
612.31	56577.77
612.46	56334.35
612.62	56484.15
612.77	56458.40
612.92	56760.33
613.08	56217.33
613.23	56554.36
613.39	56411.59
613.54	56231.37
613.69	56491.17
613.85	56308.61
614.00	56334.35
614.15	56427.98
614.31	56402.23
614.46	56713.52
614.62	56530.96
614.77	56580.11
614.92	56533.30
615.08	56402.23
615.23	56540.32
615.38	56278.18
615.54	56130.73
615.69	55889.65
615.84	56182.22
616.00	56250.09
616.15	56182.22
616.30	56486.49
616.46	56191.58
616.61	56378.82
616.76	56360.10
616.92	56037.11
617.07	56009.02
617.22	56048.81
617.37	56004.34
617.53	56034.77
617.68	56088.60
617.83	55821.78
617.99	55929.44
618.14	55987.95
618.29	55990.30
618.45	56046.47
618.60	56037.11
618.75	55964.55
618.90	55987.95
619.06	55899.01
619.21	55770.28
619.36	56226.69
619.51	55777.31
619.67	55688.37
619.82	55688.37
619.97	55796.03
620.12	55618.15
620.28	55660.28
620.43	55753.90
620.58	55824.12
620.73	55758.58
620.89	55723.47
621.04	56170.52
621.19	55803.05
621.34	55969.23
621.49	55522.19
621.65	55475.38
621.80	55744.54
621.95	55688.37
622.10	55487.08
622.25	55559.64
622.41	55482.40
622.56	55510.49
622.71	55580.70
622.86	55302.18
623.01	55676.66
623.16	55463.67
623.32	55468.36
623.47	55789.01
623.62	55657.94
623.77	55330.26
623.92	55377.08
624.07	55224.94
624.23	55386.44
624.38	55435.59
624.53	55227.28
624.68	55136.00
624.83	55325.58
624.98	55690.71
625.13	55341.97
625.29	55260.05
625.44	55208.56
625.59	54997.91
625.74	54948.76
625.89	55150.04
626.04	54951.10
626.19	54789.60
626.34	54990.89
626.49	55007.27
626.65	54990.89
626.80	54969.82
626.95	55044.72
627.10	55051.74
627.25	54934.71
627.40	55030.68
627.55	54756.83
627.70	54906.63
627.85	54597.68
628.00	54639.81
628.15	54789.60
628.30	54358.94
628.45	54962.80
628.60	54658.53
628.76	54789.60
628.91	54958.12
629.06	54815.35
629.21	54656.19
629.36	54562.57
629.51	54550.87
629.66	54623.42
629.81	54382.35
629.96	54365.96
630.11	54354.26
630.26	54227.87
630.41	54429.16
630.56	54387.03
630.71	54412.77
630.86	54433.84
631.01	54337.88
631.16	54394.05
631.31	54609.38
631.46	54108.50
631.61	54398.73
631.76	54302.77
631.91	54251.28
632.06	54220.85
632.21	54181.06
632.36	54370.64
632.51	53989.14
632.66	54321.49
632.81	54003.18
632.96	54309.79
633.10	54337.88
633.25	54305.11
633.40	54534.48
633.55	53998.50
633.70	54061.69
633.85	53890.83
634.00	53925.94
634.15	53579.54
634.30	54045.31
634.45	53942.33
634.60	54103.82
634.75	53811.26
634.90	53694.23
635.05	54014.88
635.19	53675.51
635.34	54260.64
635.49	53984.46
635.64	53844.02
635.79	53752.74
635.94	53441.45
636.09	53874.45
636.24	53628.69
636.39	53415.71
636.53	53509.33
636.68	53647.42
636.83	53425.07
636.98	53968.07
637.13	53588.91
637.28	53717.64
637.43	53727.00
637.57	53727.00
637.72	53614.65
637.87	53396.98
638.02	53329.11
638.17	53359.53
638.32	53464.86
638.46	53186.33
638.61	53249.53
638.76	53069.31
638.91	53076.33
639.06	53354.85
639.20	53073.99
639.35	53303.36
639.50	53364.21
639.65	53118.46
639.80	53137.18
639.94	53111.44
640.09	53073.99
640.24	53172.29
640.39	53223.78
640.54	53092.71
640.68	52722.91
640.83	52673.76
640.98	52772.06
641.13	52729.93
641.27	52814.19
641.42	52680.78
641.57	52872.70
641.72	53216.76
641.86	52795.46
642.01	52765.04
642.16	52926.53
642.31	52886.74
642.45	52662.05
642.60	52678.44
642.75	52444.38
642.90	52388.21
643.04	52406.94
643.19	52409.28
643.34	52519.28
643.48	52390.55
643.63	52570.77
643.78	52458.43
643.93	52818.87
644.07	52767.38
644.22	52633.97
644.37	52776.74
644.51	52844.62
644.66	52395.23
644.81	52413.96
644.95	52418.64
645.10	52196.29
645.25	52301.61
645.39	52123.73
645.54	52423.32
645.69	52463.11
645.83	52212.67
645.98	52643.33
646.13	52147.14
646.27	52238.42
646.42	52100.32
646.57	52285.23
646.71	52193.95
646.86	52116.71
647.00	51774.99
647.15	51983.30
647.30	51826.48
647.44	51821.80
647.59	51999.68
647.74	52058.20
647.88	51519.87
648.03	52041.81
648.17	51908.40
648.32	52102.67
648.47	52051.17
648.61	51899.04
648.76	52013.73
648.90	51751.59
649.05	52081.60
649.20	51569.02
649.34	51592.43
649.49	51576.04
649.63	51580.73
649.78	51997.34
649.92	51667.33
650.07	51859.25
650.21	51550.30
650.36	51817.12
650.51	51494.13
650.65	52006.70
650.80	51796.06
650.94	51505.83
651.09	51531.57
651.23	51323.27
651.38	51540.94
651.52	51587.75
651.67	51267.09
651.81	51330.29
651.96	51540.94
652.10	51168.79
652.25	51351.35
652.39	51452.00
652.54	51168.79
652.68	51311.56
652.83	51114.96
652.97	51360.72
653.12	51056.45
653.26	51199.22
653.41	51257.73
653.55	50972.19
653.70	50930.06
653.84	50993.25
653.99	50773.24
654.13	50995.59
654.27	50993.25
654.42	51159.43
654.56	51140.71
654.71	51049.42
654.85	51033.04
655.00	51304.54
655.14	50824.73
655.29	51227.31
655.43	51077.51
655.57	50876.22
655.72	50464.29
655.86	50607.06
656.01	50698.34
656.15	50518.12
656.30	50520.46
656.44	50506.42
656.58	50672.60
656.73	50590.68
656.87	50611.74
657.01	50148.32
657.16	50698.34
657.30	50588.34
657.45	50742.81
657.59	50578.98
657.73	50646.85
657.88	50298.11
658.02	50260.66
658.16	50307.47
658.31	50019.59
658.45	50263.00
658.60	49888.52
658.74	49745.75
658.88	49874.48
659.03	50237.26
659.17	49661.49
659.31	50040.65
659.46	50267.69
659.60	50035.97
659.74	50150.66
659.89	49677.87
660.03	49584.25
660.17	50000.86
660.32	49687.23
660.46	49628.72
660.60	49457.86
660.74	49499.99
660.89	49195.72
661.03	49279.98
661.17	49120.82
661.32	48975.71
661.46	48779.10
661.60	48914.86
661.74	49350.20
661.89	48968.69
662.03	48758.04
662.17	49010.82
662.31	48835.28
662.46	49282.32
662.60	49240.19
662.74	48535.69
662.88	48788.47
663.03	48814.21
663.17	48821.23
663.31	48327.38
663.45	48273.55
663.60	48528.67
663.74	48294.61
663.88	48418.66
664.02	48442.07
664.17	48666.76
664.31	48406.96
664.45	48259.51
664.59	48383.55
664.73	48179.93
664.88	48184.61
665.02	47760.97
665.16	47669.69
665.30	47856.93
665.44	47536.28
665.59	47580.75
665.73	47683.73
665.87	47220.31
666.01	47674.37
666.15	47695.44
666.29	47594.79
666.44	47657.99
666.58	47351.38
666.72	47440.32
666.86	47501.17
667.00	47498.83
667.14	47056.47
667.28	47278.82
667.43	47440.32
667.57	47309.25
667.71	46838.80
667.85	46944.12
667.99	46761.56
668.13	46284.09
668.27	46499.42
668.41	46731.14
668.56	46103.87
668.70	46560.28
668.84	46595.38
668.98	46040.68
669.12	46225.58
669.26	46452.61
669.40	46174.09
669.54	46071.10
669.68	46043.02
669.82	45518.74
669.96	45890.88
670.10	45659.17
670.25	45837.05
670.39	45457.88
670.53	45553.85
670.67	45338.52
670.81	45771.52
670.95	45776.20
671.09	45415.76
671.23	45144.25
671.37	45940.04
671.51	45303.41
671.65	45411.07
671.79	45083.40
671.93	45422.78
672.07	44954.67
672.21	45008.50
672.35	44992.12
672.49	45027.23
672.63	44451.45
672.77	44179.95
672.91	44266.55
673.05	44315.70
673.19	44509.97
673.33	43988.03
673.47	43875.68
673.61	44692.53
673.75	43999.73
673.89	44304.00
674.03	43590.14
674.17	44149.53
674.31	43639.29
674.45	43669.72
674.59	43548.01
674.73	43358.42
674.87	43175.86
675.01	43456.73
675.15	42965.21
675.29	42892.66
675.43	42761.59
675.56	43026.07
675.70	43274.16
675.84	42579.03
675.98	41832.39
676.12	43166.50
676.26	42707.76
676.40	42557.96
676.54	42651.58
676.68	42174.11
676.82	41364.29
676.96	41879.21
677.10	41673.24
677.23	41294.07
677.37	41228.54
677.51	41488.34
677.65	41139.60
677.79	40776.81
677.93	41038.95
678.07	41523.44
678.21	40847.03
678.34	40437.44
678.48	40627.02
678.62	41057.68
678.76	40818.94
678.90	40479.57
679.04	40074.65
679.18	40175.30
679.31	39683.78
679.45	39470.79
679.59	39679.10
679.73	39180.57
679.87	39770.38
680.00	39332.70
680.14	39271.85
680.28	39313.98
680.42	39166.52
680.56	38733.53
680.70	38447.98
680.83	38838.85
680.97	38864.60
681.11	39021.41
681.25	38422.23
681.39	38543.94
681.52	38094.56
681.66	38143.71
681.80	38031.36
681.94	37780.93
682.07	37453.25
682.21	37642.84
682.35	37600.71
682.49	37170.05
682.62	37516.45
682.76	37074.09
682.90	37085.79
683.04	37270.69
683.17	37408.78
683.31	36849.39
683.45	37071.75
683.59	36863.44
683.72	36463.21
683.86	36503.00
684.00	36100.42
684.13	36194.04
684.27	35913.18
684.41	35744.66
684.55	35721.26
684.68	35639.34
684.82	35374.86
684.96	35136.12
685.09	35040.16
685.23	35419.33
685.37	35122.08
685.50	35325.71
685.64	34946.54
685.78	35136.12
685.91	35077.61
686.05	34749.93
686.19	34260.76
686.32	34366.09
686.46	34260.76
686.60	33804.36
686.73	34183.52
686.87	34113.31
687.01	33563.28
687.14	33764.57
687.28	33457.96
687.42	33411.15
687.55	33249.65
687.69	33446.26
687.82	32694.94
687.96	32811.97
688.10	33165.39
688.23	32849.42
688.37	33345.61
688.50	32620.05
688.64	32371.95
688.78	32240.88
688.91	32170.66
689.05	32128.53
689.18	32105.13
689.32	31838.31
689.46	31606.59
689.59	31592.55
689.73	31723.62
689.86	31197.00
690.00	31353.82
690.13	31601.91
690.27	31061.25
690.41	31274.24
690.54	30602.50
690.68	30712.51
690.81	30845.92
690.95	30796.77
691.08	30342.70
691.22	30143.76
691.35	30064.18
691.49	30604.84
691.62	29631.18
691.76	29649.91
691.89	29560.97
692.03	29481.39
692.16	29425.22
692.30	29158.39
692.43	29109.24
692.57	29046.05
692.70	29109.24
692.84	28842.42
692.97	28924.34
693.11	28875.19
693.24	28849.44
693.38	28442.19
693.51	28650.50
693.65	28943.06
693.78	28622.41
693.92	28444.53
694.05	28196.43
694.19	28086.43
694.32	28196.43
694.45	27623.00
694.59	27608.96
694.72	27613.64
694.86	27112.77
694.99	27044.89
695.13	26806.16
695.26	27463.85
695.39	26572.10
695.53	27140.85
695.66	27094.04
695.80	26991.06
695.93	27089.36
696.07	26782.75
696.20	26668.06
696.33	26335.71
696.47	26569.76
696.60	26122.72
696.73	26057.18
696.87	25804.41
697.00	25558.65
697.14	25666.31
697.27	25303.53
697.40	25312.89
697.54	25371.41
697.67	24926.71
697.80	24915.00
697.94	24634.14
698.07	24797.98
698.21	24622.44
698.34	24753.51
698.47	24500.73
698.61	24779.25
698.74	24570.94
698.87	24577.97
699.01	24177.73
699.14	23747.08
699.27	24159.01
699.40	23892.19
699.54	23667.50
699.67	23562.17
699.80	23377.27
699.94	23080.02
700.07	23271.95
700.20	22953.63
700.34	23082.36
700.47	22824.90
700.60	22904.48
700.73	22785.12
700.87	22677.45
701.00	22721.92
701.13	22824.90
701.26	22632.98
701.40	22757.03
701.53	22497.23
701.66	22469.14
701.79	21926.14
701.93	21781.03
702.06	21781.03
702.19	21647.61
702.32	21893.37
702.46	21680.38
702.59	21090.57
702.72	21205.25
702.85	21240.36
702.99	21006.31
703.12	21200.57
703.25	21083.55
703.38	20961.84
703.51	20762.89
703.65	21090.57
703.78	20798.00
703.91	20755.87
704.04	20802.68
704.17	20414.15
704.31	20287.76
704.44	20233.93
704.57	20070.09
704.70	20102.86
704.83	19777.53
704.96	19737.74
705.10	19653.48
705.23	19421.77
>>>>>End Processed Spectral Data<<<<<
