SpectraSuite Data File
++++++++++++++++++++++++++++++++++++
Date: Fri Oct 18 13:54:43 GMT-05:00 2013
User: bianchi
Dark Spectrum Present: No
Reference Spectrum Present: No
Number of Sampled Component Spectra: 1
Spectrometers: USB2+H05261
Integration Time (usec): 100000 (USB2+H05261)
Spectra Averaged: 1 (USB2+H05261)
Boxcar Smoothing: 0 (USB2+H05261)
Correct for Electrical Dark: No (USB2+H05261)
Strobe/Lamp Enabled: No (USB2+H05261)
Correct for Detector Non-linearity: No (USB2+H05261)
Correct for Stray Light: No (USB2+H05261)
Number of Pixels in Processed Spectrum: 2048
>>>>>Begin Processed Spectral Data<<<<<
365.73	0.00
365.92	0.00
366.12	0.00
366.32	0.00
366.52	0.00
366.72	0.00
366.91	0.00
367.11	0.00
367.31	0.00
367.51	0.00
367.70	0.00
367.90	0.00
368.10	0.00
368.30	0.00
368.49	0.00
368.69	0.00
368.89	0.00
369.09	0.00
369.28	0.00
369.48	0.00
369.68	0.00
369.87	0.00
370.07	0.00
370.27	0.00
370.47	25.75
370.66	269.16
370.86	308.95
371.06	278.52
371.25	430.66
371.45	353.42
371.65	372.15
371.84	411.93
372.04	447.04
372.24	346.40
372.44	330.02
372.63	425.98
372.83	423.64
373.03	482.15
373.22	379.17
373.42	444.70
373.62	381.51
373.81	510.24
374.01	582.79
374.21	451.72
374.40	500.87
374.60	458.74
374.79	470.45
374.99	468.11
375.19	465.77
375.38	543.00
375.58	447.04
375.78	566.41
375.97	552.37
376.17	580.45
376.37	514.92
376.56	531.30
376.76	498.53
376.95	552.37
377.15	606.20
377.35	566.41
377.54	601.52
377.74	528.96
377.93	554.71
378.13	566.41
378.33	582.79
378.52	641.31
378.72	753.65
378.91	603.86
379.11	594.50
379.31	657.69
379.50	582.79
379.70	594.50
379.89	582.79
380.09	631.94
380.28	671.73
380.48	716.20
380.68	622.58
380.87	629.60
381.07	655.35
381.26	681.10
381.46	692.80
381.65	629.60
381.85	653.01
382.04	727.91
382.24	690.46
382.43	620.24
382.63	723.23
382.83	692.80
383.02	720.88
383.22	695.14
383.41	723.23
383.61	744.29
383.80	758.33
384.00	723.23
384.19	674.07
384.39	819.19
384.58	723.23
384.78	767.70
384.97	784.08
385.17	718.54
385.36	842.59
385.56	744.29
385.75	760.67
385.95	784.08
386.14	763.01
386.34	791.10
386.53	840.25
386.72	784.08
386.92	898.77
387.11	861.32
387.31	992.39
387.50	849.61
387.70	788.76
387.89	936.21
388.09	957.28
388.28	919.83
388.48	835.57
388.67	947.92
388.86	999.41
389.06	910.47
389.25	947.92
389.45	964.30
389.64	938.55
389.84	1004.09
390.03	968.98
390.22	1076.65
390.42	973.66
390.61	1011.11
390.81	896.43
391.00	1050.90
391.19	1083.67
391.39	1048.56
391.58	1064.94
391.78	1041.54
391.97	1095.37
392.16	1095.37
392.36	1177.29
392.55	1104.73
392.75	1111.75
392.94	1088.35
393.13	1184.31
393.33	1228.78
393.52	1167.93
393.71	1240.48
393.91	1196.01
394.10	1163.25
394.29	1238.14
394.49	1165.59
394.68	1280.27
394.88	1275.59
395.07	1317.72
395.26	1214.74
395.46	1242.82
395.65	1406.66
395.84	1315.38
396.04	1439.43
396.23	1418.36
396.42	1399.64
396.62	1378.58
396.81	1472.20
397.00	1476.88
397.19	1345.81
397.39	1441.77
397.58	1507.30
397.77	1348.15
397.97	1383.26
398.16	1483.90
398.35	1519.01
398.55	1469.86
398.74	1465.18
398.93	1577.52
399.12	1497.94
399.32	1540.07
399.51	1481.56
399.70	1624.33
399.90	1659.44
400.09	1647.74
400.28	1621.99
400.47	1659.44
400.67	1657.10
400.86	1614.97
401.05	1687.53
401.24	1659.44
401.44	1692.21
401.63	1783.49
401.82	1724.97
402.01	1678.16
402.21	1820.94
402.40	1764.76
402.59	1788.17
402.78	1900.52
402.97	1797.53
403.17	1891.15
403.36	1870.09
403.55	1853.70
403.74	1856.04
403.93	1944.99
404.13	1914.56
404.32	1902.86
404.51	1914.56
404.70	2043.29
404.89	2024.56
405.09	2104.14
405.28	1975.41
405.47	2033.93
405.66	2047.97
405.85	2031.58
406.05	2087.76
406.24	2101.80
406.43	2207.13
406.62	2326.49
406.81	2284.36
407.00	2167.34
407.20	2113.50
407.39	2172.02
407.58	2249.25
407.77	2307.77
407.96	2289.04
408.15	2363.94
408.34	2260.96
408.54	2225.85
408.73	2459.90
408.92	2338.20
409.11	2417.77
409.30	2455.22
409.49	2443.52
409.68	2394.37
409.87	2600.34
410.07	2546.50
410.26	2574.59
410.45	2539.48
410.64	2485.65
410.83	2560.55
411.02	2541.82
411.21	2850.77
411.40	2778.22
411.59	2733.75
411.78	2864.82
411.98	2881.20
412.17	2846.09
412.36	2794.60
412.55	2869.50
412.74	2902.26
412.93	3028.65
413.12	2949.08
413.31	3122.27
413.50	3047.38
413.69	3150.36
413.88	3187.81
414.07	3117.59
414.26	3197.17
414.45	3220.58
414.64	3239.30
414.83	3405.48
415.02	3370.37
415.22	3445.27
415.41	3501.44
415.60	3365.69
415.79	3499.10
415.98	3548.25
416.17	3557.61
416.36	3466.33
416.55	3585.70
416.74	3698.05
416.93	3625.49
417.12	3824.44
417.31	3777.62
417.50	3918.06
417.69	3892.31
417.88	3882.95
418.07	3854.86
418.26	3904.01
418.45	3978.91
418.64	4049.13
418.83	4065.51
419.02	3957.85
419.21	4152.11
419.39	4135.73
419.58	4086.58
419.77	4028.06
419.96	4222.33
420.15	4182.54
420.34	4182.54
420.53	4311.27
420.72	4285.52
420.91	4273.82
421.10	4304.25
421.29	4503.19
421.48	4376.80
421.67	4400.21
421.86	4435.32
422.05	4503.19
422.24	4393.19
422.43	4437.66
422.61	4451.70
422.80	4519.57
422.99	4720.86
423.18	4540.64
423.37	4645.96
423.56	4442.34
423.75	4367.44
423.94	4423.61
424.13	4332.33
424.32	4475.10
424.50	4585.11
424.69	4636.60
424.88	4704.48
425.07	4629.58
425.26	4503.19
425.45	4606.17
425.64	4486.81
425.83	4526.60
426.01	4587.45
426.20	4505.53
426.39	4706.82
426.58	4627.24
426.77	4610.86
426.96	4535.96
427.15	4777.03
427.33	4851.93
427.52	4863.63
427.71	4844.91
427.90	4870.65
428.09	4933.85
428.28	4940.87
428.46	4952.57
428.65	4997.04
428.84	5151.52
429.03	5146.84
429.22	4924.49
429.40	5177.26
429.59	5177.26
429.78	4882.36
429.97	4896.40
430.16	4968.96
430.34	5172.58
430.53	5142.16
430.72	5135.14
430.91	5132.79
431.10	5226.42
431.28	5331.74
431.47	5420.68
431.66	5554.09
431.85	5320.04
432.03	5706.23
432.22	5673.46
432.41	5490.90
432.60	5526.00
432.79	5600.90
432.97	5500.26
433.16	5593.88
433.35	5554.09
433.54	5701.54
433.72	5809.21
433.91	5617.29
434.10	5664.10
434.28	5678.14
434.47	5781.12
434.66	5813.89
434.85	5776.44
435.03	5827.93
435.22	5809.21
435.41	6207.10
435.59	6024.54
435.78	6083.05
435.97	5966.03
436.16	5977.73
436.34	5933.26
436.53	6094.76
436.72	6417.75
436.90	5905.17
437.09	6143.91
437.28	6017.52
437.46	6101.78
437.65	6272.64
437.84	6349.87
438.02	6406.05
438.21	6345.19
438.40	6174.33
438.58	6392.00
438.77	6621.38
438.96	6593.29
439.14	6647.12
439.33	6616.69
439.52	6705.63
439.70	6640.10
439.89	6850.75
440.08	6871.81
440.26	6623.72
440.45	6904.58
440.63	7052.03
440.82	7180.76
441.01	6916.28
441.19	7094.16
441.38	7248.64
441.57	7279.07
441.75	7325.88
441.94	7375.03
442.12	7435.88
442.31	7461.63
442.50	7414.82
442.68	7597.38
442.87	7564.61
443.05	7529.50
443.24	7824.41
443.43	7522.48
443.61	7599.72
443.80	7939.10
443.98	7515.46
444.17	7283.75
444.35	7805.69
444.54	7826.75
444.73	7698.02
444.91	7810.37
445.10	7744.83
445.28	7782.28
445.47	7698.02
445.65	7798.66
445.84	7730.79
446.02	7967.18
446.21	7885.26
446.39	7714.41
446.58	7901.65
446.77	8088.89
446.95	7672.28
447.14	7793.98
447.32	8086.55
447.51	7964.84
447.69	7880.58
447.88	8116.98
448.06	8004.63
448.25	7871.22
448.43	8067.83
448.62	7983.57
448.80	8205.92
448.99	7981.23
449.17	8196.56
449.36	8102.93
449.54	8334.65
449.73	8334.65
449.91	8266.77
450.10	8201.24
450.28	8634.24
450.46	8500.83
450.65	8463.38
450.83	8690.41
451.02	8566.36
451.20	8587.43
451.39	8709.13
451.57	8390.82
451.76	8390.82
451.94	8606.15
452.13	8620.19
452.31	8610.83
452.49	8542.96
452.68	8793.39
452.86	8678.71
453.05	8793.39
453.23	8943.19
453.42	8809.78
453.60	8917.44
453.78	8863.61
453.97	8847.22
454.15	8966.59
454.34	8847.22
454.52	9078.94
454.70	9263.84
454.89	9097.66
455.07	9275.54
455.26	9142.13
455.44	9123.41
455.62	9301.29
455.81	9376.19
455.99	9181.92
456.17	9282.56
456.36	9432.36
456.54	9511.94
456.73	9514.28
456.91	9788.12
457.09	9769.40
457.28	9940.26
457.46	9743.65
457.64	9692.16
457.83	10003.45
458.01	9966.00
458.19	10019.83
458.38	9820.89
458.56	10237.50
458.74	9860.68
458.93	9874.72
459.11	9970.68
459.29	10085.37
459.48	10286.65
459.66	10064.30
459.84	10274.95
460.03	10274.95
460.21	10200.05
460.39	10204.74
460.57	10097.07
460.76	10321.76
460.94	10691.57
461.12	10431.77
461.31	10478.58
461.49	10576.88
461.67	10518.37
461.85	10595.61
462.04	10579.22
462.22	11194.78
462.40	10696.25
462.59	10544.11
462.77	10726.68
462.95	10611.99
463.13	10731.36
463.32	10780.51
463.50	10895.19
463.68	10846.04
463.86	10960.73
464.05	10672.84
464.23	10899.87
464.41	11037.97
464.59	10937.32
464.78	11318.83
464.96	11201.80
465.14	10846.04
465.32	11052.01
465.50	11253.30
465.69	11382.03
465.87	11059.03
466.05	11330.53
466.23	11290.74
466.41	11297.77
466.60	11679.27
466.78	11534.16
466.96	11276.70
467.14	11176.06
467.32	11655.87
467.51	11789.28
467.69	11185.42
467.87	11695.66
468.05	11550.54
468.23	11234.57
468.41	11686.29
468.60	11712.04
468.78	12023.33
468.96	11712.04
469.14	11997.59
469.32	11910.99
469.50	11779.92
469.69	12126.32
469.87	12170.79
470.05	12404.84
470.23	12339.30
470.41	12322.92
470.59	12140.36
470.77	12332.28
470.95	12217.60
471.14	12762.94
471.32	12358.03
471.50	12671.66
471.68	12556.97
471.86	12641.23
472.04	12671.66
472.22	12966.57
472.40	12748.90
472.58	13004.02
472.77	13198.28
472.95	13099.98
473.13	13530.64
473.31	13331.69
473.49	13184.24
473.67	13001.68
473.85	13315.31
474.03	13621.92
474.21	13582.13
474.39	13600.85
474.57	13682.77
474.75	13701.50
474.93	13912.14
475.12	13839.59
475.30	13951.93
475.48	13846.61
475.66	14160.24
475.84	14160.24
476.02	14553.45
476.20	14218.75
476.38	14469.19
476.56	14904.53
476.74	14661.12
476.92	14714.95
477.10	14745.38
477.28	15068.37
477.46	15129.22
477.64	15108.16
477.82	15419.45
478.00	15513.07
478.18	15494.35
478.36	15613.71
478.54	16039.69
478.72	15962.45
478.90	16049.05
479.08	16444.60
479.26	16400.13
479.44	16294.81
479.62	16540.57
479.80	16709.08
479.98	16929.09
480.16	17280.18
480.34	16870.58
480.52	17392.52
480.70	17465.08
480.88	17165.49
481.06	17245.07
481.24	17586.79
481.41	17694.45
481.59	18068.94
481.77	18225.75
481.95	18026.81
482.13	18455.12
482.31	18445.76
482.49	18778.12
482.67	18654.07
482.85	19042.60
483.03	19225.16
483.21	19311.76
483.39	19428.79
483.57	19655.82
483.74	19480.28
483.92	19658.16
484.10	19777.53
484.28	20320.53
484.46	20201.16
484.64	21036.74
484.82	20430.54
485.00	20734.81
485.18	21256.75
485.35	21200.57
485.53	21399.52
485.71	21207.59
485.89	21596.12
486.07	21788.05
486.25	21743.58
486.43	22178.92
486.61	22101.68
486.78	22551.06
486.96	22485.53
487.14	22841.29
487.32	22970.02
487.50	23166.62
487.68	23028.53
487.85	23723.67
488.03	23901.55
488.21	24051.34
488.39	23852.40
488.57	24063.05
488.75	24706.70
488.92	24751.17
489.10	24989.90
489.28	24812.02
489.46	25369.07
489.64	24865.85
489.81	25703.76
489.99	25621.84
490.17	25802.07
490.35	25996.33
490.53	26291.24
490.70	26326.35
490.88	26195.28
491.06	26991.06
491.24	26455.08
491.41	27087.02
491.59	27166.60
491.77	27087.02
491.95	27505.98
492.13	27702.58
492.30	28016.21
492.48	27648.75
492.66	27847.69
492.84	28254.95
493.01	28128.56
493.19	28416.44
493.37	28996.90
493.54	28790.93
493.72	29134.99
493.90	29144.35
494.08	29741.19
494.25	29771.61
494.43	29766.93
494.61	29790.34
494.79	30525.27
494.96	29666.29
495.14	30658.68
495.32	30827.20
495.49	30347.39
495.67	31143.17
495.85	31014.44
496.02	31578.51
496.20	31278.92
496.38	31531.70
496.55	31683.83
496.73	32105.13
496.91	31817.24
497.09	32514.72
497.26	32631.75
497.44	32587.28
497.62	32353.23
497.79	33092.83
497.97	32795.59
498.14	33078.79
498.32	33577.33
498.50	33446.26
498.67	33813.72
498.85	33577.33
499.03	33996.28
499.20	33773.93
499.38	34188.21
499.56	34497.16
499.73	34300.55
499.91	34653.97
500.08	34824.83
500.26	34258.42
500.44	34714.83
500.61	34831.85
500.79	35147.82
500.97	35042.50
501.14	35793.81
501.32	35718.92
501.49	35505.93
501.67	35512.95
501.84	35545.72
502.02	36016.16
502.20	36282.98
502.37	36547.47
502.55	36673.85
502.72	36685.56
502.90	36421.08
503.07	36217.45
503.25	36910.25
503.43	36407.03
503.60	37195.79
503.78	36900.89
503.95	36957.06
504.13	37310.48
504.30	37628.79
504.48	37535.17
504.65	37706.03
504.83	38223.29
505.01	38450.32
505.18	38043.07
505.36	37923.70
505.53	38134.35
505.71	38314.57
505.88	38345.00
506.06	37883.91
506.23	38862.26
506.41	38670.33
506.58	39145.46
506.76	39161.84
506.93	39655.70
507.11	39276.53
507.28	39173.55
507.46	39426.32
507.63	39351.43
507.81	40055.93
507.98	39700.17
508.16	40250.19
508.33	39845.28
508.50	40062.95
508.68	40507.65
508.85	40547.44
509.03	40294.66
509.20	40734.68
509.38	40914.90
509.55	40919.59
509.73	41155.98
509.90	40800.22
510.08	40980.44
510.25	41600.68
510.42	41317.48
510.60	41911.97
510.77	41900.27
510.95	41785.58
511.12	41457.91
511.30	41518.76
511.47	42071.13
511.64	42759.25
511.82	42520.51
511.99	42197.52
512.17	42602.43
512.34	42206.88
512.51	42918.40
512.69	42703.07
512.86	43133.73
513.04	43358.42
513.21	43491.83
513.38	43569.07
513.56	43278.85
513.73	43335.02
513.90	43505.88
514.08	43096.28
514.25	43791.42
514.43	43702.48
514.60	43779.72
514.77	44025.48
514.95	44229.10
515.12	44018.46
515.29	43978.67
515.47	44348.47
515.64	44477.20
515.81	44341.45
515.99	44985.10
516.16	45565.55
516.33	45116.17
516.51	45177.02
516.68	45076.38
516.85	44690.19
517.03	45214.47
517.20	45691.94
517.37	45544.48
517.54	45638.11
517.72	45310.43
517.89	45553.85
518.06	45188.72
518.24	45727.05
518.41	46059.40
518.58	45876.84
518.75	45961.10
518.93	45776.20
519.10	46293.46
519.27	45954.08
519.45	46389.42
519.62	46532.19
519.79	46157.70
519.96	46061.74
520.14	46527.51
520.31	46607.09
520.48	46487.72
520.65	47065.83
520.83	47037.75
521.00	46820.08
521.17	47189.88
521.34	46990.94
521.52	47461.38
521.69	47344.36
521.86	47599.47
522.03	47627.56
522.20	47686.07
522.38	47955.24
522.55	47660.33
522.72	48004.39
522.89	48147.16
523.07	48168.22
523.24	47765.65
523.41	48079.28
523.58	47849.91
523.75	48671.44
523.92	48292.27
524.10	48456.11
524.27	48341.42
524.44	48568.46
524.61	48917.20
524.78	48531.01
524.96	48989.75
525.13	49137.21
525.30	48856.34
525.47	48650.38
525.64	48839.96
525.81	49509.35
525.98	49659.15
526.16	48879.75
526.33	49324.45
526.50	49738.72
526.67	49097.42
526.84	49308.07
527.01	49429.77
527.18	49621.70
527.36	49834.69
527.53	50078.10
527.70	50387.05
527.87	49916.61
528.04	49844.05
528.21	50122.57
528.38	50094.49
528.55	50244.28
528.72	50255.98
528.89	50337.90
529.07	50382.37
529.24	49972.78
529.41	50501.74
529.58	50382.37
529.75	50230.24
529.92	50450.25
530.09	50384.71
530.26	50796.65
530.43	50766.22
530.60	50363.65
530.77	50782.60
530.94	50916.01
531.11	50632.81
531.28	50784.94
531.46	50719.41
531.63	50871.54
531.80	51206.24
531.97	51201.56
532.14	51524.55
532.31	50948.78
532.48	51365.40
532.65	51466.04
532.82	51147.73
532.99	51386.46
533.16	51386.46
533.33	51475.40
533.50	52041.81
533.67	51657.96
533.84	51681.37
534.01	51543.28
534.18	51461.36
534.35	51943.51
534.52	52116.71
534.69	52203.31
534.86	52610.56
535.03	52088.62
535.20	52079.26
535.37	52142.45
535.54	51735.20
535.71	51756.27
535.88	52016.07
536.05	51962.23
536.22	52156.50
536.38	52456.09
536.55	52362.46
536.72	52491.19
536.89	52154.16
537.06	52219.69
537.23	52243.10
537.40	52507.58
537.57	52282.89
537.74	52788.44
537.91	53015.47
538.08	52767.38
538.25	52736.95
538.42	52617.58
538.59	52896.11
538.75	52655.03
538.92	52732.27
539.09	53134.84
539.26	53071.65
539.43	53055.26
539.60	53050.58
539.77	52828.23
539.94	53331.45
540.11	53350.17
540.28	53139.52
540.44	53284.64
540.61	53022.50
540.78	53003.77
540.95	53343.15
541.12	53284.64
541.29	53263.57
541.46	53481.24
541.62	53319.74
541.79	53532.73
541.96	53127.82
542.13	53574.86
542.30	53411.02
542.47	53640.40
542.63	53825.30
542.80	53867.43
542.97	53876.79
543.14	53787.85
543.31	53865.09
543.48	53588.91
543.64	54000.84
543.81	54190.42
543.98	54372.99
544.15	54291.07
544.32	54375.33
544.48	54333.20
544.65	53998.50
544.82	53951.69
544.99	53785.51
545.16	54024.25
545.32	54326.17
545.49	54644.49
545.66	54808.32
545.83	54569.59
546.00	54885.56
546.16	54557.89
546.33	54129.57
546.50	54258.30
546.67	54850.45
546.83	54270.00
547.00	54410.43
547.17	54784.92
547.34	54485.33
547.50	54780.24
547.67	55018.97
547.84	54646.83
548.00	54773.22
548.17	54920.67
548.34	54784.92
548.51	54939.39
548.67	54997.91
548.84	54941.74
549.01	55011.95
549.18	54925.35
549.34	54927.69
549.51	55201.53
549.68	54946.42
549.84	54855.14
550.01	55103.23
550.18	54958.12
550.34	55143.02
550.51	55255.37
550.68	55154.72
550.84	55000.25
551.01	55196.85
551.18	55114.94
551.34	54913.65
551.51	55119.62
551.68	55477.72
551.84	55248.35
552.01	55302.18
552.18	55533.89
552.34	55339.63
552.51	55358.35
552.68	55295.16
552.84	55489.42
553.01	55386.44
553.18	55606.45
553.34	55606.45
553.51	55552.62
553.67	55671.98
553.84	55966.89
554.01	55735.18
554.17	55863.91
554.34	55592.40
554.51	55374.73
554.67	55828.80
554.84	55627.51
555.00	55831.14
555.17	55753.90
555.33	55882.63
555.50	55854.54
555.67	55695.39
555.83	55861.57
556.00	55910.72
556.16	56147.11
556.33	55866.25
556.50	55700.07
556.66	55831.14
556.83	55903.70
556.99	56114.34
557.16	56219.67
557.32	56170.52
557.49	56189.24
557.65	55966.89
557.82	55990.30
557.98	56135.41
558.15	56168.18
558.32	56121.37
558.48	56367.12
558.65	56573.09
558.81	56198.60
558.98	56376.48
559.14	56339.04
559.31	56165.84
559.47	56212.65
559.64	56212.65
559.80	56264.14
559.97	56470.11
560.13	56413.93
560.30	56296.91
560.46	56203.28
560.63	56336.69
560.79	56467.76
560.96	56381.16
561.12	56535.64
561.29	56102.64
561.45	56390.53
561.61	56467.76
561.78	56662.03
561.94	56559.05
562.11	56556.70
562.27	56498.19
562.44	56378.82
562.60	56353.08
562.77	56458.40
562.93	56310.95
563.10	56662.03
563.26	56364.78
563.42	56818.84
563.59	56573.09
563.75	56587.13
563.92	56800.12
564.08	56498.19
564.24	56535.64
564.41	56399.89
564.57	56399.89
564.74	56392.87
564.90	56694.80
565.07	56655.01
565.23	56786.08
565.39	56746.29
565.56	56563.73
565.72	56729.90
565.88	56772.03
566.05	56783.74
566.21	56718.20
566.38	56530.96
566.54	56596.49
566.70	57137.16
566.87	57062.26
567.03	56797.78
567.19	56999.07
567.36	56926.51
567.52	56596.49
567.68	56940.55
567.85	56678.41
568.01	57036.51
568.17	56718.20
568.34	56905.44
568.50	56896.08
568.66	56788.42
568.83	56900.76
568.99	56711.18
569.15	56896.08
569.32	56917.15
569.48	56640.96
569.64	56821.19
569.81	56769.69
569.97	56949.92
570.13	56926.51
570.30	56795.44
570.46	56786.08
570.62	56802.46
570.78	56987.36
570.95	56713.52
571.11	56818.84
571.27	56793.10
571.43	56860.97
571.60	56882.04
571.76	56776.72
571.92	56884.38
572.09	57160.56
572.25	57144.18
572.41	57045.88
572.57	56970.98
572.74	56966.30
572.90	56975.66
573.06	56872.68
573.22	56999.07
573.38	57270.57
573.55	56652.67
573.71	57389.94
573.87	57195.67
574.03	56933.53
574.20	57326.74
574.36	57008.43
574.52	56942.89
574.68	57050.56
574.84	57099.71
575.01	57109.07
575.17	57382.91
575.33	57212.06
575.49	57123.11
575.65	57378.23
575.82	57179.29
575.98	57123.11
576.14	57174.61
576.30	57010.77
576.46	56928.85
576.62	56734.59
576.79	57090.35
576.95	56851.61
577.11	56966.30
577.27	57148.86
577.43	57127.80
577.59	56851.61
577.75	56985.02
577.92	57059.92
578.08	57008.43
578.24	56903.10
578.40	56835.23
578.56	57109.07
578.72	57188.65
578.88	57296.31
579.04	57242.48
579.21	57057.58
579.37	57118.43
579.53	57073.96
579.69	57137.16
579.85	57048.22
580.01	56858.63
580.17	56715.86
580.33	57064.60
580.49	57097.37
580.65	57088.01
580.82	57317.38
580.98	57155.88
581.14	56952.26
581.30	57279.93
581.46	57090.35
581.62	57045.88
581.78	56945.23
581.94	57031.83
582.10	57176.95
582.26	57041.20
582.42	57261.21
582.58	57134.82
582.74	57518.67
582.90	57144.18
583.06	57350.15
583.22	56987.36
583.38	57071.62
583.54	57181.63
583.70	57279.93
583.86	57020.13
584.02	56860.97
584.18	57029.49
584.34	57202.69
584.50	57244.82
584.66	57205.03
584.82	57024.81
584.98	57233.12
585.14	57144.18
585.30	57247.16
585.46	57235.46
585.62	57034.17
585.78	57228.44
585.94	57301.00
586.10	57214.40
586.26	57057.58
586.42	57331.42
586.58	57434.41
586.74	57104.39
586.90	57118.43
587.06	57160.56
587.22	56989.70
587.38	57092.69
587.54	57394.62
587.70	57256.53
587.86	57378.23
588.02	57169.93
588.18	57394.62
588.34	57092.69
588.49	57221.42
588.65	57088.01
588.81	57270.57
588.97	57399.30
589.13	57317.38
589.29	57261.21
589.45	57499.94
589.61	57343.12
589.77	57179.29
589.93	57605.26
590.08	57497.60
590.24	57399.30
590.40	57623.99
590.56	57389.94
590.72	57457.81
590.88	56905.44
591.04	57361.85
591.20	57689.52
591.35	57680.16
591.51	57780.81
591.67	57605.26
591.83	57570.16
591.99	57408.66
592.15	57460.15
592.31	57457.81
592.46	57366.53
592.62	57584.20
592.78	57546.75
592.94	57432.07
593.10	57539.73
593.26	57560.79
593.41	57598.24
593.57	57502.28
593.73	57403.98
593.89	57612.29
594.05	57623.99
594.20	57258.87
594.36	57631.01
594.52	57427.38
594.68	57148.86
594.84	57411.00
594.99	57621.65
595.15	57593.56
595.31	57719.95
595.47	57647.39
595.62	57474.20
595.78	57455.47
595.94	57399.30
596.10	57673.14
596.25	57450.79
596.41	57408.66
596.57	57308.02
596.73	57521.01
596.88	57483.56
597.04	57719.95
597.20	57570.16
597.36	57689.52
597.51	57773.78
597.67	57584.20
597.83	57631.01
597.99	57792.51
598.14	57640.37
598.30	57298.65
598.46	57553.77
598.61	57467.17
598.77	57308.02
598.93	57551.43
599.09	57380.57
599.24	57851.02
599.40	57345.47
599.56	57677.82
599.71	57439.09
599.87	57614.63
600.03	57453.13
600.18	57502.28
600.34	57607.61
600.50	57357.17
600.65	57511.64
600.81	57715.27
600.97	57766.76
601.12	57607.61
601.28	57738.68
601.44	57535.05
601.59	57722.29
601.75	57495.26
601.91	57640.37
602.06	57427.38
602.22	57588.88
602.37	57418.02
602.53	57422.70
602.69	57408.66
602.84	57616.97
603.00	57883.79
603.16	57642.71
603.31	57853.36
603.47	57497.60
603.62	57490.58
603.78	57336.10
603.94	57544.41
604.09	57434.41
604.25	57226.10
604.40	57368.87
604.56	57497.60
604.71	57673.14
604.87	57478.88
605.03	57654.42
605.18	57523.35
605.34	57474.20
605.49	57183.97
605.65	57277.59
605.80	57331.42
605.96	57336.10
606.12	57467.17
606.27	57565.48
606.43	57193.33
606.58	57565.48
606.74	57502.28
606.89	57392.28
607.05	57481.22
607.20	57385.25
607.36	57324.40
607.51	57422.70
607.67	57216.74
607.82	57183.97
607.98	57181.63
608.13	57352.49
608.29	57230.78
608.44	57282.27
608.60	57446.11
608.75	57396.96
608.91	57504.62
609.06	57106.73
609.22	57263.55
609.37	57048.22
609.53	57123.11
609.68	57279.93
609.84	56973.32
609.99	57078.64
610.15	57052.90
610.30	57104.39
610.46	56999.07
610.61	57139.50
610.76	57176.95
610.92	57251.84
611.07	57165.24
611.23	57190.99
611.38	57118.43
611.54	57137.16
611.69	57008.43
611.84	56963.96
612.00	56992.04
612.15	57144.18
612.31	57125.46
612.46	56818.84
612.62	57291.63
612.77	57172.27
612.92	57137.16
613.08	57167.58
613.23	57113.75
613.39	56889.06
613.54	56882.04
613.69	56701.82
613.85	56837.57
614.00	56893.74
614.15	57155.88
614.31	56797.78
614.46	57038.86
614.62	57116.09
614.77	56884.38
614.92	57050.56
615.08	56811.82
615.23	56868.00
615.38	56963.96
615.54	56872.68
615.69	56615.22
615.84	56790.76
616.00	56835.23
616.15	56542.66
616.30	56963.96
616.46	56659.69
616.61	56662.03
616.76	56715.86
616.92	56491.17
617.07	56680.75
617.22	56568.41
617.37	56488.83
617.53	56743.95
617.68	56556.70
617.83	56324.99
617.99	56512.23
618.14	56409.25
618.29	56523.94
618.45	56383.51
618.60	56460.74
618.75	56552.02
618.90	56507.55
619.06	56474.79
619.21	56514.58
619.36	56299.25
619.51	56463.08
619.67	56198.60
619.82	56296.91
619.97	56273.50
620.12	56219.67
620.28	56151.79
620.43	56142.43
620.58	56547.34
620.73	56119.02
620.89	56397.55
621.04	56154.13
621.19	56495.85
621.34	56067.53
621.49	55959.87
621.65	56247.75
621.80	56320.31
621.95	56030.08
622.10	56353.08
622.25	56135.41
622.41	56175.20
622.56	56121.37
622.71	56053.49
622.86	56065.19
623.01	56128.39
623.16	55906.04
623.32	55983.27
623.47	56032.42
623.62	55657.94
623.77	55931.78
623.92	55852.20
624.07	55810.07
624.23	56093.28
624.38	55856.88
624.53	55669.64
624.68	55941.14
624.83	55964.55
624.98	55877.95
625.13	55662.62
625.29	55800.71
625.44	55915.40
625.59	55746.88
625.74	55767.94
625.89	55681.34
626.04	55585.38
626.19	55419.20
626.34	55833.48
626.49	55576.02
626.65	55746.88
626.80	55571.34
626.95	55285.79
627.10	55547.93
627.25	55351.33
627.40	54946.42
627.55	55473.04
627.70	55227.28
627.85	55285.79
628.00	55107.91
628.15	55351.33
628.30	55168.77
628.45	55409.84
628.60	55386.44
628.76	55051.74
628.91	55365.37
629.06	55606.45
629.21	55299.84
629.36	55227.28
629.51	55262.39
629.66	55093.87
629.81	54679.60
629.96	55004.93
630.11	54983.86
630.26	55103.23
630.41	54756.83
630.56	54944.08
630.71	54862.16
630.86	55025.99
631.01	54960.46
631.16	55061.10
631.31	54944.08
631.46	54937.05
631.61	55061.10
631.76	54815.35
631.91	54981.52
632.06	54782.58
632.21	54555.55
632.36	54747.47
632.51	54466.61
632.66	55016.63
632.81	54642.15
632.96	54983.86
633.10	54712.36
633.25	54688.96
633.40	54815.35
633.55	54447.88
633.70	54651.51
633.85	54511.08
634.00	54738.11
634.15	54691.30
634.30	54607.04
634.45	54454.90
634.60	54745.13
634.75	54583.63
634.90	54412.77
635.05	54401.07
635.19	54342.56
635.34	54710.02
635.49	54560.23
635.64	54550.87
635.79	54227.87
635.94	54323.83
636.09	54419.80
636.24	54106.16
636.39	54127.23
636.53	54363.62
636.68	53853.39
636.83	54197.44
636.98	54354.26
637.13	54192.76
637.28	54415.11
637.43	54192.76
637.57	54148.29
637.72	54110.85
637.87	53970.41
638.02	54017.22
638.17	54099.14
638.32	53979.78
638.46	53719.98
638.61	53872.11
638.76	53794.87
638.91	53745.72
639.06	53600.61
639.20	53834.66
639.35	53984.46
639.50	53581.88
639.65	53961.05
639.80	53886.15
639.94	53727.00
640.09	53670.82
640.24	53647.42
640.39	53834.66
640.54	53654.44
640.68	53411.02
640.83	53263.57
640.98	53308.04
641.13	53361.87
641.27	53682.53
641.42	53066.97
641.57	53338.47
641.72	53499.97
641.86	53411.02
642.01	53265.91
642.16	53581.88
642.31	53270.59
642.45	53502.31
642.60	53034.20
642.75	53212.08
642.90	53172.29
643.04	53326.77
643.19	53045.90
643.34	53247.19
643.48	53354.85
643.63	53247.19
643.78	53324.43
643.93	53373.58
644.07	53200.38
644.22	52999.09
644.37	53525.71
644.51	53315.06
644.66	53151.23
644.81	53090.37
644.95	52903.13
645.10	52886.74
645.25	52804.83
645.39	52669.08
645.54	52853.98
645.69	52765.04
645.83	53020.16
645.98	53113.78
646.13	52968.66
646.27	52933.56
646.42	52743.97
646.57	53052.92
646.71	52863.34
646.86	52662.05
647.00	52474.81
647.15	52736.95
647.30	52437.36
647.44	52514.60
647.59	52626.95
647.74	52484.17
647.88	52437.36
648.03	52769.72
648.17	52687.80
648.32	52816.53
648.47	52736.95
648.61	52446.72
648.76	52493.54
648.90	52385.87
649.05	52392.89
649.20	52233.74
649.34	52495.88
649.49	52231.40
649.63	52367.15
649.78	52313.31
649.92	52322.68
650.07	52334.38
650.21	52238.42
650.36	52301.61
650.51	52315.65
650.65	52624.60
650.80	52568.43
650.94	52020.75
651.09	52053.51
651.23	52175.22
651.38	52119.05
651.52	51810.10
651.67	52009.04
651.81	52168.20
651.96	51838.18
652.10	52025.43
652.25	52083.94
652.39	52128.41
652.54	52172.88
652.68	52013.73
652.83	51999.68
652.97	52257.14
653.12	52285.23
653.26	52004.36
653.41	51969.26
653.55	51686.05
653.70	51402.85
653.84	51395.82
653.99	51503.49
654.13	51463.70
654.27	51601.79
654.42	51519.87
654.56	51562.00
654.71	51737.54
654.85	51667.33
655.00	51653.28
655.14	51896.70
655.29	51847.55
655.43	51461.36
655.57	51388.80
655.72	51306.88
655.86	51217.94
656.01	51047.08
656.15	50927.72
656.30	51271.78
656.44	51072.83
656.58	51138.36
656.73	50955.80
656.87	51077.51
657.01	51068.15
657.16	51498.81
657.30	50979.21
657.45	50798.99
657.59	50908.99
657.73	50934.74
657.88	51241.35
658.02	50766.22
658.16	50628.13
658.31	50803.67
658.45	50766.22
658.60	50527.48
658.74	50677.28
658.88	50674.94
659.03	50468.97
659.17	50417.48
659.31	50590.68
659.46	50454.93
659.60	50410.46
659.74	50686.64
659.89	50319.18
660.03	50422.16
660.17	50616.43
660.32	50614.08
660.46	50424.50
660.60	49848.73
660.74	50178.75
660.89	50211.51
661.03	50164.70
661.17	49930.65
661.32	49724.68
661.46	49928.31
661.60	50089.80
661.74	49965.76
661.89	50148.32
662.03	49778.51
662.17	50314.50
662.31	49668.51
662.46	50206.83
662.60	49745.75
662.74	49483.61
662.88	49212.10
663.03	49635.74
663.17	49336.15
663.31	49081.03
663.45	49111.46
663.60	49160.61
663.74	49207.42
663.88	49076.35
664.02	48886.77
664.17	49368.92
664.31	49003.80
664.45	48734.63
664.59	49411.05
664.73	49258.91
664.88	48818.89
665.02	48130.78
665.16	48559.09
665.30	48491.22
665.44	48334.40
665.59	48196.31
665.73	48451.43
665.87	48004.39
666.01	48149.50
666.15	48273.55
666.29	48198.65
666.44	48367.17
666.58	48596.54
666.72	48540.37
666.86	48364.83
667.00	48212.70
667.14	47639.26
667.28	47414.57
667.43	48090.99
667.57	47826.51
667.71	47437.98
667.85	47988.00
667.99	47297.55
668.13	47004.98
668.27	47175.84
668.41	47356.06
668.56	46754.54
668.70	47150.09
668.84	47342.02
668.98	46843.48
669.12	47316.27
669.26	46796.67
669.40	47009.66
669.54	46976.89
669.68	46679.64
669.82	46522.83
669.96	46370.69
670.10	46057.06
670.25	45890.88
670.39	46239.62
670.53	46281.75
670.67	46389.42
670.81	46703.05
670.95	46354.31
671.09	46225.58
671.23	46431.55
671.37	46391.76
671.51	46932.42
671.65	46749.86
671.79	46162.39
671.93	45911.95
672.07	45645.13
672.21	45483.63
672.35	45284.68
672.49	45516.40
672.63	45272.98
672.77	45118.51
672.91	44765.09
673.05	45064.67
673.19	44776.79
673.33	44980.42
673.47	45153.62
673.61	44844.66
673.75	44954.67
673.89	44910.20
674.03	44879.77
674.17	44807.22
674.31	44748.70
674.45	44299.32
674.59	44250.17
674.73	43934.20
674.87	44039.52
675.01	43866.32
675.15	43894.41
675.29	43627.59
675.43	43941.22
675.56	43739.93
675.70	43646.31
675.84	43711.84
675.98	42466.68
676.12	43562.05
676.26	43100.97
676.40	43381.83
676.54	43122.03
676.68	42946.49
676.82	42007.94
676.96	42485.40
677.10	42829.46
677.23	42232.63
677.37	42401.14
677.51	42021.98
677.65	41895.59
677.79	41212.15
677.93	41752.82
678.07	41560.89
678.21	41675.58
678.34	41488.34
678.48	41659.20
678.62	41345.56
678.76	41212.15
678.90	41127.89
679.04	40830.65
679.18	40868.09
679.31	40573.19
679.45	40446.80
679.59	39709.53
679.73	40037.20
679.87	40170.61
680.00	39826.56
680.14	39714.21
680.28	39782.09
680.42	39321.00
680.56	39981.03
680.70	39651.02
680.83	39711.87
680.97	39938.90
681.11	39805.49
681.25	39817.19
681.39	39292.91
681.52	39213.34
681.66	38754.59
681.80	38590.75
681.94	38309.89
682.07	38576.71
682.21	38323.93
682.35	37883.91
682.49	38340.32
682.62	37879.23
682.76	37837.10
682.90	37816.04
683.04	37984.55
683.17	38087.54
683.31	37642.84
683.45	37919.02
683.59	37640.50
683.72	37291.76
683.86	37046.00
684.00	36825.99
684.13	37099.83
684.27	36683.22
684.41	36191.70
684.55	36044.25
684.68	36252.56
684.82	35934.24
684.96	35608.91
685.09	35866.37
685.23	35807.86
685.37	35920.20
685.50	36254.90
685.64	35498.91
685.78	35381.88
685.91	35522.31
686.05	35772.75
686.19	35103.35
686.32	35037.82
686.46	34473.75
686.60	34452.69
686.73	35016.75
686.87	34450.35
687.01	34146.08
687.14	34293.53
687.28	34415.24
687.42	34249.06
687.55	33589.03
687.69	33582.01
687.82	33696.69
687.96	33750.52
688.10	33591.37
688.23	33387.74
688.37	33422.85
688.50	33497.75
688.64	33067.09
688.78	33031.98
688.91	32477.27
689.05	32627.07
689.18	32861.12
689.32	32250.24
689.46	31885.12
689.59	32306.41
689.73	32275.99
689.86	31952.99
690.00	31833.63
690.13	32177.68
690.27	31288.28
690.41	31800.86
690.54	31164.23
690.68	31604.25
690.81	31318.71
690.95	31426.37
691.08	31257.85
691.22	31360.84
691.35	31077.63
691.49	30714.85
691.62	30487.82
691.76	30197.59
691.89	30178.87
692.03	30183.55
692.16	30246.74
692.30	29844.17
692.43	29654.59
692.57	29816.08
692.70	29617.14
692.84	29455.64
692.97	29689.70
693.11	29600.76
693.24	29352.66
693.38	29589.05
693.51	29216.91
693.65	29261.38
693.78	29284.78
693.92	28854.12
694.05	28914.98
694.19	28720.71
694.32	28732.42
694.45	28367.29
694.59	28079.41
694.72	28252.61
694.86	27938.97
694.99	27569.17
695.13	27665.13
695.26	27487.25
695.39	27524.70
695.53	27576.19
695.66	28020.89
695.80	27276.60
695.93	27421.72
696.07	27351.50
696.20	26927.86
696.33	26815.52
696.47	26675.09
696.60	26597.85
696.73	26401.24
696.87	26253.79
697.00	26450.39
697.14	25954.20
697.27	25792.70
697.40	25298.85
697.54	25530.56
697.67	25764.62
697.80	25383.11
697.94	25106.93
698.07	25223.95
698.21	25127.99
698.34	25282.47
698.47	25200.55
698.61	24922.02
698.74	25001.60
698.87	25219.27
699.01	24917.34
699.14	25067.14
699.27	25095.22
699.40	24245.61
699.54	24217.52
699.67	24130.92
699.80	23608.98
699.94	23744.73
700.07	23981.13
700.20	23311.74
700.34	23321.10
700.47	23655.79
700.60	23426.42
700.73	23330.46
700.87	23147.90
701.00	23456.85
701.13	23126.83
701.26	23103.43
701.40	22939.59
701.53	22703.20
701.66	23241.52
701.79	22415.31
701.93	22265.52
702.06	22314.67
702.19	22181.26
702.32	22026.78
702.46	22314.67
702.59	21909.75
702.72	21635.91
702.85	21631.23
702.99	21429.94
703.12	21434.63
703.25	21551.65
703.38	21238.02
703.51	21212.28
703.65	21664.00
703.78	21245.04
703.91	21027.37
704.04	21296.53
704.17	20805.02
704.31	20720.76
704.44	20601.40
704.57	20713.74
704.70	20372.02
704.83	20168.40
704.96	20112.22
705.10	20077.12
705.23	20074.77
>>>>>End Processed Spectral Data<<<<<
