SpectraSuite Data File
++++++++++++++++++++++++++++++++++++
Date: Fri Oct 18 13:54:27 GMT-05:00 2013
User: bianchi
Dark Spectrum Present: No
Reference Spectrum Present: No
Number of Sampled Component Spectra: 1
Spectrometers: USB2+H05261
Integration Time (usec): 100000 (USB2+H05261)
Spectra Averaged: 1 (USB2+H05261)
Boxcar Smoothing: 0 (USB2+H05261)
Correct for Electrical Dark: No (USB2+H05261)
Strobe/Lamp Enabled: No (USB2+H05261)
Correct for Detector Non-linearity: No (USB2+H05261)
Correct for Stray Light: No (USB2+H05261)
Number of Pixels in Processed Spectrum: 2048
>>>>>Begin Processed Spectral Data<<<<<
365.73	0.00
365.92	0.00
366.12	0.00
366.32	0.00
366.52	0.00
366.72	0.00
366.91	0.00
367.11	0.00
367.31	0.00
367.51	0.00
367.70	0.00
367.90	0.00
368.10	0.00
368.30	0.00
368.49	0.00
368.69	0.00
368.89	0.00
369.09	0.00
369.28	0.00
369.48	0.00
369.68	0.00
369.87	0.00
370.07	0.00
370.27	0.00
370.47	86.60
370.66	339.38
370.86	304.27
371.06	372.15
371.25	355.76
371.45	299.59
371.65	376.83
371.84	301.93
372.04	294.91
372.24	402.57
372.44	409.59
372.63	433.00
372.83	442.36
373.03	433.00
373.22	369.80
373.42	477.47
373.62	440.02
373.81	421.30
374.01	528.96
374.21	528.96
374.40	540.66
374.60	521.94
374.79	517.26
374.99	566.41
375.19	500.87
375.38	517.26
375.58	585.13
375.78	585.13
375.97	545.34
376.17	615.56
376.37	475.13
376.56	622.58
376.76	552.37
376.95	493.85
377.15	624.92
377.35	517.26
377.54	538.32
377.74	512.58
377.93	547.69
378.13	561.73
378.33	454.06
378.52	550.03
378.72	582.79
378.91	667.05
379.11	613.22
379.31	596.84
379.50	547.69
379.70	566.41
379.89	599.18
380.09	678.76
380.28	592.16
380.48	655.35
380.68	603.86
380.87	587.47
381.07	629.60
381.26	566.41
381.46	674.07
381.65	645.99
381.85	706.84
382.04	744.29
382.24	718.54
382.43	697.48
382.63	676.41
382.83	706.84
383.02	702.16
383.22	716.20
383.41	758.33
383.61	823.87
383.80	798.12
384.00	678.76
384.19	706.84
384.39	809.83
384.58	798.12
384.78	760.67
384.97	718.54
385.17	692.80
385.36	739.61
385.56	940.90
385.75	828.55
385.95	835.57
386.14	861.32
386.34	851.96
386.53	819.19
386.72	758.33
386.92	997.07
387.11	877.70
387.31	875.36
387.50	849.61
387.70	952.60
387.89	837.91
388.09	863.66
388.28	936.21
388.48	964.30
388.67	968.98
388.86	936.21
389.06	922.17
389.25	968.98
389.45	964.30
389.64	929.19
389.84	1060.26
390.03	1041.54
390.22	1053.24
390.42	938.55
390.61	978.34
390.81	1004.09
391.00	980.68
391.19	1071.97
391.39	1039.20
391.58	1048.56
391.78	1076.65
391.97	1078.99
392.16	961.96
392.36	1132.82
392.55	1170.27
392.75	1130.48
392.94	1135.16
393.13	1090.69
393.33	1245.16
393.52	1137.50
393.71	1123.46
393.91	1275.59
394.10	1181.97
394.29	1210.06
394.49	1252.19
394.68	1240.48
394.88	1135.16
395.07	1179.63
395.26	1249.85
395.46	1313.04
395.65	1352.83
395.84	1324.74
396.04	1296.66
396.23	1329.42
396.42	1322.40
396.62	1362.19
396.81	1378.58
397.00	1329.42
397.19	1458.15
397.39	1413.68
397.58	1474.54
397.77	1444.11
397.97	1432.41
398.16	1516.67
398.35	1474.54
398.55	1519.01
398.74	1561.14
398.93	1479.22
399.12	1446.45
399.32	1455.81
399.51	1476.88
399.70	1563.48
399.90	1490.92
400.09	1633.69
400.28	1682.85
400.47	1565.82
400.67	1547.09
400.86	1640.72
401.05	1741.36
401.24	1605.61
401.44	1685.19
401.63	1692.21
401.82	1703.91
402.01	1650.08
402.21	1652.42
402.40	1708.59
402.59	1771.79
402.78	1753.06
402.97	1898.17
403.17	1842.00
403.36	1837.32
403.55	1849.02
403.74	1961.37
403.93	1891.15
404.13	1907.54
404.32	1944.99
404.51	1858.39
404.70	1893.49
404.89	1980.09
405.09	2005.84
405.28	2010.52
405.47	2052.65
405.66	1996.48
405.85	2017.54
406.05	1989.46
406.24	2179.04
406.43	2092.44
406.62	2139.25
406.81	2174.36
407.00	2211.81
407.20	2125.21
407.39	2270.32
407.58	2258.62
407.77	2207.13
407.96	2272.66
408.15	2345.22
408.34	2345.22
408.54	2319.47
408.73	2258.62
408.92	2487.99
409.11	2483.31
409.30	2511.39
409.49	2497.35
409.68	2487.99
409.87	2424.80
410.07	2637.78
410.26	2537.14
410.45	2642.46
410.64	2551.18
410.83	2609.70
411.02	2583.95
411.21	2754.81
411.40	2696.30
411.59	2806.30
411.78	2785.24
411.98	2796.94
412.17	2864.82
412.36	2822.69
412.55	2920.99
412.74	2871.84
412.93	2855.45
413.12	2913.97
413.31	3073.12
413.50	2993.55
413.69	3171.43
413.88	3169.09
414.07	3136.32
414.26	3171.43
414.45	3222.92
414.64	3251.00
414.83	3279.09
415.02	3438.25
415.22	3295.47
415.41	3379.73
415.60	3405.48
415.79	3414.84
415.98	3405.48
416.17	3496.76
416.36	3529.53
416.55	3609.11
416.74	3548.25
416.93	3714.43
417.12	3616.13
417.31	3707.41
417.50	3637.19
417.69	3747.20
417.88	3829.12
418.07	3854.86
418.26	3911.04
418.45	3751.88
418.64	3948.48
418.83	3960.19
419.02	3971.89
419.21	4086.58
419.39	3964.87
419.58	4074.87
419.77	4032.74
419.96	4025.72
420.15	3999.98
420.34	3997.64
420.53	4184.88
420.72	4346.37
420.91	4241.05
421.10	4124.02
421.29	4414.25
421.48	4269.14
421.67	4311.27
421.86	4372.12
422.05	4395.53
422.24	4243.39
422.43	4402.55
422.61	4397.87
422.80	4533.62
422.99	4521.92
423.18	4542.98
423.37	4521.92
423.56	4521.92
423.75	4507.87
423.94	4386.16
424.13	4105.30
424.32	4292.54
424.50	4617.88
424.69	4732.56
424.88	4667.03
425.07	4440.00
425.26	4379.14
425.45	4594.47
425.64	4615.54
425.83	4582.77
426.01	4762.99
426.20	4660.01
426.39	4573.41
426.58	4650.64
426.77	4608.51
426.96	4631.92
427.15	4692.77
427.33	4704.48
427.52	4819.16
427.71	4760.65
427.90	4805.12
428.09	4746.61
428.28	4842.57
428.46	4985.34
428.65	4971.30
428.84	5170.24
429.03	5043.85
429.22	4777.03
429.40	5102.37
429.59	5191.31
429.78	4849.59
429.97	4730.22
430.16	4947.89
430.34	5018.11
430.53	5212.37
430.72	5057.90
430.91	5095.35
431.10	5095.35
431.28	5221.74
431.47	5327.06
431.66	5495.58
431.85	5401.96
432.03	5460.47
432.22	5514.30
432.41	5399.62
432.60	5392.59
432.79	5310.68
432.97	5570.48
433.16	5584.52
433.35	5446.43
433.54	5556.43
433.72	5603.24
433.91	5549.41
434.10	5483.88
434.28	5657.07
434.47	5678.14
434.66	5865.38
434.85	5919.21
435.03	6012.84
435.22	5729.63
435.41	6043.26
435.59	5865.38
435.78	6043.26
435.97	5916.87
436.16	5982.41
436.34	5909.85
436.53	5865.38
436.72	6115.82
436.90	5968.37
437.09	6038.58
437.28	6054.97
437.46	6080.71
437.65	6167.31
437.84	6176.67
438.02	5994.11
438.21	6150.93
438.40	6221.14
438.58	6441.15
438.77	6389.66
438.96	6511.37
439.14	6478.60
439.33	6558.18
439.52	6661.16
439.70	6590.95
439.89	6663.51
440.08	6984.16
440.26	6675.21
440.45	6871.81
440.63	7005.22
440.82	7103.53
441.01	6827.34
441.19	7246.30
441.38	7070.76
441.57	7206.51
441.75	7293.11
441.94	7499.08
442.12	7379.71
442.31	7470.99
442.50	7440.56
442.68	7492.05
442.87	7456.95
443.05	7452.27
443.24	7557.59
443.43	7552.91
443.61	7487.37
443.80	7796.32
443.98	7435.88
444.17	7330.56
444.35	7576.31
444.54	7751.85
444.73	7637.17
444.91	7578.65
445.10	7691.00
445.28	7744.83
445.47	7676.96
445.65	7831.43
445.84	7772.92
446.02	7878.24
446.21	7765.90
446.39	7735.47
446.58	7775.26
446.77	7770.58
446.95	7581.00
447.14	7700.36
447.32	7796.32
447.51	7864.20
447.69	7779.94
447.88	7864.20
448.06	7812.71
448.25	7775.26
448.43	8173.15
448.62	8025.70
448.80	7894.63
448.99	8013.99
449.17	8011.65
449.36	8360.39
449.54	8135.70
449.73	8262.09
449.91	8234.00
450.10	8194.22
450.28	8475.08
450.46	8416.57
450.65	8149.75
450.83	8390.82
451.02	8341.67
451.20	8411.89
451.39	8655.30
451.57	8402.52
451.76	8414.23
451.94	8603.81
452.13	8767.65
452.31	8512.53
452.49	8575.72
452.68	8601.47
452.86	8622.53
453.05	8851.91
453.23	8751.26
453.42	8596.79
453.60	8767.65
453.78	8793.39
453.97	8791.05
454.15	8655.30
454.34	8674.03
454.52	8957.23
454.70	8894.04
454.89	9048.51
455.07	8966.59
455.26	9385.55
455.44	9095.32
455.62	9146.81
455.81	9221.71
455.99	9046.17
456.17	9366.82
456.36	9179.58
456.54	9329.38
456.73	9287.25
456.91	9434.70
457.09	9659.39
457.28	9542.36
457.46	9420.66
457.64	9650.03
457.83	9535.34
458.01	9549.39
458.19	9846.63
458.38	9717.90
458.56	9858.34
458.74	9907.49
458.93	10054.94
459.11	9832.59
459.29	9982.38
459.48	9912.17
459.66	10038.56
459.84	10366.23
460.03	10368.57
460.21	10010.47
460.39	10260.91
460.57	10094.73
460.76	10417.72
460.94	10324.10
461.12	10321.76
461.31	10429.43
461.49	10307.72
461.67	10450.49
461.85	10733.70
462.04	10471.56
462.22	10991.16
462.40	10586.24
462.59	10611.99
462.77	10775.83
462.95	10899.87
463.13	10724.33
463.32	10700.93
463.50	10806.25
463.68	10626.03
463.86	10803.91
464.05	10745.40
464.23	10792.21
464.41	10869.45
464.59	10469.22
464.78	11080.10
464.96	10736.04
465.14	10787.53
465.32	10998.18
465.50	10953.71
465.69	11225.21
465.87	10878.81
466.05	11103.50
466.23	11180.74
466.41	11351.60
466.60	11438.20
466.78	10995.84
466.96	11246.27
467.14	11131.59
467.32	11272.02
467.51	11239.25
467.69	10970.09
467.87	11398.41
468.05	11597.35
468.23	11241.59
468.41	11513.10
468.60	11545.86
468.78	11882.90
468.96	11515.44
469.14	11524.80
469.32	11819.71
469.50	11580.97
469.69	11983.54
469.87	12098.23
470.05	12046.74
470.23	12065.46
470.41	12058.44
470.59	12182.49
470.77	12147.38
470.95	12074.82
471.14	12407.18
471.32	12131.00
471.50	12636.55
471.68	12571.02
471.86	12381.43
472.04	12645.91
472.22	12805.07
472.40	12685.70
472.58	12746.56
472.77	12840.18
472.95	12903.37
473.13	13441.70
473.31	12943.16
473.49	12753.58
473.67	13055.51
473.85	13233.39
474.03	13392.55
474.21	13537.66
474.39	13507.23
474.57	13514.25
474.75	13675.75
474.93	13886.40
475.12	13638.30
475.30	13865.33
475.48	13788.10
475.66	13790.44
475.84	13762.35
476.02	13942.57
476.20	14368.55
476.38	14513.66
476.56	14324.08
476.74	14553.45
476.92	14883.47
477.10	14822.61
477.28	14827.29
477.46	14867.08
477.64	15096.46
477.82	14995.81
478.00	15419.45
478.18	15585.63
478.36	15885.22
478.54	15426.47
478.72	15761.17
478.90	16065.44
479.08	16126.29
479.26	16271.40
479.44	16395.45
479.62	16306.51
479.80	16519.50
479.98	16765.26
480.16	16858.88
480.34	16622.48
480.52	17102.29
480.70	17238.05
480.88	16833.13
481.06	17469.76
481.24	17238.05
481.41	17568.06
481.59	18001.06
481.77	17954.25
481.95	18265.54
482.13	17781.05
482.31	18321.71
482.49	18314.69
482.67	18302.99
482.85	18836.63
483.03	19014.51
483.21	19171.33
483.39	18998.13
483.57	19094.09
483.74	19103.45
483.92	19435.81
484.10	19681.56
484.28	20163.72
484.46	20130.95
484.64	20680.97
484.82	20027.96
485.00	20444.58
485.18	20673.95
485.35	20943.11
485.53	21137.38
485.71	20900.98
485.89	21706.13
486.07	21493.14
486.25	21319.94
486.43	21673.36
486.61	21785.71
486.78	22003.38
486.96	22197.64
487.14	22740.64
487.32	22162.53
487.50	22899.80
487.68	22817.88
487.85	23412.38
488.03	23489.62
488.21	23672.18
488.39	23456.85
488.57	24245.61
488.75	23688.56
488.92	24449.24
489.10	24348.59
489.28	24430.51
489.46	24856.49
489.64	24737.12
489.81	25415.88
489.99	25252.04
490.17	25216.93
490.35	25589.08
490.53	25898.03
490.70	25961.22
490.88	25949.52
491.06	26157.83
491.24	26338.05
491.41	26455.08
491.59	26782.75
491.77	27075.32
491.95	27227.45
492.13	27758.75
492.30	27594.92
492.48	27316.39
492.66	27899.19
492.84	27632.36
493.01	27852.38
493.19	28114.52
493.37	28493.68
493.54	28800.29
493.72	29013.28
493.90	28936.04
494.08	28971.15
494.25	29551.60
494.43	29376.06
494.61	29500.11
494.79	29670.97
494.96	29797.36
495.14	29860.55
495.32	29731.83
495.49	30204.61
495.67	30462.07
495.85	30754.64
496.02	31002.74
496.20	31239.13
496.38	31321.05
496.55	31639.36
496.73	31339.77
496.91	31325.73
497.09	32048.96
497.26	32444.51
497.44	31688.51
497.62	31960.02
497.79	32229.18
497.97	32023.21
498.14	32772.18
498.32	32994.53
498.50	33064.75
498.67	33783.29
498.85	33191.14
499.03	32914.95
499.20	33261.35
499.38	33567.96
499.56	33872.23
499.73	33928.41
499.91	34183.52
500.08	34230.33
500.26	34244.38
500.44	34845.90
500.61	34504.18
500.79	34188.21
500.97	35077.61
501.14	35030.80
501.32	34939.52
501.49	35065.91
501.67	35227.40
501.84	35290.60
502.02	35164.21
502.20	35805.52
502.37	36121.49
502.55	36072.34
502.72	36257.24
502.90	35702.53
503.07	36172.98
503.25	36271.28
503.43	36093.40
503.60	36751.09
503.78	36774.50
503.95	36772.16
504.13	36952.38
504.30	37113.87
504.48	36730.03
504.65	37106.85
504.83	37432.19
505.01	37488.36
505.18	37652.20
505.36	37972.85
505.53	37827.74
505.71	37989.24
505.88	37762.20
506.06	38052.43
506.23	38225.63
506.41	38749.91
506.58	38759.27
506.76	38103.92
506.93	38663.31
507.11	38726.50
507.28	39203.97
507.46	38766.29
507.63	39318.66
507.81	39358.45
507.98	39255.46
508.16	39236.74
508.33	39236.74
508.50	39372.49
508.68	39555.05
508.85	40245.51
509.03	40210.40
509.20	40418.71
509.38	40514.67
509.55	40334.45
509.73	40257.21
509.90	40577.87
510.08	40598.93
510.25	40371.90
510.42	41069.38
510.60	41153.64
510.77	41144.28
510.95	41092.79
511.12	41165.34
511.30	40957.03
511.47	41652.17
511.64	41652.17
511.82	41528.13
511.99	41949.42
512.17	42260.71
512.34	42089.85
512.51	42366.04
512.69	42178.79
512.86	42337.95
513.04	42618.81
513.21	42862.23
513.38	42667.97
513.56	42735.84
513.73	42733.50
513.90	43098.62
514.08	42597.75
514.25	43072.88
514.43	43129.05
514.60	43599.50
514.77	43555.03
514.95	43658.01
515.12	43517.58
515.29	43697.80
515.47	43775.04
515.64	44027.82
515.81	43707.16
515.99	44079.31
516.16	44847.00
516.33	44697.21
516.51	44552.10
516.68	44552.10
516.85	44479.54
517.03	44732.32
517.20	45132.55
517.37	44825.94
517.54	45034.25
517.72	45116.17
517.89	45352.56
518.06	45059.99
518.24	44804.88
518.41	45123.19
518.58	45237.87
518.75	45294.05
518.93	45731.73
519.10	45467.25
519.27	45682.58
519.45	45471.93
519.62	45762.15
519.79	45738.75
519.96	46363.67
520.14	45965.78
520.31	45993.87
520.48	46431.55
520.65	46710.07
520.83	46541.55
521.00	46143.66
521.17	46501.76
521.34	46068.76
521.52	46738.16
521.69	46600.07
521.86	46944.12
522.03	46981.57
522.20	46904.34
522.38	47487.13
522.55	46759.22
522.72	47084.56
522.89	47206.26
523.07	47419.25
523.24	47325.63
523.41	47899.06
523.58	47430.96
523.75	47730.54
523.92	47260.10
524.10	47597.13
524.27	47632.24
524.44	47945.87
524.61	47924.81
524.78	48428.02
524.96	48280.57
525.13	48168.22
525.30	48545.05
525.47	48285.25
525.64	48889.11
525.81	48322.70
525.98	48751.02
526.16	48671.44
526.33	48669.10
526.50	49235.51
526.67	48629.31
526.84	49043.59
527.01	49008.48
527.18	48825.92
527.36	49294.02
527.53	49448.50
527.70	49830.01
527.87	49860.43
528.04	49502.33
528.21	49682.55
528.38	48975.71
528.55	49453.18
528.72	49490.63
528.89	49605.31
529.07	49680.21
529.24	49722.34
529.41	49785.54
529.58	49860.43
529.75	49932.99
529.92	49394.67
530.09	50117.89
530.26	50120.23
530.43	50080.44
530.60	49860.43
530.77	50113.21
530.94	50040.65
531.11	50333.22
531.28	50309.82
531.46	50099.17
531.63	50578.98
531.80	50717.07
531.97	50979.21
532.14	51143.05
532.31	50693.66
532.48	50738.13
532.65	50684.30
532.82	50567.27
532.99	50717.07
533.16	50831.75
533.33	51077.51
533.50	51213.26
533.67	51318.59
533.84	51274.12
534.01	50773.24
534.18	50534.51
534.35	51327.95
534.52	51192.20
534.69	51721.16
534.86	51489.45
535.03	51049.42
535.20	51636.90
535.37	51730.52
535.54	51398.16
535.71	51068.15
535.88	51725.84
536.05	51821.80
536.22	51950.53
536.38	51833.50
536.55	52004.36
536.72	51887.34
536.89	51564.34
537.06	51821.80
537.23	51793.71
537.40	51760.95
537.57	51695.41
537.74	51877.97
537.91	52491.19
538.08	52240.76
538.25	52044.15
538.42	52186.92
538.59	52633.97
538.75	52465.45
538.92	52350.76
539.09	52390.55
539.26	52493.54
539.43	52636.31
539.60	52783.76
539.77	52772.06
539.94	52589.50
540.11	52720.57
540.28	52556.73
540.44	52636.31
540.61	52683.12
540.78	52772.06
540.95	52795.46
541.12	53020.16
541.29	52875.04
541.46	52743.97
541.62	52652.69
541.79	52743.97
541.96	52678.44
542.13	53066.97
542.30	53169.95
542.47	53478.90
542.63	53106.76
542.80	53155.91
542.97	53581.88
543.14	53675.51
543.31	53361.87
543.48	53593.59
543.64	53680.19
543.81	53710.61
543.98	53727.00
544.15	53790.19
544.32	53745.72
544.48	53841.68
544.65	53579.54
544.82	53867.43
544.99	53638.06
545.16	53883.81
545.32	53799.55
545.49	53914.24
545.66	54319.15
545.83	54169.36
546.00	54389.37
546.16	54019.56
546.33	53961.05
546.50	53621.67
546.67	53989.14
546.83	53741.04
547.00	53935.30
547.17	54300.43
547.34	54302.77
547.50	54136.59
547.67	54363.62
547.84	54288.73
548.00	54274.68
548.17	54445.54
548.34	54384.69
548.51	54665.55
548.67	54768.54
548.84	54672.57
549.01	54588.31
549.18	54349.58
549.34	54600.02
549.51	54429.16
549.68	54532.14
549.84	54506.40
550.01	54600.02
550.18	54466.61
550.34	54548.53
550.51	54993.23
550.68	54883.22
550.84	54546.18
551.01	54803.64
551.18	54471.29
551.34	54747.47
551.51	54548.53
551.68	55009.61
551.84	54951.10
552.01	54845.77
552.18	55185.15
552.34	54775.56
552.51	55035.36
552.68	54637.47
552.84	54934.71
553.01	55049.40
553.18	55140.68
553.34	55089.19
553.51	54827.05
553.67	55379.42
553.84	55412.18
554.01	55339.63
554.17	55295.16
554.34	55519.85
554.51	55250.69
554.67	55302.18
554.84	55292.82
555.00	55398.14
555.17	55201.53
555.33	55430.91
555.50	55332.60
555.67	55323.24
555.83	55360.69
556.00	55538.57
556.16	55578.36
556.33	55475.38
556.50	55381.76
556.66	55674.32
556.83	55292.82
556.99	55508.14
557.16	55877.95
557.32	55793.69
557.49	55618.15
557.65	55480.06
557.82	55487.08
557.98	55657.94
558.15	55826.46
558.32	55730.50
558.48	55716.45
558.65	55817.10
558.81	55835.82
558.98	55924.76
559.14	55913.06
559.31	55650.92
559.47	55847.52
559.64	55781.99
559.80	55667.30
559.97	55854.54
560.13	55664.96
560.30	55704.75
560.46	56048.81
560.63	55627.51
560.79	55868.59
560.96	55927.10
561.12	55819.44
561.29	55913.06
561.45	56053.49
561.61	56086.26
561.78	56299.25
561.94	55966.89
562.11	56334.35
562.27	55987.95
562.44	55880.29
562.60	56083.92
562.77	56046.47
562.93	55908.38
563.10	56329.67
563.26	56004.34
563.42	56341.38
563.59	56090.94
563.75	56264.14
563.92	56175.20
564.08	56189.24
564.24	56149.45
564.41	55889.65
564.57	56048.81
564.74	56186.90
564.90	56074.55
565.07	56205.62
565.23	56243.07
565.39	56229.03
565.56	56126.05
565.72	56097.96
565.88	56292.22
566.05	56065.19
566.21	56004.34
566.38	55952.85
566.54	56135.41
566.70	56449.04
566.87	56423.29
567.03	56376.48
567.19	56381.16
567.36	56226.69
567.52	56212.65
567.68	56317.97
567.85	56355.42
568.01	56542.66
568.17	56243.07
568.34	56554.36
568.50	56512.23
568.66	56584.79
568.83	56605.86
568.99	56292.22
569.15	56477.13
569.32	56306.27
569.48	56088.60
569.64	56416.27
569.81	56411.59
569.97	56523.94
570.13	56570.75
570.30	56591.81
570.46	56636.28
570.62	56554.36
570.78	56502.87
570.95	56240.73
571.11	56383.51
571.27	56371.80
571.43	56392.87
571.60	56463.08
571.76	56535.64
571.92	56526.28
572.09	56692.46
572.25	56697.14
572.41	56446.70
572.57	56486.49
572.74	56659.69
572.90	56516.92
573.06	56509.89
573.22	56521.60
573.38	56594.15
573.55	56570.75
573.71	56907.79
573.87	56685.43
574.03	56636.28
574.20	56467.76
574.36	56472.45
574.52	56530.96
574.68	56488.83
574.84	56362.44
575.01	56671.39
575.17	56725.22
575.33	56446.70
575.49	56652.67
575.65	56868.00
575.82	56729.90
575.98	56509.89
576.14	56781.40
576.30	56603.52
576.46	56605.86
576.62	56603.52
576.79	56535.64
576.95	56545.00
577.11	56699.48
577.27	56449.04
577.43	56587.13
577.59	56479.47
577.75	56701.82
577.92	56446.70
578.08	56610.54
578.24	56545.00
578.40	56626.92
578.56	56467.76
578.72	56612.88
578.88	56615.22
579.04	56722.88
579.21	56547.34
579.37	56711.18
579.53	56809.48
579.69	56566.07
579.85	56465.42
580.01	56577.77
580.17	56643.30
580.33	56505.21
580.49	56743.95
580.65	56872.68
580.82	57073.96
580.98	56722.88
581.14	56587.13
581.30	56760.33
581.46	56687.78
581.62	56622.24
581.78	56573.09
581.94	56928.85
582.10	56629.26
582.26	56671.39
582.42	56753.31
582.58	56708.84
582.74	56821.19
582.90	56935.87
583.06	56767.35
583.22	56694.80
583.38	56690.12
583.54	56619.90
583.70	56610.54
583.86	56690.12
584.02	56348.40
584.18	56678.41
584.34	56846.93
584.50	56882.04
584.66	56725.22
584.82	56561.39
584.98	56530.96
585.14	56713.52
585.30	56612.88
585.46	56692.46
585.62	56823.53
585.78	56680.75
585.94	56587.13
586.10	56755.65
586.26	56697.14
586.42	56879.70
586.58	56814.16
586.74	56718.20
586.90	56486.49
587.06	56399.89
587.22	56652.67
587.38	56727.56
587.54	56818.84
587.70	56933.53
587.86	57041.20
588.02	56903.10
588.18	56741.61
588.34	56690.12
588.49	56835.23
588.65	56853.95
588.81	56622.24
588.97	56692.46
589.13	56793.10
589.29	56699.48
589.45	56596.49
589.61	56809.48
589.77	57013.11
589.93	57003.75
590.08	57090.35
590.24	56903.10
590.40	57132.48
590.56	57071.62
590.72	56860.97
590.88	57069.28
591.04	56774.37
591.20	57162.90
591.35	56973.32
591.51	57352.49
591.67	57329.08
591.83	57036.51
591.99	57167.58
592.15	57036.51
592.31	57116.09
592.46	56947.57
592.62	56844.59
592.78	56917.15
592.94	56928.85
593.10	56837.57
593.26	57073.96
593.41	57059.92
593.57	57233.12
593.73	56994.39
593.89	57134.82
594.05	56912.47
594.20	56863.32
594.36	56970.98
594.52	56832.89
594.68	56839.91
594.84	56828.21
594.99	57146.52
595.15	57092.69
595.31	57102.05
595.47	57134.82
595.62	57347.81
595.78	57020.13
595.94	56966.30
596.10	56947.57
596.25	56886.72
596.41	56940.55
596.57	56842.25
596.73	56989.70
596.88	57158.22
597.04	57289.29
597.20	57073.96
597.36	57118.43
597.51	57258.87
597.67	56917.15
597.83	56926.51
597.99	57350.15
598.14	56987.36
598.30	57226.10
598.46	56842.25
598.61	57116.09
598.77	56860.97
598.93	57230.78
599.09	56987.36
599.24	57408.66
599.40	57080.98
599.56	57123.11
599.71	56919.49
599.87	56961.62
600.03	57027.15
600.18	57116.09
600.34	57022.47
600.50	56896.08
600.65	57066.94
600.81	57219.08
600.97	57073.96
601.12	57378.23
601.28	57322.06
601.44	57085.67
601.59	57116.09
601.75	57057.58
601.91	57237.80
602.06	56839.91
602.22	56956.94
602.37	56877.36
602.53	56954.60
602.69	57109.07
602.84	56982.68
603.00	57008.43
603.16	57153.54
603.31	57228.44
603.47	57160.56
603.62	57078.64
603.78	57097.37
603.94	57247.16
604.09	57095.03
604.25	57102.05
604.40	56837.57
604.56	57006.09
604.71	57286.95
604.87	57048.22
605.03	57165.24
605.18	56975.66
605.34	57144.18
605.49	56856.29
605.65	56987.36
605.80	56697.14
605.96	57069.28
606.12	56755.65
606.27	57092.69
606.43	56781.40
606.58	56973.32
606.74	56825.87
606.89	56652.67
607.05	56872.68
607.20	56994.39
607.36	56926.51
607.51	57015.45
607.67	56537.98
607.82	56563.73
607.98	56762.67
608.13	56802.46
608.29	56521.60
608.44	56933.53
608.60	56994.39
608.75	56907.79
608.91	56814.16
609.06	56474.79
609.22	56860.97
609.37	56549.68
609.53	56762.67
609.68	56767.35
609.84	56530.96
609.99	56603.52
610.15	56552.02
610.30	56697.14
610.46	56615.22
610.61	56690.12
610.76	56484.15
610.92	56652.67
611.07	56767.35
611.23	56701.82
611.38	56582.45
611.54	56460.74
611.69	56411.59
611.84	56126.05
612.00	56322.65
612.15	56175.20
612.31	56816.50
612.46	56676.07
612.62	56596.49
612.77	56722.88
612.92	56795.44
613.08	56645.65
613.23	56652.67
613.39	56603.52
613.54	56395.21
613.69	56329.67
613.85	56303.93
614.00	56451.38
614.15	56406.91
614.31	56395.21
614.46	56488.83
614.62	56367.12
614.77	56292.22
614.92	56427.98
615.08	56514.58
615.23	56376.48
615.38	56240.73
615.54	56224.35
615.69	56306.27
615.84	56137.75
616.00	56296.91
616.15	56147.11
616.30	56369.46
616.46	56205.62
616.61	56182.22
616.76	56123.71
616.92	56065.19
617.07	56170.52
617.22	56104.98
617.37	56112.00
617.53	55976.25
617.68	55781.99
617.83	55983.27
617.99	56053.49
618.14	55882.63
618.29	56020.72
618.45	56048.81
618.60	56147.11
618.75	56177.54
618.90	56065.19
619.06	56184.56
619.21	56016.04
619.36	56048.81
619.51	55789.01
619.67	55599.43
619.82	55671.98
619.97	55554.96
620.12	55573.68
620.28	55629.85
620.43	55777.31
620.58	56226.69
620.73	55845.18
620.89	55657.94
621.04	55828.80
621.19	55458.99
621.34	55648.58
621.49	55700.07
621.65	55320.90
621.80	55627.51
621.95	55576.02
622.10	55679.00
622.25	55604.11
622.41	55451.97
622.56	55709.43
622.71	55770.28
622.86	55536.23
623.01	55517.51
623.16	55554.96
623.32	55206.22
623.47	55370.05
623.62	55430.91
623.77	55250.69
623.92	55421.55
624.07	55222.60
624.23	55393.46
624.38	55255.37
624.53	55044.72
624.68	55482.40
624.83	55547.93
624.98	55491.76
625.13	55192.17
625.29	55386.44
625.44	55157.06
625.59	55194.51
625.74	55107.91
625.89	54850.45
626.04	55084.51
626.19	54894.92
626.34	54967.48
626.49	55182.81
626.65	54660.87
626.80	54930.03
626.95	54782.58
627.10	54906.63
627.25	54775.56
627.40	54770.88
627.55	54782.58
627.70	54712.36
627.85	54609.38
628.00	54464.27
628.15	54658.53
628.30	54522.78
628.45	54635.13
628.60	54789.60
628.76	54630.44
628.91	54817.69
629.06	54663.21
629.21	54642.15
629.36	54660.87
629.51	54403.41
629.66	54665.55
629.81	54117.87
629.96	54450.22
630.11	54288.73
630.26	54529.80
630.41	54199.79
630.56	54145.95
630.71	54459.58
630.86	54520.44
631.01	54356.60
631.16	54347.24
631.31	54604.70
631.46	54183.40
631.61	54548.53
631.76	54305.11
631.91	54162.34
632.06	54260.64
632.21	53916.58
632.36	54005.52
632.51	53947.01
632.66	54010.20
632.81	54136.59
632.96	54272.34
633.10	54319.15
633.25	54218.51
633.40	54117.87
633.55	53705.93
633.70	54284.04
633.85	53858.07
634.00	53853.39
634.15	53888.49
634.30	54113.19
634.45	54143.61
634.60	54115.53
634.75	54092.12
634.90	53586.57
635.05	53790.19
635.19	53869.77
635.34	54033.61
635.49	53837.00
635.64	53855.73
635.79	53652.10
635.94	53778.49
636.09	53846.36
636.24	53792.53
636.39	53965.73
636.53	53902.54
636.68	53553.80
636.83	53799.55
636.98	53881.47
637.13	53574.86
637.28	53460.18
637.43	53701.25
637.57	53698.91
637.72	53310.38
637.87	53511.67
638.02	53429.75
638.17	53502.31
638.32	52928.87
638.46	53298.68
638.61	53462.52
638.76	53249.53
638.91	53263.57
639.06	53071.65
639.20	53219.10
639.35	53160.59
639.50	53272.93
639.65	53275.27
639.80	53095.05
639.94	53329.11
640.09	52928.87
640.24	53134.84
640.39	53181.65
640.54	52758.02
640.68	53045.90
640.83	53038.88
640.98	52580.13
641.13	52587.16
641.27	52903.13
641.42	52650.35
641.57	52626.95
641.72	52839.93
641.86	52865.68
642.01	52570.77
642.16	52395.23
642.31	52657.37
642.45	53041.22
642.60	52453.75
642.75	52449.06
642.90	52561.41
643.04	52699.50
643.19	52683.12
643.34	52853.98
643.48	52493.54
643.63	52804.83
643.78	52509.92
643.93	52973.34
644.07	52416.30
644.22	52631.63
644.37	52287.57
644.51	52390.55
644.66	52800.15
644.81	52587.16
644.95	52165.86
645.10	52177.56
645.25	52397.57
645.39	52231.40
645.54	52327.36
645.69	52580.13
645.83	52186.92
645.98	52247.78
646.13	52561.41
646.27	52439.70
646.42	52175.22
646.57	52233.74
646.71	52229.05
646.86	52278.21
647.00	51873.29
647.15	52191.61
647.30	51805.42
647.44	51901.38
647.59	51821.80
647.74	51892.02
647.88	52069.90
648.03	52027.77
648.17	52203.31
648.32	52165.86
648.47	52058.20
648.61	51704.77
648.76	52126.07
648.90	51934.15
649.05	51742.22
649.20	51583.07
649.34	51557.32
649.49	51510.51
649.63	51517.53
649.78	51742.22
649.92	51239.01
650.07	52112.03
650.21	51414.55
650.36	51334.97
650.51	51578.39
650.65	52076.92
650.80	51604.13
650.94	51550.30
651.09	51814.78
651.23	51440.29
651.38	51365.40
651.52	51487.10
651.67	51145.39
651.81	51363.06
651.96	51253.05
652.10	51304.54
652.25	51217.94
652.39	51466.04
652.54	51746.90
652.68	51341.99
652.83	51161.77
652.97	51477.74
653.12	51356.03
653.26	51288.16
653.41	51679.03
653.55	50768.56
653.70	50873.88
653.84	51154.75
653.99	51033.04
654.13	51262.41
654.27	50824.73
654.42	50995.59
654.56	50857.50
654.71	50864.52
654.85	51173.47
655.00	50897.29
655.14	50845.80
655.29	50967.51
655.43	50906.65
655.57	50698.34
655.72	50576.64
655.86	50349.60
656.01	50447.91
656.15	50436.20
656.30	50553.23
656.44	50335.56
656.58	50347.26
656.73	50422.16
656.87	50452.59
657.01	50410.46
657.16	50571.96
657.30	50677.28
657.45	50651.53
657.59	50342.58
657.73	50248.96
657.88	50480.67
658.02	50019.59
658.16	49830.01
658.31	50113.21
658.45	50251.30
658.60	50115.55
658.74	49762.13
658.88	50017.25
659.03	49911.92
659.17	49839.37
659.31	49886.18
659.46	49607.65
659.60	50277.05
659.74	50391.73
659.89	50110.87
660.03	49769.15
660.17	49982.14
660.32	49258.91
660.46	49413.39
660.60	49851.07
660.74	49158.27
660.89	49272.96
661.03	49331.47
661.17	49036.56
661.32	49268.28
661.46	49233.17
661.60	48994.43
661.74	49081.03
661.89	48875.07
662.03	49310.41
662.17	48868.05
662.31	49041.24
662.46	48942.94
662.60	48910.17
662.74	48580.16
662.88	48619.95
663.03	48856.34
663.17	48512.28
663.31	48580.16
663.45	48538.03
663.60	48470.15
663.74	48119.07
663.88	48570.80
664.02	48523.99
664.17	48573.14
664.31	48502.92
664.45	48376.53
664.59	48418.66
664.73	48116.73
664.88	47833.53
665.02	47597.13
665.16	47494.15
665.30	47765.65
665.44	47908.43
665.59	47316.27
665.73	47339.68
665.87	47061.15
666.01	47966.94
666.15	47407.55
666.29	47812.46
666.44	47047.11
666.58	47442.66
666.72	47461.38
666.86	47744.59
667.00	47349.04
667.14	47264.78
667.28	47044.77
667.43	46962.85
667.57	46969.87
667.71	46916.04
667.85	46649.22
667.99	46904.34
668.13	46534.53
668.27	46094.51
668.41	46705.39
668.56	46148.34
668.70	46609.43
668.84	46714.75
668.98	46511.13
669.12	46274.73
669.26	46260.69
669.40	46167.07
669.54	46080.47
669.68	46234.94
669.82	45710.66
669.96	45818.33
670.10	45111.49
670.25	45794.92
670.39	45897.91
670.53	45083.40
670.67	45219.15
670.81	45670.87
670.95	45811.31
671.09	45331.50
671.23	44931.26
671.37	45062.33
671.51	45738.75
671.65	45373.63
671.79	45148.93
671.93	45212.13
672.07	44971.05
672.21	44957.01
672.35	44540.39
672.49	44545.08
672.63	44636.36
672.77	44524.01
672.91	44582.52
673.05	44013.77
673.19	43938.88
673.33	44254.85
673.47	44060.58
673.61	44835.30
673.75	44479.54
673.89	43859.30
674.03	44039.52
674.17	43871.00
674.31	43288.21
674.45	43625.25
674.59	43140.75
674.73	43274.16
674.87	43381.83
675.01	43014.37
675.15	42712.44
675.29	43318.64
675.43	42405.83
675.56	43337.36
675.70	42979.26
675.84	43178.20
675.98	41846.44
676.12	42850.53
676.26	43091.60
676.40	42597.75
676.54	42452.64
676.68	42038.36
676.82	41130.23
676.96	42162.41
677.10	41633.45
677.23	41617.07
677.37	41539.83
677.51	41134.92
677.65	41165.34
677.79	40840.01
677.93	40999.16
678.07	40545.10
678.21	41031.93
678.34	40627.02
678.48	40472.54
678.62	40493.61
678.76	40404.67
678.90	40044.23
679.04	40219.77
679.18	39868.69
679.31	40018.48
679.45	39613.57
679.59	39526.97
679.73	39178.23
679.87	39302.28
680.00	39037.80
680.14	38576.71
680.28	39072.90
680.42	39063.54
680.56	39220.36
680.70	38782.68
680.83	38857.57
680.97	38831.83
681.11	38916.09
681.25	38447.98
681.39	38366.06
681.52	38405.85
681.66	38314.57
681.80	37666.24
681.94	38113.28
682.07	37743.48
682.21	37535.17
682.35	37703.69
682.49	37228.56
682.62	37209.84
682.76	37085.79
682.90	37181.75
683.04	36589.59
683.17	36999.19
683.31	36737.05
683.45	36992.17
683.59	36774.50
683.72	35999.78
683.86	36095.74
684.00	36006.80
684.13	35758.70
684.27	35761.05
684.41	35910.84
684.55	35683.81
684.68	35964.67
684.82	35730.62
684.96	35143.14
685.09	35363.15
685.23	34925.47
685.37	34665.67
685.50	34787.38
685.64	34773.34
685.78	34763.98
685.91	34588.44
686.05	34321.62
686.19	34857.60
686.32	34642.27
686.46	33954.15
686.60	33645.20
686.73	33881.60
686.87	33638.18
687.01	33687.33
687.14	33376.04
687.28	33263.69
687.42	32950.06
687.55	32964.10
687.69	33305.82
687.82	33001.55
687.96	33174.75
688.10	32919.63
688.23	33041.34
688.37	32650.47
688.50	32613.02
688.64	32615.37
688.78	32418.76
688.91	31655.75
689.05	32341.52
689.18	32107.47
689.32	31461.48
689.46	31625.32
689.59	31332.75
689.73	31491.91
689.86	30705.49
690.00	31255.51
690.13	31206.36
690.27	30927.84
690.41	31094.02
690.54	30574.42
690.68	31288.28
690.81	30969.97
690.95	30450.37
691.08	30576.76
691.22	30202.27
691.35	30520.59
691.49	30043.12
691.62	29909.71
691.76	29413.51
691.89	29617.14
692.03	29284.78
692.16	29371.38
692.30	29022.64
692.43	29191.16
692.57	29111.58
692.70	29380.74
692.84	28819.02
692.97	28746.46
693.11	29125.63
693.24	29043.71
693.38	28751.14
693.51	28713.69
693.65	28716.03
693.78	28538.15
693.92	28608.37
694.05	28545.17
694.19	27985.79
694.32	28084.09
694.45	27412.35
694.59	27852.38
694.72	27468.53
694.86	27491.93
694.99	26895.10
695.13	26820.20
695.26	26806.16
695.39	26731.26
695.53	26831.90
695.66	26953.61
695.80	26789.77
695.93	26859.99
696.07	26235.06
696.20	26387.20
696.33	26522.95
696.47	26340.39
696.60	26181.23
696.73	25937.82
696.87	25542.27
697.00	25607.80
697.14	25757.60
697.27	25109.27
697.40	25085.86
697.54	25020.33
697.67	24713.72
697.80	24507.75
697.94	24814.36
698.07	24973.52
698.21	24402.43
698.34	24826.06
698.47	24521.79
698.61	24180.07
698.74	23939.00
698.87	24144.97
699.01	24631.80
699.14	24226.89
699.27	24020.92
699.40	24056.03
699.54	23580.90
699.67	23449.83
699.80	23522.38
699.94	23199.39
700.07	23332.80
700.20	22963.00
700.34	23030.87
700.47	23290.67
700.60	23073.00
700.73	22642.34
700.87	22703.20
701.00	22670.43
701.13	22647.02
701.26	22389.56
701.40	22359.14
701.53	22352.12
701.66	22291.26
701.79	22326.37
701.93	21891.03
702.06	21745.92
702.19	21575.06
702.32	21553.99
702.46	21539.95
702.59	21282.49
702.72	21125.68
702.85	20987.58
702.99	20893.96
703.12	21055.46
703.25	20704.38
703.38	21020.35
703.51	20805.02
703.65	20716.08
703.78	20519.48
703.91	20393.09
704.04	20676.29
704.17	20383.73
704.31	20166.06
704.44	20318.19
704.57	19974.13
704.70	19971.79
704.83	19632.41
704.96	19641.78
705.10	19864.13
705.23	19557.52
>>>>>End Processed Spectral Data<<<<<
