SpectraSuite Data File
++++++++++++++++++++++++++++++++++++
Date: Fri Oct 18 13:54:20 GMT-05:00 2013
User: bianchi
Dark Spectrum Present: No
Reference Spectrum Present: No
Number of Sampled Component Spectra: 1
Spectrometers: USB2+H05261
Integration Time (usec): 100000 (USB2+H05261)
Spectra Averaged: 1 (USB2+H05261)
Boxcar Smoothing: 0 (USB2+H05261)
Correct for Electrical Dark: No (USB2+H05261)
Strobe/Lamp Enabled: No (USB2+H05261)
Correct for Detector Non-linearity: No (USB2+H05261)
Correct for Stray Light: No (USB2+H05261)
Number of Pixels in Processed Spectrum: 2048
>>>>>Begin Processed Spectral Data<<<<<
365.73	0.00
365.92	0.00
366.12	0.00
366.32	0.00
366.52	0.00
366.72	0.00
366.91	0.00
367.11	0.00
367.31	0.00
367.51	0.00
367.70	0.00
367.90	0.00
368.10	0.00
368.30	0.00
368.49	0.00
368.69	0.00
368.89	0.00
369.09	0.00
369.28	0.00
369.48	0.00
369.68	0.00
369.87	0.00
370.07	0.00
370.27	0.00
370.47	4.68
370.66	217.67
370.86	273.84
371.06	252.78
371.25	386.19
371.45	273.84
371.65	353.42
371.84	283.20
372.04	337.04
372.24	379.17
372.44	325.33
372.63	414.27
372.83	498.53
373.03	482.15
373.22	421.30
373.42	463.43
373.62	365.12
373.81	421.30
374.01	493.85
374.21	613.22
374.40	449.38
374.60	557.05
374.79	463.43
374.99	500.87
375.19	531.30
375.38	519.60
375.58	411.93
375.78	573.43
375.97	470.45
376.17	545.34
376.37	491.51
376.56	510.24
376.76	519.60
376.95	510.24
377.15	533.64
377.35	559.39
377.54	601.52
377.74	575.77
377.93	496.19
378.13	587.47
378.33	575.77
378.52	575.77
378.72	566.41
378.91	657.69
379.11	636.63
379.31	564.07
379.50	573.43
379.70	669.39
379.89	669.39
380.09	550.03
380.28	643.65
380.48	653.01
380.68	554.71
380.87	594.50
381.07	622.58
381.26	573.43
381.46	664.71
381.65	704.50
381.85	641.31
382.04	730.25
382.24	706.84
382.43	727.91
382.63	718.54
382.83	720.88
383.02	763.01
383.22	793.44
383.41	737.27
383.61	704.50
383.80	685.78
384.00	688.12
384.19	779.40
384.39	702.16
384.58	809.83
384.78	777.06
384.97	753.65
385.17	770.04
385.36	753.65
385.56	842.59
385.75	812.17
385.95	763.01
386.14	894.08
386.34	791.10
386.53	821.53
386.72	887.06
386.92	866.00
387.11	784.08
387.31	882.38
387.50	863.66
387.70	840.25
387.89	954.94
388.09	877.70
388.28	908.13
388.48	884.72
388.67	894.08
388.86	994.73
389.06	908.13
389.25	854.30
389.45	947.92
389.64	940.90
389.84	1029.84
390.03	877.70
390.22	1043.88
390.42	990.05
390.61	973.66
390.81	1022.81
391.00	1034.52
391.19	1109.41
391.39	1064.94
391.58	1137.50
391.78	992.39
391.97	983.02
392.16	1008.77
392.36	1142.18
392.55	1102.39
392.75	1057.92
392.94	1151.54
393.13	1107.07
393.33	1130.48
393.52	1067.28
393.71	1231.12
393.91	1177.29
394.10	1151.54
394.29	1151.54
394.49	1224.10
394.68	1172.61
394.88	1153.88
395.07	1224.10
395.26	1287.29
395.46	1359.85
395.65	1287.29
395.84	1282.61
396.04	1277.93
396.23	1371.55
396.42	1369.21
396.62	1331.76
396.81	1373.89
397.00	1406.66
397.19	1240.48
397.39	1336.45
397.58	1437.09
397.77	1284.95
397.97	1460.49
398.16	1401.98
398.35	1481.56
398.55	1420.71
398.74	1544.75
398.93	1504.96
399.12	1437.09
399.32	1437.09
399.51	1502.62
399.70	1631.35
399.90	1493.26
400.09	1640.72
400.28	1476.88
400.47	1603.27
400.67	1638.38
400.86	1675.82
401.05	1633.69
401.24	1652.42
401.44	1652.42
401.63	1659.44
401.82	1671.14
402.01	1685.19
402.21	1685.19
402.40	1842.00
402.59	1746.04
402.78	1792.85
402.97	1799.87
403.17	1863.07
403.36	1914.56
403.55	1928.60
403.74	1865.41
403.93	1884.13
404.13	1933.28
404.32	1774.13
404.51	2054.99
404.70	1987.11
404.89	2001.16
405.09	2125.21
405.28	2076.06
405.47	2115.84
405.66	2101.80
405.85	2050.31
406.05	2076.06
406.24	2076.06
406.43	2146.27
406.62	2181.38
406.81	2305.43
407.00	2200.10
407.20	2012.86
407.39	2319.47
407.58	2270.32
407.77	2459.90
407.96	2382.67
408.15	2382.67
408.34	2328.83
408.54	2441.18
408.73	2279.68
408.92	2328.83
409.11	2363.94
409.30	2466.92
409.49	2523.10
409.68	2471.61
409.87	2502.03
410.07	2483.31
410.26	2579.27
410.45	2525.44
410.64	2527.78
410.83	2703.32
411.02	2726.72
411.21	2644.81
411.40	2689.28
411.59	2630.76
411.78	2850.77
411.98	2726.72
412.17	2904.60
412.36	2888.22
412.55	2724.38
412.74	2855.45
412.93	2946.73
413.12	3047.38
413.31	3112.91
413.50	3110.57
413.69	3084.83
413.88	3194.83
414.07	3206.53
414.26	3236.96
414.45	3194.83
414.64	3316.54
414.83	3379.73
415.02	3234.62
415.22	3386.76
415.41	3524.85
415.60	3452.29
415.79	3576.34
415.98	3478.04
416.17	3487.40
416.36	3595.06
416.55	3672.30
416.74	3597.40
416.93	3740.18
417.12	3606.77
417.31	3758.90
417.50	3728.47
417.69	3815.07
417.88	3861.88
418.07	3889.97
418.26	3805.71
418.45	3812.73
418.64	4086.58
418.83	4042.11
419.02	3948.48
419.21	4100.62
419.39	3969.55
419.58	3941.46
419.77	4112.32
419.96	4126.36
420.15	4140.41
420.34	4292.54
420.53	4161.47
420.72	4339.35
420.91	4313.61
421.10	4243.39
421.29	4470.42
421.48	4191.90
421.67	4276.16
421.86	4285.52
422.05	4372.12
422.24	4531.28
422.43	4322.97
422.61	4447.02
422.80	4521.92
422.99	4486.81
423.18	4447.02
423.37	4550.00
423.56	4425.95
423.75	4573.41
423.94	4465.74
424.13	4322.97
424.32	4411.91
424.50	4573.41
424.69	4697.46
424.88	4667.03
425.07	4557.02
425.26	4491.49
425.45	4573.41
425.64	4531.28
425.83	4496.17
426.01	4648.30
426.20	4681.07
426.39	4641.28
426.58	4718.52
426.77	4814.48
426.96	4683.41
427.15	4716.18
427.33	4868.31
427.52	4760.65
427.71	4727.88
427.90	4861.29
428.09	4990.02
428.28	4947.89
428.46	4868.31
428.65	5018.11
428.84	5039.17
429.03	5067.26
429.22	4947.89
429.40	5153.86
429.59	4959.60
429.78	4938.53
429.97	4926.83
430.16	5242.80
430.34	5188.97
430.53	5177.26
430.72	5259.18
430.91	5111.73
431.10	5104.71
431.28	5394.93
431.47	5460.47
431.66	5434.72
431.85	5310.68
432.03	5448.77
432.22	5565.79
432.41	5462.81
432.60	5383.23
432.79	5476.85
432.97	5472.17
433.16	5387.91
433.35	5376.21
433.54	5490.90
433.72	5806.87
433.91	5526.00
434.10	5741.33
434.28	5671.12
434.47	5769.42
434.66	5757.72
434.85	5713.25
435.03	5926.24
435.22	5701.54
435.41	5900.49
435.59	5977.73
435.78	5902.83
435.97	6094.76
436.16	5963.68
436.34	6087.73
436.53	6115.82
436.72	6106.46
436.90	5923.90
437.09	6148.59
437.28	6024.54
437.46	6108.80
437.65	6338.17
437.84	6363.92
438.02	6314.77
438.21	6122.84
438.40	6157.95
438.58	6616.69
438.77	6509.03
438.96	6438.81
439.14	6497.33
439.33	6761.81
439.52	6604.99
439.70	6637.76
439.89	6693.93
440.08	6785.21
440.26	6855.43
440.45	6846.07
440.63	6995.86
440.82	7045.01
441.01	6942.03
441.19	6932.67
441.38	7211.19
441.57	7346.94
441.75	7384.39
441.94	7339.92
442.12	7290.77
442.31	7445.24
442.50	7597.38
442.68	7414.82
442.87	7281.41
443.05	7494.40
443.24	7566.95
443.43	7618.44
443.61	7695.68
443.80	7878.24
443.98	7480.35
444.17	7171.40
444.35	7749.51
444.54	7955.48
444.73	7747.17
444.91	7709.72
445.10	7695.68
445.28	7712.07
445.47	7604.40
445.65	7707.38
445.84	7854.84
446.02	7735.47
446.21	7810.37
446.39	7742.49
446.58	7882.92
446.77	7927.39
446.95	7770.58
447.14	7957.82
447.32	7845.48
447.51	7805.69
447.69	8002.29
447.88	7922.71
448.06	7901.65
448.25	7889.95
448.43	7927.39
448.62	7892.29
448.80	7925.05
448.99	7969.52
449.17	8187.19
449.36	7932.08
449.54	8133.36
449.73	8271.45
449.91	8283.16
450.10	8308.90
450.28	8463.38
450.46	8620.19
450.65	8564.02
450.83	8496.14
451.02	8320.60
451.20	8439.97
451.39	8245.71
451.57	8372.10
451.76	8369.76
451.94	8557.00
452.13	8657.64
452.31	8650.62
452.49	8439.97
452.68	8690.41
452.86	8606.15
453.05	8905.74
453.23	8828.50
453.42	8702.11
453.60	8732.54
453.78	8683.39
453.97	8477.42
454.15	8994.68
454.34	8840.20
454.52	9210.01
454.70	8933.82
454.89	9041.49
455.07	8982.98
455.26	9149.15
455.44	9217.03
455.62	9156.18
455.81	9200.65
455.99	9411.29
456.17	9249.80
456.36	9460.45
456.54	9635.99
456.73	9540.02
456.91	9554.07
457.09	9399.59
457.28	10040.90
457.46	9675.77
457.64	9692.16
457.83	9661.73
458.01	9699.18
458.19	9853.66
458.38	9659.39
458.56	9902.81
458.74	10090.05
458.93	9816.21
459.11	9710.88
459.29	9968.34
459.48	9963.66
459.66	9841.95
459.84	10136.86
460.03	10120.48
460.21	10090.05
460.39	10354.53
460.57	9984.73
460.76	10356.87
460.94	10284.31
461.12	10354.53
461.31	10244.52
461.49	10298.36
461.67	10286.65
461.85	10555.82
462.04	10396.66
462.22	11035.63
462.40	10759.44
462.59	10766.46
462.77	10782.85
462.95	10787.53
463.13	10703.27
463.32	10857.75
463.50	10766.46
463.68	10839.02
463.86	10778.17
464.05	10801.57
464.23	10956.05
464.41	11014.56
464.59	10691.57
464.78	11059.03
464.96	10988.82
465.14	10899.87
465.32	11204.14
465.50	11337.56
465.69	11339.90
465.87	11281.38
466.05	11342.24
466.23	11225.21
466.41	11473.31
466.60	11852.47
466.78	11349.26
466.96	11445.22
467.14	11192.44
467.32	11625.44
467.51	11613.74
467.69	11197.12
467.87	11475.65
468.05	11611.40
468.23	11468.62
468.41	11520.12
468.60	11590.33
468.78	11875.88
468.96	11536.50
469.14	11449.90
469.32	11873.54
469.50	11536.50
469.69	11974.18
469.87	12212.92
470.05	11960.14
470.23	11969.50
470.41	12177.81
470.59	12290.15
470.77	11894.60
470.95	12245.68
471.14	12482.08
471.32	12088.87
471.50	12617.83
471.68	12599.10
471.86	12517.18
472.04	12451.65
472.22	12966.57
472.40	12954.87
472.58	12636.55
472.77	12858.90
472.95	13083.59
473.13	13610.22
473.31	13212.32
473.49	13291.90
473.67	13053.17
473.85	13467.44
474.03	13373.82
474.21	13329.35
474.39	13408.93
474.57	13755.33
474.75	13799.80
474.93	13879.38
475.12	13642.98
475.30	13729.58
475.48	13862.99
475.66	14115.77
475.84	14040.87
476.02	14132.15
476.20	14078.32
476.38	14520.68
476.56	14597.92
476.74	14349.82
476.92	14782.82
477.10	14787.50
477.28	14923.26
477.46	14986.45
477.64	15297.74
477.82	15241.57
478.00	15761.17
478.18	15637.12
478.36	15597.33
478.54	15758.83
478.72	15903.94
478.90	16016.29
479.08	16266.72
479.26	16341.62
479.44	16535.88
479.62	16542.91
479.80	16643.55
479.98	16762.92
480.16	16849.52
480.34	16791.00
480.52	17205.28
480.70	17071.87
480.88	17034.42
481.06	17167.83
481.24	17315.28
481.41	17717.86
481.59	17717.86
481.77	17752.96
481.95	18033.83
482.13	18331.08
482.31	18050.21
482.49	18595.56
482.67	18513.64
482.85	18867.06
483.03	19267.29
483.21	19122.18
483.39	19236.86
483.57	19250.91
483.74	19412.40
483.92	19576.24
484.10	19473.26
484.28	19932.00
484.46	20182.44
484.64	20711.40
484.82	20374.36
485.00	20709.06
485.18	21261.43
485.35	21245.04
485.53	20905.66
485.71	21263.77
485.89	21724.85
486.07	21502.50
486.25	21858.26
486.43	21891.03
486.61	21956.57
486.78	22001.04
486.96	22434.03
487.14	22871.72
487.32	22368.50
487.50	22778.09
487.68	22869.37
487.85	23154.92
488.03	23414.72
488.21	24009.22
488.39	23637.07
488.57	23924.96
488.75	24236.25
488.92	24582.65
489.10	24769.89
489.28	24470.30
489.46	25039.05
489.64	24737.12
489.81	25771.64
489.99	25362.04
490.17	25715.47
490.35	25736.53
490.53	26036.12
490.70	26118.04
490.88	26174.21
491.06	26396.56
491.24	26345.07
491.41	26649.34
491.59	27182.98
491.77	26764.03
491.95	27590.24
492.13	27599.60
492.30	27576.19
492.48	27793.86
492.66	27922.59
492.84	28151.96
493.01	28428.15
493.19	28283.03
493.37	28622.41
493.54	28556.88
493.72	28737.10
493.90	28947.75
494.08	29612.46
494.25	29436.92
494.43	29392.45
494.61	29883.96
494.79	29708.42
494.96	29788.00
495.14	30239.72
495.32	30469.09
495.49	30721.87
495.67	30845.92
495.85	30883.37
496.02	31241.47
496.20	31386.58
496.38	31278.92
496.55	31281.26
496.73	31803.20
496.91	31505.95
497.09	31908.52
497.26	31922.57
497.44	32285.35
497.62	32458.55
497.79	32893.89
497.97	32701.96
498.14	33022.62
498.32	33095.18
498.50	33350.29
498.67	33574.98
498.85	33610.09
499.03	33926.07
499.20	33617.11
499.38	34094.58
499.56	34202.25
499.73	34218.63
499.91	34349.70
500.08	34569.71
500.26	34096.92
500.44	34590.78
500.61	34459.71
500.79	34747.59
500.97	34955.90
501.14	35501.25
501.32	35342.09
501.49	35122.08
501.67	35126.76
501.84	35550.40
502.02	35896.80
502.20	35662.74
502.37	36472.57
502.55	36013.82
502.72	36259.58
502.90	36226.81
503.07	36254.90
503.25	36723.01
503.43	36156.60
503.60	37050.68
503.78	36954.72
503.95	36638.75
504.13	36711.30
504.30	37240.26
504.48	36917.27
504.65	37156.00
504.83	37907.32
505.01	37923.70
505.18	37579.64
505.36	38370.74
505.53	38045.41
505.71	37699.01
505.88	38258.40
506.06	38380.10
506.23	38700.76
506.41	38052.43
506.58	39122.05
506.76	38581.39
506.93	38895.02
507.11	38817.78
507.28	38679.69
507.46	38962.90
507.63	39292.91
507.81	39557.39
507.98	39192.27
508.16	39344.41
508.33	39608.89
508.50	40126.14
508.68	39868.69
508.85	40137.85
509.03	40219.77
509.20	40318.07
509.38	40678.51
509.55	40683.19
509.73	40741.71
509.90	40481.91
510.08	40947.67
510.25	40790.86
510.42	40863.41
510.60	41375.99
510.77	41624.09
510.95	41792.61
511.12	41223.86
511.30	41420.46
511.47	41425.14
511.64	42066.45
511.82	42192.84
511.99	41989.21
512.17	42443.27
512.34	42663.28
512.51	42333.27
512.69	42478.38
512.86	42712.44
513.04	42916.06
513.21	43161.82
513.38	43234.38
513.56	43026.07
513.73	42916.06
513.90	43381.83
514.08	43178.20
514.25	43288.21
514.43	43728.23
514.60	43405.23
514.77	44149.53
514.95	43957.60
515.12	43786.74
515.29	43936.54
515.47	44194.00
515.64	43957.60
515.81	44147.18
515.99	44208.04
516.16	44900.84
516.33	44409.32
516.51	44877.43
516.68	44788.49
516.85	44779.13
517.03	44687.85
517.20	44861.05
517.37	45064.67
517.54	45062.33
517.72	45095.10
517.89	45069.36
518.06	45394.69
518.24	45174.68
518.41	45151.27
518.58	45713.00
518.75	45544.48
518.93	45977.48
519.10	45668.53
519.27	46373.03
519.45	45787.90
519.62	45937.69
519.79	45944.72
519.96	45684.92
520.14	46478.36
520.31	46239.62
520.48	46525.17
520.65	46721.77
520.83	46885.61
521.00	46621.13
521.17	46883.27
521.34	46607.09
521.52	46993.28
521.69	46906.68
521.86	47091.58
522.03	47782.04
522.20	47622.88
522.38	46997.96
522.55	47154.77
522.72	47533.94
522.89	47569.05
523.07	47709.48
523.24	47910.77
523.41	48095.67
523.58	48098.01
523.75	48418.66
523.92	47959.92
524.10	47952.90
524.27	48355.47
524.44	48116.73
524.61	48421.00
524.78	48343.77
524.96	48631.65
525.13	48102.69
525.30	48767.40
525.47	48861.02
525.64	48896.13
525.81	48898.47
525.98	49375.94
526.16	48910.17
526.33	49111.46
526.50	49408.71
526.67	48896.13
526.84	49303.38
527.01	49319.77
527.18	49256.57
527.36	49495.31
527.53	49572.55
527.70	49804.26
527.87	49914.26
528.04	49389.98
528.21	49467.22
528.38	49572.55
528.55	49633.40
528.72	49911.92
528.89	49834.69
529.07	49963.42
529.24	49792.56
529.41	50153.00
529.58	49680.21
529.75	49942.35
529.92	50171.72
530.09	49944.69
530.26	50375.35
530.43	50576.64
530.60	50113.21
530.77	50342.58
530.94	50478.33
531.11	50536.85
531.28	50604.72
531.46	50443.23
531.63	50796.65
531.80	50962.82
531.97	50899.63
532.14	51133.68
532.31	50770.90
532.48	51210.92
532.65	51086.87
532.82	50747.50
532.99	50951.12
533.16	50724.09
533.33	51421.57
533.50	51421.57
533.67	51494.13
533.84	51241.35
534.01	51374.76
534.18	51304.54
534.35	51337.31
534.52	51178.15
534.69	51648.60
534.86	51784.35
535.03	51786.69
535.20	51889.68
535.37	51800.74
535.54	51943.51
535.71	51650.94
535.88	51723.50
536.05	52023.09
536.22	52446.72
536.38	52123.73
536.55	52229.05
536.72	52289.91
536.89	52025.43
537.06	51885.00
537.23	52186.92
537.40	51980.96
537.57	52123.73
537.74	52168.20
537.91	52435.02
538.08	52287.57
538.25	52126.07
538.42	52409.28
538.59	52715.89
538.75	52289.91
538.92	52687.80
539.09	52624.60
539.26	52477.15
539.43	52762.70
539.60	52678.44
539.77	52699.50
539.94	53176.97
540.11	53003.77
540.28	52877.38
540.44	52879.72
540.61	53024.84
540.78	52940.58
540.95	52889.09
541.12	52636.31
541.29	53031.86
541.46	52643.33
541.62	53139.52
541.79	53202.72
541.96	52882.06
542.13	52875.04
542.30	53303.36
542.47	53698.91
542.63	53265.91
542.80	53668.48
542.97	53514.01
543.14	53642.74
543.31	53818.28
543.48	53642.74
543.64	53605.29
543.81	53937.65
543.98	54061.69
544.15	54176.38
544.32	54026.59
544.48	54176.38
544.65	53811.26
544.82	54099.14
544.99	53755.08
545.16	54054.67
545.32	53963.39
545.49	54251.28
545.66	54401.07
545.83	54183.40
546.00	54202.13
546.16	54000.84
546.33	54333.20
546.50	53764.45
546.67	54307.45
546.83	54115.53
547.00	54370.64
547.17	54288.73
547.34	54384.69
547.50	54564.91
547.67	54649.17
547.84	54344.90
548.00	54468.95
548.17	54754.49
548.34	54564.91
548.51	54555.55
548.67	54721.72
548.84	54775.56
549.01	54635.13
549.18	54749.81
549.34	54672.57
549.51	54733.43
549.68	54681.94
549.84	54679.60
550.01	54857.48
550.18	54906.63
550.34	54972.16
550.51	54901.95
550.68	54986.21
550.84	54805.98
551.01	54873.86
551.18	54759.17
551.34	54878.54
551.51	55044.72
551.68	55030.68
551.84	55220.26
552.01	55058.76
552.18	55519.85
552.34	55185.15
552.51	55096.21
552.68	55065.78
552.84	55028.34
553.01	55290.48
553.18	55313.88
553.34	55353.67
553.51	55402.82
553.67	55416.86
553.84	55451.97
554.01	55463.67
554.17	55456.65
554.34	55484.74
554.51	55393.46
554.67	55501.12
554.84	55487.08
555.00	55154.72
555.17	55683.69
555.33	55496.44
555.50	55451.97
555.67	55515.17
555.83	55576.02
556.00	55835.82
556.16	55774.97
556.33	55550.27
556.50	55613.47
556.66	56027.74
556.83	55667.30
556.99	55889.65
557.16	55957.53
557.32	55859.23
557.49	55819.44
557.65	55681.34
557.82	55660.28
557.98	56016.04
558.15	55686.03
558.32	56034.77
558.48	55938.80
558.65	56079.24
558.81	55903.70
558.98	56074.55
559.14	55994.98
559.31	56039.45
559.47	55957.53
559.64	56151.79
559.80	56093.28
559.97	56303.93
560.13	56058.17
560.30	56123.71
560.46	56065.19
560.63	55875.61
560.79	56320.31
560.96	56278.18
561.12	56182.22
561.29	56011.36
561.45	56072.21
561.61	56135.41
561.78	56072.21
561.94	56243.07
562.11	56069.87
562.27	56350.74
562.44	56130.73
562.60	56210.31
562.77	56280.52
562.93	56051.15
563.10	56449.04
563.26	56282.86
563.42	56732.25
563.59	56376.48
563.75	56392.87
563.92	56453.72
564.08	56355.42
564.24	56467.76
564.41	56205.62
564.57	56266.48
564.74	56247.75
564.90	56449.04
565.07	56137.75
565.23	56376.48
565.39	56435.00
565.56	56371.80
565.72	56353.08
565.88	56355.42
566.05	56170.52
566.21	56463.08
566.38	56383.51
566.54	56556.70
566.70	56587.13
566.87	56746.29
567.03	56163.50
567.19	56692.46
567.36	56526.28
567.52	56460.74
567.68	56774.37
567.85	56280.52
568.01	56601.18
568.17	56528.62
568.34	56910.13
568.50	56718.20
568.66	56804.80
568.83	56774.37
568.99	56631.60
569.15	56519.26
569.32	56626.92
569.48	56409.25
569.64	56718.20
569.81	56561.39
569.97	56395.21
570.13	56743.95
570.30	56662.03
570.46	56830.55
570.62	56715.86
570.78	56399.89
570.95	56322.65
571.11	56678.41
571.27	56472.45
571.43	56498.19
571.60	56647.99
571.76	56842.25
571.92	56720.54
572.09	56935.87
572.25	56779.06
572.41	56837.57
572.57	56725.22
572.74	56708.84
572.90	56516.92
573.06	56706.50
573.22	56479.47
573.38	56612.88
573.55	56722.88
573.71	56853.95
573.87	56999.07
574.03	56748.63
574.20	56966.30
574.36	56898.42
574.52	56722.88
574.68	56636.28
574.84	56694.80
575.01	56952.26
575.17	56884.38
575.33	56765.01
575.49	56842.25
575.65	56989.70
575.82	56882.04
575.98	56753.31
576.14	56919.49
576.30	56650.33
576.46	56645.65
576.62	56858.63
576.79	56643.30
576.95	56411.59
577.11	56907.79
577.27	56851.61
577.43	57017.79
577.59	56931.19
577.75	56701.82
577.92	56706.50
578.08	56545.00
578.24	56662.03
578.40	56832.89
578.56	56577.77
578.72	56849.27
578.88	56926.51
579.04	57073.96
579.21	56741.61
579.37	56856.29
579.53	56786.08
579.69	56816.50
579.85	56910.13
580.01	56839.91
580.17	56891.40
580.33	56832.89
580.49	56938.21
580.65	56879.70
580.82	56942.89
580.98	57043.54
581.14	56821.19
581.30	56980.34
581.46	56877.36
581.62	56884.38
581.78	56933.53
581.94	56898.42
582.10	56736.93
582.26	56882.04
582.42	56720.54
582.58	56982.68
582.74	56982.68
582.90	56968.64
583.06	57024.81
583.22	56959.28
583.38	57001.41
583.54	56877.36
583.70	56647.99
583.86	56776.72
584.02	56856.29
584.18	56856.29
584.34	57132.48
584.50	57099.71
584.66	57029.49
584.82	56746.29
584.98	57088.01
585.14	56863.32
585.30	56755.65
585.46	57052.90
585.62	56575.43
585.78	56907.79
585.94	56821.19
586.10	56849.27
586.26	57109.07
586.42	56889.06
586.58	56999.07
586.74	56933.53
586.90	56884.38
587.06	56865.66
587.22	56743.95
587.38	56755.65
587.54	56963.96
587.70	57113.75
587.86	57146.52
588.02	57073.96
588.18	57116.09
588.34	57034.17
588.49	57059.92
588.65	56968.64
588.81	57050.56
588.97	56982.68
589.13	57008.43
589.29	57008.43
589.45	56989.70
589.61	57352.49
589.77	57181.63
589.93	57310.36
590.08	57223.76
590.24	57247.16
590.40	57118.43
590.56	57169.93
590.72	57251.84
590.88	57109.07
591.04	57017.79
591.20	57345.47
591.35	57193.33
591.51	57499.94
591.67	57134.82
591.83	57481.22
591.99	57144.18
592.15	57083.33
592.31	57001.41
592.46	57116.09
592.62	56938.21
592.78	57214.40
592.94	57396.96
593.10	57162.90
593.26	57476.54
593.41	57233.12
593.57	57324.40
593.73	57247.16
593.89	57244.82
594.05	57198.01
594.20	57221.42
594.36	57195.67
594.52	56952.26
594.68	57055.24
594.84	57169.93
594.99	57279.93
595.15	57275.25
595.31	57457.81
595.47	57315.04
595.62	57258.87
595.78	57411.00
595.94	56935.87
596.10	57301.00
596.25	56905.44
596.41	56954.60
596.57	56952.26
596.73	57209.71
596.88	57198.01
597.04	57261.21
597.20	57399.30
597.36	57261.21
597.51	57495.26
597.67	57277.59
597.83	57305.68
597.99	57523.35
598.14	57256.53
598.30	57317.38
598.46	57198.01
598.61	57190.99
598.77	57132.48
598.93	57233.12
599.09	57242.48
599.24	57546.75
599.40	57343.12
599.56	57361.85
599.71	57322.06
599.87	57233.12
600.03	57411.00
600.18	57195.67
600.34	57219.08
600.50	57272.91
600.65	57275.25
600.81	57333.76
600.97	57504.62
601.12	57513.98
601.28	57265.89
601.44	57172.27
601.59	57516.32
601.75	57396.96
601.91	57256.53
602.06	57001.41
602.22	57354.83
602.37	57183.97
602.53	57347.81
602.69	57511.64
602.84	57279.93
603.00	57312.70
603.16	57457.81
603.31	57389.94
603.47	57502.28
603.62	57118.43
603.78	57317.38
603.94	57226.10
604.09	57212.06
604.25	57106.73
604.40	57120.77
604.56	57202.69
604.71	57415.68
604.87	57265.89
605.03	57186.31
605.18	57373.55
605.34	57319.72
605.49	57043.54
605.65	57036.51
605.80	56963.96
605.96	57048.22
606.12	57099.71
606.27	57219.08
606.43	57202.69
606.58	57207.37
606.74	57364.19
606.89	56973.32
607.05	57127.80
607.20	57340.78
607.36	56900.76
607.51	57134.82
607.67	56879.70
607.82	56891.40
607.98	56933.53
608.13	57059.92
608.29	57050.56
608.44	57127.80
608.60	57059.92
608.75	57293.97
608.91	57092.69
609.06	56949.92
609.22	57221.42
609.37	56938.21
609.53	56863.32
609.68	56978.00
609.84	56774.37
609.99	56919.49
610.15	56690.12
610.30	57228.44
610.46	56814.16
610.61	56893.74
610.76	56741.61
610.92	56727.56
611.07	56910.13
611.23	56779.06
611.38	56912.47
611.54	56830.55
611.69	56690.12
611.84	56779.06
612.00	56432.66
612.15	56427.98
612.31	56807.14
612.46	56760.33
612.62	56718.20
612.77	56788.42
612.92	57137.16
613.08	56573.09
613.23	56655.01
613.39	56605.86
613.54	56477.13
613.69	56587.13
613.85	56474.79
614.00	56463.08
614.15	56727.56
614.31	56832.89
614.46	56659.69
614.62	56537.98
614.77	56828.21
614.92	56746.29
615.08	56746.29
615.23	56671.39
615.38	56680.75
615.54	56301.59
615.69	56460.74
615.84	56336.69
616.00	56685.43
616.15	56552.02
616.30	56552.02
616.46	56310.95
616.61	56273.50
616.76	56521.60
616.92	56219.67
617.07	56545.00
617.22	55955.19
617.37	56285.20
617.53	56392.87
617.68	56231.37
617.83	56135.41
617.99	56226.69
618.14	56123.71
618.29	56479.47
618.45	56205.62
618.60	56271.16
618.75	56229.03
618.90	56240.73
619.06	56189.24
619.21	56147.11
619.36	56172.86
619.51	56048.81
619.67	55732.84
619.82	55838.16
619.97	55999.66
620.12	55810.07
620.28	55934.12
620.43	55936.46
620.58	56013.70
620.73	56006.68
620.89	56041.79
621.04	56210.31
621.19	55868.59
621.34	55814.76
621.49	55774.97
621.65	55742.20
621.80	55849.86
621.95	55866.25
622.10	55674.32
622.25	55604.11
622.41	55444.95
622.56	55660.28
622.71	55854.54
622.86	55718.79
623.01	55913.06
623.16	55845.18
623.32	55484.74
623.47	55496.44
623.62	55611.13
623.77	55615.81
623.92	55576.02
624.07	55388.78
624.23	55388.78
624.38	55505.80
624.53	55313.88
624.68	55627.51
624.83	55597.09
624.98	55545.59
625.13	55391.12
625.29	55662.62
625.44	55477.72
625.59	55035.36
625.74	55136.00
625.89	55325.58
626.04	55264.73
626.19	55217.92
626.34	55267.07
626.49	55334.95
626.65	55178.13
626.80	55086.85
626.95	55138.34
627.10	55152.38
627.25	55126.64
627.40	55042.38
627.55	55035.36
627.70	54892.58
627.85	54438.52
628.00	54649.17
628.15	55040.04
628.30	54747.47
628.45	54915.99
628.60	54850.45
628.76	55157.06
628.91	55107.91
629.06	55079.83
629.21	54827.05
629.36	54787.26
629.51	54733.43
629.66	55182.81
629.81	54468.95
629.96	54644.49
630.11	54681.94
630.26	54714.70
630.41	54703.00
630.56	54494.69
630.71	54433.84
630.86	54511.08
631.01	54621.08
631.16	54923.01
631.31	54731.09
631.46	54281.70
631.61	54754.49
631.76	54443.20
631.91	54480.65
632.06	54443.20
632.21	54363.62
632.36	54831.73
632.51	54436.18
632.66	54305.11
632.81	54581.29
632.96	54539.16
633.10	54475.97
633.25	54454.90
633.40	54452.56
633.55	54497.03
633.70	54255.96
633.85	54089.78
634.00	53993.82
634.15	54075.74
634.30	53954.03
634.45	54253.62
634.60	54293.41
634.75	54167.02
634.90	54017.22
635.05	54370.64
635.19	54152.97
635.34	54286.39
635.49	54038.29
635.64	54141.27
635.79	54007.86
635.94	53921.26
636.09	54106.16
636.24	53970.41
636.39	53787.85
636.53	53961.05
636.68	53787.85
636.83	53806.58
636.98	54012.54
637.13	53551.46
637.28	54094.46
637.43	53834.66
637.57	54003.18
637.72	53427.41
637.87	53968.07
638.02	53584.22
638.17	53928.28
638.32	53574.86
638.46	53436.77
638.61	53464.86
638.76	53303.36
638.91	53352.51
639.06	53212.08
639.20	53516.35
639.35	53712.95
639.50	53146.54
639.65	53694.23
639.80	53595.93
639.94	53654.44
640.09	53385.28
640.24	53425.07
640.39	53340.81
640.54	53371.24
640.68	53272.93
640.83	52931.22
640.98	52683.12
641.13	52870.36
641.27	52931.22
641.42	52924.19
641.57	53045.90
641.72	53577.20
641.86	52919.51
642.01	53050.58
642.16	52914.83
642.31	52741.63
642.45	52935.90
642.60	52996.75
642.75	52657.37
642.90	52601.20
643.04	52601.20
643.19	52940.58
643.34	52849.30
643.48	52853.98
643.63	52818.87
643.78	52875.04
643.93	53188.67
644.07	52994.41
644.22	52835.25
644.37	52755.68
644.51	52774.40
644.66	52954.62
644.81	52666.73
644.95	52985.05
645.10	52694.82
645.25	52793.12
645.39	52303.95
645.54	52369.49
645.69	52809.51
645.83	52444.38
645.98	52388.21
646.13	52645.67
646.27	52547.37
646.42	52521.62
646.57	52320.34
646.71	52488.85
646.86	52362.46
647.00	52397.57
647.15	52229.05
647.30	52140.11
647.44	52390.55
647.59	52353.10
647.74	52095.64
647.88	52165.86
648.03	52596.52
648.17	52353.10
648.32	52257.14
648.47	52285.23
648.61	52114.37
648.76	52294.59
648.90	52083.94
649.05	52105.01
649.20	52226.71
649.34	51765.63
649.49	51641.58
649.63	51917.76
649.78	52079.26
649.92	51646.26
650.07	52058.20
650.21	51735.20
650.36	51779.67
650.51	51765.63
650.65	51999.68
650.80	51962.23
650.94	51704.77
651.09	51856.91
651.23	51494.13
651.38	51655.62
651.52	51751.59
651.67	51576.04
651.81	51524.55
651.96	51793.71
652.10	51611.15
652.25	51349.01
652.39	51646.26
652.54	51774.99
652.68	51599.45
652.83	51700.09
652.97	51901.38
653.12	51442.63
653.26	51524.55
653.41	51386.46
653.55	51009.64
653.70	51042.40
653.84	51550.30
653.99	51423.91
654.13	51503.49
654.27	51091.55
654.42	51285.82
654.56	51133.68
654.71	51430.93
654.85	51285.82
655.00	51281.14
655.14	51297.52
655.29	50852.82
655.43	51332.63
655.57	51100.92
655.72	51023.68
655.86	50761.54
656.01	50651.53
656.15	51070.49
656.30	50836.44
656.44	50773.24
656.58	50611.74
656.73	50885.59
656.87	50534.51
657.01	50817.71
657.16	50635.15
657.30	51033.04
657.45	50686.64
657.59	50794.31
657.73	50583.66
657.88	50784.94
658.02	50274.71
658.16	50412.80
658.31	50267.69
658.45	50480.67
658.60	50216.19
658.74	50333.22
658.88	50291.09
659.03	50099.17
659.17	50057.04
659.31	50167.04
659.46	50197.47
659.60	50358.97
659.74	50401.10
659.89	50227.90
660.03	50108.53
660.17	50321.52
660.32	50047.68
660.46	49570.21
660.60	49897.88
660.74	49865.11
660.89	49834.69
661.03	49661.49
661.17	49427.43
661.32	49062.31
661.46	49467.22
661.60	49350.20
661.74	49631.06
661.89	49598.29
662.03	49586.59
662.17	49329.13
662.31	49483.61
662.46	49427.43
662.60	49024.86
662.74	48889.11
662.88	49022.52
663.03	49045.93
663.17	48669.10
663.31	48296.95
663.45	48652.72
663.60	48666.76
663.74	48570.80
663.88	48425.68
664.02	48779.10
664.17	48954.64
664.31	48760.38
664.45	48437.39
664.59	48582.50
664.73	48786.13
664.88	48491.22
665.02	47789.06
665.16	48200.99
665.30	47817.14
665.44	47920.13
665.59	47445.00
665.73	48025.45
665.87	47976.30
666.01	47739.91
666.15	48065.24
666.29	47807.78
666.44	48060.56
666.58	47859.27
666.72	47812.46
666.86	47398.19
667.00	47566.71
667.14	47461.38
667.28	47426.28
667.43	47526.92
667.57	47533.94
667.71	47079.88
667.85	46983.91
667.99	46974.55
668.13	47070.51
668.27	46681.98
668.41	46831.78
668.56	46588.36
668.70	46871.57
668.84	46382.40
668.98	46883.27
669.12	46714.75
669.26	46522.83
669.40	46611.77
669.54	46426.87
669.68	46726.46
669.82	46031.32
669.96	46234.94
670.10	45495.33
670.25	46113.23
670.39	45982.16
670.53	45713.00
670.67	45350.22
670.81	45830.03
670.95	45804.28
671.09	45425.12
671.23	45755.13
671.37	45766.84
671.51	46031.32
671.65	45848.75
671.79	45172.34
671.93	45717.68
672.07	45443.84
672.21	44865.73
672.35	45102.12
672.49	44561.46
672.63	45254.26
672.77	44793.17
672.91	44992.12
673.05	44446.77
673.19	44854.03
673.33	44673.81
673.47	44402.30
673.61	44587.21
673.75	44678.49
673.89	44516.99
674.03	44151.87
674.17	44076.97
674.31	44390.60
674.45	44044.20
674.59	43552.69
674.73	43700.14
674.87	43622.90
675.01	42995.64
675.15	43543.33
675.29	43239.06
675.43	43709.50
675.56	43136.07
675.70	43271.82
675.84	43475.45
675.98	41963.46
676.12	43552.69
676.26	42862.23
676.40	42932.45
676.54	43051.81
676.68	43061.18
676.82	41457.91
676.96	41827.71
677.10	41610.04
677.23	41640.47
677.37	41383.01
677.51	41680.26
677.65	41448.55
677.79	40758.09
677.93	41209.81
678.07	41130.23
678.21	40931.29
678.34	41242.58
678.48	40783.83
678.62	41134.92
678.76	40996.82
678.90	40341.47
679.04	40699.58
679.18	40350.84
679.31	39929.54
679.45	39812.51
679.59	40109.76
679.73	40048.91
679.87	39838.26
680.00	39651.02
680.14	39168.87
680.28	39192.27
680.42	39236.74
680.56	38859.91
680.70	38925.45
680.83	39643.99
680.97	38913.75
681.11	39456.75
681.25	38815.44
681.39	38885.66
681.52	38911.41
681.66	38785.02
681.80	38597.77
681.94	38132.01
682.07	38136.69
682.21	37722.41
682.35	37860.51
682.49	37563.26
682.62	37546.87
682.76	37167.71
682.90	37413.46
683.04	37390.06
683.17	37448.57
683.31	37186.43
683.45	37486.02
683.59	37057.70
683.72	37158.34
683.86	36453.84
684.00	36774.50
684.13	36278.30
684.27	35873.39
684.41	36002.12
684.55	35873.39
684.68	35831.26
684.82	35828.92
684.96	35264.85
685.09	35370.18
685.23	35227.40
685.37	35189.95
685.50	35236.77
685.64	35644.02
685.78	35103.35
685.91	35232.08
686.05	34890.37
686.19	34396.51
686.32	34274.80
686.46	34366.09
686.60	34223.31
686.73	34089.90
686.87	33832.44
687.01	33858.19
687.14	33888.62
687.28	33706.05
687.42	33226.24
687.55	33055.39
687.69	33570.30
687.82	33284.76
687.96	33188.80
688.10	33060.07
688.23	33502.43
688.37	33139.65
688.50	33034.32
688.64	32744.09
688.78	32547.49
688.91	32154.28
689.05	32554.51
689.18	32051.30
689.32	31803.20
689.46	31936.61
689.59	31880.44
689.73	31990.44
689.86	31447.44
690.00	31311.69
690.13	31648.72
690.27	31311.69
690.41	31400.63
690.54	30869.33
690.68	31175.94
690.81	31065.93
690.95	30946.56
691.08	30925.50
691.22	30962.95
691.35	30403.56
691.49	30347.39
691.62	30216.32
691.76	29881.62
691.89	29956.52
692.03	29462.66
692.16	29736.51
692.30	29546.92
692.43	29619.48
692.57	29708.42
692.70	29149.03
692.84	29340.96
692.97	29160.73
693.11	29535.22
693.24	28650.50
693.38	29205.20
693.51	29277.76
693.65	28819.02
693.78	29006.26
693.92	28685.61
694.05	28704.33
694.19	28149.62
694.32	27817.27
694.45	28027.92
694.59	28114.52
694.72	27789.18
694.86	27644.07
694.99	27208.73
695.13	27091.70
695.26	27075.32
695.39	27220.43
695.53	27681.52
695.66	27283.62
695.80	27014.46
695.93	26457.42
696.07	27054.25
696.20	26960.63
696.33	26710.19
696.47	26508.91
696.60	26405.92
696.73	26153.15
696.87	25961.22
697.00	26054.84
697.14	25404.17
697.27	25188.85
697.40	25411.20
697.54	25518.86
697.67	25172.46
697.80	24994.58
697.94	24987.56
698.07	25097.56
698.21	24723.08
698.34	24657.54
698.47	24891.60
698.61	24659.88
698.74	24582.65
698.87	24737.12
699.01	24643.50
699.14	24414.13
699.27	24116.88
699.40	24416.47
699.54	24121.56
699.67	23709.63
699.80	23555.15
699.94	23386.63
700.07	23328.12
700.20	23323.44
700.34	23061.30
700.47	23126.83
700.60	22995.76
700.73	22714.90
700.87	23129.17
701.00	22822.56
701.13	22497.23
701.26	22869.37
701.40	22766.39
701.53	22920.87
701.66	22539.36
701.79	22094.66
701.93	22160.19
702.06	22003.38
702.19	22054.87
702.32	21603.14
702.46	21671.02
702.59	21507.18
702.72	21399.52
702.85	21474.42
702.99	21195.89
703.12	21032.05
703.25	21039.08
703.38	20910.35
703.51	21125.68
703.65	20840.13
703.78	21142.06
703.91	21113.97
704.04	20968.86
704.17	20723.10
704.31	20259.68
704.44	20484.37
704.57	20446.92
704.70	20053.71
704.83	19676.88
704.96	19782.21
705.10	19562.20
705.23	19796.25
>>>>>End Processed Spectral Data<<<<<
