SpectraSuite Data File
++++++++++++++++++++++++++++++++++++
Date: Fri Oct 18 13:55:56 GMT-05:00 2013
User: bianchi
Dark Spectrum Present: No
Reference Spectrum Present: No
Number of Sampled Component Spectra: 1
Spectrometers: USB2+H05261
Integration Time (usec): 100000 (USB2+H05261)
Spectra Averaged: 1 (USB2+H05261)
Boxcar Smoothing: 0 (USB2+H05261)
Correct for Electrical Dark: No (USB2+H05261)
Strobe/Lamp Enabled: No (USB2+H05261)
Correct for Detector Non-linearity: No (USB2+H05261)
Correct for Stray Light: No (USB2+H05261)
Number of Pixels in Processed Spectrum: 2048
>>>>>Begin Processed Spectral Data<<<<<
365.73	0.00
365.92	0.00
366.12	0.00
366.32	0.00
366.52	0.00
366.72	0.00
366.91	0.00
367.11	0.00
367.31	0.00
367.51	0.00
367.70	0.00
367.90	0.00
368.10	0.00
368.30	0.00
368.49	0.00
368.69	0.00
368.89	0.00
369.09	0.00
369.28	0.00
369.48	0.00
369.68	0.00
369.87	0.00
370.07	0.00
370.27	0.00
370.47	0.00
370.66	161.50
370.86	243.42
371.06	388.53
371.25	367.46
371.45	301.93
371.65	259.80
371.84	222.35
372.04	266.82
372.24	376.83
372.44	388.53
372.63	315.97
372.83	341.72
373.03	379.17
373.22	322.99
373.42	376.83
373.62	379.17
373.81	423.64
374.01	461.09
374.21	477.47
374.40	418.96
374.60	458.74
374.79	395.55
374.99	407.25
375.19	463.43
375.38	468.11
375.58	411.93
375.78	517.26
375.97	444.70
376.17	503.22
376.37	390.87
376.56	451.72
376.76	440.02
376.95	517.26
377.15	554.71
377.35	503.22
377.54	526.62
377.74	365.12
377.93	498.53
378.13	535.98
378.33	557.05
378.52	517.26
378.72	500.87
378.91	535.98
379.11	465.77
379.31	477.47
379.50	440.02
379.70	580.45
379.89	610.88
380.09	526.62
380.28	550.03
380.48	599.18
380.68	554.71
380.87	489.17
381.07	629.60
381.26	634.29
381.46	571.09
381.65	578.11
381.85	653.01
382.04	589.82
382.24	592.16
382.43	538.32
382.63	552.37
382.83	596.84
383.02	636.63
383.22	624.92
383.41	589.82
383.61	610.88
383.80	643.65
384.00	631.94
384.19	631.94
384.39	716.20
384.58	603.86
384.78	674.07
384.97	671.73
385.17	660.03
385.36	660.03
385.56	634.29
385.75	674.07
385.95	706.84
386.14	751.31
386.34	716.20
386.53	777.06
386.72	718.54
386.92	821.53
387.11	690.46
387.31	688.12
387.50	763.01
387.70	741.95
387.89	791.10
388.09	753.65
388.28	690.46
388.48	746.63
388.67	758.33
388.86	884.72
389.06	793.44
389.25	786.42
389.45	802.80
389.64	795.78
389.84	875.36
390.03	821.53
390.22	819.19
390.42	875.36
390.61	844.93
390.81	884.72
391.00	840.25
391.19	919.83
391.39	887.06
391.58	976.00
391.78	826.21
391.97	898.77
392.16	940.90
392.36	1008.77
392.55	938.55
392.75	919.83
392.94	880.04
393.13	929.19
393.33	966.64
393.52	999.41
393.71	1027.50
393.91	1008.77
394.10	1011.11
394.29	1004.09
394.49	959.62
394.68	1025.15
394.88	1039.20
395.07	1100.05
395.26	990.05
395.46	1004.09
395.65	1153.88
395.84	1062.60
396.04	1188.99
396.23	1125.80
396.42	1219.42
396.62	1128.14
396.81	1111.75
397.00	1158.57
397.19	1170.27
397.39	1135.16
397.58	1273.25
397.77	1210.06
397.97	1256.87
398.16	1268.57
398.35	1245.16
398.55	1266.23
398.74	1270.91
398.93	1383.26
399.12	1249.85
399.32	1268.57
399.51	1390.28
399.70	1366.87
399.90	1266.23
400.09	1259.21
400.28	1380.92
400.47	1378.58
400.67	1483.90
400.86	1479.22
401.05	1409.00
401.24	1416.02
401.44	1502.62
401.63	1502.62
401.82	1455.81
402.01	1371.55
402.21	1469.86
402.40	1479.22
402.59	1596.25
402.78	1495.60
402.97	1713.27
403.17	1614.97
403.36	1661.78
403.55	1664.12
403.74	1540.07
403.93	1720.29
404.13	1675.82
404.32	1732.00
404.51	1680.50
404.70	1724.97
404.89	1703.91
405.09	1764.76
405.28	1755.40
405.47	1844.34
405.66	1872.43
405.85	1816.26
406.05	1724.97
406.24	1881.79
406.43	1823.28
406.62	1867.75
406.81	1827.96
407.00	1893.49
407.20	1764.76
407.39	2059.67
407.58	2003.50
407.77	1994.14
407.96	2036.27
408.15	1940.30
408.34	2036.27
408.54	2148.61
408.73	2092.44
408.92	2101.80
409.11	2172.02
409.30	2162.66
409.49	2172.02
409.68	2186.06
409.87	2162.66
410.07	2106.48
410.26	2267.98
410.45	2246.91
410.64	2434.16
410.83	2338.20
411.02	2275.00
411.21	2406.07
411.40	2366.28
411.59	2410.75
411.78	2380.32
411.98	2471.61
412.17	2492.67
412.36	2614.38
412.55	2476.29
412.74	2602.68
412.93	2635.44
413.12	2612.04
413.31	2740.77
413.50	2771.19
413.69	2710.34
413.88	2853.11
414.07	2700.98
414.26	2782.90
414.45	2836.73
414.64	2729.06
414.83	2960.78
415.02	2885.88
415.22	2911.63
415.41	2991.20
415.60	3115.25
415.79	3014.61
415.98	3171.43
416.17	3115.25
416.36	3234.62
416.55	3162.06
416.74	3178.45
416.93	3082.49
417.12	3433.57
417.31	3243.98
417.50	3349.31
417.69	3473.36
417.88	3419.52
418.07	3487.40
418.26	3485.06
418.45	3440.59
418.64	3597.40
418.83	3538.89
419.02	3527.19
419.21	3550.59
419.39	3590.38
419.58	3620.81
419.77	3702.73
419.96	3763.58
420.15	3756.56
420.34	3679.32
420.53	3742.52
420.72	3772.94
420.91	3875.93
421.10	3878.27
421.29	3847.84
421.48	3789.33
421.67	3988.27
421.86	3990.61
422.05	4004.66
422.24	3995.29
422.43	4016.36
422.61	4105.30
422.80	4109.98
422.99	4067.85
423.18	4105.30
423.37	4088.92
423.56	3948.48
423.75	3985.93
423.94	3936.78
424.13	3859.54
424.32	3812.73
424.50	4025.72
424.69	4131.05
424.88	4128.70
425.07	4086.58
425.26	4035.08
425.45	3999.98
425.64	4063.17
425.83	4077.21
426.01	4252.75
426.20	4187.22
426.39	4081.89
426.58	4121.68
426.77	4081.89
426.96	4187.22
427.15	4257.43
427.33	4308.93
427.52	4262.12
427.71	4315.95
427.90	4400.21
428.09	4315.95
428.28	4325.31
428.46	4386.16
428.65	4397.87
428.84	4664.69
429.03	4690.43
429.22	4308.93
429.40	4423.61
429.59	4603.83
429.78	4390.84
429.97	4184.88
430.16	4386.16
430.34	4482.13
430.53	4664.69
430.72	4814.48
430.91	4732.56
431.10	4634.26
431.28	4809.80
431.47	4938.53
431.66	4786.40
431.85	4800.44
432.03	4858.95
432.22	5032.15
432.41	4917.47
432.60	4994.70
432.79	4891.72
432.97	4772.35
433.16	4980.66
433.35	4924.49
433.54	4938.53
433.72	5071.94
433.91	4954.91
434.10	5046.20
434.28	5050.88
434.47	5217.05
434.66	5118.75
434.85	5336.42
435.03	5282.59
435.22	5294.29
435.41	5355.15
435.59	5160.88
435.78	5245.14
435.97	5446.43
436.16	5263.86
436.34	5341.10
436.53	5296.63
436.72	5561.11
436.90	5277.91
437.09	5636.01
437.28	5444.09
437.46	5434.72
437.65	5607.92
437.84	5568.13
438.02	5673.46
438.21	5673.46
438.40	5579.84
438.58	5891.13
438.77	5959.00
438.96	5825.59
439.14	5729.63
439.33	5844.32
439.52	5987.09
439.70	6031.56
439.89	5989.43
440.08	5987.09
440.26	6200.08
440.45	6157.95
440.63	6282.00
440.82	6216.46
441.01	6228.17
441.19	6286.68
441.38	6431.79
441.57	6441.15
441.75	6394.34
441.94	6689.25
442.12	6492.65
442.31	6715.00
442.50	6602.65
442.68	6768.83
442.87	6689.25
443.05	6614.35
443.24	6710.32
443.43	6750.10
443.61	6869.47
443.80	7063.74
443.98	6829.68
444.17	6754.79
444.35	6883.52
444.54	6939.69
444.73	6944.37
444.91	6853.09
445.10	6944.37
445.28	6829.68
445.47	6719.68
445.65	6991.18
445.84	6839.05
446.02	7007.56
446.21	6738.40
446.39	6839.05
446.58	6993.52
446.77	7000.54
446.95	6792.23
447.14	6970.12
447.32	7052.03
447.51	6970.12
447.69	6832.02
447.88	7082.46
448.06	6991.18
448.25	6911.60
448.43	7087.14
448.62	7110.55
448.80	7063.74
448.99	7241.62
449.17	7204.17
449.36	6981.82
449.54	7323.54
449.73	7377.37
449.91	7487.37
450.10	7517.80
450.28	7456.95
450.46	7370.35
450.65	7492.05
450.83	7456.95
451.02	7506.10
451.20	7428.86
451.39	7536.52
451.57	7606.74
451.76	7538.87
451.94	7763.56
452.13	7688.66
452.31	7672.28
452.49	7475.67
452.68	7805.69
452.86	7772.92
453.05	7918.03
453.23	7992.93
453.42	7672.28
453.60	7653.55
453.78	7798.66
453.97	7733.13
454.15	7936.76
454.34	7843.14
454.52	8184.85
454.70	7932.08
454.89	8044.42
455.07	7875.90
455.26	8201.24
455.44	8112.30
455.62	8025.70
455.81	8271.45
455.99	8264.43
456.17	8292.52
456.36	8493.80
456.54	8549.98
456.73	8514.87
456.91	8592.11
457.09	8561.68
457.28	8650.62
457.46	8517.21
457.64	8608.49
457.83	8636.58
458.01	8704.45
458.19	8798.07
458.38	8681.05
458.56	8706.79
458.74	8723.18
458.93	8952.55
459.11	8828.50
459.29	8896.38
459.48	8908.08
459.66	8868.29
459.84	8922.12
460.03	8964.25
460.21	8915.10
460.39	8952.55
460.57	9083.62
460.76	9062.55
460.94	9266.18
461.12	9219.37
461.31	9224.05
461.49	9179.58
461.67	8954.89
461.85	9586.83
462.04	9446.40
462.22	10003.45
462.40	9420.66
462.59	9638.33
462.77	9542.36
462.95	9626.62
463.13	9502.58
463.32	9743.65
463.50	9722.59
463.68	9799.82
463.86	9689.82
464.05	9514.28
464.23	9551.73
464.41	9958.98
464.59	9699.18
464.78	9778.76
464.96	9909.83
465.14	9727.27
465.32	9853.66
465.50	9940.26
465.69	9722.59
465.87	9956.64
466.05	9816.21
466.23	9954.30
466.41	10139.20
466.60	10415.38
466.78	10001.11
466.96	9980.04
467.14	9940.26
467.32	10258.57
467.51	10143.88
467.69	10111.11
467.87	10099.41
468.05	10176.65
468.23	10162.61
468.41	10022.17
468.60	10211.76
468.78	10415.38
468.96	10478.58
469.14	10452.83
469.32	10696.25
469.50	10171.97
469.69	10736.04
469.87	10537.09
470.05	10712.63
470.23	10860.09
470.41	10747.74
470.59	10656.46
470.77	10654.12
470.95	10801.57
471.14	10864.77
471.32	10696.25
471.50	11037.97
471.68	11154.99
471.86	11206.48
472.04	11274.36
472.22	11351.60
472.40	11316.49
472.58	11314.15
472.77	11536.50
472.95	11377.34
473.13	11847.79
473.31	11431.18
473.49	11367.98
473.67	11740.13
473.85	11822.05
474.03	12058.44
474.21	11899.28
474.39	11988.22
474.57	12023.33
474.75	12355.69
474.93	12320.58
475.12	12170.79
475.30	12360.37
475.48	12238.66
475.66	12416.54
475.84	12273.77
476.02	12547.61
476.20	12395.48
476.38	12791.03
476.56	13146.79
476.74	12842.52
476.92	12683.36
477.10	12762.94
477.28	13207.64
477.46	13078.91
477.64	13275.52
477.82	13509.57
478.00	13783.41
478.18	13673.41
478.36	14073.64
478.54	13958.96
478.72	14141.52
478.90	13963.64
479.08	14422.38
479.26	14073.64
479.44	14188.33
479.62	14668.14
479.80	14501.96
479.98	14616.65
480.16	14862.40
480.34	14937.30
480.52	15272.00
480.70	15089.43
480.88	15276.68
481.06	15260.29
481.24	15220.50
481.41	15527.11
481.59	15620.74
481.77	15768.19
481.95	15873.51
482.13	16205.87
482.31	16025.65
482.49	16346.30
482.67	16147.36
482.85	16456.31
483.03	16753.55
483.21	16898.67
483.39	16992.29
483.57	17071.87
483.74	17301.24
483.92	17261.45
484.10	17266.13
484.28	17675.73
484.46	17785.73
484.64	18183.62
484.82	18033.83
485.00	17788.07
485.18	18319.37
485.35	18628.32
485.53	18633.00
485.71	18899.83
485.89	19044.94
486.07	18965.36
486.25	19391.34
486.43	18883.44
486.61	19381.98
486.78	19580.92
486.96	19674.54
487.14	19889.87
487.32	20065.41
487.50	20056.05
487.68	20130.95
487.85	20685.65
488.03	20669.27
488.21	20879.92
488.39	21385.47
488.57	21146.74
488.75	21338.66
488.92	21553.99
489.10	21722.51
489.28	21556.33
489.46	22331.05
489.64	21731.87
489.81	22291.26
489.99	22366.16
490.17	22448.08
490.35	22656.39
490.53	22750.01
490.70	22960.66
490.88	23241.52
491.06	23197.05
491.24	23147.90
491.41	23648.77
491.59	23798.57
491.77	23995.17
491.95	24325.19
492.13	24175.39
492.30	24355.61
492.48	24159.01
492.66	24613.07
492.84	24709.04
493.01	24662.22
493.19	24781.59
493.37	25144.38
493.54	25090.54
493.72	25425.24
493.90	25450.99
494.08	25727.17
494.25	25851.22
494.43	25944.84
494.61	26263.15
494.79	26359.11
494.96	26094.63
495.14	26239.75
495.32	27117.45
495.49	26876.37
495.67	26834.24
495.85	26902.12
496.02	27538.74
496.20	27466.19
496.38	27693.22
496.55	27669.81
496.73	28116.86
496.91	27983.44
497.09	28283.03
497.26	28568.58
497.44	28297.08
497.62	28496.02
497.79	28694.97
497.97	28505.38
498.14	29296.49
498.32	29638.20
498.50	29425.22
498.67	29408.83
498.85	29535.22
499.03	29668.63
499.20	29436.92
499.38	29923.75
499.56	29944.81
499.73	30103.97
499.91	30368.45
500.08	30866.98
500.26	30373.13
500.44	30323.98
500.61	30335.68
500.79	30754.64
500.97	30869.33
501.14	31264.88
501.32	31056.57
501.49	31189.98
501.67	31087.00
501.84	31360.84
502.02	30981.67
502.20	31756.39
502.37	31494.25
502.55	31915.54
502.72	31915.54
502.90	32020.87
503.07	31814.90
503.25	31962.36
503.43	31833.63
503.60	32353.23
503.78	32563.87
503.95	32385.99
504.13	32542.81
504.30	33085.81
504.48	32692.60
504.65	32980.49
504.83	33329.23
505.01	33556.26
505.18	33104.54
505.36	33516.47
505.53	33369.02
505.71	33460.30
505.88	33624.14
506.06	33490.73
506.23	34113.31
506.41	33853.51
506.58	33825.42
506.76	34160.12
506.93	34323.96
507.11	33933.09
507.28	34267.78
507.46	34426.94
507.63	34455.03
507.81	35124.42
507.98	34689.08
508.16	34976.97
508.33	35110.38
508.50	34974.63
508.68	35292.94
508.85	35763.39
509.03	35330.39
509.20	35913.18
509.38	35744.66
509.55	36137.87
509.73	35948.29
509.90	35814.88
510.08	35810.20
510.25	36135.53
510.42	36613.00
510.60	36570.87
510.77	36439.80
510.95	36601.30
511.12	36856.42
511.30	36605.98
511.47	36680.88
511.64	36987.49
511.82	36917.27
511.99	37106.85
512.17	37373.67
512.34	37422.83
512.51	37605.39
512.69	37450.91
512.86	37666.24
513.04	37666.24
513.21	37954.13
513.38	38181.16
513.56	37691.99
513.73	37837.10
513.90	37855.82
514.08	37851.14
514.25	37965.83
514.43	38469.04
514.60	38555.64
514.77	38333.29
514.95	38876.30
515.12	38740.55
515.29	38483.09
515.47	39021.41
515.64	39269.51
515.81	39309.30
515.99	39274.19
516.16	40051.25
516.33	39440.37
516.51	40055.93
516.68	39805.49
516.85	39538.67
517.03	39632.29
517.20	39658.04
517.37	39838.26
517.54	40247.85
517.72	39903.79
517.89	39945.92
518.06	39962.31
518.24	39934.22
518.41	40346.15
518.58	40612.98
518.75	40722.98
518.93	40849.37
519.10	41017.89
519.27	40467.86
519.45	40643.40
519.62	40477.22
519.79	40823.62
519.96	40996.82
520.14	41537.49
520.31	41237.90
520.48	41310.46
520.65	41474.29
520.83	41504.72
521.00	41205.13
521.17	41296.41
521.34	41502.38
521.52	41715.37
521.69	41757.50
521.86	42241.99
522.03	41991.55
522.20	42075.81
522.38	41972.83
522.55	42244.33
522.72	42139.00
522.89	42148.37
523.07	42557.96
523.24	42529.87
523.41	42780.31
523.58	42775.63
523.75	42782.65
523.92	42431.57
524.10	42728.82
524.27	42988.62
524.44	43122.03
524.61	43491.83
524.78	43276.51
524.96	43164.16
525.13	43482.47
525.30	43292.89
525.47	43962.28
525.64	43627.59
525.81	43810.15
525.98	43903.77
526.16	43548.01
526.33	43824.19
526.50	44336.77
526.67	43487.15
526.84	43814.83
527.01	43484.81
527.18	44168.25
527.36	44360.17
527.53	44538.05
527.70	44495.92
527.87	44823.60
528.04	44669.12
528.21	44282.94
528.38	44294.64
528.55	44364.85
528.72	44573.16
528.89	44999.14
529.07	44917.22
529.24	44903.18
529.41	45137.23
529.58	44933.60
529.75	44835.30
529.92	45132.55
530.09	44980.42
530.26	45123.19
530.43	45268.30
530.60	45312.77
530.77	45308.09
530.94	45219.15
531.11	45212.13
531.28	45483.63
531.46	46117.92
531.63	45813.65
531.80	45422.78
531.97	46040.68
532.14	46129.62
532.31	45965.78
532.48	45799.60
532.65	45925.99
532.82	45911.95
532.99	45975.14
533.16	45928.33
533.33	46248.99
533.50	46548.57
533.67	46471.34
533.84	46040.68
534.01	46014.93
534.18	46174.09
534.35	46398.78
534.52	46307.50
534.69	46749.86
534.86	47112.64
535.03	46461.97
535.20	46934.76
535.37	46791.99
535.54	46848.16
535.71	46370.69
535.88	46646.88
536.05	47147.75
536.22	47220.31
536.38	47313.93
536.55	47342.02
536.72	47407.55
536.89	46902.00
537.06	47227.33
537.23	47271.80
537.40	47037.75
537.57	47082.22
537.74	47302.23
537.91	47466.06
538.08	47861.61
538.25	47529.26
538.42	48109.71
538.59	47777.36
538.75	47337.33
538.92	47866.30
539.09	47674.37
539.26	48018.43
539.43	48142.48
539.60	48069.92
539.77	48048.86
539.94	47999.71
540.11	48034.81
540.28	48128.44
540.44	48100.35
540.61	47826.51
540.78	48196.31
540.95	48479.52
541.12	48203.33
541.29	48481.86
541.46	48449.09
541.62	48547.39
541.79	48392.92
541.96	48200.99
542.13	48051.20
542.30	48589.52
542.47	48844.64
542.63	48945.28
542.80	48884.43
542.97	48959.33
543.14	48947.62
543.31	49169.97
543.48	49076.35
543.64	49148.91
543.81	49404.03
543.98	49635.74
544.15	49593.61
544.32	49497.65
544.48	49581.91
544.65	49214.44
544.82	49064.65
544.99	49247.21
545.16	49322.11
545.32	49511.69
545.49	49808.94
545.66	49806.60
545.83	49715.32
546.00	50031.29
546.16	50113.21
546.33	49633.40
546.50	49366.58
546.67	49600.63
546.83	48931.24
547.00	49474.24
547.17	49968.10
547.34	50103.85
547.50	50225.56
547.67	50108.53
547.84	50110.87
548.00	50227.90
548.17	50272.37
548.34	50000.86
548.51	50131.93
548.67	50443.23
548.84	50513.44
549.01	50227.90
549.18	50504.08
549.34	50384.71
549.51	50635.15
549.68	50384.71
549.84	49979.80
550.01	50468.97
550.18	50326.20
550.34	50665.58
550.51	50553.23
550.68	50817.71
550.84	50017.25
551.01	50586.00
551.18	50548.55
551.34	50459.61
551.51	50312.16
551.68	50450.25
551.84	50827.07
552.01	50717.07
552.18	50944.10
552.34	50546.21
552.51	50845.80
552.68	50721.75
552.84	50581.32
553.01	51051.76
553.18	50969.85
553.34	51091.55
553.51	50953.46
553.67	50850.48
553.84	51416.89
554.01	51136.02
554.17	51164.11
554.34	51030.70
554.51	51332.63
554.67	51323.27
554.84	51257.73
555.00	51072.83
555.17	50927.72
555.33	51206.24
555.50	50976.87
555.67	51208.58
555.83	51358.38
556.00	51180.49
556.16	51604.13
556.33	51346.67
556.50	51407.53
556.66	51662.64
556.83	51564.34
556.99	51248.37
557.16	51681.37
557.32	51601.79
557.49	51744.56
557.65	51454.34
557.82	51503.49
557.98	51505.83
558.15	51711.80
558.32	51831.16
558.48	51632.22
558.65	51833.50
558.81	51840.53
558.98	51690.73
559.14	51562.00
559.31	51372.42
559.47	51840.53
559.64	51917.76
559.80	51840.53
559.97	51980.96
560.13	51592.43
560.30	51915.42
560.46	51877.97
560.63	51931.81
560.79	51817.12
560.96	51789.03
561.12	51789.03
561.29	51695.41
561.45	52034.79
561.61	51863.93
561.78	52109.69
561.94	51950.53
562.11	52081.60
562.27	51707.12
562.44	51716.48
562.60	52156.50
562.77	51777.33
562.93	51721.16
563.10	52023.09
563.26	51962.23
563.42	52430.34
563.59	52224.37
563.75	51866.27
563.92	52329.70
564.08	51859.25
564.24	51927.13
564.41	52144.80
564.57	51767.97
564.74	51971.60
564.90	52112.03
565.07	52163.52
565.23	52528.64
565.39	51997.34
565.56	52212.67
565.72	51936.49
565.88	51906.06
566.05	52030.11
566.21	51877.97
566.38	52219.69
566.54	52287.57
566.70	52285.23
566.87	52472.47
567.03	52154.16
567.19	52535.66
567.36	52369.49
567.52	52243.10
567.68	52378.85
567.85	52299.27
568.01	52444.38
568.17	52479.49
568.34	52390.55
568.50	52467.79
568.66	52252.46
568.83	52346.08
568.99	52264.16
569.15	52360.12
569.32	52090.96
569.48	52018.41
569.64	52437.36
569.81	52165.86
569.97	52268.84
570.13	52418.64
570.30	51889.68
570.46	52268.84
570.62	52374.17
570.78	52605.88
570.95	52144.80
571.11	52245.44
571.27	52594.18
571.43	52257.14
571.60	52392.89
571.76	52397.57
571.92	52470.13
572.09	52769.72
572.25	52594.18
572.41	52481.83
572.57	52725.25
572.74	52596.52
572.90	52149.48
573.06	52648.01
573.22	52493.54
573.38	52523.96
573.55	52584.82
573.71	52966.32
573.87	52350.76
574.03	52430.34
574.20	52699.50
574.36	52477.15
574.52	52320.34
574.68	52385.87
574.84	52601.20
575.01	52753.33
575.17	52587.16
575.33	52341.40
575.49	52547.37
575.65	52900.79
575.82	52552.05
575.98	52580.13
576.14	52664.39
576.30	52219.69
576.46	52416.30
576.62	52350.76
576.79	52371.83
576.95	52444.38
577.11	52378.85
577.27	52746.31
577.43	52612.90
577.59	52444.38
577.75	52570.77
577.92	52474.81
578.08	52547.37
578.24	52018.41
578.40	52715.89
578.56	52662.05
578.72	52404.59
578.88	52509.92
579.04	52856.32
579.21	52706.52
579.37	52610.56
579.53	52767.38
579.69	52645.67
579.85	52556.73
580.01	52545.03
580.17	52463.11
580.33	52523.96
580.49	52397.57
580.65	52746.31
580.82	52729.93
580.98	52486.51
581.14	52928.87
581.30	52804.83
581.46	52523.96
581.62	52238.42
581.78	52250.12
581.94	52861.00
582.10	52526.30
582.26	52385.87
582.42	52596.52
582.58	52617.58
582.74	52877.38
582.90	52870.36
583.06	52872.70
583.22	52439.70
583.38	52566.09
583.54	52378.85
583.70	52575.45
583.86	52594.18
584.02	52233.74
584.18	52741.63
584.34	52619.92
584.50	52755.68
584.66	52687.80
584.82	52545.03
584.98	52505.24
585.14	52556.73
585.30	52322.68
585.46	52706.52
585.62	52428.00
585.78	52664.39
585.94	52500.56
586.10	52685.46
586.26	52793.12
586.42	53085.69
586.58	52739.29
586.74	52687.80
586.90	52509.92
587.06	52502.90
587.22	52640.99
587.38	52594.18
587.54	52779.08
587.70	52732.27
587.86	52807.17
588.02	52601.20
588.18	53001.43
588.34	52879.72
588.49	52523.96
588.65	52552.05
588.81	52718.23
588.97	52629.29
589.13	52662.05
589.29	52802.49
589.45	52924.19
589.61	52758.02
589.77	53144.20
589.93	52996.75
590.08	53081.01
590.24	52999.09
590.40	53099.73
590.56	53183.99
590.72	52851.64
590.88	52580.13
591.04	52811.85
591.20	53286.98
591.35	53151.23
591.51	53476.56
591.67	53118.46
591.83	53183.99
591.99	52928.87
592.15	53038.88
592.31	53031.86
592.46	52554.39
592.62	53123.14
592.78	52832.91
592.94	52980.37
593.10	52603.54
593.26	53214.42
593.41	53024.84
593.57	52884.40
593.73	53024.84
593.89	53102.07
594.05	52811.85
594.20	52624.60
594.36	52844.62
594.52	52704.18
594.68	52690.14
594.84	52631.63
594.99	53031.86
595.15	52863.34
595.31	53230.80
595.47	53029.52
595.62	52935.90
595.78	52954.62
595.94	52982.71
596.10	52917.17
596.25	53006.11
596.41	52823.55
596.57	52629.29
596.73	53050.58
596.88	52788.44
597.04	52795.46
597.20	53010.79
597.36	52779.08
597.51	53275.27
597.67	52601.20
597.83	52898.45
597.99	53387.62
598.14	52875.04
598.30	52769.72
598.46	52837.59
598.61	53043.56
598.77	52790.78
598.93	53041.22
599.09	52861.00
599.24	53169.95
599.40	52821.21
599.56	53120.80
599.71	52856.32
599.87	53162.93
600.03	52786.10
600.18	52472.47
600.34	52928.87
600.50	52736.95
600.65	52828.23
600.81	53155.91
600.97	53095.05
601.12	53036.54
601.28	53242.51
601.44	52985.05
601.59	53062.29
601.75	52952.28
601.91	52886.74
602.06	52858.66
602.22	52727.59
602.37	52779.08
602.53	53202.72
602.69	52839.93
602.84	52767.38
603.00	52673.76
603.16	52868.02
603.31	52893.77
603.47	53008.45
603.62	52856.32
603.78	52673.76
603.94	52853.98
604.09	52907.81
604.25	53172.29
604.40	52624.60
604.56	52933.56
604.71	53017.82
604.87	52933.56
605.03	53020.16
605.18	52928.87
605.34	52961.64
605.49	52521.62
605.65	52598.86
605.80	52449.06
605.96	52580.13
606.12	52598.86
606.27	52800.15
606.43	52594.18
606.58	52755.68
606.74	52825.89
606.89	52507.58
607.05	52715.89
607.20	52802.49
607.36	52619.92
607.51	52884.40
607.67	52493.54
607.82	52519.28
607.98	52575.45
608.13	52374.17
608.29	52308.63
608.44	52491.19
608.60	52739.29
608.75	52755.68
608.91	52554.39
609.06	52488.85
609.22	52680.78
609.37	52474.81
609.53	52395.23
609.68	52554.39
609.84	52301.61
609.99	52224.37
610.15	52247.78
610.30	52271.18
610.46	52449.06
610.61	52362.46
610.76	52509.92
610.92	52451.41
611.07	52598.86
611.23	52168.20
611.38	52112.03
611.54	52580.13
611.69	52149.48
611.84	52189.27
612.00	51828.82
612.15	51812.44
612.31	52343.74
612.46	52186.92
612.62	52406.94
612.77	52215.01
612.92	52528.64
613.08	52219.69
613.23	52205.65
613.39	51870.95
613.54	51882.66
613.69	52186.92
613.85	52116.71
614.00	52121.39
614.15	51840.53
614.31	51899.04
614.46	52254.80
614.62	51861.59
614.77	52076.92
614.92	51882.66
615.08	51805.42
615.23	52065.22
615.38	51929.47
615.54	51894.36
615.69	51452.00
615.84	51627.54
616.00	51831.16
616.15	51767.97
616.30	51817.12
616.46	51978.62
616.61	51641.58
616.76	51667.33
616.92	51608.81
617.07	51573.70
617.22	51627.54
617.37	51114.96
617.53	51730.52
617.68	51604.13
617.83	51356.03
617.99	51629.88
618.14	51388.80
618.29	51545.62
618.45	51594.77
618.60	51473.06
618.75	51791.37
618.90	51552.64
619.06	51405.19
619.21	51646.26
619.36	51700.09
619.51	51009.64
619.67	51107.94
619.82	51168.79
619.97	51056.45
620.12	51391.14
620.28	50953.46
620.43	51217.94
620.58	50974.53
620.73	51210.92
620.89	51014.32
621.04	51447.32
621.19	51405.19
621.34	51182.84
621.49	50822.39
621.65	50869.20
621.80	51091.55
621.95	50892.61
622.10	50974.53
622.25	51049.42
622.41	51077.51
622.56	50876.22
622.71	51255.39
622.86	50848.14
623.01	50930.06
623.16	51157.09
623.32	50492.38
623.47	50707.71
623.62	50791.97
623.77	50703.03
623.92	50595.36
624.07	50763.88
624.23	50564.93
624.38	50754.52
624.53	50681.96
624.68	50883.25
624.83	50974.53
624.98	50562.59
625.13	50810.69
625.29	50377.69
625.44	50546.21
625.59	50300.45
625.74	49961.08
625.89	50197.47
626.04	49996.18
626.19	50354.29
626.34	50059.38
626.49	50134.28
626.65	50213.85
626.80	50621.11
626.95	50511.10
627.10	50206.83
627.25	50185.77
627.40	50138.96
627.55	50206.83
627.70	49556.16
627.85	49993.84
628.00	49797.24
628.15	49806.60
628.30	49855.75
628.45	49612.34
628.60	49832.35
628.76	49907.24
628.91	49729.36
629.06	50000.86
629.21	50031.29
629.36	49855.75
629.51	49649.78
629.66	49783.19
629.81	49462.54
629.96	49443.82
630.11	49471.90
630.26	49343.17
630.41	49226.15
630.56	49312.75
630.71	49605.31
630.86	49483.61
631.01	49364.24
631.16	49626.38
631.31	49497.65
631.46	49088.06
631.61	49579.57
631.76	49174.66
631.91	49343.17
632.06	49132.53
632.21	49092.74
632.36	49205.08
632.51	48896.13
632.66	49296.36
632.81	48910.17
632.96	49389.98
633.10	49265.94
633.25	49345.51
633.40	49064.65
633.55	49120.82
633.70	49069.33
633.85	48605.91
634.00	48781.45
634.15	48746.34
634.30	48762.72
634.45	48549.73
634.60	48734.63
634.75	48865.70
634.90	48671.44
635.05	48982.73
635.19	48802.51
635.34	48823.58
635.49	49186.36
635.64	48678.46
635.79	48596.54
635.94	48502.92
636.09	48741.66
636.24	48114.39
636.39	48589.52
636.53	48212.70
636.68	48137.80
636.83	48648.03
636.98	48626.97
637.13	48238.44
637.28	48732.29
637.43	48481.86
637.57	48343.77
637.72	48521.65
637.87	48025.45
638.02	48430.36
638.17	48655.06
638.32	48170.57
638.46	48383.55
638.61	47765.65
638.76	47800.76
638.91	47524.58
639.06	47908.43
639.20	48402.28
639.35	47700.12
639.50	47948.21
639.65	48130.78
639.80	47920.13
639.94	47704.80
640.09	47700.12
640.24	47828.85
640.39	47859.27
640.54	47346.70
640.68	47480.11
640.83	47138.39
640.98	47164.14
641.13	47192.22
641.27	47547.98
641.42	47470.75
641.57	47234.35
641.72	47566.71
641.86	47428.62
642.01	47349.04
642.16	47419.25
642.31	47075.19
642.45	47325.63
642.60	47271.80
642.75	47065.83
642.90	47414.57
643.04	47199.24
643.19	46857.52
643.34	47173.50
643.48	47063.49
643.63	47358.40
643.78	47402.87
643.93	47555.00
644.07	47400.53
644.22	47082.22
644.37	47325.63
644.51	47093.92
644.66	47257.76
644.81	46735.82
644.95	46810.71
645.10	46824.76
645.25	46487.72
645.39	46618.79
645.54	46967.53
645.69	46990.94
645.83	46873.91
645.98	46934.76
646.13	46990.94
646.27	47222.65
646.42	46567.30
646.57	46955.83
646.71	46422.19
646.86	46913.70
647.00	46199.83
647.15	46408.14
647.30	46143.66
647.44	46129.62
647.59	46557.94
647.74	46609.43
647.88	46775.61
648.03	46380.06
648.17	46557.94
648.32	46272.39
648.47	46768.58
648.61	46522.83
648.76	46532.19
648.90	46115.58
649.05	46316.86
649.20	45909.61
649.34	46026.63
649.49	45851.09
649.63	46078.13
649.78	46153.02
649.92	45626.40
650.07	46089.83
650.21	45914.29
650.36	45921.31
650.51	45806.62
650.65	46040.68
650.80	45989.19
650.94	45731.73
651.09	45858.12
651.23	45745.77
651.38	45879.18
651.52	45521.08
651.67	45230.85
651.81	45764.49
651.96	45748.11
652.10	45771.52
652.25	45614.70
652.39	45202.77
652.54	46103.87
652.68	45773.86
652.83	45738.75
652.97	46019.61
653.12	45776.20
653.26	45591.30
653.41	45694.28
653.55	45509.38
653.70	45057.65
653.84	45294.05
653.99	45221.49
654.13	44978.07
654.27	45001.48
654.42	44739.34
654.56	45249.58
654.71	45076.38
654.85	45132.55
655.00	45289.37
655.14	45092.76
655.29	45244.90
655.43	45413.41
655.57	45380.65
655.72	44959.35
655.86	44774.45
656.01	44516.99
656.15	44137.82
656.30	44938.29
656.44	44318.04
656.58	44626.99
656.73	44580.18
656.87	44484.22
657.01	44580.18
657.16	45146.59
657.30	44809.56
657.45	44879.77
657.59	44795.51
657.73	44264.21
657.88	44292.30
658.02	44346.13
658.16	44109.74
658.31	44259.53
658.45	44142.50
658.60	43587.80
658.74	43861.64
658.88	43807.81
659.03	44055.90
659.17	43669.72
659.31	43849.94
659.46	44121.44
659.60	43913.13
659.74	43688.44
659.89	43927.17
660.03	44254.85
660.17	44311.02
660.32	43927.17
660.46	43798.44
660.60	43330.34
660.74	43810.15
660.89	42997.98
661.03	43091.60
661.17	43105.65
661.32	43122.03
661.46	43342.04
661.60	42792.01
661.74	43304.59
661.89	42916.06
662.03	42969.90
662.17	43091.60
662.31	43178.20
662.46	43243.74
662.60	42892.66
662.74	42756.91
662.88	42707.76
663.03	42550.94
663.17	42213.90
663.31	42593.07
663.45	42375.40
663.60	42124.96
663.74	41914.31
663.88	42047.72
664.02	42153.05
664.17	42796.70
664.31	42562.64
664.45	42211.56
664.59	42239.65
664.73	41839.42
664.88	41876.86
665.02	41158.32
665.16	41628.77
665.30	41783.24
665.44	41354.93
665.59	41352.58
665.73	41305.77
665.87	41090.44
666.01	41542.17
666.15	41373.65
666.29	41544.51
666.44	41357.27
666.58	41219.17
666.72	40828.30
666.86	41291.73
667.00	41373.65
667.14	41179.39
667.28	41031.93
667.43	40891.50
667.57	40840.01
667.71	40666.81
667.85	40783.83
667.99	40123.80
668.13	40889.16
668.27	40612.98
668.41	40430.41
668.56	40215.08
668.70	40856.39
668.84	40233.81
668.98	39997.41
669.12	40102.74
669.26	40257.21
669.40	39913.16
669.54	40435.10
669.68	39732.93
669.82	39707.19
669.96	39629.95
670.10	39583.14
670.25	39473.13
670.39	39267.17
670.53	39491.86
670.67	39124.40
670.81	39463.77
670.95	39555.05
671.09	38972.26
671.23	39079.92
671.37	39501.22
671.51	39395.90
671.65	38892.68
671.79	38934.81
671.93	39056.52
672.07	39005.03
672.21	38855.23
672.35	38628.20
672.49	37940.08
672.63	38433.94
672.77	38328.61
672.91	38548.62
673.05	38550.96
673.19	38354.36
673.33	38223.29
673.47	38085.20
673.61	38195.20
673.75	38124.99
673.89	38010.30
674.03	38227.97
674.17	38007.96
674.31	37474.32
674.45	37621.77
674.59	37008.55
674.73	37500.06
674.87	37408.78
675.01	37233.24
675.15	36823.65
675.29	37179.41
675.43	36828.33
675.56	36882.16
675.70	36849.39
675.84	36613.00
675.98	36109.78
676.12	36528.74
676.26	36833.01
676.40	36734.71
676.54	36765.14
676.68	36437.46
676.82	35592.53
676.96	35409.96
677.10	35871.05
677.23	35754.02
677.37	35580.82
677.51	35449.75
677.65	35550.40
677.79	34892.71
677.93	34986.33
678.07	35140.80
678.21	35040.16
678.34	35122.08
678.48	35325.71
678.62	34852.92
678.76	34560.35
678.90	34347.36
679.04	34405.88
679.18	34515.88
679.31	34209.27
679.45	33909.68
679.59	33668.61
679.73	33921.38
679.87	33633.50
680.00	33579.67
680.14	33907.34
680.28	33874.57
680.42	33500.09
680.56	33486.04
680.70	33860.53
680.83	33097.52
680.97	33392.42
681.11	33207.52
681.25	32952.40
681.39	32971.13
681.52	32774.52
681.66	32664.52
681.80	32339.18
681.94	32334.50
682.07	31945.97
682.21	31967.04
682.35	31555.10
682.49	31927.25
682.62	31964.70
682.76	31922.57
682.90	32187.05
683.04	31541.06
683.17	31772.77
683.31	31496.59
683.45	31981.08
683.59	31445.10
683.72	31534.04
683.86	31122.10
684.00	30953.58
684.13	30988.69
684.27	30792.09
684.41	30504.20
684.55	30249.08
684.68	30125.04
684.82	30216.32
684.96	30094.61
685.09	30120.35
685.23	30050.14
685.37	30096.95
685.50	29898.00
685.64	29968.22
685.78	29769.27
685.91	29560.97
686.05	29907.37
686.19	29275.42
686.32	29378.40
686.46	29244.99
686.60	28606.03
686.73	28966.47
686.87	28919.66
687.01	28851.78
687.14	28624.75
687.28	28606.03
687.42	28027.92
687.55	27999.83
687.69	28439.85
687.82	27971.74
687.96	28180.05
688.10	27819.61
688.23	28128.56
688.37	28088.77
688.50	27814.93
688.64	27910.89
688.78	27676.83
688.91	27405.33
689.05	27683.86
689.18	26965.31
689.32	26663.38
689.46	26852.97
689.59	26817.86
689.73	26824.88
689.86	26693.81
690.00	27096.38
690.13	26855.31
690.27	26443.37
690.41	26466.78
690.54	26511.25
690.68	26391.88
690.81	26354.43
690.95	26504.23
691.08	25963.56
691.22	26019.74
691.35	25986.97
691.49	25745.89
691.62	25406.52
691.76	25521.20
691.89	25383.11
692.03	25193.53
692.16	24819.04
692.30	25146.72
692.43	25022.67
692.57	24699.67
692.70	24816.70
692.84	24762.87
692.97	24517.11
693.11	24746.48
693.24	24280.72
693.38	24491.37
693.51	24599.03
693.65	24339.23
693.78	24362.64
693.92	24423.49
694.05	24308.80
694.19	24098.16
694.32	23534.09
694.45	23534.09
694.59	23428.76
694.72	23356.21
694.86	23283.65
694.99	23065.98
695.13	23173.64
695.26	23075.34
695.39	22757.03
695.53	23229.82
695.66	22958.31
695.80	22738.30
695.93	22515.95
696.07	22347.44
696.20	22855.33
696.33	22562.76
696.47	22412.97
696.60	22235.09
696.73	22387.22
696.87	21923.80
697.00	21640.59
697.14	21439.31
697.27	21429.94
697.40	21322.28
697.54	21453.35
697.67	20992.26
697.80	21331.64
697.94	21268.45
698.07	21118.65
698.21	20847.15
698.34	20982.90
698.47	21013.33
698.61	20802.68
698.74	20896.30
698.87	20807.36
699.01	20608.42
699.14	20180.10
699.27	20210.53
699.40	20311.17
699.54	20051.37
699.67	19665.18
699.80	19726.04
699.94	19389.00
700.07	20060.73
700.20	19503.68
700.34	19302.40
700.47	19541.13
700.60	19288.35
700.73	19431.13
700.87	19445.17
701.00	19370.27
701.13	19131.54
701.26	19323.46
701.40	19201.76
701.53	18972.38
701.66	18934.93
701.79	18848.33
701.93	18548.75
702.06	18494.91
702.19	18422.36
702.32	18616.62
702.46	18338.10
702.59	18157.88
702.72	17900.42
702.85	17767.01
702.99	17865.31
703.12	17830.20
703.25	17809.14
703.38	17996.38
703.51	17664.02
703.65	17680.41
703.78	17886.37
703.91	17362.09
704.04	17490.82
704.17	17317.62
704.31	17142.08
704.44	17114.00
704.57	17099.95
704.70	16854.20
704.83	16842.50
704.96	16561.63
705.10	16657.59
705.23	16704.40
>>>>>End Processed Spectral Data<<<<<
