SpectraSuite Data File
++++++++++++++++++++++++++++++++++++
Date: Fri Oct 18 13:55:32 GMT-05:00 2013
User: bianchi
Dark Spectrum Present: No
Reference Spectrum Present: No
Number of Sampled Component Spectra: 1
Spectrometers: USB2+H05261
Integration Time (usec): 100000 (USB2+H05261)
Spectra Averaged: 1 (USB2+H05261)
Boxcar Smoothing: 0 (USB2+H05261)
Correct for Electrical Dark: No (USB2+H05261)
Strobe/Lamp Enabled: No (USB2+H05261)
Correct for Detector Non-linearity: No (USB2+H05261)
Correct for Stray Light: No (USB2+H05261)
Number of Pixels in Processed Spectrum: 2048
>>>>>Begin Processed Spectral Data<<<<<
365.73	0.00
365.92	0.00
366.12	0.00
366.32	0.00
366.52	0.00
366.72	0.00
366.91	0.00
367.11	0.00
367.31	0.00
367.51	0.00
367.70	0.00
367.90	0.00
368.10	0.00
368.30	0.00
368.49	0.00
368.69	0.00
368.89	0.00
369.09	0.00
369.28	0.00
369.48	0.00
369.68	0.00
369.87	0.00
370.07	0.00
370.27	0.00
370.47	21.06
370.66	238.73
370.86	280.86
371.06	367.46
371.25	386.19
371.45	269.16
371.65	404.91
371.84	395.55
372.04	367.46
372.24	322.99
372.44	411.93
372.63	320.65
372.83	456.40
373.03	435.34
373.22	435.34
373.42	451.72
373.62	421.30
373.81	458.74
374.01	535.98
374.21	440.02
374.40	430.66
374.60	503.22
374.79	451.72
374.99	519.60
375.19	407.25
375.38	505.56
375.58	521.94
375.78	547.69
375.97	566.41
376.17	559.39
376.37	493.85
376.56	559.39
376.76	486.83
376.95	552.37
377.15	620.24
377.35	531.30
377.54	538.32
377.74	461.09
377.93	528.96
378.13	634.29
378.33	550.03
378.52	582.79
378.72	627.26
378.91	631.94
379.11	606.20
379.31	596.84
379.50	603.86
379.70	582.79
379.89	674.07
380.09	589.82
380.28	617.90
380.48	697.48
380.68	524.28
380.87	641.31
381.07	711.52
381.26	645.99
381.46	690.46
381.65	734.93
381.85	631.94
382.04	643.65
382.24	727.91
382.43	587.47
382.63	755.99
382.83	660.03
383.02	805.14
383.22	732.59
383.41	697.48
383.61	781.74
383.80	795.78
384.00	699.82
384.19	779.40
384.39	748.97
384.58	809.83
384.78	793.44
384.97	716.20
385.17	781.74
385.36	727.91
385.56	779.40
385.75	798.12
385.95	779.40
386.14	866.00
386.34	917.49
386.53	880.04
386.72	877.70
386.92	898.77
387.11	807.48
387.31	851.96
387.50	863.66
387.70	896.43
387.89	828.55
388.09	851.96
388.28	819.19
388.48	868.34
388.67	908.13
388.86	891.74
389.06	994.73
389.25	957.28
389.45	994.73
389.64	882.38
389.84	1076.65
390.03	1036.86
390.22	1046.22
390.42	985.37
390.61	912.81
390.81	954.94
391.00	1146.86
391.19	1067.28
391.39	1041.54
391.58	1074.31
391.78	1062.60
391.97	1060.26
392.16	1081.33
392.36	1086.01
392.55	985.37
392.75	1025.15
392.94	1116.44
393.13	1200.69
393.33	1177.29
393.52	1125.80
393.71	1186.65
393.91	1186.65
394.10	1186.65
394.29	1207.72
394.49	1174.95
394.68	1226.44
394.88	1196.01
395.07	1341.13
395.26	1231.12
395.46	1306.02
395.65	1387.94
395.84	1273.25
396.04	1390.28
396.23	1301.34
396.42	1296.66
396.62	1392.62
396.81	1364.53
397.00	1263.89
397.19	1338.79
397.39	1348.15
397.58	1465.18
397.77	1383.26
397.97	1383.26
398.16	1359.85
398.35	1455.81
398.55	1416.02
398.74	1535.39
398.93	1476.88
399.12	1467.52
399.32	1462.83
399.51	1467.52
399.70	1570.50
399.90	1446.45
400.09	1638.38
400.28	1598.59
400.47	1607.95
400.67	1572.84
400.86	1657.10
401.05	1645.40
401.24	1654.76
401.44	1626.67
401.63	1659.44
401.82	1633.69
402.01	1666.46
402.21	1844.34
402.40	1746.04
402.59	1734.34
402.78	1776.47
402.97	1827.96
403.17	1774.13
403.36	1842.00
403.55	1888.81
403.74	1942.64
403.93	1902.86
404.13	1949.67
404.32	1937.96
404.51	1947.33
404.70	1832.64
404.89	1893.49
405.09	1975.41
405.28	2003.50
405.47	2076.06
405.66	2155.63
405.85	2099.46
406.05	2097.12
406.24	2090.10
406.43	2143.93
406.62	2230.53
406.81	2209.47
407.00	2209.47
407.20	2050.31
407.39	2279.68
407.58	2235.21
407.77	2275.00
407.96	2307.77
408.15	2338.20
408.34	2214.15
408.54	2335.85
408.73	2331.17
408.92	2335.85
409.11	2307.77
409.30	2443.52
409.49	2513.74
409.68	2588.63
409.87	2497.35
410.07	2558.21
410.26	2553.52
410.45	2518.42
410.64	2649.49
410.83	2593.31
411.02	2551.18
411.21	2708.00
411.40	2733.75
411.59	2726.72
411.78	2600.34
411.98	2747.79
412.17	2630.76
412.36	2911.63
412.55	2920.99
412.74	2801.62
412.93	2949.08
413.12	2970.14
413.31	3005.25
413.50	2920.99
413.69	3152.70
413.88	3148.02
414.07	3159.72
414.26	3176.11
414.45	3236.96
414.64	3155.04
414.83	3318.88
415.02	3251.00
415.22	3276.75
415.41	3496.76
415.60	3316.54
415.79	3419.52
415.98	3524.85
416.17	3452.29
416.36	3632.51
416.55	3583.36
416.74	3471.01
416.93	3552.93
417.12	3744.86
417.31	3691.02
417.50	3630.17
417.69	3812.73
417.88	3712.09
418.07	3824.44
418.26	3906.35
418.45	3859.54
418.64	3913.38
418.83	3978.91
419.02	3967.21
419.21	3981.25
419.39	4016.36
419.58	3999.98
419.77	3988.27
419.96	4046.79
420.15	4128.70
420.34	4114.66
420.53	4124.02
420.72	4393.19
420.91	4229.35
421.10	4229.35
421.29	4257.43
421.48	4320.63
421.67	4367.44
421.86	4360.42
422.05	4320.63
422.24	4266.80
422.43	4428.29
422.61	4589.79
422.80	4402.55
422.99	4585.11
423.18	4580.43
423.37	4507.87
423.56	4489.15
423.75	4500.85
423.94	4379.14
424.13	4180.20
424.32	4404.89
424.50	4435.32
424.69	4697.46
424.88	4697.46
425.07	4432.97
425.26	4348.72
425.45	4528.94
425.64	4540.64
425.83	4463.40
426.01	4667.03
426.20	4554.68
426.39	4561.70
426.58	4477.44
426.77	4678.73
426.96	4652.98
427.15	4627.24
427.33	4924.49
427.52	4535.96
427.71	4718.52
427.90	4833.21
428.09	4706.82
428.28	4732.56
428.46	4924.49
428.65	4814.48
428.84	4990.02
429.03	5123.43
429.22	4737.24
429.40	5057.90
429.59	5085.98
429.78	4837.89
429.97	4858.95
430.16	4943.21
430.34	4945.55
430.53	5144.50
430.72	5296.63
430.91	5104.71
431.10	4945.55
431.28	5334.08
431.47	5448.77
431.66	5387.91
431.85	5083.64
432.03	5343.44
432.22	5376.21
432.41	5338.76
432.60	5458.13
432.79	5408.98
432.97	5455.79
433.16	5418.34
433.35	5472.17
433.54	5530.69
433.72	5586.86
433.91	5544.73
434.10	5586.86
434.28	5652.39
434.47	5561.11
434.66	5738.99
434.85	5722.61
435.03	5884.11
435.22	5710.91
435.41	6008.16
435.59	5734.31
435.78	5804.53
435.97	5846.66
436.16	5954.32
436.34	5930.92
436.53	5795.17
436.72	5942.62
436.90	5900.49
437.09	6078.37
437.28	5935.60
437.46	6101.78
437.65	6083.05
437.84	6331.15
438.02	6179.01
438.21	6274.98
438.40	6197.74
438.58	6047.94
438.77	6335.83
438.96	6476.26
439.14	6574.56
439.33	6607.33
439.52	6672.87
439.70	6654.14
439.89	6803.94
440.08	6857.77
440.26	6878.83
440.45	6609.67
440.63	6810.96
440.82	6930.33
441.01	6956.07
441.19	6946.71
441.38	7054.37
441.57	7215.87
441.75	7180.76
441.94	7059.06
442.12	7178.42
442.31	7473.33
442.50	7349.28
442.68	7293.11
442.87	7426.52
443.05	7456.95
443.24	7599.72
443.43	7618.44
443.61	7536.52
443.80	7730.79
443.98	7424.18
444.17	7283.75
444.35	7557.59
444.54	7712.07
444.73	7400.77
444.91	7665.25
445.10	7581.00
445.28	7623.12
445.47	7639.51
445.65	7641.85
445.84	7660.57
446.02	7899.31
446.21	7604.40
446.39	7911.01
446.58	7648.87
446.77	7719.09
446.95	7676.96
447.14	7796.32
447.32	7777.60
447.51	7882.92
447.69	7857.18
447.88	7817.39
448.06	7676.96
448.25	7705.04
448.43	7817.39
448.62	7817.39
448.80	7908.67
448.99	8142.72
449.17	7990.59
449.36	7726.11
449.54	8063.15
449.73	8138.04
449.91	8210.60
450.10	8180.17
450.28	8341.67
450.46	8372.10
450.65	8173.15
450.83	8194.22
451.02	8271.45
451.20	8402.52
451.39	8566.36
451.57	8425.93
451.76	8170.81
451.94	8358.05
452.13	8744.24
452.31	8458.70
452.49	8344.01
452.68	8505.51
452.86	8346.35
453.05	8580.40
453.23	8725.52
453.42	8669.34
453.60	8617.85
453.78	8613.17
453.97	8622.53
454.15	8589.77
454.34	8753.60
454.52	8959.57
454.70	8894.04
454.89	8894.04
455.07	8884.67
455.26	8945.53
455.44	9341.08
455.62	9137.45
455.81	9128.09
455.99	9004.04
456.17	9015.74
456.36	9193.62
456.54	9355.12
456.73	9490.87
456.91	9544.70
457.09	9619.60
457.28	9645.35
457.46	9490.87
457.64	9626.62
457.83	9635.99
458.01	9610.24
458.19	9774.08
458.38	9657.05
458.56	9823.23
458.74	9729.61
458.93	9558.75
459.11	9956.64
459.29	9884.08
459.48	10054.94
459.66	9975.36
459.84	10104.09
460.03	10174.31
460.21	10090.05
460.39	10104.09
460.57	9799.82
460.76	10216.44
460.94	10146.22
461.12	10228.14
461.31	10099.41
461.49	10249.21
461.67	10410.70
461.85	10471.56
462.04	10391.98
462.22	11208.83
462.40	10703.27
462.59	10410.70
462.77	10539.43
462.95	10576.88
463.13	10602.63
463.32	10628.37
463.50	10714.97
463.68	10796.89
463.86	10789.87
464.05	10548.79
464.23	10623.69
464.41	10836.68
464.59	10647.10
464.78	10846.04
464.96	10712.63
465.14	10920.94
465.32	10977.11
465.50	11037.97
465.69	11122.23
465.87	10977.11
466.05	10759.44
466.23	11201.80
466.41	10951.37
466.60	11353.94
466.78	10963.07
466.96	11000.52
467.14	11129.25
467.32	11255.64
467.51	11344.58
467.69	11220.53
467.87	11201.80
468.05	11445.22
468.23	11164.36
468.41	11129.25
468.60	11524.80
468.78	11580.97
468.96	11318.83
469.14	11719.06
469.32	11712.04
469.50	11494.37
469.69	11847.79
469.87	12013.97
470.05	12081.85
470.23	12009.29
470.41	11918.01
470.59	11894.60
470.77	12032.69
470.95	12159.08
471.14	12156.74
471.32	11978.86
471.50	12248.02
471.68	12308.88
471.86	12271.43
472.04	12409.52
472.22	12823.80
472.40	12521.87
472.58	12655.28
472.77	12566.34
472.95	12723.15
473.13	13291.90
473.31	12865.92
473.49	12606.13
473.67	12908.05
473.85	13013.38
474.03	13261.48
474.21	13043.81
474.39	13518.93
474.57	13362.12
474.75	13650.00
474.93	13816.18
475.12	13626.60
475.30	13570.43
475.48	13497.87
475.66	13870.01
475.84	13790.44
476.02	13923.85
476.20	14050.24
476.38	14235.14
476.56	14347.48
476.74	14555.79
476.92	14216.41
477.10	14260.88
477.28	14539.41
477.46	14548.77
477.64	14808.57
477.82	14984.11
478.00	15482.64
478.18	15459.24
478.36	15066.03
478.54	15620.74
478.72	15461.58
478.90	16058.42
479.08	15927.35
479.26	16046.71
479.44	16009.26
479.62	16327.58
479.80	16388.43
479.98	16655.25
480.16	16875.26
480.34	16634.19
480.52	16989.95
480.70	17085.91
480.88	16807.39
481.06	16964.20
481.24	17174.85
481.41	17184.21
481.59	17579.76
481.77	17577.42
481.95	17905.10
482.13	17778.71
482.31	17947.23
482.49	18380.23
482.67	18155.54
482.85	18658.75
483.03	19066.00
483.21	18988.77
483.39	19040.26
483.57	18881.10
483.74	19503.68
483.92	19236.86
484.10	19328.14
484.28	19779.87
484.46	20030.30
484.64	20224.57
484.82	20107.54
485.00	20233.93
485.18	20805.02
485.35	20706.72
485.53	20334.57
485.71	20926.73
485.89	21376.11
486.07	21165.46
486.25	21317.60
486.43	21413.56
486.61	21530.59
486.78	22008.06
486.96	22005.72
487.14	22511.27
487.32	22232.75
487.50	22637.66
487.68	22581.49
487.85	22499.57
488.03	23213.43
488.21	23679.20
488.39	23543.45
488.57	23606.64
488.75	23578.56
488.92	24151.99
489.10	24098.16
489.28	23852.40
489.46	24713.72
489.64	24563.92
489.81	24833.08
489.99	25322.26
490.17	24938.41
490.35	25392.47
490.53	25289.49
490.70	25685.04
490.88	25748.23
491.06	26284.22
491.24	25942.50
491.41	26209.32
491.59	26464.44
491.77	26705.51
491.95	27058.93
492.13	26965.31
492.30	27110.43
492.48	27328.10
492.66	27625.34
492.84	27536.40
493.01	27789.18
493.19	27871.10
493.37	28156.64
493.54	27999.83
493.72	28510.07
493.90	28587.30
494.08	28891.57
494.25	28903.28
494.43	29167.76
494.61	29516.50
494.79	29694.38
494.96	29584.37
495.14	29582.03
495.32	30286.53
495.49	29893.32
495.67	29935.45
495.85	30349.73
496.02	30668.04
496.20	30881.03
496.38	30918.48
496.55	30815.49
496.73	31466.16
496.91	31267.22
497.09	31543.40
497.26	31882.78
497.44	31606.59
497.62	31903.84
497.79	32449.19
497.97	32393.01
498.14	32273.65
498.32	32910.27
498.50	32929.00
498.67	32966.45
498.85	33207.52
499.03	33069.43
499.20	32954.74
499.38	33357.32
499.56	33715.42
499.73	33785.63
499.91	34061.82
500.08	34103.95
500.26	33603.07
500.44	33975.22
500.61	33776.27
500.79	34052.45
500.97	34663.33
501.14	34981.65
501.32	34859.94
501.49	34845.90
501.67	34801.43
501.84	35339.75
502.02	34909.09
502.20	35634.66
502.37	35599.55
502.55	35526.99
502.72	35374.86
502.90	36086.38
503.07	35330.39
503.25	36332.14
503.43	35686.15
503.60	36304.05
503.78	36355.54
503.95	36203.41
504.13	36446.82
504.30	36957.06
504.48	36690.24
504.65	37118.56
504.83	37123.24
505.01	37244.94
505.18	37170.05
505.36	37336.23
505.53	37198.13
505.71	37020.25
505.88	38050.09
506.06	37460.27
506.23	37748.16
506.41	37930.72
506.58	38462.02
506.76	38139.03
506.93	38675.01
507.11	38110.94
507.28	38490.11
507.46	38607.14
507.63	38745.23
507.81	38969.92
507.98	38939.49
508.16	39164.18
508.33	39108.01
508.50	39288.23
508.68	39145.46
508.85	39791.45
509.03	39398.24
509.20	39611.23
509.38	39807.83
509.55	40025.50
509.73	39768.04
509.90	40147.21
510.08	40126.14
510.25	40320.41
510.42	40411.69
510.60	40868.09
510.77	40889.16
510.95	41109.17
511.12	40299.34
511.30	41015.55
511.47	41223.86
511.64	41188.75
511.82	41647.49
511.99	41284.71
512.17	42052.41
512.34	41469.61
512.51	42199.86
512.69	42227.95
512.86	41614.72
513.04	42403.49
513.21	42405.83
513.38	42590.73
513.56	42541.58
513.73	42464.34
513.90	42359.02
514.08	42286.46
514.25	42539.24
514.43	42864.57
514.60	43332.68
514.77	43107.99
514.95	43185.22
515.12	42997.98
515.29	43189.91
515.47	43571.41
515.64	43358.42
515.81	43367.79
515.99	43917.81
516.16	44076.97
516.33	44247.83
516.51	44273.57
516.68	43882.70
516.85	44018.46
517.03	44238.47
517.20	44081.65
517.37	44278.25
517.54	44847.00
517.72	44081.65
517.89	44566.14
518.06	44479.54
518.24	44495.92
518.41	44573.16
518.58	44725.30
518.75	44446.77
518.93	45282.34
519.10	45287.03
519.27	45254.26
519.45	44816.58
519.62	45062.33
519.79	45450.86
519.96	45287.03
520.14	46012.59
520.31	45446.18
520.48	46087.49
520.65	45628.74
520.83	46085.15
521.00	46227.92
521.17	46131.96
521.34	46447.93
521.52	46452.61
521.69	46476.02
521.86	46836.46
522.03	46628.15
522.20	47023.70
522.38	46843.48
522.55	46880.93
522.72	46859.87
522.89	46761.56
523.07	47084.56
523.24	47503.51
523.41	47295.21
523.58	47271.80
523.75	47281.16
523.92	47269.46
524.10	47437.98
524.27	47941.19
524.44	47714.16
524.61	47931.83
524.78	47648.63
524.96	48193.97
525.13	47538.62
525.30	48168.22
525.47	48065.24
525.64	48123.75
525.81	48467.81
525.98	48582.50
526.16	48788.47
526.33	48687.82
526.50	48678.46
526.67	48341.42
526.84	48603.56
527.01	48779.10
527.18	48701.87
527.36	48832.94
527.53	48973.37
527.70	49153.59
527.87	49392.33
528.04	48964.01
528.21	49336.15
528.38	49095.08
528.55	49441.48
528.72	49200.40
528.89	49375.94
529.07	49521.05
529.24	49258.91
529.41	49902.56
529.58	49319.77
529.75	49539.78
529.92	49752.77
530.09	49198.06
530.26	50007.89
530.43	49839.37
530.60	49521.05
530.77	50145.98
530.94	49715.32
531.11	49848.73
531.28	49984.48
531.46	49897.88
531.63	50138.96
531.80	50506.42
531.97	50688.98
532.14	50377.69
532.31	50328.54
532.48	50314.50
532.65	50506.42
532.82	50483.01
532.99	50363.65
533.16	50270.03
533.33	50688.98
533.50	51009.64
533.67	50808.35
533.84	50684.30
534.01	50784.94
534.18	50691.32
534.35	51093.89
534.52	50808.35
534.69	51386.46
534.86	51224.96
535.03	50894.95
535.20	51061.13
535.37	51288.16
535.54	51297.52
535.71	50759.20
535.88	51196.88
536.05	51168.79
536.22	51304.54
536.38	51529.23
536.55	51758.61
536.72	51650.94
536.89	50908.99
537.06	51489.45
537.23	51686.05
537.40	51562.00
537.57	51927.13
537.74	51915.42
537.91	52053.51
538.08	52140.11
538.25	51899.04
538.42	51786.69
538.59	52030.11
538.75	51643.92
538.92	51964.57
539.09	52032.45
539.26	52273.52
539.43	52310.97
539.60	52474.81
539.77	52453.75
539.94	52090.96
540.11	52559.07
540.28	52011.38
540.44	52406.94
540.61	52378.85
540.78	52154.16
540.95	52472.47
541.12	52310.97
541.29	52500.56
541.46	52416.30
541.62	52495.88
541.79	52552.05
541.96	52161.18
542.13	52226.71
542.30	52720.57
542.47	52547.37
542.63	52863.34
542.80	52861.00
542.97	53457.84
543.14	53191.01
543.31	53329.11
543.48	53179.31
543.64	53511.67
543.81	53223.78
543.98	53364.21
544.15	53436.77
544.32	53247.19
544.48	53666.14
544.65	53464.86
544.82	53165.27
544.99	53221.44
545.16	53642.74
545.32	53095.05
545.49	53537.41
545.66	53827.64
545.83	53839.34
546.00	54199.79
546.16	53813.60
546.33	53492.94
546.50	53361.87
546.67	53631.04
546.83	53560.82
547.00	53705.93
547.17	54007.86
547.34	53731.68
547.50	54094.46
547.67	54213.83
547.84	54031.27
548.00	54277.02
548.17	54068.72
548.34	53820.62
548.51	54372.99
548.67	54232.55
548.84	54138.93
549.01	53937.65
549.18	54206.81
549.34	54354.26
549.51	54227.87
549.68	54225.53
549.84	54262.98
550.01	54277.02
550.18	54255.96
550.34	54279.36
550.51	54637.47
550.68	54478.31
550.84	54293.41
551.01	54543.84
551.18	54106.16
551.34	54295.75
551.51	54639.81
551.68	54536.82
551.84	54506.40
552.01	54583.63
552.18	54815.35
552.34	54564.91
552.51	54801.30
552.68	54546.18
552.84	54593.00
553.01	54789.60
553.18	54820.03
553.34	54934.71
553.51	54672.57
553.67	54894.92
553.84	55236.64
554.01	55224.94
554.17	55058.76
554.34	54923.01
554.51	54923.01
554.67	55182.81
554.84	55117.28
555.00	55161.75
555.17	55089.19
555.33	55103.23
555.50	55000.25
555.67	55267.07
555.83	55199.19
556.00	55152.38
556.16	55180.47
556.33	55150.04
556.50	55152.38
556.66	55255.37
556.83	55215.58
556.99	55379.42
557.16	55367.71
557.32	55487.08
557.49	55646.24
557.65	55054.08
557.82	55339.63
557.98	55334.95
558.15	55346.65
558.32	55524.53
558.48	55421.55
558.65	55311.54
558.81	55597.09
558.98	55412.18
559.14	55657.94
559.31	55433.25
559.47	55440.27
559.64	55543.25
559.80	55576.02
559.97	55714.11
560.13	55531.55
560.30	55552.62
560.46	55545.59
560.63	55402.82
560.79	55533.89
560.96	55629.85
561.12	55597.09
561.29	55758.58
561.45	55554.96
561.61	55831.14
561.78	55997.32
561.94	55938.80
562.11	55913.06
562.27	55674.32
562.44	55657.94
562.60	55744.54
562.77	55723.47
562.93	55650.92
563.10	56112.00
563.26	55524.53
563.42	56032.42
563.59	55866.25
563.75	55709.43
563.92	55938.80
564.08	55760.92
564.24	55777.31
564.41	55646.24
564.57	56069.87
564.74	55554.96
564.90	55927.10
565.07	55997.32
565.23	56095.62
565.39	55971.57
565.56	55814.76
565.72	55899.01
565.88	55817.10
566.05	55901.36
566.21	55863.91
566.38	56032.42
566.54	56088.60
566.70	56168.18
566.87	56184.56
567.03	55973.91
567.19	56257.12
567.36	55690.71
567.52	56032.42
567.68	56069.87
567.85	56016.04
568.01	56282.86
568.17	56065.19
568.34	56121.37
568.50	56301.59
568.66	56301.59
568.83	56362.44
568.99	56060.51
569.15	56158.81
569.32	56093.28
569.48	56006.68
569.64	56130.73
569.81	56123.71
569.97	56151.79
570.13	56112.00
570.30	56109.66
570.46	56264.14
570.62	56203.28
570.78	56193.92
570.95	56198.60
571.11	56142.43
571.27	56275.84
571.43	56182.22
571.60	56128.39
571.76	56313.29
571.92	56378.82
572.09	56165.84
572.25	56254.78
572.41	56266.48
572.57	56196.26
572.74	56420.95
572.90	56055.83
573.06	56207.97
573.22	56254.78
573.38	56324.99
573.55	56172.86
573.71	56659.69
573.87	56437.34
574.03	56210.31
574.20	56474.79
574.36	56280.52
574.52	56161.15
574.68	56271.16
574.84	56257.12
575.01	56439.68
575.17	56100.30
575.33	56285.20
575.49	56310.95
575.65	56404.57
575.82	56647.99
575.98	56058.17
576.14	56364.78
576.30	56378.82
576.46	56231.37
576.62	56158.81
576.79	56409.25
576.95	56076.90
577.11	56381.16
577.27	56617.56
577.43	56107.32
577.59	56313.29
577.75	56341.38
577.92	56299.25
578.08	56324.99
578.24	56203.28
578.40	56231.37
578.56	56275.84
578.72	56456.06
578.88	56514.58
579.04	56491.17
579.21	56299.25
579.37	56383.51
579.53	56392.87
579.69	56196.26
579.85	56430.32
580.01	56203.28
580.17	56303.93
580.33	56388.19
580.49	56163.50
580.65	56612.88
580.82	56655.01
580.98	56437.34
581.14	56437.34
581.30	56460.74
581.46	56367.12
581.62	56605.86
581.78	56301.59
581.94	56411.59
582.10	56413.93
582.26	56453.72
582.42	56402.23
582.58	56491.17
582.74	56633.94
582.90	56528.62
583.06	56474.79
583.22	56303.93
583.38	56420.95
583.54	56505.21
583.70	56360.10
583.86	56390.53
584.02	56376.48
584.18	56526.28
584.34	56846.93
584.50	56615.22
584.66	56493.51
584.82	56383.51
584.98	56168.18
585.14	56367.12
585.30	56147.11
585.46	56573.09
585.62	56432.66
585.78	56315.63
585.94	56420.95
586.10	56505.21
586.26	56467.76
586.42	56739.27
586.58	56713.52
586.74	56332.01
586.90	56219.67
587.06	56289.88
587.22	56608.20
587.38	56236.05
587.54	56514.58
587.70	56493.51
587.86	56575.43
588.02	56577.77
588.18	56795.44
588.34	56549.68
588.49	56645.65
588.65	56584.79
588.81	56556.70
588.97	56418.61
589.13	56624.58
589.29	56741.61
589.45	56568.41
589.61	56507.55
589.77	56516.92
589.93	56697.14
590.08	56781.40
590.24	56837.57
590.40	56655.01
590.56	56720.54
590.72	56757.99
590.88	56369.46
591.04	56722.88
591.20	56528.62
591.35	56849.27
591.51	56900.76
591.67	56823.53
591.83	56828.21
591.99	56722.88
592.15	56996.73
592.31	56947.57
592.46	56708.84
592.62	56704.16
592.78	56804.80
592.94	56512.23
593.10	56736.93
593.26	56720.54
593.41	56713.52
593.57	56512.23
593.73	56830.55
593.89	56891.40
594.05	56856.29
594.20	56739.27
594.36	56617.56
594.52	56629.26
594.68	56591.81
594.84	56552.02
594.99	56889.06
595.15	56917.15
595.31	56970.98
595.47	56802.46
595.62	56919.49
595.78	56767.35
595.94	56947.57
596.10	56633.94
596.25	56633.94
596.41	56385.85
596.57	56587.13
596.73	56608.20
596.88	56633.94
597.04	56811.82
597.20	56954.60
597.36	56872.68
597.51	57036.51
597.67	56884.38
597.83	56645.65
597.99	56968.64
598.14	56657.35
598.30	56725.22
598.46	56933.53
598.61	56837.57
598.77	56767.35
598.93	57003.75
599.09	56750.97
599.24	57176.95
599.40	56926.51
599.56	57071.62
599.71	56757.99
599.87	57120.77
600.03	56685.43
600.18	56638.62
600.34	56987.36
600.50	56659.69
600.65	56732.25
600.81	56910.13
600.97	56985.02
601.12	56678.41
601.28	56898.42
601.44	56994.39
601.59	56973.32
601.75	56839.91
601.91	56699.48
602.06	56954.60
602.22	56722.88
602.37	56610.54
602.53	56708.84
602.69	56807.14
602.84	56746.29
603.00	56978.00
603.16	56996.73
603.31	56910.13
603.47	56910.13
603.62	56779.06
603.78	56746.29
603.94	56685.43
604.09	56797.78
604.25	56760.33
604.40	56645.65
604.56	56666.71
604.71	56811.82
604.87	56715.86
605.03	56818.84
605.18	56800.12
605.34	56797.78
605.49	56575.43
605.65	56718.20
605.80	56545.00
605.96	56666.71
606.12	56526.28
606.27	56851.61
606.43	56729.90
606.58	56898.42
606.74	56720.54
606.89	56633.94
607.05	56748.63
607.20	56741.61
607.36	56306.27
607.51	56711.18
607.67	56554.36
607.82	56463.08
607.98	56257.12
608.13	56617.56
608.29	56542.66
608.44	56479.47
608.60	56701.82
608.75	56741.61
608.91	56537.98
609.06	56575.43
609.22	56444.36
609.37	56292.22
609.53	56647.99
609.68	56491.17
609.84	56390.53
609.99	56322.65
610.15	56114.34
610.30	56699.48
610.46	56425.64
610.61	56413.93
610.76	56526.28
610.92	56559.05
611.07	56559.05
611.23	56212.65
611.38	56285.20
611.54	56273.50
611.69	56420.95
611.84	56205.62
612.00	56350.74
612.15	56317.97
612.31	56320.31
612.46	56327.33
612.62	56296.91
612.77	56257.12
612.92	56512.23
613.08	56245.41
613.23	56210.31
613.39	56165.84
613.54	56140.09
613.69	56088.60
613.85	55964.55
614.00	56151.79
614.15	56299.25
614.31	56245.41
614.46	56271.16
614.62	56200.94
614.77	56348.40
614.92	56420.95
615.08	56037.11
615.23	56198.60
615.38	56214.99
615.54	55997.32
615.69	55847.52
615.84	55721.13
616.00	55767.94
616.15	56128.39
616.30	55903.70
616.46	55913.06
616.61	55999.66
616.76	56046.47
616.92	56016.04
617.07	55838.16
617.22	56079.24
617.37	55770.28
617.53	55973.91
617.68	55718.79
617.83	55325.58
617.99	55627.51
618.14	55760.92
618.29	55845.18
618.45	55700.07
618.60	55784.33
618.75	55718.79
618.90	55601.77
619.06	55751.56
619.21	55657.94
619.36	55444.95
619.51	55583.04
619.67	55360.69
619.82	55311.54
619.97	55664.96
620.12	55466.02
620.28	55498.78
620.43	55629.85
620.58	55379.42
620.73	55381.76
620.89	55669.64
621.04	55590.06
621.19	55477.72
621.34	55231.96
621.49	55288.13
621.65	55346.65
621.80	55543.25
621.95	55103.23
622.10	55372.39
622.25	55199.19
622.41	55297.50
622.56	55304.52
622.71	55187.49
622.86	55187.49
623.01	55171.11
623.16	54920.67
623.32	55463.67
623.47	55028.34
623.62	55175.79
623.77	54953.44
623.92	55194.51
624.07	54969.82
624.23	54965.14
624.38	55089.19
624.53	55023.65
624.68	55002.59
624.83	55281.11
624.98	55231.96
625.13	54915.99
625.29	55007.27
625.44	55152.38
625.59	54789.60
625.74	54745.13
625.89	54728.75
626.04	54361.28
626.19	54759.17
626.34	55114.94
626.49	54789.60
626.65	54801.30
626.80	54927.69
626.95	54733.43
627.10	54925.35
627.25	54576.61
627.40	54700.66
627.55	54700.66
627.70	54403.41
627.85	54382.35
628.00	54202.13
628.15	54501.71
628.30	54131.91
628.45	54504.06
628.60	54508.74
628.76	54370.64
628.91	54534.48
629.06	54391.71
629.21	54562.57
629.36	54798.96
629.51	54536.82
629.66	54480.65
629.81	54082.76
629.96	54082.76
630.11	54403.41
630.26	54134.25
630.41	54181.06
630.56	53827.64
630.71	54143.61
630.86	54218.51
631.01	54021.90
631.16	54419.80
631.31	54113.19
631.46	53944.67
631.61	54178.72
631.76	54031.27
631.91	54110.85
632.06	54033.61
632.21	53783.17
632.36	53923.60
632.51	53558.48
632.66	53846.36
632.81	53900.20
632.96	54176.38
633.10	54059.35
633.25	53932.96
633.40	53666.14
633.55	53923.60
633.70	53642.74
633.85	53750.40
634.00	53511.67
634.15	53727.00
634.30	53565.50
634.45	53574.86
634.60	53724.66
634.75	53652.10
634.90	53586.57
635.05	53563.16
635.19	53481.24
635.34	53591.25
635.49	53652.10
635.64	53851.05
635.79	53464.86
635.94	53275.27
636.09	53499.97
636.24	53186.33
636.39	53516.35
636.53	53195.70
636.68	53179.31
636.83	53216.76
636.98	53523.37
637.13	53088.03
637.28	53298.68
637.43	53792.53
637.57	53399.32
637.72	53127.82
637.87	53265.91
638.02	52947.60
638.17	53343.15
638.32	52804.83
638.46	53134.84
638.61	52879.72
638.76	52746.31
638.91	52856.32
639.06	53078.67
639.20	53015.47
639.35	52800.15
639.50	53113.78
639.65	53247.19
639.80	52893.77
639.94	53081.01
640.09	52772.06
640.24	52886.74
640.39	52683.12
640.54	52830.57
640.68	52835.25
640.83	52526.30
640.98	52196.29
641.13	52484.17
641.27	52495.88
641.42	52310.97
641.57	52722.91
641.72	52655.03
641.86	52816.53
642.01	52282.89
642.16	52374.17
642.31	52341.40
642.45	52491.19
642.60	52285.23
642.75	52516.94
642.90	52416.30
643.04	52186.92
643.19	52271.18
643.34	52339.06
643.48	51999.68
643.63	52301.61
643.78	52406.94
643.93	52502.90
644.07	52624.60
644.22	52425.66
644.37	52416.30
644.51	52261.82
644.66	51800.74
644.81	52030.11
644.95	51849.89
645.10	51753.93
645.25	51920.10
645.39	52037.13
645.54	52086.28
645.69	51985.64
645.83	51882.66
645.98	51700.09
646.13	52273.52
646.27	51978.62
646.42	51859.25
646.57	52172.88
646.71	51697.75
646.86	51784.35
647.00	52072.24
647.15	51316.25
647.30	51812.44
647.44	51484.76
647.59	51213.26
647.74	51737.54
647.88	51590.09
648.03	51653.28
648.17	51824.14
648.32	51938.83
648.47	51622.86
648.61	51494.13
648.76	51882.66
648.90	51526.89
649.05	51517.53
649.20	51419.23
649.34	51281.14
649.49	51033.04
649.63	51430.93
649.78	51367.74
649.92	51084.53
650.07	51852.23
650.21	51421.57
650.36	51482.42
650.51	51143.05
650.65	51636.90
650.80	51320.93
650.94	51105.60
651.09	51365.40
651.23	51014.32
651.38	50916.01
651.52	51136.02
651.67	51178.15
651.81	51051.76
651.96	51180.49
652.10	51236.67
652.25	51304.54
652.39	51026.02
652.54	51475.40
652.68	51124.32
652.83	50845.80
652.97	51318.59
653.12	51210.92
653.26	51026.02
653.41	50553.23
653.55	50529.83
653.70	50457.27
653.84	50557.91
653.99	50473.65
654.13	50740.47
654.27	50834.10
654.42	50440.89
654.56	50571.96
654.71	50770.90
654.85	50930.06
655.00	50688.98
655.14	50801.33
655.29	50286.41
655.43	51033.04
655.57	50487.70
655.72	50429.18
655.86	50344.92
656.01	49956.39
656.15	50202.15
656.30	50057.04
656.44	50258.32
656.58	50073.42
656.73	49771.49
656.87	49961.08
657.01	50115.55
657.16	50391.73
657.30	50255.98
657.45	50248.96
657.59	50213.85
657.73	50157.68
657.88	50078.10
658.02	49949.37
658.16	49675.53
658.31	49975.12
658.45	50150.66
658.60	49656.81
658.74	49727.02
658.88	49464.88
659.03	49654.47
659.17	49326.79
659.31	49649.78
659.46	49731.70
659.60	49710.64
659.74	49635.74
659.89	49492.97
660.03	49392.33
660.17	49069.33
660.32	49179.34
660.46	49294.02
660.60	49284.66
660.74	49148.91
660.89	48985.07
661.03	48793.15
661.17	48708.89
661.32	48746.34
661.46	48722.93
661.60	48594.20
661.74	48828.26
661.89	48734.63
662.03	49076.35
662.17	48783.79
662.31	48708.89
662.46	49043.59
662.60	48088.65
662.74	48193.97
662.88	48208.01
663.03	48069.92
663.17	48095.67
663.31	47849.91
663.45	47749.27
663.60	47737.57
663.74	47756.29
663.88	47899.06
664.02	48196.31
664.17	48203.33
664.31	47971.62
664.45	48170.57
664.59	47709.48
664.73	47522.24
664.88	47985.66
665.02	47592.45
665.16	47042.43
665.30	47412.23
665.44	47037.75
665.59	47114.98
665.73	46869.23
665.87	46646.88
666.01	47199.24
666.15	47054.13
666.29	47023.70
666.44	47234.35
666.58	47072.85
666.72	47049.45
666.86	47004.98
667.00	46883.27
667.14	46469.00
667.28	46831.78
667.43	46218.56
667.57	46548.57
667.71	46557.94
667.85	46373.03
667.99	46534.53
668.13	46146.00
668.27	45933.01
668.41	46340.27
668.56	45890.88
668.70	46115.58
668.84	45970.46
668.98	46052.38
669.12	45460.23
669.26	46047.70
669.40	45722.37
669.54	45823.01
669.68	45773.86
669.82	45792.58
669.96	45631.08
670.10	44949.99
670.25	45408.73
670.39	45242.56
670.53	44889.13
670.67	44697.21
670.81	45268.30
670.95	45401.71
671.09	45048.29
671.23	44980.42
671.37	45588.95
671.51	45310.43
671.65	45214.47
671.79	44596.57
671.93	44545.08
672.07	44608.27
672.21	44828.28
672.35	44177.61
672.49	44418.69
672.63	44048.88
672.77	44275.91
672.91	43793.76
673.05	43632.27
673.19	43697.80
673.33	43962.28
673.47	43814.83
673.61	43941.22
673.75	43995.05
673.89	44329.75
674.03	43824.19
674.17	43512.90
674.31	43709.50
674.45	43316.29
674.59	43063.52
674.73	42960.53
674.87	42387.10
675.01	42986.28
675.15	42761.59
675.29	42775.63
675.43	42454.98
675.56	42625.84
675.70	42419.87
675.84	42543.92
675.98	42017.30
676.12	42279.44
676.26	42644.56
676.40	42141.35
676.54	42246.67
676.68	42426.89
676.82	40524.04
676.96	41464.93
677.10	41242.58
677.23	40718.30
677.37	40863.41
677.51	40996.82
677.65	40748.73
677.79	40308.71
677.93	40671.49
678.07	40573.19
678.21	40825.96
678.34	40435.10
678.48	40315.73
678.62	40212.74
678.76	40025.50
678.90	40254.87
679.04	39725.91
679.18	39557.39
679.31	39480.16
679.45	38885.66
679.59	39000.35
679.73	39040.14
679.87	38983.96
680.00	38981.62
680.14	38967.58
680.28	38824.81
680.42	38506.49
680.56	38518.20
680.70	38359.04
680.83	38527.56
680.97	38588.41
681.11	38653.95
681.25	38321.59
681.39	38045.41
681.52	38227.97
681.66	37853.48
681.80	37825.40
681.94	37352.61
682.07	37303.46
682.21	37209.84
682.35	36964.08
682.49	37156.00
682.62	36723.01
682.76	36465.55
682.90	36669.17
683.04	36940.68
683.17	36835.35
683.31	36369.58
683.45	36980.46
683.59	36465.55
683.72	36411.71
683.86	36264.26
684.00	35454.44
684.13	35395.92
684.27	35524.65
684.41	35431.03
684.55	35164.21
684.68	35044.84
684.82	34768.66
684.96	35246.13
685.09	34890.37
685.23	34817.81
685.37	34855.26
685.50	34852.92
685.64	34471.41
685.78	34103.95
685.91	34532.26
686.05	34359.06
686.19	34153.10
686.32	34277.15
686.46	33706.05
686.60	33621.80
686.73	33266.03
686.87	33727.12
687.01	33708.40
687.14	33322.21
687.28	33275.40
687.42	32980.49
687.55	32666.86
687.69	32737.07
687.82	33076.45
687.96	32938.36
688.10	32645.79
688.23	32615.37
688.37	32823.67
688.50	32343.86
688.64	32261.94
688.78	32271.31
688.91	31562.12
689.05	31377.22
689.18	31555.10
689.32	31079.97
689.46	30742.94
689.59	31091.68
689.73	31503.61
689.86	31033.16
690.00	30939.54
690.13	31030.82
690.27	30766.34
690.41	31016.78
690.54	30375.47
690.68	30703.15
690.81	31033.16
690.95	30387.18
691.08	30307.60
691.22	29853.53
691.35	29661.61
691.49	30113.33
691.62	29993.97
691.76	29455.64
691.89	29411.17
692.03	29369.04
692.16	29280.10
692.30	28762.84
692.43	29209.89
692.57	28521.77
692.70	28931.36
692.84	28950.09
692.97	28341.55
693.11	28404.74
693.24	28613.05
693.38	27988.13
693.51	28329.84
693.65	28278.35
693.78	28379.00
693.92	28154.30
694.05	27896.85
694.19	27594.92
694.32	27370.22
694.45	27735.35
694.59	27131.49
694.72	27122.13
694.86	26972.33
694.99	26904.46
695.13	26497.20
695.26	26485.50
695.39	26202.30
695.53	26815.52
695.66	26932.54
695.80	26513.59
695.93	26572.10
696.07	26260.81
696.20	26419.97
696.33	26052.50
696.47	26197.62
696.60	26216.34
696.73	25713.13
696.87	25752.91
697.00	25570.35
697.14	25130.33
697.27	25165.44
697.40	25060.12
697.54	24875.21
697.67	24479.66
697.80	24563.92
697.94	24835.42
698.07	24814.36
698.21	24694.99
698.34	24383.70
698.47	24643.50
698.61	24051.34
698.74	24135.60
698.87	24451.58
699.01	23903.89
699.14	24039.64
699.27	23396.00
699.40	23955.38
699.54	23370.25
699.67	23119.81
699.80	23035.55
699.94	22951.29
700.07	22864.69
700.20	22750.01
700.34	22932.57
700.47	22363.82
700.60	22733.62
700.73	22881.08
700.87	22579.15
701.00	22405.95
701.13	22429.35
701.26	22272.54
701.40	22518.29
701.53	22101.68
701.66	22396.59
701.79	21635.91
701.93	21729.53
702.06	21434.63
702.19	21446.33
702.32	21802.09
702.46	21041.42
702.59	21181.85
702.72	21132.70
702.85	20819.07
702.99	20830.77
703.12	20947.79
703.25	20624.80
703.38	20868.22
703.51	20641.18
703.65	20608.42
703.78	20577.99
703.91	20332.23
704.04	20671.61
704.17	20191.80
704.31	19899.23
704.44	19892.21
704.57	19943.70
704.70	19812.63
704.83	19772.85
704.96	19578.58
705.10	19208.78
705.23	19414.74
>>>>>End Processed Spectral Data<<<<<
