SpectraSuite Data File
++++++++++++++++++++++++++++++++++++
Date: Fri Oct 18 13:54:13 GMT-05:00 2013
User: bianchi
Dark Spectrum Present: No
Reference Spectrum Present: No
Number of Sampled Component Spectra: 1
Spectrometers: USB2+H05261
Integration Time (usec): 100000 (USB2+H05261)
Spectra Averaged: 1 (USB2+H05261)
Boxcar Smoothing: 0 (USB2+H05261)
Correct for Electrical Dark: No (USB2+H05261)
Strobe/Lamp Enabled: No (USB2+H05261)
Correct for Detector Non-linearity: No (USB2+H05261)
Correct for Stray Light: No (USB2+H05261)
Number of Pixels in Processed Spectrum: 2048
>>>>>Begin Processed Spectral Data<<<<<
365.73	0.00
365.92	0.00
366.12	0.00
366.32	0.00
366.52	0.00
366.72	0.00
366.91	0.00
367.11	0.00
367.31	0.00
367.51	0.00
367.70	0.00
367.90	0.00
368.10	0.00
368.30	0.00
368.49	0.00
368.69	0.00
368.89	0.00
369.09	0.00
369.28	0.00
369.48	0.00
369.68	0.00
369.87	0.00
370.07	0.00
370.27	0.00
370.47	16.38
370.66	215.33
370.86	304.27
371.06	341.72
371.25	386.19
371.45	325.33
371.65	442.36
371.84	330.02
372.04	327.68
372.24	376.83
372.44	416.62
372.63	393.21
372.83	454.06
373.03	430.66
373.22	397.89
373.42	442.36
373.62	388.53
373.81	475.13
374.01	451.72
374.21	407.25
374.40	409.59
374.60	573.43
374.79	475.13
374.99	550.03
375.19	428.32
375.38	500.87
375.58	437.68
375.78	599.18
375.97	503.22
376.17	564.07
376.37	582.79
376.56	533.64
376.76	535.98
376.95	468.11
377.15	559.39
377.35	545.34
377.54	566.41
377.74	510.24
377.93	554.71
378.13	596.84
378.33	660.03
378.52	465.77
378.72	674.07
378.91	543.00
379.11	613.22
379.31	571.09
379.50	606.20
379.70	617.90
379.89	592.16
380.09	702.16
380.28	653.01
380.48	617.90
380.68	606.20
380.87	711.52
381.07	561.73
381.26	683.44
381.46	681.10
381.65	713.86
381.85	667.05
382.04	636.63
382.24	664.71
382.43	777.06
382.63	690.46
382.83	671.73
383.02	692.80
383.22	763.01
383.41	713.86
383.61	711.52
383.80	802.80
384.00	755.99
384.19	706.84
384.39	784.08
384.58	774.72
384.78	791.10
384.97	802.80
385.17	805.14
385.36	847.27
385.56	861.32
385.75	763.01
385.95	774.72
386.14	791.10
386.34	870.68
386.53	851.96
386.72	786.42
386.92	877.70
387.11	807.48
387.31	940.90
387.50	858.98
387.70	835.57
387.89	786.42
388.09	891.74
388.28	884.72
388.48	898.77
388.67	947.92
388.86	887.06
389.06	961.96
389.25	1053.24
389.45	1034.52
389.64	999.41
389.84	1004.09
390.03	990.05
390.22	954.94
390.42	997.07
390.61	1006.43
390.81	976.00
391.00	1097.71
391.19	1074.31
391.39	1074.31
391.58	1025.15
391.78	1083.67
391.97	1071.97
392.16	1008.77
392.36	1160.91
392.55	1069.62
392.75	1097.71
392.94	1170.27
393.13	1132.82
393.33	1214.74
393.52	1165.59
393.71	1186.65
393.91	1214.74
394.10	1156.22
394.29	1200.69
394.49	1224.10
394.68	1238.14
394.88	1174.95
395.07	1256.87
395.26	1158.57
395.46	1273.25
395.65	1397.30
395.84	1334.11
396.04	1453.47
396.23	1291.98
396.42	1352.83
396.62	1331.76
396.81	1390.28
397.00	1350.49
397.19	1380.92
397.39	1366.87
397.58	1423.05
397.77	1504.96
397.97	1413.68
398.16	1420.71
398.35	1523.69
398.55	1486.24
398.74	1544.75
398.93	1469.86
399.12	1378.58
399.32	1493.26
399.51	1519.01
399.70	1537.73
399.90	1504.96
400.09	1629.01
400.28	1598.59
400.47	1661.78
400.67	1577.52
400.86	1727.32
401.05	1647.74
401.24	1710.93
401.44	1659.44
401.63	1792.85
401.82	1762.42
402.01	1708.59
402.21	1664.12
402.40	1743.70
402.59	1804.55
402.78	1849.02
402.97	1774.13
403.17	1884.13
403.36	1877.11
403.55	1727.32
403.74	1844.34
403.93	1863.07
404.13	2012.86
404.32	1959.03
404.51	1818.60
404.70	2052.65
404.89	1973.07
405.09	2031.58
405.28	1914.56
405.47	2047.97
405.66	2064.35
405.85	2162.66
406.05	2076.06
406.24	2183.72
406.43	2080.74
406.62	2223.51
406.81	2328.83
407.00	2228.19
407.20	2230.53
407.39	2186.06
407.58	2314.79
407.77	2314.79
407.96	2415.43
408.15	2370.96
408.34	2246.91
408.54	2354.58
408.73	2359.26
408.92	2427.14
409.11	2406.07
409.30	2478.63
409.49	2464.58
409.68	2429.48
409.87	2399.05
410.07	2576.93
410.26	2537.14
410.45	2593.31
410.64	2602.68
410.83	2670.55
411.02	2597.99
411.21	2757.15
411.40	2780.56
411.59	2679.91
411.78	2883.54
411.98	2712.68
412.17	2860.13
412.36	2698.64
412.55	3014.61
412.74	2974.82
412.93	3026.31
413.12	2829.71
413.31	3166.74
413.50	3000.57
413.69	3030.99
413.88	3033.33
414.07	3141.00
414.26	3124.62
414.45	3096.53
414.64	3253.34
414.83	3307.18
415.02	3325.90
415.22	3449.95
415.41	3459.31
415.60	3396.12
415.79	3475.70
415.98	3517.83
416.17	3545.91
416.36	3618.47
416.55	3592.72
416.74	3566.98
416.93	3669.96
417.12	3714.43
417.31	3658.26
417.50	3744.86
417.69	3859.54
417.88	3911.04
418.07	3754.22
418.26	3878.27
418.45	3969.55
418.64	4011.68
418.83	4056.15
419.02	4007.00
419.21	4093.60
419.39	4030.40
419.58	3934.44
419.77	3925.08
419.96	4023.38
420.15	4194.24
420.34	4203.60
420.53	4215.30
420.72	4215.30
420.91	4259.78
421.10	4362.76
421.29	4400.21
421.48	4299.56
421.67	4372.12
421.86	4369.78
422.05	4404.89
422.24	4472.76
422.43	4521.92
422.61	4400.21
422.80	4512.55
422.99	4458.72
423.18	4507.87
423.37	4566.39
423.56	4444.68
423.75	4496.17
423.94	4526.60
424.13	4215.30
424.32	4404.89
424.50	4596.81
424.69	4629.58
424.88	4762.99
425.07	4519.57
425.26	4437.66
425.45	4472.76
425.64	4634.26
425.83	4664.69
426.01	4636.60
426.20	4510.21
426.39	4688.09
426.58	4585.11
426.77	4636.60
426.96	4767.67
427.15	4739.58
427.33	4725.54
427.52	4889.38
427.71	4807.46
427.90	4882.36
428.09	4901.08
428.28	4912.78
428.46	4901.08
428.65	4931.51
428.84	4992.36
429.03	5160.88
429.22	4891.72
429.40	4987.68
429.59	5177.26
429.78	4968.96
429.97	4882.36
430.16	4999.38
430.34	5116.41
430.53	5165.56
430.72	5296.63
430.91	5273.23
431.10	5177.26
431.28	5284.93
431.47	5401.96
431.66	5462.81
431.85	5226.42
432.03	5451.11
432.22	5483.88
432.41	5399.62
432.60	5329.40
432.79	5600.90
432.97	5504.94
433.16	5507.28
433.35	5483.88
433.54	5778.78
433.72	5834.96
433.91	5575.16
434.10	5671.12
434.28	5561.11
434.47	5802.19
434.66	5776.44
434.85	5832.62
435.03	5841.98
435.22	5853.68
435.41	6008.16
435.59	5975.39
435.78	5928.58
435.97	5963.68
436.16	5858.36
436.34	5982.41
436.53	6104.12
436.72	6260.93
436.90	6008.16
437.09	6129.86
437.28	5937.94
437.46	6118.16
437.65	6244.55
437.84	6403.71
438.02	6155.61
438.21	6146.25
438.40	6218.80
438.58	6480.94
438.77	6525.41
438.96	6700.95
439.14	6642.44
439.33	6722.02
439.52	6696.27
439.70	6878.83
439.89	6862.45
440.08	6878.83
440.26	6803.94
440.45	6890.54
440.63	6998.20
440.82	7077.78
441.01	7096.50
441.19	7213.53
441.38	7068.42
441.57	7082.46
441.75	7293.11
441.94	7119.91
442.12	7339.92
442.31	7475.67
442.50	7323.54
442.68	7269.70
442.87	7658.23
443.05	7590.36
443.24	7728.45
443.43	7543.55
443.61	7557.59
443.80	7878.24
443.98	7541.21
444.17	7166.72
444.35	7538.87
444.54	7946.12
444.73	7588.02
444.91	7714.41
445.10	7861.86
445.28	7705.04
445.47	7667.60
445.65	7784.62
445.84	7854.84
446.02	7833.77
446.21	8016.33
446.39	7740.15
446.58	7801.01
446.77	7932.08
446.95	7679.30
447.14	8002.29
447.32	8121.66
447.51	7887.61
447.69	7857.18
447.88	8051.44
448.06	7978.89
448.25	8013.99
448.43	8070.17
448.62	7997.61
448.80	7953.14
448.99	8119.32
449.17	8250.39
449.36	8124.00
449.54	8292.52
449.73	8348.69
449.91	8187.19
450.10	8318.26
450.28	8285.50
450.46	8374.44
450.65	8454.02
450.83	8482.10
451.02	8344.01
451.20	8458.70
451.39	8606.15
451.57	8535.93
451.76	8500.83
451.94	8587.43
452.13	8863.61
452.31	8547.64
452.49	8416.57
452.68	8793.39
452.86	8486.78
453.05	8889.35
453.23	8622.53
453.42	8610.83
453.60	8793.39
453.78	8624.87
453.97	8723.18
454.15	8945.53
454.34	8863.61
454.52	8999.36
454.70	8872.97
454.89	9067.24
455.07	9123.41
455.26	9018.08
455.44	9282.56
455.62	9385.55
455.81	9172.56
455.99	9092.98
456.17	9146.81
456.36	9460.45
456.54	9390.23
456.73	9556.41
456.91	9802.16
457.09	9661.73
457.28	9809.19
457.46	9561.09
457.64	9851.31
457.83	9703.86
458.01	9689.82
458.19	9949.62
458.38	9778.76
458.56	9776.42
458.74	9951.96
458.93	9923.87
459.11	9968.34
459.29	9832.59
459.48	10052.60
459.66	10118.14
459.84	10225.80
460.03	10178.99
460.21	10239.84
460.39	10347.51
460.57	10310.06
460.76	10321.76
460.94	10480.92
461.12	10487.94
461.31	10445.81
461.49	10546.45
461.67	10380.28
461.85	10775.83
462.04	10595.61
462.22	11192.44
462.40	10726.68
462.59	10808.59
462.77	10738.38
462.95	10731.36
463.13	10546.45
463.32	10841.36
463.50	10885.83
463.68	11054.35
463.86	10888.17
464.05	10878.81
464.23	10691.57
464.41	10913.92
464.59	10721.99
464.78	11269.68
464.96	11110.52
465.14	10944.34
465.32	11206.48
465.50	11342.24
465.69	11370.32
465.87	11176.06
466.05	11248.61
466.23	11262.66
466.41	11487.35
466.60	11660.55
466.78	11435.86
466.96	11304.79
467.14	11323.51
467.32	11377.34
467.51	11613.74
467.69	11562.25
467.87	11393.73
468.05	11672.25
468.23	11332.87
468.41	11447.56
468.60	11531.82
468.78	12023.33
468.96	11705.02
469.14	12128.66
469.32	12028.01
469.50	11674.59
469.69	11939.07
469.87	12154.40
470.05	12060.78
470.23	11978.86
470.41	11955.46
470.59	12313.56
470.77	12105.25
470.95	12135.68
471.14	12423.56
471.32	12353.35
471.50	12531.23
471.68	12386.12
471.86	12631.87
472.04	12622.51
472.22	12912.74
472.40	12479.74
472.58	12961.89
472.77	12950.18
472.95	13095.30
473.13	13532.98
473.31	13078.91
473.49	13029.76
473.67	13277.86
473.85	13193.60
474.03	13568.09
474.21	13434.68
474.39	13315.31
474.57	13872.36
474.75	13661.71
474.93	14052.58
475.12	13748.31
475.30	13724.90
475.48	13701.50
475.66	13984.70
475.84	14193.01
476.02	14200.03
476.20	14312.38
476.38	14792.19
476.56	14686.86
476.74	14642.39
476.92	14651.75
477.10	14494.94
477.28	14710.27
477.46	14799.21
477.64	15068.37
477.82	15241.57
478.00	15470.94
478.18	15578.61
478.36	15852.45
478.54	15800.96
478.72	16123.95
478.90	15971.82
479.08	16297.15
479.26	16341.62
479.44	16358.00
479.62	16376.73
479.80	16908.03
479.98	16648.23
480.16	16802.71
480.34	16996.97
480.52	17039.10
480.70	17191.23
480.88	17128.04
481.06	17242.73
481.24	17474.44
481.41	17687.43
481.59	18040.85
481.77	17991.70
481.95	18150.85
482.13	18211.71
482.31	18141.49
482.49	18523.00
482.67	18600.24
482.85	18974.72
483.03	19066.00
483.21	19466.24
483.39	19356.23
483.57	19384.32
483.74	19482.62
483.92	19658.16
484.10	19634.75
484.28	20163.72
484.46	20435.22
484.64	20776.94
484.82	20095.84
485.00	20685.65
485.18	20589.69
485.35	21317.60
485.53	20980.56
485.71	21507.18
485.89	21490.80
486.07	21570.38
486.25	21738.90
486.43	22202.32
486.61	21785.71
486.78	22352.12
486.96	22391.91
487.14	22860.01
487.32	22714.90
487.50	23250.88
487.68	22867.03
487.85	23515.36
488.03	23440.47
488.21	23704.95
488.39	23800.91
488.57	24100.50
488.75	24107.52
488.92	24453.92
489.10	24603.71
489.28	24816.70
489.46	24996.92
489.64	25156.08
489.81	25443.96
489.99	25383.11
490.17	25411.20
490.35	25731.85
490.53	26045.48
490.70	26223.36
490.88	26377.84
491.06	26377.84
491.24	26658.70
491.41	26796.79
491.59	26632.96
491.77	27000.42
491.95	27520.02
492.13	27580.87
492.30	27428.74
492.48	27878.12
492.66	27756.41
492.84	27941.32
493.01	28524.11
493.19	28095.79
493.37	28545.17
493.54	28767.52
493.72	28765.18
493.90	29303.51
494.08	29324.57
494.25	29757.57
494.43	29682.67
494.61	29701.40
494.79	30045.46
494.96	30082.91
495.14	30181.21
495.32	30347.39
495.49	30501.86
495.67	30579.10
495.85	30946.56
496.02	31339.77
496.20	31119.76
496.38	31264.88
496.55	31304.67
496.73	31952.99
496.91	31887.46
497.09	32353.23
497.26	32481.95
497.44	32140.24
497.62	32257.26
497.79	32898.57
497.97	32690.26
498.14	32945.38
498.32	33312.84
498.50	33205.18
498.67	33532.86
498.85	33287.10
499.03	33696.69
499.20	33837.12
499.38	33813.72
499.56	34270.12
499.73	34455.03
499.91	34277.15
500.08	34742.91
500.26	34314.59
500.44	34976.97
500.61	34792.06
500.79	34958.24
500.97	35372.52
501.14	35559.76
501.32	35686.15
501.49	35510.61
501.67	35709.55
501.84	35950.63
502.02	35765.73
502.20	35676.79
502.37	35917.86
502.55	36229.15
502.72	36177.66
502.90	36486.61
503.07	36161.28
503.25	36657.47
503.43	36605.98
503.60	36935.99
503.78	37050.68
503.95	37036.64
504.13	37338.57
504.30	37233.24
504.48	37088.13
504.65	37923.70
504.83	37792.63
505.01	37895.61
505.18	37813.70
505.36	38653.95
505.53	38387.13
505.71	38405.85
505.88	38361.38
506.06	37937.74
506.23	38845.87
506.41	38611.82
506.58	38878.64
506.76	38883.32
506.93	38892.68
507.11	38913.75
507.28	39255.46
507.46	39108.01
507.63	39587.82
507.81	39611.23
507.98	39201.63
508.16	39662.72
508.33	39887.41
508.50	39892.09
508.68	39653.36
508.85	40538.08
509.03	40421.05
509.20	40219.77
509.38	40502.97
509.55	40465.52
509.73	40807.24
509.90	40879.80
510.08	40676.17
510.25	40905.54
510.42	40786.18
510.60	41310.46
510.77	41603.02
510.95	41680.26
511.12	41177.04
511.30	41464.93
511.47	41820.69
511.64	42141.35
511.82	42492.43
511.99	42082.83
512.17	42176.45
512.34	41883.89
512.51	42347.31
512.69	42913.72
512.86	42864.57
513.04	42976.92
513.21	42803.72
513.38	42990.96
513.56	43304.59
513.73	43028.41
513.90	43086.92
514.08	43119.69
514.25	43660.35
514.43	43697.80
514.60	43966.96
514.77	44168.25
514.95	44215.06
515.12	43686.10
515.29	43576.09
515.47	44336.77
515.64	44247.83
515.81	44470.18
515.99	44521.67
516.16	44949.99
516.33	44671.46
516.51	44832.96
516.68	44509.97
516.85	44926.58
517.03	44942.97
517.20	45457.88
517.37	44996.80
517.54	45467.25
517.72	45287.03
517.89	45230.85
518.06	45614.70
518.24	45436.82
518.41	45570.23
518.58	45551.51
518.75	45904.93
518.93	45977.48
519.10	45715.34
519.27	46195.15
519.45	46045.36
519.62	46010.25
519.79	46211.54
519.96	46550.91
520.14	46777.95
520.31	46429.21
520.48	46330.90
520.65	46635.17
520.83	46560.28
521.00	46724.11
521.17	47119.66
521.34	46806.03
521.52	46960.51
521.69	47203.92
521.86	47660.33
522.03	47611.18
522.20	47278.82
522.38	47643.94
522.55	47613.52
522.72	47466.06
522.89	47882.68
523.07	48282.91
523.24	47662.67
523.41	47917.79
523.58	48030.13
523.75	48453.77
523.92	48177.59
524.10	48098.01
524.27	48514.62
524.44	48741.66
524.61	48531.01
524.78	48868.05
524.96	48741.66
525.13	48397.60
525.30	48774.42
525.47	48961.67
525.64	48919.54
525.81	49188.70
525.98	49317.43
526.16	49397.01
526.33	49059.97
526.50	49443.82
526.67	49226.15
526.84	49111.46
527.01	49113.80
527.18	49682.55
527.36	49488.29
527.53	49727.02
527.70	49586.59
527.87	50010.23
528.04	49677.87
528.21	49727.02
528.38	49804.26
528.55	49918.95
528.72	49621.70
528.89	50202.15
529.07	49951.71
529.24	49954.05
529.41	50225.56
529.58	50239.60
529.75	50391.73
529.92	50197.47
530.09	50480.67
530.26	50450.25
530.43	50569.61
530.60	50396.42
530.77	50635.15
530.94	50850.48
531.11	51002.61
531.28	50747.50
531.46	50707.71
531.63	50918.35
531.80	50986.23
531.97	50871.54
532.14	51222.62
532.31	50993.25
532.48	51231.99
532.65	50871.54
532.82	51119.64
532.99	50754.52
533.16	51292.84
533.33	51269.43
533.50	51622.86
533.67	51505.83
533.84	51470.72
534.01	51210.92
534.18	51386.46
534.35	51863.93
534.52	51426.25
534.69	51945.85
534.86	51976.28
535.03	51770.31
535.20	51973.94
535.37	52072.24
535.54	51950.53
535.71	51828.82
535.88	51672.01
536.05	51910.74
536.22	52261.82
536.38	52151.82
536.55	52310.97
536.72	52308.63
536.89	52055.85
537.06	52130.75
537.23	52488.85
537.40	52406.94
537.57	52268.84
537.74	52474.81
537.91	52683.12
538.08	52861.00
538.25	52591.84
538.42	52488.85
538.59	52659.71
538.75	52095.64
538.92	52636.31
539.09	52582.48
539.26	52816.53
539.43	52914.83
539.60	53045.90
539.77	52861.00
539.94	53066.97
540.11	53057.60
540.28	53240.17
540.44	53015.47
540.61	52865.68
540.78	52935.90
540.95	53235.48
541.12	53301.02
541.29	53354.85
541.46	53155.91
541.62	53212.08
541.79	53312.72
541.96	53031.86
542.13	53301.02
542.30	53511.67
542.47	53689.55
542.63	53738.70
542.80	53502.31
542.97	53902.54
543.14	54012.54
543.31	53628.69
543.48	53586.57
543.64	54021.90
543.81	53909.56
543.98	53874.45
544.15	53757.42
544.32	53996.16
544.48	54209.15
544.65	53832.32
544.82	53963.39
544.99	53600.61
545.16	54080.42
545.32	53869.77
545.49	54576.61
545.66	54485.33
545.83	54527.46
546.00	54564.91
546.16	54372.99
546.33	54019.56
546.50	53916.58
546.67	54096.80
546.83	54330.86
547.00	54356.60
547.17	54258.30
547.34	54532.14
547.50	54574.27
547.67	54773.22
547.84	54639.81
548.00	54752.15
548.17	54543.84
548.34	54380.01
548.51	54836.41
548.67	54808.32
548.84	54862.16
549.01	54770.88
549.18	54719.38
549.34	54915.99
549.51	54787.26
549.68	54827.05
549.84	54637.47
550.01	54864.50
550.18	54834.07
550.34	54897.27
550.51	55388.78
550.68	55285.79
550.84	54993.23
551.01	55164.09
551.18	55025.99
551.34	55023.65
551.51	54838.75
551.68	55201.53
551.84	55351.33
552.01	55213.24
552.18	55236.64
552.34	55262.39
552.51	55393.46
552.68	55164.09
552.84	55231.96
553.01	55365.37
553.18	55363.03
553.34	55512.83
553.51	55643.90
553.67	55461.33
553.84	55613.47
554.01	55803.05
554.17	55552.62
554.34	55484.74
554.51	55398.14
554.67	55800.71
554.84	55611.13
555.00	55646.24
555.17	55810.07
555.33	55763.26
555.50	55613.47
555.67	55751.56
555.83	55547.93
556.00	55667.30
556.16	55842.84
556.33	55763.26
556.50	55667.30
556.66	55964.55
556.83	55519.85
556.99	55840.50
557.16	56016.04
557.32	56039.45
557.49	55959.87
557.65	55767.94
557.82	55791.35
557.98	55915.40
558.15	55922.42
558.32	56023.06
558.48	56116.68
558.65	56039.45
558.81	55959.87
558.98	56236.05
559.14	56112.00
559.31	55866.25
559.47	56114.34
559.64	56374.14
559.80	56207.97
559.97	56203.28
560.13	56030.08
560.30	56055.83
560.46	56074.55
560.63	56378.82
560.79	56203.28
560.96	56238.39
561.12	56009.02
561.29	56287.54
561.45	56388.19
561.61	56456.06
561.78	56631.60
561.94	56275.84
562.11	56203.28
562.27	56236.05
562.44	56371.80
562.60	56088.60
562.77	56224.35
562.93	56362.44
563.10	56243.07
563.26	56301.59
563.42	56608.20
563.59	56657.35
563.75	56399.89
563.92	56594.15
564.08	56406.91
564.24	56519.26
564.41	56453.72
564.57	56254.78
564.74	56432.66
564.90	56566.07
565.07	56535.64
565.23	56720.54
565.39	56493.51
565.56	56350.74
565.72	56437.34
565.88	56584.79
566.05	56561.39
566.21	56467.76
566.38	56498.19
566.54	56409.25
566.70	56549.68
566.87	56926.51
567.03	56498.19
567.19	56676.07
567.36	56521.60
567.52	56556.70
567.68	56622.24
567.85	56633.94
568.01	56793.10
568.17	56741.61
568.34	56935.87
568.50	56732.25
568.66	56594.15
568.83	56818.84
568.99	56690.12
569.15	56622.24
569.32	56638.62
569.48	56587.13
569.64	56432.66
569.81	56584.79
569.97	56746.29
570.13	56928.85
570.30	56783.74
570.46	56772.03
570.62	56715.86
570.78	56741.61
570.95	56797.78
571.11	56652.67
571.27	56631.60
571.43	56582.45
571.60	56952.26
571.76	56903.10
571.92	56844.59
572.09	56769.69
572.25	56772.03
572.41	56664.37
572.57	56903.10
572.74	56917.15
572.90	56718.20
573.06	56664.37
573.22	56640.96
573.38	56933.53
573.55	56858.63
573.71	57069.28
573.87	57017.79
574.03	56809.48
574.20	56996.73
574.36	56907.79
574.52	56858.63
574.68	56839.91
574.84	56750.97
575.01	57022.47
575.17	57071.62
575.33	56774.37
575.49	57006.09
575.65	57464.83
575.82	57284.61
575.98	56797.78
576.14	57071.62
576.30	56870.34
576.46	56807.14
576.62	56662.03
576.79	56734.59
576.95	56907.79
577.11	56868.00
577.27	56882.04
577.43	56947.57
577.59	56830.55
577.75	56856.29
577.92	56687.78
578.08	56872.68
578.24	57073.96
578.40	56898.42
578.56	57041.20
578.72	56896.08
578.88	57153.54
579.04	56989.70
579.21	56942.89
579.37	57125.46
579.53	57088.01
579.69	56949.92
579.85	56886.72
580.01	56804.80
580.17	56739.27
580.33	56856.29
580.49	56994.39
580.65	57153.54
580.82	57003.75
580.98	56877.36
581.14	56903.10
581.30	57235.46
581.46	56961.62
581.62	56968.64
581.78	56783.74
581.94	56987.36
582.10	56825.87
582.26	57113.75
582.42	56959.28
582.58	56966.30
582.74	57008.43
582.90	56905.44
583.06	57165.24
583.22	57113.75
583.38	56982.68
583.54	56910.13
583.70	57146.52
583.86	57041.20
584.02	56760.33
584.18	57099.71
584.34	56992.04
584.50	57382.91
584.66	57029.49
584.82	56921.83
584.98	57034.17
585.14	56905.44
585.30	56800.12
585.46	57043.54
585.62	56898.42
585.78	57188.65
585.94	56851.61
586.10	57146.52
586.26	57188.65
586.42	57080.98
586.58	57223.76
586.74	56999.07
586.90	57099.71
587.06	57076.30
587.22	57155.88
587.38	56966.30
587.54	57319.72
587.70	57193.33
587.86	57137.16
588.02	56992.04
588.18	57167.58
588.34	57006.09
588.49	57179.29
588.65	57080.98
588.81	56959.28
588.97	57160.56
589.13	56940.55
589.29	57104.39
589.45	57113.75
589.61	57090.35
589.77	57263.55
589.93	57352.49
590.08	57319.72
590.24	57265.89
590.40	57354.83
590.56	57380.57
590.72	57069.28
590.88	57240.14
591.04	57083.33
591.20	57418.02
591.35	57366.53
591.51	57584.20
591.67	57469.51
591.83	57455.47
591.99	57385.25
592.15	57420.36
592.31	57429.72
592.46	57226.10
592.62	57284.61
592.78	57158.22
592.94	57200.35
593.10	57371.21
593.26	57350.15
593.41	57467.17
593.57	57364.19
593.73	57127.80
593.89	57441.43
594.05	57160.56
594.20	57024.81
594.36	57111.41
594.52	57174.61
594.68	57031.83
594.84	57373.55
594.99	57434.41
595.15	57200.35
595.31	57399.30
595.47	57612.29
595.62	57584.20
595.78	57226.10
595.94	57373.55
596.10	57263.55
596.25	57153.54
596.41	57272.91
596.57	57214.40
596.73	57394.62
596.88	57378.23
597.04	57434.41
597.20	57506.96
597.36	57396.96
597.51	57413.34
597.67	57511.64
597.83	57371.21
597.99	57593.56
598.14	57254.18
598.30	57439.09
598.46	57247.16
598.61	57518.67
598.77	56999.07
598.93	57144.18
599.09	57359.51
599.24	57570.16
599.40	57462.49
599.56	57490.58
599.71	57368.87
599.87	57537.39
600.03	57352.49
600.18	57305.68
600.34	57523.35
600.50	57467.17
600.65	57324.40
600.81	57715.27
600.97	57652.08
601.12	57661.44
601.28	57499.94
601.44	57656.76
601.59	57415.68
601.75	57469.51
601.91	57717.61
602.06	57448.45
602.22	57389.94
602.37	57277.59
602.53	57408.66
602.69	57570.16
602.84	57408.66
603.00	57642.71
603.16	57453.13
603.31	57305.68
603.47	57219.08
603.62	57396.96
603.78	57602.92
603.94	57160.56
604.09	57310.36
604.25	57251.84
604.40	57233.12
604.56	57233.12
604.71	57448.45
604.87	57436.75
605.03	57499.94
605.18	57368.87
605.34	57401.64
605.49	57064.60
605.65	57513.98
605.80	57001.41
605.96	57052.90
606.12	57022.47
606.27	57240.14
606.43	57230.78
606.58	57584.20
606.74	57237.80
606.89	57322.06
607.05	57158.22
607.20	57237.80
607.36	57097.37
607.51	57293.97
607.67	57085.67
607.82	56905.44
607.98	57205.03
608.13	57317.38
608.29	57097.37
608.44	57123.11
608.60	56975.66
608.75	57275.25
608.91	57315.04
609.06	57006.09
609.22	57256.53
609.37	56793.10
609.53	57088.01
609.68	57003.75
609.84	56790.76
609.99	56970.98
610.15	56954.60
610.30	56914.81
610.46	56952.26
610.61	56999.07
610.76	56985.02
610.92	56980.34
611.07	56886.72
611.23	56938.21
611.38	56856.29
611.54	56910.13
611.69	57022.47
611.84	56666.71
612.00	56626.92
612.15	56823.53
612.31	57092.69
612.46	56914.81
612.62	57181.63
612.77	56973.32
612.92	57167.58
613.08	56896.08
613.23	57076.30
613.39	56825.87
613.54	56584.79
613.69	56767.35
613.85	56582.45
614.00	56685.43
614.15	56980.34
614.31	56722.88
614.46	56701.82
614.62	56947.57
614.77	56877.36
614.92	56907.79
615.08	56584.79
615.23	56891.40
615.38	56910.13
615.54	56512.23
615.69	56287.54
615.84	56537.98
616.00	56816.50
616.15	56687.78
616.30	56552.02
616.46	56657.35
616.61	56587.13
616.76	56790.76
616.92	56399.89
617.07	56605.86
617.22	56523.94
617.37	56402.23
617.53	56708.84
617.68	56259.46
617.83	56207.97
617.99	56163.50
618.14	56353.08
618.29	56257.12
618.45	56322.65
618.60	56327.33
618.75	56245.41
618.90	56423.29
619.06	56460.74
619.21	56339.04
619.36	56285.20
619.51	56212.65
619.67	55859.23
619.82	56065.19
619.97	56126.05
620.12	55896.67
620.28	55786.67
620.43	56332.01
620.58	56165.84
620.73	56147.11
620.89	56268.82
621.04	56168.18
621.19	56210.31
621.34	56107.32
621.49	56090.94
621.65	55978.59
621.80	55973.91
621.95	55894.33
622.10	55880.29
622.25	56023.06
622.41	55681.34
622.56	55774.97
622.71	55945.83
622.86	55842.84
623.01	55917.74
623.16	55744.54
623.32	55648.58
623.47	55922.42
623.62	55849.86
623.77	55550.27
623.92	55707.09
624.07	55695.39
624.23	56016.04
624.38	55957.53
624.53	55341.97
624.68	55611.13
624.83	56104.98
624.98	55662.62
625.13	55700.07
625.29	55707.09
625.44	55824.12
625.59	55501.12
625.74	55145.36
625.89	55346.65
626.04	55426.23
626.19	55372.39
626.34	55246.00
626.49	55461.33
626.65	55423.89
626.80	55627.51
626.95	55412.18
627.10	55234.30
627.25	55363.03
627.40	55103.23
627.55	55131.32
627.70	55416.86
627.85	54946.42
628.00	54876.20
628.15	55061.10
628.30	54983.86
628.45	55238.98
628.60	55154.72
628.76	55154.72
628.91	55107.91
629.06	55124.30
629.21	55147.70
629.36	55049.40
629.51	54986.21
629.66	54995.57
629.81	54534.48
629.96	54703.00
630.11	54756.83
630.26	54761.51
630.41	54710.02
630.56	54653.85
630.71	54930.03
630.86	54862.16
631.01	54997.91
631.16	54908.97
631.31	55112.59
631.46	54688.96
631.61	54955.78
631.76	54543.84
631.91	54688.96
632.06	54539.16
632.21	54499.37
632.36	54438.52
632.51	54227.87
632.66	54532.14
632.81	54401.07
632.96	54672.57
633.10	54534.48
633.25	54536.82
633.40	54548.53
633.55	54513.42
633.70	54422.14
633.85	54064.03
634.00	54417.46
634.15	54731.09
634.30	54010.20
634.45	54485.33
634.60	54574.27
634.75	54288.73
634.90	54314.47
635.05	54571.93
635.19	54337.88
635.34	54398.73
635.49	54443.20
635.64	54169.36
635.79	54012.54
635.94	53951.69
636.09	54326.17
636.24	54038.29
636.39	53989.14
636.53	54000.84
636.68	54033.61
636.83	54066.38
636.98	54045.31
637.13	54003.18
637.28	54040.63
637.43	54019.56
637.57	54003.18
637.72	53897.86
637.87	53708.27
638.02	53719.98
638.17	53654.44
638.32	53638.06
638.46	53661.46
638.61	53525.71
638.76	53460.18
638.91	53628.69
639.06	53673.16
639.20	53537.41
639.35	53888.49
639.50	53504.65
639.65	53748.06
639.80	53638.06
639.94	53570.18
640.09	53574.86
640.24	53279.96
640.39	53511.67
640.54	53420.39
640.68	53502.31
640.83	53191.01
640.98	53160.59
641.13	52978.03
641.27	53329.11
641.42	53268.25
641.57	53165.27
641.72	53322.08
641.86	53305.70
642.01	53085.69
642.16	53193.36
642.31	53169.95
642.45	53151.23
642.60	52949.94
642.75	52739.29
642.90	53097.39
643.04	52839.93
643.19	53162.93
643.34	52795.46
643.48	52514.60
643.63	53193.36
643.78	53179.31
643.93	53223.78
644.07	53207.40
644.22	52809.51
644.37	53041.22
644.51	52720.57
644.66	53165.27
644.81	52772.06
644.95	52603.54
645.10	52795.46
645.25	52648.01
645.39	52678.44
645.54	52683.12
645.69	52678.44
645.83	52982.71
645.98	52601.20
646.13	52652.69
646.27	52760.36
646.42	52568.43
646.57	52774.40
646.71	52685.46
646.86	52610.56
647.00	52636.31
647.15	52472.47
647.30	52140.11
647.44	52348.42
647.59	52449.06
647.74	52207.99
647.88	52640.99
648.03	52481.83
648.17	52411.62
648.32	52648.01
648.47	52350.76
648.61	52200.97
648.76	52233.74
648.90	51913.08
649.05	52116.71
649.20	52107.35
649.34	51985.64
649.49	52016.07
649.63	51892.02
649.78	52257.14
649.92	51739.88
650.07	52299.27
650.21	51976.28
650.36	52065.22
650.51	51990.32
650.65	52502.90
650.80	51908.40
650.94	51908.40
651.09	52334.38
651.23	51903.72
651.38	51758.61
651.52	51955.21
651.67	51620.52
651.81	51882.66
651.96	51782.01
652.10	51908.40
652.25	51714.14
652.39	51812.44
652.54	51838.18
652.68	51948.19
652.83	51641.58
652.97	52004.36
653.12	51835.84
653.26	51442.63
653.41	51789.03
653.55	51547.96
653.70	51250.71
653.84	51351.35
653.99	51540.94
654.13	51543.28
654.27	51442.63
654.42	51569.02
654.56	51562.00
654.71	51515.19
654.85	51224.96
655.00	51601.79
655.14	51285.82
655.29	51138.36
655.43	51442.63
655.57	50890.27
655.72	51337.31
655.86	50976.87
656.01	51138.36
656.15	50698.34
656.30	50997.93
656.44	51157.09
656.58	50845.80
656.73	50939.42
656.87	50932.40
657.01	51157.09
657.16	51423.91
657.30	51405.19
657.45	50974.53
657.59	50969.85
657.73	50663.24
657.88	50719.41
658.02	50405.78
658.16	50487.70
658.31	50562.59
658.45	50948.78
658.60	50185.77
658.74	50560.25
658.88	50408.12
659.03	50471.31
659.17	50623.45
659.31	50600.04
659.46	50295.77
659.60	50618.77
659.74	50513.44
659.89	50230.24
660.03	50609.40
660.17	50618.77
660.32	49907.24
660.46	50143.64
660.60	50199.81
660.74	50162.36
660.89	49907.24
661.03	49904.90
661.17	49827.66
661.32	49495.31
661.46	49923.63
661.60	49717.66
661.74	49352.54
661.89	49691.91
662.03	49687.23
662.17	49649.78
662.31	49710.64
662.46	49617.02
662.60	49530.42
662.74	49425.09
662.88	49029.54
663.03	48858.68
663.17	49265.94
663.31	48666.76
663.45	48678.46
663.60	48889.11
663.74	48926.56
663.88	49216.78
664.02	49024.86
664.17	49141.89
664.31	48758.04
664.45	48699.53
664.59	48928.90
664.73	48746.34
664.88	48772.08
665.02	47955.24
665.16	48320.36
665.30	48296.95
665.44	47999.71
665.59	47936.51
665.73	48041.84
665.87	47669.69
666.01	48570.80
666.15	47845.23
666.29	48105.03
666.44	48378.87
666.58	47746.93
666.72	47936.51
666.86	48034.81
667.00	47892.04
667.14	47625.22
667.28	47756.29
667.43	47447.34
667.57	47646.29
667.71	47400.53
667.85	47246.05
667.99	47264.78
668.13	47224.99
668.27	47239.03
668.41	47136.05
668.56	46911.36
668.70	47346.70
668.84	46899.65
668.98	46944.12
669.12	47124.35
669.26	46651.56
669.40	46763.90
669.54	46375.37
669.68	46447.93
669.82	46230.26
669.96	46693.69
670.10	45991.53
670.25	46387.08
670.39	46019.61
670.53	46089.83
670.67	46183.45
670.81	46335.59
670.95	46321.54
671.09	45778.54
671.23	45844.07
671.37	45750.45
671.51	45958.76
671.65	45633.42
671.79	45724.71
671.93	45450.86
672.07	45661.51
672.21	45551.51
672.35	45123.19
672.49	44980.42
672.63	45144.25
672.77	45116.17
672.91	44891.48
673.05	44793.17
673.19	44673.81
673.33	44406.98
673.47	45141.91
673.61	45198.09
673.75	44350.81
673.89	44737.00
674.03	44219.74
674.17	44304.00
674.31	44067.61
674.45	43915.47
674.59	43962.28
674.73	43915.47
674.87	43672.06
675.01	43686.10
675.15	43540.99
675.29	43592.48
675.43	43655.67
675.56	43580.78
675.70	43414.60
675.84	43639.29
675.98	42153.05
676.12	43356.08
676.26	43557.37
676.40	43426.30
676.54	43255.44
676.68	42909.04
676.82	41942.40
676.96	42387.10
677.10	42344.97
677.23	42089.85
677.37	41736.43
677.51	41703.67
677.65	41617.07
677.79	41570.25
677.93	41500.04
678.07	41574.94
678.21	41579.62
678.34	41097.47
678.48	41390.03
678.62	41261.30
678.76	40683.19
678.90	40954.69
679.04	41001.50
679.18	40896.18
679.31	40603.61
679.45	39920.18
679.59	40261.90
679.73	40280.62
679.87	39854.64
680.00	39618.25
680.14	39807.83
680.28	39683.78
680.42	39791.45
680.56	39475.48
680.70	39264.83
680.83	39372.49
680.97	39070.56
681.11	39709.53
681.25	39395.90
681.39	39306.96
681.52	38883.32
681.66	38462.02
681.80	38588.41
681.94	38419.89
682.07	38536.92
682.21	38038.39
682.35	37738.80
682.49	37986.89
682.62	37792.63
682.76	37759.86
682.90	37516.45
683.04	37558.58
683.17	37368.99
683.31	37860.51
683.45	37958.81
683.59	37024.93
683.72	37139.62
683.86	36463.21
684.00	36954.72
684.13	36657.47
684.27	36477.25
684.41	36196.38
684.55	36058.29
684.68	36172.98
684.82	36488.95
684.96	35742.32
685.09	35812.54
685.23	35859.35
685.37	35697.85
685.50	35791.47
685.64	35796.15
685.78	35271.87
685.91	35538.69
686.05	35208.68
686.19	34724.19
686.32	35070.59
686.46	34354.38
686.60	34220.97
686.73	34588.44
686.87	34373.11
687.01	34403.53
687.14	34183.52
687.28	33755.21
687.42	33874.57
687.55	33635.84
687.69	33699.03
687.82	33242.63
687.96	33844.15
688.10	33380.72
688.23	33244.97
688.37	33642.86
688.50	32835.38
688.64	33013.26
688.78	32828.35
688.91	32463.23
689.05	32442.17
689.18	32474.93
689.32	31828.95
689.46	31740.00
689.59	31772.77
689.73	32051.30
689.86	31409.99
690.00	31414.67
690.13	32100.45
690.27	31445.10
690.41	31529.36
690.54	31332.75
690.68	31325.73
690.81	31356.16
690.95	31335.09
691.08	31236.79
691.22	31262.54
691.35	30565.06
691.49	30614.21
691.62	30501.86
691.76	30347.39
691.89	29905.02
692.03	29940.13
692.16	30019.71
692.30	29799.70
692.43	29589.05
692.57	29626.50
692.70	29493.09
692.84	29273.08
692.97	29418.19
693.11	29549.26
693.24	29216.91
693.38	28907.96
693.51	29411.17
693.65	28669.22
693.78	28479.64
693.92	29137.33
694.05	28584.96
694.19	28486.66
694.32	28460.91
694.45	28276.01
694.59	28100.47
694.72	28271.33
694.86	28074.73
694.99	27199.37
695.13	27557.47
695.26	27323.41
695.39	27047.23
695.53	27761.09
695.66	27440.44
695.80	27505.98
695.93	27337.46
696.07	26993.40
696.20	26888.07
696.33	26927.86
696.47	26431.67
696.60	26368.48
696.73	26536.99
696.87	26249.11
697.00	25928.45
697.14	25830.15
697.27	25458.01
697.40	25591.42
697.54	25291.83
697.67	25486.09
697.80	25366.73
697.94	25170.12
698.07	25088.20
698.21	24723.08
698.34	24989.90
698.47	25429.92
698.61	25003.94
698.74	24671.59
698.87	24961.81
699.01	24573.28
699.14	24397.74
699.27	24372.00
699.40	24264.33
699.54	24276.04
699.67	24044.32
699.80	23431.10
699.94	23351.52
700.07	23307.05
700.20	23578.56
700.34	23274.29
700.47	23091.73
700.60	23405.36
700.73	23021.51
700.87	23105.77
701.00	22813.20
701.13	22836.61
701.26	22918.53
701.40	22682.13
701.53	22609.58
701.66	22677.45
701.79	22136.79
701.93	22377.86
702.06	22132.11
702.19	21804.43
702.32	21905.07
702.46	21584.42
702.59	21656.98
702.72	21277.81
702.85	21525.91
702.99	21556.33
703.12	21317.60
703.25	21277.81
703.38	21160.78
703.51	21551.65
703.65	21273.13
703.78	21282.49
703.91	20725.44
704.04	21074.18
704.17	20603.74
704.31	20713.74
704.44	20577.99
704.57	20418.83
704.70	19976.47
704.83	20009.24
704.96	20025.62
705.10	19873.49
705.23	19754.12
>>>>>End Processed Spectral Data<<<<<
