SpectraSuite Data File
++++++++++++++++++++++++++++++++++++
Date: Fri Oct 18 13:54:38 GMT-05:00 2013
User: bianchi
Dark Spectrum Present: No
Reference Spectrum Present: No
Number of Sampled Component Spectra: 1
Spectrometers: USB2+H05261
Integration Time (usec): 100000 (USB2+H05261)
Spectra Averaged: 1 (USB2+H05261)
Boxcar Smoothing: 0 (USB2+H05261)
Correct for Electrical Dark: No (USB2+H05261)
Strobe/Lamp Enabled: No (USB2+H05261)
Correct for Detector Non-linearity: No (USB2+H05261)
Correct for Stray Light: No (USB2+H05261)
Number of Pixels in Processed Spectrum: 2048
>>>>>Begin Processed Spectral Data<<<<<
365.73	0.00
365.92	0.00
366.12	0.00
366.32	0.00
366.52	0.00
366.72	0.00
366.91	0.00
367.11	0.00
367.31	0.00
367.51	0.00
367.70	0.00
367.90	0.00
368.10	0.00
368.30	0.00
368.49	0.00
368.69	0.00
368.89	0.00
369.09	0.00
369.28	0.00
369.48	0.00
369.68	0.00
369.87	0.00
370.07	0.00
370.27	0.00
370.47	9.36
370.66	217.67
370.86	318.31
371.06	292.57
371.25	423.64
371.45	290.23
371.65	390.87
371.84	372.15
372.04	414.27
372.24	315.97
372.44	374.49
372.63	344.06
372.83	444.70
373.03	430.66
373.22	435.34
373.42	545.34
373.62	449.38
373.81	390.87
374.01	440.02
374.21	524.28
374.40	505.56
374.60	519.60
374.79	486.83
374.99	500.87
375.19	547.69
375.38	477.47
375.58	498.53
375.78	526.62
375.97	538.32
376.17	664.71
376.37	500.87
376.56	507.90
376.76	617.90
376.95	482.15
377.15	566.41
377.35	552.37
377.54	526.62
377.74	554.71
377.93	645.99
378.13	678.76
378.33	617.90
378.52	587.47
378.72	613.22
378.91	533.64
379.11	559.39
379.31	671.73
379.50	545.34
379.70	650.67
379.89	631.94
380.09	660.03
380.28	585.13
380.48	718.54
380.68	702.16
380.87	622.58
381.07	669.39
381.26	711.52
381.46	627.26
381.65	711.52
381.85	660.03
382.04	692.80
382.24	779.40
382.43	683.44
382.63	610.88
382.83	685.78
383.02	772.38
383.22	748.97
383.41	770.04
383.61	774.72
383.80	702.16
384.00	751.31
384.19	704.50
384.39	837.91
384.58	851.96
384.78	779.40
384.97	816.85
385.17	781.74
385.36	716.20
385.56	784.08
385.75	772.38
385.95	835.57
386.14	833.23
386.34	903.45
386.53	826.21
386.72	844.93
386.92	954.94
387.11	830.89
387.31	868.34
387.50	833.23
387.70	884.72
387.89	891.74
388.09	847.27
388.28	940.90
388.48	936.21
388.67	957.28
388.86	912.81
389.06	1006.43
389.25	1004.09
389.45	976.00
389.64	933.87
389.84	1018.13
390.03	987.71
390.22	992.39
390.42	966.64
390.61	1039.20
390.81	1022.81
391.00	1139.84
391.19	1060.26
391.39	1076.65
391.58	1062.60
391.78	1055.58
391.97	1088.35
392.16	1116.44
392.36	1104.73
392.55	1107.07
392.75	1132.82
392.94	1167.93
393.13	1074.31
393.33	1116.44
393.52	1174.95
393.71	1259.21
393.91	1207.72
394.10	1153.88
394.29	1184.31
394.49	1219.42
394.68	1238.14
394.88	1160.91
395.07	1177.29
395.26	1245.16
395.46	1350.49
395.65	1322.40
395.84	1371.55
396.04	1392.62
396.23	1329.42
396.42	1331.76
396.62	1277.93
396.81	1350.49
397.00	1362.19
397.19	1446.45
397.39	1418.36
397.58	1469.86
397.77	1322.40
397.97	1502.62
398.16	1453.47
398.35	1497.94
398.55	1441.77
398.74	1397.30
398.93	1493.26
399.12	1577.52
399.32	1411.34
399.51	1526.03
399.70	1556.46
399.90	1444.11
400.09	1568.16
400.28	1647.74
400.47	1650.08
400.67	1659.44
400.86	1657.10
401.05	1558.80
401.24	1682.85
401.44	1666.46
401.63	1748.38
401.82	1680.50
402.01	1699.23
402.21	1762.42
402.40	1788.17
402.59	1729.66
402.78	1792.85
402.97	1753.06
403.17	1820.94
403.36	1891.15
403.55	1996.48
403.74	1994.14
403.93	1956.69
404.13	2040.95
404.32	1750.72
404.51	1963.71
404.70	1954.35
404.89	1952.01
405.09	2008.18
405.28	1998.82
405.47	2038.61
405.66	2193.08
405.85	2148.61
406.05	2054.99
406.24	2167.34
406.43	2172.02
406.62	2244.57
406.81	2251.60
407.00	2165.00
407.20	2197.76
407.39	2094.78
407.58	2202.44
407.77	2160.31
407.96	2352.24
408.15	2335.85
408.34	2345.22
408.54	2291.38
408.73	2511.39
408.92	2406.07
409.11	2422.45
409.30	2476.29
409.49	2415.43
409.68	2342.88
409.87	2485.65
410.07	2569.91
410.26	2560.55
410.45	2651.83
410.64	2710.34
410.83	2628.42
411.02	2658.85
411.21	2717.36
411.40	2759.49
411.59	2909.29
411.78	2794.60
411.98	2668.21
412.17	2761.83
412.36	2794.60
412.55	2871.84
412.74	2902.26
412.93	3117.59
413.12	2911.63
413.31	3159.72
413.50	3002.91
413.69	3101.21
413.88	3148.02
414.07	3131.64
414.26	3232.28
414.45	3187.81
414.64	3117.59
414.83	3403.14
415.02	3382.07
415.22	3365.69
415.41	3478.04
415.60	3449.95
415.79	3433.57
415.98	3529.53
416.17	3648.90
416.36	3515.48
416.55	3599.74
416.74	3782.31
416.93	3630.17
417.12	3747.20
417.31	3864.22
417.50	3751.88
417.69	3988.27
417.88	3946.14
418.07	3779.97
418.26	3794.01
418.45	3908.69
418.64	4142.75
418.83	4124.02
419.02	3974.23
419.21	4084.23
419.39	4105.30
419.58	4018.70
419.77	4163.81
419.96	4079.55
420.15	4248.07
420.34	4212.96
420.53	4224.67
420.72	4369.78
420.91	4205.94
421.10	4255.09
421.29	4315.95
421.48	4168.49
421.67	4423.61
421.86	4447.02
422.05	4334.67
422.24	4318.29
422.43	4456.38
422.61	4430.63
422.80	4456.38
422.99	4468.08
423.18	4561.70
423.37	4566.39
423.56	4411.91
423.75	4362.76
423.94	4388.50
424.13	4187.22
424.32	4346.37
424.50	4540.64
424.69	4524.26
424.88	4662.35
425.07	4557.02
425.26	4503.19
425.45	4594.47
425.64	4624.90
425.83	4479.79
426.01	4716.18
426.20	4596.81
426.39	4741.93
426.58	4748.95
426.77	4657.67
426.96	4718.52
427.15	4737.24
427.33	4573.41
427.52	4622.56
427.71	4681.07
427.90	4774.69
428.09	4898.74
428.28	4865.97
428.46	5018.11
428.65	5025.13
428.84	5018.11
429.03	4990.02
429.22	4924.49
429.40	4950.23
429.59	5137.48
429.78	4873.00
429.97	4828.53
430.16	5029.81
430.34	5217.05
430.53	5242.80
430.72	5153.86
430.91	5266.21
431.10	5259.18
431.28	5380.89
431.47	5296.63
431.66	5373.87
431.85	5458.13
432.03	5366.85
432.22	5523.66
432.41	5509.62
432.60	5486.22
432.79	5570.48
432.97	5432.38
433.16	5434.72
433.35	5430.04
433.54	5549.41
433.72	5586.86
433.91	5603.24
434.10	5596.22
434.28	5713.25
434.47	5647.71
434.66	5720.27
434.85	5785.80
435.03	5996.45
435.22	5900.49
435.41	6010.50
435.59	5944.96
435.78	5874.74
435.97	6179.01
436.16	6080.71
436.34	6045.60
436.53	6036.24
436.72	6272.64
436.90	5944.96
437.09	6174.33
437.28	6101.78
437.46	6162.63
437.65	6179.01
437.84	6307.74
438.02	6335.83
438.21	6216.46
438.40	6279.66
438.58	6651.80
438.77	6551.16
438.96	6431.79
439.14	6483.28
439.33	6614.35
439.52	6633.08
439.70	6810.96
439.89	6834.36
440.08	6944.37
440.26	6874.15
440.45	6778.19
440.63	6888.20
440.82	6892.88
441.01	7073.10
441.19	7286.09
441.38	7101.19
441.57	7185.44
441.75	7197.15
441.94	7248.64
442.12	7414.82
442.31	7541.21
442.50	7583.34
442.68	7389.07
442.87	7485.03
443.05	7494.40
443.24	7747.17
443.43	7595.04
443.61	7503.76
443.80	7864.20
443.98	7403.11
444.17	7463.97
444.35	7709.72
444.54	7843.14
444.73	7604.40
444.91	7651.21
445.10	7726.11
445.28	7899.31
445.47	7630.15
445.65	7742.49
445.84	7812.71
446.02	7943.78
446.21	7721.43
446.39	7936.76
446.58	7599.72
446.77	7920.37
446.95	7702.70
447.14	7854.84
447.32	7761.22
447.51	8018.68
447.69	7798.66
447.88	7857.18
448.06	7911.01
448.25	7957.82
448.43	7978.89
448.62	7901.65
448.80	8072.51
448.99	7885.26
449.17	7922.71
449.36	7934.42
449.54	8252.73
449.73	8306.56
449.91	8355.71
450.10	8292.52
450.28	8477.42
450.46	8416.57
450.65	8456.36
450.83	8472.74
451.02	8477.42
451.20	8547.64
451.39	8566.36
451.57	8505.51
451.76	8519.55
451.94	8596.79
452.13	8631.90
452.31	8613.17
452.49	8414.23
452.68	8959.57
452.86	8657.64
453.05	8716.16
453.23	8896.38
453.42	8744.24
453.60	8617.85
453.78	8882.33
453.97	8915.10
454.15	8718.50
454.34	8629.56
454.52	8997.02
454.70	8840.20
454.89	9057.87
455.07	8999.36
455.26	9165.54
455.44	9404.27
455.62	9259.16
455.81	9160.86
455.99	9177.24
456.17	9383.21
456.36	9034.47
456.54	9497.89
456.73	9563.43
456.91	9743.65
457.09	9678.12
457.28	9825.57
457.46	9493.21
457.64	9860.68
457.83	9666.41
458.01	9710.88
458.19	10101.75
458.38	9661.73
458.56	10061.96
458.74	10036.22
458.93	10017.49
459.11	9874.72
459.29	10015.15
459.48	9879.40
459.66	10122.82
459.84	10403.68
460.03	10340.49
460.21	10279.63
460.39	10197.71
460.57	10139.20
460.76	10307.72
460.94	10424.75
461.12	10473.90
461.31	10532.41
461.49	10349.85
461.67	10310.06
461.85	10623.69
462.04	10656.46
462.22	10850.72
462.40	10761.78
462.59	10476.24
462.77	10736.04
462.95	10824.98
463.13	10876.47
463.32	11073.07
463.50	10834.34
463.68	10897.53
463.86	10806.25
464.05	10855.40
464.23	10883.49
464.41	11122.23
464.59	10752.42
464.78	11220.53
464.96	11037.97
465.14	10958.39
465.32	11222.87
465.50	11304.79
465.69	11145.63
465.87	11133.93
466.05	11398.41
466.23	11108.18
466.41	11330.53
466.60	11602.04
466.78	11293.08
466.96	11147.97
467.14	11426.50
467.32	11489.69
467.51	11569.27
467.69	11248.61
467.87	11276.70
468.05	11477.99
468.23	11576.29
468.41	11396.07
468.60	11454.58
468.78	11754.17
468.96	11566.93
469.14	11803.32
469.32	11985.88
469.50	11566.93
469.69	11777.58
469.87	12233.98
470.05	12072.48
470.23	12168.45
470.41	12053.76
470.59	12287.81
470.77	12236.32
470.95	12109.93
471.14	12496.12
471.32	12374.41
471.50	12589.74
471.68	12631.87
471.86	12482.08
472.04	12650.60
472.22	13004.02
472.40	12524.21
472.58	12744.22
472.77	12823.80
472.95	13015.72
473.13	13184.24
473.31	12774.64
473.49	12947.84
473.67	13083.59
473.85	13053.17
474.03	13591.49
474.21	13289.56
474.39	13582.13
474.57	13715.54
474.75	13708.52
474.93	14054.92
475.12	13827.88
475.30	14001.08
475.48	13809.16
475.66	14036.19
475.84	13865.33
476.02	13898.10
476.20	14253.86
476.38	14572.18
476.56	14967.73
476.74	14717.29
476.92	14539.41
477.10	14705.59
477.28	15007.52
477.46	14822.61
477.64	15159.65
477.82	15164.33
478.00	15807.98
478.18	15461.58
478.36	15550.52
478.54	15709.68
478.72	15763.51
478.90	16266.72
479.08	16271.40
479.26	16027.99
479.44	16367.37
479.62	16219.91
479.80	16678.66
479.98	16779.30
480.16	16922.07
480.34	17151.45
480.52	17114.00
480.70	17518.91
480.88	17003.99
481.06	17319.96
481.24	17521.25
481.41	17436.99
481.59	17834.88
481.77	17928.50
481.95	17968.29
482.13	18043.19
482.31	18443.42
482.49	18892.80
482.67	18583.85
482.85	19026.21
483.03	19066.00
483.21	19140.90
483.39	19466.24
483.57	19105.79
483.74	19601.99
483.92	19667.52
484.10	19831.36
484.28	19960.09
484.46	20217.55
484.64	20573.31
484.82	20453.94
485.00	20294.79
485.18	20938.43
485.35	21516.54
485.53	21128.02
485.71	21308.24
485.89	21675.70
486.07	21397.18
486.25	21687.40
486.43	21898.05
486.61	22232.75
486.78	22017.42
486.96	22541.70
487.14	22944.27
487.32	22593.19
487.50	22803.84
487.68	22899.80
487.85	23103.43
488.03	23552.81
488.21	23807.93
488.39	24065.39
488.57	24077.09
488.75	24051.34
488.92	24816.70
489.10	24720.74
489.28	24716.06
489.46	24933.73
489.64	24924.36
489.81	25378.43
489.99	25572.69
490.17	25783.34
490.35	25935.48
490.53	26029.10
490.70	26066.55
490.88	26328.69
491.06	26773.39
491.24	26183.57
491.41	26438.69
491.59	26607.21
491.77	26878.71
491.95	27594.92
492.13	27211.07
492.30	27557.47
492.48	27328.10
492.66	27669.81
492.84	28004.51
493.01	28205.80
493.19	28156.64
493.37	28610.71
493.54	28723.05
493.72	29020.30
493.90	28781.57
494.08	29235.63
494.25	29167.76
494.43	29993.97
494.61	29905.02
494.79	30132.06
494.96	30204.61
495.14	30127.38
495.32	30419.94
495.49	30616.55
495.67	30614.21
495.85	31051.89
496.02	31012.10
496.20	31173.60
496.38	31105.72
496.55	31370.20
496.73	31955.33
496.91	31501.27
497.09	32149.60
497.26	32261.94
497.44	32215.13
497.62	32173.00
497.79	32931.34
497.97	32652.81
498.14	32971.13
498.32	33460.30
498.50	33209.86
498.67	33310.50
498.85	33340.93
499.03	33888.62
499.20	33717.76
499.38	33996.28
499.56	34436.30
499.73	33958.83
499.91	34501.84
500.08	34490.13
500.26	34494.82
500.44	34628.23
500.61	34639.93
500.79	34780.36
500.97	34972.28
501.14	35400.60
501.32	35475.50
501.49	34883.34
501.67	35005.05
501.84	35938.93
502.02	35800.83
502.20	35990.42
502.37	36175.32
502.55	36116.81
502.72	36343.84
502.90	36189.36
503.07	35917.86
503.25	36694.92
503.43	36238.51
503.60	36971.10
503.78	36973.44
503.95	37123.24
504.13	36673.85
504.30	37336.23
504.48	37181.75
504.65	37738.80
504.83	38073.49
505.01	38122.65
505.18	37930.72
505.36	38061.79
505.53	37638.15
505.71	38586.07
505.88	38298.19
506.06	38059.45
506.23	38770.97
506.41	38134.35
506.58	38593.09
506.76	38993.32
506.93	39058.86
507.11	38941.83
507.28	39480.16
507.46	38745.23
507.63	39597.18
507.81	39515.26
507.98	39321.00
508.16	39751.66
508.33	39672.08
508.50	39662.72
508.68	39786.77
508.85	40116.78
509.03	40498.29
509.20	40399.99
509.38	40858.73
509.55	40509.99
509.73	40844.69
509.90	40650.42
510.08	40804.90
510.25	40727.66
510.42	40996.82
510.60	41532.81
510.77	41361.95
510.95	41724.73
511.12	41607.70
511.30	41408.76
511.47	41649.83
511.64	41848.78
511.82	42075.81
511.99	41991.55
512.17	42272.42
512.34	42148.37
512.51	42071.13
512.69	42583.71
512.86	42424.55
513.04	43145.44
513.21	42813.08
513.38	42899.68
513.56	42841.17
513.73	42710.10
513.90	43370.13
514.08	43182.88
514.25	43442.68
514.43	43906.11
514.60	43423.96
514.77	43342.04
514.95	44065.27
515.12	43330.34
515.29	43405.23
515.47	43871.00
515.64	44091.01
515.81	43924.83
515.99	44704.23
516.16	44863.39
516.33	44624.65
516.51	44772.11
516.68	44378.90
516.85	44453.79
517.03	44718.28
517.20	44959.35
517.37	45059.99
517.54	45345.54
517.72	44931.26
517.89	44971.05
518.06	45331.50
518.24	45308.09
518.41	45539.80
518.58	45558.53
518.75	45832.37
518.93	46160.05
519.10	46190.47
519.27	45848.75
519.45	46101.53
519.62	45897.91
519.79	46040.68
519.96	46059.40
520.14	46447.93
520.31	46286.43
520.48	46689.01
520.65	46415.16
520.83	46691.35
521.00	46583.68
521.17	46693.69
521.34	46714.75
521.52	47096.26
521.69	47253.08
521.86	47732.89
522.03	47686.07
522.20	47187.54
522.38	47737.57
522.55	47468.40
522.72	47166.48
522.89	47646.29
523.07	47892.04
523.24	48027.79
523.41	48135.46
523.58	47784.38
523.75	48154.18
523.92	47674.37
524.10	48128.44
524.27	48177.59
524.44	48486.54
524.61	48704.21
524.78	48715.91
524.96	48381.21
525.13	48762.72
525.30	48727.61
525.47	48540.37
525.64	48783.79
525.81	49055.29
525.98	49453.18
526.16	49076.35
526.33	49090.40
526.50	49240.19
526.67	48837.62
526.84	49062.31
527.01	49268.28
527.18	49284.66
527.36	49389.98
527.53	49455.52
527.70	49993.84
527.87	50169.38
528.04	49769.15
528.21	49785.54
528.38	49305.73
528.55	49750.43
528.72	49972.78
528.89	49792.56
529.07	49682.55
529.24	50040.65
529.41	50543.87
529.58	50028.95
529.75	50251.30
529.92	50365.99
530.09	50122.57
530.26	50485.36
530.43	50555.57
530.60	50506.42
530.77	50513.44
530.94	50939.42
531.11	50373.01
531.28	50293.43
531.46	50635.15
531.63	50806.01
531.80	50927.72
531.97	51065.81
532.14	51206.24
532.31	51044.74
532.48	51131.34
532.65	51007.29
532.82	51070.49
532.99	50859.84
533.16	50857.50
533.33	51199.22
533.50	51798.40
533.67	51346.67
533.84	51119.64
534.01	51423.91
534.18	51164.11
534.35	51419.23
534.52	51547.96
534.69	51943.51
534.86	51655.62
535.03	51723.50
535.20	51941.17
535.37	51793.71
535.54	51950.53
535.71	51641.58
535.88	51796.06
536.05	51765.63
536.22	52212.67
536.38	52325.02
536.55	52086.28
536.72	52339.06
536.89	52088.62
537.06	52093.30
537.23	52032.45
537.40	52296.93
537.57	52229.05
537.74	52346.08
537.91	52594.18
538.08	52350.76
538.25	52212.67
538.42	52222.03
538.59	52610.56
538.75	52299.27
538.92	52353.10
539.09	52671.42
539.26	52608.22
539.43	52755.68
539.60	52577.79
539.77	52788.44
539.94	52765.04
540.11	52814.19
540.28	52971.00
540.44	52750.99
540.61	52809.51
540.78	52753.33
540.95	53038.88
541.12	52856.32
541.29	52758.02
541.46	53183.99
541.62	52987.39
541.79	53209.74
541.96	52954.62
542.13	53214.42
542.30	53308.04
542.47	53399.32
542.63	53504.65
542.80	53663.80
542.97	53811.26
543.14	53684.87
543.31	53504.65
543.48	53385.28
543.64	54010.20
543.81	53900.20
543.98	53872.11
544.15	53736.36
544.32	53989.14
544.48	54007.86
544.65	53963.39
544.82	53869.77
544.99	53616.99
545.16	53989.14
545.32	54157.66
545.49	54176.38
545.66	54358.94
545.83	54152.97
546.00	54262.98
546.16	54167.02
546.33	53949.35
546.50	53790.19
546.67	54272.34
546.83	53790.19
547.00	54101.48
547.17	54232.55
547.34	54272.34
547.50	54363.62
547.67	54557.89
547.84	54272.34
548.00	54326.17
548.17	54515.76
548.34	54518.10
548.51	54649.17
548.67	54742.79
548.84	54852.80
549.01	54873.86
549.18	54925.35
549.34	54733.43
549.51	55011.95
549.68	54562.57
549.84	54485.33
550.01	54714.70
550.18	54761.51
550.34	54820.03
550.51	55089.19
550.68	54901.95
550.84	54717.04
551.01	54944.08
551.18	55220.26
551.34	55098.55
551.51	54897.27
551.68	55068.12
551.84	55262.39
552.01	55051.74
552.18	55182.81
552.34	54981.52
552.51	55384.10
552.68	55000.25
552.84	55234.30
553.01	55288.13
553.18	55194.51
553.34	55501.12
553.51	55264.73
553.67	55561.98
553.84	55629.85
554.01	55554.96
554.17	55526.87
554.34	55620.49
554.51	55435.59
554.67	55344.31
554.84	55489.42
555.00	55585.38
555.17	55262.39
555.33	55709.43
555.50	55786.67
555.67	55484.74
555.83	55643.90
556.00	55480.06
556.16	55847.52
556.33	55395.80
556.50	55634.53
556.66	56114.34
556.83	55587.72
556.99	55821.78
557.16	56100.30
557.32	55889.65
557.49	55999.66
557.65	55840.50
557.82	55718.79
557.98	55585.38
558.15	55667.30
558.32	55800.71
558.48	55870.93
558.65	56032.42
558.81	56126.05
558.98	56186.90
559.14	55971.57
559.31	55964.55
559.47	55786.67
559.64	56041.79
559.80	56069.87
559.97	56205.62
560.13	56051.15
560.30	56348.40
560.46	55955.19
560.63	56076.90
560.79	56371.80
560.96	56184.56
561.12	56137.75
561.29	56121.37
561.45	55966.89
561.61	56165.84
561.78	56289.88
561.94	56367.12
562.11	56259.46
562.27	56238.39
562.44	56214.99
562.60	56231.37
562.77	56158.81
562.93	56198.60
563.10	56425.64
563.26	56301.59
563.42	56460.74
563.59	56427.98
563.75	56603.52
563.92	56240.73
564.08	56175.20
564.24	56463.08
564.41	56399.89
564.57	56224.35
564.74	56285.20
564.90	56205.62
565.07	56566.07
565.23	56371.80
565.39	56547.34
565.56	56507.55
565.72	56388.19
565.88	56240.73
566.05	56432.66
566.21	56568.41
566.38	56355.42
566.54	56343.72
566.70	56610.54
566.87	56793.10
567.03	56432.66
567.19	56521.60
567.36	56594.15
567.52	56177.54
567.68	56484.15
567.85	56367.12
568.01	56451.38
568.17	56477.13
568.34	56530.96
568.50	56643.30
568.66	56601.18
568.83	56753.31
568.99	56449.04
569.15	56624.58
569.32	56535.64
569.48	56577.77
569.64	56776.72
569.81	56425.64
569.97	56601.18
570.13	56793.10
570.30	56481.81
570.46	56715.86
570.62	56676.07
570.78	56734.59
570.95	56481.81
571.11	56612.88
571.27	56397.55
571.43	56493.51
571.60	56685.43
571.76	56772.03
571.92	56956.94
572.09	56872.68
572.25	56704.16
572.41	56769.69
572.57	56617.56
572.74	56673.73
572.90	56444.36
573.06	56633.94
573.22	56549.68
573.38	56748.63
573.55	57052.90
573.71	56987.36
573.87	56994.39
574.03	56765.01
574.20	56533.30
574.36	56467.76
574.52	56713.52
574.68	56655.01
574.84	56671.39
575.01	56760.33
575.17	56891.40
575.33	56809.48
575.49	56842.25
575.65	57134.82
575.82	56933.53
575.98	56797.78
576.14	56919.49
576.30	56577.77
576.46	56708.84
576.62	56610.54
576.79	56814.16
576.95	56732.25
577.11	56692.46
577.27	56912.47
577.43	56893.74
577.59	56547.34
577.75	56839.91
577.92	56556.70
578.08	56640.96
578.24	56907.79
578.40	56650.33
578.56	56776.72
578.72	56970.98
578.88	57017.79
579.04	56978.00
579.21	56926.51
579.37	56989.70
579.53	56914.81
579.69	56687.78
579.85	56825.87
580.01	56718.20
580.17	56589.47
580.33	56610.54
580.49	56868.00
580.65	57062.26
580.82	56856.29
580.98	57064.60
581.14	56743.95
581.30	57176.95
581.46	56743.95
581.62	56765.01
581.78	56732.25
581.94	56720.54
582.10	57034.17
582.26	57022.47
582.42	56994.39
582.58	57020.13
582.74	57073.96
582.90	57071.62
583.06	57034.17
583.22	56905.44
583.38	56896.08
583.54	56903.10
583.70	56669.05
583.86	56722.88
584.02	56804.80
584.18	56898.42
584.34	57059.92
584.50	57205.03
584.66	57045.88
584.82	57024.81
584.98	56804.80
585.14	56694.80
585.30	56732.25
585.46	57029.49
585.62	56755.65
585.78	56970.98
585.94	56666.71
586.10	57106.73
586.26	56722.88
586.42	57256.53
586.58	57125.46
586.74	56896.08
586.90	56680.75
587.06	56844.59
587.22	57069.28
587.38	56680.75
587.54	57155.88
587.70	56924.17
587.86	57041.20
588.02	57118.43
588.18	57123.11
588.34	56868.00
588.49	56921.83
588.65	56961.62
588.81	56945.23
588.97	57027.15
589.13	56891.40
589.29	56921.83
589.45	57237.80
589.61	57216.74
589.77	57476.54
589.93	56978.00
590.08	57226.10
590.24	57258.87
590.40	57270.57
590.56	57059.92
590.72	56924.17
590.88	56821.19
591.04	57078.64
591.20	57406.32
591.35	57448.45
591.51	57499.94
591.67	57176.95
591.83	57230.78
591.99	57240.14
592.15	57382.91
592.31	57209.71
592.46	57221.42
592.62	57371.21
592.78	56980.34
592.94	57116.09
593.10	57162.90
593.26	57212.06
593.41	57396.96
593.57	57408.66
593.73	57261.21
593.89	57216.74
594.05	57336.10
594.20	56919.49
594.36	57284.61
594.52	57059.92
594.68	57221.42
594.84	57116.09
594.99	57441.43
595.15	57144.18
595.31	57687.18
595.47	57305.68
595.62	57333.76
595.78	57462.49
595.94	57160.56
596.10	57010.77
596.25	57279.93
596.41	57153.54
596.57	57041.20
596.73	57172.27
596.88	57127.80
597.04	57275.25
597.20	57457.81
597.36	57525.69
597.51	57432.07
597.67	57102.05
597.83	57258.87
597.99	57251.84
598.14	57186.31
598.30	57212.06
598.46	57088.01
598.61	57415.68
598.77	57272.91
598.93	57130.14
599.09	57485.90
599.24	57385.25
599.40	57448.45
599.56	57272.91
599.71	57137.16
599.87	57408.66
600.03	57340.78
600.18	57183.97
600.34	57317.38
600.50	57160.56
600.65	57249.50
600.81	57490.58
600.97	57329.08
601.12	57432.07
601.28	57375.89
601.44	57350.15
601.59	57380.57
601.75	57441.43
601.91	57474.20
602.06	57116.09
602.22	57258.87
602.37	57282.27
602.53	57216.74
602.69	57518.67
602.84	57212.06
603.00	57375.89
603.16	57631.01
603.31	57312.70
603.47	57261.21
603.62	57113.75
603.78	57059.92
603.94	57020.13
604.09	57158.22
604.25	57389.94
604.40	57069.28
604.56	57212.06
604.71	57455.47
604.87	57298.65
605.03	57359.51
605.18	57291.63
605.34	57195.67
605.49	56924.17
605.65	57099.71
605.80	57055.24
605.96	57216.74
606.12	57104.39
606.27	57359.51
606.43	57401.64
606.58	57219.08
606.74	57261.21
606.89	57275.25
607.05	57256.53
607.20	57162.90
607.36	57069.28
607.51	57226.10
607.67	56994.39
607.82	56772.03
607.98	56886.72
608.13	57088.01
608.29	56949.92
608.44	56966.30
608.60	57301.00
608.75	57024.81
608.91	57176.95
609.06	56963.96
609.22	56910.13
609.37	56863.32
609.53	56942.89
609.68	56905.44
609.84	56732.25
609.99	56882.04
610.15	56802.46
610.30	57158.22
610.46	56844.59
610.61	56823.53
610.76	57022.47
610.92	56999.07
611.07	57029.49
611.23	56802.46
611.38	56940.55
611.54	56793.10
611.69	56807.14
611.84	56570.75
612.00	56399.89
612.15	56673.73
612.31	56821.19
612.46	56722.88
612.62	56722.88
612.77	56961.62
612.92	56978.00
613.08	56589.47
613.23	56687.78
613.39	56680.75
613.54	56324.99
613.69	56659.69
613.85	56451.38
614.00	56563.73
614.15	56512.23
614.31	56676.07
614.46	56687.78
614.62	56563.73
614.77	56900.76
614.92	56509.89
615.08	56481.81
615.23	56460.74
615.38	56573.09
615.54	56184.56
615.69	56446.70
615.84	56362.44
616.00	56416.27
616.15	56486.49
616.30	56505.21
616.46	56231.37
616.61	56252.44
616.76	56453.72
616.92	56165.84
617.07	56444.36
617.22	56460.74
617.37	56240.73
617.53	56240.73
617.68	56275.84
617.83	56142.43
617.99	56142.43
618.14	56257.12
618.29	56320.31
618.45	56135.41
618.60	56149.45
618.75	56390.53
618.90	56074.55
619.06	56233.71
619.21	56273.50
619.36	56261.80
619.51	55767.94
619.67	55779.65
619.82	55800.71
619.97	55899.01
620.12	55938.80
620.28	55702.41
620.43	56002.00
620.58	56144.77
620.73	55941.14
620.89	56355.42
621.04	56142.43
621.19	56062.85
621.34	55913.06
621.49	55810.07
621.65	55870.93
621.80	55999.66
621.95	55704.75
622.10	55931.78
622.25	55819.44
622.41	55959.87
622.56	55735.18
622.71	55845.18
622.86	55739.86
623.01	55796.03
623.16	55749.22
623.32	55826.46
623.47	55557.30
623.62	55508.14
623.77	55477.72
623.92	55576.02
624.07	55533.89
624.23	55470.70
624.38	55716.45
624.53	55435.59
624.68	55536.23
624.83	55650.92
624.98	55540.91
625.13	55578.36
625.29	55681.34
625.44	55536.23
625.59	55515.17
625.74	55283.45
625.89	55243.66
626.04	55234.30
626.19	55159.41
626.34	55325.58
626.49	55154.72
626.65	55189.83
626.80	55243.66
626.95	55171.11
627.10	55021.31
627.25	55299.84
627.40	55274.09
627.55	55110.25
627.70	54866.84
627.85	54883.22
628.00	54679.60
628.15	54960.46
628.30	54745.13
628.45	54911.31
628.60	54993.23
628.76	54951.10
628.91	54951.10
629.06	55143.02
629.21	54974.50
629.36	54981.52
629.51	54770.88
629.66	54892.58
629.81	54639.81
629.96	54550.87
630.11	54841.09
630.26	54330.86
630.41	54583.63
630.56	54473.63
630.71	54686.62
630.86	54585.97
631.01	54677.25
631.16	54560.23
631.31	54918.33
631.46	54541.50
631.61	54845.77
631.76	54677.25
631.91	54684.28
632.06	54227.87
632.21	54199.79
632.36	54515.76
632.51	54181.06
632.66	54604.70
632.81	54443.20
632.96	54548.53
633.10	54600.02
633.25	54433.84
633.40	54527.46
633.55	54237.23
633.70	54515.76
633.85	54059.35
634.00	54012.54
634.15	54375.33
634.30	53954.03
634.45	53956.37
634.60	54237.23
634.75	54300.43
634.90	54171.70
635.05	54246.60
635.19	54260.64
635.34	54195.10
635.49	54295.75
635.64	54038.29
635.79	54007.86
635.94	54143.61
636.09	53827.64
636.24	53762.11
636.39	53727.00
636.53	53942.33
636.68	53855.73
636.83	53954.03
636.98	54160.00
637.13	53654.44
637.28	54092.12
637.43	54122.55
637.57	53860.41
637.72	53689.55
637.87	53659.12
638.02	53549.12
638.17	53949.35
638.32	53530.39
638.46	53467.20
638.61	53652.10
638.76	53460.18
638.91	53277.61
639.06	53375.92
639.20	53432.09
639.35	53708.27
639.50	53420.39
639.65	53696.57
639.80	53602.95
639.94	53233.14
640.09	53141.86
640.24	53144.20
640.39	53544.44
640.54	53151.23
640.68	53043.56
640.83	53095.05
640.98	52779.08
641.13	52935.90
641.27	53249.53
641.42	53226.12
641.57	53289.32
641.72	53113.78
641.86	53034.20
642.01	52919.51
642.16	52942.92
642.31	53235.48
642.45	53116.12
642.60	53113.78
642.75	53020.16
642.90	52561.41
643.04	52762.70
643.19	52680.78
643.34	52992.07
643.48	52657.37
643.63	52928.87
643.78	52900.79
643.93	52952.28
644.07	52966.32
644.22	53064.63
644.37	52598.86
644.51	52762.70
644.66	52755.68
644.81	52846.96
644.95	52652.69
645.10	52313.31
645.25	52708.86
645.39	52697.16
645.54	52549.71
645.69	52596.52
645.83	52823.55
645.98	52753.33
646.13	52673.76
646.27	52729.93
646.42	52161.18
646.57	52397.57
646.71	52409.28
646.86	52622.26
647.00	52364.81
647.15	52254.80
647.30	52348.42
647.44	52158.84
647.59	52245.44
647.74	51899.04
647.88	52219.69
648.03	52268.84
648.17	52374.17
648.32	52210.33
648.47	52266.50
648.61	51779.67
648.76	52313.31
648.90	52105.01
649.05	51901.38
649.20	52207.99
649.34	52004.36
649.49	51973.94
649.63	52074.58
649.78	52006.70
649.92	51735.20
650.07	52168.20
650.21	51887.34
650.36	51995.00
650.51	51952.87
650.65	52156.50
650.80	51798.40
650.94	51810.10
651.09	51704.77
651.23	51590.09
651.38	51887.34
651.52	51566.68
651.67	51477.74
651.81	51849.89
651.96	51271.78
652.10	51835.84
652.25	51662.64
652.39	51571.36
652.54	52116.71
652.68	51430.93
652.83	51735.20
652.97	52009.04
653.12	51737.54
653.26	51447.32
653.41	51276.46
653.55	51339.65
653.70	51178.15
653.84	51288.16
653.99	51531.57
654.13	51147.73
654.27	50976.87
654.42	51288.16
654.56	51274.12
654.71	51229.65
654.85	51538.60
655.00	51447.32
655.14	51440.29
655.29	51077.51
655.43	51199.22
655.57	50894.95
655.72	50813.03
655.86	50941.76
656.01	50784.94
656.15	50499.40
656.30	50735.79
656.44	50557.91
656.58	50791.97
656.73	50630.47
656.87	50454.93
657.01	50658.56
657.16	51033.04
657.30	50536.85
657.45	50887.93
657.59	50880.91
657.73	50541.53
657.88	50492.38
658.02	50361.31
658.16	50492.38
658.31	50466.63
658.45	50508.76
658.60	50066.40
658.74	50012.57
658.88	50361.31
659.03	50234.92
659.17	50270.03
659.31	50155.34
659.46	50148.32
659.60	50309.82
659.74	50155.34
659.89	50213.85
660.03	50291.09
660.17	50050.02
660.32	49977.46
660.46	49654.47
660.60	49684.89
660.74	49598.29
660.89	49462.54
661.03	49787.88
661.17	49368.92
661.32	49195.72
661.46	49602.97
661.60	49270.62
661.74	49682.55
661.89	49499.99
662.03	49610.00
662.17	49610.00
662.31	49113.80
662.46	49406.37
662.60	49181.68
662.74	49123.16
662.88	49132.53
663.03	48711.23
663.17	48706.55
663.31	48538.03
663.45	48662.08
663.60	48786.13
663.74	49010.82
663.88	48577.82
664.02	48832.94
664.17	49109.12
664.31	48680.80
664.45	48722.93
664.59	48645.69
664.73	48765.06
664.88	48278.23
665.02	47730.54
665.16	47721.18
665.30	47988.00
665.44	47777.36
665.59	47723.52
665.73	47365.42
665.87	47475.43
666.01	47782.04
666.15	48009.07
666.29	47896.72
666.44	47952.90
666.58	47601.82
666.72	47573.73
666.86	47828.85
667.00	47847.57
667.14	47332.65
667.28	47304.57
667.43	47597.13
667.57	47332.65
667.71	47356.06
667.85	47246.05
667.99	47161.79
668.13	46635.17
668.27	46735.82
668.41	47168.82
668.56	46857.52
668.70	46941.78
668.84	46667.94
668.98	46838.80
669.12	46506.44
669.26	46609.43
669.40	46422.19
669.54	46277.07
669.68	46728.80
669.82	46162.39
669.96	46195.15
670.10	45628.74
670.25	46040.68
670.39	46068.76
670.53	45523.42
670.67	45897.91
670.81	45750.45
670.95	45862.80
671.09	45607.68
671.23	45612.36
671.37	45860.46
671.51	45853.44
671.65	45579.59
671.79	45284.68
671.93	45294.05
672.07	45432.14
672.21	45237.87
672.35	44959.35
672.49	44926.58
672.63	44926.58
672.77	44509.97
672.91	44802.53
673.05	44388.26
673.19	44753.38
673.33	44037.18
673.47	44795.51
673.61	44526.35
673.75	44746.36
673.89	44325.07
674.03	44596.57
674.17	44156.55
674.31	44428.05
674.45	43988.03
674.59	43826.53
674.73	43882.70
674.87	43206.29
675.01	43517.58
675.15	43686.10
675.29	43529.28
675.43	43152.46
675.56	43386.51
675.70	43311.61
675.84	43515.24
675.98	41944.74
676.12	43257.78
676.26	43012.02
676.40	43070.54
676.54	42628.18
676.68	43012.02
676.82	41921.34
676.96	41869.84
677.10	42075.81
677.23	41720.05
677.37	41694.30
677.51	41738.77
677.65	41312.80
677.79	40933.63
677.93	41546.85
678.07	41223.86
678.21	41137.26
678.34	41331.52
678.48	40957.03
678.62	41099.81
678.76	40582.55
678.90	40507.65
679.04	41029.59
679.18	39978.69
679.31	40051.25
679.45	39725.91
679.59	39597.18
679.73	39997.41
679.87	39770.38
680.00	39463.77
680.14	39260.15
680.28	39330.36
680.42	39409.94
680.56	39426.32
680.70	39185.25
680.83	39639.31
680.97	39386.54
681.11	39325.68
681.25	39000.35
681.39	38763.95
681.52	38831.83
681.66	38873.96
681.80	38265.42
681.94	38064.13
682.07	38085.20
682.21	37947.11
682.35	37731.78
682.49	37549.21
682.62	37766.88
682.76	37277.71
682.90	37476.66
683.04	37420.48
683.17	37071.75
683.31	37345.59
683.45	37366.65
683.59	36903.23
683.72	36825.99
683.86	36713.64
684.00	36554.49
684.13	36601.30
684.27	36098.08
684.41	35880.41
684.55	35625.29
684.68	35948.29
684.82	36060.63
684.96	35573.80
685.09	35218.04
685.23	35391.24
685.37	34998.03
685.50	35658.06
685.64	35278.89
685.78	35264.85
685.91	35145.48
686.05	34836.53
686.19	34686.74
686.32	35028.46
686.46	34263.10
686.60	34115.65
686.73	34061.82
686.87	34045.43
687.01	34244.38
687.14	33734.14
687.28	33532.86
687.42	33532.86
687.55	33481.36
687.69	33270.72
687.82	33125.60
687.96	33387.74
688.10	33261.35
688.23	33184.12
688.37	32973.47
688.50	32807.29
688.64	32971.13
688.78	32334.50
688.91	32123.85
689.05	32294.71
689.18	32158.96
689.32	31566.81
689.46	31962.36
689.59	31501.27
689.73	31955.33
689.86	31997.46
690.00	31559.78
690.13	31920.23
690.27	31274.24
690.41	31461.48
690.54	31091.68
690.68	31115.08
690.81	30827.20
690.95	31094.02
691.08	30639.95
691.22	30955.93
691.35	30698.47
691.49	30363.77
691.62	30080.56
691.76	29659.27
691.89	29631.18
692.03	29692.04
692.16	29282.44
692.30	29692.04
692.43	29600.76
692.57	29542.24
692.70	29134.99
692.84	28643.48
692.97	29617.14
693.11	28900.94
693.24	28975.83
693.38	28718.37
693.51	28957.11
693.65	28992.22
693.78	29106.90
693.92	28683.27
694.05	28416.44
694.19	28168.35
694.32	28177.71
694.45	28376.66
694.59	27782.16
694.72	27627.68
694.86	27473.21
694.99	27463.85
695.13	27651.09
695.26	27147.87
695.39	26909.14
695.53	27201.71
695.66	27346.82
695.80	27110.43
695.93	26962.97
696.07	26792.11
696.20	26707.85
696.33	26836.58
696.47	26476.14
696.60	26256.13
696.73	26349.75
696.87	26279.54
697.00	25605.46
697.14	25956.54
697.27	25844.20
697.40	25542.27
697.54	25502.48
697.67	25186.50
697.80	25132.67
697.94	25001.60
698.07	24812.02
698.21	24699.67
698.34	25118.63
698.47	25025.01
698.61	24704.35
698.74	24531.15
698.87	24594.35
699.01	24074.75
699.14	24217.52
699.27	24194.12
699.40	24451.58
699.54	23576.22
699.67	23545.79
699.80	23442.81
699.94	23419.40
700.07	23372.59
700.20	23225.14
700.34	23110.45
700.47	23143.22
700.60	22963.00
700.73	22963.00
700.87	23096.41
701.00	22824.90
701.13	22827.24
701.26	22703.20
701.40	22726.60
701.53	22508.93
701.66	22714.90
701.79	22132.11
701.93	22061.89
702.06	22073.59
702.19	21996.35
702.32	21563.36
702.46	21874.65
702.59	21652.30
702.72	21106.95
702.85	21502.50
702.99	21284.83
703.12	21025.03
703.25	20954.82
703.38	21205.25
703.51	21001.63
703.65	21228.66
703.78	20833.11
703.91	20711.40
704.04	20891.62
704.17	20781.62
704.31	20493.73
704.44	20215.21
704.57	20439.90
704.70	20252.66
704.83	19648.80
704.96	19990.52
705.10	19665.18
705.23	19754.12
>>>>>End Processed Spectral Data<<<<<
