SpectraSuite Data File
++++++++++++++++++++++++++++++++++++
Date: Fri Oct 18 13:55:37 GMT-05:00 2013
User: bianchi
Dark Spectrum Present: No
Reference Spectrum Present: No
Number of Sampled Component Spectra: 1
Spectrometers: USB2+H05261
Integration Time (usec): 100000 (USB2+H05261)
Spectra Averaged: 1 (USB2+H05261)
Boxcar Smoothing: 0 (USB2+H05261)
Correct for Electrical Dark: No (USB2+H05261)
Strobe/Lamp Enabled: No (USB2+H05261)
Correct for Detector Non-linearity: No (USB2+H05261)
Correct for Stray Light: No (USB2+H05261)
Number of Pixels in Processed Spectrum: 2048
>>>>>Begin Processed Spectral Data<<<<<
365.73	0.00
365.92	0.00
366.12	0.00
366.32	0.00
366.52	0.00
366.72	0.00
366.91	0.00
367.11	0.00
367.31	0.00
367.51	0.00
367.70	0.00
367.90	0.00
368.10	0.00
368.30	0.00
368.49	0.00
368.69	0.00
368.89	0.00
369.09	0.00
369.28	0.00
369.48	0.00
369.68	0.00
369.87	0.00
370.07	0.00
370.27	0.00
370.47	58.51
370.66	229.37
370.86	308.95
371.06	381.51
371.25	425.98
371.45	337.04
371.65	374.49
371.84	374.49
372.04	374.49
372.24	414.27
372.44	358.10
372.63	423.64
372.83	374.49
373.03	465.77
373.22	337.04
373.42	484.49
373.62	409.59
373.81	442.36
374.01	491.51
374.21	491.51
374.40	496.19
374.60	393.21
374.79	416.62
374.99	503.22
375.19	451.72
375.38	543.00
375.58	510.24
375.78	580.45
375.97	533.64
376.17	575.77
376.37	493.85
376.56	526.62
376.76	461.09
376.95	578.11
377.15	587.47
377.35	535.98
377.54	526.62
377.74	580.45
377.93	547.69
378.13	596.84
378.33	631.94
378.52	613.22
378.72	589.82
378.91	561.73
379.11	552.37
379.31	645.99
379.50	653.01
379.70	608.54
379.89	615.56
380.09	559.39
380.28	627.26
380.48	585.13
380.68	662.37
380.87	599.18
381.07	734.93
381.26	683.44
381.46	695.14
381.65	648.33
381.85	683.44
382.04	624.92
382.24	763.01
382.43	655.35
382.63	582.79
382.83	608.54
383.02	718.54
383.22	807.48
383.41	734.93
383.61	709.18
383.80	795.78
384.00	734.93
384.19	727.91
384.39	779.40
384.58	870.68
384.78	667.05
384.97	770.04
385.17	784.08
385.36	760.67
385.56	816.85
385.75	730.25
385.95	828.55
386.14	751.31
386.34	725.57
386.53	847.27
386.72	821.53
386.92	915.15
387.11	880.04
387.31	931.53
387.50	765.36
387.70	849.61
387.89	849.61
388.09	943.24
388.28	954.94
388.48	847.27
388.67	971.32
388.86	866.00
389.06	983.02
389.25	929.19
389.45	1018.13
389.64	880.04
389.84	1041.54
390.03	964.30
390.22	1086.01
390.42	997.07
390.61	987.71
390.81	929.19
391.00	997.07
391.19	1034.52
391.39	1086.01
391.58	1153.88
391.78	1039.20
391.97	1043.88
392.16	1022.81
392.36	1139.84
392.55	1144.52
392.75	1090.69
392.94	1118.78
393.13	1128.14
393.33	1116.44
393.52	1118.78
393.71	1139.84
393.91	1200.69
394.10	1111.75
394.29	1130.48
394.49	1205.38
394.68	1233.46
394.88	1313.04
395.07	1280.27
395.26	1263.89
395.46	1188.99
395.65	1315.38
395.84	1334.11
396.04	1406.66
396.23	1266.23
396.42	1331.76
396.62	1425.39
396.81	1425.39
397.00	1444.11
397.19	1296.66
397.39	1294.32
397.58	1383.26
397.77	1420.71
397.97	1453.47
398.16	1448.79
398.35	1432.41
398.55	1425.39
398.74	1474.54
398.93	1593.90
399.12	1514.33
399.32	1502.62
399.51	1488.58
399.70	1657.10
399.90	1516.67
400.09	1500.28
400.28	1612.63
400.47	1577.52
400.67	1652.42
400.86	1640.72
401.05	1692.21
401.24	1661.78
401.44	1659.44
401.63	1732.00
401.82	1668.80
402.01	1689.87
402.21	1694.55
402.40	1764.76
402.59	1842.00
402.78	1781.15
402.97	1834.98
403.17	1748.38
403.36	1820.94
403.55	1825.62
403.74	1952.01
403.93	2010.52
404.13	2008.18
404.32	2033.93
404.51	2071.37
404.70	2062.01
404.89	2008.18
405.09	2064.35
405.28	1984.77
405.47	2019.88
405.66	2094.78
405.85	2073.71
406.05	1954.35
406.24	1984.77
406.43	2040.95
406.62	2200.10
406.81	2183.72
407.00	2122.87
407.20	2113.50
407.39	2127.55
407.58	2188.40
407.77	2251.60
407.96	2340.54
408.15	2310.11
408.34	2298.41
408.54	2317.13
408.73	2375.64
408.92	2385.01
409.11	2471.61
409.30	2375.64
409.49	2354.58
409.68	2427.14
409.87	2523.10
410.07	2422.45
410.26	2466.92
410.45	2576.93
410.64	2628.42
410.83	2654.17
411.02	2558.21
411.21	2874.18
411.40	2745.45
411.59	2768.85
411.78	2794.60
411.98	2658.85
412.17	2780.56
412.36	2892.90
412.55	3047.38
412.74	2841.41
412.93	2991.20
413.12	2885.88
413.31	3129.30
413.50	3119.93
413.69	3073.12
413.88	3199.51
414.07	3117.59
414.26	3180.79
414.45	3213.56
414.64	3290.79
414.83	3353.99
415.02	3368.03
415.22	3316.54
415.41	3290.79
415.60	3342.28
415.79	3487.40
415.98	3534.21
416.17	3620.81
416.36	3529.53
416.55	3646.55
416.74	3637.19
416.93	3651.24
417.12	3592.72
417.31	3765.92
417.50	3693.37
417.69	3934.44
417.88	3873.59
418.07	3723.79
418.26	3939.12
418.45	3831.46
418.64	4142.75
418.83	4018.70
419.02	3946.14
419.21	3908.69
419.39	4051.47
419.58	4077.21
419.77	3833.80
419.96	4091.26
420.15	4175.52
420.34	4117.00
420.53	4074.87
420.72	4327.65
420.91	4241.05
421.10	4313.61
421.29	4358.08
421.48	4035.08
421.67	4318.29
421.86	4367.44
422.05	4332.33
422.24	4325.31
422.43	4383.82
422.61	4524.26
422.80	4531.28
422.99	4416.59
423.18	4550.00
423.37	4533.62
423.56	4432.97
423.75	4489.15
423.94	4339.35
424.13	4009.34
424.32	4212.96
424.50	4477.44
424.69	4559.36
424.88	4610.86
425.07	4430.63
425.26	4442.34
425.45	4402.55
425.64	4531.28
425.83	4519.57
426.01	4681.07
426.20	4667.03
426.39	4596.81
426.58	4697.46
426.77	4592.13
426.96	4723.20
427.15	4688.09
427.33	4716.18
427.52	4620.22
427.71	4641.28
427.90	4699.80
428.09	4861.29
428.28	4830.87
428.46	4924.49
428.65	4889.38
428.84	4945.55
429.03	5116.41
429.22	5015.77
429.40	4952.57
429.59	5081.30
429.78	4709.16
429.97	4814.48
430.16	4978.32
430.34	5022.79
430.53	5177.26
430.72	5238.12
430.91	5163.22
431.10	5151.52
431.28	5153.86
431.47	5263.86
431.66	5509.62
431.85	5224.08
432.03	5425.36
432.22	5472.17
432.41	5453.45
432.60	5378.55
432.79	5313.02
432.97	5500.26
433.16	5366.85
433.35	5661.76
433.54	5540.05
433.72	5507.28
433.91	5607.92
434.10	5659.42
434.28	5610.26
434.47	5593.88
434.66	5692.18
434.85	5834.96
435.03	5851.34
435.22	5802.19
435.41	5900.49
435.59	5891.13
435.78	5764.74
435.97	5795.17
436.16	5987.09
436.34	5942.62
436.53	5949.64
436.72	6150.93
436.90	5825.59
437.09	6024.54
437.28	6031.56
437.46	6239.87
437.65	6216.46
437.84	6171.99
438.02	6176.67
438.21	6420.09
438.40	6188.38
438.58	6497.33
438.77	6403.71
438.96	6483.28
439.14	6572.22
439.33	6590.95
439.52	6743.08
439.70	6583.93
439.89	6841.39
440.08	7009.90
440.26	6757.13
440.45	6810.96
440.63	6825.00
440.82	7026.29
441.01	6911.60
441.19	7115.23
441.38	7014.59
441.57	7131.61
441.75	7363.33
441.94	7159.70
442.12	7180.76
442.31	7569.29
442.50	7536.52
442.68	7358.64
442.87	7620.78
443.05	7590.36
443.24	7583.34
443.43	7499.08
443.61	7323.54
443.80	7639.51
443.98	7456.95
444.17	7258.00
444.35	7461.63
444.54	7789.30
444.73	7644.19
444.91	7651.21
445.10	7758.88
445.28	7700.36
445.47	7709.72
445.65	7662.91
445.84	7700.36
446.02	7847.82
446.21	7784.62
446.39	7627.81
446.58	8011.65
446.77	7885.26
446.95	7634.83
447.14	7733.13
447.32	7971.86
447.51	7693.34
447.69	7793.98
447.88	7838.45
448.06	7686.32
448.25	7747.17
448.43	7957.82
448.62	8077.19
448.80	8060.80
448.99	8084.21
449.17	8100.59
449.36	8025.70
449.54	7929.74
449.73	8299.54
449.91	8053.78
450.10	8023.36
450.28	8215.28
450.46	8278.47
450.65	8461.04
450.83	8407.20
451.02	8266.77
451.20	8542.96
451.39	8470.40
451.57	8397.84
451.76	8250.39
451.94	8580.40
452.13	8629.56
452.31	8699.77
452.49	8262.09
452.68	8535.93
452.86	8659.98
453.05	8681.05
453.23	8587.43
453.42	8571.04
453.60	8685.73
453.78	8767.65
453.97	8685.73
454.15	8744.24
454.34	8765.31
454.52	8957.23
454.70	8762.97
454.89	8910.42
455.07	8791.05
455.26	8840.20
455.44	8957.23
455.62	9132.77
455.81	9060.21
455.99	9301.29
456.17	9198.31
456.36	9238.09
456.54	9418.32
456.73	9575.13
456.91	9577.47
457.09	9591.52
457.28	9774.08
457.46	9586.83
457.64	9678.12
457.83	9673.43
458.01	9462.79
458.19	9671.09
458.38	9762.37
458.56	9900.47
458.74	9851.31
458.93	9928.55
459.11	9825.57
459.29	9851.31
459.48	10200.05
459.66	9977.70
459.84	9846.63
460.03	10293.68
460.21	10001.11
460.39	10108.77
460.57	9987.07
460.76	10328.78
460.94	10068.98
461.12	10274.95
461.31	10260.91
461.49	10375.59
461.67	10300.70
461.85	10420.06
462.04	10509.01
462.22	11009.88
462.40	10333.47
462.59	10272.61
462.77	10509.01
462.95	10581.56
463.13	10595.61
463.32	10668.16
463.50	10785.19
463.68	10860.09
463.86	10855.40
464.05	10750.08
464.23	10775.83
464.41	11026.26
464.59	10675.18
464.78	11073.07
464.96	10857.75
465.14	10843.70
465.32	11377.34
465.50	11044.99
465.69	11150.31
465.87	10855.40
466.05	11115.20
466.23	11246.27
466.41	11232.23
466.60	11400.75
466.78	11098.82
466.96	11150.31
467.14	11204.14
467.32	11342.24
467.51	11508.41
467.69	11243.93
467.87	11407.77
468.05	11611.40
468.23	11396.07
468.41	11492.03
468.60	11293.08
468.78	11515.44
468.96	11389.05
469.14	11728.42
469.32	11672.25
469.50	11587.99
469.69	11644.17
469.87	11810.34
470.05	11971.84
470.23	11747.15
470.41	12004.61
470.59	11985.88
470.77	12011.63
470.95	12170.79
471.14	11992.90
471.32	11882.90
471.50	12325.26
471.68	12421.22
471.86	12587.40
472.04	12461.01
472.22	12648.26
472.40	12566.34
472.58	12683.36
472.77	12662.30
472.95	12989.97
473.13	13525.96
473.31	12830.82
473.49	12751.24
473.67	12926.78
473.85	13015.72
474.03	13474.46
474.21	13652.34
474.39	13624.26
474.57	13554.04
474.75	13767.03
474.93	13387.86
475.12	13603.19
475.30	13851.29
475.48	13568.09
475.66	13994.06
475.84	14113.43
476.02	14099.39
476.20	13947.25
476.38	14303.01
476.56	14567.49
476.74	14583.88
476.92	14415.36
477.10	14492.60
477.28	14766.44
477.46	14736.01
477.64	14855.38
477.82	15159.65
478.00	15573.92
478.18	15246.25
478.36	15421.79
478.54	15513.07
478.72	15765.85
478.90	15971.82
479.08	15878.19
479.26	16011.60
479.44	16095.86
479.62	16219.91
479.80	16156.72
479.98	16449.28
480.16	16652.91
480.34	16769.94
480.52	17095.27
480.70	17130.38
480.88	16929.09
481.06	17193.58
481.24	16929.09
481.41	17420.61
481.59	17476.78
481.77	18033.83
481.95	17628.92
482.13	17837.22
482.31	18181.28
482.49	18380.23
482.67	18279.58
482.85	18586.19
483.03	18801.52
483.21	18927.91
483.39	19178.35
483.57	19077.71
483.74	19318.78
483.92	19679.22
484.10	19220.48
484.28	19728.38
484.46	20002.22
484.64	20603.74
484.82	19861.79
485.00	20383.73
485.18	20563.95
485.35	20940.77
485.53	20819.07
485.71	20999.29
485.89	21453.35
486.07	21008.65
486.25	21598.46
486.43	21343.35
486.61	21614.85
486.78	22162.53
486.96	22338.07
487.14	22733.62
487.32	22593.19
487.50	22995.76
487.68	22602.55
487.85	23070.66
488.03	23332.80
488.21	23697.92
488.39	23463.87
488.57	23587.92
488.75	24093.47
488.92	24313.48
489.10	24133.26
489.28	24423.49
489.46	24765.21
489.64	24805.00
489.81	24954.79
489.99	25076.50
490.17	25259.06
490.35	25668.66
490.53	25993.99
490.70	25935.48
490.88	25919.09
491.06	26134.42
491.24	26321.66
491.41	26169.53
491.59	26649.34
491.77	26862.33
491.95	27096.38
492.13	27143.19
492.30	27508.32
492.48	27470.87
492.66	27634.71
492.84	27056.59
493.01	27632.36
493.19	27737.69
493.37	28332.18
493.54	28760.50
493.72	28659.86
493.90	28519.43
494.08	28886.89
494.25	29118.60
494.43	29516.50
494.61	29542.24
494.79	29528.20
494.96	29603.10
495.14	29680.33
495.32	29619.48
495.49	30466.75
495.67	30466.75
495.85	30771.02
496.02	30691.44
496.20	31084.65
496.38	30923.16
496.55	31307.01
496.73	31702.56
496.91	31131.47
497.09	31859.37
497.26	31655.75
497.44	31625.32
497.62	31592.55
497.79	32851.76
497.97	32388.33
498.14	32376.63
498.32	33153.69
498.50	33048.36
498.67	33146.67
498.85	32896.23
499.03	32971.13
499.20	32814.31
499.38	33324.55
499.56	33170.07
499.73	34047.77
499.91	33776.27
500.08	34141.39
500.26	34185.86
500.44	34293.53
500.61	34316.93
500.79	34003.30
500.97	34401.19
501.14	35314.00
501.32	35000.37
501.49	34466.73
501.67	35143.14
501.84	35035.48
502.02	35328.05
502.20	35393.58
502.37	36119.15
502.55	35409.96
502.72	35615.93
502.90	35899.14
503.07	35421.67
503.25	35885.09
503.43	36156.60
503.60	36575.55
503.78	36198.73
503.95	36648.11
504.13	36423.42
504.30	36800.24
504.48	36933.65
504.65	36872.80
504.83	37378.36
505.01	37631.13
505.18	37198.13
505.36	37593.68
505.53	37200.47
505.71	37399.42
505.88	37696.67
506.06	37619.43
506.23	38501.81
506.41	38293.50
506.58	38628.20
506.76	38398.83
506.93	38616.50
507.11	38443.30
507.28	38623.52
507.46	38787.36
507.63	39227.38
507.81	39325.68
507.98	38869.28
508.16	39124.40
508.33	38866.94
508.50	39585.48
508.68	39433.35
508.85	39903.79
509.03	39643.99
509.20	39636.97
509.38	40140.19
509.55	40676.17
509.73	40498.29
509.90	40318.07
510.08	40334.45
510.25	40189.34
510.42	40231.47
510.60	40788.52
510.77	41055.34
510.95	41195.77
511.12	41027.25
511.30	40966.40
511.47	41481.31
511.64	41441.53
511.82	41773.88
511.99	41375.99
512.17	41907.29
512.34	41397.06
512.51	42286.46
512.69	42007.94
512.86	42117.94
513.04	42829.46
513.21	42373.06
513.38	42799.04
513.56	42684.35
513.73	42560.30
513.90	42674.99
514.08	42588.39
514.25	42859.89
514.43	42646.90
514.60	43065.86
514.77	43239.06
514.95	43180.54
515.12	43339.70
515.29	42981.60
515.47	43435.66
515.64	43892.07
515.81	43697.80
515.99	43751.63
516.16	44465.50
516.33	44343.79
516.51	44137.82
516.68	44243.15
516.85	43903.77
517.03	44306.34
517.20	44528.69
517.37	44509.97
517.54	44353.15
517.72	44694.87
517.89	44121.44
518.06	44924.24
518.24	44919.56
518.41	44720.62
518.58	45202.77
518.75	44671.46
518.93	45347.88
519.10	45422.78
519.27	45743.43
519.45	45366.60
519.62	45628.74
519.79	45600.66
519.96	45792.58
520.14	46204.52
520.31	46108.55
520.48	46141.32
520.65	46241.96
520.83	46323.88
521.00	46520.49
521.17	45907.27
521.34	46267.71
521.52	46756.88
521.69	46583.68
521.86	47091.58
522.03	47004.98
522.20	46820.08
522.38	47215.63
522.55	47007.32
522.72	46979.23
522.89	47283.50
523.07	47449.68
523.24	47423.93
523.41	47323.29
523.58	47084.56
523.75	47543.30
523.92	47239.03
524.10	47519.90
524.27	48156.52
524.44	47899.06
524.61	48266.53
524.78	48453.77
524.96	47945.87
525.13	48339.08
525.30	48196.31
525.47	48259.51
525.64	48039.50
525.81	48821.23
525.98	48589.52
526.16	48561.44
526.33	48467.81
526.50	49167.63
526.67	48648.03
526.84	48811.87
527.01	48320.36
527.18	48875.07
527.36	48961.67
527.53	49530.42
527.70	49221.47
527.87	49277.64
528.04	49106.78
528.21	49228.49
528.38	49284.66
528.55	49177.00
528.72	49251.89
528.89	49521.05
529.07	49373.60
529.24	49455.52
529.41	49537.44
529.58	49680.21
529.75	49572.55
529.92	50145.98
530.09	49780.85
530.26	50003.20
530.43	49972.78
530.60	49827.66
530.77	50302.79
530.94	50094.49
531.11	50272.37
531.28	50003.20
531.46	50625.79
531.63	50099.17
531.80	50225.56
531.97	50597.70
532.14	50829.41
532.31	50569.61
532.48	50745.15
532.65	50630.47
532.82	50773.24
532.99	50609.40
533.16	50548.55
533.33	50955.80
533.50	51271.78
533.67	50939.42
533.84	50864.52
534.01	50997.93
534.18	50663.24
534.35	51201.56
534.52	50845.80
534.69	51423.91
534.86	51674.35
535.03	50894.95
535.20	51468.38
535.37	51426.25
535.54	51742.22
535.71	51030.70
535.88	51463.70
536.05	51430.93
536.22	51828.82
536.38	51863.93
536.55	51550.30
536.72	51664.99
536.89	51597.11
537.06	51681.37
537.23	52210.33
537.40	52034.79
537.57	51868.61
537.74	52186.92
537.91	52011.38
538.08	51906.06
538.25	52196.29
538.42	52182.24
538.59	52406.94
538.75	51817.12
538.92	52243.10
539.09	51990.32
539.26	52107.35
539.43	52090.96
539.60	52264.16
539.77	52346.08
539.94	52633.97
540.11	52722.91
540.28	52334.38
540.44	52437.36
540.61	52306.29
540.78	52584.82
540.95	52638.65
541.12	52612.90
541.29	52495.88
541.46	52472.47
541.62	52491.19
541.79	52832.91
541.96	52617.58
542.13	52587.16
542.30	53176.97
542.47	52966.32
542.63	53195.70
542.80	53275.27
542.97	53361.87
543.14	53481.24
543.31	53347.83
543.48	53106.76
543.64	53656.78
543.81	53448.47
543.98	53705.93
544.15	53514.01
544.32	53865.09
544.48	54026.59
544.65	53705.93
544.82	53722.32
544.99	53521.03
545.16	53511.67
545.32	53703.59
545.49	54204.47
545.66	54155.32
545.83	53750.40
546.00	54010.20
546.16	53963.39
546.33	53668.48
546.50	53895.52
546.67	53799.55
546.83	53614.65
547.00	53918.92
547.17	54148.29
547.34	54211.49
547.50	54094.46
547.67	54143.61
547.84	53970.41
548.00	54319.15
548.17	54419.80
548.34	54155.32
548.51	54471.29
548.67	54162.34
548.84	54478.31
549.01	54637.47
549.18	54494.69
549.34	54330.86
549.51	54349.58
549.68	54501.71
549.84	54466.61
550.01	54740.45
550.18	54344.90
550.34	54506.40
550.51	54747.47
550.68	54857.48
550.84	54244.26
551.01	54813.01
551.18	54639.81
551.34	54557.89
551.51	54906.63
551.68	54796.62
551.84	54621.08
552.01	54773.22
552.18	55107.91
552.34	54672.57
552.51	54817.69
552.68	54864.50
552.84	54805.98
553.01	54915.99
553.18	54883.22
553.34	54913.65
553.51	55093.87
553.67	54901.95
553.84	55105.57
554.01	55140.68
554.17	55154.72
554.34	55065.78
554.51	55171.11
554.67	55281.11
554.84	55320.90
555.00	55309.20
555.17	55360.69
555.33	55402.82
555.50	55299.84
555.67	55365.37
555.83	55423.89
556.00	55269.41
556.16	55622.83
556.33	55337.29
556.50	55257.71
556.66	55510.49
556.83	55419.20
556.99	55608.79
557.16	55686.03
557.32	55496.44
557.49	55505.80
557.65	55435.59
557.82	55379.42
557.98	55781.99
558.15	55615.81
558.32	55824.12
558.48	55650.92
558.65	55758.58
558.81	55824.12
558.98	55702.41
559.14	55641.56
559.31	55716.45
559.47	55456.65
559.64	55784.33
559.80	55833.48
559.97	55789.01
560.13	55817.10
560.30	55751.56
560.46	55700.07
560.63	55819.44
560.79	55683.69
560.96	55966.89
561.12	55690.71
561.29	55690.71
561.45	55784.33
561.61	55852.20
561.78	56095.62
561.94	56053.49
562.11	56065.19
562.27	55969.23
562.44	56081.58
562.60	56142.43
562.77	55751.56
562.93	55955.19
563.10	56093.28
563.26	55887.31
563.42	56236.05
563.59	56102.64
563.75	55955.19
563.92	56205.62
564.08	55690.71
564.24	55959.87
564.41	55767.94
564.57	55852.20
564.74	56079.24
564.90	56238.39
565.07	56214.99
565.23	56240.73
565.39	56135.41
565.56	56123.71
565.72	56233.71
565.88	56090.94
566.05	56296.91
566.21	56095.62
566.38	56062.85
566.54	56217.33
566.70	56327.33
566.87	56509.89
567.03	56133.07
567.19	56516.92
567.36	56453.72
567.52	56177.54
567.68	56376.48
567.85	56039.45
568.01	56189.24
568.17	56128.39
568.34	56336.69
568.50	56303.93
568.66	56343.72
568.83	56369.46
568.99	56069.87
569.15	56341.38
569.32	56357.76
569.48	56083.92
569.64	56395.21
569.81	56261.80
569.97	56413.93
570.13	56112.00
570.30	56128.39
570.46	56509.89
570.62	56334.35
570.78	56163.50
570.95	56044.13
571.11	56362.44
571.27	56149.45
571.43	56151.79
571.60	56451.38
571.76	56477.13
571.92	56158.81
572.09	56502.87
572.25	56341.38
572.41	56519.26
572.57	56559.05
572.74	56736.93
572.90	56507.55
573.06	56409.25
573.22	56449.04
573.38	56549.68
573.55	56638.62
573.71	56750.97
573.87	56582.45
574.03	56273.50
574.20	56369.46
574.36	56598.83
574.52	56430.32
574.68	56257.12
574.84	56339.04
575.01	56552.02
575.17	56582.45
575.33	56601.18
575.49	56598.83
575.65	56727.56
575.82	56624.58
575.98	56399.89
576.14	56624.58
576.30	56629.26
576.46	56516.92
576.62	56287.54
576.79	56507.55
576.95	56460.74
577.11	56495.85
577.27	56552.02
577.43	56657.35
577.59	56430.32
577.75	56643.30
577.92	56619.90
578.08	56392.87
578.24	56383.51
578.40	56456.06
578.56	56456.06
578.72	56577.77
578.88	56683.09
579.04	56891.40
579.21	56652.67
579.37	56575.43
579.53	56926.51
579.69	56315.63
579.85	56275.84
580.01	56350.74
580.17	56395.21
580.33	56486.49
580.49	56523.94
580.65	56582.45
580.82	56718.20
580.98	56404.57
581.14	56725.22
581.30	56844.59
581.46	56552.02
581.62	56495.85
581.78	56369.46
581.94	56647.99
582.10	56420.95
582.26	56556.70
582.42	56860.97
582.58	56776.72
582.74	56587.13
582.90	56680.75
583.06	56748.63
583.22	56456.06
583.38	56575.43
583.54	56435.00
583.70	56533.30
583.86	56409.25
584.02	56231.37
584.18	56746.29
584.34	56755.65
584.50	56825.87
584.66	56676.07
584.82	56442.02
584.98	56781.40
585.14	56647.99
585.30	56444.36
585.46	56666.71
585.62	56488.83
585.78	56568.41
585.94	56397.55
586.10	56846.93
586.26	56722.88
586.42	56753.31
586.58	56741.61
586.74	56914.81
586.90	56451.38
587.06	56545.00
587.22	56598.83
587.38	56451.38
587.54	56900.76
587.70	56718.20
587.86	56865.66
588.02	56868.00
588.18	56870.34
588.34	56872.68
588.49	56584.79
588.65	56676.07
588.81	56711.18
588.97	56757.99
589.13	56633.94
589.29	56788.42
589.45	57013.11
589.61	56975.66
589.77	57066.94
589.93	56886.72
590.08	56987.36
590.24	56952.26
590.40	56804.80
590.56	56935.87
590.72	56952.26
590.88	56692.46
591.04	56793.10
591.20	57092.69
591.35	57095.03
591.51	57090.35
591.67	57017.79
591.83	57062.26
591.99	56868.00
592.15	56999.07
592.31	56594.15
592.46	56872.68
592.62	56903.10
592.78	56748.63
592.94	56828.21
593.10	57169.93
593.26	57130.14
593.41	56816.50
593.57	56821.19
593.73	57050.56
593.89	57183.97
594.05	56921.83
594.20	56755.65
594.36	57066.94
594.52	56853.95
594.68	56809.48
594.84	56636.28
594.99	56945.23
595.15	57078.64
595.31	57298.65
595.47	57085.67
595.62	56839.91
595.78	56905.44
595.94	56931.19
596.10	56938.21
596.25	57013.11
596.41	56732.25
596.57	56605.86
596.73	57127.80
596.88	57099.71
597.04	57015.45
597.20	57031.83
597.36	57045.88
597.51	57223.76
597.67	57066.94
597.83	56856.29
597.99	57116.09
598.14	56938.21
598.30	56898.42
598.46	56882.04
598.61	56973.32
598.77	56830.55
598.93	56940.55
599.09	57193.33
599.24	57293.97
599.40	57296.31
599.56	57066.94
599.71	56807.14
599.87	56980.34
600.03	56821.19
600.18	56868.00
600.34	56975.66
600.50	56886.72
600.65	57275.25
600.81	57111.41
600.97	57141.84
601.12	57116.09
601.28	57139.50
601.44	57134.82
601.59	57144.18
601.75	56963.96
601.91	56966.30
602.06	56781.40
602.22	56903.10
602.37	56935.87
602.53	57085.67
602.69	57141.84
602.84	57006.09
603.00	57010.77
603.16	57158.22
603.31	57165.24
603.47	57120.77
603.62	57059.92
603.78	56914.81
603.94	56959.28
604.09	56865.66
604.25	56818.84
604.40	56931.19
604.56	56800.12
604.71	57228.44
604.87	56987.36
605.03	56846.93
605.18	56926.51
605.34	56975.66
605.49	56556.70
605.65	56996.73
605.80	56987.36
605.96	56793.10
606.12	56781.40
606.27	57200.35
606.43	56750.97
606.58	56980.34
606.74	56853.95
606.89	56875.02
607.05	56935.87
607.20	56793.10
607.36	57195.67
607.51	56575.43
607.67	56528.62
607.82	56711.18
607.98	56746.29
608.13	56828.21
608.29	56772.03
608.44	56921.83
608.60	56832.89
608.75	56919.49
608.91	56928.85
609.06	56722.88
609.22	56807.14
609.37	56591.81
609.53	56722.88
609.68	56760.33
609.84	56472.45
609.99	56736.93
610.15	56624.58
610.30	56570.75
610.46	56308.61
610.61	56552.02
610.76	56903.10
610.92	56603.52
611.07	56507.55
611.23	56446.70
611.38	56570.75
611.54	56568.41
611.69	56402.23
611.84	56320.31
612.00	56458.40
612.15	56226.69
612.31	56437.34
612.46	56460.74
612.62	56545.00
612.77	56676.07
612.92	56659.69
613.08	56718.20
613.23	56430.32
613.39	56416.27
613.54	56163.50
613.69	56425.64
613.85	56112.00
614.00	56308.61
614.15	56257.12
614.31	56219.67
614.46	56406.91
614.62	56334.35
614.77	56575.43
614.92	56271.16
615.08	56275.84
615.23	56339.04
615.38	56308.61
615.54	56168.18
615.69	56303.93
615.84	56121.37
616.00	56130.73
616.15	55973.91
616.30	56205.62
616.46	56037.11
616.61	56219.67
616.76	56313.29
616.92	56037.11
617.07	56243.07
617.22	56214.99
617.37	55683.69
617.53	55994.98
617.68	55913.06
617.83	55957.53
617.99	56093.28
618.14	55803.05
618.29	56165.84
618.45	55945.83
618.60	56076.90
618.75	55859.23
618.90	55756.24
619.06	55765.60
619.21	55889.65
619.36	56172.86
619.51	55852.20
619.67	55393.46
619.82	55707.09
619.97	55894.33
620.12	55718.79
620.28	55435.59
620.43	55669.64
620.58	55793.69
620.73	55662.62
620.89	55805.39
621.04	55770.28
621.19	55697.73
621.34	55985.61
621.49	55772.63
621.65	55730.50
621.80	55625.17
621.95	55381.76
622.10	55564.32
622.25	55143.02
622.41	55531.55
622.56	55583.04
622.71	55487.08
622.86	55561.98
623.01	55777.31
623.16	55409.84
623.32	55622.83
623.47	55580.70
623.62	55316.22
623.77	55351.33
623.92	55566.66
624.07	55346.65
624.23	55243.66
624.38	55243.66
624.53	55229.62
624.68	55306.86
624.83	55622.83
624.98	55173.45
625.13	54955.78
625.29	55194.51
625.44	55248.35
625.59	54866.84
625.74	55004.93
625.89	54927.69
626.04	54841.09
626.19	55047.06
626.34	55171.11
626.49	54913.65
626.65	54941.74
626.80	55140.68
626.95	54859.82
627.10	54761.51
627.25	55070.46
627.40	54766.20
627.55	54609.38
627.70	54944.08
627.85	54656.19
628.00	54525.12
628.15	54703.00
628.30	54555.55
628.45	54836.41
628.60	54616.40
628.76	54735.77
628.91	54789.60
629.06	54604.70
629.21	54794.28
629.36	54508.74
629.51	54403.41
629.66	54485.33
629.81	54138.93
629.96	54148.29
630.11	54539.16
630.26	54321.49
630.41	54174.04
630.56	54403.41
630.71	54408.09
630.86	54543.84
631.01	54358.94
631.16	54260.64
631.31	54471.29
631.46	54372.99
631.61	54281.70
631.76	54342.56
631.91	54398.73
632.06	53972.75
632.21	54061.69
632.36	54197.44
632.51	53858.07
632.66	54003.18
632.81	53949.35
632.96	54284.04
633.10	54164.68
633.25	54007.86
633.40	54181.06
633.55	54031.27
633.70	53855.73
633.85	53914.24
634.00	53822.96
634.15	53954.03
634.30	53509.33
634.45	53989.14
634.60	53652.10
634.75	53958.71
634.90	53848.71
635.05	54094.46
635.19	53773.81
635.34	54096.80
635.49	53766.79
635.64	53916.58
635.79	53607.63
635.94	53499.97
636.09	53476.56
636.24	53385.28
636.39	53399.32
636.53	53851.05
636.68	53556.14
636.83	53535.07
636.98	53670.82
637.13	53392.30
637.28	53673.16
637.43	53560.82
637.57	53563.16
637.72	53296.34
637.87	53495.28
638.02	53235.48
638.17	53385.28
638.32	53289.32
638.46	53155.91
638.61	53073.99
638.76	53017.82
638.91	53436.77
639.06	53186.33
639.20	53436.77
639.35	53322.08
639.50	52928.87
639.65	53324.43
639.80	53294.00
639.94	52814.19
640.09	53102.07
640.24	52961.64
640.39	52765.04
640.54	52947.60
640.68	52750.99
640.83	52846.96
640.98	52823.55
641.13	52500.56
641.27	52931.22
641.42	52772.06
641.57	52842.27
641.72	52956.96
641.86	52687.80
642.01	52734.61
642.16	52678.44
642.31	52491.19
642.45	52865.68
642.60	52774.40
642.75	52456.09
642.90	52758.02
643.04	52388.21
643.19	52683.12
643.34	52521.62
643.48	52523.96
643.63	52624.60
643.78	52332.04
643.93	52861.00
644.07	52814.19
644.22	52729.93
644.37	52360.12
644.51	52673.76
644.66	52404.59
644.81	52229.05
644.95	52233.74
645.10	52032.45
645.25	52306.29
645.39	52257.14
645.54	52664.39
645.69	52776.74
645.83	52442.04
645.98	52224.37
646.13	52659.71
646.27	52149.48
646.42	52196.29
646.57	51976.28
646.71	52058.20
646.86	52226.71
647.00	51744.56
647.15	51821.80
647.30	51569.02
647.44	51496.47
647.59	51894.36
647.74	51639.24
647.88	51728.18
648.03	52025.43
648.17	52058.20
648.32	51784.35
648.47	51859.25
648.61	51796.06
648.76	51810.10
648.90	51782.01
649.05	51629.88
649.20	51679.03
649.34	51437.95
649.49	51299.86
649.63	51414.55
649.78	51679.03
649.92	51437.95
650.07	51854.57
650.21	51473.06
650.36	51585.41
650.51	51791.37
650.65	51725.84
650.80	51648.60
650.94	51693.07
651.09	51587.75
651.23	51281.14
651.38	51522.21
651.52	51255.39
651.67	51070.49
651.81	51180.49
651.96	51262.41
652.10	50948.78
652.25	51107.94
652.39	51423.91
652.54	51344.33
652.68	51306.88
652.83	51681.37
652.97	51166.45
653.12	51194.54
653.26	51199.22
653.41	51110.28
653.55	50974.53
653.70	50731.11
653.84	51117.30
653.99	50894.95
654.13	51320.93
654.27	50850.48
654.42	50686.64
654.56	50908.99
654.71	51152.41
654.85	50930.06
655.00	51171.13
655.14	51173.47
655.29	50829.41
655.43	50688.98
655.57	50700.68
655.72	50595.36
655.86	50593.02
656.01	50508.76
656.15	50092.15
656.30	50394.07
656.44	50197.47
656.58	50527.48
656.73	50321.52
656.87	50408.12
657.01	50513.44
657.16	50761.54
657.30	50520.46
657.45	50447.91
657.59	50625.79
657.73	50145.98
657.88	50459.61
658.02	50160.02
658.16	50012.57
658.31	49610.00
658.45	49954.05
658.60	49925.97
658.74	49778.51
658.88	49808.94
659.03	49902.56
659.17	49638.08
659.31	50115.55
659.46	49935.33
659.60	49588.93
659.74	50148.32
659.89	49743.41
660.03	49408.71
660.17	49818.30
660.32	49591.27
660.46	49624.04
660.60	49415.73
660.74	49490.63
660.89	49052.95
661.03	48879.75
661.17	49399.35
661.32	49022.52
661.46	49036.56
661.60	49301.04
661.74	49244.87
661.89	48917.20
662.03	49291.68
662.17	48865.70
662.31	48821.23
662.46	49092.74
662.60	48800.17
662.74	48655.06
662.88	48491.22
663.03	48416.32
663.17	48095.67
663.31	48371.85
663.45	48423.34
663.60	48257.17
663.74	48292.27
663.88	48320.36
664.02	48086.31
664.17	48479.52
664.31	48011.41
664.45	48474.84
664.59	48690.16
664.73	47901.40
664.88	48060.56
665.02	47606.50
665.16	47363.08
665.30	47657.99
665.44	47599.47
665.59	47487.13
665.73	47126.69
665.87	47047.11
666.01	47767.99
666.15	47374.78
666.29	47531.60
666.44	47393.51
666.58	47400.53
666.72	47189.88
666.86	47412.23
667.00	47370.10
667.14	47260.10
667.28	47063.49
667.43	47075.19
667.57	47538.62
667.71	46644.54
667.85	46384.74
667.99	46368.35
668.13	46560.28
668.27	46597.73
668.41	46497.08
668.56	46293.46
668.70	46415.16
668.84	46576.66
668.98	46337.93
669.12	46384.74
669.26	46256.01
669.40	45734.07
669.54	46003.23
669.68	46059.40
669.82	45886.20
669.96	45713.00
670.10	45209.79
670.25	45673.21
670.39	45265.96
670.53	45336.18
670.67	44975.73
670.81	45687.26
670.95	45308.09
671.09	45680.24
671.23	45464.91
671.37	45186.38
671.51	45539.80
671.65	45322.13
671.79	45081.06
671.93	44336.77
672.07	45254.26
672.21	44966.37
672.35	44694.87
672.49	44746.36
672.63	44453.79
672.77	43800.79
672.91	44570.82
673.05	44306.34
673.19	44156.55
673.33	43873.34
673.47	44329.75
673.61	43899.09
673.75	44058.24
673.89	43964.62
674.03	43793.76
674.17	43807.81
674.31	44222.08
674.45	43222.67
674.59	43597.16
674.73	43304.59
674.87	43349.06
675.01	42866.91
675.15	43005.00
675.29	43103.31
675.43	43281.19
675.56	42560.30
675.70	43058.84
675.84	43229.69
675.98	41691.96
676.12	42368.38
676.26	42822.44
676.40	42539.24
676.54	42302.84
676.68	42174.11
676.82	41057.68
676.96	41563.23
677.10	41619.41
677.23	41265.99
677.37	41123.21
677.51	41237.90
677.65	40891.50
677.79	40587.23
677.93	41268.33
678.07	40896.18
678.21	40730.00
678.34	40840.01
678.48	40769.79
678.62	40495.95
678.76	40407.01
678.90	40109.76
679.04	40116.78
679.18	39938.90
679.31	39487.18
679.45	39178.23
679.59	39276.53
679.73	39292.91
679.87	39562.08
680.00	39234.40
680.14	38990.98
680.28	38998.01
680.42	39288.23
680.56	38955.88
680.70	38899.70
680.83	38960.56
680.97	38890.34
681.11	38918.43
681.25	38602.46
681.39	38628.20
681.52	38220.95
681.66	38515.86
681.80	38148.39
681.94	37448.57
682.07	37591.34
682.21	37280.05
682.35	37589.00
682.49	37387.72
682.62	37153.66
682.76	37083.45
682.90	36549.81
683.04	36388.31
683.17	37151.32
683.31	37060.04
683.45	36961.74
683.59	37207.50
683.72	36376.61
683.86	36105.10
684.00	36119.15
684.13	35627.63
684.27	35676.79
684.41	35594.87
684.55	35424.01
684.68	35534.01
684.82	35683.81
684.96	35129.10
685.09	35239.11
685.23	34878.66
685.37	34983.99
685.50	35526.99
685.64	34939.52
685.78	34941.86
685.91	34796.74
686.05	34799.08
686.19	34218.63
686.32	34490.13
686.46	33750.52
686.60	33591.37
686.73	34106.29
686.87	33556.26
687.01	33755.21
687.14	33130.28
687.28	33392.42
687.42	33329.23
687.55	32940.70
687.69	33160.71
687.82	33083.47
687.96	33013.26
688.10	32889.21
688.23	32987.51
688.37	32753.46
688.50	32807.29
688.64	32299.39
688.78	32620.05
688.91	31990.44
689.05	31997.46
689.18	32348.54
689.32	31402.97
689.46	31395.95
689.59	31377.22
689.73	31864.05
689.86	31019.12
690.00	31051.89
690.13	31056.57
690.27	30916.14
690.41	30841.24
690.54	30838.90
690.68	30623.57
690.81	31201.68
690.95	30387.18
691.08	30717.19
691.22	30520.59
691.35	29947.15
691.49	30085.25
691.62	30225.68
691.76	29839.49
691.89	29481.39
692.03	29537.56
692.16	29734.17
692.30	29027.32
692.43	29333.93
692.57	29017.96
692.70	28954.77
692.84	28896.25
692.97	28751.14
693.11	29149.03
693.24	28603.69
693.38	28545.17
693.51	28704.33
693.65	28816.68
693.78	28842.42
693.92	28648.16
694.05	28268.99
694.19	27971.74
694.32	27913.23
694.45	27723.65
694.59	27386.61
694.72	27459.16
694.86	27051.91
694.99	26991.06
695.13	27133.83
695.26	26995.74
695.39	26647.00
695.53	26988.72
695.66	27213.41
695.80	26892.76
695.93	26670.40
696.07	26759.34
696.20	26387.20
696.33	26569.76
696.47	26309.96
696.60	26302.94
696.73	25790.36
696.87	25968.24
697.00	25570.35
697.14	25858.24
697.27	24980.54
697.40	25083.52
697.54	25090.54
697.67	24795.64
697.80	24915.00
697.94	25092.88
698.07	24624.78
698.21	24746.48
698.34	24526.47
698.47	24587.33
698.61	24533.50
698.74	24631.80
698.87	24540.52
699.01	24154.33
699.14	24432.85
699.27	24278.38
699.40	24133.26
699.54	23772.82
699.67	23302.37
699.80	23276.63
699.94	23267.27
700.07	23372.59
700.20	23091.73
700.34	22867.03
700.47	22948.95
700.60	22972.36
700.73	22881.08
700.87	22703.20
701.00	22459.78
701.13	22661.07
701.26	22450.42
701.40	22368.50
701.53	22586.17
701.66	22782.77
701.79	21965.93
701.93	22003.38
702.06	21766.98
702.19	21788.05
702.32	21497.82
702.46	21537.61
702.59	21301.22
702.72	21184.19
702.85	21064.82
702.99	21153.76
703.12	21013.33
703.25	20872.90
703.38	20980.56
703.51	20800.34
703.65	20573.31
703.78	20456.28
703.91	20507.77
704.04	20491.39
704.17	20479.69
704.31	20149.67
704.44	20100.52
704.57	19985.83
704.70	20102.86
704.83	19779.87
704.96	19665.18
705.10	19711.99
705.23	19520.07
>>>>>End Processed Spectral Data<<<<<
