SpectraSuite Data File
++++++++++++++++++++++++++++++++++++
Date: Fri Oct 18 13:55:39 GMT-05:00 2013
User: bianchi
Dark Spectrum Present: No
Reference Spectrum Present: No
Number of Sampled Component Spectra: 1
Spectrometers: USB2+H05261
Integration Time (usec): 100000 (USB2+H05261)
Spectra Averaged: 1 (USB2+H05261)
Boxcar Smoothing: 0 (USB2+H05261)
Correct for Electrical Dark: No (USB2+H05261)
Strobe/Lamp Enabled: No (USB2+H05261)
Correct for Detector Non-linearity: No (USB2+H05261)
Correct for Stray Light: No (USB2+H05261)
Number of Pixels in Processed Spectrum: 2048
>>>>>Begin Processed Spectral Data<<<<<
365.73	0.00
365.92	0.00
366.12	0.00
366.32	0.00
366.52	0.00
366.72	0.00
366.91	0.00
367.11	0.00
367.31	0.00
367.51	0.00
367.70	0.00
367.90	4.68
368.10	0.00
368.30	0.00
368.49	0.00
368.69	0.00
368.89	0.00
369.09	0.00
369.28	0.00
369.48	0.00
369.68	0.00
369.87	0.00
370.07	0.00
370.27	0.00
370.47	18.72
370.66	283.20
370.86	315.97
371.06	369.80
371.25	306.61
371.45	243.42
371.65	374.49
371.84	262.14
372.04	414.27
372.24	411.93
372.44	388.53
372.63	423.64
372.83	440.02
373.03	402.57
373.22	430.66
373.42	414.27
373.62	463.43
373.81	507.90
374.01	468.11
374.21	526.62
374.40	437.68
374.60	437.68
374.79	465.77
374.99	552.37
375.19	491.51
375.38	442.36
375.58	428.32
375.78	564.07
375.97	552.37
376.17	580.45
376.37	557.05
376.56	521.94
376.76	524.28
376.95	496.19
377.15	568.75
377.35	594.50
377.54	599.18
377.74	526.62
377.93	575.77
378.13	514.92
378.33	561.73
378.52	582.79
378.72	573.43
378.91	531.30
379.11	655.35
379.31	571.09
379.50	601.52
379.70	657.69
379.89	636.63
380.09	636.63
380.28	660.03
380.48	653.01
380.68	608.54
380.87	720.88
381.07	638.97
381.26	671.73
381.46	624.92
381.65	622.58
381.85	655.35
382.04	650.67
382.24	688.12
382.43	692.80
382.63	674.07
382.83	688.12
383.02	725.57
383.22	772.38
383.41	702.16
383.61	798.12
383.80	734.93
384.00	835.57
384.19	746.63
384.39	791.10
384.58	814.51
384.78	730.25
384.97	819.19
385.17	730.25
385.36	849.61
385.56	770.04
385.75	835.57
385.95	840.25
386.14	819.19
386.34	772.38
386.53	882.38
386.72	863.66
386.92	954.94
387.11	828.55
387.31	866.00
387.50	926.85
387.70	870.68
387.89	894.08
388.09	901.11
388.28	863.66
388.48	866.00
388.67	868.34
388.86	868.34
389.06	887.06
389.25	1006.43
389.45	903.45
389.64	957.28
389.84	1074.31
390.03	933.87
390.22	971.32
390.42	1034.52
390.61	898.77
390.81	976.00
391.00	924.51
391.19	1118.78
391.39	999.41
391.58	1097.71
391.78	1060.26
391.97	1057.92
392.16	1011.11
392.36	1041.54
392.55	1149.20
392.75	1043.88
392.94	1060.26
393.13	1139.84
393.33	1139.84
393.52	1198.35
393.71	1158.57
393.91	1064.94
394.10	1149.20
394.29	1247.51
394.49	1247.51
394.68	1242.82
394.88	1287.29
395.07	1320.06
395.26	1221.76
395.46	1170.27
395.65	1364.53
395.84	1306.02
396.04	1324.74
396.23	1329.42
396.42	1364.53
396.62	1348.15
396.81	1331.76
397.00	1345.81
397.19	1448.79
397.39	1420.71
397.58	1458.15
397.77	1327.08
397.97	1334.11
398.16	1411.34
398.35	1502.62
398.55	1444.11
398.74	1406.66
398.93	1542.41
399.12	1392.62
399.32	1493.26
399.51	1453.47
399.70	1549.43
399.90	1509.65
400.09	1591.56
400.28	1638.38
400.47	1589.22
400.67	1600.93
400.86	1722.63
401.05	1645.40
401.24	1706.25
401.44	1771.79
401.63	1692.21
401.82	1757.74
402.01	1640.72
402.21	1666.46
402.40	1762.42
402.59	1706.25
402.78	1713.27
402.97	1837.32
403.17	1872.43
403.36	1783.49
403.55	1886.47
403.74	1942.64
403.93	1900.52
404.13	1858.39
404.32	1940.30
404.51	1872.43
404.70	2040.95
404.89	1961.37
405.09	1912.22
405.28	1937.96
405.47	2094.78
405.66	2062.01
405.85	2122.87
406.05	2015.20
406.24	2026.90
406.43	2069.03
406.62	2179.04
406.81	2186.06
407.00	2148.61
407.20	2101.80
407.39	2169.68
407.58	2169.68
407.77	2265.64
407.96	2230.53
408.15	2359.26
408.34	2335.85
408.54	2356.92
408.73	2380.32
408.92	2324.15
409.11	2434.16
409.30	2401.39
409.49	2424.80
409.68	2375.64
409.87	2368.62
410.07	2576.93
410.26	2546.50
410.45	2539.48
410.64	2621.40
410.83	2609.70
411.02	2715.02
411.21	2731.41
411.40	2736.09
411.59	2813.32
411.78	2747.79
411.98	2745.45
412.17	2684.59
412.36	2672.89
412.55	2939.71
412.74	2930.35
412.93	2946.73
413.12	2883.54
413.31	3052.06
413.50	3068.44
413.69	2998.23
413.88	3265.05
414.07	3138.66
414.26	3042.70
414.45	3110.57
414.64	3215.90
414.83	3272.07
415.02	3295.47
415.22	3286.11
415.41	3377.39
415.60	3393.78
415.79	3456.97
415.98	3503.78
416.17	3499.10
416.36	3585.70
416.55	3557.61
416.74	3653.58
416.93	3688.68
417.12	3627.83
417.31	3721.45
417.50	3606.77
417.69	3791.67
417.88	3976.57
418.07	3873.59
418.26	3810.39
418.45	3911.04
418.64	4007.00
418.83	4060.83
419.02	3985.93
419.21	4037.42
419.39	4100.62
419.58	4002.32
419.77	3971.89
419.96	4163.81
420.15	4112.32
420.34	4138.07
420.53	4086.58
420.72	4166.15
420.91	4250.41
421.10	4205.94
421.29	4351.06
421.48	4135.73
421.67	4203.60
421.86	4428.29
422.05	4329.99
422.24	4222.33
422.43	4409.57
422.61	4493.83
422.80	4559.36
422.99	4603.83
423.18	4482.13
423.37	4507.87
423.56	4512.55
423.75	4540.64
423.94	4395.53
424.13	4133.39
424.32	4198.92
424.50	4650.64
424.69	4620.22
424.88	4720.86
425.07	4512.55
425.26	4545.32
425.45	4582.77
425.64	4430.63
425.83	4414.25
426.01	4718.52
426.20	4599.15
426.39	4561.70
426.58	4711.50
426.77	4652.98
426.96	4587.45
427.15	4669.37
427.33	4732.56
427.52	4599.15
427.71	4667.03
427.90	4814.48
428.09	4854.27
428.28	4805.12
428.46	4816.82
428.65	4959.60
428.84	5083.64
429.03	4959.60
429.22	4910.44
429.40	5111.73
429.59	5186.63
429.78	4877.68
429.97	4854.27
430.16	4964.28
430.34	5104.71
430.53	5188.97
430.72	5083.64
430.91	5170.24
431.10	5205.35
431.28	5254.50
431.47	5235.78
431.66	5303.65
431.85	5205.35
432.03	5273.23
432.22	5397.28
432.41	5343.44
432.60	5554.09
432.79	5469.83
432.97	5495.58
433.16	5399.62
433.35	5404.30
433.54	5575.16
433.72	5511.96
433.91	5708.57
434.10	5851.34
434.28	5666.44
434.47	5816.23
434.66	5790.49
434.85	5535.37
435.03	5668.78
435.22	5748.36
435.41	6061.99
435.59	5823.25
435.78	5973.05
435.97	5839.64
436.16	5881.77
436.34	5940.28
436.53	5968.37
436.72	6169.65
436.90	5895.81
437.09	6237.53
437.28	5909.85
437.46	5954.32
437.65	6106.46
437.84	6274.98
438.02	6047.94
438.21	6195.40
438.40	6108.80
438.58	6298.38
438.77	6434.13
438.96	6211.78
439.14	6532.44
439.33	6434.13
439.52	6644.78
439.70	6623.72
439.89	6593.29
440.08	6715.00
440.26	6878.83
440.45	6621.38
440.63	6913.94
440.82	6960.75
441.01	6815.64
441.19	7089.48
441.38	7173.74
441.57	7222.89
441.75	7176.08
441.94	7232.26
442.12	7215.87
442.31	7445.24
442.50	7389.07
442.68	7431.20
442.87	7489.71
443.05	7206.51
443.24	7700.36
443.43	7353.96
443.61	7644.19
443.80	7756.54
443.98	7583.34
444.17	7492.05
444.35	7611.42
444.54	7838.45
444.73	7485.03
444.91	7655.89
445.10	7669.94
445.28	7698.02
445.47	7473.33
445.65	7709.72
445.84	7852.50
446.02	7826.75
446.21	7524.82
446.39	7765.90
446.58	7723.77
446.77	7700.36
446.95	7522.48
447.14	7702.70
447.32	7765.90
447.51	7906.33
447.69	7648.87
447.88	7822.07
448.06	7754.19
448.25	8070.17
448.43	7793.98
448.62	7932.08
448.80	7840.79
448.99	7826.75
449.17	7955.48
449.36	7808.03
449.54	8287.84
449.73	8149.75
449.91	8212.94
450.10	8292.52
450.28	8416.57
450.46	8393.16
450.65	8116.98
450.83	8355.71
451.02	8205.92
451.20	8493.80
451.39	8517.21
451.57	8507.85
451.76	8358.05
451.94	8397.84
452.13	8652.96
452.31	8521.89
452.49	8475.08
452.68	8479.76
452.86	8589.77
453.05	8613.17
453.23	8762.97
453.42	8589.77
453.60	8442.31
453.78	8727.86
453.97	8521.89
454.15	8709.13
454.34	8891.70
454.52	8959.57
454.70	8952.55
454.89	8891.70
455.07	8840.20
455.26	9104.68
455.44	9231.07
455.62	8982.98
455.81	9172.56
455.99	9130.43
456.17	9212.35
456.36	9123.41
456.54	9268.52
456.73	9296.61
456.91	9696.84
457.09	9404.27
457.28	9921.53
457.46	9437.04
457.64	9745.99
457.83	9837.27
458.01	9430.02
458.19	9626.62
458.38	9542.36
458.56	9802.16
458.74	9825.57
458.93	9743.65
459.11	9818.55
459.29	9884.08
459.48	9907.49
459.66	9968.34
459.84	10047.92
460.03	10237.50
460.21	10167.29
460.39	10157.92
460.57	10054.94
460.76	10071.33
460.94	10076.01
461.12	10171.97
461.31	10195.37
461.49	10429.43
461.67	10230.48
461.85	10501.98
462.04	10232.82
462.22	11159.67
462.40	10518.37
462.59	10621.35
462.77	10668.16
462.95	10658.80
463.13	10736.04
463.32	10930.30
463.50	10693.91
463.68	10679.86
463.86	10724.33
464.05	10621.35
464.23	10815.62
464.41	10981.79
464.59	10785.19
464.78	11056.69
464.96	10974.77
465.14	10717.31
465.32	11152.65
465.50	11084.78
465.69	11070.73
465.87	10953.71
466.05	11105.84
466.23	10768.80
466.41	11021.58
466.60	11517.78
466.78	10949.03
466.96	10993.50
467.14	11089.46
467.32	11180.74
467.51	11428.84
467.69	11133.93
467.87	11578.63
468.05	11307.13
468.23	11531.82
468.41	11283.72
468.60	11627.78
468.78	11609.06
468.96	11286.06
469.14	11688.64
469.32	11576.29
469.50	11344.58
469.69	11941.41
469.87	11983.54
470.05	11908.65
470.23	11929.71
470.41	11946.09
470.59	12166.10
470.77	11875.88
470.95	12098.23
471.14	12372.07
471.32	11875.88
471.50	12538.25
471.68	12236.32
471.86	12339.30
472.04	12678.68
472.22	13092.96
472.40	12353.35
472.58	12631.87
472.77	12638.89
472.95	12697.41
473.13	13448.72
473.31	12882.31
473.49	12767.62
473.67	12891.67
473.85	12755.92
474.03	13479.15
474.21	13146.79
474.39	13139.77
474.57	13427.65
474.75	13619.58
474.93	14090.02
475.12	13619.58
475.30	13678.09
475.48	13680.43
475.66	14118.11
475.84	13736.60
476.02	14057.26
476.20	13802.14
476.38	14317.06
476.56	14548.77
476.74	14443.45
476.92	14518.34
477.10	14480.89
477.28	14846.02
477.46	14682.18
477.64	15082.41
477.82	15117.52
478.00	15503.71
478.18	15358.60
478.36	15609.03
478.54	15637.12
478.72	15676.91
478.90	15651.16
479.08	15815.00
479.26	16020.97
479.44	16035.01
479.62	16318.22
479.80	16383.75
479.98	16582.70
480.16	16788.66
480.34	16741.85
480.52	17036.76
480.70	17158.47
480.88	16800.37
481.06	17177.19
481.24	17057.82
481.41	17380.82
481.59	17755.30
481.77	17717.86
481.95	17647.64
482.13	18061.91
482.31	17909.78
482.49	18185.96
482.67	18333.42
482.85	18705.56
483.03	18719.60
483.21	19061.32
483.39	18986.43
483.57	19337.51
483.74	19239.20
483.92	19536.45
484.10	19407.72
484.28	20093.50
484.46	20299.47
484.64	20446.92
484.82	19913.28
485.00	20238.61
485.18	20917.37
485.35	21092.91
485.53	20915.03
485.71	20877.58
485.89	21652.30
486.07	21310.58
486.25	21628.89
486.43	21556.33
486.61	21675.70
486.78	22092.32
486.96	22202.32
487.14	22099.34
487.32	22197.64
487.50	22462.12
487.68	22590.85
487.85	23161.94
488.03	23246.20
488.21	23585.58
488.39	23379.61
488.57	23761.12
488.75	23814.95
488.92	24306.46
489.10	24287.74
489.28	24423.49
489.46	24542.86
489.64	24720.74
489.81	25191.19
489.99	25603.12
490.17	25212.25
490.35	25422.90
490.53	25596.10
490.70	25919.09
490.88	25717.81
491.06	26190.59
491.24	25956.54
491.41	26235.06
491.59	26665.72
491.77	26405.92
491.95	26890.41
492.13	26998.08
492.30	27466.19
492.48	27014.46
492.66	27454.48
492.84	27751.73
493.01	28004.51
493.19	28032.60
493.37	28535.81
493.54	28105.15
493.72	28760.50
493.90	28208.14
494.08	28711.35
494.25	28905.62
494.43	29408.83
494.61	29408.83
494.79	29343.30
494.96	29397.13
495.14	29247.33
495.32	30026.73
495.49	30375.47
495.67	30066.52
495.85	30742.94
496.02	30270.15
496.20	30852.94
496.38	31058.91
496.55	30703.15
496.73	31571.49
496.91	31505.95
497.09	31562.12
497.26	31768.09
497.44	31414.67
497.62	32034.91
497.79	32374.29
497.97	32404.72
498.14	32568.55
498.32	33106.88
498.50	32783.88
498.67	33432.21
498.85	33113.90
499.03	33078.79
499.20	33497.75
499.38	33663.93
499.56	33802.02
499.73	34085.22
499.91	34057.14
500.08	34073.52
500.26	33727.12
500.44	34181.18
500.61	34326.30
500.79	34595.46
500.97	34319.28
501.14	34616.52
501.32	35229.74
501.49	34878.66
501.67	34749.93
501.84	35330.39
502.02	35101.01
502.20	35414.65
502.37	35789.13
502.55	35257.83
502.72	35871.05
502.90	35665.08
503.07	35468.48
503.25	35842.96
503.43	35852.33
503.60	36243.20
503.78	36821.31
503.95	36486.61
504.13	36872.80
504.30	36713.64
504.48	36577.89
504.65	36807.26
504.83	37310.48
505.01	37528.15
505.18	37408.78
505.36	37794.97
505.53	37303.46
505.71	37701.35
505.88	37584.32
506.06	37415.80
506.23	37680.28
506.41	37773.91
506.58	38309.89
506.76	38635.22
506.93	38471.39
507.11	38471.39
507.28	38616.50
507.46	38415.21
507.63	39133.76
507.81	38794.38
507.98	39236.74
508.16	39243.76
508.33	39210.99
508.50	39299.94
508.68	39374.83
508.85	39847.62
509.03	39536.33
509.20	39782.09
509.38	40168.27
509.55	39990.39
509.73	40048.91
509.90	40718.30
510.08	40177.64
510.25	40528.72
510.42	40336.79
510.60	40758.09
510.77	41001.50
510.95	41261.30
511.12	40718.30
511.30	40931.29
511.47	41598.34
511.64	41422.80
511.82	41797.29
511.99	41544.51
512.17	41483.66
512.34	41689.62
512.51	42225.60
512.69	42043.04
512.86	41914.31
513.04	42541.58
513.21	42330.93
513.38	42312.20
513.56	42660.94
513.73	42693.71
513.90	42749.88
514.08	42665.63
514.25	42773.29
514.43	43093.94
514.60	43320.98
514.77	43145.44
514.95	43501.20
515.12	43122.03
515.29	43337.36
515.47	43761.00
515.64	43461.41
515.81	43709.50
515.99	43887.39
516.16	44179.95
516.33	44034.84
516.51	44278.25
516.68	44229.10
516.85	44107.40
517.03	44315.70
517.20	44362.51
517.37	44823.60
517.54	44697.21
517.72	44453.79
517.89	44928.92
518.06	44722.96
518.24	44774.45
518.41	44907.86
518.58	45041.27
518.75	44758.06
518.93	45670.87
519.10	45226.17
519.27	45364.26
519.45	45350.22
519.62	45380.65
519.79	45563.21
519.96	45558.53
520.14	45748.11
520.31	46108.55
520.48	45876.84
520.65	46148.34
520.83	46373.03
521.00	46504.10
521.17	46225.58
521.34	46202.18
521.52	46251.33
521.69	46403.46
521.86	46567.30
522.03	46937.10
522.20	46967.53
522.38	46969.87
522.55	46937.10
522.72	47274.14
522.89	47009.66
523.07	47646.29
523.24	47344.36
523.41	47281.16
523.58	47351.38
523.75	47473.09
523.92	47358.40
524.10	47627.56
524.27	47597.13
524.44	47543.30
524.61	48226.74
524.78	48065.24
524.96	48161.20
525.13	47880.34
525.30	48458.45
525.47	48090.99
525.64	48369.51
525.81	48722.93
525.98	48697.19
526.16	48561.44
526.33	48673.78
526.50	48968.69
526.67	48399.94
526.84	48903.15
527.01	48907.83
527.18	48825.92
527.36	49338.49
527.53	49008.48
527.70	49523.40
527.87	49371.26
528.04	49244.87
528.21	49083.37
528.38	48861.02
528.55	49223.81
528.72	49235.51
528.89	49481.27
529.07	49406.37
529.24	49392.33
529.41	49965.76
529.58	49956.39
529.75	49492.97
529.92	49682.55
530.09	49675.53
530.26	50089.80
530.43	49872.14
530.60	49869.79
530.77	49841.71
530.94	50080.44
531.11	50192.79
531.28	49851.07
531.46	50564.93
531.63	50361.31
531.80	50342.58
531.97	50433.86
532.14	50527.48
532.31	50155.34
532.48	50490.04
532.65	50923.04
532.82	50426.84
532.99	50230.24
533.16	50581.32
533.33	51131.34
533.50	51260.07
533.67	50827.07
533.84	51042.40
534.01	50988.57
534.18	50768.56
534.35	51250.71
534.52	51023.68
534.69	51049.42
534.86	51480.08
535.03	51133.68
535.20	51215.60
535.37	51241.35
535.54	51271.78
535.71	51002.61
535.88	51299.86
536.05	51320.93
536.22	51749.24
536.38	51803.08
536.55	51859.25
536.72	51803.08
536.89	51681.37
537.06	51655.62
537.23	51952.87
537.40	51767.97
537.57	51203.90
537.74	51723.50
537.91	52336.72
538.08	52128.41
538.25	51782.01
538.42	52006.70
538.59	51709.46
538.75	51887.34
538.92	52222.03
539.09	52179.90
539.26	52224.37
539.43	52123.73
539.60	52439.70
539.77	52463.11
539.94	52559.07
540.11	52357.78
540.28	52495.88
540.44	52329.70
540.61	52451.41
540.78	52767.38
540.95	52814.19
541.12	52521.62
541.29	52694.82
541.46	52587.16
541.62	52746.31
541.79	53020.16
541.96	52428.00
542.13	52545.03
542.30	52971.00
542.47	52882.06
542.63	53111.44
542.80	53073.99
542.97	53359.53
543.14	53268.25
543.31	53382.94
543.48	53176.97
543.64	53521.03
543.81	53581.88
543.98	53586.57
544.15	53642.74
544.32	53593.59
544.48	53907.22
544.65	53305.70
544.82	53577.20
544.99	53244.85
545.16	53499.97
545.32	53497.62
545.49	53947.01
545.66	53998.50
545.83	53872.11
546.00	53986.80
546.16	54094.46
546.33	53818.28
546.50	53647.42
546.67	53982.12
546.83	53497.62
547.00	53874.45
547.17	53778.49
547.34	53801.89
547.50	53860.41
547.67	54181.06
547.84	53778.49
548.00	54174.04
548.17	54192.76
548.34	54349.58
548.51	54284.04
548.67	53984.46
548.84	54244.26
549.01	54218.51
549.18	54342.56
549.34	54216.17
549.51	54511.08
549.68	54459.58
549.84	54141.27
550.01	54468.95
550.18	54230.21
550.34	54808.32
550.51	54532.14
550.68	54557.89
550.84	54211.49
551.01	54747.47
551.18	54164.68
551.34	54199.79
551.51	54665.55
551.68	54660.87
551.84	54869.18
552.01	54789.60
552.18	54808.32
552.34	54553.21
552.51	54850.45
552.68	54834.07
552.84	55011.95
553.01	54974.50
553.18	54838.75
553.34	54908.97
553.51	54777.90
553.67	55056.42
553.84	55201.53
554.01	55110.25
554.17	54906.63
554.34	55011.95
554.51	54883.22
554.67	55084.51
554.84	55339.63
555.00	54885.56
555.17	55070.46
555.33	55271.75
555.50	55173.45
555.67	55110.25
555.83	55327.92
556.00	55288.13
556.16	55264.73
556.33	55386.44
556.50	55150.04
556.66	55540.91
556.83	55189.83
556.99	55529.21
557.16	55739.86
557.32	55487.08
557.49	55604.11
557.65	55288.13
557.82	55203.88
557.98	55496.44
558.15	55538.57
558.32	55660.28
558.48	55526.87
558.65	55927.10
558.81	55608.79
558.98	55519.85
559.14	55496.44
559.31	55770.28
559.47	55370.05
559.64	55686.03
559.80	55800.71
559.97	55859.23
560.13	55664.96
560.30	55693.05
560.46	55910.72
560.63	55725.81
560.79	55618.15
560.96	55608.79
561.12	55952.85
561.29	55770.28
561.45	55875.61
561.61	55796.03
561.78	55922.42
561.94	55929.44
562.11	56053.49
562.27	55749.22
562.44	55817.10
562.60	55866.25
562.77	55735.18
562.93	55547.93
563.10	55831.14
563.26	55861.57
563.42	56156.47
563.59	56102.64
563.75	55969.23
563.92	56097.96
564.08	55990.30
564.24	56044.13
564.41	55978.59
564.57	55796.03
564.74	55831.14
564.90	55810.07
565.07	55906.04
565.23	56329.67
565.39	56222.01
565.56	56346.06
565.72	55746.88
565.88	56133.07
566.05	56172.86
566.21	56137.75
566.38	55990.30
566.54	55955.19
566.70	56451.38
566.87	56156.47
567.03	56329.67
567.19	56376.48
567.36	56191.58
567.52	56053.49
567.68	56470.11
567.85	56114.34
568.01	55973.91
568.17	56217.33
568.34	56367.12
568.50	56257.12
568.66	56388.19
568.83	56339.04
568.99	56088.60
569.15	56306.27
569.32	56404.57
569.48	55969.23
569.64	56062.85
569.81	56273.50
569.97	56287.54
570.13	56320.31
570.30	56055.83
570.46	56526.28
570.62	56317.97
570.78	56259.46
570.95	56245.41
571.11	56212.65
571.27	56299.25
571.43	56067.53
571.60	56287.54
571.76	56523.94
571.92	56458.40
572.09	56530.96
572.25	56545.00
572.41	56437.34
572.57	56285.20
572.74	56493.51
572.90	56348.40
573.06	56247.75
573.22	56289.88
573.38	56435.00
573.55	56273.50
573.71	56615.22
573.87	56484.15
574.03	56477.13
574.20	56545.00
574.36	56409.25
574.52	56214.99
574.68	56402.23
574.84	56322.65
575.01	56392.87
575.17	56479.47
575.33	56526.28
575.49	56488.83
575.65	56516.92
575.82	56509.89
575.98	56608.20
576.14	56348.40
576.30	56451.38
576.46	56491.17
576.62	56409.25
576.79	56451.38
576.95	56294.56
577.11	56575.43
577.27	56678.41
577.43	56556.70
577.59	56355.42
577.75	56772.03
577.92	56250.09
578.08	56303.93
578.24	56526.28
578.40	56404.57
578.56	56655.01
578.72	56706.50
578.88	56776.72
579.04	56519.26
579.21	56493.51
579.37	56647.99
579.53	56697.14
579.69	56324.99
579.85	56449.04
580.01	56491.17
580.17	56547.34
580.33	56519.26
580.49	56502.87
580.65	56622.24
580.82	56755.65
580.98	56622.24
581.14	56512.23
581.30	56748.63
581.46	56479.47
581.62	56432.66
581.78	56264.14
581.94	56720.54
582.10	56582.45
582.26	56739.27
582.42	56488.83
582.58	56711.18
582.74	56793.10
582.90	56729.90
583.06	56640.96
583.22	56589.47
583.38	56369.46
583.54	56519.26
583.70	56458.40
583.86	56692.46
584.02	56381.16
584.18	56598.83
584.34	56575.43
584.50	56568.41
584.66	56830.55
584.82	56526.28
584.98	56514.58
585.14	56540.32
585.30	56413.93
585.46	56458.40
585.62	56399.89
585.78	56645.65
585.94	56385.85
586.10	56582.45
586.26	56631.60
586.42	56727.56
586.58	56739.27
586.74	56507.55
586.90	56453.72
587.06	56547.34
587.22	56594.15
587.38	56322.65
587.54	56619.90
587.70	56739.27
587.86	56629.26
588.02	56711.18
588.18	57055.24
588.34	56823.53
588.49	56713.52
588.65	56498.19
588.81	56652.67
588.97	56729.90
589.13	56519.26
589.29	56612.88
589.45	56774.37
589.61	56823.53
589.77	56886.72
589.93	56900.76
590.08	56769.69
590.24	56846.93
590.40	57015.45
590.56	56743.95
590.72	56708.84
590.88	56657.35
591.04	56767.35
591.20	57031.83
591.35	56970.98
591.51	57315.04
591.67	56868.00
591.83	57237.80
591.99	56889.06
592.15	56912.47
592.31	56844.59
592.46	56631.60
592.62	56823.53
592.78	56860.97
592.94	56701.82
593.10	56886.72
593.26	57022.47
593.41	57099.71
593.57	56886.72
593.73	56942.89
593.89	56797.78
594.05	57013.11
594.20	56978.00
594.36	56837.57
594.52	56793.10
594.68	56652.67
594.84	56882.04
594.99	57050.56
595.15	56970.98
595.31	57296.31
595.47	57106.73
595.62	56933.53
595.78	57006.09
595.94	56846.93
596.10	56942.89
596.25	56921.83
596.41	56919.49
596.57	56713.52
596.73	56781.40
596.88	56769.69
597.04	56935.87
597.20	57195.67
597.36	57102.05
597.51	57270.57
597.67	56896.08
597.83	56994.39
597.99	57048.22
598.14	56729.90
598.30	56975.66
598.46	56853.95
598.61	56973.32
598.77	56851.61
598.93	57165.24
599.09	57052.90
599.24	57010.77
599.40	57043.54
599.56	57102.05
599.71	57134.82
599.87	57073.96
600.03	56811.82
600.18	56921.83
600.34	56638.62
600.50	56931.19
600.65	56783.74
600.81	57219.08
600.97	57003.75
601.12	57010.77
601.28	57151.20
601.44	57078.64
601.59	57102.05
601.75	57141.84
601.91	57027.15
602.06	56755.65
602.22	56912.47
602.37	56767.35
602.53	57085.67
602.69	57095.03
602.84	57214.40
603.00	56973.32
603.16	57015.45
603.31	56975.66
603.47	56722.88
603.62	56921.83
603.78	56835.23
603.94	56832.89
604.09	56999.07
604.25	56917.15
604.40	56956.94
604.56	56956.94
604.71	57235.46
604.87	57043.54
605.03	57146.52
605.18	56863.32
605.34	56900.76
605.49	56692.46
605.65	56968.64
605.80	56589.47
605.96	56811.82
606.12	56741.61
606.27	57085.67
606.43	56554.36
606.58	56842.25
606.74	56776.72
606.89	57001.41
607.05	57003.75
607.20	56989.70
607.36	56722.88
607.51	56542.66
607.67	56645.65
607.82	56619.90
607.98	56530.96
608.13	56793.10
608.29	56626.92
608.44	56676.07
608.60	56870.34
608.75	56657.35
608.91	56828.21
609.06	56432.66
609.22	56615.22
609.37	56507.55
609.53	56505.21
609.68	56608.20
609.84	56610.54
609.99	56308.61
610.15	56458.40
610.30	56486.49
610.46	56301.59
610.61	56486.49
610.76	56479.47
610.92	56418.61
611.07	56577.77
611.23	56449.04
611.38	56470.11
611.54	56502.87
611.69	56259.46
611.84	56442.02
612.00	56507.55
612.15	56332.01
612.31	56657.35
612.46	56636.28
612.62	56481.81
612.77	56540.32
612.92	56584.79
613.08	56451.38
613.23	56596.49
613.39	56404.57
613.54	56247.75
613.69	56191.58
613.85	56449.04
614.00	56172.86
614.15	56275.84
614.31	56348.40
614.46	56346.06
614.62	56301.59
614.77	56406.91
614.92	56411.59
615.08	56341.38
615.23	56222.01
615.38	56280.52
615.54	56009.02
615.69	56144.77
615.84	56072.21
616.00	56072.21
616.15	56121.37
616.30	56100.30
616.46	56121.37
616.61	56016.04
616.76	56140.09
616.92	56264.14
617.07	56114.34
617.22	55955.19
617.37	55922.42
617.53	55835.82
617.68	55833.48
617.83	55711.77
617.99	55590.06
618.14	55924.76
618.29	56060.51
618.45	56025.40
618.60	55711.77
618.75	56004.34
618.90	55723.47
619.06	56090.94
619.21	55781.99
619.36	55976.25
619.51	55657.94
619.67	55599.43
619.82	55531.55
619.97	55760.92
620.12	55683.69
620.28	55430.91
620.43	55683.69
620.58	55608.79
620.73	55667.30
620.89	55805.39
621.04	55793.69
621.19	55592.40
621.34	55629.85
621.49	55302.18
621.65	55491.76
621.80	55601.77
621.95	55255.37
622.10	55494.10
622.25	55416.86
622.41	55451.97
622.56	55466.02
622.71	55440.27
622.86	55327.92
623.01	55463.67
623.16	55398.14
623.32	55426.23
623.47	55330.26
623.62	55187.49
623.77	55269.41
623.92	55381.76
624.07	55063.44
624.23	55161.75
624.38	55093.87
624.53	55096.21
624.68	55164.09
624.83	55564.32
624.98	55346.65
625.13	55049.40
625.29	54983.86
625.44	55056.42
625.59	55121.96
625.74	54843.43
625.89	54838.75
626.04	54560.23
626.19	54890.24
626.34	55077.49
626.49	55018.97
626.65	54876.20
626.80	55320.90
626.95	54712.36
627.10	54824.71
627.25	54857.48
627.40	55000.25
627.55	54714.70
627.70	54712.36
627.85	54443.20
628.00	54401.07
628.15	54660.87
628.30	54506.40
628.45	54309.79
628.60	54618.74
628.76	54602.36
628.91	54745.13
629.06	54756.83
629.21	54593.00
629.36	54728.75
629.51	54475.97
629.66	54464.27
629.81	54122.55
629.96	54246.60
630.11	54312.13
630.26	54288.73
630.41	54007.86
630.56	53928.28
630.71	54272.34
630.86	54312.13
631.01	54394.05
631.16	54160.00
631.31	54092.12
631.46	54148.29
631.61	54181.06
631.76	54454.90
631.91	54389.37
632.06	54007.86
632.21	54057.01
632.36	53944.67
632.51	53727.00
632.66	54131.91
632.81	54014.88
632.96	54197.44
633.10	54031.27
633.25	54164.68
633.40	54136.59
633.55	54014.88
633.70	53787.85
633.85	53516.35
634.00	53858.07
634.15	54122.55
634.30	53425.07
634.45	53769.13
634.60	54115.53
634.75	53722.32
634.90	53661.46
635.05	54012.54
635.19	53677.85
635.34	54019.56
635.49	53862.75
635.64	53673.16
635.79	53605.29
635.94	53392.30
636.09	53577.20
636.24	53392.30
636.39	53331.45
636.53	53624.01
636.68	53488.26
636.83	53605.29
636.98	53682.53
637.13	53443.79
637.28	53755.08
637.43	53621.67
637.57	53525.71
637.72	53338.47
637.87	53254.21
638.02	53305.70
638.17	53158.25
638.32	53233.14
638.46	53247.19
638.61	53104.41
638.76	52603.54
638.91	52800.15
639.06	53228.46
639.20	52973.34
639.35	53310.38
639.50	52994.41
639.65	53277.61
639.80	53277.61
639.94	52996.75
640.09	53034.20
640.24	53057.60
640.39	53062.29
640.54	52776.74
640.68	52760.36
640.83	52605.88
640.98	52655.03
641.13	52317.99
641.27	53078.67
641.42	52640.99
641.57	52594.18
641.72	52800.15
641.86	52917.17
642.01	52296.93
642.16	52488.85
642.31	52360.12
642.45	52872.70
642.60	52594.18
642.75	52205.65
642.90	52371.83
643.04	52079.26
643.19	52561.41
643.34	52521.62
643.48	52636.31
643.63	52844.62
643.78	52460.77
643.93	52839.93
644.07	52659.71
644.22	52512.26
644.37	52502.90
644.51	52367.15
644.66	52381.19
644.81	52423.32
644.95	51789.03
645.10	52161.18
645.25	52170.54
645.39	52292.25
645.54	52416.30
645.69	52229.05
645.83	52273.52
645.98	52275.87
646.13	52341.40
646.27	52037.13
646.42	51913.08
646.57	51985.64
646.71	52037.13
646.86	51889.68
647.00	51753.93
647.15	51803.08
647.30	51810.10
647.44	51856.91
647.59	52002.02
647.74	51840.53
647.88	51812.44
648.03	51763.29
648.17	52067.56
648.32	51957.55
648.47	51863.93
648.61	52069.90
648.76	51877.97
648.90	51924.78
649.05	51351.35
649.20	51590.09
649.34	51709.46
649.49	51594.77
649.63	51707.12
649.78	51531.57
649.92	51330.29
650.07	51786.69
650.21	51360.72
650.36	51620.52
650.51	51400.50
650.65	51587.75
650.80	51746.90
650.94	52051.17
651.09	51545.62
651.23	51283.48
651.38	51372.42
651.52	51201.56
651.67	51009.64
651.81	51096.24
651.96	51444.98
652.10	51316.25
652.25	51323.27
652.39	51236.67
652.54	51159.43
652.68	51306.88
652.83	51026.02
652.97	51290.50
653.12	51337.31
653.26	50883.25
653.41	51084.53
653.55	50916.01
653.70	51103.26
653.84	51033.04
653.99	50761.54
654.13	50955.80
654.27	51007.29
654.42	50857.50
654.56	50564.93
654.71	51047.08
654.85	50710.05
655.00	51037.72
655.14	50642.17
655.29	50904.31
655.43	50944.10
655.57	50567.27
655.72	50218.53
655.86	50246.62
656.01	50204.49
656.15	50354.29
656.30	50361.31
656.44	50197.47
656.58	50586.00
656.73	50590.68
656.87	50113.21
657.01	50319.18
657.16	50653.87
657.30	50529.83
657.45	50354.29
657.59	50349.60
657.73	50263.00
657.88	50241.94
658.02	49897.88
658.16	50099.17
658.31	50050.02
658.45	50134.28
658.60	49731.70
658.74	49734.04
658.88	49542.12
659.03	49862.77
659.17	49979.80
659.31	49584.25
659.46	49551.48
659.60	49949.37
659.74	49942.35
659.89	49923.63
660.03	49846.39
660.17	49961.08
660.32	49340.83
660.46	49574.89
660.60	49698.94
660.74	49193.38
660.89	49214.44
661.03	49099.76
661.17	49539.78
661.32	48861.02
661.46	49319.77
661.60	49207.42
661.74	49577.23
661.89	48935.92
662.03	49020.18
662.17	48893.79
662.31	48971.03
662.46	48842.30
662.60	48973.37
662.74	48746.34
662.88	48748.68
663.03	48133.12
663.17	48002.05
663.31	47978.64
663.45	48088.65
663.60	48037.16
663.74	48458.45
663.88	48385.89
664.02	48142.48
664.17	48687.82
664.31	48154.18
664.45	48385.89
664.59	48041.84
664.73	47924.81
664.88	47789.06
665.02	47543.30
665.16	47220.31
665.30	47629.90
665.44	47374.78
665.59	47140.73
665.73	47262.44
665.87	47103.28
666.01	47234.35
666.15	47339.68
666.29	47281.16
666.44	47414.57
666.58	47068.17
666.72	47562.03
666.86	47234.35
667.00	47304.57
667.14	47070.51
667.28	47086.90
667.43	46719.43
667.57	46967.53
667.71	46689.01
667.85	46543.89
667.99	46705.39
668.13	46167.07
668.27	46363.67
668.41	46787.31
668.56	46576.66
668.70	46508.79
668.84	46284.09
668.98	46110.89
669.12	46218.56
669.26	46038.34
669.40	45848.75
669.54	45865.14
669.68	45923.65
669.82	45584.27
669.96	45191.06
670.10	45387.67
670.25	45598.32
670.39	45296.39
670.53	45184.04
670.67	45013.18
670.81	45759.81
670.95	45551.51
671.09	45303.41
671.23	45375.97
671.37	45219.15
671.51	45720.02
671.65	45326.81
671.79	45024.89
671.93	45186.38
672.07	44966.37
672.21	44727.64
672.35	44296.98
672.49	44184.63
672.63	44509.97
672.77	44060.58
672.91	44205.70
673.05	44203.36
673.19	44252.51
673.33	44203.36
673.47	43955.26
673.61	44006.75
673.75	44002.07
673.89	44091.01
674.03	43966.96
674.17	43655.67
674.31	43793.76
674.45	43435.66
674.59	43239.06
674.73	42564.98
674.87	42787.33
675.01	42923.08
675.15	42913.72
675.29	42691.37
675.43	43178.20
675.56	42897.34
675.70	43070.54
675.84	43096.28
675.98	41654.51
676.12	42490.09
676.26	42958.19
676.40	42129.64
676.54	42192.84
676.68	42164.75
676.82	41212.15
676.96	41869.84
677.10	41546.85
677.23	41584.30
677.37	41233.22
677.51	40891.50
677.65	40844.69
677.79	40442.12
677.93	41188.75
678.07	40652.76
678.21	40369.56
678.34	40610.64
678.48	40655.11
678.62	40252.53
678.76	40105.08
678.90	40020.82
679.04	40009.12
679.18	40137.85
679.31	39718.89
679.45	39599.52
679.59	39414.62
679.73	39356.11
679.87	38778.00
680.00	39199.29
680.14	38747.57
680.28	39180.57
680.42	38593.09
680.56	39110.35
680.70	38726.50
680.83	38871.62
680.97	39042.48
681.11	38724.16
681.25	38623.52
681.39	38426.92
681.52	38333.29
681.66	38457.34
681.80	37776.25
681.94	37624.11
682.07	37649.86
682.21	37378.36
682.35	37628.79
682.49	37275.37
682.62	37434.53
682.76	36797.90
682.90	37139.62
683.04	36896.20
683.17	37282.39
683.31	37010.89
683.45	36851.73
683.59	36690.24
683.72	36957.06
683.86	35519.97
684.00	36084.04
684.13	36203.41
684.27	35615.93
684.41	35463.80
684.55	35262.51
684.68	35613.59
684.82	35428.69
684.96	34822.49
685.09	35119.74
685.23	35037.82
685.37	34843.56
685.50	34852.92
685.64	34717.17
685.78	34209.27
685.91	34869.30
686.05	34536.94
686.19	34455.03
686.32	34424.60
686.46	33855.85
686.60	33923.72
686.73	33401.79
686.87	33778.61
687.01	33593.71
687.14	33394.76
687.28	33254.33
687.42	32992.19
687.55	33116.24
687.69	32968.79
687.82	33064.75
687.96	33116.24
688.10	32591.96
688.23	33015.60
688.37	32907.93
688.50	32341.52
688.64	32177.68
688.78	32481.95
688.91	31952.99
689.05	31882.78
689.18	31770.43
689.32	31477.86
689.46	31475.52
689.59	31278.92
689.73	31754.05
689.86	31079.97
690.00	31040.18
690.13	31192.32
690.27	30724.21
690.41	31173.60
690.54	30808.47
690.68	30780.39
690.81	30817.83
690.95	30642.29
691.08	31087.00
691.22	30394.20
691.35	30431.65
691.49	30373.13
691.62	30015.03
691.76	29715.44
691.89	29680.33
692.03	29453.30
692.16	29535.22
692.30	29006.26
692.43	28994.56
692.57	28840.08
692.70	29139.67
692.84	28676.24
692.97	28863.49
693.11	28800.29
693.24	28318.14
693.38	28842.42
693.51	28547.51
693.65	28758.16
693.78	28163.67
693.92	28290.06
694.05	28215.16
694.19	28002.17
694.32	28009.19
694.45	27585.55
694.59	27363.20
694.72	27208.73
694.86	27637.05
694.99	27035.53
695.13	26892.76
695.26	26553.38
695.39	26869.35
695.53	27044.89
695.66	27161.92
695.80	26897.44
695.93	26647.00
696.07	26443.37
696.20	26686.79
696.33	26188.25
696.47	26008.03
696.60	26422.31
696.73	26019.74
696.87	25556.31
697.00	25586.74
697.14	25282.47
697.27	25153.74
697.40	25184.16
697.54	25158.42
697.67	24683.29
697.80	25254.38
697.94	24587.33
698.07	24613.07
698.21	24325.19
698.34	24781.59
698.47	24360.30
698.61	24393.06
698.74	24360.30
698.87	24421.15
699.01	24053.69
699.14	24259.65
699.27	23768.14
699.40	23939.00
699.54	23548.13
699.67	23398.34
699.80	23466.21
699.94	23257.90
700.07	23276.63
700.20	23115.13
700.34	23033.21
700.47	22857.67
700.60	22909.16
700.73	22841.29
700.87	22920.87
701.00	22689.15
701.13	22621.28
701.26	22342.75
701.40	22630.64
701.53	22148.49
701.66	22267.86
701.79	21968.27
701.93	22036.14
702.06	21867.63
702.19	21462.71
702.32	21642.93
702.46	21502.50
702.59	20847.15
702.72	20926.73
702.85	21106.95
702.99	21025.03
703.12	20975.88
703.25	20987.58
703.38	21095.25
703.51	20917.37
703.65	20699.70
703.78	20725.44
703.91	20444.58
704.04	20594.37
704.17	20397.77
704.31	20194.14
704.44	19936.68
704.57	20086.48
704.70	19908.60
704.83	19686.25
704.96	19709.65
705.10	19517.73
705.23	19639.44
>>>>>End Processed Spectral Data<<<<<
