SpectraSuite Data File
++++++++++++++++++++++++++++++++++++
Date: Fri Oct 18 13:54:57 GMT-05:00 2013
User: bianchi
Dark Spectrum Present: No
Reference Spectrum Present: No
Number of Sampled Component Spectra: 1
Spectrometers: USB2+H05261
Integration Time (usec): 100000 (USB2+H05261)
Spectra Averaged: 1 (USB2+H05261)
Boxcar Smoothing: 0 (USB2+H05261)
Correct for Electrical Dark: No (USB2+H05261)
Strobe/Lamp Enabled: No (USB2+H05261)
Correct for Detector Non-linearity: No (USB2+H05261)
Correct for Stray Light: No (USB2+H05261)
Number of Pixels in Processed Spectrum: 2048
>>>>>Begin Processed Spectral Data<<<<<
365.73	0.00
365.92	0.00
366.12	0.00
366.32	0.00
366.52	0.00
366.72	0.00
366.91	0.00
367.11	0.00
367.31	0.00
367.51	0.00
367.70	0.00
367.90	0.00
368.10	0.00
368.30	0.00
368.49	0.00
368.69	0.00
368.89	0.00
369.09	0.00
369.28	0.00
369.48	0.00
369.68	0.00
369.87	0.00
370.07	0.00
370.27	0.00
370.47	7.02
370.66	294.91
370.86	276.18
371.06	381.51
371.25	411.93
371.45	339.38
371.65	346.40
371.84	294.91
372.04	346.40
372.24	367.46
372.44	386.19
372.63	407.25
372.83	465.77
373.03	440.02
373.22	430.66
373.42	313.63
373.62	463.43
373.81	526.62
374.01	423.64
374.21	404.91
374.40	496.19
374.60	587.47
374.79	535.98
374.99	538.32
375.19	514.92
375.38	512.58
375.58	540.66
375.78	624.92
375.97	540.66
376.17	594.50
376.37	543.00
376.56	517.26
376.76	575.77
376.95	559.39
377.15	627.26
377.35	566.41
377.54	571.09
377.74	524.28
377.93	634.29
378.13	634.29
378.33	615.56
378.52	575.77
378.72	575.77
378.91	603.86
379.11	587.47
379.31	620.24
379.50	582.79
379.70	664.71
379.89	685.78
380.09	594.50
380.28	564.07
380.48	617.90
380.68	683.44
380.87	603.86
381.07	699.82
381.26	667.05
381.46	653.01
381.65	664.71
381.85	592.16
382.04	634.29
382.24	645.99
382.43	737.27
382.63	784.08
382.83	805.14
383.02	770.04
383.22	702.16
383.41	692.80
383.61	709.18
383.80	746.63
384.00	793.44
384.19	690.46
384.39	723.23
384.58	861.32
384.78	798.12
384.97	830.89
385.17	772.38
385.36	814.51
385.56	798.12
385.75	854.30
385.95	851.96
386.14	788.76
386.34	870.68
386.53	753.65
386.72	842.59
386.92	844.93
387.11	826.21
387.31	901.11
387.50	844.93
387.70	924.51
387.89	940.90
388.09	889.40
388.28	1004.09
388.48	802.80
388.67	882.38
388.86	915.15
389.06	959.62
389.25	908.13
389.45	1025.15
389.64	1011.11
389.84	973.66
390.03	976.00
390.22	1025.15
390.42	1020.47
390.61	1001.75
390.81	1060.26
391.00	1048.56
391.19	976.00
391.39	1015.79
391.58	1048.56
391.78	1022.81
391.97	1165.59
392.16	1013.45
392.36	1121.12
392.55	1149.20
392.75	1170.27
392.94	1156.22
393.13	1179.63
393.33	1050.90
393.52	1240.48
393.71	1320.06
393.91	1228.78
394.10	1170.27
394.29	1193.67
394.49	1219.42
394.68	1165.59
394.88	1336.45
395.07	1273.25
395.26	1259.21
395.46	1242.82
395.65	1352.83
395.84	1284.95
396.04	1362.19
396.23	1418.36
396.42	1277.93
396.62	1437.09
396.81	1392.62
397.00	1434.75
397.19	1439.43
397.39	1355.17
397.58	1320.06
397.77	1521.35
397.97	1432.41
398.16	1451.13
398.35	1497.94
398.55	1521.35
398.74	1488.58
398.93	1626.67
399.12	1504.96
399.32	1490.92
399.51	1455.81
399.70	1607.95
399.90	1582.20
400.09	1624.33
400.28	1715.61
400.47	1767.10
400.67	1715.61
400.86	1584.54
401.05	1633.69
401.24	1664.12
401.44	1760.08
401.63	1799.87
401.82	1769.44
402.01	1638.38
402.21	1769.44
402.40	1781.15
402.59	1823.28
402.78	1743.70
402.97	1771.79
403.17	1895.83
403.36	1891.15
403.55	1977.75
403.74	1944.99
403.93	1874.77
404.13	1959.03
404.32	1966.05
404.51	1891.15
404.70	1980.09
404.89	2083.08
405.09	2031.58
405.28	2134.57
405.47	1987.11
405.66	2209.47
405.85	2143.93
406.05	2022.22
406.24	2090.10
406.43	2200.10
406.62	2207.13
406.81	2263.30
407.00	2216.49
407.20	2122.87
407.39	2153.29
407.58	2284.36
407.77	2331.17
407.96	2382.67
408.15	2263.30
408.34	2394.37
408.54	2356.92
408.73	2408.41
408.92	2492.67
409.11	2377.98
409.30	2576.93
409.49	2504.37
409.68	2450.54
409.87	2654.17
410.07	2572.25
410.26	2689.28
410.45	2541.82
410.64	2579.27
410.83	2705.66
411.02	2637.78
411.21	2656.51
411.40	2743.11
411.59	2691.62
411.78	2825.03
411.98	2871.84
412.17	2848.43
412.36	2899.92
412.55	2995.89
412.74	2913.97
412.93	2986.52
413.12	2923.33
413.31	3110.57
413.50	3068.44
413.69	3089.51
413.88	3145.68
414.07	3178.45
414.26	3204.19
414.45	3166.74
414.64	3199.51
414.83	3321.22
415.02	3311.86
415.22	3241.64
415.41	3552.93
415.60	3503.78
415.79	3531.87
415.98	3574.00
416.17	3529.53
416.36	3637.19
416.55	3559.95
416.74	3665.28
416.93	3592.72
417.12	3817.41
417.31	3758.90
417.50	3796.35
417.69	3911.04
417.88	3763.58
418.07	3943.80
418.26	3929.76
418.45	3953.16
418.64	4004.66
418.83	4053.81
419.02	4072.53
419.21	4070.19
419.39	4159.13
419.58	4014.02
419.77	4051.47
419.96	4140.41
420.15	4205.94
420.34	4133.39
420.53	4091.26
420.72	4304.25
420.91	4255.09
421.10	4435.32
421.29	4517.23
421.48	4290.20
421.67	4498.51
421.86	4355.74
422.05	4468.08
422.24	4369.78
422.43	4421.27
422.61	4372.12
422.80	4355.74
422.99	4547.66
423.18	4559.36
423.37	4596.81
423.56	4440.00
423.75	4526.60
423.94	4554.68
424.13	4262.12
424.32	4414.25
424.50	4547.66
424.69	4695.11
424.88	4596.81
425.07	4493.83
425.26	4517.23
425.45	4781.71
425.64	4648.30
425.83	4421.27
426.01	4664.69
426.20	4629.58
426.39	4578.09
426.58	4550.00
426.77	4662.35
426.96	4676.39
427.15	4688.09
427.33	4744.27
427.52	4983.00
427.71	4961.94
427.90	4975.98
428.09	4912.78
428.28	5074.28
428.46	5025.13
428.65	4868.31
428.84	5041.51
429.03	5153.86
429.22	5015.77
429.40	5060.24
429.59	5036.83
429.78	5001.72
429.97	5029.81
430.16	4882.36
430.34	5191.31
430.53	5188.97
430.72	5195.99
430.91	5268.55
431.10	5011.09
431.28	5385.57
431.47	5221.74
431.66	5198.33
431.85	5359.83
432.03	5488.56
432.22	5589.20
432.41	5537.71
432.60	5549.41
432.79	5638.35
432.97	5481.53
433.16	5521.32
433.35	5645.37
433.54	5657.07
433.72	5764.74
433.91	5626.65
434.10	5783.46
434.28	5600.90
434.47	5757.72
434.66	5813.89
434.85	5729.63
435.03	5923.90
435.22	5877.09
435.41	6118.16
435.59	5977.73
435.78	5909.85
435.97	5940.28
436.16	5956.66
436.34	5980.07
436.53	6040.92
436.72	6335.83
436.90	6087.73
437.09	6073.69
437.28	5961.34
437.46	6333.49
437.65	6202.42
437.84	6370.94
438.02	6120.50
438.21	6258.59
438.40	6225.82
438.58	6429.45
438.77	6637.76
438.96	6450.52
439.14	6658.82
439.33	6614.35
439.52	6703.29
439.70	6633.08
439.89	6822.66
440.08	6920.96
440.26	6813.30
440.45	6963.09
440.63	6855.43
440.82	6974.80
441.01	7082.46
441.19	7030.97
441.38	7225.23
441.57	7332.90
441.75	7281.41
441.94	7325.88
442.12	7463.97
442.31	7358.64
442.50	7349.28
442.68	7176.08
442.87	7421.84
443.05	7410.14
443.24	7639.51
443.43	7627.81
443.61	7592.70
443.80	8030.38
443.98	7300.13
444.17	7541.21
444.35	7644.19
444.54	7892.29
444.73	7871.22
444.91	7843.14
445.10	7882.92
445.28	7679.30
445.47	7836.11
445.65	7822.07
445.84	7854.84
446.02	7854.84
446.21	7864.20
446.39	7709.72
446.58	8011.65
446.77	8002.29
446.95	7775.26
447.14	8063.15
447.32	7939.10
447.51	7925.05
447.69	7866.54
447.88	8124.00
448.06	8049.10
448.25	7929.74
448.43	8093.57
448.62	7889.95
448.80	8002.29
448.99	8159.11
449.17	8215.28
449.36	7999.95
449.54	8318.26
449.73	8318.26
449.91	8219.96
450.10	8461.04
450.28	8503.17
450.46	8264.43
450.65	8425.93
450.83	8418.91
451.02	8545.30
451.20	8758.28
451.39	8465.72
451.57	8596.79
451.76	8496.14
451.94	8718.50
452.13	8709.13
452.31	8772.33
452.49	8528.91
452.68	8901.06
452.86	8798.07
453.05	8992.34
453.23	8821.48
453.42	8760.63
453.60	8802.75
453.78	8990.00
453.97	8674.03
454.15	8896.38
454.34	8828.50
454.52	9064.89
454.70	8926.80
454.89	9170.22
455.07	9015.74
455.26	8947.87
455.44	9362.14
455.62	9071.92
455.81	9280.22
455.99	9303.63
456.17	9540.02
456.36	9518.96
456.54	9514.28
456.73	9434.70
456.91	9785.78
457.09	9792.80
457.28	9891.10
457.46	9659.39
457.64	9811.53
457.83	9788.12
458.01	9657.05
458.19	10003.45
458.38	9783.44
458.56	10099.41
458.74	10015.15
458.93	10059.62
459.11	10183.67
459.29	9926.21
459.48	9977.70
459.66	10190.69
459.84	10284.31
460.03	10314.74
460.21	10289.00
460.39	10296.02
460.57	10026.86
460.76	10469.22
460.94	10424.75
461.12	10396.66
461.31	10403.68
461.49	10230.48
461.67	10485.60
461.85	10672.84
462.04	10394.32
462.22	10782.85
462.40	10686.89
462.59	10672.84
462.77	10775.83
462.95	10853.06
463.13	10729.02
463.32	10682.20
463.50	11147.97
463.68	10960.73
463.86	10787.53
464.05	10906.90
464.23	10824.98
464.41	11063.71
464.59	10855.40
464.78	11279.04
464.96	11379.68
465.14	10913.92
465.32	11246.27
465.50	11520.12
465.69	11597.35
465.87	11129.25
466.05	11166.70
466.23	11185.42
466.41	11295.43
466.60	11496.71
466.78	11337.56
466.96	11197.12
467.14	11325.85
467.32	11562.25
467.51	11569.27
467.69	11197.12
467.87	11655.87
468.05	11779.92
468.23	11480.33
468.41	11681.61
468.60	11585.65
468.78	11817.36
468.96	11573.95
469.14	12018.65
469.32	11964.82
469.50	11693.32
469.69	12119.29
469.87	12208.23
470.05	12140.36
470.23	12233.98
470.41	12168.45
470.59	12313.56
470.77	12116.95
470.95	12135.68
471.14	12575.70
471.32	12184.83
471.50	12678.68
471.68	12681.02
471.86	12346.33
472.04	12510.16
472.22	13114.02
472.40	12674.00
472.58	12643.57
472.77	12833.16
472.95	13373.82
473.13	13493.19
473.31	13050.83
473.49	13217.01
473.67	13034.44
473.85	13167.85
474.03	13422.97
474.21	13638.30
474.39	13530.64
474.57	13778.73
474.75	13764.69
474.93	14155.56
475.12	13823.20
475.30	13774.05
475.48	13823.20
475.66	14057.26
475.84	13958.96
476.02	14036.19
476.20	14501.96
476.38	14459.83
476.56	14857.72
476.74	14665.80
476.92	14864.74
477.10	14862.40
477.28	14939.64
477.46	14853.04
477.64	15098.80
477.82	15363.28
478.00	15492.01
478.18	15611.37
478.36	15630.10
478.54	15889.90
478.72	15946.07
478.90	15793.94
479.08	16091.18
479.26	16458.65
479.44	16411.84
479.62	16554.61
479.80	16751.21
479.98	16791.00
480.16	16964.20
480.34	16903.35
480.52	17432.31
480.70	17476.78
480.88	16884.62
481.06	17343.37
481.24	17467.42
481.41	17458.06
481.59	17940.21
481.77	18008.08
481.95	18040.85
482.13	18471.51
482.31	18155.54
482.49	18508.96
482.67	18244.48
482.85	19215.80
483.03	18956.00
483.21	19293.04
483.39	19269.63
483.57	19342.19
483.74	19688.59
483.92	19763.48
484.10	19737.74
484.28	20053.71
484.46	19995.20
484.64	20755.87
484.82	20409.47
485.00	20332.23
485.18	20790.98
485.35	21240.36
485.53	21125.68
485.71	21172.49
485.89	22005.72
486.07	21223.98
486.25	21701.45
486.43	21631.23
486.61	22022.10
486.78	22188.28
486.96	22558.08
487.14	22860.01
487.32	22738.30
487.50	22974.70
487.68	22918.53
487.85	23534.09
488.03	23646.43
488.21	24049.00
488.39	23997.51
488.57	24231.57
488.75	24273.70
488.92	24261.99
489.10	24900.96
489.28	24608.39
489.46	24875.21
489.64	25186.50
489.81	25600.78
489.99	25458.01
490.17	25738.87
490.35	25869.94
490.53	26064.21
490.70	26312.30
490.88	26368.48
491.06	27054.25
491.24	26366.13
491.41	26684.45
491.59	27044.89
491.77	27044.89
491.95	27754.07
492.13	27658.11
492.30	27505.98
492.48	27751.73
492.66	27805.56
492.84	28058.34
493.01	28077.07
493.19	28912.64
493.37	29015.62
493.54	28486.66
493.72	28697.31
493.90	29186.48
494.08	29287.12
494.25	29329.25
494.43	29661.61
494.61	29998.65
494.79	29830.13
494.96	30288.87
495.14	30026.73
495.32	30513.56
495.49	30333.34
495.67	30878.69
495.85	31204.02
496.02	30923.16
496.20	31459.14
496.38	31187.64
496.55	31442.76
496.73	32194.07
496.91	31997.46
497.09	32261.94
497.26	32505.36
497.44	32439.82
497.62	32669.20
497.79	32800.27
497.97	32643.45
498.14	33263.69
498.32	33565.62
498.50	33343.27
498.67	33516.47
498.85	33500.09
499.03	33834.78
499.20	33682.65
499.38	34209.27
499.56	34309.91
499.73	34363.75
499.91	34389.49
500.08	34272.46
500.26	34092.24
500.44	34885.68
500.61	34864.62
500.79	34941.86
500.97	35065.91
501.14	35543.38
501.32	35227.40
501.49	35473.16
501.67	35690.83
501.84	35618.27
502.02	35562.10
502.20	36114.47
502.37	36172.98
502.55	36135.53
502.72	36723.01
502.90	36491.29
503.07	36130.85
503.25	36713.64
503.43	36238.51
503.60	37017.91
503.78	37048.34
503.95	37130.26
504.13	37460.27
504.30	37022.59
504.48	37062.38
504.65	37790.29
504.83	37469.64
505.01	38047.75
505.18	38192.86
505.36	38480.75
505.53	37818.38
505.71	38082.86
505.88	38663.31
506.06	38307.55
506.23	38335.63
506.41	38644.59
506.58	38892.68
506.76	38902.04
506.93	38967.58
507.11	38831.83
507.28	39002.69
507.46	39255.46
507.63	39356.11
507.81	39892.09
507.98	39901.45
508.16	39791.45
508.33	39487.18
508.50	39948.26
508.68	40245.51
508.85	40086.36
509.03	40439.78
509.20	40968.74
509.38	40734.68
509.55	40809.58
509.73	40903.20
509.90	40935.97
510.08	40924.27
510.25	41111.51
510.42	41425.14
510.60	41965.81
510.77	41837.08
510.95	41993.89
511.12	41074.06
511.30	41834.74
511.47	41755.16
511.64	42197.52
511.82	41923.68
511.99	42176.45
512.17	42618.81
512.34	42335.61
512.51	42953.51
512.69	42452.64
512.86	42445.62
513.04	42958.19
513.21	43070.54
513.38	43559.71
513.56	43414.60
513.73	43496.52
513.90	43943.56
514.08	43323.32
514.25	43653.33
514.43	43674.40
514.60	43782.06
514.77	44350.81
514.95	44250.17
515.12	44112.08
515.29	43800.79
515.47	43812.49
515.64	44360.17
515.81	44318.04
515.99	44123.78
516.16	44818.92
516.33	44694.87
516.51	44861.05
516.68	44524.01
516.85	44779.13
517.03	44830.62
517.20	45265.96
517.37	45008.50
517.54	45345.54
517.72	45450.86
517.89	45324.47
518.06	45361.92
518.24	45151.27
518.41	45722.37
518.58	45492.99
518.75	45610.02
518.93	46188.13
519.10	45698.96
519.27	46321.54
519.45	46131.96
519.62	46108.55
519.79	46099.19
519.96	46426.87
520.14	46433.89
520.31	46447.93
520.48	46843.48
520.65	46698.37
520.83	46934.76
521.00	46742.84
521.17	46635.17
521.34	47117.32
521.52	47299.89
521.69	47367.76
521.86	47290.52
522.03	47627.56
522.20	47416.91
522.38	47613.52
522.55	47665.01
522.72	47812.46
522.89	47643.94
523.07	47978.64
523.24	47955.24
523.41	47980.98
523.58	47540.96
523.75	48177.59
523.92	48144.82
524.10	48456.11
524.27	48238.44
524.44	48463.13
524.61	48561.44
524.78	48416.32
524.96	48739.32
525.13	48781.45
525.30	48591.86
525.47	48769.74
525.64	48975.71
525.81	48975.71
525.98	48931.24
526.16	49244.87
526.33	49141.89
526.50	49265.94
526.67	48872.73
526.84	49184.02
527.01	49350.20
527.18	49518.71
527.36	49799.58
527.53	49736.38
527.70	50087.46
527.87	50167.04
528.04	49502.33
528.21	49689.57
528.38	49780.85
528.55	49649.78
528.72	49705.96
528.89	50274.71
529.07	50183.43
529.24	50408.12
529.41	50321.52
529.58	50284.07
529.75	49837.03
529.92	50078.10
530.09	50546.21
530.26	50389.39
530.43	50644.51
530.60	50452.59
530.77	50759.20
530.94	50759.20
531.11	50614.08
531.28	50480.67
531.46	50621.11
531.63	50677.28
531.80	51311.56
531.97	50787.28
532.14	51171.13
532.31	50946.44
532.48	50983.89
532.65	51143.05
532.82	51318.59
532.99	50976.87
533.16	51236.67
533.33	51264.75
533.50	51529.23
533.67	51295.18
533.84	51316.25
534.01	51325.61
534.18	51313.90
534.35	51838.18
534.52	51306.88
534.69	51999.68
534.86	52116.71
535.03	51559.66
535.20	52044.15
535.37	52135.43
535.54	51877.97
535.71	51805.42
535.88	52041.81
536.05	52158.84
536.22	52083.94
536.38	52322.68
536.55	52053.51
536.72	52222.03
536.89	52065.22
537.06	52334.38
537.23	52512.26
537.40	51896.70
537.57	52030.11
537.74	52554.39
537.91	52633.97
538.08	52640.99
538.25	52371.83
538.42	52814.19
538.59	52449.06
538.75	52355.44
538.92	52797.80
539.09	52683.12
539.26	52809.51
539.43	52980.37
539.60	53095.05
539.77	52828.23
539.94	53020.16
540.11	52828.23
540.28	52996.75
540.44	53099.73
540.61	52877.38
540.78	52818.87
540.95	53088.03
541.12	53057.60
541.29	53113.78
541.46	53013.13
541.62	53017.82
541.79	53176.97
541.96	52914.83
542.13	53188.67
542.30	53375.92
542.47	53642.74
542.63	53696.57
542.80	53546.78
542.97	53851.05
543.14	53991.48
543.31	53654.44
543.48	53399.32
543.64	54047.65
543.81	54164.68
543.98	53829.98
544.15	53989.14
544.32	54288.73
544.48	54293.41
544.65	54007.86
544.82	54031.27
544.99	53844.02
545.16	53991.48
545.32	53975.09
545.49	54300.43
545.66	54195.10
545.83	54342.56
546.00	54604.70
546.16	54518.10
546.33	54253.62
546.50	54085.10
546.67	54183.40
546.83	54087.44
547.00	54473.63
547.17	54585.97
547.34	54347.24
547.50	54653.85
547.67	54475.97
547.84	54719.38
548.00	54822.37
548.17	54616.40
548.34	54726.41
548.51	54920.67
548.67	54855.14
548.84	54897.27
549.01	54672.57
549.18	54944.08
549.34	54796.62
549.51	54602.36
549.68	54944.08
549.84	54595.34
550.01	54972.16
550.18	55007.27
550.34	54941.74
550.51	55210.90
550.68	55166.43
550.84	54787.26
551.01	55117.28
551.18	54981.52
551.34	54770.88
551.51	54965.14
551.68	55018.97
551.84	55255.37
552.01	55161.75
552.18	55356.01
552.34	55224.94
552.51	55243.66
552.68	55281.11
552.84	54918.33
553.01	55679.00
553.18	55206.22
553.34	55367.71
553.51	55360.69
553.67	55622.83
553.84	55770.28
554.01	55430.91
554.17	55611.13
554.34	55543.25
554.51	55447.29
554.67	55711.77
554.84	55721.13
555.00	55501.12
555.17	55543.25
555.33	55693.05
555.50	55835.82
555.67	55693.05
555.83	55664.96
556.00	55817.10
556.16	56013.70
556.33	55681.34
556.50	55749.22
556.66	55915.40
556.83	55718.79
556.99	56149.45
557.16	55978.59
557.32	55955.19
557.49	56266.48
557.65	55922.42
557.82	55697.73
557.98	55866.25
558.15	55884.97
558.32	55978.59
558.48	55854.54
558.65	56200.94
558.81	56086.26
558.98	55920.08
559.14	56144.77
559.31	55772.63
559.47	56006.68
559.64	56287.54
559.80	56369.46
559.97	56168.18
560.13	56294.56
560.30	56257.12
560.46	56168.18
560.63	56102.64
560.79	56175.20
560.96	56320.31
561.12	56011.36
561.29	56406.91
561.45	56388.19
561.61	56336.69
561.78	56233.71
561.94	56446.70
562.11	56563.73
562.27	56378.82
562.44	56355.42
562.60	56399.89
562.77	56200.94
562.93	56191.58
563.10	56701.82
563.26	56296.91
563.42	56549.68
563.59	56470.11
563.75	56488.83
563.92	56734.59
564.08	56472.45
564.24	56484.15
564.41	56636.28
564.57	56200.94
564.74	56528.62
564.90	56687.78
565.07	56516.92
565.23	56530.96
565.39	56704.16
565.56	56317.97
565.72	56320.31
565.88	56657.35
566.05	56374.14
566.21	56339.04
566.38	56385.85
566.54	56619.90
566.70	56647.99
566.87	56882.04
567.03	56671.39
567.19	56694.80
567.36	56570.75
567.52	56491.17
567.68	56554.36
567.85	56346.06
568.01	56879.70
568.17	56617.56
568.34	56816.50
568.50	56697.14
568.66	56671.39
568.83	56706.50
568.99	56757.99
569.15	56577.77
569.32	56519.26
569.48	56554.36
569.64	56774.37
569.81	56767.35
569.97	56528.62
570.13	56736.93
570.30	56753.31
570.46	56933.53
570.62	56987.36
570.78	56769.69
570.95	56727.56
571.11	56643.30
571.27	56584.79
571.43	56498.19
571.60	56762.67
571.76	56872.68
571.92	56814.16
572.09	57097.37
572.25	56905.44
572.41	57003.75
572.57	56704.16
572.74	57153.54
572.90	56853.95
573.06	56814.16
573.22	56882.04
573.38	56856.29
573.55	56797.78
573.71	57268.23
573.87	57050.56
574.03	56872.68
574.20	57006.09
574.36	56842.25
574.52	56825.87
574.68	56753.31
574.84	56753.31
575.01	56954.60
575.17	56722.88
575.33	56872.68
575.49	56750.97
575.65	57038.86
575.82	56919.49
575.98	56793.10
576.14	57312.70
576.30	56933.53
576.46	56800.12
576.62	56903.10
576.79	56755.65
576.95	56832.89
577.11	56949.92
577.27	56959.28
577.43	56975.66
577.59	56907.79
577.75	56952.26
577.92	56889.06
578.08	56479.47
578.24	56786.08
578.40	56877.36
578.56	57029.49
578.72	56872.68
578.88	57343.12
579.04	57099.71
579.21	57153.54
579.37	56940.55
579.53	56891.40
579.69	56811.82
579.85	56903.10
580.01	56905.44
580.17	56713.52
580.33	56823.53
580.49	56886.72
580.65	57050.56
580.82	56914.81
580.98	56992.04
581.14	57017.79
581.30	56956.94
581.46	56959.28
581.62	56980.34
581.78	56739.27
581.94	56963.96
582.10	57045.88
582.26	57146.52
582.42	56774.37
582.58	57048.22
582.74	57008.43
582.90	57120.77
583.06	57013.11
583.22	56980.34
583.38	56720.54
583.54	56889.06
583.70	56935.87
583.86	56851.61
584.02	56987.36
584.18	57066.94
584.34	57052.90
584.50	57146.52
584.66	57080.98
584.82	56783.74
584.98	57235.46
585.14	57006.09
585.30	56516.92
585.46	56959.28
585.62	56912.47
585.78	57151.20
585.94	56893.74
586.10	57109.07
586.26	56900.76
586.42	57190.99
586.58	57272.91
586.74	56757.99
586.90	56994.39
587.06	56910.13
587.22	57130.14
587.38	56893.74
587.54	57062.26
587.70	57209.71
587.86	57195.67
588.02	57151.20
588.18	57345.47
588.34	57162.90
588.49	57076.30
588.65	57078.64
588.81	56851.61
588.97	57031.83
589.13	57310.36
589.29	56931.19
589.45	57209.71
589.61	57462.49
589.77	57457.81
589.93	57174.61
590.08	57385.25
590.24	57439.09
590.40	57249.50
590.56	57284.61
590.72	57120.77
590.88	57010.77
591.04	57167.58
591.20	57270.57
591.35	57284.61
591.51	57635.69
591.67	57434.41
591.83	57478.88
591.99	57385.25
592.15	57340.78
592.31	57251.84
592.46	57439.09
592.62	57368.87
592.78	57289.29
592.94	57106.73
593.10	57396.96
593.26	57570.16
593.41	57368.87
593.57	57469.51
593.73	57429.72
593.89	57450.79
594.05	57343.12
594.20	57162.90
594.36	57333.76
594.52	57352.49
594.68	57221.42
594.84	57198.01
594.99	57429.72
595.15	57305.68
595.31	57801.87
595.47	57607.61
595.62	57539.73
595.78	57277.59
595.94	57244.82
596.10	57471.85
596.25	57258.87
596.41	57338.44
596.57	57073.96
596.73	57347.81
596.88	57242.48
597.04	57443.77
597.20	57460.15
597.36	57535.05
597.51	57539.73
597.67	57343.12
597.83	57387.60
597.99	57483.56
598.14	57448.45
598.30	57265.89
598.46	57413.34
598.61	57305.68
598.77	57139.50
598.93	57411.00
599.09	57513.98
599.24	57780.81
599.40	57359.51
599.56	57223.76
599.71	57350.15
599.87	57535.05
600.03	57392.28
600.18	57268.23
600.34	57359.51
600.50	57141.84
600.65	57167.58
600.81	57532.71
600.97	57450.79
601.12	57649.74
601.28	57443.77
601.44	57249.50
601.59	57219.08
601.75	57446.11
601.91	57422.70
602.06	57198.01
602.22	57396.96
602.37	57263.55
602.53	57340.78
602.69	57521.01
602.84	57198.01
603.00	57448.45
603.16	57453.13
603.31	57347.81
603.47	57303.34
603.62	57071.62
603.78	57228.44
603.94	57406.32
604.09	57195.67
604.25	57223.76
604.40	57188.65
604.56	57467.17
604.71	57588.88
604.87	57333.76
605.03	57420.36
605.18	57436.75
605.34	57256.53
605.49	57013.11
605.65	57317.38
605.80	57064.60
605.96	57343.12
606.12	57125.46
606.27	57326.74
606.43	57230.78
606.58	57523.35
606.74	57244.82
606.89	57331.42
607.05	57317.38
607.20	57190.99
607.36	57366.53
607.51	57401.64
607.67	57027.15
607.82	57198.01
607.98	57113.75
608.13	57219.08
608.29	57207.37
608.44	57139.50
608.60	57198.01
608.75	57331.42
608.91	57198.01
609.06	57003.75
609.22	57270.57
609.37	57027.15
609.53	56956.94
609.68	56872.68
609.84	56992.04
609.99	56968.64
610.15	56802.46
610.30	57155.88
610.46	57027.15
610.61	57099.71
610.76	57088.01
610.92	56982.68
611.07	56860.97
611.23	56992.04
611.38	57045.88
611.54	56865.66
611.69	56807.14
611.84	56442.02
612.00	56802.46
612.15	56809.48
612.31	56910.13
612.46	56942.89
612.62	57095.03
612.77	56942.89
612.92	56846.93
613.08	56970.98
613.23	57127.80
613.39	56898.42
613.54	56870.34
613.69	56802.46
613.85	56439.68
614.00	56711.18
614.15	56865.66
614.31	56837.57
614.46	56802.46
614.62	56671.39
614.77	56896.08
614.92	56626.92
615.08	56804.80
615.23	56767.35
615.38	56748.63
615.54	56741.61
615.69	56374.14
615.84	56582.45
616.00	56631.60
616.15	56530.96
616.30	56638.62
616.46	56388.19
616.61	56589.47
616.76	56669.05
616.92	56535.64
617.07	56587.13
617.22	56367.12
617.37	56505.21
617.53	56397.55
617.68	56376.48
617.83	56233.71
617.99	56402.23
618.14	56378.82
618.29	56413.93
618.45	56322.65
618.60	56444.36
618.75	56470.11
618.90	56470.11
619.06	56423.29
619.21	56350.74
619.36	56647.99
619.51	56259.46
619.67	55997.32
619.82	56030.08
619.97	56168.18
620.12	56037.11
620.28	55821.78
620.43	56472.45
620.58	56296.91
620.73	56214.99
620.89	56140.09
621.04	56198.60
621.19	56303.93
621.34	56203.28
621.49	55791.35
621.65	56025.40
621.80	55997.32
621.95	55845.18
622.10	56051.15
622.25	55966.89
622.41	55903.70
622.56	55784.33
622.71	56090.94
622.86	55648.58
623.01	56053.49
623.16	55957.53
623.32	55611.13
623.47	56002.00
623.62	55613.47
623.77	55833.48
623.92	55791.35
624.07	55725.81
624.23	55580.70
624.38	55629.85
624.53	55711.77
624.68	55924.76
624.83	55700.07
624.98	55962.21
625.13	55622.83
625.29	55543.25
625.44	55639.22
625.59	55419.20
625.74	55267.07
625.89	55262.39
626.04	55171.11
626.19	55423.89
626.34	55419.20
626.49	55325.58
626.65	55330.26
626.80	55264.73
626.95	55302.18
627.10	55313.88
627.25	55114.94
627.40	55405.16
627.55	55023.65
627.70	54960.46
627.85	55154.72
628.00	54749.81
628.15	55033.02
628.30	54726.41
628.45	54953.44
628.60	55227.28
628.76	55079.83
628.91	55283.45
629.06	55304.52
629.21	55150.04
629.36	55178.13
629.51	54937.05
629.66	55035.36
629.81	54803.64
629.96	54752.15
630.11	54571.93
630.26	54850.45
630.41	54754.49
630.56	54848.11
630.71	54768.54
630.86	54766.20
631.01	54848.11
631.16	54754.49
631.31	54721.72
631.46	54649.17
631.61	54908.97
631.76	54728.75
631.91	54574.27
632.06	54532.14
632.21	54438.52
632.36	54557.89
632.51	54309.79
632.66	54480.65
632.81	54557.89
632.96	54937.05
633.10	54564.91
633.25	54522.78
633.40	54309.79
633.55	54658.53
633.70	54281.70
633.85	54295.75
634.00	54185.74
634.15	54396.39
634.30	54225.53
634.45	54375.33
634.60	54637.47
634.75	54375.33
634.90	54258.30
635.05	54174.04
635.19	54218.51
635.34	54384.69
635.49	54377.67
635.64	54403.41
635.79	54057.01
635.94	54089.78
636.09	54152.97
636.24	53937.65
636.39	54010.20
636.53	53731.68
636.68	54033.61
636.83	54145.95
636.98	54234.89
637.13	53961.05
637.28	54131.91
637.43	54160.00
637.57	54057.01
637.72	53731.68
637.87	53813.60
638.02	53682.53
638.17	53832.32
638.32	53724.66
638.46	53642.74
638.61	53666.14
638.76	53785.51
638.91	53511.67
639.06	53703.59
639.20	53308.04
639.35	53769.13
639.50	53675.51
639.65	53829.98
639.80	53691.89
639.94	53425.07
640.09	53279.96
640.24	53406.34
640.39	53719.98
640.54	53478.90
640.68	53385.28
640.83	53268.25
640.98	53020.16
641.13	53043.56
641.27	53148.88
641.42	53176.97
641.57	53183.99
641.72	53270.59
641.86	53165.27
642.01	53010.79
642.16	53275.27
642.31	53031.86
642.45	53158.25
642.60	53083.35
642.75	52788.44
642.90	52921.85
643.04	53029.52
643.19	52921.85
643.34	53010.79
643.48	52886.74
643.63	53073.99
643.78	53315.06
643.93	53179.31
644.07	52882.06
644.22	52978.03
644.37	52837.59
644.51	52694.82
644.66	52800.15
644.81	52914.83
644.95	52968.66
645.10	52713.55
645.25	52683.12
645.39	52933.56
645.54	52846.96
645.69	52959.30
645.83	52570.77
645.98	52652.69
646.13	52832.91
646.27	52697.16
646.42	52837.59
646.57	52608.22
646.71	52460.77
646.86	52456.09
647.00	52530.98
647.15	52671.42
647.30	52399.91
647.44	52280.55
647.59	52554.39
647.74	52296.93
647.88	52184.58
648.03	52538.01
648.17	52456.09
648.32	52526.30
648.47	52676.10
648.61	52217.35
648.76	52432.68
648.90	52439.70
649.05	52088.62
649.20	52334.38
649.34	52079.26
649.49	51927.13
649.63	51938.83
649.78	52112.03
649.92	51688.39
650.07	52217.35
650.21	52233.74
650.36	52184.58
650.51	51959.89
650.65	52296.93
650.80	52282.89
650.94	52217.35
651.09	51929.47
651.23	52144.80
651.38	51903.72
651.52	52044.15
651.67	51545.62
651.81	51845.21
651.96	51753.93
652.10	51533.92
652.25	51508.17
652.39	51784.35
652.54	52093.30
652.68	51573.70
652.83	51756.27
652.97	52086.28
653.12	51594.77
653.26	51601.79
653.41	51800.74
653.55	51540.94
653.70	51154.75
653.84	51428.59
653.99	51681.37
654.13	51412.21
654.27	51789.03
654.42	51456.68
654.56	51466.04
654.71	51569.02
654.85	51683.71
655.00	51599.45
655.14	51398.16
655.29	51433.27
655.43	51374.76
655.57	51723.50
655.72	51077.51
655.86	51004.95
656.01	51164.11
656.15	50639.83
656.30	50906.65
656.44	50944.10
656.58	50674.94
656.73	50948.78
656.87	50944.10
657.01	50700.68
657.16	51196.88
657.30	51341.99
657.45	50932.40
657.59	50908.99
657.73	50759.20
657.88	50590.68
658.02	50897.29
658.16	50443.23
658.31	50681.96
658.45	50635.15
658.60	50160.02
658.74	50286.41
658.88	50019.59
659.03	50487.70
659.17	50188.11
659.31	50384.71
659.46	50368.33
659.60	50307.47
659.74	50349.60
659.89	50293.43
660.03	50408.12
660.17	50195.13
660.32	50000.86
660.46	50274.71
660.60	49862.77
660.74	49902.56
660.89	50075.76
661.03	49631.06
661.17	49570.21
661.32	49509.35
661.46	49567.87
661.60	49666.17
661.74	49815.96
661.89	49820.64
662.03	49556.16
662.17	49326.79
662.31	49652.12
662.46	49607.65
662.60	49471.90
662.74	49528.08
662.88	49265.94
663.03	48917.20
663.17	49008.48
663.31	48809.53
663.45	48830.60
663.60	48629.31
663.74	48814.21
663.88	49036.56
664.02	48996.77
664.17	49038.90
664.31	48734.63
664.45	48999.12
664.59	48729.95
664.73	48786.13
664.88	48587.18
665.02	48002.05
665.16	48044.18
665.30	48313.34
665.44	48531.01
665.59	47964.60
665.73	48133.12
665.87	48095.67
666.01	48130.78
666.15	48376.53
666.29	47990.34
666.44	48100.35
666.58	47665.01
666.72	48088.65
666.86	47915.45
667.00	48151.84
667.14	47653.31
667.28	47466.06
667.43	47412.23
667.57	48025.45
667.71	47159.45
667.85	47278.82
667.99	47271.80
668.13	47435.64
668.27	47182.86
668.41	47316.27
668.56	46852.84
668.70	47166.48
668.84	46845.82
668.98	46698.37
669.12	46967.53
669.26	47091.58
669.40	46801.35
669.54	46745.18
669.68	46492.40
669.82	46499.42
669.96	46391.76
670.10	46036.00
670.25	46382.40
670.39	45949.40
670.53	45984.51
670.67	45661.51
670.81	46337.93
670.95	45839.39
671.09	46167.07
671.23	45738.75
671.37	46122.60
671.51	46281.75
671.65	46017.27
671.79	45507.04
671.93	45296.39
672.07	45612.36
672.21	45598.32
672.35	45357.24
672.49	45155.96
672.63	45097.44
672.77	44877.43
672.91	45020.20
673.05	44484.22
673.19	44751.04
673.33	44531.03
673.47	44872.75
673.61	44940.63
673.75	44685.51
673.89	44851.69
674.03	44423.37
674.17	44208.04
674.31	44465.50
674.45	44055.90
674.59	43636.95
674.73	44109.74
674.87	43742.27
675.01	43643.97
675.15	43522.26
675.29	43007.34
675.43	42965.21
675.56	43732.91
675.70	43753.97
675.84	43627.59
675.98	42424.55
676.12	43124.37
676.26	43152.46
676.40	43126.71
676.54	42836.48
676.68	42564.98
676.82	41900.27
676.96	41965.81
677.10	42227.95
677.23	41930.70
677.37	41916.65
677.51	41720.05
677.65	41565.57
677.79	41294.07
677.93	41163.00
678.07	41418.12
678.21	41043.63
678.34	41340.88
678.48	41443.87
678.62	41179.39
678.76	41155.98
678.90	40577.87
679.04	40975.76
679.18	40879.80
679.31	40154.23
679.45	40165.93
679.59	39866.34
679.73	39803.15
679.87	39988.05
680.00	39541.01
680.14	39545.69
680.28	39358.45
680.42	39498.88
680.56	39477.82
680.70	38998.01
680.83	39213.34
680.97	39887.41
681.11	39468.45
681.25	39173.55
681.39	38852.89
681.52	39110.35
681.66	38983.96
681.80	38457.34
681.94	38288.82
682.07	38225.63
682.21	37687.31
682.35	37921.36
682.49	38230.31
682.62	37722.41
682.76	38150.73
682.90	37846.46
683.04	37310.48
683.17	37511.77
683.31	37326.86
683.45	37354.95
683.59	37083.45
683.72	37280.05
683.86	36746.41
684.00	36472.57
684.13	36467.89
684.27	36271.28
684.41	35976.37
684.55	35927.22
684.68	36266.60
684.82	35519.97
684.96	35831.26
685.09	35777.43
685.23	35611.25
685.37	35541.03
685.50	35672.10
685.64	35557.42
685.78	35194.64
685.91	35578.48
686.05	35168.89
686.19	34941.86
686.32	35306.98
686.46	34768.66
686.60	34211.61
686.73	34829.51
686.87	34387.15
687.01	33970.54
687.14	33890.96
687.28	34162.46
687.42	33745.84
687.55	33184.12
687.69	33532.86
687.82	33029.64
687.96	33242.63
688.10	33149.01
688.23	33455.62
688.37	33319.87
688.50	32964.10
688.64	33027.30
688.78	32929.00
688.91	32404.72
689.05	32563.87
689.18	32355.57
689.32	31981.08
689.46	31742.35
689.59	32119.17
689.73	31824.26
689.86	31992.78
690.00	31955.33
690.13	31777.45
690.27	31419.35
690.41	31494.25
690.54	31248.49
690.68	31358.50
690.81	31147.85
690.95	31157.21
691.08	31133.81
691.22	31297.64
691.35	30675.06
691.49	30644.63
691.62	30466.75
691.76	30401.22
691.89	29848.85
692.03	29876.94
692.16	29876.94
692.30	30033.75
692.43	29853.53
692.57	29567.99
692.70	29699.06
692.84	29212.23
692.97	29277.76
693.11	29418.19
693.24	29006.26
693.38	29226.27
693.51	28856.46
693.65	29422.87
693.78	28952.43
693.92	28814.34
694.05	28526.45
694.19	28343.89
694.32	28095.79
694.45	28353.25
694.59	27915.57
694.72	27524.70
694.86	27634.71
694.99	27410.01
695.13	27578.53
695.26	27468.53
695.39	27194.68
695.53	27435.76
695.66	27765.78
695.80	27110.43
695.93	27192.34
696.07	26843.60
696.20	27049.57
696.33	26569.76
696.47	26677.43
696.60	26836.58
696.73	26120.38
696.87	25734.19
697.00	26281.88
697.14	25736.53
697.27	25766.96
697.40	25436.94
697.54	25163.10
697.67	25172.46
697.80	25135.01
697.94	24765.21
698.07	24971.18
698.21	25043.73
698.34	24922.02
698.47	24805.00
698.61	24482.00
698.74	24617.75
698.87	25322.26
699.01	24411.79
699.14	24442.21
699.27	24198.80
699.40	24142.63
699.54	24294.76
699.67	23747.08
699.80	23473.23
699.94	23424.08
700.07	23564.51
700.20	23428.76
700.34	23351.52
700.47	22970.02
700.60	23234.50
700.73	23239.18
700.87	23173.64
701.00	23002.78
701.13	22834.27
701.26	23110.45
701.40	22934.91
701.53	22850.65
701.66	22530.00
701.79	22270.20
701.93	22143.81
702.06	22214.02
702.19	21975.29
702.32	22108.70
702.46	21991.67
702.59	21792.73
702.72	21638.25
702.85	21441.65
702.99	21233.34
703.12	21392.50
703.25	21525.91
703.38	21397.18
703.51	21284.83
703.65	20900.98
703.78	20973.54
703.91	20900.98
704.04	21025.03
704.17	21050.78
704.31	20734.81
704.44	20388.41
704.57	20409.47
704.70	20102.86
704.83	20016.26
704.96	19847.74
705.10	20046.69
705.23	19822.00
>>>>>End Processed Spectral Data<<<<<
