SpectraSuite Data File
++++++++++++++++++++++++++++++++++++
Date: Fri Oct 18 13:54:09 GMT-05:00 2013
User: bianchi
Dark Spectrum Present: No
Reference Spectrum Present: No
Number of Sampled Component Spectra: 1
Spectrometers: USB2+H05261
Integration Time (usec): 100000 (USB2+H05261)
Spectra Averaged: 1 (USB2+H05261)
Boxcar Smoothing: 0 (USB2+H05261)
Correct for Electrical Dark: No (USB2+H05261)
Strobe/Lamp Enabled: No (USB2+H05261)
Correct for Detector Non-linearity: No (USB2+H05261)
Correct for Stray Light: No (USB2+H05261)
Number of Pixels in Processed Spectrum: 2048
>>>>>Begin Processed Spectral Data<<<<<
365.73	0.00
365.92	0.00
366.12	0.00
366.32	0.00
366.52	0.00
366.72	0.00
366.91	0.00
367.11	0.00
367.31	0.00
367.51	0.00
367.70	0.00
367.90	0.00
368.10	0.00
368.30	0.00
368.49	0.00
368.69	0.00
368.89	0.00
369.09	0.00
369.28	0.00
369.48	0.00
369.68	0.00
369.87	0.00
370.07	0.00
370.27	0.00
370.47	51.49
370.66	273.84
370.86	337.04
371.06	374.49
371.25	346.40
371.45	297.25
371.65	425.98
371.84	369.80
372.04	353.42
372.24	397.89
372.44	402.57
372.63	353.42
372.83	425.98
373.03	540.66
373.22	379.17
373.42	454.06
373.62	484.49
373.81	482.15
374.01	461.09
374.21	535.98
374.40	519.60
374.60	580.45
374.79	463.43
374.99	484.49
375.19	472.79
375.38	505.56
375.58	486.83
375.78	519.60
375.97	512.58
376.17	547.69
376.37	592.16
376.56	589.82
376.76	519.60
376.95	493.85
377.15	533.64
377.35	653.01
377.54	568.75
377.74	594.50
377.93	631.94
378.13	638.97
378.33	568.75
378.52	557.05
378.72	655.35
378.91	571.09
379.11	557.05
379.31	550.03
379.50	727.91
379.70	669.39
379.89	688.12
380.09	603.86
380.28	587.47
380.48	587.47
380.68	650.67
380.87	653.01
381.07	636.63
381.26	716.20
381.46	643.65
381.65	758.33
381.85	774.72
382.04	671.73
382.24	636.63
382.43	690.46
382.63	669.39
382.83	732.59
383.02	781.74
383.22	791.10
383.41	709.18
383.61	777.06
383.80	842.59
384.00	746.63
384.19	730.25
384.39	748.97
384.58	868.34
384.78	802.80
384.97	786.42
385.17	706.84
385.36	770.04
385.56	802.80
385.75	889.40
385.95	779.40
386.14	826.21
386.34	784.08
386.53	877.70
386.72	856.64
386.92	917.49
387.11	870.68
387.31	954.94
387.50	903.45
387.70	905.79
387.89	828.55
388.09	861.32
388.28	814.51
388.48	880.04
388.67	866.00
388.86	1015.79
389.06	997.07
389.25	940.90
389.45	1001.75
389.64	1050.90
389.84	1011.11
390.03	994.73
390.22	1048.56
390.42	945.58
390.61	1018.13
390.81	1057.92
391.00	983.02
391.19	1146.86
391.39	1064.94
391.58	1102.39
391.78	1015.79
391.97	1097.71
392.16	1123.46
392.36	1205.38
392.55	1174.95
392.75	1153.88
392.94	1062.60
393.13	1144.52
393.33	1198.35
393.52	1132.82
393.71	1259.21
393.91	1142.18
394.10	1245.16
394.29	1170.27
394.49	1254.53
394.68	1210.06
394.88	1231.12
395.07	1352.83
395.26	1266.23
395.46	1219.42
395.65	1327.08
395.84	1289.64
396.04	1434.75
396.23	1444.11
396.42	1364.53
396.62	1392.62
396.81	1308.36
397.00	1331.76
397.19	1497.94
397.39	1423.05
397.58	1479.22
397.77	1526.03
397.97	1423.05
398.16	1476.88
398.35	1542.41
398.55	1453.47
398.74	1504.96
398.93	1406.66
399.12	1523.69
399.32	1598.59
399.51	1479.22
399.70	1629.01
399.90	1533.05
400.09	1568.16
400.28	1689.87
400.47	1696.89
400.67	1736.68
400.86	1657.10
401.05	1694.55
401.24	1689.87
401.44	1753.06
401.63	1781.15
401.82	1776.47
402.01	1668.80
402.21	1736.68
402.40	1806.89
402.59	1856.04
402.78	1802.21
402.97	1879.45
403.17	1884.13
403.36	1944.99
403.55	1977.75
403.74	1898.17
403.93	1921.58
404.13	1959.03
404.32	1834.98
404.51	1940.30
404.70	2038.61
404.89	2010.52
405.09	2059.67
405.28	2076.06
405.47	2160.31
405.66	2136.91
405.85	2099.46
406.05	2242.23
406.24	2136.91
406.43	2207.13
406.62	2148.61
406.81	2342.88
407.00	2253.94
407.20	2237.55
407.39	2263.30
407.58	2204.78
407.77	2331.17
407.96	2310.11
408.15	2270.32
408.34	2361.60
408.54	2349.90
408.73	2469.27
408.92	2487.99
409.11	2609.70
409.30	2532.46
409.49	2558.21
409.68	2513.74
409.87	2476.29
410.07	2562.89
410.26	2593.31
410.45	2551.18
410.64	2532.46
410.83	2787.58
411.02	2766.51
411.21	2834.39
411.40	2778.22
411.59	2822.69
411.78	2787.58
411.98	2754.81
412.17	2995.89
412.36	2956.10
412.55	2862.48
412.74	3019.29
412.93	3042.70
413.12	2967.80
413.31	3232.28
413.50	3091.85
413.69	3115.25
413.88	3159.72
414.07	3269.73
414.26	3276.75
414.45	3302.50
414.64	3314.20
414.83	3379.73
415.02	3471.01
415.22	3431.23
415.41	3669.96
415.60	3435.91
415.79	3599.74
415.98	3630.17
416.17	3618.47
416.36	3524.85
416.55	3627.83
416.74	3653.58
416.93	3702.73
417.12	3712.09
417.31	3805.71
417.50	3719.11
417.69	4035.08
417.88	3983.59
418.07	3871.25
418.26	4021.04
418.45	3969.55
418.64	4058.49
418.83	4145.09
419.02	4098.28
419.21	4159.13
419.39	4093.60
419.58	4140.41
419.77	4037.42
419.96	4245.73
420.15	4315.95
420.34	4308.93
420.53	4304.25
420.72	4404.89
420.91	4278.50
421.10	4355.74
421.29	4395.53
421.48	4322.97
421.67	4447.02
421.86	4362.76
422.05	4397.87
422.24	4407.23
422.43	4472.76
422.61	4528.94
422.80	4493.83
422.99	4451.70
423.18	4589.79
423.37	4589.79
423.56	4692.77
423.75	4716.18
423.94	4430.63
424.13	4287.86
424.32	4409.57
424.50	4580.43
424.69	4760.65
424.88	4732.56
425.07	4461.06
425.26	4608.51
425.45	4709.16
425.64	4477.44
425.83	4592.13
426.01	4940.87
426.20	4798.10
426.39	4702.14
426.58	4781.71
426.77	4692.77
426.96	4760.65
427.15	4727.88
427.33	4770.01
427.52	4833.21
427.71	4823.84
427.90	4966.62
428.09	5050.88
428.28	4975.98
428.46	5071.94
428.65	4947.89
428.84	5025.13
429.03	5132.79
429.22	4950.23
429.40	5191.31
429.59	5233.44
429.78	4802.78
429.97	4922.15
430.16	5022.79
430.34	5298.97
430.53	5298.97
430.72	5273.23
430.91	5376.21
431.10	5359.83
431.28	5497.92
431.47	5500.26
431.66	5540.05
431.85	5418.34
432.03	5448.77
432.22	5579.84
432.41	5488.56
432.60	5706.23
432.79	5710.91
432.97	5776.44
433.16	5703.89
433.35	5535.37
433.54	5650.05
433.72	5851.34
433.91	5813.89
434.10	5895.81
434.28	5781.12
434.47	5832.62
434.66	5760.06
434.85	6022.20
435.03	5977.73
435.22	5881.77
435.41	6019.86
435.59	6012.84
435.78	5823.25
435.97	6022.20
436.16	6033.90
436.34	6164.97
436.53	6279.66
436.72	6228.17
436.90	6012.84
437.09	6230.51
437.28	6101.78
437.46	6277.32
437.65	6291.36
437.84	6513.71
438.02	6438.81
438.21	6375.62
438.40	6413.07
438.58	6607.33
438.77	6616.69
438.96	6473.92
439.14	6829.68
439.33	6885.86
439.52	6778.19
439.70	6867.13
439.89	7005.22
440.08	6754.79
440.26	6963.09
440.45	6853.09
440.63	7124.59
440.82	7066.08
441.01	7066.08
441.19	7187.79
441.38	7304.81
441.57	7290.77
441.75	7396.09
441.94	7417.16
442.12	7625.47
442.31	7543.55
442.50	7435.88
442.68	7616.10
442.87	7515.46
443.05	7634.83
443.24	7824.41
443.43	7660.57
443.61	7702.70
443.80	8028.04
443.98	7480.35
444.17	7480.35
444.35	7843.14
444.54	7840.79
444.73	7838.45
444.91	7880.58
445.10	7941.44
445.28	7864.20
445.47	7702.70
445.65	7714.41
445.84	7932.08
446.02	7936.76
446.21	7875.90
446.39	7908.67
446.58	8109.96
446.77	8044.42
446.95	7936.76
447.14	8067.83
447.32	8070.17
447.51	7971.86
447.69	7990.59
447.88	7911.01
448.06	8173.15
448.25	8147.40
448.43	8124.00
448.62	8126.34
448.80	8028.04
448.99	8095.91
449.17	8327.63
449.36	8264.43
449.54	8329.97
449.73	8299.54
449.91	8449.33
450.10	8503.17
450.28	8592.11
450.46	8477.42
450.65	8425.93
450.83	8512.53
451.02	8379.12
451.20	8755.94
451.39	8730.20
451.57	8695.09
451.76	8704.45
451.94	8629.56
452.13	8903.40
452.31	8830.84
452.49	8730.20
452.68	8699.77
452.86	8779.35
453.05	8872.97
453.23	9102.34
453.42	8966.59
453.60	8889.35
453.78	8952.55
453.97	8915.10
454.15	8919.78
454.34	8851.91
454.52	9322.35
454.70	9214.69
454.89	9231.07
455.07	9149.15
455.26	9261.50
455.44	9198.31
455.62	9263.84
455.81	9390.23
455.99	9385.55
456.17	9376.19
456.36	9682.80
456.54	9734.29
456.73	9745.99
456.91	9975.36
457.09	9701.52
457.28	9975.36
457.46	9575.13
457.64	9919.19
457.83	10078.35
458.01	9720.24
458.19	9944.94
458.38	9989.41
458.56	10160.27
458.74	9820.89
458.93	9860.68
459.11	9975.36
459.29	9933.23
459.48	10211.76
459.66	10115.80
459.84	10253.89
460.03	10509.01
460.21	10551.14
460.39	10429.43
460.57	10427.09
460.76	10443.47
460.94	10436.45
461.12	10469.22
461.31	10544.11
461.49	10544.11
461.67	10644.76
461.85	10967.75
462.04	10628.37
462.22	11232.23
462.40	10771.15
462.59	10714.97
462.77	10991.16
462.95	10857.75
463.13	11035.63
463.32	11117.54
463.50	10911.58
463.68	11014.56
463.86	10904.56
464.05	11126.91
464.23	10911.58
464.41	11169.04
464.59	11253.30
464.78	11227.55
464.96	11052.01
465.14	11019.24
465.32	11330.53
465.50	11468.62
465.69	11517.78
465.87	11234.57
466.05	11150.31
466.23	11396.07
466.41	11384.37
466.60	11847.79
466.78	11257.98
466.96	11688.64
467.14	11382.03
467.32	11770.55
467.51	11852.47
467.69	11721.40
467.87	11751.83
468.05	11747.15
468.23	11719.06
468.41	11847.79
468.60	11800.98
468.78	12166.10
468.96	11929.71
469.14	11887.58
469.32	12128.66
469.50	11812.68
469.69	11946.09
469.87	12241.00
470.05	12231.64
470.23	12573.36
470.41	12336.96
470.59	12451.65
470.77	12219.94
470.95	12381.43
471.14	12716.13
471.32	12369.73
471.50	12573.36
471.68	12585.06
471.86	12737.20
472.04	12793.37
472.22	13139.77
472.40	12746.56
472.58	12957.21
472.77	13280.20
472.95	13413.61
473.13	13575.11
473.31	13074.23
473.49	13043.81
473.67	13408.93
473.85	13352.76
474.03	13858.31
474.21	13547.02
474.39	13717.88
474.57	13823.20
474.75	14029.17
474.93	14185.99
475.12	14052.58
475.30	14150.88
475.48	14207.05
475.66	14354.51
475.84	14256.20
476.02	14331.10
476.20	14342.80
476.38	14848.36
476.56	14958.36
476.74	14831.97
476.92	14951.34
477.10	15096.46
477.28	15129.22
477.46	15096.46
477.64	15061.35
477.82	15316.47
478.00	15796.28
478.18	15925.00
478.36	15896.92
478.54	16037.35
478.72	16030.33
478.90	16383.75
479.08	16350.98
479.26	16369.71
479.44	16596.74
479.62	16872.92
479.80	16915.05
479.98	17359.75
480.16	17156.13
480.34	17013.35
480.52	17479.12
480.70	17359.75
480.88	17350.39
481.06	17839.56
481.24	17525.93
481.41	17905.10
481.59	18202.35
481.77	18356.82
481.95	18272.56
482.13	18721.95
482.31	18703.22
482.49	19087.07
482.67	18991.11
482.85	18951.32
483.03	19424.11
483.21	19440.49
483.39	19679.22
483.57	19585.60
483.74	20093.50
483.92	20018.60
484.10	19791.57
484.28	20556.93
484.46	20884.60
484.64	20882.26
484.82	20538.20
485.00	20758.21
485.18	21106.95
485.35	21476.76
485.53	21734.21
485.71	21593.78
485.89	22293.60
486.07	21741.24
486.25	22022.10
486.43	22174.24
486.61	22253.81
486.78	22843.63
486.96	22644.68
487.14	23058.96
487.32	23185.35
487.50	23358.55
487.68	23517.70
487.85	23892.19
488.03	23861.76
488.21	24395.40
488.39	24343.91
488.57	24533.50
488.75	24463.28
488.92	24664.57
489.10	25317.57
489.28	25090.54
489.46	25778.66
489.64	25378.43
489.81	26078.25
489.99	26078.25
490.17	25785.68
490.35	26249.11
490.53	26434.01
490.70	26881.05
490.88	26380.18
491.06	26616.57
491.24	27070.64
491.41	26913.82
491.59	27447.46
491.77	27307.03
491.95	27896.85
492.13	27796.20
492.30	28217.50
492.48	27908.55
492.66	28376.66
492.84	28074.73
493.01	28767.52
493.19	28968.81
493.37	29207.55
493.54	29333.93
493.72	29457.98
493.90	29134.99
494.08	29586.71
494.25	29970.56
494.43	30429.30
494.61	30401.22
494.79	30583.78
494.96	30504.20
495.14	30705.49
495.32	30909.11
495.49	30962.95
495.67	31208.70
495.85	31620.64
496.02	31714.26
496.20	31707.24
496.38	31854.69
496.55	31681.49
496.73	32680.90
496.91	32484.30
497.09	32421.10
497.26	33003.89
497.44	32573.24
497.62	33116.24
497.79	33406.47
497.97	33413.49
498.14	33523.49
498.32	33858.19
498.50	33783.29
498.67	33858.19
498.85	34323.96
499.03	34253.74
499.20	34040.75
499.38	34012.66
499.56	34817.81
499.73	35007.39
499.91	35386.56
500.08	35035.48
500.26	34991.01
500.44	35218.04
500.61	35194.64
500.79	35115.06
500.97	35878.07
501.14	35852.33
501.32	35655.72
501.49	36032.55
501.67	36250.22
501.84	36367.24
502.02	36601.30
502.20	36505.34
502.37	37102.17
502.55	36594.28
502.72	36954.72
502.90	36905.57
503.07	36966.42
503.25	37116.22
503.43	36954.72
503.60	37600.71
503.78	37701.35
503.95	37579.64
504.13	37874.55
504.30	38094.56
504.48	37619.43
504.65	38394.15
504.83	38415.21
505.01	38244.35
505.18	38682.03
505.36	38878.64
505.53	38471.39
505.71	38972.26
505.88	39070.56
506.06	38487.77
506.23	39189.93
506.41	38897.36
506.58	39131.42
506.76	39229.72
506.93	39367.81
507.11	39536.33
507.28	39721.23
507.46	39578.46
507.63	39718.89
507.81	40608.29
507.98	40144.87
508.16	40048.91
508.33	40208.06
508.50	40875.12
508.68	40533.40
508.85	40851.71
509.03	40954.69
509.20	41265.99
509.38	41235.56
509.55	41471.95
509.73	41584.30
509.90	41574.94
510.08	41207.47
510.25	41633.45
510.42	41727.07
510.60	42450.30
510.77	42321.57
510.95	42363.70
511.12	41752.82
511.30	41935.38
511.47	42707.76
511.64	42920.74
511.82	42780.31
511.99	42672.65
512.17	43227.35
512.34	42649.24
512.51	43203.95
512.69	43435.66
512.86	43206.29
513.04	43662.69
513.21	43489.49
513.38	43634.61
513.56	43683.76
513.73	43498.86
513.90	43283.53
514.08	43789.08
514.25	43927.17
514.43	44231.44
514.60	44226.76
514.77	44844.66
514.95	44652.74
515.12	44069.95
515.29	44374.22
515.47	44788.49
515.64	44877.43
515.81	45036.59
515.99	44856.37
516.16	45432.14
516.33	45528.10
516.51	45649.81
516.68	45240.21
516.85	45523.42
517.03	45617.04
517.20	45928.33
517.37	45790.24
517.54	45975.14
517.72	45958.76
517.89	45879.18
518.06	46014.93
518.24	45970.46
518.41	46520.49
518.58	46295.80
518.75	46522.83
518.93	46363.67
519.10	46539.21
519.27	46752.20
519.45	46557.94
519.62	46602.41
519.79	46607.09
519.96	46850.50
520.14	46902.00
520.31	46693.69
520.48	47601.82
520.65	47126.69
520.83	47543.30
521.00	47423.93
521.17	47356.06
521.34	47545.64
521.52	47796.08
521.69	47686.07
521.86	47992.68
522.03	48030.13
522.20	48086.31
522.38	48184.61
522.55	48285.25
522.72	48018.43
522.89	48371.85
523.07	48802.51
523.24	48619.95
523.41	48680.80
523.58	48603.56
523.75	48811.87
523.92	48495.90
524.10	48905.49
524.27	49179.34
524.44	49057.63
524.61	49586.59
524.78	48844.64
524.96	49062.31
525.13	49148.91
525.30	49387.64
525.47	49315.09
525.64	49296.36
525.81	49553.82
525.98	49773.83
526.16	49752.77
526.33	49970.44
526.50	49841.71
526.67	49574.89
526.84	49490.63
527.01	49514.03
527.18	49914.26
527.36	50197.47
527.53	50314.50
527.70	50553.23
527.87	50637.49
528.04	50169.38
528.21	50281.73
528.38	50293.43
528.55	50628.13
528.72	50309.82
528.89	50590.68
529.07	50791.97
529.24	50672.60
529.41	50979.21
529.58	50497.06
529.75	50625.79
529.92	50700.68
530.09	50913.67
530.26	50923.04
530.43	51021.34
530.60	50892.61
530.77	51164.11
530.94	51042.40
531.11	50611.74
531.28	51222.62
531.46	51327.95
531.63	51107.94
531.80	51384.12
531.97	51789.03
532.14	51756.27
532.31	51604.13
532.48	51847.55
532.65	51482.42
532.82	51629.88
532.99	51693.07
533.16	51686.05
533.33	51995.00
533.50	52011.38
533.67	51950.53
533.84	51976.28
534.01	51800.74
534.18	52088.62
534.35	52121.39
534.52	52161.18
534.69	52334.38
534.86	52570.77
535.03	52278.21
535.20	52573.11
535.37	52325.02
535.54	52626.95
535.71	51833.50
535.88	52458.43
536.05	52259.48
536.22	52839.93
536.38	52559.07
536.55	52477.15
536.72	52849.30
536.89	52706.52
537.06	52774.40
537.23	53127.82
537.40	52701.84
537.57	52671.42
537.74	52612.90
537.91	53207.40
538.08	53191.01
538.25	52963.98
538.42	53172.29
538.59	53415.71
538.75	52795.46
538.92	53240.17
539.09	53237.83
539.26	53062.29
539.43	53574.86
539.60	53474.22
539.77	53542.10
539.94	53324.43
540.11	53270.59
540.28	53659.12
540.44	53448.47
540.61	53506.99
540.78	53368.90
540.95	53518.69
541.12	53521.03
541.29	53537.41
541.46	53652.10
541.62	53385.28
541.79	53638.06
541.96	53368.90
542.13	53757.42
542.30	53614.65
542.47	54176.38
542.63	54054.67
542.80	54183.40
542.97	54328.52
543.14	54328.52
543.31	53970.41
543.48	54478.31
543.64	54408.09
543.81	54663.21
543.98	54564.91
544.15	54539.16
544.32	54461.93
544.48	54798.96
544.65	54518.10
544.82	54501.71
544.99	54593.00
545.16	54588.31
545.32	54277.02
545.49	55091.53
545.66	54932.37
545.83	54908.97
546.00	55023.65
546.16	54834.07
546.33	54803.64
546.50	54721.72
546.67	54679.60
546.83	54623.42
547.00	54962.80
547.17	54906.63
547.34	54803.64
547.50	55210.90
547.67	55159.41
547.84	55070.46
548.00	55168.77
548.17	55487.08
548.34	55224.94
548.51	55234.30
548.67	55353.67
548.84	55407.50
549.01	55100.89
549.18	55145.36
549.34	55208.56
549.51	55206.22
549.68	55171.11
549.84	55442.61
550.01	55117.28
550.18	55323.24
550.34	55519.85
550.51	55648.58
550.68	55543.25
550.84	55091.53
551.01	55618.15
551.18	55222.60
551.34	55365.37
551.51	55695.39
551.68	55641.56
551.84	55798.37
552.01	55590.06
552.18	55700.07
552.34	55655.60
552.51	55632.19
552.68	55515.17
552.84	55634.53
553.01	55884.97
553.18	55744.54
553.34	55931.78
553.51	55835.82
553.67	56083.92
553.84	56189.24
554.01	56037.11
554.17	56027.74
554.34	56203.28
554.51	55983.27
554.67	56205.62
554.84	56102.64
555.00	56011.36
555.17	56023.06
555.33	55999.66
555.50	56222.01
555.67	56278.18
555.83	56142.43
556.00	56198.60
556.16	56261.80
556.33	56219.67
556.50	55966.89
556.66	56224.35
556.83	56294.56
556.99	56526.28
557.16	56713.52
557.32	56505.21
557.49	56432.66
557.65	56088.60
557.82	56381.16
557.98	56413.93
558.15	56465.42
558.32	56537.98
558.48	56633.94
558.65	56371.80
558.81	56540.32
558.98	56526.28
559.14	56540.32
559.31	56264.14
559.47	56666.71
559.64	56619.90
559.80	56708.84
559.97	56704.16
560.13	56500.53
560.30	56540.32
560.46	56800.12
560.63	56800.12
560.79	56729.90
560.96	56877.36
561.12	56530.96
561.29	56629.26
561.45	56584.79
561.61	56725.22
561.78	56767.35
561.94	56828.21
562.11	56884.38
562.27	56750.97
562.44	56739.27
562.60	56631.60
562.77	56921.83
562.93	56865.66
563.10	56912.47
563.26	56776.72
563.42	57137.16
563.59	57059.92
563.75	56868.00
563.92	57162.90
564.08	56975.66
564.24	56666.71
564.41	56603.52
564.57	56882.04
564.74	57017.79
564.90	56907.79
565.07	56999.07
565.23	57083.33
565.39	56910.13
565.56	57020.13
565.72	56736.93
565.88	57041.20
566.05	56830.55
566.21	56814.16
566.38	56863.32
566.54	56657.35
566.70	57167.58
566.87	57329.08
567.03	56968.64
567.19	57186.31
567.36	56921.83
567.52	56933.53
567.68	56919.49
567.85	57076.30
568.01	57214.40
568.17	57097.37
568.34	57139.50
568.50	57176.95
568.66	57216.74
568.83	57343.12
568.99	57043.54
569.15	57097.37
569.32	56879.70
569.48	56973.32
569.64	57279.93
569.81	56949.92
569.97	57282.27
570.13	57237.80
570.30	57111.41
570.46	57141.84
570.62	57361.85
570.78	56987.36
570.95	56959.28
571.11	57127.80
571.27	57001.41
571.43	56982.68
571.60	57048.22
571.76	57102.05
571.92	57006.09
572.09	57301.00
572.25	57469.51
572.41	57024.81
572.57	57144.18
572.74	57469.51
572.90	57176.95
573.06	57333.76
573.22	57165.24
573.38	57216.74
573.55	57326.74
573.71	57656.76
573.87	57579.52
574.03	57411.00
574.20	57375.89
574.36	57293.97
574.52	57448.45
574.68	57172.27
574.84	57200.35
575.01	57202.69
575.17	57628.67
575.33	57230.78
575.49	57448.45
575.65	57319.72
575.82	57516.32
575.98	57286.95
576.14	57277.59
576.30	57345.47
576.46	57085.67
576.62	57109.07
576.79	57073.96
576.95	57132.48
577.11	57399.30
577.27	57530.37
577.43	57275.25
577.59	57345.47
577.75	57338.44
577.92	57153.54
578.08	57305.68
578.24	57097.37
578.40	57329.08
578.56	57420.36
578.72	57439.09
578.88	57647.39
579.04	57570.16
579.21	57359.51
579.37	57499.94
579.53	57539.73
579.69	57401.64
579.85	57223.76
580.01	57352.49
580.17	57006.09
580.33	57499.94
580.49	57392.28
580.65	57560.79
580.82	57488.24
580.98	57469.51
581.14	57406.32
581.30	57645.05
581.46	57359.51
581.62	57301.00
581.78	57282.27
581.94	57544.41
582.10	57443.77
582.26	57296.31
582.42	57420.36
582.58	57427.38
582.74	57516.32
582.90	57539.73
583.06	57701.23
583.22	57331.42
583.38	57242.48
583.54	57371.21
583.70	57329.08
583.86	57457.81
584.02	57345.47
584.18	57469.51
584.34	57483.56
584.50	57551.43
584.66	57490.58
584.82	57350.15
584.98	57389.94
585.14	57354.83
585.30	57422.70
585.46	57322.06
585.62	57380.57
585.78	57588.88
585.94	57228.44
586.10	57436.75
586.26	57654.42
586.42	57659.10
586.58	57584.20
586.74	57422.70
586.90	57467.17
587.06	57277.59
587.22	57509.30
587.38	57343.12
587.54	57584.20
587.70	57743.36
587.86	57528.03
588.02	57710.59
588.18	57682.50
588.34	57600.58
588.49	57411.00
588.65	57640.37
588.81	57293.97
588.97	57609.95
589.13	57085.67
589.29	57565.48
589.45	57600.58
589.61	57602.92
589.77	57855.70
589.93	57682.50
590.08	57696.55
590.24	57668.46
590.40	58000.82
590.56	57755.06
590.72	57659.10
590.88	57490.58
591.04	57745.70
591.20	57872.09
591.35	57708.25
591.51	57808.89
591.67	57801.87
591.83	57977.41
591.99	57918.90
592.15	57724.63
592.31	57731.65
592.46	57748.04
592.62	57411.00
592.78	57560.79
592.94	57846.34
593.10	57773.78
593.26	57935.28
593.41	58108.48
593.57	57790.17
593.73	57752.72
593.89	57834.64
594.05	57923.58
594.20	57736.34
594.36	57764.42
594.52	57724.63
594.68	57619.31
594.84	57722.29
594.99	57858.04
595.15	57663.78
595.31	57958.69
595.47	57820.59
595.62	58040.60
595.78	57895.49
595.94	57883.79
596.10	57916.56
596.25	57701.23
596.41	57621.65
596.57	57567.82
596.73	57600.58
596.88	57673.14
597.04	57645.05
597.20	57778.46
597.36	57895.49
597.51	58021.88
597.67	57851.02
597.83	57865.06
597.99	57865.06
598.14	57726.97
598.30	57745.70
598.46	57673.14
598.61	57799.53
598.77	57539.73
598.93	57879.11
599.09	57932.94
599.24	57874.43
599.40	57879.11
599.56	57872.09
599.71	57902.51
599.87	57914.22
600.03	57579.52
600.18	57818.25
600.34	57640.37
600.50	57616.97
600.65	57834.64
600.81	58068.69
600.97	57921.24
601.12	57825.28
601.28	58033.58
601.44	57904.85
601.59	58028.90
601.75	57698.89
601.91	57951.66
602.06	57769.10
602.22	57717.61
602.37	57944.64
602.53	57844.00
602.69	57946.98
602.84	57848.68
603.00	57881.45
603.16	58192.74
603.31	58085.07
603.47	57874.43
603.62	57726.97
603.78	57783.15
603.94	57724.63
604.09	57736.34
604.25	57982.09
604.40	57703.57
604.56	57635.69
604.71	58103.80
604.87	57829.96
605.03	57841.66
605.18	57663.78
605.34	57785.49
605.49	57588.88
605.65	57586.54
605.80	57553.77
605.96	57577.18
606.12	57698.89
606.27	57858.04
606.43	57848.68
606.58	57836.98
606.74	57581.86
606.89	57680.16
607.05	57560.79
607.20	57792.51
607.36	57631.01
607.51	57712.93
607.67	57565.48
607.82	57457.81
607.98	57717.61
608.13	57668.46
608.29	57549.09
608.44	57460.15
608.60	57464.83
608.75	57806.55
608.91	57729.31
609.06	57483.56
609.22	57656.76
609.37	57425.04
609.53	57359.51
609.68	57209.71
609.84	57265.89
609.99	57380.57
610.15	57490.58
610.30	57635.69
610.46	57528.03
610.61	57408.66
610.76	57455.47
610.92	57532.71
611.07	57462.49
611.23	57368.87
611.38	57429.72
611.54	57422.70
611.69	57446.11
611.84	57378.23
612.00	57265.89
612.15	57169.93
612.31	57399.30
612.46	57169.93
612.62	57523.35
612.77	57279.93
612.92	57696.55
613.08	57457.81
613.23	57242.48
613.39	57326.74
613.54	56959.28
613.69	57041.20
613.85	57176.95
614.00	57038.86
614.15	57214.40
614.31	57172.27
614.46	57223.76
614.62	57132.48
614.77	57172.27
614.92	57488.24
615.08	57071.62
615.23	57249.50
615.38	57202.69
615.54	57181.63
615.69	56978.00
615.84	56903.10
616.00	57181.63
616.15	56982.68
616.30	57038.86
616.46	56949.92
616.61	57169.93
616.76	57165.24
616.92	56945.23
617.07	57263.55
617.22	56940.55
617.37	56729.90
617.53	56907.79
617.68	56683.09
617.83	56530.96
617.99	56559.05
618.14	56762.67
618.29	56940.55
618.45	56804.80
618.60	56776.72
618.75	56797.78
618.90	56825.87
619.06	56947.57
619.21	56549.68
619.36	56912.47
619.51	56332.01
619.67	56514.58
619.82	56339.04
619.97	56458.40
620.12	56282.86
620.28	56523.94
620.43	56495.85
620.58	56479.47
620.73	56753.31
620.89	56767.35
621.04	56647.99
621.19	56725.22
621.34	56528.62
621.49	56416.27
621.65	56364.78
621.80	56357.76
621.95	56247.75
622.10	56671.39
622.25	56491.17
622.41	56633.94
622.56	56205.62
622.71	56516.92
622.86	56287.54
623.01	56458.40
623.16	56294.56
623.32	56135.41
623.47	56357.76
623.62	56299.25
623.77	56175.20
623.92	56104.98
624.07	56133.07
624.23	56032.42
624.38	56313.29
624.53	56123.71
624.68	56324.99
624.83	56149.45
624.98	56371.80
625.13	56128.39
625.29	56037.11
625.44	56060.51
625.59	56114.34
625.74	55655.60
625.89	55796.03
626.04	55702.41
626.19	55824.12
626.34	55859.23
626.49	55814.76
626.65	56053.49
626.80	55732.84
626.95	55964.55
627.10	56144.77
627.25	55903.70
627.40	55920.08
627.55	55760.92
627.70	55615.81
627.85	55597.09
628.00	55402.82
628.15	55501.12
628.30	55571.34
628.45	55737.52
628.60	55484.74
628.76	55686.03
628.91	55641.56
629.06	55407.50
629.21	55505.80
629.36	55423.89
629.51	55646.24
629.66	55791.35
629.81	55447.29
629.96	55281.11
630.11	55281.11
630.26	55323.24
630.41	55466.02
630.56	55091.53
630.71	55070.46
630.86	55414.52
631.01	55121.96
631.16	55442.61
631.31	55089.19
631.46	55035.36
631.61	55367.71
631.76	55238.98
631.91	55351.33
632.06	54782.58
632.21	55021.31
632.36	55185.15
632.51	55065.78
632.66	55056.42
632.81	54747.47
632.96	55381.76
633.10	55295.16
633.25	55351.33
633.40	54829.39
633.55	54937.05
633.70	54864.50
633.85	55042.38
634.00	54710.02
634.15	54937.05
634.30	54869.18
634.45	54815.35
634.60	54845.77
634.75	55182.81
634.90	54829.39
635.05	54925.35
635.19	54492.35
635.34	54831.73
635.49	54923.01
635.64	54915.99
635.79	54843.43
635.94	54644.49
636.09	54653.85
636.24	54354.26
636.39	54447.88
636.53	54431.50
636.68	54539.16
636.83	54410.43
636.98	54740.45
637.13	54646.83
637.28	54482.99
637.43	54518.10
637.57	54801.30
637.72	54431.50
637.87	54131.91
638.02	54541.50
638.17	54265.32
638.32	54183.40
638.46	53982.12
638.61	54344.90
638.76	53829.98
638.91	54232.55
639.06	54312.13
639.20	53954.03
639.35	54120.21
639.50	54000.84
639.65	54117.87
639.80	54174.04
639.94	54344.90
640.09	53998.50
640.24	53993.82
640.39	54120.21
640.54	53865.09
640.68	53961.05
640.83	53811.26
640.98	53736.36
641.13	53483.58
641.27	53907.22
641.42	53851.05
641.57	53909.56
641.72	53656.78
641.86	53652.10
642.01	53609.97
642.16	53965.73
642.31	53614.65
642.45	53734.02
642.60	53345.49
642.75	53577.20
642.90	53649.76
643.04	53736.36
643.19	53425.07
643.34	53523.37
643.48	53565.50
643.63	53729.34
643.78	53563.16
643.93	53743.38
644.07	53729.34
644.22	53535.07
644.37	53633.38
644.51	53546.78
644.66	53511.67
644.81	53413.37
644.95	53148.88
645.10	53200.38
645.25	53439.11
645.39	53165.27
645.54	53371.24
645.69	53312.72
645.83	53298.68
645.98	53581.88
646.13	53492.94
646.27	53076.33
646.42	53235.48
646.57	53263.57
646.71	53366.55
646.86	53195.70
647.00	53282.30
647.15	53073.99
647.30	52917.17
647.44	52563.75
647.59	53041.22
647.74	53071.65
647.88	52570.77
648.03	52966.32
648.17	53095.05
648.32	53230.80
648.47	52797.80
648.61	52734.61
648.76	52963.98
648.90	52889.09
649.05	52708.86
649.20	52589.50
649.34	52928.87
649.49	52474.81
649.63	52533.32
649.78	52449.06
649.92	52608.22
650.07	52898.45
650.21	52488.85
650.36	52758.02
650.51	52397.57
650.65	53010.79
650.80	52839.93
650.94	52463.11
651.09	52673.76
651.23	52612.90
651.38	52669.08
651.52	52212.67
651.67	52435.02
651.81	52299.27
651.96	52388.21
652.10	52303.95
652.25	52348.42
652.39	52832.91
652.54	52395.23
652.68	52493.54
652.83	52271.18
652.97	52577.79
653.12	52332.04
653.26	52381.19
653.41	52629.29
653.55	52013.73
653.70	52100.32
653.84	52156.50
653.99	52020.75
654.13	52231.40
654.27	51655.62
654.42	51924.78
654.56	51854.57
654.71	52088.62
654.85	52112.03
655.00	52076.92
655.14	52105.01
655.29	51629.88
655.43	51803.08
655.57	51452.00
655.72	51395.82
655.86	51391.14
656.01	51423.91
656.15	51391.14
656.30	51468.38
656.44	51468.38
656.58	51803.08
656.73	51484.76
656.87	51421.57
657.01	51351.35
657.16	51611.15
657.30	51723.50
657.45	51725.84
657.59	51398.16
657.73	51393.48
657.88	51487.10
658.02	51412.21
658.16	51105.60
658.31	51028.36
658.45	51210.92
658.60	50801.33
658.74	50939.42
658.88	50731.11
659.03	51033.04
659.17	51290.50
659.31	51239.01
659.46	51004.95
659.60	50911.33
659.74	51089.21
659.89	50773.24
660.03	50703.03
660.17	51065.81
660.32	50710.05
660.46	50777.92
660.60	50459.61
660.74	50492.38
660.89	50349.60
661.03	50485.36
661.17	50567.27
661.32	50279.39
661.46	50216.19
661.60	49907.24
661.74	50248.96
661.89	50190.45
662.03	50218.53
662.17	50129.59
662.31	50459.61
662.46	50490.04
662.60	50028.95
662.74	49958.73
662.88	49514.03
663.03	49752.77
663.17	49757.45
663.31	49139.55
663.45	49471.90
663.60	49773.83
663.74	49305.73
663.88	49544.46
664.02	49708.30
664.17	49925.97
664.31	49181.68
664.45	49624.04
664.59	49354.88
664.73	49724.68
664.88	49083.37
665.02	48540.37
665.16	48938.26
665.30	48889.11
665.44	48596.54
665.59	48355.47
665.73	48772.08
665.87	48254.82
666.01	49113.80
666.15	48458.45
666.29	48762.72
666.44	48624.63
666.58	48666.76
666.72	48652.72
666.86	48762.72
667.00	48411.64
667.14	48423.34
667.28	48411.64
667.43	48348.45
667.57	48294.61
667.71	48231.42
667.85	48044.18
667.99	48177.59
668.13	47711.82
668.27	47856.93
668.41	47702.46
668.56	47721.18
668.70	48090.99
668.84	48121.41
668.98	48011.41
669.12	47812.46
669.26	47583.09
669.40	47239.03
669.54	47498.83
669.68	47332.65
669.82	47133.71
669.96	47203.92
670.10	46869.23
670.25	46766.24
670.39	46623.47
670.53	46791.99
670.67	46780.29
670.81	47016.68
670.95	47203.92
671.09	46600.07
671.23	46777.95
671.37	46897.31
671.51	46696.03
671.65	46925.40
671.79	46314.52
671.93	46241.96
672.07	46389.42
672.21	46026.63
672.35	45762.15
672.49	46073.45
672.63	45977.48
672.77	45844.07
672.91	45748.11
673.05	45511.72
673.19	45736.41
673.33	45427.46
673.47	45378.31
673.61	45422.78
673.75	45249.58
673.89	45228.51
674.03	45251.92
674.17	45352.56
674.31	45090.42
674.45	44797.85
674.59	45022.54
674.73	44924.24
674.87	44348.47
675.01	44687.85
675.15	44191.65
675.29	44294.64
675.43	44002.07
675.56	44355.49
675.70	44222.08
675.84	44493.58
675.98	43208.63
676.12	44102.71
676.26	43997.39
676.40	43824.19
676.54	44048.88
676.68	43749.29
676.82	42665.63
676.96	42911.38
677.10	42827.12
677.23	42801.38
677.37	42398.80
677.51	42663.28
677.65	42398.80
677.79	42120.28
677.93	42227.95
678.07	41867.50
678.21	41893.25
678.34	42410.51
678.48	42124.96
678.62	42122.62
678.76	41715.37
678.90	41708.35
679.04	41258.96
679.18	41139.60
679.31	40718.30
679.45	40533.40
679.59	40130.83
679.73	40414.03
679.87	40697.24
680.00	40505.31
680.14	40463.18
680.28	40161.25
680.42	40158.91
680.56	40252.53
680.70	39756.34
680.83	39910.82
680.97	40376.58
681.11	40046.57
681.25	39976.35
681.39	39285.89
681.52	39283.55
681.66	39346.75
681.80	38799.06
681.94	38555.64
682.07	38864.60
682.21	38822.47
682.35	38576.71
682.49	38359.04
682.62	38506.49
682.76	38117.96
682.90	38361.38
683.04	38204.56
683.17	37984.55
683.31	37947.11
683.45	38064.13
683.59	38188.18
683.72	37680.28
683.86	37427.51
684.00	37406.44
684.13	37368.99
684.27	37092.81
684.41	37001.53
684.55	36825.99
684.68	36877.48
684.82	36596.62
684.96	36081.70
685.09	36374.27
685.23	36364.90
685.37	36236.17
685.50	36369.58
685.64	36088.72
685.78	36212.77
685.91	35988.08
686.05	35613.59
686.19	35227.40
686.32	35683.81
686.46	34967.60
686.60	34946.54
686.73	35140.80
686.87	34890.37
687.01	34820.15
687.14	34480.77
687.28	34417.58
687.42	34314.59
687.55	33977.56
687.69	34340.34
687.82	34005.64
687.96	34092.24
688.10	33853.51
688.23	34181.18
688.37	33780.95
688.50	33844.15
688.64	33670.95
688.78	33350.29
688.91	33259.01
689.05	32943.04
689.18	33237.95
689.32	32503.02
689.46	32744.09
689.59	32425.78
689.73	32643.45
689.86	32285.35
690.00	32271.31
690.13	32030.23
690.27	31967.04
690.41	32123.85
690.54	31824.26
690.68	31852.35
690.81	31931.93
690.95	31974.06
691.08	31700.22
691.22	31990.44
691.35	31173.60
691.49	31077.63
691.62	30419.94
691.76	30712.51
691.89	30586.12
692.03	30501.86
692.16	30443.35
692.30	30188.23
692.43	30323.98
692.57	29984.60
692.70	29687.36
692.84	30038.44
692.97	29944.81
693.11	30010.35
693.24	29546.92
693.38	29638.20
693.51	29642.88
693.65	29785.66
693.78	29092.86
693.92	29572.67
694.05	29125.63
694.19	29624.16
694.32	28795.61
694.45	28713.69
694.59	28430.49
694.72	28568.58
694.86	28315.80
694.99	28453.89
695.13	28088.77
695.26	27812.59
695.39	27683.86
695.53	27934.29
695.66	28287.71
695.80	27718.96
695.93	27433.42
696.07	27587.89
696.20	27704.92
696.33	27208.73
696.47	27152.55
696.60	26986.38
696.73	26806.16
696.87	26705.51
697.00	26438.69
697.14	26216.34
697.27	26047.82
697.40	26141.44
697.54	25933.14
697.67	26078.25
697.80	25961.22
697.94	25549.29
698.07	25434.60
698.21	25404.17
698.34	25467.37
698.47	25472.05
698.61	25015.65
698.74	25174.80
698.87	25032.03
699.01	25153.74
699.14	24854.15
699.27	24823.72
699.40	24423.49
699.54	24428.17
699.67	24297.10
699.80	24011.56
699.94	24137.94
700.07	24451.58
700.20	23796.23
700.34	23805.59
700.47	23608.98
700.60	23461.53
700.73	23800.91
700.87	23543.45
701.00	23491.96
701.13	23475.57
701.26	23358.55
701.40	23506.00
701.53	23051.94
701.66	23096.41
701.79	22857.67
701.93	22588.51
702.06	22752.35
702.19	22328.71
702.32	22466.80
702.46	22218.71
702.59	22050.19
702.72	21584.42
702.85	21675.70
702.99	21591.44
703.12	22036.14
703.25	21565.70
703.38	21577.40
703.51	21443.99
703.65	21266.11
703.78	21483.78
703.91	21301.22
704.04	20947.79
704.17	21109.29
704.31	20954.82
704.44	21003.97
704.57	20727.78
704.70	20353.30
704.83	20409.47
704.96	20219.89
705.10	20247.97
705.23	20503.09
>>>>>End Processed Spectral Data<<<<<
