SpectraSuite Data File
++++++++++++++++++++++++++++++++++++
Date: Fri Oct 18 13:55:30 GMT-05:00 2013
User: bianchi
Dark Spectrum Present: No
Reference Spectrum Present: No
Number of Sampled Component Spectra: 1
Spectrometers: USB2+H05261
Integration Time (usec): 100000 (USB2+H05261)
Spectra Averaged: 1 (USB2+H05261)
Boxcar Smoothing: 0 (USB2+H05261)
Correct for Electrical Dark: No (USB2+H05261)
Strobe/Lamp Enabled: No (USB2+H05261)
Correct for Detector Non-linearity: No (USB2+H05261)
Correct for Stray Light: No (USB2+H05261)
Number of Pixels in Processed Spectrum: 2048
>>>>>Begin Processed Spectral Data<<<<<
365.73	0.00
365.92	0.00
366.12	0.00
366.32	0.00
366.52	0.00
366.72	0.00
366.91	0.00
367.11	0.00
367.31	0.00
367.51	0.00
367.70	0.00
367.90	0.00
368.10	0.00
368.30	0.00
368.49	0.00
368.69	0.00
368.89	0.00
369.09	0.00
369.28	0.00
369.48	0.00
369.68	0.00
369.87	0.00
370.07	0.00
370.27	0.00
370.47	51.49
370.66	311.29
370.86	276.18
371.06	313.63
371.25	395.55
371.45	278.52
371.65	358.10
371.84	327.68
372.04	348.74
372.24	390.87
372.44	411.93
372.63	493.85
372.83	461.09
373.03	414.27
373.22	397.89
373.42	435.34
373.62	430.66
373.81	425.98
374.01	472.79
374.21	482.15
374.40	489.17
374.60	507.90
374.79	526.62
374.99	589.82
375.19	512.58
375.38	517.26
375.58	510.24
375.78	507.90
375.97	493.85
376.17	582.79
376.37	505.56
376.56	496.19
376.76	589.82
376.95	559.39
377.15	512.58
377.35	538.32
377.54	547.69
377.74	592.16
377.93	559.39
378.13	500.87
378.33	608.54
378.52	552.37
378.72	596.84
378.91	552.37
379.11	580.45
379.31	507.90
379.50	643.65
379.70	669.39
379.89	566.41
380.09	566.41
380.28	620.24
380.48	664.71
380.68	613.22
380.87	594.50
381.07	650.67
381.26	737.27
381.46	678.76
381.65	643.65
381.85	695.14
382.04	643.65
382.24	627.26
382.43	709.18
382.63	706.84
382.83	697.48
383.02	807.48
383.22	786.42
383.41	713.86
383.61	821.53
383.80	772.38
384.00	800.46
384.19	720.88
384.39	685.78
384.58	739.61
384.78	755.99
384.97	866.00
385.17	849.61
385.36	809.83
385.56	814.51
385.75	748.97
385.95	809.83
386.14	858.98
386.34	844.93
386.53	898.77
386.72	875.36
386.92	835.57
387.11	917.49
387.31	877.70
387.50	924.51
387.70	851.96
387.89	971.32
388.09	837.91
388.28	861.32
388.48	882.38
388.67	971.32
388.86	868.34
389.06	917.49
389.25	997.07
389.45	1039.20
389.64	887.06
389.84	999.41
390.03	1006.43
390.22	968.98
390.42	1041.54
390.61	882.38
390.81	961.96
391.00	1046.22
391.19	1062.60
391.39	964.30
391.58	1022.81
391.78	1086.01
391.97	1020.47
392.16	968.98
392.36	1125.80
392.55	1149.20
392.75	1071.97
392.94	1088.35
393.13	1074.31
393.33	1111.75
393.52	1090.69
393.71	1193.67
393.91	1090.69
394.10	1118.78
394.29	1116.44
394.49	1172.61
394.68	1128.14
394.88	1165.59
395.07	1345.81
395.26	1205.38
395.46	1224.10
395.65	1313.04
395.84	1334.11
396.04	1345.81
396.23	1376.24
396.42	1331.76
396.62	1380.92
396.81	1275.59
397.00	1329.42
397.19	1301.34
397.39	1376.24
397.58	1434.75
397.77	1327.08
397.97	1357.51
398.16	1359.85
398.35	1465.18
398.55	1310.70
398.74	1493.26
398.93	1526.03
399.12	1521.35
399.32	1430.07
399.51	1542.41
399.70	1582.20
399.90	1544.75
400.09	1568.16
400.28	1582.20
400.47	1614.97
400.67	1664.12
400.86	1661.78
401.05	1589.22
401.24	1586.88
401.44	1668.80
401.63	1699.23
401.82	1734.34
402.01	1605.61
402.21	1708.59
402.40	1668.80
402.59	1727.32
402.78	1811.57
402.97	1729.66
403.17	1776.47
403.36	1842.00
403.55	1839.66
403.74	1881.79
403.93	1881.79
404.13	1947.33
404.32	1900.52
404.51	1874.77
404.70	1926.26
404.89	1940.30
405.09	2001.16
405.28	2071.37
405.47	1989.46
405.66	2125.21
405.85	1987.11
406.05	1959.03
406.24	2092.44
406.43	2157.97
406.62	2076.06
406.81	2242.23
407.00	2139.25
407.20	2139.25
407.39	2195.42
407.58	2242.23
407.77	2286.70
407.96	2361.60
408.15	2317.13
408.34	2305.43
408.54	2223.51
408.73	2282.02
408.92	2368.62
409.11	2480.97
409.30	2417.77
409.49	2478.63
409.68	2473.95
409.87	2410.75
410.07	2502.03
410.26	2527.78
410.45	2424.80
410.64	2607.36
410.83	2483.31
411.02	2473.95
411.21	2633.10
411.40	2647.15
411.59	2757.15
411.78	2752.47
411.98	2661.19
412.17	2846.09
412.36	2792.26
412.55	2885.88
412.74	2874.18
412.93	2818.00
413.12	2757.15
413.31	3026.31
413.50	3009.93
413.69	2991.20
413.88	3185.47
414.07	3098.87
414.26	3171.43
414.45	3038.02
414.64	3150.36
414.83	3197.17
415.02	3281.43
415.22	3342.28
415.41	3447.61
415.60	3389.10
415.79	3440.59
415.98	3487.40
416.17	3442.93
416.36	3449.95
416.55	3590.38
416.74	3576.34
416.93	3581.02
417.12	3611.45
417.31	3613.79
417.50	3574.00
417.69	3740.18
417.88	3737.84
418.07	3707.41
418.26	3854.86
418.45	3836.14
418.64	3861.88
418.83	3941.46
419.02	3833.80
419.21	4039.76
419.39	4114.66
419.58	3901.67
419.77	3880.61
419.96	4030.40
420.15	4081.89
420.34	3962.53
420.53	4173.18
420.72	4191.90
420.91	4152.11
421.10	4156.79
421.29	4409.57
421.48	4173.18
421.67	4262.12
421.86	4266.80
422.05	4241.05
422.24	4278.50
422.43	4353.40
422.61	4344.03
422.80	4526.60
422.99	4379.14
423.18	4510.21
423.37	4498.51
423.56	4411.91
423.75	4409.57
423.94	4257.43
424.13	4072.53
424.32	4280.84
424.50	4610.86
424.69	4545.32
424.88	4404.89
425.07	4376.80
425.26	4486.81
425.45	4519.57
425.64	4498.51
425.83	4444.68
426.01	4514.89
426.20	4395.53
426.39	4486.81
426.58	4617.88
426.77	4571.07
426.96	4596.81
427.15	4634.26
427.33	4585.11
427.52	4655.33
427.71	4734.90
427.90	4725.54
428.09	4760.65
428.28	4704.48
428.46	4699.80
428.65	4746.61
428.84	5004.07
429.03	4961.94
429.22	4767.67
429.40	4952.57
429.59	4987.68
429.78	4784.06
429.97	4823.84
430.16	4971.30
430.34	5156.20
430.53	5167.90
430.72	5179.61
430.91	5015.77
431.10	5083.64
431.28	5263.86
431.47	5195.99
431.66	5282.59
431.85	5207.69
432.03	5359.83
432.22	5378.55
432.41	5338.76
432.60	5507.28
432.79	5338.76
432.97	5483.88
433.16	5378.55
433.35	5427.70
433.54	5617.29
433.72	5636.01
433.91	5453.45
434.10	5563.45
434.28	5479.19
434.47	5563.45
434.66	5643.03
434.85	5666.44
435.03	5769.42
435.22	5797.51
435.41	5933.26
435.59	5799.85
435.78	5891.13
435.97	5884.11
436.16	5802.19
436.34	5912.19
436.53	6087.73
436.72	6115.82
436.90	5949.64
437.09	6120.50
437.28	6024.54
437.46	6143.91
437.65	6113.48
437.84	6237.53
438.02	6155.61
438.21	6146.25
438.40	5994.11
438.58	6237.53
438.77	6420.09
438.96	6150.93
439.14	6525.41
439.33	6506.69
439.52	6560.52
439.70	6733.72
439.89	6642.44
440.08	6619.04
440.26	6555.84
440.45	6747.76
440.63	6757.13
440.82	6836.70
441.01	6773.51
441.19	6916.28
441.38	6963.09
441.57	6988.84
441.75	7066.08
441.94	7152.68
442.12	7131.61
442.31	7520.14
442.50	7527.16
442.68	7372.69
442.87	7236.94
443.05	7393.75
443.24	7506.10
443.43	7548.23
443.61	7592.70
443.80	7854.84
443.98	7382.05
444.17	7234.60
444.35	7613.76
444.54	7602.06
444.73	7620.78
444.91	7384.39
445.10	7578.65
445.28	7571.63
445.47	7590.36
445.65	7527.16
445.84	7793.98
446.02	7786.96
446.21	7590.36
446.39	7679.30
446.58	7817.39
446.77	7770.58
446.95	7566.95
447.14	7730.79
447.32	7730.79
447.51	7955.48
447.69	7726.11
447.88	7789.30
448.06	7789.30
448.25	7733.13
448.43	7838.45
448.62	7784.62
448.80	7761.22
448.99	7896.97
449.17	7779.94
449.36	7852.50
449.54	8124.00
449.73	8189.53
449.91	8365.07
450.10	8049.10
450.28	8402.52
450.46	8418.91
450.65	8098.25
450.83	8283.16
451.02	8306.56
451.20	8259.75
451.39	8444.65
451.57	8236.35
451.76	8339.33
451.94	8341.67
452.13	8568.70
452.31	8554.66
452.49	8189.53
452.68	8411.89
452.86	8315.92
453.05	8437.63
453.23	8734.88
453.42	8648.28
453.60	8552.32
453.78	8557.00
453.97	8582.74
454.15	8648.28
454.34	8854.25
454.52	8870.63
454.70	8905.74
454.89	8905.74
455.07	8870.63
455.26	9092.98
455.44	8971.27
455.62	8919.78
455.81	8947.87
455.99	9078.94
456.17	9109.36
456.36	9008.72
456.54	9181.92
456.73	9565.77
456.91	9415.98
457.09	9423.00
457.28	9525.98
457.46	9277.88
457.64	9586.83
457.83	9607.90
458.01	9259.16
458.19	9745.99
458.38	9586.83
458.56	9671.09
458.74	9750.67
458.93	9755.35
459.11	9540.02
459.29	9682.80
459.48	9827.91
459.66	9610.24
459.84	9769.40
460.03	10239.84
460.21	10029.20
460.39	10019.83
460.57	9785.78
460.76	9790.46
460.94	10169.63
461.12	10104.09
461.31	10207.08
461.49	10068.98
461.67	10113.45
461.85	10387.30
462.04	10448.15
462.22	11037.97
462.40	10700.93
462.59	10389.64
462.77	10614.33
462.95	10387.30
463.13	10373.25
463.32	10583.90
463.50	10740.72
463.68	10815.62
463.86	10499.64
464.05	10466.88
464.23	10562.84
464.41	10738.38
464.59	10555.82
464.78	10927.96
464.96	10780.51
465.14	10640.08
465.32	10768.80
465.50	11084.78
465.69	11002.86
465.87	10930.30
466.05	10942.00
466.23	10949.03
466.41	11152.65
466.60	11501.39
466.78	11091.80
466.96	11087.12
467.14	10972.43
467.32	11126.91
467.51	11468.62
467.69	11040.31
467.87	11061.37
468.05	11414.79
468.23	11047.33
468.41	11091.80
468.60	11520.12
468.78	11714.38
468.96	11169.04
469.14	11627.78
469.32	11674.59
469.50	11510.75
469.69	11770.55
469.87	11847.79
470.05	11969.50
470.23	11899.28
470.41	11822.05
470.59	12255.04
470.77	11702.68
470.95	12126.32
471.14	12259.73
471.32	11889.92
471.50	12393.14
471.68	12453.99
471.86	12343.99
472.04	12191.85
472.22	12479.74
472.40	12578.04
472.58	12514.84
472.77	12582.72
472.95	12575.70
473.13	13128.06
473.31	12500.80
473.49	13020.40
473.67	12681.02
473.85	12823.80
474.03	13174.88
474.21	13334.03
474.39	13202.96
474.57	13324.67
474.75	13493.19
474.93	13509.57
475.12	13558.72
475.30	13455.74
475.48	13645.32
475.66	13870.01
475.84	13778.73
476.02	13846.61
476.20	13860.65
476.38	14406.00
476.56	14464.51
476.74	14387.27
476.92	14012.79
477.10	14462.17
477.28	14539.41
477.46	14508.98
477.64	14693.88
477.82	15051.99
478.00	15293.06
478.18	14956.02
478.36	15337.53
478.54	15669.89
478.72	15695.63
478.90	15824.36
479.08	15845.43
479.26	16002.24
479.44	16215.23
479.62	16145.02
479.80	16217.57
479.98	16339.28
480.16	16697.38
480.34	16688.02
480.52	16879.94
480.70	16823.77
480.88	16606.10
481.06	16961.86
481.24	17158.47
481.41	17188.89
481.59	17301.24
481.77	17654.66
481.95	17563.38
482.13	17958.93
482.31	17717.86
482.49	18415.34
482.67	18513.64
482.85	18263.20
483.03	18602.58
483.21	18686.84
483.39	18775.78
483.57	18525.34
483.74	19150.26
483.92	19096.43
484.10	19253.25
484.28	19693.27
484.46	20201.16
484.64	20130.95
484.82	19878.17
485.00	20063.07
485.18	20402.45
485.35	20533.52
485.53	20416.49
485.71	20748.85
485.89	21231.00
486.07	21032.05
486.25	21413.56
486.43	21116.31
486.61	21537.61
486.78	21628.89
486.96	21846.56
487.14	22207.00
487.32	22258.49
487.50	22530.00
487.68	22562.76
487.85	23028.53
488.03	22881.08
488.21	23381.95
488.39	23566.85
488.57	23428.76
488.75	23484.94
488.92	23847.72
489.10	24020.92
489.28	24191.78
489.46	24425.83
489.64	24442.21
489.81	24805.00
489.99	24971.18
490.17	24992.24
490.35	25453.33
490.53	25458.01
490.70	25663.97
490.88	25563.33
491.06	25860.58
491.24	25755.26
491.41	26101.65
491.59	26307.62
491.77	26443.37
491.95	27000.42
492.13	27014.46
492.30	26771.05
492.48	27213.41
492.66	27033.19
492.84	26993.40
493.01	27527.04
493.19	27735.35
493.37	28313.46
493.54	28290.06
493.72	28121.54
493.90	28460.91
494.08	28779.23
494.25	28823.70
494.43	29109.24
494.61	29584.37
494.79	29425.22
494.96	29380.74
495.14	29406.49
495.32	29832.47
495.49	29783.32
495.67	30010.35
495.85	30216.32
496.02	29984.60
496.20	30576.76
496.38	30583.78
496.55	30412.92
496.73	31480.21
496.91	30892.73
497.09	31117.42
497.26	31763.41
497.44	31297.64
497.62	31981.08
497.79	31826.60
497.97	31592.55
498.14	32610.68
498.32	32739.41
498.50	32739.41
498.67	32652.81
498.85	32678.56
499.03	33031.98
499.20	33071.77
499.38	33493.07
499.56	33216.88
499.73	33221.56
499.91	33699.03
500.08	34150.76
500.26	33453.28
500.44	33670.95
500.61	33715.42
500.79	34562.69
500.97	34565.03
501.14	34679.72
501.32	34492.47
501.49	34574.39
501.67	34895.05
501.84	35016.75
502.02	34747.59
502.20	35393.58
502.37	35463.80
502.55	35835.94
502.72	35576.14
502.90	35517.63
503.07	35253.15
503.25	35882.75
503.43	35482.52
503.60	36128.51
503.78	35868.71
503.95	36652.79
504.13	35943.61
504.30	36198.73
504.48	36196.38
504.65	36755.77
504.83	36652.79
505.01	37371.33
505.18	37003.87
505.36	37357.29
505.53	37148.98
505.71	37041.32
505.88	37621.77
506.06	36842.37
506.23	38258.40
506.41	37701.35
506.58	38050.09
506.76	37912.00
506.93	38132.01
507.11	38014.98
507.28	38050.09
507.46	37865.19
507.63	38721.82
507.81	38986.30
507.98	38487.77
508.16	38855.23
508.33	38396.49
508.50	39388.88
508.68	38981.62
508.85	39091.63
509.03	39669.74
509.20	39929.54
509.38	39636.97
509.55	40187.00
509.73	40025.50
509.90	40179.98
510.08	39828.90
510.25	39936.56
510.42	39974.01
510.60	40472.54
510.77	40755.75
510.95	40538.08
511.12	40168.27
511.30	40580.21
511.47	41013.21
511.64	40844.69
511.82	41509.40
511.99	40973.42
512.17	41090.44
512.34	41668.56
512.51	41488.34
512.69	41825.37
512.86	42279.44
513.04	42188.16
513.21	41811.33
513.38	41989.21
513.56	42192.84
513.73	41914.31
513.90	42265.39
514.08	42349.65
514.25	42869.25
514.43	42820.10
514.60	42923.08
514.77	43014.37
514.95	42988.62
515.12	42890.32
515.29	42941.81
515.47	43330.34
515.64	43573.75
515.81	43697.80
515.99	43782.06
516.16	43798.44
516.33	44013.77
516.51	44376.56
516.68	43636.95
516.85	43817.17
517.03	44268.89
517.20	43835.89
517.37	44093.35
517.54	44439.75
517.72	44299.32
517.89	44629.34
518.06	44610.61
518.24	44678.49
518.41	44399.96
518.58	44664.44
518.75	44645.72
518.93	44832.96
519.10	45420.44
519.27	45085.74
519.45	45062.33
519.62	45062.33
519.79	45050.63
519.96	45221.49
520.14	45645.13
520.31	45668.53
520.48	45787.90
520.65	45928.33
520.83	45778.54
521.00	45914.29
521.17	45680.24
521.34	46127.28
521.52	45729.39
521.69	46450.27
521.86	46588.36
522.03	47131.37
522.20	46710.07
522.38	46684.33
522.55	46717.09
522.72	46752.20
522.89	46649.22
523.07	47325.63
523.24	47229.67
523.41	46979.23
523.58	46925.40
523.75	47384.15
523.92	46820.08
524.10	47206.26
524.27	47555.00
524.44	47419.25
524.61	47789.06
524.78	48004.39
524.96	47669.69
525.13	47908.43
525.30	48004.39
525.47	47704.80
525.64	47704.80
525.81	48102.69
525.98	48456.11
526.16	48374.19
526.33	48287.59
526.50	48945.28
526.67	48334.40
526.84	48580.16
527.01	48680.80
527.18	48308.66
527.36	48736.98
527.53	48877.41
527.70	48978.05
527.87	49048.27
528.04	48811.87
528.21	49277.64
528.38	48589.52
528.55	49113.80
528.72	48835.28
528.89	49268.28
529.07	49057.63
529.24	49020.18
529.41	49209.76
529.58	48823.58
529.75	48861.02
529.92	48987.41
530.09	49425.09
530.26	49900.22
530.43	49869.79
530.60	49378.28
530.77	49593.61
530.94	49869.79
531.11	49797.24
531.28	49846.39
531.46	49911.92
531.63	50017.25
531.80	50007.89
531.97	50508.76
532.14	50447.91
532.31	50223.22
532.48	50162.36
532.65	50145.98
532.82	50218.53
532.99	50258.32
533.16	49855.75
533.33	50588.34
533.50	50738.13
533.67	50567.27
533.84	50450.25
534.01	50829.41
534.18	50342.58
534.35	50782.60
534.52	50761.54
534.69	51072.83
534.86	51224.96
535.03	50894.95
535.20	51302.20
535.37	51217.94
535.54	51164.11
535.71	50983.89
535.88	51306.88
536.05	50930.06
536.22	51381.78
536.38	51470.72
536.55	51688.39
536.72	51550.30
536.89	51391.14
537.06	51356.03
537.23	51571.36
537.40	51269.43
537.57	51430.93
537.74	51592.43
537.91	52090.96
538.08	51648.60
538.25	51697.75
538.42	51536.26
538.59	52023.09
538.75	51538.60
538.92	51821.80
539.09	51978.62
539.26	51943.51
539.43	51957.55
539.60	52170.54
539.77	51964.57
539.94	52317.99
540.11	52025.43
540.28	52435.02
540.44	51980.96
540.61	52210.33
540.78	52332.04
540.95	52170.54
541.12	52144.80
541.29	52561.41
541.46	52704.18
541.62	52226.71
541.79	52355.44
541.96	52238.42
542.13	52247.78
542.30	52633.97
542.47	52453.75
542.63	52678.44
542.80	52889.09
542.97	53104.41
543.14	52900.79
543.31	52868.02
543.48	52788.44
543.64	53404.00
543.81	53233.14
543.98	53249.53
544.15	53235.48
544.32	53427.41
544.48	53434.43
544.65	53092.71
544.82	53263.57
544.99	52924.19
545.16	53312.72
545.32	53085.69
545.49	53787.85
545.66	53949.35
545.83	53602.95
546.00	53928.28
546.16	53265.91
546.33	53567.84
546.50	53366.55
546.67	53766.79
546.83	53279.96
547.00	53710.61
547.17	53675.51
547.34	53708.27
547.50	53932.96
547.67	53930.62
547.84	53822.96
548.00	53914.24
548.17	53841.68
548.34	53914.24
548.51	54300.43
548.67	54080.42
548.84	54160.00
549.01	53851.05
549.18	54354.26
549.34	54085.10
549.51	54150.63
549.68	53923.60
549.84	54040.63
550.01	54169.36
550.18	54054.67
550.34	54330.86
550.51	54511.08
550.68	54590.66
550.84	53991.48
551.01	54539.16
551.18	54127.23
551.34	54108.50
551.51	54583.63
551.68	54356.60
551.84	54607.04
552.01	54152.97
552.18	54543.84
552.34	54403.41
552.51	54468.95
552.68	54365.96
552.84	54389.37
553.01	54588.31
553.18	54595.34
553.34	54733.43
553.51	54485.33
553.67	54808.32
553.84	54934.71
554.01	54981.52
554.17	54789.60
554.34	54848.11
554.51	54841.09
554.67	54672.57
554.84	54625.76
555.00	54925.35
555.17	54953.44
555.33	54789.60
555.50	54934.71
555.67	54962.80
555.83	55091.53
556.00	54883.22
556.16	55217.92
556.33	54841.09
556.50	55028.34
556.66	54887.90
556.83	55049.40
556.99	55374.73
557.16	55566.66
557.32	55189.83
557.49	55206.22
557.65	54880.88
557.82	54927.69
557.98	55126.64
558.15	55444.95
558.32	55292.82
558.48	55175.79
558.65	55543.25
558.81	55229.62
558.98	55526.87
559.14	55121.96
559.31	55215.58
559.47	55182.81
559.64	55480.06
559.80	55323.24
559.97	55508.14
560.13	55400.48
560.30	55458.99
560.46	55629.85
560.63	55444.95
560.79	55643.90
560.96	55655.60
561.12	55285.79
561.29	55515.17
561.45	55379.42
561.61	55774.97
561.78	55580.70
561.94	55686.03
562.11	55739.86
562.27	55608.79
562.44	55449.63
562.60	55393.46
562.77	55772.63
562.93	55435.59
563.10	55767.94
563.26	55561.98
563.42	55854.54
563.59	55756.24
563.75	55615.81
563.92	55711.77
564.08	55791.35
564.24	55756.24
564.41	55470.70
564.57	55695.39
564.74	55784.33
564.90	55866.25
565.07	55835.82
565.23	55777.31
565.39	55784.33
565.56	55723.47
565.72	55660.28
565.88	55772.63
566.05	55896.67
566.21	55714.11
566.38	55742.20
566.54	55889.65
566.70	55866.25
566.87	55924.76
567.03	55765.60
567.19	55791.35
567.36	55955.19
567.52	55873.27
567.68	55854.54
567.85	55803.05
568.01	55812.41
568.17	55920.08
568.34	56198.60
568.50	56083.92
568.66	55985.61
568.83	56090.94
568.99	56090.94
569.15	55840.50
569.32	55990.30
569.48	55849.86
569.64	55994.98
569.81	55894.33
569.97	56044.13
570.13	55929.44
570.30	55730.50
570.46	55906.04
570.62	56282.86
570.78	56081.58
570.95	55973.91
571.11	55978.59
571.27	55639.22
571.43	56023.06
571.60	56044.13
571.76	56076.90
571.92	56280.52
572.09	56252.44
572.25	56065.19
572.41	56142.43
572.57	56229.03
572.74	56184.56
572.90	55966.89
573.06	55838.16
573.22	55880.29
573.38	56104.98
573.55	56212.65
573.71	56467.76
573.87	56362.44
574.03	56062.85
574.20	56177.54
574.36	56112.00
574.52	56329.67
574.68	56107.32
574.84	56016.04
575.01	56062.85
575.17	56119.02
575.33	56104.98
575.49	56224.35
575.65	56332.01
575.82	56430.32
575.98	56179.88
576.14	56207.97
576.30	56161.15
576.46	55973.91
576.62	55983.27
576.79	56133.07
576.95	56104.98
577.11	56329.67
577.27	56219.67
577.43	56219.67
577.59	55917.74
577.75	56268.82
577.92	56172.86
578.08	55828.80
578.24	56072.21
578.40	56034.77
578.56	56217.33
578.72	56355.42
578.88	56289.88
579.04	56292.22
579.21	56107.32
579.37	56191.58
579.53	56341.38
579.69	56142.43
579.85	56002.00
580.01	56100.30
580.17	56385.85
580.33	56226.69
580.49	56214.99
580.65	56388.19
580.82	56409.25
580.98	56425.64
581.14	56112.00
581.30	56474.79
581.46	56095.62
581.62	56200.94
581.78	55957.53
581.94	56470.11
582.10	56133.07
582.26	56261.80
582.42	56364.78
582.58	56364.78
582.74	56427.98
582.90	56257.12
583.06	56563.73
583.22	56254.78
583.38	56083.92
583.54	56184.56
583.70	56088.60
583.86	56254.78
584.02	56140.09
584.18	56505.21
584.34	56465.42
584.50	56413.93
584.66	56339.04
584.82	56067.53
584.98	56226.69
585.14	56374.14
585.30	56250.09
585.46	56402.23
585.62	56121.37
585.78	56320.31
585.94	56222.01
586.10	56381.16
586.26	56254.78
586.42	56437.34
586.58	56488.83
586.74	56360.10
586.90	56233.71
587.06	56236.05
587.22	56140.09
587.38	56032.42
587.54	56397.55
587.70	56535.64
587.86	56636.28
588.02	56514.58
588.18	56671.39
588.34	56460.74
588.49	56589.47
588.65	56369.46
588.81	56336.69
588.97	56317.97
589.13	56336.69
589.29	56446.70
589.45	56362.44
589.61	56657.35
589.77	56816.50
589.93	56673.73
590.08	56765.01
590.24	56500.53
590.40	56741.61
590.56	56605.86
590.72	56647.99
590.88	56275.84
591.04	56512.23
591.20	56516.92
591.35	56701.82
591.51	56858.63
591.67	56697.14
591.83	56832.89
591.99	56671.39
592.15	56652.67
592.31	56507.55
592.46	56463.08
592.62	56285.20
592.78	56418.61
592.94	56484.15
593.10	56385.85
593.26	56765.01
593.41	57043.54
593.57	56598.83
593.73	56748.63
593.89	56631.60
594.05	56481.81
594.20	56509.89
594.36	56584.79
594.52	56334.35
594.68	56390.53
594.84	56392.87
594.99	56690.12
595.15	56498.19
595.31	56718.20
595.47	56762.67
595.62	56800.12
595.78	56662.03
595.94	56530.96
596.10	56690.12
596.25	56610.54
596.41	56537.98
596.57	56399.89
596.73	56357.76
596.88	56474.79
597.04	56755.65
597.20	56610.54
597.36	56598.83
597.51	56718.20
597.67	56718.20
597.83	56584.79
597.99	56830.55
598.14	56378.82
598.30	56413.93
598.46	56617.56
598.61	56828.21
598.77	56353.08
598.93	56509.89
599.09	56652.67
599.24	56879.70
599.40	56772.03
599.56	56692.46
599.71	56849.27
599.87	56753.31
600.03	56748.63
600.18	56701.82
600.34	56626.92
600.50	56680.75
600.65	56460.74
600.81	56718.20
600.97	57050.56
601.12	56580.11
601.28	56818.84
601.44	56816.50
601.59	56729.90
601.75	56669.05
601.91	56830.55
602.06	56718.20
602.22	56697.14
602.37	56750.97
602.53	56432.66
602.69	56636.28
602.84	56486.49
603.00	56783.74
603.16	56765.01
603.31	56804.80
603.47	56772.03
603.62	56453.72
603.78	56460.74
603.94	56500.53
604.09	56612.88
604.25	56626.92
604.40	56582.45
604.56	56802.46
604.71	56657.35
604.87	56722.88
605.03	56685.43
605.18	56650.33
605.34	56615.22
605.49	56392.87
605.65	56500.53
605.80	56409.25
605.96	56442.02
606.12	56402.23
606.27	56507.55
606.43	56275.84
606.58	56671.39
606.74	56371.80
606.89	56334.35
607.05	56514.58
607.20	56477.13
607.36	56456.06
607.51	56465.42
607.67	56247.75
607.82	56411.59
607.98	56189.24
608.13	56367.12
608.29	56327.33
608.44	56479.47
608.60	56540.32
608.75	56416.27
608.91	56545.00
609.06	56376.48
609.22	56268.82
609.37	56100.30
609.53	56348.40
609.68	56179.88
609.84	56165.84
609.99	56259.46
610.15	56432.66
610.30	56477.13
610.46	56287.54
610.61	56341.38
610.76	56367.12
610.92	56348.40
611.07	56231.37
611.23	56348.40
611.38	56184.56
611.54	56156.47
611.69	56149.45
611.84	55868.59
612.00	56079.24
612.15	56067.53
612.31	56280.52
612.46	56051.15
612.62	56369.46
612.77	56151.79
612.92	56470.11
613.08	56175.20
613.23	56123.71
613.39	55987.95
613.54	56301.59
613.69	56004.34
613.85	55777.31
614.00	55952.85
614.15	56086.26
614.31	56027.74
614.46	56044.13
614.62	56109.66
614.77	56268.82
614.92	56266.48
615.08	55952.85
615.23	55903.70
615.38	56034.77
615.54	55653.26
615.69	55800.71
615.84	55517.51
616.00	55828.80
616.15	55739.86
616.30	55915.40
616.46	55753.90
616.61	55723.47
616.76	55980.93
616.92	55779.65
617.07	55760.92
617.22	55812.41
617.37	55510.49
617.53	55604.11
617.68	55566.66
617.83	55655.60
617.99	55590.06
618.14	55466.02
618.29	55599.43
618.45	55419.20
618.60	55461.33
618.75	55512.83
618.90	55496.44
619.06	55564.32
619.21	55313.88
619.36	55515.17
619.51	55257.71
619.67	55238.98
619.82	55058.76
619.97	55084.51
620.12	55288.13
620.28	55372.39
620.43	55360.69
620.58	55461.33
620.73	55374.73
620.89	55580.70
621.04	55606.45
621.19	55337.29
621.34	55227.28
621.49	54951.10
621.65	55442.61
621.80	55152.38
621.95	54976.84
622.10	55363.03
622.25	55447.29
622.41	55224.94
622.56	55063.44
622.71	55154.72
622.86	55157.06
623.01	55175.79
623.16	55086.85
623.32	54969.82
623.47	55143.02
623.62	54892.58
623.77	54887.90
623.92	55281.11
624.07	54862.16
624.23	54887.90
624.38	55250.69
624.53	54738.11
624.68	55007.27
624.83	55124.30
624.98	54843.43
625.13	54897.27
625.29	54915.99
625.44	54859.82
625.59	54834.07
625.74	54639.81
625.89	54527.46
626.04	54520.44
626.19	54583.63
626.34	54745.13
626.49	54597.68
626.65	54588.31
626.80	54607.04
626.95	54450.22
627.10	54560.23
627.25	54480.65
627.40	54480.65
627.55	54499.37
627.70	54274.68
627.85	54490.01
628.00	54295.75
628.15	54246.60
628.30	54143.61
628.45	54436.18
628.60	54328.52
628.76	54464.27
628.91	54480.65
629.06	54171.70
629.21	54499.37
629.36	54017.22
629.51	54108.50
629.66	54216.17
629.81	53909.56
629.96	53862.75
630.11	53900.20
630.26	54141.27
630.41	53923.60
630.56	54038.29
630.71	54178.72
630.86	54047.65
631.01	53897.86
631.16	53982.12
631.31	53834.66
631.46	54033.61
631.61	53951.69
631.76	53930.62
631.91	53715.29
632.06	53907.22
632.21	53492.94
632.36	53645.08
632.51	53450.81
632.66	53736.36
632.81	53523.37
632.96	53837.00
633.10	53900.20
633.25	53982.12
633.40	53778.49
633.55	53504.65
633.70	53415.71
633.85	53602.95
634.00	53668.48
634.15	53387.62
634.30	53118.46
634.45	53450.81
634.60	53464.86
634.75	53932.96
634.90	53338.47
635.05	53530.39
635.19	53240.17
635.34	53638.06
635.49	53137.18
635.64	53509.33
635.79	53638.06
635.94	53289.32
636.09	53336.13
636.24	53158.25
636.39	52947.60
636.53	53160.59
636.68	53504.65
636.83	53326.77
636.98	53310.38
637.13	53045.90
637.28	53282.30
637.43	53130.16
637.57	53256.55
637.72	52903.13
637.87	53193.36
638.02	53045.90
638.17	52886.74
638.32	52952.28
638.46	52622.26
638.61	52938.24
638.76	52748.65
638.91	52680.78
639.06	52739.29
639.20	52692.48
639.35	52762.70
639.50	52640.99
639.65	53029.52
639.80	53071.65
639.94	52612.90
640.09	52652.69
640.24	52832.91
640.39	52776.74
640.54	52226.71
640.68	52442.04
640.83	52451.41
640.98	52233.74
641.13	51915.42
641.27	52350.76
641.42	52285.23
641.57	52425.66
641.72	52617.58
641.86	52222.03
642.01	52294.59
642.16	52374.17
642.31	51831.16
642.45	52409.28
642.60	52182.24
642.75	52112.03
642.90	51934.15
643.04	51943.51
643.19	52140.11
643.34	52252.46
643.48	51997.34
643.63	52147.14
643.78	52030.11
643.93	52350.76
644.07	52149.48
644.22	52245.44
644.37	51973.94
644.51	52168.20
644.66	52112.03
644.81	52172.88
644.95	51828.82
645.10	51662.64
645.25	51992.66
645.39	51814.78
645.54	52072.24
645.69	51807.76
645.83	52062.88
645.98	51826.48
646.13	52109.69
646.27	52044.15
646.42	51597.11
646.57	51859.25
646.71	51323.27
646.86	51863.93
647.00	51662.64
647.15	51573.70
647.30	51337.31
647.44	51339.65
647.59	51311.56
647.74	51620.52
647.88	51365.40
648.03	51915.42
648.17	51700.09
648.32	51716.48
648.47	51805.42
648.61	51437.95
648.76	51388.80
648.90	51187.52
649.05	51332.63
649.20	51416.89
649.34	51091.55
649.49	50904.31
649.63	51103.26
649.78	51206.24
649.92	51250.71
650.07	51599.45
650.21	50906.65
650.36	51297.52
650.51	50817.71
650.65	51632.22
650.80	50983.89
650.94	51339.65
651.09	51098.58
651.23	51161.77
651.38	50878.57
651.52	50724.09
651.67	50773.24
651.81	51110.28
651.96	50791.97
652.10	50733.45
652.25	51126.66
652.39	50616.43
652.54	50866.86
652.68	50862.18
652.83	50880.91
652.97	51257.73
653.12	50761.54
653.26	50688.98
653.41	50965.17
653.55	50529.83
653.70	50550.89
653.84	50703.03
653.99	50450.25
654.13	50382.37
654.27	50511.10
654.42	50506.42
654.56	50155.34
654.71	50494.72
654.85	50651.53
655.00	50312.16
655.14	50480.67
655.29	50307.47
655.43	50347.26
655.57	50452.59
655.72	50000.86
655.86	49954.05
656.01	49998.52
656.15	49743.41
656.30	49921.29
656.44	50054.70
656.58	49790.22
656.73	49949.37
656.87	49680.21
657.01	49752.77
657.16	50220.87
657.30	50038.31
657.45	50000.86
657.59	50047.68
657.73	49602.97
657.88	49642.76
658.02	49897.88
658.16	49640.42
658.31	49638.08
658.45	49876.82
658.60	49537.44
658.74	49422.75
658.88	49542.12
659.03	49427.43
659.17	49471.90
659.31	49860.43
659.46	49364.24
659.60	49797.24
659.74	49535.10
659.89	49275.30
660.03	49319.77
660.17	49118.48
660.32	49317.43
660.46	49038.90
660.60	49055.29
660.74	48685.48
660.89	48804.85
661.03	48823.58
661.17	48985.07
661.32	48362.49
661.46	48734.63
661.60	48500.58
661.74	48779.10
661.89	48961.67
662.03	48418.66
662.17	48318.02
662.31	48610.59
662.46	48772.08
662.60	48154.18
662.74	47983.32
662.88	48144.82
663.03	48271.21
663.17	47849.91
663.31	47494.15
663.45	47171.16
663.60	47875.66
663.74	47524.58
663.88	47695.44
664.02	47866.30
664.17	48266.53
664.31	47665.01
664.45	47463.72
664.59	47737.57
664.73	47632.24
664.88	47484.79
665.02	46965.19
665.16	47159.45
665.30	46972.21
665.44	46965.19
665.59	46878.59
665.73	46944.12
665.87	46777.95
666.01	47112.64
666.15	46955.83
666.29	46965.19
666.44	46911.36
666.58	46735.82
666.72	46768.58
666.86	46768.58
667.00	46349.63
667.14	46635.17
667.28	46686.67
667.43	46302.82
667.57	46384.74
667.71	46146.00
667.85	46169.41
667.99	46181.11
668.13	46010.25
668.27	46045.36
668.41	46307.50
668.56	45794.92
668.70	46134.30
668.84	45886.20
668.98	45656.83
669.12	45518.74
669.26	45883.86
669.40	45684.92
669.54	45525.76
669.68	45102.12
669.82	45088.08
669.96	45228.51
670.10	44914.88
670.25	45539.80
670.39	44626.99
670.53	44741.68
670.67	44945.31
670.81	45188.72
670.95	45038.93
671.09	44650.40
671.23	44804.88
671.37	44978.07
671.51	44638.70
671.65	44779.13
671.79	44016.11
671.93	44472.52
672.07	44318.04
672.21	44435.07
672.35	44161.23
672.49	43936.54
672.63	43861.64
672.77	43667.37
672.91	43873.34
673.05	43871.00
673.19	43828.87
673.33	43646.31
673.47	43688.44
673.61	43606.52
673.75	43711.84
673.89	43772.70
674.03	43302.25
674.17	42965.21
674.31	43349.06
674.45	42990.96
674.59	42995.64
674.73	42450.30
674.87	42684.35
675.01	42485.40
675.15	42546.26
675.29	42539.24
675.43	41926.02
675.56	42394.12
675.70	42295.82
675.84	42504.13
675.98	41170.02
676.12	42096.88
676.26	42298.16
676.40	42047.72
676.54	41918.99
676.68	41801.97
676.82	40760.43
676.96	40926.61
677.10	40912.56
677.23	40950.01
677.37	40800.22
677.51	40662.13
677.65	40222.11
677.79	40472.54
677.93	40294.66
678.07	40275.94
678.21	40285.30
678.34	40119.12
678.48	40395.31
678.62	40229.13
678.76	39826.56
678.90	39934.22
679.04	39529.31
679.18	39962.31
679.31	39040.14
679.45	38880.98
679.59	38841.19
679.73	39014.39
679.87	38630.54
680.00	38796.72
680.14	38302.87
680.28	38473.73
680.42	38431.60
680.56	38656.29
680.70	38298.19
680.83	38639.90
680.97	38377.76
681.11	38281.80
681.25	38242.01
681.39	38192.86
681.52	38190.52
681.66	37511.77
681.80	37411.12
681.94	37083.45
682.07	37497.72
682.21	37057.70
682.35	37003.87
682.49	37198.13
682.62	36730.03
682.76	36699.60
682.90	36217.45
683.04	36620.02
683.17	36690.24
683.31	36039.57
683.45	36755.77
683.59	36062.97
683.72	36177.66
683.86	35929.56
684.00	35571.46
684.13	35669.76
684.27	35346.77
684.41	35138.46
684.55	34771.00
684.68	34979.31
684.82	34983.99
684.96	34808.45
685.09	34616.52
685.23	34508.86
685.37	34410.56
685.50	34974.63
685.64	34712.49
685.78	34391.83
685.91	34738.23
686.05	34359.06
686.19	33902.66
686.32	33883.94
686.46	33628.82
686.60	33109.22
686.73	33364.34
686.87	33242.63
687.01	33106.88
687.14	32954.74
687.28	32828.35
687.42	32767.50
687.55	32547.49
687.69	32971.13
687.82	32030.23
687.96	32573.24
688.10	32643.45
688.23	32217.47
688.37	32453.87
688.50	32343.86
688.64	31899.16
688.78	31936.61
688.91	31307.01
689.05	31449.78
689.18	31007.42
689.32	30930.18
689.46	30969.97
689.59	31204.02
689.73	31187.64
689.86	30768.68
690.00	30813.15
690.13	30670.38
690.27	30314.62
690.41	30611.87
690.54	30373.13
690.68	30492.50
690.81	30377.81
690.95	30185.89
691.08	30153.12
691.22	30188.23
691.35	29958.86
691.49	29525.86
691.62	29216.91
691.76	29167.76
691.89	29345.64
692.03	28821.36
692.16	29008.60
692.30	28917.32
692.43	29029.66
692.57	28922.00
692.70	28570.92
692.84	28552.20
692.97	28622.41
693.11	28414.10
693.24	28355.59
693.38	28517.09
693.51	28446.87
693.65	28130.90
693.78	27953.02
693.92	28137.92
694.05	27859.40
694.19	28023.23
694.32	27395.97
694.45	27199.37
694.59	27140.85
694.72	27278.94
694.86	26958.29
694.99	26375.50
695.13	26703.17
695.26	26696.15
695.39	26501.89
695.53	26686.79
695.66	26480.82
695.80	26815.52
695.93	26225.70
696.07	26239.75
696.20	26024.42
696.33	26333.37
696.47	25785.68
696.60	25649.93
696.73	25635.89
696.87	25453.33
697.00	25376.09
697.14	25336.30
697.27	24980.54
697.40	24795.64
697.54	24929.05
697.67	24512.43
697.80	24814.36
697.94	24301.78
698.07	24329.87
698.21	24393.06
698.34	24194.12
698.47	24444.56
698.61	23887.51
698.74	24060.71
698.87	24142.63
699.01	24053.69
699.14	23594.94
699.27	24126.24
699.40	23828.99
699.54	23110.45
699.67	23075.34
699.80	23051.94
699.94	22895.12
700.07	23061.30
700.20	22768.73
700.34	22649.36
700.47	22558.08
700.60	22326.37
700.73	23002.78
700.87	22581.49
701.00	22553.40
701.13	22625.96
701.26	21872.31
701.40	22036.14
701.53	21933.16
701.66	21963.59
701.79	21792.73
701.93	21710.81
702.06	21502.50
702.19	21319.94
702.32	21355.05
702.46	20905.66
702.59	20889.28
702.72	20933.75
702.85	20856.51
702.99	20875.24
703.12	20592.03
703.25	20720.76
703.38	20690.34
703.51	20641.18
703.65	20367.34
703.78	20409.47
703.91	19990.52
704.04	20053.71
704.17	20226.91
704.31	19789.23
704.44	20030.30
704.57	19957.75
704.70	19440.49
704.83	19374.95
704.96	19365.59
705.10	19309.42
705.23	19049.62
>>>>>End Processed Spectral Data<<<<<
