SpectraSuite Data File
++++++++++++++++++++++++++++++++++++
Date: Fri Oct 18 13:54:31 GMT-05:00 2013
User: bianchi
Dark Spectrum Present: No
Reference Spectrum Present: No
Number of Sampled Component Spectra: 1
Spectrometers: USB2+H05261
Integration Time (usec): 100000 (USB2+H05261)
Spectra Averaged: 1 (USB2+H05261)
Boxcar Smoothing: 0 (USB2+H05261)
Correct for Electrical Dark: No (USB2+H05261)
Strobe/Lamp Enabled: No (USB2+H05261)
Correct for Detector Non-linearity: No (USB2+H05261)
Correct for Stray Light: No (USB2+H05261)
Number of Pixels in Processed Spectrum: 2048
>>>>>Begin Processed Spectral Data<<<<<
365.73	0.00
365.92	0.00
366.12	0.00
366.32	0.00
366.52	0.00
366.72	0.00
366.91	0.00
367.11	0.00
367.31	0.00
367.51	0.00
367.70	0.00
367.90	0.00
368.10	0.00
368.30	0.00
368.49	0.00
368.69	0.00
368.89	0.00
369.09	0.00
369.28	0.00
369.48	0.00
369.68	0.00
369.87	0.00
370.07	0.00
370.27	0.00
370.47	0.00
370.66	315.97
370.86	301.93
371.06	402.57
371.25	369.80
371.45	322.99
371.65	409.59
371.84	344.06
372.04	395.55
372.24	360.44
372.44	362.78
372.63	393.21
372.83	437.68
373.03	423.64
373.22	414.27
373.42	365.12
373.62	414.27
373.81	372.15
374.01	493.85
374.21	386.19
374.40	454.06
374.60	428.32
374.79	449.38
374.99	535.98
375.19	477.47
375.38	533.64
375.58	517.26
375.78	540.66
375.97	587.47
376.17	660.03
376.37	514.92
376.56	505.56
376.76	552.37
376.95	535.98
377.15	547.69
377.35	573.43
377.54	547.69
377.74	538.32
377.93	526.62
378.13	550.03
378.33	538.32
378.52	540.66
378.72	519.60
378.91	615.56
379.11	585.13
379.31	634.29
379.50	561.73
379.70	706.84
379.89	669.39
380.09	599.18
380.28	543.00
380.48	524.28
380.68	641.31
380.87	601.52
381.07	587.47
381.26	688.12
381.46	629.60
381.65	653.01
381.85	678.76
382.04	664.71
382.24	751.31
382.43	671.73
382.63	685.78
382.83	725.57
383.02	657.69
383.22	723.23
383.41	716.20
383.61	788.76
383.80	809.83
384.00	737.27
384.19	667.05
384.39	788.76
384.58	788.76
384.78	840.25
384.97	751.31
385.17	748.97
385.36	760.67
385.56	819.19
385.75	786.42
385.95	812.17
386.14	868.34
386.34	912.81
386.53	807.48
386.72	882.38
386.92	894.08
387.11	854.30
387.31	896.43
387.50	781.74
387.70	877.70
387.89	847.27
388.09	826.21
388.28	873.02
388.48	868.34
388.67	1011.11
388.86	891.74
389.06	954.94
389.25	961.96
389.45	901.11
389.64	999.41
389.84	1055.58
390.03	1004.09
390.22	933.87
390.42	1041.54
390.61	964.30
390.81	1050.90
391.00	957.28
391.19	1025.15
391.39	1032.18
391.58	1015.79
391.78	1114.10
391.97	1086.01
392.16	1046.22
392.36	1069.62
392.55	1095.37
392.75	1053.24
392.94	1121.12
393.13	1219.42
393.33	1123.46
393.52	1174.95
393.71	1193.67
393.91	1224.10
394.10	1205.38
394.29	1149.20
394.49	1212.40
394.68	1212.40
394.88	1268.57
395.07	1289.64
395.26	1228.78
395.46	1235.80
395.65	1294.32
395.84	1310.70
396.04	1338.79
396.23	1289.64
396.42	1270.91
396.62	1249.85
396.81	1221.76
397.00	1282.61
397.19	1474.54
397.39	1411.34
397.58	1317.72
397.77	1352.83
397.97	1383.26
398.16	1343.47
398.35	1490.92
398.55	1406.66
398.74	1537.73
398.93	1540.07
399.12	1458.15
399.32	1488.58
399.51	1533.05
399.70	1617.31
399.90	1537.73
400.09	1629.01
400.28	1607.95
400.47	1661.78
400.67	1650.08
400.86	1706.25
401.05	1544.75
401.24	1657.10
401.44	1739.02
401.63	1769.44
401.82	1682.85
402.01	1685.19
402.21	1713.27
402.40	1668.80
402.59	1762.42
402.78	1694.55
402.97	1734.34
403.17	1844.34
403.36	1839.66
403.55	1837.32
403.74	1947.33
403.93	1909.88
404.13	1846.68
404.32	1879.45
404.51	1944.99
404.70	2010.52
404.89	1867.75
405.09	2073.71
405.28	2017.54
405.47	2012.86
405.66	2022.22
405.85	2090.10
406.05	2054.99
406.24	2160.31
406.43	2190.74
406.62	2202.44
406.81	2340.54
407.00	2132.23
407.20	2076.06
407.39	2242.23
407.58	2267.98
407.77	2375.64
407.96	2335.85
408.15	2401.39
408.34	2298.41
408.54	2380.32
408.73	2303.09
408.92	2385.01
409.11	2476.29
409.30	2417.77
409.49	2424.80
409.68	2532.46
409.87	2518.42
410.07	2506.71
410.26	2544.16
410.45	2612.04
410.64	2637.78
410.83	2672.89
411.02	2647.15
411.21	2729.06
411.40	2642.46
411.59	2808.64
411.78	2815.66
411.98	2825.03
412.17	2862.48
412.36	2818.00
412.55	2913.97
412.74	3023.97
412.93	2981.84
413.12	2951.42
413.31	3145.68
413.50	3084.83
413.69	3016.95
413.88	3220.58
414.07	3145.68
414.26	3187.81
414.45	3253.34
414.64	3276.75
414.83	3328.24
415.02	3272.07
415.22	3372.71
415.41	3506.12
415.60	3297.81
415.79	3585.70
415.98	3566.98
416.17	3463.99
416.36	3541.23
416.55	3590.38
416.74	3672.30
416.93	3686.34
417.12	3763.58
417.31	3733.15
417.50	3702.73
417.69	3810.39
417.88	3932.10
418.07	3906.35
418.26	3880.61
418.45	3936.78
418.64	4152.11
418.83	3953.16
419.02	4018.70
419.21	4002.32
419.39	4088.92
419.58	3843.16
419.77	4009.34
419.96	4091.26
420.15	4077.21
420.34	4102.96
420.53	4250.41
420.72	4262.12
420.91	4278.50
421.10	4306.59
421.29	4344.03
421.48	4372.12
421.67	4252.75
421.86	4315.95
422.05	4334.67
422.24	4540.64
422.43	4486.81
422.61	4400.21
422.80	4404.89
422.99	4482.13
423.18	4381.48
423.37	4788.74
423.56	4496.17
423.75	4442.34
423.94	4360.42
424.13	4149.77
424.32	4292.54
424.50	4610.86
424.69	4575.75
424.88	4636.60
425.07	4608.51
425.26	4484.47
425.45	4486.81
425.64	4484.47
425.83	4557.02
426.01	4706.82
426.20	4531.28
426.39	4645.96
426.58	4500.85
426.77	4603.83
426.96	4802.78
427.15	4704.48
427.33	4784.06
427.52	4695.11
427.71	4854.27
427.90	4891.72
428.09	4854.27
428.28	4891.72
428.46	5013.43
428.65	4884.70
428.84	5062.58
429.03	5212.37
429.22	4847.25
429.40	5046.20
429.59	5046.20
429.78	4657.67
429.97	4753.63
430.16	4868.31
430.34	5046.20
430.53	5343.44
430.72	5060.24
430.91	5076.62
431.10	5198.33
431.28	5284.93
431.47	5533.03
431.66	5355.15
431.85	5341.10
432.03	5483.88
432.22	5650.05
432.41	5343.44
432.60	5481.53
432.79	5530.69
432.97	5593.88
433.16	5598.56
433.35	5521.32
433.54	5699.20
433.72	5692.18
433.91	5533.03
434.10	5722.61
434.28	5621.97
434.47	5764.74
434.66	5872.40
434.85	5778.78
435.03	5879.43
435.22	5689.84
435.41	6057.31
435.59	5916.87
435.78	6040.92
435.97	5961.34
436.16	5844.32
436.34	5781.12
436.53	5832.62
436.72	6092.41
436.90	6050.28
437.09	6200.08
437.28	6094.76
437.46	6235.19
437.65	6211.78
437.84	6396.68
438.02	6312.42
438.21	6202.42
438.40	6282.00
438.58	6525.41
438.77	6441.15
438.96	6525.41
439.14	6569.88
439.33	6621.38
439.52	6754.79
439.70	6597.97
439.89	6682.23
440.08	6715.00
440.26	6803.94
440.45	6909.26
440.63	6909.26
440.82	7037.99
441.01	7000.54
441.19	7126.93
441.38	7054.37
441.57	7309.49
441.75	7339.92
441.94	7419.50
442.12	7330.56
442.31	7583.34
442.50	7531.84
442.68	7595.04
442.87	7492.05
443.05	7503.76
443.24	7548.23
443.43	7632.49
443.61	7754.19
443.80	7896.97
443.98	7485.03
444.17	7281.41
444.35	7740.15
444.54	7850.16
444.73	7648.87
444.91	7637.17
445.10	7730.79
445.28	7651.21
445.47	7627.81
445.65	7754.19
445.84	7754.19
446.02	7782.28
446.21	7749.51
446.39	7852.50
446.58	7946.12
446.77	8002.29
446.95	7915.69
447.14	7990.59
447.32	7960.16
447.51	7793.98
447.69	7936.76
447.88	7911.01
448.06	7955.48
448.25	7859.52
448.43	8037.40
448.62	7833.77
448.80	7911.01
448.99	7892.29
449.17	8177.83
449.36	8119.32
449.54	8203.58
449.73	8383.80
449.91	8301.88
450.10	8262.09
450.28	8578.06
450.46	8290.18
450.65	8390.82
450.83	8552.32
451.02	8463.38
451.20	8542.96
451.39	8634.24
451.57	8203.58
451.76	8404.86
451.94	8617.85
452.13	8854.25
452.31	8798.07
452.49	8531.25
452.68	8802.75
452.86	8716.16
453.05	8828.50
453.23	8716.16
453.42	8837.86
453.60	8601.47
453.78	8617.85
453.97	8849.57
454.15	8753.60
454.34	8861.27
454.52	8980.64
454.70	8966.59
454.89	9043.83
455.07	9132.77
455.26	9053.19
455.44	9387.89
455.62	9245.12
455.81	9296.61
455.99	9104.68
456.17	9554.07
456.36	9392.57
456.54	9240.44
456.73	9303.63
456.91	9495.55
457.09	9666.41
457.28	9844.29
457.46	9619.60
457.64	9708.54
457.83	9657.05
458.01	9619.60
458.19	9802.16
458.38	9818.55
458.56	9973.02
458.74	10001.11
458.93	10059.62
459.11	9926.21
459.29	9820.89
459.48	10050.26
459.66	9970.68
459.84	10186.01
460.03	10277.29
460.21	10218.78
460.39	10178.99
460.57	10129.84
460.76	10373.25
460.94	10310.06
461.12	10277.29
461.31	10373.25
461.49	10221.12
461.67	10551.14
461.85	10607.31
462.04	10658.80
462.22	11171.38
462.40	10729.02
462.59	10501.98
462.77	10705.61
462.95	10623.69
463.13	10677.52
463.32	10658.80
463.50	10972.43
463.68	10923.28
463.86	10977.11
464.05	10768.80
464.23	10689.23
464.41	10841.36
464.59	10604.97
464.78	11103.50
464.96	11040.31
465.14	10754.76
465.32	11201.80
465.50	11250.96
465.69	11363.30
465.87	11213.51
466.05	11234.57
466.23	11302.45
466.41	11356.28
466.60	11538.84
466.78	10991.16
466.96	11225.21
467.14	11192.44
467.32	11555.22
467.51	11438.20
467.69	11344.58
467.87	11477.99
468.05	11597.35
468.23	11297.77
468.41	11424.15
468.60	11555.22
468.78	12011.63
468.96	11676.93
469.14	11915.67
469.32	12098.23
469.50	11683.95
469.69	11875.88
469.87	12233.98
470.05	12077.16
470.23	12102.91
470.41	12187.17
470.59	12116.95
470.77	12135.68
470.95	12224.62
471.14	12526.55
471.32	12212.92
471.50	12491.44
471.68	12578.04
471.86	12514.84
472.04	12744.22
472.22	12898.69
472.40	12669.32
472.58	12961.89
472.77	12554.63
472.95	13324.67
473.13	13429.99
473.31	12945.50
473.49	12837.84
473.67	13184.24
473.85	12994.65
474.03	13437.02
474.21	13310.63
474.39	13439.36
474.57	13624.26
474.75	13994.06
474.93	13998.74
475.12	13664.05
475.30	13865.33
475.48	13628.94
475.66	13816.18
475.84	14195.35
476.02	14249.18
476.20	14176.62
476.38	14396.64
476.56	14710.27
476.74	14553.45
476.92	14555.79
477.10	14862.40
477.28	14848.36
477.46	14731.33
477.64	15037.94
477.82	15211.14
478.00	15648.82
478.18	15351.57
478.36	15733.08
478.54	15967.13
478.72	16093.52
478.90	15955.43
479.08	16006.92
479.26	16496.10
479.44	16479.71
479.62	16638.87
479.80	16631.85
479.98	16718.45
480.16	16706.74
480.34	16844.84
480.52	17135.06
480.70	17266.13
480.88	16802.71
481.06	17331.67
481.24	17579.76
481.41	17696.79
481.59	17741.26
481.77	18288.95
481.95	18090.00
482.13	18417.68
482.31	18118.09
482.49	18621.30
482.67	18623.64
482.85	18803.86
483.03	18991.11
483.21	19307.08
483.39	19438.15
483.57	19351.55
483.74	19520.07
483.92	19620.71
484.10	19571.56
484.28	20297.13
484.46	20168.40
484.64	20886.94
484.82	20343.94
485.00	20622.46
485.18	21106.95
485.35	21429.94
485.53	21259.09
485.71	21310.58
485.89	21659.32
486.07	21399.52
486.25	21621.87
486.43	21741.24
486.61	22012.74
486.78	22075.93
486.96	22518.29
487.14	22747.67
487.32	23061.30
487.50	23000.44
487.68	23026.19
487.85	23744.73
488.03	23400.68
488.21	23616.01
488.39	23922.62
488.57	24079.43
488.75	24250.29
488.92	24491.37
489.10	24479.66
489.28	24903.30
489.46	25413.54
489.64	24919.68
489.81	25710.78
489.99	25340.98
490.17	25420.56
490.35	25921.43
490.53	25930.80
490.70	26368.48
490.88	26031.44
491.06	26719.56
491.24	26639.98
491.41	26534.65
491.59	26815.52
491.77	26986.38
491.95	27491.93
492.13	27459.16
492.30	27318.73
492.48	27833.65
492.66	27896.85
492.84	27791.52
493.01	28100.47
493.19	28336.87
493.37	28587.30
493.54	28795.61
493.72	28875.19
493.90	29125.63
494.08	29219.25
494.25	29383.09
494.43	29567.99
494.61	29961.20
494.79	29883.96
494.96	30148.44
495.14	30003.33
495.32	30490.16
495.49	29947.15
495.67	30749.96
495.85	30742.94
496.02	31199.34
496.20	31274.24
496.38	31096.36
496.55	31152.53
496.73	31665.11
496.91	31644.04
497.09	32023.21
497.26	32388.33
497.44	32039.59
497.62	32051.30
497.79	32751.12
497.97	32573.24
498.14	32971.13
498.32	33287.10
498.50	33221.56
498.67	33352.63
498.85	33546.90
499.03	33446.26
499.20	33570.30
499.38	33586.69
499.56	34326.30
499.73	34394.17
499.91	34092.24
500.08	34497.16
500.26	34352.04
500.44	34352.04
500.61	34780.36
500.79	34485.45
500.97	34923.13
501.14	35466.14
501.32	35445.07
501.49	35180.59
501.67	35587.85
501.84	35543.38
502.02	35948.29
502.20	35768.07
502.37	36512.36
502.55	36189.36
502.72	35798.49
502.90	36011.48
503.07	36694.92
503.25	36587.25
503.43	36451.50
503.60	37146.64
503.78	37106.85
503.95	36629.38
504.13	37198.13
504.30	37319.84
504.48	37258.99
504.65	37495.38
504.83	37900.29
505.01	37581.98
505.18	37879.23
505.36	38047.75
505.53	37764.54
505.71	37729.44
505.88	38356.70
506.06	37811.35
506.23	38682.03
506.41	38738.21
506.58	38721.82
506.76	38237.33
506.93	38843.53
507.11	38953.54
507.28	39033.11
507.46	39136.10
507.63	38969.92
507.81	39819.53
507.98	39180.57
508.16	39632.29
508.33	39917.84
508.50	39634.63
508.68	39452.07
508.85	40105.08
509.03	40243.17
509.20	40318.07
509.38	40465.52
509.55	40673.83
509.73	40732.34
509.90	40706.60
510.08	41134.92
510.25	40624.68
510.42	41226.20
510.60	41343.22
510.77	41436.84
510.95	41773.88
511.12	41528.13
511.30	41448.55
511.47	41808.99
511.64	42190.50
511.82	42017.30
511.99	42344.97
512.17	42047.72
512.34	41982.19
512.51	42478.38
512.69	42649.24
512.86	42234.97
513.04	42593.07
513.21	43014.37
513.38	43278.85
513.56	43028.41
513.73	43105.65
513.90	43023.73
514.08	43161.82
514.25	43688.44
514.43	43744.61
514.60	43828.87
514.77	43838.23
514.95	44149.53
515.12	43800.79
515.29	43751.63
515.47	44320.38
515.64	44406.98
515.81	44161.23
515.99	44638.70
516.16	44942.97
516.33	44439.75
516.51	44790.83
516.68	44081.65
516.85	44877.43
517.03	45132.55
517.20	44844.66
517.37	44973.39
517.54	45277.66
517.72	44989.78
517.89	45357.24
518.06	45029.57
518.24	45603.00
518.41	45450.86
518.58	45390.01
518.75	45457.88
518.93	45757.47
519.10	45717.68
519.27	46000.89
519.45	45780.88
519.62	45982.16
519.79	46265.37
519.96	46298.14
520.14	46195.15
520.31	46330.90
520.48	46487.72
520.65	47040.09
520.83	46625.81
521.00	46815.40
521.17	46511.13
521.34	46752.20
521.52	46834.12
521.69	47049.45
521.86	47360.74
522.03	47454.36
522.20	47538.62
522.38	47669.69
522.55	47262.44
522.72	47800.76
522.89	47711.82
523.07	48128.44
523.24	47468.40
523.41	48156.52
523.58	47517.56
523.75	48053.54
523.92	48182.27
524.10	47791.40
524.27	48177.59
524.44	48505.26
524.61	48509.94
524.78	48523.99
524.96	48664.42
525.13	48804.85
525.30	48657.40
525.47	48587.18
525.64	48837.62
525.81	48985.07
525.98	49015.50
526.16	48851.66
526.33	49310.41
526.50	49544.46
526.67	49287.00
526.84	49298.70
527.01	49263.60
527.18	49556.16
527.36	49572.55
527.53	49844.05
527.70	50094.49
527.87	49986.82
528.04	49670.85
528.21	49853.41
528.38	49315.09
528.55	49883.84
528.72	49797.24
528.89	50021.93
529.07	49982.14
529.24	50155.34
529.41	50309.82
529.58	50255.98
529.75	50071.08
529.92	49993.84
530.09	50394.07
530.26	50270.03
530.43	49951.71
530.60	50457.27
530.77	50553.23
530.94	50644.51
531.11	50405.78
531.28	50712.39
531.46	50679.62
531.63	50733.45
531.80	50773.24
531.97	51360.72
532.14	51049.42
532.31	50972.19
532.48	50937.08
532.65	50897.29
532.82	50944.10
532.99	51084.53
533.16	51009.64
533.33	51337.31
533.50	51526.89
533.67	51594.77
533.84	51398.16
534.01	51428.59
534.18	51213.26
534.35	51580.73
534.52	51711.80
534.69	51915.42
534.86	51852.23
535.03	51625.20
535.20	51625.20
535.37	51880.31
535.54	51896.70
535.71	51767.97
535.88	52191.61
536.05	51903.72
536.22	52004.36
536.38	52135.43
536.55	52102.67
536.72	51835.84
536.89	51924.78
537.06	52186.92
537.23	52161.18
537.40	52002.02
537.57	52095.64
537.74	51952.87
537.91	52849.30
538.08	52652.69
538.25	52420.98
538.42	52402.25
538.59	52809.51
538.75	52266.50
538.92	52502.90
539.09	52697.16
539.26	53022.50
539.43	52896.11
539.60	52877.38
539.77	52779.08
539.94	52987.39
540.11	52720.57
540.28	52830.57
540.44	53038.88
540.61	52711.20
540.78	52842.27
540.95	52940.58
541.12	52985.05
541.29	53258.89
541.46	53029.52
541.62	53172.29
541.79	53286.98
541.96	52809.51
542.13	53106.76
542.30	53244.85
542.47	53420.39
542.63	53392.30
542.80	53722.32
542.97	53354.85
543.14	53785.51
543.31	53387.62
543.48	53682.53
543.64	53801.89
543.81	53851.05
543.98	53844.02
544.15	53989.14
544.32	53939.99
544.48	54162.34
544.65	53872.11
544.82	53647.42
544.99	53712.95
545.16	54150.63
545.32	54129.57
545.49	54546.18
545.66	54372.99
545.83	54068.72
546.00	54213.83
546.16	54143.61
546.33	54099.14
546.50	53708.27
546.67	54183.40
546.83	53801.89
547.00	54337.88
547.17	54342.56
547.34	54412.77
547.50	54511.08
547.67	54780.24
547.84	54169.36
548.00	54412.77
548.17	54541.50
548.34	54777.90
548.51	54789.60
548.67	54700.66
548.84	54731.09
549.01	54707.68
549.18	54878.54
549.34	54707.68
549.51	54770.88
549.68	54789.60
549.84	54707.68
550.01	54791.94
550.18	54728.75
550.34	54885.56
550.51	54995.57
550.68	54981.52
550.84	54688.96
551.01	54958.12
551.18	54646.83
551.34	54791.94
551.51	54930.03
551.68	55018.97
551.84	54967.48
552.01	55199.19
552.18	55079.83
552.34	54995.57
552.51	55257.71
552.68	54925.35
552.84	55037.70
553.01	55311.54
553.18	55306.86
553.34	55339.63
553.51	55395.80
553.67	55379.42
553.84	55447.29
554.01	55526.87
554.17	55657.94
554.34	55220.26
554.51	55344.31
554.67	55583.04
554.84	55613.47
555.00	55625.17
555.17	55735.18
555.33	55604.11
555.50	55587.72
555.67	55557.30
555.83	55744.54
556.00	55526.87
556.16	55725.81
556.33	55442.61
556.50	55480.06
556.66	55714.11
556.83	55458.99
556.99	55845.18
557.16	56182.22
557.32	55903.70
557.49	55969.23
557.65	55629.85
557.82	55697.73
557.98	55725.81
558.15	55962.21
558.32	56135.41
558.48	55943.48
558.65	56034.77
558.81	55957.53
558.98	55987.95
559.14	56128.39
559.31	56009.02
559.47	55922.42
559.64	55964.55
559.80	56161.15
559.97	55985.61
560.13	55774.97
560.30	56055.83
560.46	56095.62
560.63	55812.41
560.79	56128.39
560.96	56406.91
561.12	56362.44
561.29	56142.43
561.45	56048.81
561.61	56219.67
561.78	56404.57
561.94	56308.61
562.11	56350.74
562.27	56397.55
562.44	56149.45
562.60	56404.57
562.77	55941.14
562.93	55976.25
563.10	56376.48
563.26	56212.65
563.42	56594.15
563.59	56552.02
563.75	56388.19
563.92	56484.15
564.08	56243.07
564.24	56357.76
564.41	56334.35
564.57	56432.66
564.74	56388.19
564.90	56423.29
565.07	56327.33
565.23	56516.92
565.39	56474.79
565.56	56610.54
565.72	56294.56
565.88	56346.06
566.05	56537.98
566.21	56357.76
566.38	56355.42
566.54	56498.19
566.70	56528.62
566.87	56905.44
567.03	56631.60
567.19	56655.01
567.36	56486.49
567.52	56507.55
567.68	56591.81
567.85	56324.99
568.01	56685.43
568.17	56577.77
568.34	56598.83
568.50	56542.66
568.66	56680.75
568.83	56603.52
568.99	56493.51
569.15	56472.45
569.32	56486.49
569.48	56453.72
569.64	56559.05
569.81	56678.41
569.97	56388.19
570.13	56877.36
570.30	56645.65
570.46	56774.37
570.62	56605.86
570.78	56690.12
570.95	56601.18
571.11	56804.80
571.27	56282.86
571.43	56725.22
571.60	56762.67
571.76	56690.12
571.92	56680.75
572.09	56729.90
572.25	56884.38
572.41	56718.20
572.57	56722.88
572.74	56748.63
572.90	56711.18
573.06	56362.44
573.22	56851.61
573.38	56898.42
573.55	56697.14
573.71	57125.46
573.87	56987.36
574.03	56875.02
574.20	57017.79
574.36	56851.61
574.52	56638.62
574.68	56577.77
574.84	56793.10
575.01	56772.03
575.17	56858.63
575.33	56889.06
575.49	56767.35
575.65	56839.91
575.82	56921.83
575.98	56788.42
576.14	56830.55
576.30	57006.09
576.46	56919.49
576.62	56706.50
576.79	56865.66
576.95	56748.63
577.11	56676.07
577.27	56748.63
577.43	56931.19
577.59	56781.40
577.75	56928.85
577.92	56844.59
578.08	56697.14
578.24	56757.99
578.40	56767.35
578.56	56647.99
578.72	56910.13
578.88	56816.50
579.04	57066.94
579.21	56882.04
579.37	56746.29
579.53	57064.60
579.69	56980.34
579.85	56891.40
580.01	56856.29
580.17	56713.52
580.33	56779.06
580.49	56645.65
580.65	56956.94
580.82	57116.09
580.98	56952.26
581.14	56830.55
581.30	56966.30
581.46	56797.78
581.62	56800.12
581.78	56523.94
581.94	56938.21
582.10	56725.22
582.26	57095.03
582.42	56912.47
582.58	57137.16
582.74	57013.11
582.90	57099.71
583.06	57013.11
583.22	56849.27
583.38	56851.61
583.54	56868.00
583.70	56933.53
583.86	56898.42
584.02	56687.78
584.18	57251.84
584.34	56844.59
584.50	57055.24
584.66	56928.85
584.82	56830.55
584.98	56722.88
585.14	56835.23
585.30	56690.12
585.46	56938.21
585.62	56980.34
585.78	56882.04
585.94	56975.66
586.10	57167.58
586.26	57195.67
586.42	57176.95
586.58	57179.29
586.74	56825.87
586.90	56907.79
587.06	57029.49
587.22	56992.04
587.38	56886.72
587.54	57258.87
587.70	57293.97
587.86	57193.33
588.02	57155.88
588.18	56970.98
588.34	56898.42
588.49	56877.36
588.65	56804.80
588.81	57165.24
588.97	57099.71
589.13	56863.32
589.29	57137.16
589.45	57146.52
589.61	57403.98
589.77	57319.72
589.93	57242.48
590.08	57120.77
590.24	57359.51
590.40	57312.70
590.56	57181.63
590.72	57230.78
590.88	57176.95
591.04	56992.04
591.20	57434.41
591.35	57132.48
591.51	57352.49
591.67	57228.44
591.83	57378.23
591.99	57242.48
592.15	57380.57
592.31	57141.84
592.46	57045.88
592.62	56982.68
592.78	56985.02
592.94	57141.84
593.10	57113.75
593.26	57408.66
593.41	57228.44
593.57	57111.41
593.73	57357.17
593.89	57256.53
594.05	57165.24
594.20	57155.88
594.36	57308.02
594.52	57289.29
594.68	57118.43
594.84	57034.17
594.99	57361.85
595.15	57198.01
595.31	57469.51
595.47	57308.02
595.62	57455.47
595.78	57284.61
595.94	57200.35
596.10	57308.02
596.25	57031.83
596.41	57317.38
596.57	56856.29
596.73	57399.30
596.88	57102.05
597.04	57284.61
597.20	57301.00
597.36	57350.15
597.51	57535.05
597.67	57436.75
597.83	57240.14
597.99	57106.73
598.14	57326.74
598.30	57324.40
598.46	57235.46
598.61	57312.70
598.77	57127.80
598.93	57214.40
599.09	57350.15
599.24	57623.99
599.40	57502.28
599.56	57462.49
599.71	57457.81
599.87	57354.83
600.03	57357.17
600.18	57272.91
600.34	57254.18
600.50	57359.51
600.65	57305.68
600.81	57427.38
600.97	57535.05
601.12	57394.62
601.28	57422.70
601.44	57308.02
601.59	57219.08
601.75	57324.40
601.91	57247.16
602.06	57165.24
602.22	57530.37
602.37	57195.67
602.53	57167.58
602.69	57532.71
602.84	57162.90
603.00	57357.17
603.16	57359.51
603.31	57464.83
603.47	57378.23
603.62	57162.90
603.78	57293.97
603.94	57165.24
604.09	57172.27
604.25	57406.32
604.40	57364.19
604.56	57371.21
604.71	57174.61
604.87	57190.99
605.03	57216.74
605.18	57186.31
605.34	57251.84
605.49	56697.14
605.65	57190.99
605.80	57214.40
605.96	57146.52
606.12	57130.14
606.27	57080.98
606.43	57064.60
606.58	57373.55
606.74	57010.77
606.89	57167.58
607.05	57125.46
607.20	57268.23
607.36	57188.65
607.51	57261.21
607.67	56870.34
607.82	56910.13
607.98	57057.58
608.13	57031.83
608.29	56968.64
608.44	57134.82
608.60	57088.01
608.75	57139.50
608.91	56961.62
609.06	57022.47
609.22	57055.24
609.37	56657.35
609.53	56982.68
609.68	56807.14
609.84	56666.71
609.99	56877.36
610.15	56694.80
610.30	56938.21
610.46	56889.06
610.61	56924.17
610.76	56783.74
610.92	56952.26
611.07	57003.75
611.23	56767.35
611.38	56891.40
611.54	56605.86
611.69	56765.01
611.84	56453.72
612.00	56966.30
612.15	56495.85
612.31	56896.08
612.46	56690.12
612.62	56640.96
612.77	56727.56
612.92	56893.74
613.08	56804.80
613.23	56945.23
613.39	56772.03
613.54	56523.94
613.69	56666.71
613.85	56456.06
614.00	56643.30
614.15	56783.74
614.31	56608.20
614.46	56413.93
614.62	56568.41
614.77	56685.43
614.92	56545.00
615.08	56584.79
615.23	56451.38
615.38	56584.79
615.54	56416.27
615.69	56245.41
615.84	56362.44
616.00	56409.25
616.15	56348.40
616.30	56629.26
616.46	56463.08
616.61	56612.88
616.76	56629.26
616.92	56404.57
617.07	56313.29
617.22	56149.45
617.37	56214.99
617.53	56350.74
617.68	56343.72
617.83	56198.60
617.99	56392.87
618.14	56165.84
618.29	56287.54
618.45	56214.99
618.60	56301.59
618.75	56537.98
618.90	56296.91
619.06	56191.58
619.21	56261.80
619.36	56168.18
619.51	56020.72
619.67	55957.53
619.82	55929.44
619.97	55990.30
620.12	55863.91
620.28	55781.99
620.43	56339.04
620.58	55709.43
620.73	56182.22
620.89	55910.72
621.04	55896.67
621.19	56039.45
621.34	55922.42
621.49	55781.99
621.65	55828.80
621.80	55861.57
621.95	55798.37
622.10	55880.29
622.25	55917.74
622.41	56002.00
622.56	55845.18
622.71	56076.90
622.86	55938.80
623.01	55845.18
623.16	56013.70
623.32	55735.18
623.47	55561.98
623.62	55735.18
623.77	55358.35
623.92	55377.08
624.07	55728.16
624.23	55529.21
624.38	55519.85
624.53	55569.00
624.68	55557.30
624.83	55735.18
624.98	55662.62
625.13	55487.08
625.29	55440.27
625.44	55669.64
625.59	54974.50
625.74	55529.21
625.89	55213.24
626.04	55248.35
626.19	55042.38
626.34	55386.44
626.49	54930.03
626.65	55140.68
626.80	55262.39
626.95	55234.30
627.10	55159.41
627.25	55344.31
627.40	55007.27
627.55	55311.54
627.70	54908.97
627.85	55023.65
628.00	54738.11
628.15	54953.44
628.30	54780.24
628.45	55058.76
628.60	54822.37
628.76	54988.55
628.91	55248.35
629.06	55000.25
629.21	55068.12
629.36	54923.01
629.51	54990.89
629.66	54953.44
629.81	54616.40
629.96	54822.37
630.11	54768.54
630.26	54897.27
630.41	54688.96
630.56	54433.84
630.71	54745.13
630.86	54665.55
631.01	54738.11
631.16	54738.11
631.31	54209.15
631.46	54590.66
631.61	54817.69
631.76	54522.78
631.91	54401.07
632.06	54457.24
632.21	54358.94
632.36	54569.59
632.51	54211.49
632.66	54508.74
632.81	54438.52
632.96	54747.47
633.10	54394.05
633.25	54260.64
633.40	54387.03
633.55	54326.17
633.70	54213.83
633.85	54113.19
634.00	54183.40
634.15	54335.54
634.30	53996.16
634.45	53961.05
634.60	54234.89
634.75	54007.86
634.90	54365.96
635.05	54099.14
635.19	54288.73
635.34	54389.37
635.49	54190.42
635.64	54134.25
635.79	54007.86
635.94	53993.82
636.09	54298.09
636.24	53829.98
636.39	53778.49
636.53	54101.48
636.68	53736.36
636.83	53975.09
636.98	54054.67
637.13	53951.69
637.28	53865.09
637.43	54014.88
637.57	53736.36
637.72	53764.45
637.87	53656.78
638.02	53834.66
638.17	53680.19
638.32	53535.07
638.46	53525.71
638.61	53492.94
638.76	53191.01
638.91	53352.51
639.06	53441.45
639.20	53434.43
639.35	53549.12
639.50	53471.88
639.65	53734.02
639.80	53645.08
639.94	53263.57
640.09	53408.68
640.24	53277.61
640.39	53481.24
640.54	53183.99
640.68	53151.23
640.83	53294.00
640.98	53066.97
641.13	52884.40
641.27	52961.64
641.42	52865.68
641.57	52907.81
641.72	53406.34
641.86	52750.99
642.01	52973.34
642.16	52978.03
642.31	52921.85
642.45	53284.64
642.60	53031.86
642.75	52718.23
642.90	52863.34
643.04	52933.56
643.19	52952.28
643.34	52655.03
643.48	52727.59
643.63	53125.48
643.78	52980.37
643.93	52994.41
644.07	52992.07
644.22	53017.82
644.37	52704.18
644.51	52741.63
644.66	52807.17
644.81	52495.88
644.95	52563.75
645.10	52360.12
645.25	52851.64
645.39	52205.65
645.54	52772.06
645.69	52610.56
645.83	52720.57
645.98	52821.21
646.13	52673.76
646.27	52498.22
646.42	52568.43
646.57	52376.51
646.71	52425.66
646.86	52568.43
647.00	52404.59
647.15	52205.65
647.30	52163.52
647.44	52280.55
647.59	52332.04
647.74	52207.99
647.88	51767.97
648.03	52257.14
648.17	52392.89
648.32	52203.31
648.47	52362.46
648.61	52186.92
648.76	52069.90
648.90	52027.77
649.05	51957.55
649.20	52364.81
649.34	52093.30
649.49	51990.32
649.63	51866.27
649.78	52006.70
649.92	51739.88
650.07	52027.77
650.21	51786.69
650.36	52032.45
650.51	51887.34
650.65	52058.20
650.80	52151.82
650.94	52060.54
651.09	52083.94
651.23	51498.81
651.38	51737.54
651.52	51711.80
651.67	51688.39
651.81	51821.80
651.96	51461.36
652.10	51482.42
652.25	51173.47
652.39	51517.53
652.54	51945.85
652.68	51709.46
652.83	51529.23
652.97	51660.30
653.12	51400.50
653.26	51480.08
653.41	51466.04
653.55	51306.88
653.70	50899.63
653.84	51091.55
653.99	51437.95
654.13	51241.35
654.27	51302.20
654.42	51433.27
654.56	51316.25
654.71	51337.31
654.85	51257.73
655.00	51374.76
655.14	51246.03
655.29	51117.30
655.43	51292.84
655.57	50703.03
655.72	51114.96
655.86	50848.14
656.01	50918.35
656.15	50635.15
656.30	50445.57
656.44	50600.04
656.58	50632.81
656.73	50918.35
656.87	50782.60
657.01	50588.34
657.16	51110.28
657.30	50721.75
657.45	50768.56
657.59	50869.20
657.73	50630.47
657.88	50483.01
658.02	50227.90
658.16	50562.59
658.31	50134.28
658.45	50412.80
658.60	50244.28
658.74	50586.00
658.88	50480.67
659.03	50162.36
659.17	50342.58
659.31	50258.32
659.46	50014.91
659.60	50244.28
659.74	50431.52
659.89	50052.36
660.03	50417.48
660.17	50073.42
660.32	50045.33
660.46	49776.17
660.60	49724.68
660.74	49464.88
660.89	49638.08
661.03	49333.81
661.17	49553.82
661.32	49333.81
661.46	49474.24
661.60	49453.18
661.74	49998.52
661.89	49265.94
662.03	49624.04
662.17	49146.57
662.31	49514.03
662.46	49350.20
662.60	49387.64
662.74	49097.42
662.88	48903.15
663.03	48807.19
663.17	48690.16
663.31	48409.30
663.45	48793.15
663.60	48540.37
663.74	48626.97
663.88	48767.40
664.02	48531.01
664.17	49003.80
664.31	48753.36
664.45	48933.58
664.59	48603.56
664.73	48332.06
664.88	48374.19
665.02	48142.48
665.16	47880.34
665.30	48006.73
665.44	47924.81
665.59	47526.92
665.73	47447.34
665.87	47494.15
666.01	48058.22
666.15	47667.35
666.29	48163.54
666.44	48165.88
666.58	47735.23
666.72	47547.98
666.86	47955.24
667.00	48002.05
667.14	47601.82
667.28	47313.93
667.43	47349.04
667.57	47477.77
667.71	47093.92
667.85	47056.47
667.99	46909.02
668.13	47072.85
668.27	47000.30
668.41	46918.38
668.56	46560.28
668.70	47117.32
668.84	46630.49
668.98	46548.57
669.12	47028.38
669.26	46513.47
669.40	46885.61
669.54	46583.68
669.68	46206.86
669.82	45853.44
669.96	46220.90
670.10	46045.36
670.25	46295.80
670.39	45738.75
670.53	45439.16
670.67	45485.97
670.81	45670.87
670.95	45977.48
671.09	45787.90
671.23	45357.24
671.37	45228.51
671.51	46174.09
671.65	45413.41
671.79	44994.46
671.93	45778.54
672.07	45399.37
672.21	45111.49
672.35	45240.21
672.49	44903.18
672.63	45167.66
672.77	44898.50
672.91	44870.41
673.05	44547.42
673.19	44453.79
673.33	44584.86
673.47	44545.08
673.61	44854.03
673.75	44746.36
673.89	44339.11
674.03	44229.10
674.17	44423.37
674.31	44357.83
674.45	44161.23
674.59	43358.42
674.73	43545.67
674.87	43761.00
675.01	43086.92
675.15	43430.98
675.29	43461.41
675.43	43608.86
675.56	43557.37
675.70	42913.72
675.84	43225.01
675.98	41879.21
676.12	43012.02
676.26	43323.32
676.40	42883.30
676.54	42506.47
676.68	43040.11
676.82	41766.86
676.96	42241.99
677.10	41727.07
677.23	41834.74
677.37	41640.47
677.51	41909.63
677.65	41488.34
677.79	41425.14
677.93	41460.25
678.07	41038.95
678.21	41205.13
678.34	41343.22
678.48	41006.19
678.62	41034.27
678.76	41006.19
678.90	40549.78
679.04	40360.20
679.18	40453.82
679.31	39791.45
679.45	39728.25
679.59	39660.38
679.73	39503.56
679.87	39379.51
680.00	39981.03
680.14	39210.99
680.28	39693.15
680.42	39475.48
680.56	39475.48
680.70	39040.14
680.83	39133.76
680.97	39384.19
681.11	39019.07
681.25	39250.78
681.39	38719.48
681.52	38466.70
681.66	38623.52
681.80	38260.74
681.94	38204.56
682.07	37968.17
682.21	37792.63
682.35	37315.16
682.49	37907.32
682.62	37188.77
682.76	37153.66
682.90	37064.72
683.04	36943.02
683.17	37291.76
683.31	36985.15
683.45	37439.21
683.59	37275.37
683.72	36781.52
683.86	36659.81
684.00	36252.56
684.13	36095.74
684.27	36147.23
684.41	36072.34
684.55	36198.73
684.68	36065.31
684.82	36020.84
684.96	35608.91
685.09	35489.54
685.23	35194.64
685.37	35747.00
685.50	35882.75
685.64	35229.74
685.78	35222.72
685.91	35372.52
686.05	35075.27
686.19	34522.90
686.32	34841.21
686.46	33905.00
686.60	34321.62
686.73	34541.63
686.87	33979.90
687.01	34059.48
687.14	33394.76
687.28	33560.94
687.42	33570.30
687.55	33472.00
687.69	33567.96
687.82	33270.72
687.96	33792.65
688.10	32818.99
688.23	33209.86
688.37	33273.06
688.50	32919.63
688.64	32992.19
688.78	32690.26
688.91	32456.21
689.05	32797.93
689.18	32479.61
689.32	31730.64
689.46	31417.01
689.59	31950.65
689.73	32034.91
689.86	31592.55
690.00	31555.10
690.13	31480.21
690.27	31414.67
690.41	31299.98
690.54	31370.20
690.68	31122.10
690.81	30813.15
690.95	30611.87
691.08	31016.78
691.22	30778.04
691.35	30625.91
691.49	30436.33
691.62	30094.61
691.76	29780.98
691.89	29785.66
692.03	29575.01
692.16	29642.88
692.30	29963.54
692.43	29282.44
692.57	29256.70
692.70	29422.87
692.84	28933.70
692.97	29186.48
693.11	29172.44
693.24	29001.58
693.38	29134.99
693.51	29069.45
693.65	29024.98
693.78	29013.28
693.92	28652.84
694.05	28542.83
694.19	28383.68
694.32	28182.39
694.45	27946.00
694.59	27899.19
694.72	27913.23
694.86	27651.09
694.99	27152.55
695.13	27442.78
695.26	27098.72
695.39	27431.08
695.53	27267.24
695.66	27344.48
695.80	27054.25
695.93	27187.66
696.07	27000.42
696.20	26979.36
696.33	26579.12
696.47	26609.55
696.60	26595.51
696.73	26466.78
696.87	25991.65
697.00	26089.95
697.14	25685.04
697.27	25385.45
697.40	25326.94
697.54	25132.67
697.67	25130.33
697.80	24961.81
697.94	25060.12
698.07	25472.05
698.21	24720.74
698.34	24922.02
698.47	25015.65
698.61	24479.66
698.74	24446.90
698.87	24725.42
699.01	24718.40
699.14	24390.72
699.27	24229.23
699.40	24056.03
699.54	23943.68
699.67	23442.81
699.80	23440.47
699.94	23367.91
700.07	23714.31
700.20	23726.01
700.34	23080.02
700.47	22979.38
700.60	23021.51
700.73	23157.26
700.87	23122.15
701.00	23016.83
701.13	22754.69
701.26	22443.40
701.40	22712.56
701.53	22742.99
701.66	22513.61
701.79	22342.75
701.93	22094.66
702.06	21912.10
702.19	21755.28
702.32	21937.84
702.46	21521.23
702.59	21544.63
702.72	21158.44
702.85	21558.67
702.99	21181.85
703.12	21123.33
703.25	21214.62
703.38	21158.44
703.51	21319.94
703.65	21010.99
703.78	20781.62
703.91	20748.85
704.04	20486.71
704.17	20793.32
704.31	20226.91
704.44	20315.85
704.57	20140.31
704.70	20060.73
704.83	19819.66
704.96	19866.47
705.10	19859.45
705.23	19676.88
>>>>>End Processed Spectral Data<<<<<
