SpectraSuite Data File
++++++++++++++++++++++++++++++++++++
Date: Fri Oct 18 13:54:05 GMT-05:00 2013
User: bianchi
Dark Spectrum Present: No
Reference Spectrum Present: No
Number of Sampled Component Spectra: 1
Spectrometers: USB2+H05261
Integration Time (usec): 100000 (USB2+H05261)
Spectra Averaged: 1 (USB2+H05261)
Boxcar Smoothing: 0 (USB2+H05261)
Correct for Electrical Dark: No (USB2+H05261)
Strobe/Lamp Enabled: No (USB2+H05261)
Correct for Detector Non-linearity: No (USB2+H05261)
Correct for Stray Light: No (USB2+H05261)
Number of Pixels in Processed Spectrum: 2048
>>>>>Begin Processed Spectral Data<<<<<
365.73	0.00
365.92	0.00
366.12	0.00
366.32	0.00
366.52	0.00
366.72	0.00
366.91	0.00
367.11	0.00
367.31	0.00
367.51	0.00
367.70	0.00
367.90	0.00
368.10	0.00
368.30	0.00
368.49	0.00
368.69	0.00
368.89	0.00
369.09	0.00
369.28	0.00
369.48	0.00
369.68	0.00
369.87	0.00
370.07	0.00
370.27	18.72
370.47	91.28
370.66	224.69
370.86	327.68
371.06	334.70
371.25	304.27
371.45	341.72
371.65	346.40
371.84	355.76
372.04	287.89
372.24	273.84
372.44	367.46
372.63	447.04
372.83	465.77
373.03	369.80
373.22	416.62
373.42	437.68
373.62	414.27
373.81	397.89
374.01	421.30
374.21	491.51
374.40	477.47
374.60	519.60
374.79	482.15
374.99	531.30
375.19	500.87
375.38	521.94
375.58	559.39
375.78	557.05
375.97	500.87
376.17	566.41
376.37	620.24
376.56	512.58
376.76	592.16
376.95	613.22
377.15	615.56
377.35	589.82
377.54	578.11
377.74	491.51
377.93	580.45
378.13	596.84
378.33	662.37
378.52	521.94
378.72	568.75
378.91	592.16
379.11	627.26
379.31	568.75
379.50	638.97
379.70	643.65
379.89	662.37
380.09	650.67
380.28	629.60
380.48	688.12
380.68	592.16
380.87	681.10
381.07	688.12
381.26	643.65
381.46	685.78
381.65	634.29
381.85	695.14
382.04	592.16
382.24	809.83
382.43	674.07
382.63	723.23
382.83	791.10
383.02	699.82
383.22	807.48
383.41	711.52
383.61	730.25
383.80	678.76
384.00	767.70
384.19	826.21
384.39	784.08
384.58	791.10
384.78	805.14
384.97	821.53
385.17	795.78
385.36	798.12
385.56	849.61
385.75	809.83
385.95	730.25
386.14	887.06
386.34	833.23
386.53	861.32
386.72	788.76
386.92	943.24
387.11	896.43
387.31	1001.75
387.50	748.97
387.70	779.40
387.89	882.38
388.09	833.23
388.28	884.72
388.48	966.64
388.67	901.11
388.86	1011.11
389.06	1046.22
389.25	908.13
389.45	1011.11
389.64	1018.13
389.84	961.96
390.03	1057.92
390.22	985.37
390.42	1039.20
390.61	1057.92
390.81	912.81
391.00	1020.47
391.19	1032.18
391.39	1046.22
391.58	994.73
391.78	1036.86
391.97	1118.78
392.16	1015.79
392.36	1174.95
392.55	1130.48
392.75	1121.12
392.94	1095.37
393.13	1118.78
393.33	1170.27
393.52	1160.91
393.71	1118.78
393.91	1170.27
394.10	1015.79
394.29	1184.31
394.49	1130.48
394.68	1266.23
394.88	1245.16
395.07	1287.29
395.26	1142.18
395.46	1299.00
395.65	1357.51
395.84	1320.06
396.04	1359.85
396.23	1446.45
396.42	1329.42
396.62	1465.18
396.81	1387.94
397.00	1345.81
397.19	1345.81
397.39	1472.20
397.58	1458.15
397.77	1446.45
397.97	1394.96
398.16	1530.71
398.35	1479.22
398.55	1500.28
398.74	1479.22
398.93	1540.07
399.12	1451.13
399.32	1406.66
399.51	1624.33
399.70	1563.48
399.90	1593.90
400.09	1582.20
400.28	1614.97
400.47	1563.48
400.67	1687.53
400.86	1664.12
401.05	1666.46
401.24	1764.76
401.44	1734.34
401.63	1748.38
401.82	1673.48
402.01	1638.38
402.21	1701.57
402.40	1802.21
402.59	1806.89
402.78	1727.32
402.97	1764.76
403.17	1914.56
403.36	1842.00
403.55	1898.17
403.74	1949.67
403.93	1970.73
404.13	1893.49
404.32	1937.96
404.51	1916.90
404.70	1893.49
404.89	1966.05
405.09	2115.84
405.28	2080.74
405.47	2052.65
405.66	2108.82
405.85	2115.84
406.05	2022.22
406.24	2040.95
406.43	2197.76
406.62	2162.66
406.81	2186.06
407.00	2214.15
407.20	2040.95
407.39	2125.21
407.58	2265.64
407.77	2195.42
407.96	2438.84
408.15	2361.60
408.34	2328.83
408.54	2324.15
408.73	2387.35
408.92	2413.09
409.11	2443.52
409.30	2401.39
409.49	2445.86
409.68	2452.88
409.87	2567.57
410.07	2544.16
410.26	2576.93
410.45	2644.81
410.64	2525.44
410.83	2609.70
411.02	2705.66
411.21	2754.81
411.40	2743.11
411.59	2717.36
411.78	2843.75
411.98	2810.98
412.17	2913.97
412.36	2883.54
412.55	2869.50
412.74	2836.73
412.93	2993.55
413.12	2965.46
413.31	3150.36
413.50	2993.55
413.69	3038.02
413.88	3173.77
414.07	3211.22
414.26	3227.60
414.45	3213.56
414.64	3206.53
414.83	3382.07
415.02	3389.10
415.22	3342.28
415.41	3419.52
415.60	3529.53
415.79	3370.37
415.98	3597.40
416.17	3550.59
416.36	3534.21
416.55	3564.64
416.74	3616.13
416.93	3669.96
417.12	3808.05
417.31	3861.88
417.50	3824.44
417.69	3831.46
417.88	3735.50
418.07	3761.24
418.26	3957.85
418.45	3885.29
418.64	4205.94
418.83	3985.93
419.02	4002.32
419.21	4145.09
419.39	4060.83
419.58	3899.33
419.77	4133.39
419.96	4177.86
420.15	4074.87
420.34	4119.34
420.53	4248.07
420.72	4397.87
420.91	4264.46
421.10	4294.88
421.29	4461.06
421.48	4255.09
421.67	4397.87
421.86	4299.56
422.05	4517.23
422.24	4475.10
422.43	4360.42
422.61	4435.32
422.80	4512.55
422.99	4507.87
423.18	4571.07
423.37	4669.37
423.56	4475.10
423.75	4517.23
423.94	4564.04
424.13	4381.48
424.32	4276.16
424.50	4517.23
424.69	4868.31
424.88	4758.31
425.07	4454.04
425.26	4610.86
425.45	4620.22
425.64	4561.70
425.83	4589.79
426.01	4566.39
426.20	4503.19
426.39	4695.11
426.58	4739.58
426.77	4568.73
426.96	4812.14
427.15	4643.62
427.33	4718.52
427.52	4854.27
427.71	4819.16
427.90	4903.42
428.09	4910.44
428.28	4919.81
428.46	5057.90
428.65	4971.30
428.84	4985.34
429.03	5198.33
429.22	5083.64
429.40	5233.44
429.59	5172.58
429.78	4840.23
429.97	4774.69
430.16	4990.02
430.34	5280.25
430.53	5114.07
430.72	5261.52
430.91	5130.45
431.10	5198.33
431.28	5273.23
431.47	5324.72
431.66	5392.59
431.85	5282.59
432.03	5397.28
432.22	5458.13
432.41	5467.49
432.60	5640.69
432.79	5444.09
432.97	5619.63
433.16	5589.20
433.35	5413.66
433.54	5619.63
433.72	5724.95
433.91	5781.12
434.10	5790.49
434.28	5710.91
434.47	5813.89
434.66	5921.56
434.85	5748.36
435.03	5870.06
435.22	5832.62
435.41	6164.97
435.59	6038.58
435.78	5944.96
435.97	6094.76
436.16	6108.80
436.34	5933.26
436.53	6099.44
436.72	6230.51
436.90	6085.39
437.09	6258.59
437.28	6211.78
437.46	6373.28
437.65	6253.91
437.84	6413.07
438.02	6274.98
438.21	6244.55
438.40	6289.02
438.58	6506.69
438.77	6602.65
438.96	6417.75
439.14	6476.26
439.33	6551.16
439.52	6782.87
439.70	6703.29
439.89	6815.64
440.08	6855.43
440.26	6965.43
440.45	6902.24
440.63	6920.96
440.82	7073.10
441.01	7030.97
441.19	7148.00
441.38	7403.11
441.57	7082.46
441.75	7445.24
441.94	7482.69
442.12	7564.61
442.31	7613.76
442.50	7538.87
442.68	7527.16
442.87	7604.40
443.05	7702.70
443.24	7545.89
443.43	7641.85
443.61	7761.22
443.80	7829.09
443.98	7405.46
444.17	7452.27
444.35	7688.66
444.54	7894.63
444.73	7892.29
444.91	7864.20
445.10	7744.83
445.28	7875.90
445.47	7552.91
445.65	7847.82
445.84	7815.05
446.02	8077.19
446.21	8006.97
446.39	7775.26
446.58	8058.46
446.77	7939.10
446.95	7808.03
447.14	7885.26
447.32	7971.86
447.51	8037.40
447.69	7826.75
447.88	7962.50
448.06	7896.97
448.25	8009.31
448.43	7953.14
448.62	7957.82
448.80	7854.84
448.99	8105.28
449.17	8285.50
449.36	8152.09
449.54	8187.19
449.73	8339.33
449.91	8252.73
450.10	8465.72
450.28	8493.80
450.46	8280.82
450.65	8561.68
450.83	8493.80
451.02	8395.50
451.20	8760.63
451.39	8510.19
451.57	8627.21
451.76	8465.72
451.94	8528.91
452.13	8540.61
452.31	8533.59
452.49	8554.66
452.68	8716.16
452.86	8713.81
453.05	8765.31
453.23	8847.22
453.42	8674.03
453.60	8716.16
453.78	8613.17
453.97	8847.22
454.15	8933.82
454.34	8800.41
454.52	9137.45
454.70	9160.86
454.89	9165.54
455.07	9132.77
455.26	9048.51
455.44	9362.14
455.62	9177.24
455.81	9294.27
455.99	9441.72
456.17	9317.67
456.36	9352.78
456.54	9544.70
456.73	9437.04
456.91	9563.43
457.09	9563.43
457.28	9921.53
457.46	9568.11
457.64	9811.53
457.83	9991.75
458.01	9635.99
458.19	10022.17
458.38	9769.40
458.56	9984.73
458.74	10045.58
458.93	9989.41
459.11	10157.92
459.29	9942.60
459.48	10087.71
459.66	10040.90
459.84	10209.42
460.03	10487.94
460.21	10193.03
460.39	10281.97
460.57	10333.47
460.76	10408.36
460.94	10331.12
461.12	10574.54
461.31	10258.57
461.49	10188.35
461.67	10326.44
461.85	10787.53
462.04	10712.63
462.22	11281.38
462.40	10637.73
462.59	10565.18
462.77	10843.70
462.95	10934.98
463.13	10764.12
463.32	10504.32
463.50	11009.88
463.68	11007.54
463.86	10944.34
464.05	10855.40
464.23	10993.50
464.41	11028.60
464.59	10651.78
464.78	11274.36
464.96	11014.56
465.14	10902.22
465.32	11070.73
465.50	11239.25
465.69	11475.65
465.87	11080.10
466.05	11578.63
466.23	11126.91
466.41	11492.03
466.60	11742.47
466.78	11225.21
466.96	11522.46
467.14	11140.95
467.32	11517.78
467.51	11705.02
467.69	11211.17
467.87	11571.61
468.05	11772.89
468.23	11515.44
468.41	11557.57
468.60	11503.73
468.78	11735.45
468.96	11552.88
469.14	11988.22
469.32	12028.01
469.50	11683.95
469.69	11976.52
469.87	12020.99
470.05	12236.32
470.23	12042.06
470.41	11995.25
470.59	12346.33
470.77	12177.81
470.95	12285.47
471.14	12552.29
471.32	12381.43
471.50	12891.67
471.68	12594.42
471.86	12795.71
472.04	12910.40
472.22	13130.41
472.40	12936.14
472.58	12739.54
472.77	12879.97
472.95	12912.74
473.13	13319.99
473.31	13039.12
473.49	13193.60
473.67	13352.76
473.85	13242.75
474.03	13319.99
474.21	13476.80
474.39	13781.07
474.57	13741.29
474.75	14005.77
474.93	13940.23
475.12	13628.94
475.30	14143.86
475.48	14022.15
475.66	13949.59
475.84	14204.71
476.02	14113.43
476.20	14424.72
476.38	14656.43
476.56	14815.59
476.74	14794.53
476.92	14736.01
477.10	14927.94
477.28	14995.81
477.46	14682.18
477.64	14965.39
477.82	15482.64
478.00	15800.96
478.18	15648.82
478.36	15941.39
478.54	16025.65
478.72	15889.90
478.90	16002.24
479.08	16306.51
479.26	16442.26
479.44	16566.31
479.62	16655.25
479.80	16641.21
479.98	16952.50
480.16	17254.43
480.34	17181.87
480.52	17130.38
480.70	17355.07
480.88	17216.98
481.06	17500.19
481.24	17446.35
481.41	17767.01
481.59	18071.28
481.77	18017.44
481.95	18394.27
482.13	18204.69
482.31	18188.30
482.49	18817.91
482.67	18710.24
482.85	18920.89
483.03	19274.31
483.21	19192.39
483.39	19564.54
483.57	19749.44
483.74	19644.12
483.92	19508.37
484.10	19356.23
484.28	20112.22
484.46	20453.94
484.64	20751.19
484.82	20428.20
485.00	20680.97
485.18	20931.41
485.35	21113.97
485.53	20947.79
485.71	21624.21
485.89	21764.64
486.07	21518.89
486.25	21656.98
486.43	22075.93
486.61	21940.18
486.78	22497.23
486.96	22574.47
487.14	22995.76
487.32	22899.80
487.50	22927.89
487.68	23463.87
487.85	23559.83
488.03	23770.48
488.21	23824.31
488.39	23999.85
488.57	24060.71
488.75	24257.31
488.92	24549.88
489.10	24489.03
489.28	24856.49
489.46	24999.26
489.64	25102.25
489.81	25736.53
489.99	25535.24
490.17	25876.96
490.35	25776.32
490.53	26169.53
490.70	26115.70
490.88	26256.13
491.06	26679.77
491.24	26752.32
491.41	27091.70
491.59	27103.40
491.77	27143.19
491.95	27730.67
492.13	27875.78
492.30	28346.23
492.48	27768.12
492.66	27587.89
492.84	27967.06
493.01	28444.53
493.19	28573.26
493.37	29102.22
493.54	28868.17
493.72	28858.81
493.90	29202.86
494.08	29282.44
494.25	29670.97
494.43	29881.62
494.61	30228.02
494.79	30057.16
494.96	30204.61
495.14	30515.90
495.32	30459.73
495.49	30712.51
495.67	31197.00
495.85	31257.85
496.02	31225.09
496.20	31346.79
496.38	31398.29
496.55	31470.84
496.73	32240.88
496.91	31833.63
497.09	32217.47
497.26	32217.47
497.44	32692.60
497.62	32720.69
497.79	33191.14
497.97	32657.49
498.14	33074.11
498.32	33521.15
498.50	33322.21
498.67	33916.70
498.85	33352.63
499.03	33977.56
499.20	33851.17
499.38	34417.58
499.56	34110.97
499.73	34450.35
499.91	34670.36
500.08	35115.06
500.26	34796.74
500.44	34480.77
500.61	34960.58
500.79	34518.22
500.97	35112.72
501.14	35679.13
501.32	35269.53
501.49	35789.13
501.67	35681.47
501.84	35749.34
502.02	35700.19
502.20	36233.83
502.37	36498.31
502.55	36095.74
502.72	36002.12
502.90	36662.15
503.07	36512.36
503.25	36678.54
503.43	36493.63
503.60	36531.08
503.78	37455.59
503.95	37326.86
504.13	37453.25
504.30	37546.87
504.48	37336.23
504.65	37570.28
504.83	38230.31
505.01	38316.91
505.18	38066.47
505.36	38494.79
505.53	38213.93
505.71	38169.46
505.88	38714.80
506.06	38333.29
506.23	39194.61
506.41	38998.01
506.58	38904.38
506.76	39077.58
506.93	38897.36
507.11	39257.81
507.28	39108.01
507.46	39456.75
507.63	39620.59
507.81	40030.18
507.98	39536.33
508.16	40109.76
508.33	39875.71
508.50	40135.51
508.68	40105.08
508.85	40931.29
509.03	40385.94
509.20	40994.48
509.38	40498.29
509.55	41401.74
509.73	40844.69
509.90	40858.73
510.08	40781.49
510.25	40912.56
510.42	40856.39
510.60	41471.95
510.77	41801.97
510.95	42110.92
511.12	41268.33
511.30	41427.48
511.47	41897.93
511.64	42038.36
511.82	42141.35
511.99	42131.98
512.17	42176.45
512.34	42911.38
512.51	42572.00
512.69	42253.69
512.86	42763.93
513.04	43337.36
513.21	43215.65
513.38	43290.55
513.56	43739.93
513.73	42960.53
513.90	43601.84
514.08	43271.82
514.25	43695.46
514.43	43814.83
514.60	43730.57
514.77	43868.66
514.95	44538.05
515.12	43480.13
515.29	44137.82
515.47	44144.84
515.64	44421.03
515.81	44299.32
515.99	44500.61
516.16	45214.47
516.33	44793.17
516.51	44669.12
516.68	44889.13
516.85	44542.74
517.03	45162.98
517.20	45216.81
517.37	45013.18
517.54	45223.83
517.72	45668.53
517.89	45682.58
518.06	45591.30
518.24	45647.47
518.41	45497.67
518.58	45729.39
518.75	45965.78
518.93	46211.54
519.10	45975.14
519.27	46347.29
519.45	46361.33
519.62	46298.14
519.79	46335.59
519.96	46377.72
520.14	46536.87
520.31	46312.18
520.48	47019.02
520.65	46862.21
520.83	47042.43
521.00	46541.55
521.17	46658.58
521.34	46962.85
521.52	46864.55
521.69	47346.70
521.86	47555.00
522.03	47117.32
522.20	47938.85
522.38	48217.38
522.55	47639.26
522.72	47643.94
522.89	47870.98
523.07	47955.24
523.24	47812.46
523.41	48006.73
523.58	48055.88
523.75	48238.44
523.92	47470.75
524.10	47870.98
524.27	48428.02
524.44	48603.56
524.61	48758.04
524.78	49036.56
524.96	48863.36
525.13	49038.90
525.30	48882.09
525.47	49027.20
525.64	49066.99
525.81	49485.95
525.98	49542.12
526.16	49364.24
526.33	49062.31
526.50	49420.41
526.67	49268.28
526.84	49581.91
527.01	49017.84
527.18	49546.80
527.36	49822.98
527.53	49502.33
527.70	50284.07
527.87	50178.75
528.04	49935.33
528.21	50099.17
528.38	50171.72
528.55	50071.08
528.72	50040.65
528.89	50082.78
529.07	50384.71
529.24	50045.33
529.41	50131.93
529.58	50309.82
529.75	50117.89
529.92	50618.77
530.09	50206.83
530.26	50312.16
530.43	50609.40
530.60	50454.93
530.77	50808.35
530.94	50621.11
531.11	50660.90
531.28	50553.23
531.46	51030.70
531.63	50859.84
531.80	51206.24
531.97	51456.68
532.14	51292.84
532.31	51433.27
532.48	51405.19
532.65	51260.07
532.82	51299.86
532.99	51313.90
533.16	51203.90
533.33	51704.77
533.50	51796.06
533.67	51634.56
533.84	51255.39
534.01	51370.08
534.18	51356.03
534.35	51639.24
534.52	51714.14
534.69	52257.14
534.86	52163.52
535.03	51936.49
535.20	52147.14
535.37	52149.48
535.54	52072.24
535.71	51686.05
535.88	52170.54
536.05	52023.09
536.22	52308.63
536.38	52411.62
536.55	52694.82
536.72	52416.30
536.89	52212.67
537.06	52107.35
537.23	52538.01
537.40	52308.63
537.57	52332.04
537.74	52612.90
537.91	52882.06
538.08	52811.85
538.25	52559.07
538.42	52676.10
538.59	53380.60
538.75	52685.46
538.92	52678.44
539.09	52910.15
539.26	52968.66
539.43	52809.51
539.60	53069.31
539.77	52985.05
539.94	52949.94
540.11	53006.11
540.28	53251.87
540.44	53038.88
540.61	52959.30
540.78	53092.71
540.95	53411.02
541.12	53254.21
541.29	53294.00
541.46	53081.01
541.62	53202.72
541.79	53478.90
541.96	53024.84
542.13	53467.20
542.30	53506.99
542.47	53464.86
542.63	53663.80
542.80	53549.12
542.97	53715.29
543.14	53982.12
543.31	53661.46
543.48	53694.23
543.64	53787.85
543.81	54209.15
543.98	54223.19
544.15	54234.89
544.32	54335.54
544.48	54199.79
544.65	54426.82
544.82	54323.83
544.99	53968.07
545.16	54164.68
545.32	54178.72
545.49	54562.57
545.66	54679.60
545.83	54403.41
546.00	54424.48
546.16	54637.47
546.33	54131.91
546.50	54206.81
546.67	54370.64
546.83	54288.73
547.00	54323.83
547.17	54431.50
547.34	54410.43
547.50	54653.85
547.67	54543.84
547.84	54705.34
548.00	55007.27
548.17	54803.64
548.34	54473.63
548.51	54756.83
548.67	54899.61
548.84	55110.25
549.01	55007.27
549.18	54543.84
549.34	54951.10
549.51	54855.14
549.68	54925.35
549.84	54827.05
550.01	54869.18
550.18	54822.37
550.34	55058.76
550.51	55325.58
550.68	55128.98
550.84	54955.78
551.01	55187.49
551.18	55063.44
551.34	55096.21
551.51	55274.09
551.68	55152.38
551.84	55384.10
552.01	55173.45
552.18	55358.35
552.34	55238.98
552.51	55552.62
552.68	55316.22
552.84	55304.52
553.01	55580.70
553.18	55444.95
553.34	55592.40
553.51	55262.39
553.67	55550.27
553.84	56058.17
554.01	55697.73
554.17	55533.89
554.34	55529.21
554.51	55604.11
554.67	55636.87
554.84	55454.31
555.00	55671.98
555.17	55824.12
555.33	55718.79
555.50	55679.00
555.67	55536.23
555.83	55711.77
556.00	55749.22
556.16	55992.64
556.33	55819.44
556.50	55770.28
556.66	56011.36
556.83	55723.47
556.99	56207.97
557.16	56292.22
557.32	56236.05
557.49	56259.46
557.65	55859.23
557.82	55887.31
557.98	55931.78
558.15	56006.68
558.32	56126.05
558.48	56170.52
558.65	56416.27
558.81	56322.65
558.98	56051.15
559.14	56121.37
559.31	55955.19
559.47	56437.34
559.64	56062.85
559.80	56261.80
559.97	56289.88
560.13	55997.32
560.30	56315.63
560.46	56126.05
560.63	56088.60
560.79	56231.37
560.96	56397.55
561.12	56296.91
561.29	56210.31
561.45	56339.04
561.61	56793.10
561.78	56355.42
561.94	56528.62
562.11	56591.81
562.27	56519.26
562.44	56453.72
562.60	56643.30
562.77	56526.28
562.93	56324.99
563.10	56584.79
563.26	56268.82
563.42	56788.42
563.59	56772.03
563.75	56683.09
563.92	56821.19
564.08	56339.04
564.24	56545.00
564.41	56631.60
564.57	56449.04
564.74	56451.38
564.90	56697.14
565.07	56743.95
565.23	56619.90
565.39	56437.34
565.56	56704.16
565.72	56566.07
565.88	56442.02
566.05	56582.45
566.21	56442.02
566.38	56568.41
566.54	56575.43
566.70	56746.29
566.87	56910.13
567.03	56727.56
567.19	56884.38
567.36	56790.76
567.52	56734.59
567.68	56846.93
567.85	56547.34
568.01	56760.33
568.17	56647.99
568.34	56907.79
568.50	56898.42
568.66	56622.24
568.83	56823.53
568.99	56669.05
569.15	56753.31
569.32	56666.71
569.48	56650.33
569.64	56830.55
569.81	56636.28
569.97	56982.68
570.13	56718.20
570.30	56814.16
570.46	56877.36
570.62	56846.93
570.78	56708.84
570.95	56652.67
571.11	56823.53
571.27	56657.35
571.43	57015.45
571.60	56647.99
571.76	56966.30
571.92	56830.55
572.09	57010.77
572.25	56919.49
572.41	56846.93
572.57	56673.73
572.74	57284.61
572.90	56872.68
573.06	56865.66
573.22	56877.36
573.38	56851.61
573.55	56837.57
573.71	57057.58
573.87	57179.29
574.03	56832.89
574.20	56786.08
574.36	56966.30
574.52	56970.98
574.68	56860.97
574.84	57111.41
575.01	57207.37
575.17	56994.39
575.33	57045.88
575.49	56860.97
575.65	57322.06
575.82	57045.88
575.98	56914.81
576.14	57090.35
576.30	56980.34
576.46	56727.56
576.62	56746.29
576.79	56900.76
576.95	56793.10
577.11	57050.56
577.27	56992.04
577.43	56919.49
577.59	57027.15
577.75	57181.63
577.92	56877.36
578.08	56903.10
578.24	56870.34
578.40	57034.17
578.56	56975.66
578.72	57001.41
578.88	57099.71
579.04	57120.77
579.21	57078.64
579.37	57125.46
579.53	57059.92
579.69	56949.92
579.85	56821.19
580.01	56846.93
580.17	56914.81
580.33	56896.08
580.49	57153.54
580.65	56987.36
580.82	57141.84
580.98	57125.46
581.14	56980.34
581.30	57261.21
581.46	56655.01
581.62	56938.21
581.78	56907.79
581.94	57029.49
582.10	56800.12
582.26	56884.38
582.42	56912.47
582.58	57251.84
582.74	57228.44
582.90	57422.70
583.06	57240.14
583.22	57097.37
583.38	56928.85
583.54	57031.83
583.70	56736.93
583.86	57045.88
584.02	56870.34
584.18	57064.60
584.34	57090.35
584.50	57467.17
584.66	57099.71
584.82	56966.30
584.98	57167.58
585.14	57020.13
585.30	56919.49
585.46	57216.74
585.62	56982.68
585.78	57315.04
585.94	56959.28
586.10	57139.50
586.26	57272.91
586.42	57242.48
586.58	57179.29
586.74	57258.87
586.90	56732.25
587.06	56727.56
587.22	57167.58
587.38	56933.53
587.54	57221.42
587.70	57378.23
587.86	57247.16
588.02	57195.67
588.18	57162.90
588.34	57223.76
588.49	57195.67
588.65	56933.53
588.81	57076.30
588.97	57235.46
589.13	57221.42
589.29	57062.26
589.45	57212.06
589.61	57418.02
589.77	57691.86
589.93	57338.44
590.08	57549.09
590.24	57530.37
590.40	57586.54
590.56	57336.10
590.72	57244.82
590.88	57169.93
591.04	57293.97
591.20	57357.17
591.35	57572.50
591.51	57757.40
591.67	57350.15
591.83	57719.95
591.99	57429.72
592.15	57504.62
592.31	57504.62
592.46	57233.12
592.62	57389.94
592.78	57066.94
592.94	57469.51
593.10	57331.42
593.26	57462.49
593.41	57506.96
593.57	57265.89
593.73	57474.20
593.89	57476.54
594.05	57333.76
594.20	57247.16
594.36	57251.84
594.52	57464.83
594.68	57317.38
594.84	57329.08
594.99	57389.94
595.15	57591.22
595.31	57609.95
595.47	57411.00
595.62	57705.91
595.78	57148.86
595.94	57237.80
596.10	57368.87
596.25	57392.28
596.41	57277.59
596.57	57088.01
596.73	57387.60
596.88	57387.60
597.04	57286.95
597.20	57677.82
597.36	57401.64
597.51	57567.82
597.67	57396.96
597.83	57478.88
597.99	57418.02
598.14	57389.94
598.30	57095.03
598.46	57418.02
598.61	57291.63
598.77	57226.10
598.93	57588.88
599.09	57537.39
599.24	57621.65
599.40	57654.42
599.56	57558.45
599.71	57680.16
599.87	57537.39
600.03	57315.04
600.18	57343.12
600.34	57427.38
600.50	57474.20
600.65	57581.86
600.81	57640.37
600.97	57640.37
601.12	57724.63
601.28	57471.85
601.44	57546.75
601.59	57530.37
601.75	57336.10
601.91	57701.23
602.06	57317.38
602.22	57326.74
602.37	57233.12
602.53	57443.77
602.69	57263.55
602.84	57471.85
603.00	57631.01
603.16	57525.69
603.31	57481.22
603.47	57518.67
603.62	57427.38
603.78	57315.04
603.94	57399.30
604.09	57418.02
604.25	57214.40
604.40	57352.49
604.56	57532.71
604.71	57581.86
604.87	57495.26
605.03	57425.04
605.18	57488.24
605.34	57350.15
605.49	57092.69
605.65	57284.61
605.80	57298.65
605.96	57090.35
606.12	57144.18
606.27	57333.76
606.43	57237.80
606.58	57446.11
606.74	57502.28
606.89	57268.23
607.05	57303.34
607.20	57293.97
607.36	57263.55
607.51	57155.88
607.67	57090.35
607.82	57186.31
607.98	56938.21
608.13	57148.86
608.29	57338.44
608.44	57043.54
608.60	57368.87
608.75	57326.74
608.91	57174.61
609.06	57088.01
609.22	57305.68
609.37	56765.01
609.53	57116.09
609.68	56994.39
609.84	56877.36
609.99	57118.43
610.15	56935.87
610.30	56884.38
610.46	57097.37
610.61	57153.54
610.76	56952.26
610.92	57179.29
611.07	56954.60
611.23	56807.14
611.38	57109.07
611.54	56858.63
611.69	56797.78
611.84	56762.67
612.00	56811.82
612.15	56891.40
612.31	56924.17
612.46	57085.67
612.62	57076.30
612.77	57059.92
612.92	57172.27
613.08	57092.69
613.23	56851.61
613.39	56938.21
613.54	56683.09
613.69	56851.61
613.85	56734.59
614.00	56853.95
614.15	56673.73
614.31	56933.53
614.46	57031.83
614.62	56797.78
614.77	57003.75
614.92	57059.92
615.08	56849.27
615.23	56956.94
615.38	56863.32
615.54	56502.87
615.69	56797.78
615.84	56446.70
616.00	56638.62
616.15	56615.22
616.30	56584.79
616.46	56669.05
616.61	56711.18
616.76	56882.04
616.92	56404.57
617.07	56633.94
617.22	56273.50
617.37	56409.25
617.53	56355.42
617.68	56449.04
617.83	56310.95
617.99	56603.52
618.14	56282.86
618.29	56322.65
618.45	56507.55
618.60	56552.02
618.75	56376.48
618.90	56292.22
619.06	56479.47
619.21	56046.47
619.36	56362.44
619.51	55915.40
619.67	56360.10
619.82	56275.84
619.97	56135.41
620.12	56289.88
620.28	56130.73
620.43	56324.99
620.58	56339.04
620.73	56259.46
620.89	56374.14
621.04	56282.86
621.19	56158.81
621.34	55842.84
621.49	56076.90
621.65	55969.23
621.80	56226.69
621.95	55838.16
622.10	56030.08
622.25	56006.68
622.41	55875.61
622.56	55959.87
622.71	56163.50
622.86	55826.46
623.01	55840.50
623.16	55856.88
623.32	55852.20
623.47	55805.39
623.62	55826.46
623.77	55660.28
623.92	55884.97
624.07	55723.47
624.23	55753.90
624.38	55971.57
624.53	55786.67
624.68	55669.64
624.83	55987.95
624.98	55990.30
625.13	55739.86
625.29	55667.30
625.44	55821.78
625.59	55730.50
625.74	55416.86
625.89	55407.50
626.04	55498.78
626.19	55344.31
626.34	55428.57
626.49	55449.63
626.65	55384.10
626.80	55599.43
626.95	55208.56
627.10	55501.12
627.25	55599.43
627.40	55388.78
627.55	55260.05
627.70	54967.48
627.85	55051.74
628.00	54962.80
628.15	55140.68
628.30	55061.10
628.45	55231.96
628.60	55070.46
628.76	55348.99
628.91	55494.10
629.06	55178.13
629.21	55103.23
629.36	55112.59
629.51	55070.46
629.66	55047.06
629.81	54981.52
629.96	54939.39
630.11	54681.94
630.26	54995.57
630.41	54834.07
630.56	54656.19
630.71	55000.25
630.86	54953.44
631.01	54925.35
631.16	55100.89
631.31	54852.80
631.46	54663.21
631.61	55007.27
631.76	54841.09
631.91	54817.69
632.06	54609.38
632.21	54398.73
632.36	54707.68
632.51	54246.60
632.66	54497.03
632.81	54721.72
632.96	54768.54
633.10	54590.66
633.25	54728.75
633.40	54740.45
633.55	54740.45
633.70	54796.62
633.85	54255.96
634.00	54363.62
634.15	54295.75
634.30	54391.71
634.45	54466.61
634.60	54593.00
634.75	54270.00
634.90	54447.88
635.05	54649.17
635.19	54262.98
635.34	54635.13
635.49	54389.37
635.64	54033.61
635.79	54258.30
635.94	54398.73
636.09	54464.27
636.24	54279.36
636.39	54110.85
636.53	54286.39
636.68	54028.93
636.83	54190.42
636.98	54136.59
637.13	53930.62
637.28	53996.16
637.43	54333.20
637.57	54007.86
637.72	53820.62
637.87	53961.05
638.02	53998.50
638.17	53827.64
638.32	53858.07
638.46	53654.44
638.61	53616.99
638.76	53719.98
638.91	53675.51
639.06	53581.88
639.20	53605.29
639.35	53886.15
639.50	53897.86
639.65	53890.83
639.80	53825.30
639.94	53581.88
640.09	53609.97
640.24	53319.74
640.39	53553.80
640.54	53504.65
640.68	53464.86
640.83	53453.15
640.98	53200.38
641.13	52849.30
641.27	53326.77
641.42	53441.45
641.57	53446.13
641.72	53635.72
641.86	53301.02
642.01	53436.77
642.16	53460.18
642.31	53095.05
642.45	53350.17
642.60	53024.84
642.75	53148.88
642.90	52963.98
643.04	53088.03
643.19	53071.65
643.34	53294.00
643.48	52910.15
643.63	53120.80
643.78	53282.30
643.93	53066.97
644.07	52961.64
644.22	52978.03
644.37	53219.10
644.51	53198.04
644.66	53298.68
644.81	52935.90
644.95	52823.55
645.10	53097.39
645.25	52837.59
645.39	52699.50
645.54	52942.92
645.69	52975.69
645.83	52615.24
645.98	52474.81
646.13	53272.93
646.27	53031.86
646.42	52704.18
646.57	52619.92
646.71	52933.56
646.86	52610.56
647.00	52523.96
647.15	52472.47
647.30	52374.17
647.44	52598.86
647.59	52533.32
647.74	52671.42
647.88	52456.09
648.03	52556.73
648.17	52547.37
648.32	52561.41
648.47	52556.73
648.61	52112.03
648.76	52549.71
648.90	52280.55
649.05	52554.39
649.20	52390.55
649.34	52275.87
649.49	52006.70
649.63	52083.94
649.78	52428.00
649.92	52196.29
650.07	52240.76
650.21	52128.41
650.36	52273.52
650.51	52027.77
650.65	52191.61
650.80	52420.98
650.94	52509.92
651.09	51964.57
651.23	51978.62
651.38	52034.79
651.52	51798.40
651.67	51660.30
651.81	51611.15
651.96	51927.13
652.10	52156.50
652.25	52018.41
652.39	51779.67
652.54	51784.35
652.68	51856.91
652.83	51793.71
652.97	52112.03
653.12	51756.27
653.26	51782.01
653.41	51821.80
653.55	51377.10
653.70	51484.76
653.84	51463.70
653.99	51854.57
654.13	51529.23
654.27	51664.99
654.42	51613.49
654.56	51208.58
654.71	51461.36
654.85	51349.01
655.00	51384.12
655.14	51517.53
655.29	51145.39
655.43	51554.98
655.57	51168.79
655.72	51264.75
655.86	51049.42
656.01	50988.57
656.15	51136.02
656.30	51239.01
656.44	51065.81
656.58	51019.00
656.73	50873.88
656.87	50894.95
657.01	50937.08
657.16	51494.13
657.30	51103.26
657.45	51344.33
657.59	51161.77
657.73	50834.10
657.88	51077.51
658.02	50578.98
658.16	50419.82
658.31	50761.54
658.45	50742.81
658.60	50696.00
658.74	50576.64
658.88	50461.95
659.03	50513.44
659.17	50347.26
659.31	50445.57
659.46	50499.40
659.60	50361.31
659.74	50508.76
659.89	50330.88
660.03	50431.52
660.17	50342.58
660.32	49956.39
660.46	50122.57
660.60	49804.26
660.74	50595.36
660.89	50089.80
661.03	49956.39
661.17	50059.38
661.32	49682.55
661.46	49771.49
661.60	49766.81
661.74	49687.23
661.89	49448.50
662.03	49916.61
662.17	49406.37
662.31	49670.85
662.46	49694.25
662.60	49577.23
662.74	49249.55
662.88	49394.67
663.03	49474.24
663.17	49118.48
663.31	48926.56
663.45	49015.50
663.60	49048.27
663.74	48622.29
663.88	48879.75
664.02	49010.82
664.17	49106.78
664.31	49069.33
664.45	48935.92
664.59	48975.71
664.73	48418.66
664.88	48673.78
665.02	48388.24
665.16	48219.72
665.30	48516.96
665.44	47978.64
665.59	47936.51
665.73	47817.14
665.87	47751.61
666.01	47873.32
666.15	48086.31
666.29	48240.78
666.44	48369.51
666.58	47980.98
666.72	47952.90
666.86	47955.24
667.00	48149.50
667.14	47856.93
667.28	47889.70
667.43	47672.03
667.57	47650.97
667.71	47388.83
667.85	47386.49
667.99	47632.24
668.13	47250.74
668.27	47098.60
668.41	47702.46
668.56	46773.27
668.70	47299.89
668.84	47302.23
668.98	47243.71
669.12	46932.42
669.26	46986.25
669.40	46834.12
669.54	46726.46
669.68	46777.95
669.82	46059.40
669.96	46216.22
670.10	46581.34
670.25	46621.13
670.39	46117.92
670.53	46101.53
670.67	45984.51
670.81	46155.36
670.95	46176.43
671.09	46253.67
671.23	45748.11
671.37	46239.62
671.51	45846.41
671.65	46141.32
671.79	45958.76
671.93	45743.43
672.07	45743.43
672.21	45375.97
672.35	45242.56
672.49	45155.96
672.63	45331.50
672.77	44816.58
672.91	45109.14
673.05	44720.62
673.19	44706.57
673.33	45174.68
673.47	45050.63
673.61	44886.79
673.75	44765.09
673.89	44638.70
674.03	44545.08
674.17	44598.91
674.31	44472.52
674.45	44275.91
674.59	44254.85
674.73	44247.83
674.87	43988.03
675.01	43540.99
675.15	43674.40
675.29	43700.14
675.43	43871.00
675.56	43592.48
675.70	43887.39
675.84	43412.26
675.98	42412.85
676.12	43653.33
676.26	43302.25
676.40	43379.49
676.54	43049.47
676.68	43288.21
676.82	42167.09
676.96	42543.92
677.10	42108.58
677.23	42263.05
677.37	41902.61
677.51	41881.55
677.65	41930.70
677.79	41041.29
677.93	41303.43
678.07	41675.58
678.21	41118.53
678.34	41361.95
678.48	41294.07
678.62	41078.74
678.76	41092.79
678.90	40973.42
679.04	40671.49
679.18	40584.89
679.31	40187.00
679.45	40208.06
679.59	40299.34
679.73	40231.47
679.87	40194.02
680.00	39487.18
680.14	39578.46
680.28	39707.19
680.42	39908.47
680.56	39643.99
680.70	39274.19
680.83	39648.68
680.97	39274.19
681.11	39482.50
681.25	38969.92
681.39	39400.58
681.52	38944.17
681.66	38871.62
681.80	38555.64
681.94	38419.89
682.07	38871.62
682.21	37937.74
682.35	38188.18
682.49	37923.70
682.62	38066.47
682.76	37706.03
682.90	37816.04
683.04	37481.34
683.17	38026.68
683.31	37635.81
683.45	37645.18
683.59	37202.82
683.72	37170.05
683.86	37027.28
684.00	37064.72
684.13	36844.71
684.27	36315.75
684.41	36271.28
684.55	36313.41
684.68	36339.16
684.82	36313.41
684.96	35796.15
685.09	35702.53
685.23	35798.49
685.37	35875.73
685.50	35945.95
685.64	35882.75
685.78	35349.11
685.91	35262.51
686.05	35377.20
686.19	34991.01
686.32	35014.41
686.46	34391.83
686.60	34438.64
686.73	34588.44
686.87	34258.42
687.01	34232.68
687.14	34167.14
687.28	33841.81
687.42	33893.30
687.55	33394.76
687.69	33331.57
687.82	33532.86
687.96	33713.08
688.10	33420.51
688.23	33670.95
688.37	33057.73
688.50	33441.57
688.64	32961.76
688.78	33202.84
688.91	32643.45
689.05	32737.07
689.18	32613.02
689.32	31859.37
689.46	31840.65
689.59	31945.97
689.73	32163.64
689.86	31962.36
690.00	31964.70
690.13	31707.24
690.27	31681.49
690.41	31683.83
690.54	31431.05
690.68	31681.49
690.81	31828.95
690.95	31402.97
691.08	31367.86
691.22	31054.23
691.35	30705.49
691.49	30705.49
691.62	30031.41
691.76	30302.92
691.89	30417.60
692.03	29788.00
692.16	29975.24
692.30	30096.95
692.43	29706.08
692.57	29577.35
692.70	29687.36
692.84	29315.21
692.97	29881.62
693.11	29369.04
693.24	29392.45
693.38	29127.97
693.51	28996.90
693.65	29015.62
693.78	28938.38
693.92	28842.42
694.05	28435.17
694.19	28428.15
694.32	28662.20
694.45	28053.66
694.59	27901.53
694.72	28292.40
694.86	27772.80
694.99	27618.32
695.13	27498.95
695.26	27679.18
695.39	27782.16
695.53	27487.25
695.66	27644.07
695.80	27517.68
695.93	27520.02
696.07	27178.30
696.20	26810.84
696.33	26712.53
696.47	26710.19
696.60	26335.71
696.73	26635.30
696.87	26478.48
697.00	26185.91
697.14	26052.50
697.27	25530.56
697.40	25743.55
697.54	25432.26
697.67	25219.27
697.80	25205.23
697.94	25226.29
698.07	24886.92
698.21	24933.73
698.34	25041.39
698.47	25205.23
698.61	24566.26
698.74	24713.72
698.87	24774.57
699.01	24744.14
699.14	24507.75
699.27	24311.14
699.40	24676.27
699.54	24091.13
699.67	23796.23
699.80	23791.55
699.94	23487.28
700.07	23555.15
700.20	23206.41
700.34	23576.22
700.47	23239.18
700.60	23463.87
700.73	23290.67
700.87	23262.58
701.00	23068.32
701.13	23234.50
701.26	23063.64
701.40	23016.83
701.53	22810.86
701.66	22944.27
701.79	22586.17
701.93	22324.03
702.06	22333.39
702.19	22094.66
702.32	21671.02
702.46	21659.32
702.59	21563.36
702.72	21380.79
702.85	21390.16
702.99	21406.54
703.12	21345.69
703.25	21074.18
703.38	21343.35
703.51	21291.85
703.65	21301.22
703.78	20868.22
703.91	20833.11
704.04	21020.35
704.17	20959.50
704.31	20475.01
704.44	20435.22
704.57	20484.37
704.70	20486.71
704.83	20283.08
704.96	19962.43
705.10	19943.70
705.23	19541.13
>>>>>End Processed Spectral Data<<<<<
