SpectraSuite Data File
++++++++++++++++++++++++++++++++++++
Date: Fri Oct 18 13:55:52 GMT-05:00 2013
User: bianchi
Dark Spectrum Present: No
Reference Spectrum Present: No
Number of Sampled Component Spectra: 1
Spectrometers: USB2+H05261
Integration Time (usec): 100000 (USB2+H05261)
Spectra Averaged: 1 (USB2+H05261)
Boxcar Smoothing: 0 (USB2+H05261)
Correct for Electrical Dark: No (USB2+H05261)
Strobe/Lamp Enabled: No (USB2+H05261)
Correct for Detector Non-linearity: No (USB2+H05261)
Correct for Stray Light: No (USB2+H05261)
Number of Pixels in Processed Spectrum: 2048
>>>>>Begin Processed Spectral Data<<<<<
365.73	0.00
365.92	0.00
366.12	0.00
366.32	0.00
366.52	0.00
366.72	0.00
366.91	0.00
367.11	0.00
367.31	0.00
367.51	0.00
367.70	0.00
367.90	0.00
368.10	0.00
368.30	0.00
368.49	0.00
368.69	0.00
368.89	0.00
369.09	0.00
369.28	0.00
369.48	0.00
369.68	0.00
369.87	0.00
370.07	0.00
370.27	0.00
370.47	0.00
370.66	266.82
370.86	259.80
371.06	271.50
371.25	379.17
371.45	313.63
371.65	376.83
371.84	301.93
372.04	325.33
372.24	372.15
372.44	301.93
372.63	351.08
372.83	351.08
373.03	388.53
373.22	351.08
373.42	386.19
373.62	402.57
373.81	339.38
374.01	423.64
374.21	409.59
374.40	468.11
374.60	458.74
374.79	411.93
374.99	421.30
375.19	442.36
375.38	456.40
375.58	402.57
375.78	512.58
375.97	491.51
376.17	524.28
376.37	526.62
376.56	489.17
376.76	414.27
376.95	444.70
377.15	440.02
377.35	589.82
377.54	449.38
377.74	451.72
377.93	428.32
378.13	465.77
378.33	500.87
378.52	496.19
378.72	559.39
378.91	517.26
379.11	477.47
379.31	486.83
379.50	402.57
379.70	571.09
379.89	580.45
380.09	547.69
380.28	512.58
380.48	472.79
380.68	587.47
380.87	547.69
381.07	543.00
381.26	662.37
381.46	559.39
381.65	564.07
381.85	610.88
382.04	601.52
382.24	667.05
382.43	589.82
382.63	622.58
382.83	573.43
383.02	723.23
383.22	737.27
383.41	671.73
383.61	645.99
383.80	709.18
384.00	603.86
384.19	674.07
384.39	631.94
384.58	746.63
384.78	634.29
384.97	681.10
385.17	671.73
385.36	624.92
385.56	748.97
385.75	641.31
385.95	730.25
386.14	615.56
386.34	763.01
386.53	854.30
386.72	683.44
386.92	774.72
387.11	702.16
387.31	751.31
387.50	812.17
387.70	697.48
387.89	671.73
388.09	777.06
388.28	746.63
388.48	781.74
388.67	849.61
388.86	727.91
389.06	765.36
389.25	809.83
389.45	823.87
389.64	844.93
389.84	863.66
390.03	826.21
390.22	891.74
390.42	837.91
390.61	854.30
390.81	849.61
391.00	891.74
391.19	861.32
391.39	875.36
391.58	896.43
391.78	940.90
391.97	980.68
392.16	873.02
392.36	945.58
392.55	1043.88
392.75	933.87
392.94	938.55
393.13	1025.15
393.33	1006.43
393.52	966.64
393.71	1025.15
393.91	999.41
394.10	954.94
394.29	985.37
394.49	1057.92
394.68	1053.24
394.88	1039.20
395.07	1088.35
395.26	1100.05
395.46	1118.78
395.65	1284.95
395.84	1137.50
396.04	1179.63
396.23	1109.41
396.42	1055.58
396.62	1132.82
396.81	1172.61
397.00	1270.91
397.19	1259.21
397.39	1210.06
397.58	1259.21
397.77	1219.42
397.97	1193.67
398.16	1327.08
398.35	1341.13
398.55	1205.38
398.74	1420.71
398.93	1294.32
399.12	1306.02
399.32	1411.34
399.51	1284.95
399.70	1427.73
399.90	1366.87
400.09	1427.73
400.28	1423.05
400.47	1472.20
400.67	1420.71
400.86	1430.07
401.05	1507.30
401.24	1563.48
401.44	1472.20
401.63	1455.81
401.82	1558.80
402.01	1493.26
402.21	1504.96
402.40	1535.39
402.59	1668.80
402.78	1657.10
402.97	1535.39
403.17	1607.95
403.36	1586.88
403.55	1598.59
403.74	1575.18
403.93	1647.74
404.13	1701.57
404.32	1703.91
404.51	1657.10
404.70	1715.61
404.89	1640.72
405.09	1804.55
405.28	1715.61
405.47	1729.66
405.66	1825.62
405.85	1860.73
406.05	1778.81
406.24	1853.70
406.43	1820.94
406.62	2022.22
406.81	2050.31
407.00	1827.96
407.20	1975.41
407.39	1825.62
407.58	2045.63
407.77	2101.80
407.96	1991.80
408.15	2237.55
408.34	2045.63
408.54	2022.22
408.73	2195.42
408.92	2073.71
409.11	2092.44
409.30	2263.30
409.49	2232.87
409.68	2162.66
409.87	2216.49
410.07	2340.54
410.26	2172.02
410.45	2286.70
410.64	2270.32
410.83	2387.35
411.02	2359.26
411.21	2429.48
411.40	2305.43
411.59	2523.10
411.78	2431.82
411.98	2410.75
412.17	2483.31
412.36	2679.91
412.55	2534.80
412.74	2665.87
412.93	2747.79
413.12	2712.68
413.31	2888.22
413.50	2635.44
413.69	2771.19
413.88	2754.81
414.07	2785.24
414.26	2881.20
414.45	2939.71
414.64	2813.32
414.83	2986.52
415.02	3059.08
415.22	3012.27
415.41	3105.89
415.60	3056.74
415.79	3038.02
415.98	3143.34
416.17	3201.85
416.36	3229.94
416.55	3187.81
416.74	3222.92
416.93	3225.26
417.12	3342.28
417.31	3379.73
417.50	3410.16
417.69	3552.93
417.88	3515.48
418.07	3456.97
418.26	3382.07
418.45	3524.85
418.64	3637.19
418.83	3592.72
419.02	3487.40
419.21	3705.07
419.39	3634.85
419.58	3639.53
419.77	3590.38
419.96	3646.55
420.15	3831.46
420.34	3758.90
420.53	3761.24
420.72	3817.41
420.91	3794.01
421.10	3882.95
421.29	3985.93
421.48	3782.31
421.67	4060.83
421.86	3880.61
422.05	3889.97
422.24	3754.22
422.43	4138.07
422.61	4063.17
422.80	4114.66
422.99	4126.36
423.18	3957.85
423.37	3953.16
423.56	4042.11
423.75	3969.55
423.94	3978.91
424.13	3817.41
424.32	3999.98
424.50	4231.69
424.69	4332.33
424.88	4315.95
425.07	4119.34
425.26	4077.21
425.45	4107.64
425.64	4182.54
425.83	4163.81
426.01	4180.20
426.20	4159.13
426.39	4145.09
426.58	4304.25
426.77	4241.05
426.96	4189.56
427.15	4215.30
427.33	4269.14
427.52	4210.62
427.71	4337.01
427.90	4337.01
428.09	4451.70
428.28	4477.44
428.46	4461.06
428.65	4332.33
428.84	4514.89
429.03	4636.60
429.22	4456.38
429.40	4596.81
429.59	4695.11
429.78	4489.15
429.97	4367.44
430.16	4566.39
430.34	4652.98
430.53	4795.76
430.72	4648.30
430.91	4620.22
431.10	4741.93
431.28	4837.89
431.47	4791.08
431.66	4940.87
431.85	4805.12
432.03	4992.36
432.22	5039.17
432.41	5015.77
432.60	5172.58
432.79	4894.06
432.97	5090.67
433.16	4908.10
433.35	4966.62
433.54	4975.98
433.72	5224.08
433.91	5074.28
434.10	5205.35
434.28	5055.56
434.47	5156.20
434.66	5308.34
434.85	5376.21
435.03	5188.97
435.22	5153.86
435.41	5448.77
435.59	5331.74
435.78	5430.04
435.97	5472.17
436.16	5392.59
436.34	5334.08
436.53	5406.64
436.72	5416.00
436.90	5483.88
437.09	5633.67
437.28	5366.85
437.46	5636.01
437.65	5610.26
437.84	5563.45
438.02	5596.22
438.21	5699.20
438.40	5526.00
438.58	5846.66
438.77	5944.96
438.96	5860.70
439.14	5912.19
439.33	5980.07
439.52	5902.83
439.70	5753.04
439.89	6237.53
440.08	6176.67
440.26	6293.70
440.45	6225.82
440.63	6312.42
440.82	6310.08
441.01	6335.83
441.19	6401.37
441.38	6464.56
441.57	6363.92
441.75	6532.44
441.94	6740.74
442.12	6682.23
442.31	6647.12
442.50	6773.51
442.68	6651.80
442.87	6841.39
443.05	6745.42
443.24	6794.58
443.43	6829.68
443.61	6888.20
443.80	7047.35
443.98	6733.72
444.17	6731.38
444.35	6937.35
444.54	6927.99
444.73	6855.43
444.91	6876.49
445.10	6920.96
445.28	6745.42
445.47	7021.61
445.65	6895.22
445.84	7082.46
446.02	7014.59
446.21	6869.47
446.39	7028.63
446.58	7068.42
446.77	7138.63
446.95	7061.40
447.14	7063.74
447.32	6993.52
447.51	7274.38
447.69	7140.97
447.88	7229.91
448.06	7049.69
448.25	7019.27
448.43	7056.72
448.62	7119.91
448.80	7187.79
448.99	7239.28
449.17	7274.38
449.36	7101.19
449.54	7258.00
449.73	7445.24
449.91	7358.64
450.10	7396.09
450.28	7489.71
450.46	7555.25
450.65	7681.64
450.83	7541.21
451.02	7676.96
451.20	7688.66
451.39	7822.07
451.57	7737.81
451.76	7676.96
451.94	7819.73
452.13	7742.49
452.31	7756.54
452.49	7620.78
452.68	7667.60
452.86	7803.35
453.05	7964.84
453.23	7824.41
453.42	7925.05
453.60	7700.36
453.78	7995.27
453.97	7803.35
454.15	7775.26
454.34	7920.37
454.52	8046.76
454.70	8039.74
454.89	8102.93
455.07	8241.03
455.26	8212.94
455.44	8325.29
455.62	8437.63
455.81	8208.26
455.99	8217.62
456.17	8252.73
456.36	8400.18
456.54	8479.76
456.73	8344.01
456.91	8580.40
457.09	8503.17
457.28	8645.94
457.46	8580.40
457.64	8940.85
457.83	8898.72
458.01	8634.24
458.19	8877.65
458.38	8631.90
458.56	8943.19
458.74	8847.22
458.93	8896.38
459.11	9107.02
459.29	8945.53
459.48	9041.49
459.66	9104.68
459.84	9226.39
460.03	9207.67
460.21	9109.36
460.39	9198.31
460.57	9221.71
460.76	9348.10
460.94	9514.28
461.12	9378.53
461.31	9294.27
461.49	9327.03
461.67	9191.28
461.85	9303.63
462.04	9497.89
462.22	9977.70
462.40	9610.24
462.59	9675.77
462.77	9666.41
462.95	9689.82
463.13	9493.21
463.32	9614.92
463.50	9956.64
463.68	9870.04
463.86	9760.03
464.05	9582.15
464.23	9577.47
464.41	9884.08
464.59	9654.71
464.78	9643.01
464.96	9832.59
465.14	9832.59
465.32	10008.13
465.50	10052.60
465.69	10361.55
465.87	10076.01
466.05	9944.94
466.23	10054.94
466.41	10169.63
466.60	10579.22
466.78	10087.71
466.96	9970.68
467.14	10291.34
467.32	10157.92
467.51	10478.58
467.69	10139.20
467.87	10389.64
468.05	10272.61
468.23	10384.96
468.41	10403.68
468.60	10415.38
468.78	10459.85
468.96	10473.90
469.14	10590.92
469.32	10729.02
469.50	10431.77
469.69	10712.63
469.87	10991.16
470.05	10684.55
470.23	11150.31
470.41	10789.87
470.59	10988.82
470.77	10869.45
470.95	10927.96
471.14	11159.67
471.32	10953.71
471.50	11274.36
471.68	11110.52
471.86	11234.57
472.04	11358.62
472.22	11513.10
472.40	11405.43
472.58	11407.77
472.77	11538.84
472.95	11541.18
473.13	11939.07
473.31	11726.08
473.49	11552.88
473.67	11761.19
473.85	11913.33
474.03	12098.23
474.21	11929.71
474.39	11976.52
474.57	12072.48
474.75	12161.42
474.93	12404.84
475.12	12409.52
475.30	12451.65
475.48	12606.13
475.66	12987.63
475.84	12538.25
476.02	12758.26
476.20	12613.15
476.38	12798.05
476.56	13319.99
476.74	13074.23
476.92	13137.43
477.10	13247.43
477.28	13472.12
477.46	13186.58
477.64	13551.70
477.82	13633.62
478.00	13888.74
478.18	14031.51
478.36	14010.45
478.54	14188.33
478.72	14415.36
478.90	14085.34
479.08	14331.10
479.26	14516.00
479.44	14579.20
479.62	14953.68
479.80	14848.36
479.98	14829.63
480.16	15150.29
480.34	15005.17
480.52	14988.79
480.70	15150.29
480.88	15098.80
481.06	15587.97
481.24	15461.58
481.41	15690.95
481.59	16074.80
481.77	16163.74
481.95	16224.59
482.13	16341.62
482.31	16140.33
482.49	16311.19
482.67	16879.94
482.85	16709.08
483.03	16889.31
483.21	17205.28
483.39	17341.03
483.57	17326.99
483.74	17380.82
483.92	17331.67
484.10	17504.87
484.28	17792.75
484.46	18064.25
484.64	18310.01
484.82	17872.33
485.00	18136.81
485.18	18691.52
485.35	18855.36
485.53	18721.95
485.71	18913.87
485.89	19389.00
486.07	19154.94
486.25	19168.99
486.43	19225.16
486.61	19894.55
486.78	20009.24
486.96	19747.10
487.14	20201.16
487.32	20201.16
487.50	20226.91
487.68	20350.96
487.85	20723.10
488.03	20978.22
488.21	21315.26
488.39	21202.91
488.57	21565.70
488.75	21617.19
488.92	22005.72
489.10	21844.22
489.28	21886.35
489.46	22228.07
489.64	22349.78
489.81	22675.11
489.99	22600.21
490.17	22609.58
490.35	23105.77
490.53	23302.37
490.70	23328.12
490.88	23019.17
491.06	23676.86
491.24	23632.39
491.41	23730.69
491.59	23871.12
491.77	24107.52
491.95	24369.66
492.13	24299.44
492.30	24416.47
492.48	24854.15
492.66	24842.45
492.84	24758.19
493.01	25425.24
493.19	25333.96
493.37	25390.13
493.54	25799.73
493.72	25855.90
493.90	25937.82
494.08	26085.27
494.25	25951.86
494.43	25993.99
494.61	26607.21
494.79	26757.00
494.96	26452.73
495.14	26930.20
495.32	27012.12
495.49	27325.75
495.67	27227.45
495.85	27487.25
496.02	27625.34
496.20	28119.20
496.38	27845.35
496.55	27728.33
496.73	28819.02
496.91	28114.52
497.09	28154.30
497.26	28657.52
497.44	28809.65
497.62	28627.09
497.79	28999.24
497.97	29191.16
498.14	29614.80
498.32	29626.50
498.50	29743.53
498.67	29762.25
498.85	29780.98
499.03	29675.65
499.20	29734.17
499.38	30033.75
499.56	30450.37
499.73	30412.92
499.91	30527.61
500.08	30810.81
500.26	30279.51
500.44	31028.48
500.61	30951.24
500.79	30806.13
500.97	30913.80
501.14	31676.81
501.32	31489.57
501.49	31594.89
501.67	31276.58
501.84	31938.95
502.02	31711.92
502.20	31693.19
502.37	32030.23
502.55	32299.39
502.72	32517.06
502.90	31931.93
503.07	32121.51
503.25	32226.84
503.43	32458.55
503.60	32870.48
503.78	32994.53
503.95	33345.61
504.13	32968.79
504.30	32725.37
504.48	33097.52
504.65	32924.32
504.83	33490.73
505.01	33523.49
505.18	33434.55
505.36	34204.59
505.53	33598.39
505.71	33844.15
505.88	34260.76
506.06	33830.10
506.23	34155.44
506.41	33935.43
506.58	34473.75
506.76	34263.10
506.93	34455.03
507.11	34630.57
507.28	34618.86
507.46	35138.46
507.63	35311.66
507.81	35182.93
507.98	35213.36
508.16	35150.17
508.33	35435.71
508.50	35255.49
508.68	35421.67
508.85	35854.67
509.03	35686.15
509.20	36041.91
509.38	36701.94
509.55	36182.34
509.73	35835.94
509.90	36243.20
510.08	36566.19
510.25	36212.77
510.42	36500.65
510.60	36744.07
510.77	37076.43
510.95	37120.90
511.12	36788.54
511.30	36919.61
511.47	37212.18
511.64	37228.56
511.82	37404.10
511.99	37310.48
512.17	37612.41
512.34	37661.56
512.51	38103.92
512.69	38099.24
512.86	38050.09
513.04	38244.35
513.21	38195.20
513.38	38768.63
513.56	38169.46
513.73	38291.16
513.90	38590.75
514.08	38462.02
514.25	38930.13
514.43	38948.85
514.60	39019.07
514.77	39276.53
514.95	39295.25
515.12	39356.11
515.29	39082.27
515.47	39679.10
515.64	39950.60
515.81	39370.15
515.99	39632.29
516.16	39943.58
516.33	39779.74
516.51	40182.32
516.68	40018.48
516.85	39782.09
517.03	40053.59
517.20	40275.94
517.37	40306.37
517.54	40240.83
517.72	40271.26
517.89	40612.98
518.06	40552.12
518.24	40229.13
518.41	40666.81
518.58	40751.07
518.75	40627.02
518.93	41268.33
519.10	40968.74
519.27	41055.34
519.45	41120.87
519.62	41139.60
519.79	41333.86
519.96	41364.29
520.14	41928.36
520.31	41399.40
520.48	41628.77
520.65	41778.56
520.83	42162.41
521.00	41940.06
521.17	41605.36
521.34	41865.16
521.52	42047.72
521.69	42000.91
521.86	42670.31
522.03	42679.67
522.20	42157.73
522.38	42916.06
522.55	42307.52
522.72	42611.79
522.89	42745.20
523.07	43061.18
523.24	43040.11
523.41	43213.31
523.58	42630.52
523.75	43765.68
523.92	43339.70
524.10	43152.46
524.27	43246.08
524.44	43517.58
524.61	43665.03
524.78	43765.68
524.96	44004.41
525.13	43721.21
525.30	43784.40
525.47	44252.51
525.64	44069.95
525.81	44231.44
525.98	44582.52
526.16	44170.59
526.33	44231.44
526.50	44444.43
526.67	44282.94
526.84	44519.33
527.01	44498.26
527.18	44442.09
527.36	44776.79
527.53	44725.30
527.70	45057.65
527.87	45413.41
528.04	44952.33
528.21	44982.76
528.38	44816.58
528.55	45345.54
528.72	45055.31
528.89	45282.34
529.07	44999.14
529.24	44961.69
529.41	45455.54
529.58	45111.49
529.75	45277.66
529.92	45708.32
530.09	45654.49
530.26	45703.64
530.43	45907.27
530.60	45429.80
530.77	45801.94
530.94	45925.99
531.11	46232.60
531.28	45951.74
531.46	45958.76
531.63	46162.39
531.80	46014.93
531.97	46279.41
532.14	46501.76
532.31	46492.40
532.48	46300.48
532.65	46553.26
532.82	46143.66
532.99	46506.44
533.16	46492.40
533.33	46363.67
533.50	47110.30
533.67	47021.36
533.84	46887.95
534.01	46497.08
534.18	46632.83
534.35	46703.05
534.52	47035.41
534.69	47349.04
534.86	47185.20
535.03	47154.77
535.20	47051.79
535.37	47491.81
535.54	47246.05
535.71	47075.19
535.88	47367.76
536.05	47435.64
536.22	47562.03
536.38	47737.57
536.55	47796.08
536.72	47875.66
536.89	47412.23
537.06	47995.03
537.23	47634.58
537.40	47749.27
537.57	47599.47
537.74	47980.98
537.91	48435.05
538.08	48233.76
538.25	48109.71
538.42	48149.50
538.59	48292.27
538.75	48341.42
538.92	48341.42
539.09	48350.79
539.26	48325.04
539.43	48598.88
539.60	48598.88
539.77	48729.95
539.94	48425.68
540.11	48765.06
540.28	48673.78
540.44	48495.90
540.61	48680.80
540.78	48624.63
540.95	48879.75
541.12	48790.81
541.29	48868.05
541.46	48568.46
541.62	48900.81
541.79	48486.54
541.96	48271.21
542.13	48605.91
542.30	48999.12
542.47	49244.87
542.63	49106.78
542.80	49441.48
542.97	49497.65
543.14	49546.80
543.31	49258.91
543.48	49343.17
543.64	49837.03
543.81	49804.26
543.98	49476.58
544.15	49855.75
544.32	49930.65
544.48	49902.56
544.65	49750.43
544.82	49797.24
544.99	49448.50
545.16	49806.60
545.32	49525.74
545.49	50047.68
545.66	50506.42
545.83	50361.31
546.00	50342.58
546.16	50019.59
546.33	50148.32
546.50	49654.47
546.67	50389.39
546.83	49895.54
547.00	50424.50
547.17	49921.29
547.34	50312.16
547.50	50239.60
547.67	50443.23
547.84	50286.41
548.00	50251.30
548.17	50431.52
548.34	50408.12
548.51	50667.92
548.67	50539.19
548.84	50817.71
549.01	50431.52
549.18	50838.78
549.34	50894.95
549.51	50632.81
549.68	50595.36
549.84	50562.59
550.01	50674.94
550.18	50951.12
550.34	50656.21
550.51	50899.63
550.68	51096.24
550.84	50534.51
551.01	51100.92
551.18	50773.24
551.34	51213.26
551.51	50997.93
551.68	51093.89
551.84	51117.30
552.01	51208.58
552.18	51185.18
552.34	51007.29
552.51	51091.55
552.68	51058.79
552.84	50796.65
553.01	51613.49
553.18	51482.42
553.34	51206.24
553.51	51576.04
553.67	51463.70
553.84	51519.87
554.01	51615.83
554.17	51440.29
554.34	51690.73
554.51	51529.23
554.67	51751.59
554.84	51622.86
555.00	51707.12
555.17	51585.41
555.33	51753.93
555.50	51578.39
555.67	51669.67
555.83	51510.51
556.00	51646.26
556.16	52016.07
556.33	51653.28
556.50	51849.89
556.66	51938.83
556.83	51564.34
556.99	52119.05
557.16	51913.08
557.32	52222.03
557.49	52238.42
557.65	51583.07
557.82	51847.55
557.98	52030.11
558.15	51817.12
558.32	52320.34
558.48	52184.58
558.65	52257.14
558.81	51952.87
558.98	52088.62
559.14	52184.58
559.31	51971.60
559.47	52128.41
559.64	51910.74
559.80	52184.58
559.97	52243.10
560.13	51943.51
560.30	52083.94
560.46	51892.02
560.63	52016.07
560.79	52608.22
560.96	52011.38
561.12	52163.52
561.29	52425.66
561.45	52306.29
561.61	52355.44
561.78	52411.62
561.94	52402.25
562.11	52535.66
562.27	52243.10
562.44	52339.06
562.60	52420.98
562.77	52327.36
562.93	52322.68
563.10	52439.70
563.26	52481.83
563.42	52772.06
563.59	52495.88
563.75	52327.36
563.92	52189.27
564.08	52573.11
564.24	52329.70
564.41	52362.46
564.57	52322.68
564.74	52437.36
564.90	52341.40
565.07	52662.05
565.23	52423.32
565.39	52795.46
565.56	52788.44
565.72	52566.09
565.88	52203.31
566.05	52802.49
566.21	52781.42
566.38	52449.06
566.54	52453.75
566.70	52795.46
566.87	52872.70
567.03	52687.80
567.19	52837.59
567.36	52898.45
567.52	52626.95
567.68	52774.40
567.85	52683.12
568.01	52521.62
568.17	52795.46
568.34	52935.90
568.50	53001.43
568.66	52842.27
568.83	53006.11
568.99	52294.59
569.15	52863.34
569.32	52861.00
569.48	52793.12
569.64	52865.68
569.81	52708.86
569.97	52589.50
570.13	52657.37
570.30	52739.29
570.46	52973.34
570.62	52776.74
570.78	52659.71
570.95	52425.66
571.11	52900.79
571.27	52722.91
571.43	52720.57
571.60	52865.68
571.76	52694.82
571.92	52933.56
572.09	53020.16
572.25	52851.64
572.41	53073.99
572.57	52933.56
572.74	52961.64
572.90	52933.56
573.06	53111.44
573.22	52795.46
573.38	52935.90
573.55	52863.34
573.71	53289.32
573.87	53315.06
574.03	52912.49
574.20	53343.15
574.36	52619.92
574.52	52687.80
574.68	52975.69
574.84	53010.79
575.01	52884.40
575.17	52973.34
575.33	52896.11
575.49	52861.00
575.65	53020.16
575.82	53050.58
575.98	52741.63
576.14	52947.60
576.30	52704.18
576.46	52619.92
576.62	52722.91
576.79	52633.97
576.95	52788.44
577.11	52870.36
577.27	52835.25
577.43	52835.25
577.59	52921.85
577.75	52802.49
577.92	52753.33
578.08	53017.82
578.24	52732.27
578.40	53022.50
578.56	53109.10
578.72	52938.24
578.88	53263.57
579.04	53167.61
579.21	52804.83
579.37	53081.01
579.53	53109.10
579.69	52743.97
579.85	52692.48
580.01	52898.45
580.17	52743.97
580.33	52956.96
580.49	53052.92
580.65	53326.77
580.82	52896.11
580.98	53191.01
581.14	53167.61
581.30	52973.34
581.46	52800.15
581.62	52949.94
581.78	52839.93
581.94	53010.79
582.10	53095.05
582.26	53139.52
582.42	52924.19
582.58	53073.99
582.74	52945.26
582.90	53158.25
583.06	53195.70
583.22	52968.66
583.38	52793.12
583.54	52978.03
583.70	52952.28
583.86	52905.47
584.02	52633.97
584.18	53176.97
584.34	52846.96
584.50	53345.49
584.66	53123.14
584.82	53050.58
584.98	52926.53
585.14	52956.96
585.30	52776.74
585.46	52912.49
585.62	52996.75
585.78	53352.51
585.94	52750.99
586.10	53010.79
586.26	52905.47
586.42	53371.24
586.58	53118.46
586.74	52928.87
586.90	52924.19
587.06	52589.50
587.22	52823.55
587.38	52704.18
587.54	53001.43
587.70	53272.93
587.86	53329.11
588.02	53216.76
588.18	53331.45
588.34	53490.60
588.49	53104.41
588.65	52884.40
588.81	52755.68
588.97	53146.54
589.13	53038.88
589.29	53294.00
589.45	53333.79
589.61	53289.32
589.77	53277.61
589.93	53326.77
590.08	53352.51
590.24	53261.23
590.40	53354.85
590.56	53134.84
590.72	52985.05
590.88	53209.74
591.04	53141.86
591.20	53497.62
591.35	53701.25
591.51	53588.91
591.67	53186.33
591.83	53270.59
591.99	53518.69
592.15	53221.44
592.31	53158.25
592.46	53230.80
592.62	53181.65
592.78	53319.74
592.94	53310.38
593.10	53062.29
593.26	53382.94
593.41	53294.00
593.57	53404.00
593.73	53425.07
593.89	53593.59
594.05	53301.02
594.20	53113.78
594.36	53408.68
594.52	53001.43
594.68	53282.30
594.84	52886.74
594.99	53483.58
595.15	53219.10
595.31	53556.14
595.47	53469.54
595.62	53439.11
595.78	53518.69
595.94	53387.62
596.10	53628.69
596.25	53347.83
596.41	53504.65
596.57	53095.05
596.73	53394.64
596.88	53216.76
597.04	53731.68
597.20	53380.60
597.36	53598.27
597.51	53457.84
597.67	53462.52
597.83	53441.45
597.99	53546.78
598.14	53134.84
598.30	53366.55
598.46	53258.89
598.61	53169.95
598.77	53148.88
598.93	53198.04
599.09	53542.10
599.24	53773.81
599.40	53478.90
599.56	53546.78
599.71	53429.75
599.87	53605.29
600.03	53165.27
600.18	53045.90
600.34	53137.18
600.50	53368.90
600.65	53155.91
600.81	53546.78
600.97	53216.76
601.12	53329.11
601.28	53717.64
601.44	53535.07
601.59	53382.94
601.75	53247.19
601.91	53605.29
602.06	53052.92
602.22	53127.82
602.37	52954.62
602.53	53408.68
602.69	53551.46
602.84	53310.38
603.00	53312.72
603.16	53600.61
603.31	53303.36
603.47	53394.64
603.62	53144.20
603.78	53308.04
603.94	53418.05
604.09	53312.72
604.25	53174.63
604.40	53378.26
604.56	53275.27
604.71	53530.39
604.87	53373.58
605.03	53467.20
605.18	53399.32
605.34	53256.55
605.49	53160.59
605.65	52935.90
605.80	52947.60
605.96	53020.16
606.12	53172.29
606.27	53198.04
606.43	53235.48
606.58	53418.05
606.74	53095.05
606.89	53160.59
607.05	53439.11
607.20	53104.41
607.36	52919.51
607.51	52879.72
607.67	52741.63
607.82	53256.55
607.98	52952.28
608.13	52886.74
608.29	53022.50
608.44	52933.56
608.60	52980.37
608.75	53181.65
608.91	52886.74
609.06	52828.23
609.22	53141.86
609.37	52561.41
609.53	52753.33
609.68	52542.69
609.84	52589.50
609.99	52690.14
610.15	52535.66
610.30	53059.94
610.46	52750.99
610.61	52481.83
610.76	52814.19
610.92	52875.04
611.07	52811.85
611.23	52554.39
611.38	52690.14
611.54	52760.36
611.69	52704.18
611.84	52083.94
612.00	52449.06
612.15	52388.21
612.31	52736.95
612.46	52435.02
612.62	52919.51
612.77	52786.10
612.92	52736.95
613.08	52694.82
613.23	52701.84
613.39	52336.72
613.54	52484.17
613.69	52231.40
613.85	52409.28
614.00	52594.18
614.15	52704.18
614.31	52467.79
614.46	52514.60
614.62	52383.53
614.77	52666.73
614.92	52533.32
615.08	52538.01
615.23	52294.59
615.38	52378.85
615.54	51854.57
615.69	52210.33
615.84	52285.23
616.00	52357.78
616.15	52004.36
616.30	52076.92
616.46	52435.02
616.61	52168.20
616.76	52097.98
616.92	52039.47
617.07	52362.46
617.22	52027.77
617.37	52215.01
617.53	52093.30
617.68	52184.58
617.83	52002.02
617.99	51716.48
618.14	52116.71
618.29	51927.13
618.45	52238.42
618.60	52048.83
618.75	52271.18
618.90	51831.16
619.06	51854.57
619.21	51873.29
619.36	51828.82
619.51	51564.34
619.67	51419.23
619.82	51571.36
619.97	51868.61
620.12	51503.49
620.28	51437.95
620.43	51819.46
620.58	51779.67
620.73	51433.27
620.89	51669.67
621.04	51873.29
621.19	51379.44
621.34	51550.30
621.49	51007.29
621.65	51246.03
621.80	51765.63
621.95	51414.55
622.10	51510.51
622.25	51143.05
622.41	51557.32
622.56	51058.79
622.71	51313.90
622.86	51363.06
623.01	51405.19
623.16	51405.19
623.32	51320.93
623.47	51178.15
623.62	51150.07
623.77	51152.41
623.92	51283.48
624.07	51131.34
624.23	51206.24
624.38	51150.07
624.53	51004.95
624.68	51075.17
624.83	51402.85
624.98	51283.48
625.13	50918.35
625.29	51138.36
625.44	50918.35
625.59	50908.99
625.74	50773.24
625.89	50632.81
626.04	50520.46
626.19	50508.76
626.34	50742.81
626.49	50672.60
626.65	50944.10
626.80	51086.87
626.95	50766.22
627.10	50752.18
627.25	50843.46
627.40	50628.13
627.55	50466.63
627.70	50197.47
627.85	49996.18
628.00	50209.17
628.15	50323.86
628.30	50209.17
628.45	50150.66
628.60	50356.63
628.76	50408.12
628.91	50286.41
629.06	50113.21
629.21	50532.17
629.36	50431.52
629.51	50010.23
629.66	50340.24
629.81	49680.21
629.96	49804.26
630.11	50176.40
630.26	50174.06
630.41	50057.04
630.56	49879.16
630.71	49965.76
630.86	50101.51
631.01	50010.23
631.16	50035.97
631.31	50167.04
631.46	49631.06
631.61	50078.10
631.76	49705.96
631.91	49792.56
632.06	49881.50
632.21	49284.66
632.36	49581.91
632.51	49167.63
632.66	49574.89
632.81	49649.78
632.96	49911.92
633.10	49886.18
633.25	49727.02
633.40	49359.56
633.55	49638.08
633.70	49329.13
633.85	49354.88
634.00	49111.46
634.15	49277.64
634.30	49219.13
634.45	49530.42
634.60	49287.00
634.75	49357.22
634.90	49034.22
635.05	49399.35
635.19	49331.47
635.34	49317.43
635.49	49092.74
635.64	49333.81
635.79	49261.26
635.94	49223.81
636.09	48694.85
636.24	48891.45
636.39	49020.18
636.53	48903.15
636.68	49272.96
636.83	48966.35
636.98	48800.17
637.13	48779.10
637.28	49172.31
637.43	48917.20
637.57	48823.58
637.72	48502.92
637.87	48961.67
638.02	48729.95
638.17	48994.43
638.32	48376.53
638.46	48535.69
638.61	48392.92
638.76	48479.52
638.91	48308.66
639.06	48451.43
639.20	48219.72
639.35	48437.39
639.50	48856.34
639.65	48472.49
639.80	48722.93
639.94	48666.76
640.09	48058.22
640.24	48460.79
640.39	48210.35
640.54	48158.86
640.68	47924.81
640.83	48046.52
640.98	48184.61
641.13	47803.10
641.27	48240.78
641.42	48088.65
641.57	47838.21
641.72	48526.33
641.86	47522.24
642.01	48083.97
642.16	48009.07
642.31	47547.98
642.45	47856.93
642.60	47576.07
642.75	48023.11
642.90	47428.62
643.04	47597.13
643.19	47377.12
643.34	47777.36
643.48	47784.38
643.63	47430.96
643.78	47943.53
643.93	48458.45
644.07	47730.54
644.22	47702.46
644.37	47917.79
644.51	47334.99
644.66	47351.38
644.81	47402.87
644.95	47271.80
645.10	47679.05
645.25	47302.23
645.39	47337.33
645.54	47498.83
645.69	47391.17
645.83	47063.49
645.98	47318.61
646.13	47323.29
646.27	47276.48
646.42	47152.43
646.57	47437.98
646.71	47269.46
646.86	47105.62
647.00	46782.63
647.15	46696.03
647.30	46747.52
647.44	46918.38
647.59	46902.00
647.74	46749.86
647.88	47042.43
648.03	47243.71
648.17	46480.70
648.32	46885.61
648.47	46892.63
648.61	46590.70
648.76	46553.26
648.90	47007.32
649.05	46864.55
649.20	46504.10
649.34	46824.76
649.49	46153.02
649.63	46611.77
649.78	46698.37
649.92	46265.37
650.07	46586.02
650.21	46773.27
650.36	46356.65
650.51	46754.54
650.65	46721.77
650.80	46829.44
650.94	46663.26
651.09	46422.19
651.23	46342.61
651.38	46665.60
651.52	45982.16
651.67	45951.74
651.81	46239.62
651.96	45977.48
652.10	46185.79
652.25	46354.31
652.39	45799.60
652.54	46157.70
652.68	46050.04
652.83	46150.68
652.97	46251.33
653.12	46405.80
653.26	46148.34
653.41	45825.35
653.55	45830.03
653.70	45387.67
653.84	45586.61
653.99	45673.21
654.13	46024.29
654.27	45769.18
654.42	45326.81
654.56	45586.61
654.71	45752.79
654.85	45879.18
655.00	45787.90
655.14	45649.81
655.29	45528.10
655.43	45862.80
655.57	45577.25
655.72	45450.86
655.86	45471.93
656.01	45420.44
656.15	44971.05
656.30	45097.44
656.44	44912.54
656.58	45017.86
656.73	45270.64
656.87	45181.70
657.01	45099.78
657.16	45474.27
657.30	45193.40
657.45	45570.23
657.59	45275.32
657.73	45144.25
657.88	44594.23
658.02	45151.27
658.16	44694.87
658.31	44753.38
658.45	44858.71
658.60	44524.01
658.74	44957.01
658.88	44877.43
659.03	44570.82
659.17	44685.51
659.31	44624.65
659.46	44067.61
659.60	44547.42
659.74	44526.35
659.89	44498.26
660.03	44339.11
660.17	44755.72
660.32	43959.94
660.46	44112.08
660.60	43789.08
660.74	43693.12
660.89	43894.41
661.03	43721.21
661.17	43756.32
661.32	43852.28
661.46	43655.67
661.60	43419.28
661.74	43365.45
661.89	43447.36
662.03	43519.92
662.17	43304.59
662.31	43278.85
662.46	43557.37
662.60	43035.43
662.74	43173.52
662.88	42913.72
663.03	43246.08
663.17	43051.81
663.31	42478.38
663.45	42916.06
663.60	43009.68
663.74	42644.56
663.88	43084.58
664.02	42777.97
664.17	43229.69
664.31	42794.36
664.45	42635.20
664.59	42670.31
664.73	42738.18
664.88	42656.26
665.02	42054.75
665.16	42473.70
665.30	42349.65
665.44	42153.05
665.59	41544.51
665.73	42050.06
665.87	41715.37
666.01	42286.46
666.15	42120.28
666.29	41764.52
666.44	42066.45
666.58	41687.28
666.72	41804.31
666.86	41823.03
667.00	41708.35
667.14	41581.96
667.28	41338.54
667.43	41827.71
667.57	41420.46
667.71	40847.03
667.85	41287.05
667.99	40751.07
668.13	40872.78
668.27	40645.74
668.41	41209.81
668.56	40610.64
668.70	40699.58
668.84	40954.69
668.98	40828.30
669.12	40966.40
669.26	40584.89
669.40	40837.67
669.54	40659.79
669.68	40217.43
669.82	40060.61
669.96	40203.38
670.10	40126.14
670.25	40268.92
670.39	40076.99
670.53	39847.62
670.67	39838.26
670.81	40217.43
670.95	40299.34
671.09	39779.74
671.23	40137.85
671.37	40165.93
671.51	40301.68
671.65	39786.77
671.79	39592.50
671.93	39292.91
672.07	39468.45
672.21	39337.38
672.35	39091.63
672.49	38916.09
672.63	39227.38
672.77	38806.08
672.91	38911.41
673.05	38703.10
673.19	38759.27
673.33	38567.35
673.47	38733.53
673.61	39332.70
673.75	38962.90
673.89	39019.07
674.03	38588.41
674.17	38380.10
674.31	38251.38
674.45	37846.46
674.59	37912.00
674.73	37865.19
674.87	37750.50
675.01	37406.44
675.15	37851.14
675.29	37610.07
675.43	37572.62
675.56	37483.68
675.70	37242.60
675.84	37979.87
675.98	36793.22
676.12	37415.80
676.26	37514.11
676.40	37031.96
676.54	37029.62
676.68	36982.80
676.82	35901.48
676.96	36311.07
677.10	36203.41
677.23	35744.66
677.37	36041.91
677.51	35732.96
677.65	35562.10
677.79	35627.63
677.93	35887.43
678.07	35534.01
678.21	35314.00
678.34	35534.01
678.48	35512.95
678.62	35288.26
678.76	35461.46
678.90	34911.43
679.04	34768.66
679.18	34955.90
679.31	34148.42
679.45	34565.03
679.59	34558.01
679.73	34448.00
679.87	34251.40
680.00	33923.72
680.14	34017.35
680.28	34195.23
680.42	34389.49
680.56	33958.83
680.70	33986.92
680.83	33631.16
680.97	33750.52
681.11	33507.11
681.25	33776.27
681.39	33535.20
681.52	33228.59
681.66	33242.63
681.80	32818.99
681.94	32603.66
682.07	32580.26
682.21	32608.34
682.35	32283.01
682.49	32329.82
682.62	32437.48
682.76	32268.97
682.90	32301.73
683.04	32243.22
683.17	32294.71
683.31	31964.70
683.45	32451.53
683.59	32020.87
683.72	31372.54
683.86	31124.44
684.00	31152.53
684.13	31143.17
684.27	30969.97
684.41	31133.81
684.55	30958.27
684.68	30480.80
684.82	30986.35
684.96	30876.35
685.09	30654.00
685.23	30396.54
685.37	30532.29
685.50	30335.68
685.64	30408.24
685.78	30113.33
685.91	30286.53
686.05	30031.41
686.19	29773.95
686.32	29577.35
686.46	29514.16
686.60	29390.11
686.73	29191.16
686.87	29497.77
687.01	29118.60
687.14	29095.20
687.28	28938.38
687.42	28797.95
687.55	28503.04
687.69	28697.31
687.82	28568.58
687.96	28711.35
688.10	28678.58
688.23	28744.12
688.37	28315.80
688.50	28418.78
688.64	28261.97
688.78	27976.42
688.91	27742.37
689.05	27681.52
689.18	27803.22
689.32	27510.66
689.46	27508.32
689.59	27274.26
689.73	27410.01
689.86	26974.67
690.00	26955.95
690.13	26960.63
690.27	26771.05
690.41	27098.72
690.54	26904.46
690.68	26602.53
690.81	26822.54
690.95	26691.47
691.08	26333.37
691.22	26492.52
691.35	26237.41
691.49	25745.89
691.62	25647.59
691.76	25699.08
691.89	25560.99
692.03	25261.40
692.16	25436.94
692.30	25446.30
692.43	25432.26
692.57	24999.26
692.70	25006.28
692.84	25230.98
692.97	25158.42
693.11	25223.95
693.24	24624.78
693.38	24680.95
693.51	24802.66
693.65	24809.68
693.78	24592.01
693.92	24840.11
694.05	24692.65
694.19	24159.01
694.32	24257.31
694.45	23880.49
694.59	24009.22
694.72	23793.89
694.86	23700.26
694.99	23295.35
695.13	23517.70
695.26	23360.89
695.39	22955.97
695.53	23421.74
695.66	23307.05
695.80	23480.25
695.93	23428.76
696.07	23147.90
696.20	22827.24
696.33	22712.56
696.47	22672.77
696.60	22506.59
696.73	22373.18
696.87	22462.12
697.00	21972.95
697.14	21951.88
697.27	21680.38
697.40	21640.59
697.54	21706.13
697.67	21411.22
697.80	21504.84
697.94	21273.13
698.07	21476.76
698.21	21142.06
698.34	21102.27
698.47	21446.33
698.61	21284.83
698.74	20936.09
698.87	21156.10
699.01	20711.40
699.14	20568.63
699.27	20884.60
699.40	20917.37
699.54	20271.38
699.67	20395.43
699.80	20063.07
699.94	19941.36
700.07	20105.20
700.20	19941.36
700.34	19536.45
700.47	19754.12
700.60	19789.23
700.73	19754.12
700.87	19644.12
701.00	19775.19
701.13	19625.39
701.26	19459.21
701.40	19653.48
701.53	19515.39
701.66	19389.00
701.79	18810.89
701.93	18827.27
702.06	18714.92
702.19	18485.55
702.32	18902.17
702.46	18377.89
702.59	18834.29
702.72	17980.00
702.85	18288.95
702.99	18445.76
703.12	18150.85
703.25	18115.75
703.38	18225.75
703.51	18050.21
703.65	17804.46
703.78	17776.37
703.91	17874.67
704.04	17867.65
704.17	17685.09
704.31	17399.54
704.44	17497.84
704.57	17371.46
704.70	17135.06
704.83	17015.69
704.96	16898.67
705.10	16861.22
705.23	16645.89
>>>>>End Processed Spectral Data<<<<<
