SpectraSuite Data File
++++++++++++++++++++++++++++++++++++
Date: Fri Oct 18 13:54:35 GMT-05:00 2013
User: bianchi
Dark Spectrum Present: No
Reference Spectrum Present: No
Number of Sampled Component Spectra: 1
Spectrometers: USB2+H05261
Integration Time (usec): 100000 (USB2+H05261)
Spectra Averaged: 1 (USB2+H05261)
Boxcar Smoothing: 0 (USB2+H05261)
Correct for Electrical Dark: No (USB2+H05261)
Strobe/Lamp Enabled: No (USB2+H05261)
Correct for Detector Non-linearity: No (USB2+H05261)
Correct for Stray Light: No (USB2+H05261)
Number of Pixels in Processed Spectrum: 2048
>>>>>Begin Processed Spectral Data<<<<<
365.73	0.00
365.92	0.00
366.12	0.00
366.32	0.00
366.52	0.00
366.72	0.00
366.91	0.00
367.11	0.00
367.31	0.00
367.51	0.00
367.70	0.00
367.90	0.00
368.10	0.00
368.30	0.00
368.49	0.00
368.69	0.00
368.89	0.00
369.09	0.00
369.28	0.00
369.48	0.00
369.68	0.00
369.87	0.00
370.07	0.00
370.27	0.00
370.47	58.51
370.66	271.50
370.86	262.14
371.06	227.03
371.25	416.62
371.45	297.25
371.65	404.91
371.84	287.89
372.04	390.87
372.24	383.85
372.44	308.95
372.63	449.38
372.83	442.36
373.03	395.55
373.22	423.64
373.42	430.66
373.62	411.93
373.81	444.70
374.01	475.13
374.21	521.94
374.40	496.19
374.60	489.17
374.79	517.26
374.99	493.85
375.19	463.43
375.38	566.41
375.58	514.92
375.78	519.60
375.97	472.79
376.17	554.71
376.37	519.60
376.56	561.73
376.76	550.03
376.95	582.79
377.15	589.82
377.35	606.20
377.54	573.43
377.74	624.92
377.93	582.79
378.13	526.62
378.33	685.78
378.52	514.92
378.72	552.37
378.91	472.79
379.11	568.75
379.31	585.13
379.50	535.98
379.70	601.52
379.89	615.56
380.09	631.94
380.28	641.31
380.48	615.56
380.68	617.90
380.87	610.88
381.07	723.23
381.26	692.80
381.46	622.58
381.65	725.57
381.85	674.07
382.04	676.41
382.24	716.20
382.43	690.46
382.63	720.88
382.83	725.57
383.02	777.06
383.22	688.12
383.41	681.10
383.61	755.99
383.80	830.89
384.00	683.44
384.19	751.31
384.39	770.04
384.58	763.01
384.78	770.04
384.97	781.74
385.17	884.72
385.36	781.74
385.56	814.51
385.75	784.08
385.95	835.57
386.14	823.87
386.34	793.44
386.53	805.14
386.72	788.76
386.92	908.13
387.11	837.91
387.31	858.98
387.50	851.96
387.70	781.74
387.89	861.32
388.09	823.87
388.28	875.36
388.48	973.66
388.67	898.77
388.86	943.24
389.06	1004.09
389.25	1011.11
389.45	1097.71
389.64	908.13
389.84	976.00
390.03	999.41
390.22	1057.92
390.42	926.85
390.61	954.94
390.81	990.05
391.00	1011.11
391.19	1062.60
391.39	1053.24
391.58	1064.94
391.78	1078.99
391.97	1158.57
392.16	1057.92
392.36	1205.38
392.55	1144.52
392.75	1088.35
392.94	1036.86
393.13	1205.38
393.33	1174.95
393.52	1160.91
393.71	1118.78
393.91	1172.61
394.10	1254.53
394.29	1043.88
394.49	1146.86
394.68	1263.89
394.88	1179.63
395.07	1212.40
395.26	1254.53
395.46	1324.74
395.65	1317.72
395.84	1362.19
396.04	1401.98
396.23	1362.19
396.42	1423.05
396.62	1329.42
396.81	1338.79
397.00	1357.51
397.19	1308.36
397.39	1364.53
397.58	1364.53
397.77	1387.94
397.97	1401.98
398.16	1366.87
398.35	1437.09
398.55	1371.55
398.74	1394.96
398.93	1561.14
399.12	1572.84
399.32	1533.05
399.51	1547.09
399.70	1373.89
399.90	1582.20
400.09	1607.95
400.28	1680.50
400.47	1631.35
400.67	1533.05
400.86	1619.65
401.05	1533.05
401.24	1631.35
401.44	1675.82
401.63	1643.06
401.82	1729.66
402.01	1699.23
402.21	1795.19
402.40	1732.00
402.59	1734.34
402.78	1795.19
402.97	1778.81
403.17	1851.36
403.36	1839.66
403.55	1886.47
403.74	2010.52
403.93	1898.17
404.13	1963.71
404.32	2015.20
404.51	1942.64
404.70	1895.83
404.89	2033.93
405.09	2026.90
405.28	1982.43
405.47	2141.59
405.66	2054.99
405.85	2064.35
406.05	2094.78
406.24	2012.86
406.43	2085.42
406.62	2225.85
406.81	2237.55
407.00	2186.06
407.20	2155.63
407.39	2267.98
407.58	2218.83
407.77	2326.49
407.96	2242.23
408.15	2382.67
408.34	2342.88
408.54	2387.35
408.73	2310.11
408.92	2282.02
409.11	2410.75
409.30	2415.43
409.49	2506.71
409.68	2509.05
409.87	2403.73
410.07	2527.78
410.26	2649.49
410.45	2569.91
410.64	2628.42
410.83	2651.83
411.02	2551.18
411.21	2757.15
411.40	2757.15
411.59	2796.94
411.78	2745.45
411.98	2700.98
412.17	2752.47
412.36	2813.32
412.55	2939.71
412.74	2956.10
412.93	3042.70
413.12	2923.33
413.31	3070.78
413.50	2986.52
413.69	3073.12
413.88	3255.69
414.07	3234.62
414.26	3201.85
414.45	3260.37
414.64	3227.60
414.83	3318.88
415.02	3328.24
415.22	3372.71
415.41	3421.86
415.60	3391.44
415.79	3496.76
415.98	3515.48
416.17	3534.21
416.36	3426.54
416.55	3438.25
416.74	3630.17
416.93	3684.00
417.12	3784.65
417.31	3679.32
417.50	3765.92
417.69	3894.65
417.88	3833.80
418.07	3896.99
418.26	3786.99
418.45	3988.27
418.64	4018.70
418.83	4067.85
419.02	4067.85
419.21	4021.04
419.39	4208.28
419.58	4028.06
419.77	4065.51
419.96	4180.20
420.15	4070.19
420.34	4212.96
420.53	4168.49
420.72	4318.29
420.91	4145.09
421.10	4383.82
421.29	4468.08
421.48	4234.03
421.67	4475.10
421.86	4255.09
422.05	4489.15
422.24	4388.50
422.43	4440.00
422.61	4482.13
422.80	4559.36
422.99	4421.27
423.18	4418.93
423.37	4674.05
423.56	4528.94
423.75	4454.04
423.94	4416.59
424.13	4114.66
424.32	4238.71
424.50	4552.34
424.69	4596.81
424.88	4657.67
425.07	4425.95
425.26	4449.36
425.45	4465.74
425.64	4596.81
425.83	4638.94
426.01	4643.62
426.20	4638.94
426.39	4587.45
426.58	4519.57
426.77	4706.82
426.96	4699.80
427.15	4629.58
427.33	4711.50
427.52	4624.90
427.71	4777.03
427.90	4894.06
428.09	4856.61
428.28	4779.37
428.46	4919.81
428.65	4947.89
428.84	5083.64
429.03	5034.49
429.22	4933.85
429.40	5069.60
429.59	5139.82
429.78	4807.46
429.97	4692.77
430.16	4912.78
430.34	5114.07
430.53	5128.11
430.72	5128.11
430.91	5093.01
431.10	5217.05
431.28	5132.79
431.47	5195.99
431.66	5387.91
431.85	5231.10
432.03	5430.04
432.22	5497.92
432.41	5537.71
432.60	5483.88
432.79	5327.06
432.97	5476.85
433.16	5626.65
433.35	5568.13
433.54	5729.63
433.72	5720.27
433.91	5659.42
434.10	5640.69
434.28	5678.14
434.47	5767.08
434.66	5757.72
434.85	5839.64
435.03	5764.74
435.22	5886.45
435.41	6005.81
435.59	5928.58
435.78	5849.00
435.97	5902.83
436.16	5944.96
436.34	5849.00
436.53	5973.05
436.72	6092.41
436.90	6076.03
437.09	6214.12
437.28	6008.16
437.46	6171.99
437.65	6387.32
437.84	6436.47
438.02	6202.42
438.21	6136.88
438.40	6190.72
438.58	6665.85
438.77	6298.38
438.96	6483.28
439.14	6633.08
439.33	6623.72
439.52	6675.21
439.70	6429.45
439.89	6850.75
440.08	6736.06
440.26	6970.12
440.45	6724.36
440.63	6799.26
440.82	6998.20
441.01	6923.30
441.19	7112.89
441.38	7152.68
441.57	7323.54
441.75	7353.96
441.94	7438.22
442.12	7248.64
442.31	7524.82
442.50	7337.58
442.68	7332.90
442.87	7522.48
443.05	7515.46
443.24	7602.06
443.43	7550.57
443.61	7620.78
443.80	7932.08
443.98	7510.78
444.17	7311.83
444.35	7639.51
444.54	7604.40
444.73	7765.90
444.91	7913.35
445.10	7714.41
445.28	7845.48
445.47	7634.83
445.65	7637.17
445.84	7777.60
446.02	7880.58
446.21	7763.56
446.39	7805.69
446.58	7796.32
446.77	7761.22
446.95	7705.04
447.14	7768.24
447.32	7866.54
447.51	7871.22
447.69	7929.74
447.88	7999.95
448.06	8021.02
448.25	7770.58
448.43	8002.29
448.62	7845.48
448.80	7878.24
448.99	7861.86
449.17	8042.08
449.36	8006.97
449.54	8201.24
449.73	8294.86
449.91	8196.56
450.10	8411.89
450.28	8489.12
450.46	8297.20
450.65	8287.84
450.83	8540.61
451.02	8360.39
451.20	8376.78
451.39	8561.68
451.57	8685.73
451.76	8496.14
451.94	8552.32
452.13	8739.56
452.31	8858.93
452.49	8458.70
452.68	8451.67
452.86	8748.92
453.05	8627.21
453.23	8814.46
453.42	8636.58
453.60	8549.98
453.78	8772.33
453.97	8559.34
454.15	8830.84
454.34	8641.26
454.52	8896.38
454.70	8872.97
454.89	9050.85
455.07	9036.81
455.26	8982.98
455.44	9217.03
455.62	9125.75
455.81	9165.54
455.99	9116.39
456.17	9100.00
456.36	9355.12
456.54	9376.19
456.73	9556.41
456.91	9823.23
457.09	9572.79
457.28	9905.15
457.46	9851.31
457.64	9734.29
457.83	9624.28
458.01	9521.30
458.19	9848.97
458.38	9748.33
458.56	10003.45
458.74	9921.53
458.93	9893.44
459.11	9867.70
459.29	9987.07
459.48	10090.05
459.66	10019.83
459.84	10031.54
460.03	9947.28
460.21	10195.37
460.39	9968.34
460.57	10274.95
460.76	10186.01
460.94	10209.42
461.12	10380.28
461.31	10155.58
461.49	10272.61
461.67	10239.84
461.85	10548.79
462.04	10401.34
462.22	10927.96
462.40	10780.51
462.59	10693.91
462.77	10464.54
462.95	10750.08
463.13	10532.41
463.32	10803.91
463.50	10644.76
463.68	10860.09
463.86	10824.98
464.05	10597.95
464.23	10820.30
464.41	10988.82
464.59	10714.97
464.78	11241.59
464.96	11089.46
465.14	10698.59
465.32	11049.67
465.50	11367.98
465.69	11351.60
465.87	11016.90
466.05	11281.38
466.23	11023.92
466.41	11183.08
466.60	11349.26
466.78	11101.16
466.96	11332.87
467.14	11073.07
467.32	11323.51
467.51	11438.20
467.69	11253.30
467.87	11494.37
468.05	11618.42
468.23	11346.92
468.41	11747.15
468.60	11583.31
468.78	11779.92
468.96	11569.27
469.14	11733.11
469.32	11873.54
469.50	11620.76
469.69	11737.79
469.87	12018.65
470.05	11894.60
470.23	12297.17
470.41	12154.40
470.59	12332.28
470.77	12189.51
470.95	12430.59
471.14	12297.17
471.32	12285.47
471.50	12540.59
471.68	12549.95
471.86	12840.18
472.04	12727.83
472.22	12809.75
472.40	12746.56
472.58	12896.35
472.77	12922.10
472.95	12655.28
473.13	13310.63
473.31	12929.12
473.49	12994.65
473.67	13116.36
473.85	13181.90
474.03	13298.92
474.21	13425.31
474.39	13497.87
474.57	13778.73
474.75	13886.40
474.93	13933.21
475.12	13596.17
475.30	13778.73
475.48	13750.65
475.66	13970.66
475.84	14310.04
476.02	14143.86
476.20	14307.69
476.38	14611.96
476.56	14810.91
476.74	14560.47
476.92	14794.53
477.10	14600.26
477.28	14785.16
477.46	14813.25
477.64	14979.43
477.82	15143.27
478.00	15510.73
478.18	15583.29
478.36	15714.36
478.54	15815.00
478.72	15906.28
478.90	16037.35
479.08	16163.74
479.26	16189.49
479.44	16168.42
479.62	16322.90
479.80	16313.53
479.98	16762.92
480.16	16760.58
480.34	16837.81
480.52	17085.91
480.70	16971.22
480.88	16870.58
481.06	17305.92
481.24	17621.89
481.41	17511.89
481.59	17891.06
481.77	18108.72
481.95	17923.82
482.13	18092.34
482.31	18125.11
482.49	18410.65
482.67	18506.62
482.85	18946.64
483.03	19115.16
483.21	19353.89
483.39	19269.63
483.57	19527.09
483.74	19641.78
483.92	19594.96
484.10	19709.65
484.28	20123.93
484.46	20255.00
484.64	20505.43
484.82	20074.77
485.00	20561.61
485.18	20570.97
485.35	21273.13
485.53	21048.44
485.71	21062.48
485.89	21879.33
486.07	21476.76
486.25	21535.27
486.43	21537.61
486.61	21893.37
486.78	22122.74
486.96	22600.21
487.14	22593.19
487.32	22293.60
487.50	22553.40
487.68	22740.64
487.85	23531.75
488.03	23601.96
488.21	23953.04
488.39	23742.39
488.57	24156.67
488.75	24030.28
488.92	24362.64
489.10	24334.55
489.28	24760.53
489.46	24929.05
489.64	24741.80
489.81	25439.28
489.99	25422.90
490.17	25350.34
490.35	26103.99
490.53	25750.57
490.70	26258.47
490.88	26485.50
491.06	26391.88
491.24	26167.19
491.41	26663.38
491.59	26628.27
491.77	27288.31
491.95	27473.21
492.13	27246.18
492.30	27215.75
492.48	27562.15
492.66	27953.02
492.84	27758.75
493.01	28369.63
493.19	28163.67
493.37	28772.21
493.54	28133.24
493.72	28701.99
493.90	28788.59
494.08	29078.82
494.25	29273.08
494.43	29481.39
494.61	29635.86
494.79	29766.93
494.96	29734.17
495.14	29701.40
495.32	30059.50
495.49	30466.75
495.67	30441.01
495.85	30892.73
496.02	30827.20
496.20	31089.34
496.38	31068.27
496.55	31192.32
496.73	32238.54
496.91	31730.64
497.09	32121.51
497.26	31992.78
497.44	32236.20
497.62	32411.74
497.79	32737.07
497.97	32521.74
498.14	33046.02
498.32	33240.29
498.50	33020.28
498.67	33823.08
498.85	33504.77
499.03	33310.50
499.20	33640.52
499.38	33614.77
499.56	33795.00
499.73	34125.01
499.91	34448.00
500.08	34670.36
500.26	34309.91
500.44	34492.47
500.61	34506.52
500.79	34555.67
500.97	34740.57
501.14	35178.25
501.32	35559.76
501.49	34906.75
501.67	35227.40
501.84	35098.67
502.02	35690.83
502.20	35461.46
502.37	36205.75
502.55	36093.40
502.72	36467.89
502.90	36266.60
503.07	36060.63
503.25	36222.13
503.43	36229.15
503.60	36776.84
503.78	37165.37
503.95	36917.27
504.13	37141.96
504.30	37074.09
504.48	37303.46
504.65	37591.34
504.83	37780.93
505.01	38227.97
505.18	37511.77
505.36	38237.33
505.53	37888.59
505.71	37752.84
505.88	38253.72
506.06	37413.46
506.23	38534.58
506.41	38806.08
506.58	38604.80
506.76	38923.11
506.93	39012.05
507.11	38085.20
507.28	38740.55
507.46	38932.47
507.63	39295.25
507.81	39737.62
507.98	39398.24
508.16	39704.85
508.33	39173.55
508.50	39526.97
508.68	39901.45
508.85	40231.47
509.03	39744.64
509.20	40584.89
509.38	40531.06
509.55	40725.32
509.73	40552.12
509.90	40865.75
510.08	40570.85
510.25	40830.65
510.42	41357.27
510.60	41120.87
510.77	41380.67
510.95	41621.75
511.12	41172.36
511.30	41317.48
511.47	41687.28
511.64	41731.75
511.82	42387.10
511.99	41858.14
512.17	42314.55
512.34	42014.96
512.51	42440.93
512.69	42171.77
512.86	42326.25
513.04	42637.54
513.21	42803.72
513.38	42995.64
513.56	42787.33
513.73	42609.45
513.90	43213.31
514.08	42930.11
514.25	43117.35
514.43	43330.34
514.60	43583.12
514.77	44027.82
514.95	43725.89
515.12	43405.23
515.29	43356.08
515.47	44018.46
515.64	43938.88
515.81	43758.66
515.99	44463.16
516.16	44563.80
516.33	45064.67
516.51	44690.19
516.68	44296.98
516.85	44512.31
517.03	44900.84
517.20	45155.96
517.37	44926.58
517.54	44772.11
517.72	45219.15
517.89	44921.90
518.06	45067.02
518.24	45111.49
518.41	45532.78
518.58	45497.67
518.75	45764.49
518.93	45497.67
519.10	45287.03
519.27	46024.29
519.45	45907.27
519.62	45427.46
519.79	45748.11
519.96	46122.60
520.14	46122.60
520.31	46150.68
520.48	46209.20
520.65	46454.95
520.83	46483.04
521.00	46777.95
521.17	46920.72
521.34	46663.26
521.52	46710.07
521.69	47007.32
521.86	47239.03
522.03	47206.26
522.20	47161.79
522.38	47728.20
522.55	47318.61
522.72	47700.12
522.89	47508.19
523.07	48039.50
523.24	47540.96
523.41	47861.61
523.58	47845.23
523.75	48287.59
523.92	47622.88
524.10	47880.34
524.27	48154.18
524.44	48275.89
524.61	48605.91
524.78	48563.78
524.96	48271.21
525.13	48362.49
525.30	48472.49
525.47	48832.94
525.64	48451.43
525.81	48903.15
525.98	49001.46
526.16	49074.01
526.33	48956.99
526.50	49617.02
526.67	48851.66
526.84	49034.22
527.01	48961.67
527.18	48978.05
527.36	49490.63
527.53	49549.14
527.70	49605.31
527.87	49900.22
528.04	49338.49
528.21	49682.55
528.38	49469.56
528.55	49717.66
528.72	49710.64
528.89	49797.24
529.07	49708.30
529.24	49745.75
529.41	50181.09
529.58	49853.41
529.75	49563.18
529.92	49921.29
530.09	50089.80
530.26	50103.85
530.43	50213.85
530.60	50099.17
530.77	50253.64
530.94	50660.90
531.11	50478.33
531.28	50415.14
531.46	50815.37
531.63	50550.89
531.80	51133.68
531.97	50948.78
532.14	50747.50
532.31	50883.25
532.48	51131.34
532.65	51133.68
532.82	50532.17
532.99	50855.16
533.16	50864.52
533.33	51164.11
533.50	51220.28
533.67	51753.93
533.84	50944.10
534.01	50693.66
534.18	51196.88
534.35	51452.00
534.52	51714.14
534.69	51721.16
534.86	51613.49
535.03	51290.50
535.20	51704.77
535.37	51695.41
535.54	51522.21
535.71	51531.57
535.88	51503.49
536.05	51828.82
536.22	51950.53
536.38	51899.04
536.55	52236.08
536.72	52168.20
536.89	51812.44
537.06	52112.03
537.23	52058.20
537.40	52072.24
537.57	52292.25
537.74	51997.34
537.91	52507.58
538.08	52102.67
538.25	52360.12
538.42	52320.34
538.59	52285.23
538.75	52573.11
538.92	52289.91
539.09	52315.65
539.26	52573.11
539.43	52762.70
539.60	52793.12
539.77	52790.78
539.94	53071.65
540.11	53024.84
540.28	52921.85
540.44	52781.42
540.61	52931.22
540.78	52818.87
540.95	53085.69
541.12	52746.31
541.29	53277.61
541.46	52624.60
541.62	53123.14
541.79	53066.97
541.96	52954.62
542.13	52971.00
542.30	53207.40
542.47	53481.24
542.63	53446.13
542.80	53331.45
542.97	53750.40
543.14	53717.64
543.31	53607.63
543.48	53345.49
543.64	53822.96
543.81	53825.30
543.98	54014.88
544.15	54005.52
544.32	53935.30
544.48	53928.28
544.65	53712.95
544.82	53851.05
544.99	53612.31
545.16	53902.54
545.32	53729.34
545.49	54295.75
545.66	54169.36
545.83	54394.05
546.00	54511.08
546.16	54452.56
546.33	53958.71
546.50	53876.79
546.67	54115.53
546.83	53827.64
547.00	54609.38
547.17	54169.36
547.34	54218.51
547.50	54621.08
547.67	54513.42
547.84	54344.90
548.00	54578.95
548.17	54724.07
548.34	54466.61
548.51	54490.01
548.67	54768.54
548.84	54665.55
549.01	54478.31
549.18	54583.63
549.34	54688.96
549.51	54576.61
549.68	54784.92
549.84	54468.95
550.01	54747.47
550.18	54754.49
550.34	54969.82
550.51	55016.63
550.68	54941.74
550.84	54827.05
551.01	54878.54
551.18	54649.17
551.34	54466.61
551.51	54972.16
551.68	55173.45
551.84	54941.74
552.01	55016.63
552.18	55175.79
552.34	55236.64
552.51	55103.23
552.68	55124.30
552.84	55056.42
553.01	55138.34
553.18	55257.71
553.34	55346.65
553.51	55311.54
553.67	55238.98
553.84	55648.58
554.01	55119.62
554.17	55290.48
554.34	55414.52
554.51	55344.31
554.67	55533.89
554.84	55370.05
555.00	55367.71
555.17	55653.26
555.33	55480.06
555.50	55573.68
555.67	55290.48
555.83	55484.74
556.00	55505.80
556.16	55592.40
556.33	55428.57
556.50	55580.70
556.66	55554.96
556.83	55599.43
556.99	56016.04
557.16	55838.16
557.32	56081.58
557.49	56074.55
557.65	55367.71
557.82	55842.84
557.98	55714.11
558.15	55910.72
558.32	55908.38
558.48	55758.58
558.65	56264.14
558.81	56140.09
558.98	55856.88
559.14	56093.28
559.31	55625.17
559.47	55655.60
559.64	55966.89
559.80	55938.80
559.97	56114.34
560.13	55870.93
560.30	56013.70
560.46	56055.83
560.63	56037.11
560.79	56259.46
560.96	56219.67
561.12	55994.98
561.29	56072.21
561.45	55913.06
561.61	56128.39
561.78	56151.79
561.94	56289.88
562.11	56285.20
562.27	56081.58
562.44	56044.13
562.60	56245.41
562.77	55966.89
562.93	56140.09
563.10	56268.82
563.26	56348.40
563.42	56516.92
563.59	56339.04
563.75	56385.85
563.92	56374.14
564.08	56163.50
564.24	56189.24
564.41	56076.90
564.57	56519.26
564.74	56205.62
564.90	56383.51
565.07	56470.11
565.23	56545.00
565.39	56196.26
565.56	56381.16
565.72	56151.79
565.88	56184.56
566.05	56254.78
566.21	55915.40
566.38	56341.38
566.54	56301.59
566.70	56722.88
566.87	56708.84
567.03	56243.07
567.19	56584.79
567.36	56568.41
567.52	56336.69
567.68	56189.24
567.85	56467.76
568.01	56451.38
568.17	56477.13
568.34	56823.53
568.50	56690.12
568.66	56439.68
568.83	56657.35
568.99	56580.11
569.15	56645.65
569.32	56472.45
569.48	56032.42
569.64	56479.47
569.81	56498.19
569.97	56636.28
570.13	56516.92
570.30	56530.96
570.46	56860.97
570.62	56594.15
570.78	56568.41
570.95	56444.36
571.11	56559.05
571.27	56334.35
571.43	56591.81
571.60	56633.94
571.76	56467.76
571.92	56935.87
572.09	56835.23
572.25	56697.14
572.41	56666.71
572.57	56666.71
572.74	56694.80
572.90	56603.52
573.06	56629.26
573.22	56713.52
573.38	56863.32
573.55	56891.40
573.71	57116.09
573.87	56891.40
574.03	56669.05
574.20	56708.84
574.36	56633.94
574.52	56683.09
574.68	56509.89
574.84	56640.96
575.01	56662.03
575.17	56704.16
575.33	56615.22
575.49	56907.79
575.65	56910.13
575.82	56968.64
575.98	56645.65
576.14	56912.47
576.30	56779.06
576.46	56647.99
576.62	56591.81
576.79	56509.89
576.95	56542.66
577.11	56851.61
577.27	56743.95
577.43	56914.81
577.59	56708.84
577.75	56830.55
577.92	56643.30
578.08	56596.49
578.24	56596.49
578.40	56804.80
578.56	56652.67
578.72	56914.81
578.88	57165.24
579.04	56940.55
579.21	56816.50
579.37	56830.55
579.53	57048.22
579.69	56610.54
579.85	56694.80
580.01	56776.72
580.17	56610.54
580.33	56594.15
580.49	56781.40
580.65	56956.94
580.82	57160.56
580.98	56594.15
581.14	56924.17
581.30	56762.67
581.46	56617.56
581.62	56839.91
581.78	56587.13
581.94	56839.91
582.10	56942.89
582.26	56762.67
582.42	56741.61
582.58	56818.84
582.74	56772.03
582.90	56783.74
583.06	56914.81
583.22	56739.27
583.38	56699.48
583.54	56739.27
583.70	56708.84
583.86	56851.61
584.02	56736.93
584.18	57118.43
584.34	56996.73
584.50	57050.56
584.66	56694.80
584.82	56563.73
584.98	56905.44
585.14	56917.15
585.30	56872.68
585.46	56818.84
585.62	56687.78
585.78	57076.30
585.94	56884.38
586.10	56868.00
586.26	56865.66
586.42	57141.84
586.58	56921.83
586.74	56811.82
586.90	56736.93
587.06	56809.48
587.22	56844.59
587.38	56647.99
587.54	56868.00
587.70	57251.84
587.86	56999.07
588.02	57090.35
588.18	57167.58
588.34	56992.04
588.49	57029.49
588.65	56811.82
588.81	56884.38
588.97	56736.93
589.13	56757.99
589.29	56886.72
589.45	56860.97
589.61	57457.81
589.77	57162.90
589.93	57116.09
590.08	57282.27
590.24	57176.95
590.40	57071.62
590.56	57219.08
590.72	57080.98
590.88	56966.30
591.04	57062.26
591.20	56947.57
591.35	57209.71
591.51	57436.75
591.67	57205.03
591.83	57319.72
591.99	57235.46
592.15	57095.03
592.31	57237.80
592.46	56963.96
592.62	57113.75
592.78	57041.20
592.94	57104.39
593.10	57237.80
593.26	57265.89
593.41	57127.80
593.57	57261.21
593.73	57099.71
593.89	57336.10
594.05	57041.20
594.20	56910.13
594.36	57319.72
594.52	57062.26
594.68	56853.95
594.84	56917.15
594.99	57146.52
595.15	57200.35
595.31	57439.09
595.47	57240.14
595.62	57286.95
595.78	57151.20
595.94	57038.86
596.10	57059.92
596.25	57242.48
596.41	56994.39
596.57	56961.62
596.73	57207.37
596.88	57212.06
597.04	57361.85
597.20	57359.51
597.36	57202.69
597.51	57528.03
597.67	57073.96
597.83	57242.48
597.99	57315.04
598.14	56994.39
598.30	57265.89
598.46	57303.34
598.61	57106.73
598.77	57153.54
598.93	57310.36
599.09	57104.39
599.24	57516.32
599.40	57378.23
599.56	57345.47
599.71	57181.63
599.87	57183.97
600.03	57141.84
600.18	57151.20
600.34	56917.15
600.50	57097.37
600.65	57284.61
600.81	57237.80
600.97	57403.98
601.12	57183.97
601.28	57153.54
601.44	57481.22
601.59	57284.61
601.75	57462.49
601.91	57247.16
602.06	56956.94
602.22	56985.02
602.37	56914.81
602.53	56956.94
602.69	57556.11
602.84	57181.63
603.00	57303.34
603.16	57200.35
603.31	57317.38
603.47	57336.10
603.62	57162.90
603.78	57006.09
603.94	57380.57
604.09	57167.58
604.25	57085.67
604.40	57310.36
604.56	57198.01
604.71	57359.51
604.87	57099.71
605.03	57296.31
605.18	57162.90
605.34	56966.30
605.49	56823.53
605.65	56896.08
605.80	57038.86
605.96	56952.26
606.12	56882.04
606.27	57207.37
606.43	57169.93
606.58	57263.55
606.74	57062.26
606.89	57020.13
607.05	57052.90
607.20	57144.18
607.36	57003.75
607.51	57221.42
607.67	57066.94
607.82	56968.64
607.98	56975.66
608.13	56945.23
608.29	56856.29
608.44	57106.73
608.60	57123.11
608.75	57219.08
608.91	56985.02
609.06	57001.41
609.22	56970.98
609.37	56420.95
609.53	56825.87
609.68	56816.50
609.84	56697.14
609.99	56683.09
610.15	56809.48
610.30	56870.34
610.46	56776.72
610.61	56863.32
610.76	56935.87
610.92	56975.66
611.07	56746.29
611.23	56793.10
611.38	56713.52
611.54	56746.29
611.69	56739.27
611.84	56561.39
612.00	56612.88
612.15	56437.34
612.31	57029.49
612.46	56769.69
612.62	56926.51
612.77	56797.78
612.92	56718.20
613.08	56725.22
613.23	56664.37
613.39	56629.26
613.54	56409.25
613.69	56601.18
613.85	56669.05
614.00	56561.39
614.15	56617.56
614.31	56807.14
614.46	56765.01
614.62	56568.41
614.77	56591.81
614.92	56561.39
615.08	56563.73
615.23	56435.00
615.38	56774.37
615.54	56186.90
615.69	56404.57
615.84	56116.68
616.00	56310.95
616.15	56339.04
616.30	56594.15
616.46	56601.18
616.61	56470.11
616.76	56603.52
616.92	56516.92
617.07	56526.28
617.22	56140.09
617.37	55964.55
617.53	56229.03
617.68	56332.01
617.83	55983.27
617.99	56149.45
618.14	56282.86
618.29	56610.54
618.45	56177.54
618.60	56184.56
618.75	56217.33
618.90	56104.98
619.06	56320.31
619.21	56135.41
619.36	56186.90
619.51	55721.13
619.67	55861.57
619.82	55679.00
619.97	55894.33
620.12	55910.72
620.28	55833.48
620.43	55952.85
620.58	56261.80
620.73	55882.63
620.89	55835.82
621.04	55931.78
621.19	55835.82
621.34	55887.31
621.49	55763.26
621.65	55587.72
621.80	55899.01
621.95	55463.67
622.10	55842.84
622.25	55643.90
622.41	55899.01
622.56	55852.20
622.71	55866.25
622.86	55798.37
623.01	55781.99
623.16	55674.32
623.32	55590.06
623.47	55730.50
623.62	55702.41
623.77	55416.86
623.92	55718.79
624.07	55409.84
624.23	55304.52
624.38	55395.80
624.53	55391.12
624.68	55702.41
624.83	55683.69
624.98	55725.81
625.13	55447.29
625.29	55608.79
625.44	55442.61
625.59	55519.85
625.74	55000.25
625.89	55487.08
626.04	54944.08
626.19	55454.31
626.34	55203.88
626.49	55260.05
626.65	55056.42
626.80	55000.25
626.95	55154.72
627.10	55231.96
627.25	55117.28
627.40	55140.68
627.55	54939.39
627.70	54763.85
627.85	54841.09
628.00	54578.95
628.15	55136.00
628.30	54703.00
628.45	55011.95
628.60	54901.95
628.76	55004.93
628.91	55058.76
629.06	55021.31
629.21	54829.39
629.36	54944.08
629.51	54976.84
629.66	54651.51
629.81	54539.16
629.96	54492.35
630.11	54361.28
630.26	54618.74
630.41	54618.74
630.56	54546.18
630.71	54642.15
630.86	54600.02
631.01	54756.83
631.16	54728.75
631.31	54595.34
631.46	54529.80
631.61	54848.11
631.76	54703.00
631.91	54202.13
632.06	54527.46
632.21	54417.46
632.36	54443.20
632.51	54225.53
632.66	54344.90
632.81	54211.49
632.96	54380.01
633.10	54508.74
633.25	54279.36
633.40	54253.62
633.55	54204.47
633.70	54424.48
633.85	53860.41
634.00	53961.05
634.15	54136.59
634.30	53577.20
634.45	54223.19
634.60	54213.83
634.75	54183.40
634.90	54010.20
635.05	54202.13
635.19	54066.38
635.34	54293.41
635.49	53853.39
635.64	54131.91
635.79	53921.26
635.94	54031.27
636.09	53998.50
636.24	53860.41
636.39	53705.93
636.53	53881.47
636.68	53829.98
636.83	53820.62
636.98	53876.79
637.13	53670.82
637.28	53848.71
637.43	53939.99
637.57	54000.84
637.72	53748.06
637.87	53771.47
638.02	53551.46
638.17	53385.28
638.32	53586.57
638.46	53544.44
638.61	53326.77
638.76	53298.68
638.91	53198.04
639.06	53176.97
639.20	53404.00
639.35	53261.23
639.50	53338.47
639.65	53897.86
639.80	53361.87
639.94	53602.95
640.09	53483.58
640.24	53396.98
640.39	53483.58
640.54	53301.02
640.68	53102.07
640.83	53155.91
640.98	52615.24
641.13	52865.68
641.27	53062.29
641.42	52935.90
641.57	53134.84
641.72	53085.69
641.86	53069.31
642.01	52849.30
642.16	53226.12
642.31	52800.15
642.45	53055.26
642.60	52940.58
642.75	53071.65
642.90	52631.63
643.04	52549.71
643.19	52882.06
643.34	52987.39
643.48	52823.55
643.63	52875.04
643.78	52772.06
643.93	52884.40
644.07	52741.63
644.22	52821.21
644.37	52783.76
644.51	52849.30
644.66	52636.31
644.81	52523.96
644.95	52741.63
645.10	52439.70
645.25	52596.52
645.39	52638.65
645.54	52701.84
645.69	52645.67
645.83	52390.55
645.98	52463.11
646.13	52545.03
646.27	52362.46
646.42	52580.13
646.57	52486.51
646.71	52329.70
646.86	52252.46
647.00	52055.85
647.15	52392.89
647.30	52346.08
647.44	52025.43
647.59	52168.20
647.74	52088.62
647.88	52182.24
648.03	52458.43
648.17	52215.01
648.32	52175.22
648.47	52343.74
648.61	52374.17
648.76	52175.22
648.90	51758.61
649.05	52268.84
649.20	52037.13
649.34	52205.65
649.49	51828.82
649.63	51667.33
649.78	51669.67
649.92	51831.16
650.07	51943.51
650.21	51618.17
650.36	51948.19
650.51	51922.44
650.65	52332.04
650.80	52156.50
650.94	52193.95
651.09	51711.80
651.23	51648.60
651.38	51615.83
651.52	51580.73
651.67	51536.26
651.81	51484.76
651.96	51377.10
652.10	51760.95
652.25	51536.26
652.39	51625.20
652.54	51662.64
652.68	51271.78
652.83	51805.42
652.97	51920.10
653.12	51777.33
653.26	51381.78
653.41	51360.72
653.55	51391.14
653.70	51093.89
653.84	50988.57
653.99	51285.82
654.13	51047.08
654.27	51192.20
654.42	51332.63
654.56	50873.88
654.71	51363.06
654.85	51421.57
655.00	51351.35
655.14	51100.92
655.29	51147.73
655.43	50859.84
655.57	50794.31
655.72	50855.16
655.86	50698.34
656.01	50770.90
656.15	50415.14
656.30	50466.63
656.44	50740.47
656.58	50426.84
656.73	50656.21
656.87	50890.27
657.01	50815.37
657.16	50880.91
657.30	50672.60
657.45	50705.37
657.59	50759.20
657.73	50337.90
657.88	50536.85
658.02	50349.60
658.16	50255.98
658.31	50220.87
658.45	50323.86
658.60	50012.57
658.74	50239.60
658.88	50293.43
659.03	50323.86
659.17	50253.64
659.31	50260.66
659.46	49750.43
659.60	50155.34
659.74	50291.09
659.89	50031.29
660.03	50223.22
660.17	50134.28
660.32	49804.26
660.46	49844.05
660.60	49886.18
660.74	49694.25
660.89	49808.94
661.03	49237.85
661.17	49546.80
661.32	49148.91
661.46	49652.12
661.60	48879.75
661.74	49441.48
661.89	49572.55
662.03	49174.66
662.17	49361.90
662.31	49181.68
662.46	49244.87
662.60	49071.67
662.74	49169.97
662.88	48865.70
663.03	49038.90
663.17	48626.97
663.31	48334.40
663.45	48891.45
663.60	48736.98
663.74	48439.73
663.88	48762.72
664.02	48685.48
664.17	48896.13
664.31	48528.67
664.45	48795.49
664.59	48163.54
664.73	48121.41
664.88	48306.32
665.02	48055.88
665.16	47966.94
665.30	47718.84
665.44	47653.31
665.59	47419.25
665.73	47753.95
665.87	47601.82
666.01	47798.42
666.15	47679.05
666.29	47639.26
666.44	47997.37
666.58	47899.06
666.72	47550.32
666.86	47868.64
667.00	47737.57
667.14	47524.58
667.28	47547.98
667.43	47433.30
667.57	47330.31
667.71	47316.27
667.85	47187.54
667.99	47103.28
668.13	46948.81
668.27	46932.42
668.41	47140.73
668.56	46295.80
668.70	46916.04
668.84	46831.78
668.98	46543.89
669.12	46356.65
669.26	46454.95
669.40	46553.26
669.54	46349.63
669.68	45907.27
669.82	46368.35
669.96	45858.12
670.10	45717.68
670.25	45956.42
670.39	45787.90
670.53	45605.34
670.67	45734.07
670.81	46061.74
670.95	45640.45
671.09	45832.37
671.23	45696.62
671.37	45780.88
671.51	45806.62
671.65	45450.86
671.79	45368.94
671.93	45567.89
672.07	45298.73
672.21	45242.56
672.35	44727.64
672.49	44767.43
672.63	45099.78
672.77	44589.55
672.91	44914.88
673.05	44268.89
673.19	44893.82
673.33	44753.38
673.47	44755.72
673.61	44804.88
673.75	44168.25
673.89	44378.90
674.03	44243.15
674.17	44278.25
674.31	44212.72
674.45	43496.52
674.59	43859.30
674.73	43646.31
674.87	43796.10
675.01	43744.61
675.15	43618.22
675.29	43217.99
675.43	43538.65
675.56	43096.28
675.70	43110.33
675.84	43283.53
675.98	42122.62
676.12	43054.15
676.26	43428.64
676.40	43037.77
676.54	42726.48
676.68	42321.57
676.82	41551.53
676.96	42021.98
677.10	42321.57
677.23	41301.09
677.37	41495.36
677.51	41532.81
677.65	41088.10
677.79	41151.30
677.93	41591.32
678.07	40959.38
678.21	41177.04
678.34	40940.65
678.48	41060.02
678.62	40718.30
678.76	40535.74
678.90	40648.08
679.04	40858.73
679.18	40179.98
679.31	39969.33
679.45	39866.34
679.59	39847.62
679.73	39330.36
679.87	39875.71
680.00	39765.70
680.14	39325.68
680.28	39463.77
680.42	39491.86
680.56	39189.93
680.70	38920.77
680.83	39005.03
680.97	38778.00
681.11	39260.15
681.25	38742.89
681.39	39115.03
681.52	38253.72
681.66	38644.59
681.80	38494.79
681.94	38328.61
682.07	38120.31
682.21	37984.55
682.35	37778.59
682.49	37434.53
682.62	37600.71
682.76	37223.88
682.90	37261.33
683.04	37090.47
683.17	37125.58
683.31	37184.09
683.45	37380.70
683.59	37053.02
683.72	36521.72
683.86	36442.14
684.00	36573.21
684.13	36400.01
684.27	35880.41
684.41	36175.32
684.55	35833.60
684.68	35735.30
684.82	35564.44
684.96	35686.15
685.09	35398.26
685.23	35515.29
685.37	35328.05
685.50	35232.08
685.64	35421.67
685.78	35054.20
685.91	35002.71
686.05	35040.16
686.19	34469.07
686.32	34787.38
686.46	34113.31
686.60	34129.69
686.73	34300.55
686.87	33963.51
687.01	33766.91
687.14	33766.91
687.28	33530.51
687.42	33209.86
687.55	33464.98
687.69	33216.88
687.82	33535.20
687.96	33237.95
688.10	32971.13
688.23	32971.13
688.37	32907.93
688.50	32987.51
688.64	32491.32
688.78	32741.75
688.91	32395.35
689.05	32297.05
689.18	32250.24
689.32	31831.29
689.46	31899.16
689.59	31697.88
689.73	31353.82
689.86	31332.75
690.00	31534.04
690.13	31529.36
690.27	31332.75
690.41	31452.12
690.54	31180.62
690.68	30881.03
690.81	31101.04
690.95	31356.16
691.08	31058.91
691.22	30569.74
691.35	30366.11
691.49	30471.43
691.62	30218.66
691.76	29951.84
691.89	29450.96
692.03	29795.02
692.16	29563.31
692.30	29301.17
692.43	29624.16
692.57	29436.92
692.70	29237.97
692.84	28924.34
692.97	28985.19
693.11	29020.30
693.24	29013.28
693.38	29177.12
693.51	28802.63
693.65	28819.02
693.78	28760.50
693.92	28603.69
694.05	28638.80
694.19	28374.31
694.32	27592.58
694.45	27861.74
694.59	27814.93
694.72	27426.40
694.86	27452.14
694.99	27103.40
695.13	27332.78
695.26	27264.90
695.39	27021.48
695.53	27033.19
695.66	27129.15
695.80	27625.34
695.93	26712.53
696.07	27023.83
696.20	26518.27
696.33	26630.62
696.47	26092.29
696.60	26621.25
696.73	26366.13
696.87	26003.35
697.00	25610.14
697.14	25837.17
697.27	25434.60
697.40	25036.71
697.54	25287.15
697.67	25111.61
697.80	25294.17
697.94	24886.92
698.07	24856.49
698.21	24781.59
698.34	25207.57
698.47	24926.71
698.61	24978.20
698.74	24797.98
698.87	24723.08
699.01	24247.95
699.14	24182.42
699.27	24194.12
699.40	24198.80
699.54	23854.74
699.67	23793.89
699.80	23498.98
699.94	23091.73
700.07	23346.84
700.20	23201.73
700.34	23309.40
700.47	23112.79
700.60	23094.07
700.73	22726.60
700.87	22941.93
701.00	23101.09
701.13	22600.21
701.26	22717.24
701.40	22932.57
701.53	22611.92
701.66	22827.24
701.79	22497.23
701.93	22218.71
702.06	22115.72
702.19	21799.75
702.32	21799.75
702.46	21708.47
702.59	21443.99
702.72	21462.71
702.85	21135.04
702.99	21228.66
703.12	20957.16
703.25	21315.26
703.38	20877.58
703.51	21202.91
703.65	20795.66
703.78	20900.98
703.91	20678.63
704.04	20498.41
704.17	20594.37
704.31	20449.26
704.44	20325.21
704.57	20215.21
704.70	19953.07
704.83	20112.22
704.96	19812.63
705.10	19637.09
705.23	19716.67
>>>>>End Processed Spectral Data<<<<<
