SpectraSuite Data File
++++++++++++++++++++++++++++++++++++
Date: Fri Oct 18 13:55:07 GMT-05:00 2013
User: bianchi
Dark Spectrum Present: No
Reference Spectrum Present: No
Number of Sampled Component Spectra: 1
Spectrometers: USB2+H05261
Integration Time (usec): 100000 (USB2+H05261)
Spectra Averaged: 1 (USB2+H05261)
Boxcar Smoothing: 0 (USB2+H05261)
Correct for Electrical Dark: No (USB2+H05261)
Strobe/Lamp Enabled: No (USB2+H05261)
Correct for Detector Non-linearity: No (USB2+H05261)
Correct for Stray Light: No (USB2+H05261)
Number of Pixels in Processed Spectrum: 2048
>>>>>Begin Processed Spectral Data<<<<<
365.73	0.00
365.92	0.00
366.12	0.00
366.32	0.00
366.52	0.00
366.72	0.00
366.91	0.00
367.11	0.00
367.31	0.00
367.51	0.00
367.70	0.00
367.90	0.00
368.10	0.00
368.30	0.00
368.49	0.00
368.69	0.00
368.89	0.00
369.09	0.00
369.28	0.00
369.48	0.00
369.68	0.00
369.87	0.00
370.07	0.00
370.27	0.00
370.47	0.00
370.66	304.27
370.86	299.59
371.06	325.33
371.25	383.85
371.45	290.23
371.65	383.85
371.84	315.97
372.04	379.17
372.24	402.57
372.44	402.57
372.63	430.66
372.83	407.25
373.03	414.27
373.22	358.10
373.42	493.85
373.62	315.97
373.81	482.15
374.01	479.81
374.21	580.45
374.40	526.62
374.60	484.49
374.79	440.02
374.99	423.64
375.19	554.71
375.38	594.50
375.58	524.28
375.78	524.28
375.97	545.34
376.17	615.56
376.37	564.07
376.56	547.69
376.76	484.49
376.95	489.17
377.15	531.30
377.35	416.62
377.54	568.75
377.74	514.92
377.93	564.07
378.13	526.62
378.33	587.47
378.52	704.50
378.72	624.92
378.91	638.97
379.11	557.05
379.31	601.52
379.50	507.90
379.70	664.71
379.89	657.69
380.09	561.73
380.28	603.86
380.48	526.62
380.68	685.78
380.87	711.52
381.07	678.76
381.26	716.20
381.46	636.63
381.65	690.46
381.85	674.07
382.04	660.03
382.24	641.31
382.43	697.48
382.63	657.69
382.83	723.23
383.02	716.20
383.22	784.08
383.41	674.07
383.61	739.61
383.80	718.54
384.00	763.01
384.19	784.08
384.39	802.80
384.58	737.27
384.78	791.10
384.97	805.14
385.17	793.44
385.36	706.84
385.56	807.48
385.75	809.83
385.95	833.23
386.14	849.61
386.34	802.80
386.53	826.21
386.72	863.66
386.92	875.36
387.11	887.06
387.31	915.15
387.50	950.26
387.70	793.44
387.89	854.30
388.09	826.21
388.28	821.53
388.48	947.92
388.67	1048.56
388.86	905.79
389.06	936.21
389.25	987.71
389.45	999.41
389.64	1029.84
389.84	1008.77
390.03	1004.09
390.22	1006.43
390.42	1022.81
390.61	1001.75
390.81	1046.22
391.00	1057.92
391.19	1076.65
391.39	1057.92
391.58	1076.65
391.78	1097.71
391.97	1048.56
392.16	1029.84
392.36	1086.01
392.55	1153.88
392.75	1018.13
392.94	1095.37
393.13	1137.50
393.33	1163.25
393.52	1062.60
393.71	1153.88
393.91	1128.14
394.10	1203.04
394.29	1270.91
394.49	1224.10
394.68	1210.06
394.88	1266.23
395.07	1200.69
395.26	1210.06
395.46	1207.72
395.65	1226.44
395.84	1329.42
396.04	1320.06
396.23	1277.93
396.42	1291.98
396.62	1359.85
396.81	1502.62
397.00	1291.98
397.19	1404.32
397.39	1420.71
397.58	1462.83
397.77	1483.90
397.97	1472.20
398.16	1397.30
398.35	1448.79
398.55	1430.07
398.74	1394.96
398.93	1479.22
399.12	1462.83
399.32	1537.73
399.51	1467.52
399.70	1614.97
399.90	1434.75
400.09	1579.86
400.28	1633.69
400.47	1626.67
400.67	1647.74
400.86	1694.55
401.05	1666.46
401.24	1542.41
401.44	1668.80
401.63	1666.46
401.82	1736.68
402.01	1572.84
402.21	1769.44
402.40	1806.89
402.59	1715.61
402.78	1720.29
402.97	1832.64
403.17	1898.17
403.36	1860.73
403.55	1867.75
403.74	1858.39
403.93	1898.17
404.13	1907.54
404.32	1905.20
404.51	1956.69
404.70	1963.71
404.89	2038.61
405.09	2001.16
405.28	1893.49
405.47	1970.73
405.66	2134.57
405.85	2104.14
406.05	2167.34
406.24	2160.31
406.43	2064.35
406.62	2029.24
406.81	2253.94
407.00	2143.93
407.20	2232.87
407.39	2169.68
407.58	2326.49
407.77	2139.25
407.96	2319.47
408.15	2396.71
408.34	2275.00
408.54	2267.98
408.73	2457.56
408.92	2459.90
409.11	2282.02
409.30	2387.35
409.49	2413.09
409.68	2427.14
409.87	2525.44
410.07	2609.70
410.26	2635.44
410.45	2560.55
410.64	2656.51
410.83	2722.04
411.02	2647.15
411.21	2558.21
411.40	2799.28
411.59	2768.85
411.78	2803.96
411.98	2752.47
412.17	2724.38
412.36	2810.98
412.55	2853.11
412.74	2953.76
412.93	2928.01
413.12	2916.31
413.31	3108.23
413.50	3087.17
413.69	3084.83
413.88	3197.17
414.07	3176.11
414.26	2995.89
414.45	3187.81
414.64	3265.05
414.83	3346.97
415.02	3269.73
415.22	3471.01
415.41	3433.57
415.60	3353.99
415.79	3417.18
415.98	3538.89
416.17	3445.27
416.36	3440.59
416.55	3501.44
416.74	3595.06
416.93	3723.79
417.12	3566.98
417.31	3723.79
417.50	3740.18
417.69	3843.16
417.88	4011.68
418.07	3754.22
418.26	3721.45
418.45	3985.93
418.64	3948.48
418.83	3955.51
419.02	3983.59
419.21	3913.38
419.39	4084.23
419.58	4002.32
419.77	3904.01
419.96	4107.64
420.15	4173.18
420.34	4072.53
420.53	4191.90
420.72	4381.48
420.91	4168.49
421.10	4142.75
421.29	4280.84
421.48	4227.01
421.67	4273.82
421.86	4320.63
422.05	4472.76
422.24	4421.27
422.43	4454.04
422.61	4454.04
422.80	4428.29
422.99	4566.39
423.18	4383.82
423.37	4683.41
423.56	4580.43
423.75	4535.96
423.94	4318.29
424.13	4121.68
424.32	4255.09
424.50	4606.17
424.69	4704.48
424.88	4667.03
425.07	4564.04
425.26	4596.81
425.45	4409.57
425.64	4606.17
425.83	4571.07
426.01	4575.75
426.20	4491.49
426.39	4578.09
426.58	4683.41
426.77	4676.39
426.96	4657.67
427.15	4709.16
427.33	4758.31
427.52	4849.59
427.71	4842.57
427.90	4739.58
428.09	4674.05
428.28	4901.08
428.46	4901.08
428.65	4875.34
428.84	5057.90
429.03	5022.79
429.22	4798.10
429.40	4905.76
429.59	5125.77
429.78	4884.70
429.97	4875.34
430.16	4896.40
430.34	5008.75
430.53	5268.55
430.72	5060.24
430.91	5100.03
431.10	5177.26
431.28	5219.39
431.47	5298.97
431.66	5341.10
431.85	5203.01
432.03	5420.68
432.22	5575.16
432.41	5441.75
432.60	5474.51
432.79	5455.79
432.97	5526.00
433.16	5490.90
433.35	5521.32
433.54	5577.50
433.72	5760.06
433.91	5486.22
434.10	5614.95
434.28	5568.13
434.47	5748.36
434.66	5757.72
434.85	5844.32
435.03	5837.30
435.22	5893.47
435.41	5987.09
435.59	5893.47
435.78	5909.85
435.97	5959.00
436.16	5884.11
436.34	5900.49
436.53	6059.65
436.72	6193.06
436.90	5762.40
437.09	6108.80
437.28	6069.01
437.46	6113.48
437.65	6249.23
437.84	6282.00
438.02	6111.14
438.21	6303.06
438.40	6179.01
438.58	6366.26
438.77	6534.78
438.96	6525.41
439.14	6516.05
439.33	6668.19
439.52	6635.42
439.70	6612.01
439.89	6715.00
440.08	6860.11
440.26	6843.73
440.45	6689.25
440.63	6857.77
440.82	6839.05
441.01	6878.83
441.19	7080.12
441.38	7255.66
441.57	7096.50
441.75	7234.60
441.94	7248.64
442.12	7363.33
442.31	7370.35
442.50	7517.80
442.68	7454.61
442.87	7424.18
443.05	7410.14
443.24	7541.21
443.43	7398.43
443.61	7552.91
443.80	7913.35
443.98	7616.10
444.17	7316.51
444.35	7482.69
444.54	7819.73
444.73	7691.00
444.91	7726.11
445.10	7588.02
445.28	7590.36
445.47	7522.48
445.65	7410.14
445.84	7819.73
446.02	7892.29
446.21	7950.80
446.39	7793.98
446.58	7906.33
446.77	7934.42
446.95	7623.12
447.14	7810.37
447.32	8004.63
447.51	7798.66
447.69	7873.56
447.88	7864.20
448.06	7782.28
448.25	7782.28
448.43	7829.09
448.62	7637.17
448.80	7836.11
448.99	7985.91
449.17	7978.89
449.36	7824.41
449.54	8182.51
449.73	8273.79
449.91	8077.19
450.10	8318.26
450.28	8477.42
450.46	8421.25
450.65	8435.29
450.83	8400.18
451.02	8423.59
451.20	8472.74
451.39	8479.76
451.57	8475.08
451.76	8329.97
451.94	8297.20
452.13	8554.66
452.31	8526.57
452.49	8500.83
452.68	8461.04
452.86	8608.49
453.05	8711.47
453.23	8805.10
453.42	8823.82
453.60	8648.28
453.78	8599.13
453.97	8706.79
454.15	8746.58
454.34	8692.75
454.52	8896.38
454.70	8987.66
454.89	9050.85
455.07	8800.41
455.26	8997.02
455.44	9226.39
455.62	8826.16
455.81	8947.87
455.99	9085.96
456.17	9322.35
456.36	9109.36
456.54	9256.82
456.73	9399.59
456.91	9462.79
457.09	9453.42
457.28	9848.97
457.46	9516.62
457.64	9851.31
457.83	9614.92
458.01	9572.79
458.19	9865.36
458.38	9795.14
458.56	9832.59
458.74	9731.95
458.93	9750.67
459.11	9898.13
459.29	10015.15
459.48	10097.07
459.66	9928.55
459.84	10235.16
460.03	10462.19
460.21	10052.60
460.39	9973.02
460.57	10083.03
460.76	10108.77
460.94	10375.59
461.12	10083.03
461.31	10427.09
461.49	10218.78
461.67	10281.97
461.85	10490.28
462.04	10497.30
462.22	10714.97
462.40	10705.61
462.59	10373.25
462.77	10555.82
462.95	10630.71
463.13	10752.42
463.32	10551.14
463.50	10787.53
463.68	10958.39
463.86	10839.02
464.05	10609.65
464.23	10953.71
464.41	11094.14
464.59	10600.29
464.78	11262.66
464.96	10923.28
465.14	10862.43
465.32	10949.03
465.50	11105.84
465.69	11276.70
465.87	11192.44
466.05	11108.18
466.23	11126.91
466.41	11131.59
466.60	11410.11
466.78	11136.27
466.96	11248.61
467.14	11152.65
467.32	11447.56
467.51	11566.93
467.69	11377.34
467.87	11300.11
468.05	11452.24
468.23	11304.79
468.41	11480.33
468.60	11513.10
468.78	11868.86
468.96	11300.11
469.14	11672.25
469.32	12133.34
469.50	11604.38
469.69	11932.05
469.87	12088.87
470.05	12044.40
470.23	12140.36
470.41	12009.29
470.59	12313.56
470.77	12238.66
470.95	12147.38
471.14	12121.63
471.32	11953.12
471.50	12507.82
471.68	12360.37
471.86	12395.48
472.04	12627.19
472.22	12627.19
472.40	12676.34
472.58	12716.13
472.77	12669.32
472.95	12723.15
473.13	13209.98
473.31	12919.76
473.49	12908.05
473.67	13008.70
473.85	13128.06
474.03	13441.70
474.21	13411.27
474.39	13549.36
474.57	13624.26
474.75	13633.62
474.93	13781.07
475.12	13738.94
475.30	13830.23
475.48	13905.12
475.66	14080.66
475.84	13650.00
476.02	14267.91
476.20	14059.60
476.38	14281.95
476.56	14665.80
476.74	14621.33
476.92	14244.50
477.10	14916.23
477.28	14857.72
477.46	14459.83
477.64	15021.56
477.82	15073.05
478.00	15604.35
478.18	15484.98
478.36	15688.61
478.54	15688.61
478.72	15676.91
478.90	16079.48
479.08	15702.65
479.26	16224.59
479.44	16252.68
479.62	16360.34
479.80	16662.27
479.98	16547.59
480.16	16624.83
480.34	16753.55
480.52	17048.46
480.70	17121.02
480.88	16713.77
481.06	17130.38
481.24	17114.00
481.41	17266.13
481.59	17598.49
481.77	17935.53
481.95	17982.34
482.13	18153.20
482.31	18019.78
482.49	18228.09
482.67	18059.57
482.85	18565.13
483.03	18740.67
483.21	18838.97
483.39	19424.11
483.57	19171.33
483.74	19063.66
483.92	19562.20
484.10	19234.52
484.28	19955.41
484.46	20170.74
484.64	20540.54
484.82	20542.88
485.00	20404.79
485.18	20645.87
485.35	21179.51
485.53	20961.84
485.71	21074.18
485.89	21350.37
486.07	21312.92
486.25	21462.71
486.43	21708.47
486.61	22012.74
486.78	22146.15
486.96	22003.38
487.14	22490.21
487.32	22562.76
487.50	22864.69
487.68	22895.12
487.85	23264.92
488.03	23421.74
488.21	23573.88
488.39	23859.42
488.57	23791.55
488.75	23971.77
488.92	24238.59
489.10	24631.80
489.28	24655.20
489.46	24938.41
489.64	24650.52
489.81	25413.54
489.99	25170.12
490.17	25111.61
490.35	25226.29
490.53	25647.59
490.70	25982.29
490.88	25846.54
491.06	26071.23
491.24	26490.18
491.41	26125.06
491.59	26728.92
491.77	26969.99
491.95	27042.55
492.13	27260.22
492.30	27349.16
492.48	27538.74
492.66	27484.91
492.84	27517.68
493.01	27880.46
493.19	28107.49
493.37	28727.74
493.54	28575.60
493.72	28444.53
493.90	28978.17
494.08	28795.61
494.25	29149.03
494.43	29322.23
494.61	29724.80
494.79	29802.04
494.96	29703.74
495.14	29427.56
495.32	30000.99
495.49	30331.00
495.67	30307.60
495.85	30541.65
496.02	30878.69
496.20	30892.73
496.38	31012.10
496.55	31201.68
496.73	31936.61
496.91	31161.89
497.09	31763.41
497.26	32044.27
497.44	32053.64
497.62	32163.64
497.79	32552.17
497.97	32456.21
498.14	32673.88
498.32	33134.96
498.50	32940.70
498.67	33759.89
498.85	33146.67
499.03	33411.15
499.20	33525.83
499.38	33551.58
499.56	33846.49
499.73	34019.69
499.91	33977.56
500.08	34326.30
500.26	34157.78
500.44	33968.19
500.61	34478.43
500.79	34363.75
500.97	34752.27
501.14	35180.59
501.32	35220.38
501.49	34803.77
501.67	35049.52
501.84	35353.79
502.02	35026.12
502.20	35402.94
502.37	35688.49
502.55	35782.11
502.72	35894.46
502.90	35988.08
503.07	35622.95
503.25	36327.45
503.43	36222.13
503.60	36694.92
503.78	36320.43
503.95	36828.33
504.13	36964.08
504.30	36809.61
504.48	36521.72
504.65	36762.79
504.83	37460.27
505.01	37710.71
505.18	37450.91
505.36	37675.60
505.53	37577.30
505.71	37867.53
505.88	38003.28
506.06	37635.81
506.23	38234.99
506.41	38361.38
506.58	38532.24
506.76	38387.13
506.93	38630.54
507.11	38611.82
507.28	39063.54
507.46	38824.81
507.63	38810.76
507.81	39648.68
507.98	39145.46
508.16	39246.10
508.33	39342.06
508.50	39484.84
508.68	39945.92
508.85	39662.72
509.03	39966.99
509.20	40002.10
509.38	40514.67
509.55	40428.07
509.73	40088.70
509.90	40285.30
510.08	40219.77
510.25	40786.18
510.42	40900.86
510.60	41303.43
510.77	41036.61
510.95	41373.65
511.12	41031.93
511.30	40940.65
511.47	41544.51
511.64	41649.83
511.82	42071.13
511.99	41581.96
512.17	42047.72
512.34	41773.88
512.51	42408.17
512.69	42225.60
512.86	42307.52
513.04	42618.81
513.21	42707.76
513.38	42447.96
513.56	42471.36
513.73	42672.65
513.90	42916.06
514.08	42134.32
514.25	42850.53
514.43	43501.20
514.60	43320.98
514.77	43328.00
514.95	43791.42
515.12	43215.65
515.29	43037.77
515.47	43669.72
515.64	44119.10
515.81	43498.86
515.99	44116.76
516.16	44360.17
516.33	44147.18
516.51	44432.73
516.68	43847.60
516.85	44587.21
517.03	44629.34
517.20	44643.38
517.37	44491.24
517.54	44617.63
517.72	44931.26
517.89	44666.78
518.06	44982.76
518.24	44924.24
518.41	45240.21
518.58	44891.48
518.75	45270.64
518.93	45705.98
519.10	45329.16
519.27	45450.86
519.45	45764.49
519.62	45663.85
519.79	45734.07
519.96	45691.94
520.14	46389.42
520.31	45792.58
520.48	46094.51
520.65	45823.01
520.83	46574.32
521.00	46564.96
521.17	46192.81
521.34	46375.37
521.52	46349.63
521.69	46595.38
521.86	46948.81
522.03	47105.62
522.20	47208.61
522.38	47248.39
522.55	46857.52
522.72	47239.03
522.89	47166.48
523.07	47255.42
523.24	47124.35
523.41	47697.78
523.58	46976.89
523.75	47786.72
523.92	47608.84
524.10	47791.40
524.27	48140.14
524.44	48140.14
524.61	47964.60
524.78	48198.65
524.96	48313.34
525.13	48495.90
525.30	48212.70
525.47	48535.69
525.64	48165.88
525.81	48505.26
525.98	48720.59
526.16	48868.05
526.33	48835.28
526.50	49411.05
526.67	48863.36
526.84	48540.37
527.01	48589.52
527.18	48692.50
527.36	49326.79
527.53	48938.26
527.70	49345.51
527.87	49553.82
528.04	49563.18
528.21	49492.97
528.38	49322.11
528.55	49499.99
528.72	49177.00
528.89	49794.90
529.07	49741.06
529.24	49401.69
529.41	49975.12
529.58	49813.62
529.75	49808.94
529.92	49799.58
530.09	49937.67
530.26	49862.77
530.43	50075.76
530.60	50138.96
530.77	50274.71
530.94	50288.75
531.11	50358.97
531.28	49991.50
531.46	50422.16
531.63	50518.12
531.80	50394.07
531.97	50663.24
532.14	50696.00
532.31	50686.64
532.48	50855.16
532.65	50691.32
532.82	50534.51
532.99	50897.29
533.16	50632.81
533.33	50934.74
533.50	50869.20
533.67	51131.34
533.84	50857.50
534.01	51091.55
534.18	50850.48
534.35	51278.80
534.52	50953.46
534.69	51449.66
534.86	51594.77
535.03	51208.58
535.20	51365.40
535.37	51524.55
535.54	51344.33
535.71	51290.50
535.88	51426.25
536.05	51409.87
536.22	51735.20
536.38	51758.61
536.55	51838.18
536.72	51915.42
536.89	51985.64
537.06	51882.66
537.23	52020.75
537.40	52030.11
537.57	51721.16
537.74	51995.00
537.91	52355.44
538.08	52472.47
538.25	52109.69
538.42	52374.17
538.59	52233.74
538.75	52266.50
538.92	52172.88
539.09	52278.21
539.26	52341.40
539.43	52559.07
539.60	52189.27
539.77	52315.65
539.94	52523.96
540.11	52725.25
540.28	52713.55
540.44	52680.78
540.61	52458.43
540.78	52748.65
540.95	52879.72
541.12	52388.21
541.29	52816.53
541.46	52587.16
541.62	52727.59
541.79	52893.77
541.96	52559.07
542.13	52456.09
542.30	53078.67
542.47	53284.64
542.63	53155.91
542.80	53240.17
542.97	53294.00
543.14	53642.74
543.31	53322.08
543.48	53116.12
543.64	53422.73
543.81	53516.35
543.98	53544.44
544.15	53659.12
544.32	53509.33
544.48	53764.45
544.65	53483.58
544.82	53530.39
544.99	53602.95
545.16	53755.08
545.32	53558.48
545.49	54183.40
545.66	53914.24
545.83	54183.40
546.00	54300.43
546.16	54183.40
546.33	53769.13
546.50	53614.65
546.67	53998.50
546.83	53457.84
547.00	54230.21
547.17	53979.78
547.34	54178.72
547.50	53886.15
547.67	54206.81
547.84	54309.79
548.00	54295.75
548.17	54127.23
548.34	54241.92
548.51	54408.09
548.67	54504.06
548.84	54316.81
549.01	54349.58
549.18	54328.52
549.34	54389.37
549.51	54473.63
549.68	54490.01
549.84	54663.21
550.01	54440.86
550.18	54468.95
550.34	54539.16
550.51	54740.45
550.68	54604.70
550.84	54454.90
551.01	54953.44
551.18	54560.23
551.34	54553.21
551.51	54733.43
551.68	54686.62
551.84	54892.58
552.01	54667.89
552.18	54972.16
552.34	54822.37
552.51	55159.41
552.68	54511.08
552.84	54623.42
553.01	54951.10
553.18	54913.65
553.34	55105.57
553.51	55065.78
553.67	55363.03
553.84	55271.75
554.01	55250.69
554.17	55187.49
554.34	55049.40
554.51	55112.59
554.67	55386.44
554.84	55267.07
555.00	55267.07
555.17	55229.62
555.33	55384.10
555.50	55330.26
555.67	55112.59
555.83	55395.80
556.00	55531.55
556.16	55592.40
556.33	55402.82
556.50	55641.56
556.66	55480.06
556.83	55463.67
556.99	55812.41
557.16	55779.65
557.32	55751.56
557.49	55723.47
557.65	55557.30
557.82	55150.04
557.98	55709.43
558.15	55512.83
558.32	55545.59
558.48	55744.54
558.65	55828.80
558.81	55826.46
558.98	55688.37
559.14	55721.13
559.31	55604.11
559.47	55597.09
559.64	55447.29
559.80	55721.13
559.97	55765.60
560.13	55753.90
560.30	55742.20
560.46	55927.10
560.63	55922.42
560.79	55739.86
560.96	55854.54
561.12	56016.04
561.29	55957.53
561.45	56086.26
561.61	56184.56
561.78	56060.51
561.94	56032.42
562.11	55978.59
562.27	56090.94
562.44	55985.61
562.60	56030.08
562.77	56128.39
562.93	55803.05
563.10	56203.28
563.26	55887.31
563.42	56381.16
563.59	56083.92
563.75	56264.14
563.92	56072.21
564.08	56095.62
564.24	56081.58
564.41	55884.97
564.57	55767.94
564.74	55943.48
564.90	56207.97
565.07	56193.92
565.23	56334.35
565.39	56140.09
565.56	56135.41
565.72	56205.62
565.88	56313.29
566.05	56154.13
566.21	56137.75
566.38	55899.01
566.54	56219.67
566.70	56472.45
566.87	56378.82
567.03	56353.08
567.19	56275.84
567.36	56329.67
567.52	55976.25
567.68	56317.97
567.85	56163.50
568.01	56205.62
568.17	56163.50
568.34	56542.66
568.50	56617.56
568.66	56252.44
568.83	56484.15
568.99	56521.60
569.15	56322.65
569.32	56126.05
569.48	56130.73
569.64	56437.34
569.81	56229.03
569.97	56385.85
570.13	56568.41
570.30	56301.59
570.46	56535.64
570.62	56519.26
570.78	56392.87
570.95	56116.68
571.11	56526.28
571.27	56114.34
571.43	56420.95
571.60	56392.87
571.76	56423.29
571.92	56479.47
572.09	56530.96
572.25	56376.48
572.41	56231.37
572.57	56547.34
572.74	56556.70
572.90	56332.01
573.06	56369.46
573.22	56495.85
573.38	56296.91
573.55	56453.72
573.71	56748.63
573.87	56694.80
574.03	56329.67
574.20	56343.72
574.36	56348.40
574.52	56420.95
574.68	56257.12
574.84	56706.50
575.01	56383.51
575.17	56636.28
575.33	56509.89
575.49	56732.25
575.65	56683.09
575.82	56776.72
575.98	56388.19
576.14	56690.12
576.30	56346.06
576.46	56442.02
576.62	56502.87
576.79	56346.06
576.95	56388.19
577.11	56477.13
577.27	56645.65
577.43	56465.42
577.59	56530.96
577.75	56418.61
577.92	56369.46
578.08	56498.19
578.24	56516.92
578.40	56493.51
578.56	56542.66
578.72	56669.05
578.88	56741.61
579.04	56814.16
579.21	56530.96
579.37	56657.35
579.53	56643.30
579.69	56472.45
579.85	56666.71
580.01	56556.70
580.17	56350.74
580.33	56465.42
580.49	56420.95
580.65	56783.74
580.82	56647.99
580.98	56598.83
581.14	56530.96
581.30	56739.27
581.46	56643.30
581.62	56509.89
581.78	56280.52
581.94	56584.79
582.10	56605.86
582.26	56760.33
582.42	56626.92
582.58	56715.86
582.74	56636.28
582.90	56640.96
583.06	56729.90
583.22	56718.20
583.38	56427.98
583.54	56685.43
583.70	56505.21
583.86	56779.06
584.02	56420.95
584.18	56877.36
584.34	56935.87
584.50	56769.69
584.66	56725.22
584.82	56615.22
584.98	56762.67
585.14	56732.25
585.30	56547.34
585.46	56655.01
585.62	56603.52
585.78	56589.47
585.94	56554.36
586.10	56622.24
586.26	56765.01
586.42	56954.60
586.58	56795.44
586.74	56598.83
586.90	56446.70
587.06	56420.95
587.22	56526.28
587.38	56516.92
587.54	56666.71
587.70	56839.91
587.86	56863.32
588.02	56711.18
588.18	56935.87
588.34	56685.43
588.49	56839.91
588.65	56676.07
588.81	56882.04
588.97	56856.29
589.13	56306.27
589.29	56554.36
589.45	56907.79
589.61	56807.14
589.77	56975.66
589.93	57155.88
590.08	56875.02
590.24	56994.39
590.40	56741.61
590.56	56947.57
590.72	56853.95
590.88	56884.38
591.04	56748.63
591.20	56952.26
591.35	57083.33
591.51	57097.37
591.67	57176.95
591.83	56945.23
591.99	57057.58
592.15	56872.68
592.31	56973.32
592.46	56842.25
592.62	56722.88
592.78	56800.12
592.94	56793.10
593.10	56765.01
593.26	56900.76
593.41	56999.07
593.57	57003.75
593.73	57062.26
593.89	57198.01
594.05	57071.62
594.20	56720.54
594.36	57013.11
594.52	56893.74
594.68	56858.63
594.84	57022.47
594.99	57099.71
595.15	57088.01
595.31	57226.10
595.47	57144.18
595.62	56994.39
595.78	56900.76
595.94	56985.02
596.10	56963.96
596.25	56921.83
596.41	57001.41
596.57	56662.03
596.73	56978.00
596.88	56718.20
597.04	57193.33
597.20	57106.73
597.36	57200.35
597.51	57078.64
597.67	56985.02
597.83	57029.49
597.99	57364.19
598.14	57106.73
598.30	57066.94
598.46	56814.16
598.61	56952.26
598.77	56650.33
598.93	57017.79
599.09	57015.45
599.24	57319.72
599.40	57183.97
599.56	57134.82
599.71	57059.92
599.87	57298.65
600.03	56970.98
600.18	57003.75
600.34	56975.66
600.50	57120.77
600.65	56961.62
600.81	57214.40
600.97	57289.29
601.12	57251.84
601.28	57095.03
601.44	57148.86
601.59	57251.84
601.75	56910.13
601.91	57090.35
602.06	56835.23
602.22	56889.06
602.37	57221.42
602.53	57158.22
602.69	57148.86
602.84	57125.46
603.00	57165.24
603.16	57165.24
603.31	57001.41
603.47	57041.20
603.62	57066.94
603.78	57048.22
603.94	56853.95
604.09	56970.98
604.25	56849.27
604.40	56865.66
604.56	56996.73
604.71	56980.34
604.87	56931.19
605.03	57125.46
605.18	57076.30
605.34	57034.17
605.49	56662.03
605.65	56748.63
605.80	56589.47
605.96	56851.61
606.12	56725.22
606.27	57167.58
606.43	56809.48
606.58	56877.36
606.74	56963.96
606.89	56914.81
607.05	57045.88
607.20	56968.64
607.36	57027.15
607.51	56757.99
607.67	56502.87
607.82	56547.34
607.98	56741.61
608.13	56734.59
608.29	56767.35
608.44	56734.59
608.60	56776.72
608.75	57017.79
608.91	56872.68
609.06	56521.60
609.22	56877.36
609.37	56437.34
609.53	56807.14
609.68	56671.39
609.84	56605.86
609.99	56676.07
610.15	56582.45
610.30	56853.95
610.46	56631.60
610.61	56584.79
610.76	56765.01
610.92	56460.74
611.07	56552.02
611.23	56645.65
611.38	56514.58
611.54	56383.51
611.69	56514.58
611.84	56509.89
612.00	56409.25
612.15	56329.67
612.31	56580.11
612.46	56481.81
612.62	56734.59
612.77	56605.86
612.92	56947.57
613.08	56467.76
613.23	56582.45
613.39	56392.87
613.54	56313.29
613.69	56219.67
613.85	56250.09
614.00	56296.91
614.15	56376.48
614.31	56334.35
614.46	56713.52
614.62	56514.58
614.77	56488.83
614.92	56193.92
615.08	56214.99
615.23	56322.65
615.38	56261.80
615.54	56002.00
615.69	56088.60
615.84	56198.60
616.00	56065.19
616.15	56163.50
616.30	56175.20
616.46	56165.84
616.61	56278.18
616.76	56346.06
616.92	56177.54
617.07	56287.54
617.22	56069.87
617.37	55887.31
617.53	55948.17
617.68	56013.70
617.83	55880.29
617.99	55847.52
618.14	56048.81
618.29	55952.85
618.45	56112.00
618.60	55922.42
618.75	55985.61
618.90	55838.16
619.06	55840.50
619.21	55842.84
619.36	55952.85
619.51	55641.56
619.67	55583.04
619.82	55426.23
619.97	55664.96
620.12	55599.43
620.28	55510.49
620.43	55606.45
620.58	55749.22
620.73	55906.04
620.89	55629.85
621.04	55723.47
621.19	55707.09
621.34	55646.24
621.49	55501.12
621.65	55573.68
621.80	55810.07
621.95	55351.33
622.10	55627.51
622.25	55679.00
622.41	55559.64
622.56	55580.70
622.71	55789.01
622.86	55599.43
623.01	55601.77
623.16	55470.70
623.32	55290.48
623.47	55592.40
623.62	55025.99
623.77	55327.92
623.92	55253.03
624.07	55257.71
624.23	55210.90
624.38	55196.85
624.53	55224.94
624.68	55318.56
624.83	55332.60
624.98	55482.40
625.13	55271.75
625.29	55358.35
625.44	55154.72
625.59	55033.02
625.74	54871.52
625.89	54976.84
626.04	55016.63
626.19	54869.18
626.34	55086.85
626.49	54876.20
626.65	54906.63
626.80	55065.78
626.95	54813.01
627.10	55107.91
627.25	54742.79
627.40	54705.34
627.55	54639.81
627.70	54892.58
627.85	54511.08
628.00	54710.02
628.15	54639.81
628.30	54578.95
628.45	54784.92
628.60	54752.15
628.76	54864.50
628.91	54831.73
629.06	54384.69
629.21	54595.34
629.36	54628.10
629.51	54546.18
629.66	54569.59
629.81	54422.14
629.96	54443.20
630.11	54485.33
630.26	54188.08
630.41	54358.94
630.56	54082.76
630.71	54529.80
630.86	54520.44
631.01	54391.71
631.16	54387.03
631.31	54415.11
631.46	54157.66
631.61	54431.50
631.76	54354.26
631.91	54274.68
632.06	54466.61
632.21	53827.64
632.36	54014.88
632.51	53895.52
632.66	54064.03
632.81	54232.55
632.96	54344.90
633.10	54129.57
633.25	54143.61
633.40	54110.85
633.55	54071.06
633.70	53979.78
633.85	53570.18
634.00	53799.55
634.15	53879.13
634.30	53647.42
634.45	53886.15
634.60	54066.38
634.75	53925.94
634.90	53783.17
635.05	54106.16
635.19	53839.34
635.34	53801.89
635.49	53804.24
635.64	53684.87
635.79	53701.25
635.94	53780.83
636.09	53439.11
636.24	53715.29
636.39	53595.93
636.53	53570.18
636.68	53668.48
636.83	53418.05
636.98	53591.25
637.13	53563.16
637.28	53675.51
637.43	53567.84
637.57	53439.11
637.72	53343.15
637.87	53420.39
638.02	53640.40
638.17	53322.08
638.32	53439.11
638.46	53081.01
638.61	52971.00
638.76	53120.80
638.91	53059.94
639.06	52875.04
639.20	52985.05
639.35	53338.47
639.50	53167.61
639.65	53378.26
639.80	53174.63
639.94	53165.27
640.09	53099.73
640.24	53027.18
640.39	52921.85
640.54	52753.33
640.68	52882.06
640.83	52793.12
640.98	52610.56
641.13	52381.19
641.27	52652.69
641.42	52746.31
641.57	52507.58
641.72	52879.72
641.86	52514.60
642.01	52645.67
642.16	52699.50
642.31	52549.71
642.45	52594.18
642.60	52325.02
642.75	52645.67
642.90	52779.08
643.04	52552.05
643.19	52397.57
643.34	52561.41
643.48	52369.49
643.63	52729.93
643.78	52502.90
643.93	52767.38
644.07	52280.55
644.22	52582.48
644.37	52280.55
644.51	52678.44
644.66	52413.96
644.81	52549.71
644.95	52339.06
645.10	52184.58
645.25	52065.22
645.39	52170.54
645.54	52240.76
645.69	52296.93
645.83	52327.36
645.98	52278.21
646.13	52329.70
646.27	52301.61
646.42	52207.99
646.57	52170.54
646.71	52182.24
646.86	52147.14
647.00	51889.68
647.15	52032.45
647.30	51700.09
647.44	51707.12
647.59	52219.69
647.74	51725.84
647.88	52186.92
648.03	51868.61
648.17	51767.97
648.32	51744.56
648.47	51845.21
648.61	51889.68
648.76	52133.09
648.90	51742.22
649.05	51391.14
649.20	51650.94
649.34	51578.39
649.49	51440.29
649.63	51433.27
649.78	51688.39
649.92	51573.70
650.07	51786.69
650.21	51695.41
650.36	51732.86
650.51	51700.09
650.65	51917.76
650.80	52102.67
650.94	51498.81
651.09	51503.49
651.23	51522.21
651.38	51524.55
651.52	51475.40
651.67	51309.22
651.81	51444.98
651.96	51203.90
652.10	51208.58
652.25	51175.81
652.39	51377.10
652.54	51393.48
652.68	51459.02
652.83	51203.90
652.97	51681.37
653.12	51395.82
653.26	51002.61
653.41	51110.28
653.55	51147.73
653.70	50595.36
653.84	50979.21
653.99	50663.24
654.13	51129.00
654.27	50894.95
654.42	50787.28
654.56	50988.57
654.71	50497.06
654.85	50880.91
655.00	50883.25
655.14	50773.24
655.29	50588.34
655.43	50862.18
655.57	50747.50
655.72	50735.79
655.86	50602.38
656.01	50504.08
656.15	49949.37
656.30	50272.37
656.44	50206.83
656.58	50522.80
656.73	50466.63
656.87	50312.16
657.01	50525.14
657.16	50569.61
657.30	50539.19
657.45	50473.65
657.59	50555.57
657.73	50073.42
657.88	50497.06
658.02	50012.57
658.16	49977.46
658.31	49921.29
658.45	49888.52
658.60	50024.27
658.74	50047.68
658.88	49883.84
659.03	49696.59
659.17	49853.41
659.31	49624.04
659.46	49771.49
659.60	49977.46
659.74	50014.91
659.89	49748.09
660.03	49773.83
660.17	50021.93
660.32	49214.44
660.46	49598.29
660.60	49294.02
660.74	49710.64
660.89	49212.10
661.03	48912.52
661.17	49207.42
661.32	49301.04
661.46	49045.93
661.60	49045.93
661.74	49015.50
661.89	49017.84
662.03	49160.61
662.17	48856.34
662.31	49097.42
662.46	49071.67
662.60	48863.36
662.74	48790.81
662.88	48629.31
663.03	48516.96
663.17	48666.76
663.31	48119.07
663.45	48643.35
663.60	48729.95
663.74	48402.28
663.88	48519.31
664.02	47959.92
664.17	48442.07
664.31	48306.32
664.45	47821.83
664.59	48193.97
664.73	48439.73
664.88	48123.75
665.02	47454.36
665.16	47461.38
665.30	47473.09
665.44	47384.15
665.59	47264.78
665.73	46813.05
665.87	47297.55
666.01	47473.09
666.15	47517.56
666.29	47313.93
666.44	47510.53
666.58	47508.19
666.72	47349.04
666.86	47732.89
667.00	47096.26
667.14	47145.41
667.28	47030.72
667.43	47124.35
667.57	47316.27
667.71	46794.33
667.85	46724.11
667.99	46417.50
668.13	46564.96
668.27	46452.61
668.41	46621.13
668.56	46288.77
668.70	46110.89
668.84	46288.77
668.98	46410.48
669.12	45954.08
669.26	46307.50
669.40	46160.05
669.54	46197.49
669.68	46031.32
669.82	46050.04
669.96	45715.34
670.10	45352.56
670.25	45879.18
670.39	45551.51
670.53	45160.64
670.67	45223.83
670.81	45593.64
670.95	45851.09
671.09	45605.34
671.23	45441.50
671.37	45375.97
671.51	45387.67
671.65	45165.32
671.79	45090.42
671.93	44971.05
672.07	44994.46
672.21	44847.00
672.35	44414.01
672.49	44666.78
672.63	44507.63
672.77	44123.78
672.91	44006.75
673.05	43498.86
673.19	44402.30
673.33	44577.84
673.47	44362.51
673.61	44140.16
673.75	44128.46
673.89	44245.49
674.03	43966.96
674.17	43779.72
674.31	44098.03
674.45	43562.05
674.59	43494.18
674.73	43517.58
674.87	43189.91
675.01	42885.64
675.15	43115.01
675.29	42866.91
675.43	42878.61
675.56	42855.21
675.70	43166.50
675.84	43161.82
675.98	41947.08
676.12	42492.43
676.26	42913.72
676.40	42653.92
676.54	42108.58
676.68	42384.76
676.82	41528.13
676.96	41766.86
677.10	41340.88
677.23	41436.84
677.37	40854.05
677.51	41219.17
677.65	41003.85
677.79	40346.15
677.93	40685.53
678.07	40769.79
678.21	40573.19
678.34	40601.27
678.48	40882.14
678.62	40718.30
678.76	40509.99
678.90	40067.63
679.04	39648.68
679.18	40034.86
679.31	39358.45
679.45	39810.17
679.59	39501.22
679.73	39440.37
679.87	39306.96
680.00	38806.08
680.14	38810.76
680.28	39124.40
680.42	38967.58
680.56	38733.53
680.70	38782.68
680.83	38787.36
680.97	38562.67
681.11	38813.10
681.25	38637.56
681.39	38485.43
681.52	38443.30
681.66	38150.73
681.80	38082.86
681.94	37778.59
682.07	37729.44
682.21	37628.79
682.35	37406.44
682.49	37284.73
682.62	37315.16
682.76	37116.22
682.90	36627.04
683.04	36961.74
683.17	37041.32
683.31	37024.93
683.45	36961.74
683.59	36491.29
683.72	36257.24
683.86	36175.32
684.00	36196.38
684.13	35859.35
684.27	35601.89
684.41	35505.93
684.55	35412.31
684.68	35562.10
684.82	35665.08
684.96	35182.93
685.09	34941.86
685.23	35023.78
685.37	35218.04
685.50	35225.06
685.64	34796.74
685.78	34801.43
685.91	34660.99
686.05	34405.88
686.19	34305.23
686.32	34223.31
686.46	33785.63
686.60	33853.51
686.73	33942.45
686.87	33462.64
687.01	33951.81
687.14	33380.72
687.28	33125.60
687.42	32952.40
687.55	32568.55
687.69	33237.95
687.82	32980.49
687.96	33076.45
688.10	32849.42
688.23	32587.28
688.37	32423.44
688.50	32627.07
688.64	32378.97
688.78	32442.17
688.91	32048.96
689.05	32224.50
689.18	32093.43
689.32	31126.78
689.46	31445.10
689.59	31590.21
689.73	31255.51
689.86	31346.79
690.00	31541.06
690.13	31353.82
690.27	30892.73
690.41	31087.00
690.54	30937.20
690.68	30569.74
690.81	31058.91
690.95	30745.28
691.08	30558.03
691.22	30389.52
691.35	29626.50
691.49	30251.42
691.62	29965.88
691.76	29675.65
691.89	29207.55
692.03	29352.66
692.16	29624.16
692.30	29195.84
692.43	29069.45
692.57	28809.65
692.70	28992.22
692.84	28907.96
692.97	28804.97
693.11	29001.58
693.24	28795.61
693.38	28617.73
693.51	28856.46
693.65	28739.44
693.78	28645.82
693.92	28741.78
694.05	28460.91
694.19	27957.70
694.32	27889.82
694.45	27585.55
694.59	27793.86
694.72	27456.82
694.86	27332.78
694.99	27108.08
695.13	27112.77
695.26	26764.03
695.39	26787.43
695.53	26911.48
695.66	27213.41
695.80	27030.85
695.93	26691.47
696.07	26473.80
696.20	26745.30
696.33	26216.34
696.47	26127.40
696.60	26052.50
696.73	25926.11
696.87	25701.42
697.00	25982.29
697.14	25085.86
697.27	25113.95
697.40	25142.03
697.54	24961.81
697.67	25120.97
697.80	25296.51
697.94	24994.58
698.07	24704.35
698.21	24865.85
698.34	24512.43
698.47	24545.20
698.61	24573.28
698.74	24393.06
698.87	24425.83
699.01	24079.43
699.14	23960.06
699.27	24098.16
699.40	23861.76
699.54	23548.13
699.67	23730.69
699.80	23246.20
699.94	22637.66
700.07	23517.70
700.20	23171.30
700.34	22871.72
700.47	22766.39
700.60	22979.38
700.73	22890.44
700.87	22911.50
701.00	22609.58
701.13	22286.58
701.26	22574.47
701.40	22773.41
701.53	22487.87
701.66	22295.94
701.79	22024.44
701.93	21884.01
702.06	21862.94
702.19	21682.72
702.32	21675.70
702.46	21446.33
702.59	21282.49
702.72	21083.55
702.85	21149.08
702.99	21137.38
703.12	21118.65
703.25	20996.95
703.38	21013.33
703.51	20802.68
703.65	21046.10
703.78	20526.50
703.91	20643.52
704.04	20526.50
704.17	20320.53
704.31	20252.66
704.44	20348.62
704.57	20341.60
704.70	19854.76
704.83	19871.15
704.96	19503.68
705.10	19829.02
705.23	19609.01
>>>>>End Processed Spectral Data<<<<<
