SpectraSuite Data File
++++++++++++++++++++++++++++++++++++
Date: Fri Oct 18 13:55:17 GMT-05:00 2013
User: bianchi
Dark Spectrum Present: No
Reference Spectrum Present: No
Number of Sampled Component Spectra: 1
Spectrometers: USB2+H05261
Integration Time (usec): 100000 (USB2+H05261)
Spectra Averaged: 1 (USB2+H05261)
Boxcar Smoothing: 0 (USB2+H05261)
Correct for Electrical Dark: No (USB2+H05261)
Strobe/Lamp Enabled: No (USB2+H05261)
Correct for Detector Non-linearity: No (USB2+H05261)
Correct for Stray Light: No (USB2+H05261)
Number of Pixels in Processed Spectrum: 2048
>>>>>Begin Processed Spectral Data<<<<<
365.73	0.00
365.92	0.00
366.12	0.00
366.32	0.00
366.52	0.00
366.72	0.00
366.91	0.00
367.11	0.00
367.31	0.00
367.51	0.00
367.70	0.00
367.90	0.00
368.10	0.00
368.30	0.00
368.49	0.00
368.69	0.00
368.89	0.00
369.09	0.00
369.28	0.00
369.48	0.00
369.68	0.00
369.87	0.00
370.07	0.00
370.27	0.00
370.47	39.79
370.66	297.25
370.86	348.74
371.06	376.83
371.25	376.83
371.45	313.63
371.65	381.51
371.84	388.53
372.04	386.19
372.24	341.72
372.44	379.17
372.63	430.66
372.83	388.53
373.03	461.09
373.22	440.02
373.42	437.68
373.62	470.45
373.81	507.90
374.01	496.19
374.21	456.40
374.40	428.32
374.60	414.27
374.79	477.47
374.99	503.22
375.19	552.37
375.38	507.90
375.58	454.06
375.78	449.38
375.97	573.43
376.17	580.45
376.37	533.64
376.56	587.47
376.76	500.87
376.95	521.94
377.15	601.52
377.35	559.39
377.54	615.56
377.74	528.96
377.93	571.09
378.13	571.09
378.33	622.58
378.52	592.16
378.72	617.90
378.91	573.43
379.11	543.00
379.31	622.58
379.50	585.13
379.70	629.60
379.89	599.18
380.09	676.41
380.28	585.13
380.48	662.37
380.68	608.54
380.87	671.73
381.07	657.69
381.26	709.18
381.46	667.05
381.65	641.31
381.85	643.65
382.04	629.60
382.24	741.95
382.43	760.67
382.63	763.01
382.83	753.65
383.02	716.20
383.22	777.06
383.41	706.84
383.61	706.84
383.80	788.76
384.00	723.23
384.19	765.36
384.39	863.66
384.58	727.91
384.78	718.54
384.97	828.55
385.17	755.99
385.36	699.82
385.56	809.83
385.75	709.18
385.95	765.36
386.14	805.14
386.34	837.91
386.53	753.65
386.72	770.04
386.92	873.02
387.11	875.36
387.31	833.23
387.50	870.68
387.70	856.64
387.89	887.06
388.09	854.30
388.28	786.42
388.48	901.11
388.67	945.58
388.86	992.39
389.06	933.87
389.25	922.17
389.45	929.19
389.64	954.94
389.84	959.62
390.03	1020.47
390.22	980.68
390.42	959.62
390.61	1053.24
390.81	1053.24
391.00	1062.60
391.19	1081.33
391.39	1032.18
391.58	959.62
391.78	964.30
391.97	1036.86
392.16	971.32
392.36	1107.07
392.55	1100.05
392.75	1039.20
392.94	1081.33
393.13	1158.57
393.33	1011.11
393.52	1146.86
393.71	1214.74
393.91	1203.04
394.10	1163.25
394.29	1158.57
394.49	1240.48
394.68	1198.35
394.88	1163.25
395.07	1280.27
395.26	1224.10
395.46	1238.14
395.65	1308.36
395.84	1259.21
396.04	1341.13
396.23	1291.98
396.42	1299.00
396.62	1352.83
396.81	1306.02
397.00	1390.28
397.19	1411.34
397.39	1486.24
397.58	1392.62
397.77	1327.08
397.97	1439.43
398.16	1366.87
398.35	1465.18
398.55	1444.11
398.74	1423.05
398.93	1516.67
399.12	1483.90
399.32	1451.13
399.51	1483.90
399.70	1558.80
399.90	1404.32
400.09	1575.18
400.28	1551.78
400.47	1596.25
400.67	1626.67
400.86	1586.88
401.05	1568.16
401.24	1626.67
401.44	1589.22
401.63	1746.04
401.82	1652.42
402.01	1680.50
402.21	1771.79
402.40	1748.38
402.59	1732.00
402.78	1732.00
402.97	1783.49
403.17	1785.83
403.36	1790.51
403.55	1783.49
403.74	1713.27
403.93	1797.53
404.13	1940.30
404.32	1849.02
404.51	1926.26
404.70	1928.60
404.89	1837.32
405.09	2033.93
405.28	1937.96
405.47	2052.65
405.66	2024.56
405.85	2024.56
406.05	2069.03
406.24	2087.76
406.43	2176.70
406.62	2237.55
406.81	2246.91
407.00	2188.40
407.20	2181.38
407.39	2176.70
407.58	2207.13
407.77	2218.83
407.96	2242.23
408.15	2370.96
408.34	2260.96
408.54	2317.13
408.73	2303.09
408.92	2326.49
409.11	2347.56
409.30	2394.37
409.49	2450.54
409.68	2593.31
409.87	2520.76
410.07	2581.61
410.26	2576.93
410.45	2506.71
410.64	2715.02
410.83	2473.95
411.02	2661.19
411.21	2693.96
411.40	2675.23
411.59	2675.23
411.78	2794.60
411.98	2806.30
412.17	2785.24
412.36	2836.73
412.55	2778.22
412.74	2979.50
412.93	2958.44
413.12	2710.34
413.31	3152.70
413.50	3033.33
413.69	2937.37
413.88	3124.62
414.07	3178.45
414.26	3162.06
414.45	3169.09
414.64	3243.98
414.83	3241.64
415.02	3227.60
415.22	3267.39
415.41	3262.71
415.60	3363.35
415.79	3410.16
415.98	3534.21
416.17	3358.67
416.36	3487.40
416.55	3648.90
416.74	3536.55
416.93	3620.81
417.12	3653.58
417.31	3662.94
417.50	3744.86
417.69	3709.75
417.88	3847.84
418.07	3887.63
418.26	3808.05
418.45	3770.60
418.64	3829.12
418.83	3999.98
419.02	3922.74
419.21	4032.74
419.39	3983.59
419.58	3957.85
419.77	4049.13
419.96	4032.74
420.15	4131.05
420.34	4072.53
420.53	4053.81
420.72	4250.41
420.91	4161.47
421.10	4327.65
421.29	4418.93
421.48	4208.28
421.67	4243.39
421.86	4276.16
422.05	4334.67
422.24	4229.35
422.43	4273.82
422.61	4444.68
422.80	4500.85
422.99	4386.16
423.18	4531.28
423.37	4348.72
423.56	4505.53
423.75	4421.27
423.94	4341.69
424.13	4222.33
424.32	4189.56
424.50	4325.31
424.69	4559.36
424.88	4643.62
425.07	4440.00
425.26	4355.74
425.45	4526.60
425.64	4369.78
425.83	4493.83
426.01	4547.66
426.20	4521.92
426.39	4638.94
426.58	4458.72
426.77	4526.60
426.96	4599.15
427.15	4688.09
427.33	4601.49
427.52	4676.39
427.71	4926.83
427.90	4702.14
428.09	4652.98
428.28	4786.40
428.46	4758.31
428.65	4844.91
428.84	5088.32
429.03	5184.29
429.22	4950.23
429.40	5004.07
429.59	5111.73
429.78	4837.89
429.97	4751.29
430.16	4919.81
430.34	5015.77
430.53	5273.23
430.72	5142.16
430.91	4961.94
431.10	4957.25
431.28	5294.29
431.47	5245.14
431.66	5320.04
431.85	5177.26
432.03	5411.32
432.22	5572.82
432.41	5245.14
432.60	5352.81
432.79	5270.89
432.97	5516.64
433.16	5500.26
433.35	5469.83
433.54	5540.05
433.72	5493.24
433.91	5446.43
434.10	5390.25
434.28	5598.56
434.47	5493.24
434.66	5636.01
434.85	5678.14
435.03	5760.06
435.22	5675.80
435.41	6001.13
435.59	5692.18
435.78	5727.29
435.97	5837.30
436.16	5994.11
436.34	5856.02
436.53	6010.50
436.72	6071.35
436.90	5832.62
437.09	6101.78
437.28	5792.83
437.46	5996.45
437.65	6181.35
437.84	6141.57
438.02	6190.72
438.21	6101.78
438.40	6136.88
438.58	6494.99
438.77	6349.87
438.96	6328.81
439.14	6532.44
439.33	6583.93
439.52	6726.70
439.70	6644.78
439.89	6780.53
440.08	6869.47
440.26	6775.85
440.45	6654.14
440.63	6771.17
440.82	7117.57
441.01	6885.86
441.19	7030.97
441.38	7232.26
441.57	7075.44
441.75	7190.13
441.94	7274.38
442.12	7169.06
442.31	7368.01
442.50	7332.90
442.68	7232.26
442.87	7295.45
443.05	7297.79
443.24	7611.42
443.43	7337.58
443.61	7648.87
443.80	7646.53
443.98	7318.86
444.17	7222.89
444.35	7513.12
444.54	7590.36
444.73	7503.76
444.91	7428.86
445.10	7599.72
445.28	7698.02
445.47	7485.03
445.65	7597.38
445.84	7681.64
446.02	7941.44
446.21	7599.72
446.39	7742.49
446.58	7646.53
446.77	7672.28
446.95	7634.83
447.14	7665.25
447.32	7838.45
447.51	7733.13
447.69	7625.47
447.88	7775.26
448.06	7693.34
448.25	7681.64
448.43	7782.28
448.62	7889.95
448.80	7838.45
448.99	7676.96
449.17	7805.69
449.36	7911.01
449.54	8217.62
449.73	8528.91
449.91	8100.59
450.10	8196.56
450.28	8231.66
450.46	8262.09
450.65	8231.66
450.83	8311.24
451.02	8177.83
451.20	8297.20
451.39	8304.22
451.57	8397.84
451.76	8217.62
451.94	8376.78
452.13	8461.04
452.31	8526.57
452.49	8166.13
452.68	8496.14
452.86	8561.68
453.05	8659.98
453.23	8655.30
453.42	8571.04
453.60	8507.85
453.78	8706.79
453.97	8493.80
454.15	8784.03
454.34	8821.48
454.52	8975.95
454.70	8926.80
454.89	8982.98
455.07	8861.27
455.26	9043.83
455.44	9153.84
455.62	9095.32
455.81	8964.25
455.99	9085.96
456.17	9039.15
456.36	9231.07
456.54	9329.38
456.73	9425.34
456.91	9490.87
457.09	9586.83
457.28	9533.00
457.46	9434.70
457.64	9745.99
457.83	9664.07
458.01	9453.42
458.19	9731.95
458.38	9792.80
458.56	9682.80
458.74	9834.93
458.93	9647.69
459.11	9724.93
459.29	9877.06
459.48	9891.10
459.66	10047.92
459.84	10040.90
460.03	10272.61
460.21	10068.98
460.39	9982.38
460.57	10059.62
460.76	10061.96
460.94	10281.97
461.12	10406.02
461.31	10036.22
461.49	10242.18
461.67	10150.90
461.85	10221.12
462.04	10401.34
462.22	10843.70
462.40	10473.90
462.59	10239.84
462.77	10569.86
462.95	10450.49
463.13	10565.18
463.32	10743.06
463.50	10672.84
463.68	10675.18
463.86	10518.37
464.05	10548.79
464.23	10904.56
464.41	10832.00
464.59	10548.79
464.78	11098.82
464.96	10836.68
465.14	10663.48
465.32	11089.46
465.50	11126.91
465.69	11009.88
465.87	10984.13
466.05	11007.54
466.23	11014.56
466.41	11351.60
466.60	11391.39
466.78	11061.37
466.96	11255.64
467.14	11225.21
467.32	11265.00
467.51	11562.25
467.69	10871.79
467.87	11304.79
468.05	11283.72
468.23	11154.99
468.41	11208.83
468.60	11323.51
468.78	11690.98
468.96	11356.28
469.14	11449.90
469.32	11976.52
469.50	11466.28
469.69	11833.75
469.87	12067.80
470.05	11999.93
470.23	11889.92
470.41	11927.37
470.59	12067.80
470.77	11995.25
470.95	12037.38
471.14	12121.63
471.32	12044.40
471.50	12355.69
471.68	12257.39
471.86	12458.67
472.04	12461.01
472.22	12622.51
472.40	12592.08
472.58	12566.34
472.77	12540.59
472.95	12938.48
473.13	12968.91
473.31	13022.74
473.49	12578.04
473.67	12996.99
473.85	12751.24
474.03	13247.43
474.21	13582.13
474.39	13399.57
474.57	13170.19
474.75	13441.70
474.93	13760.01
475.12	13497.87
475.30	13661.71
475.48	13525.96
475.66	13584.47
475.84	13647.66
476.02	13926.19
476.20	13987.04
476.38	14377.91
476.56	14328.76
476.74	14317.06
476.92	14307.69
477.10	14176.62
477.28	14583.88
477.46	14361.53
477.64	14721.97
477.82	15110.50
478.00	15269.66
478.18	15344.55
478.36	15389.02
478.54	15506.05
478.72	15538.82
478.90	15810.32
479.08	15726.06
479.26	16203.53
479.44	16112.25
479.62	16339.28
479.80	16449.28
479.98	16430.56
480.16	16570.99
480.34	16475.03
480.52	17144.42
480.70	17011.01
480.88	16851.86
481.06	16826.11
481.24	16896.33
481.41	17170.17
481.59	17472.10
481.77	17554.02
481.95	17776.37
482.13	18274.90
482.31	17886.37
482.49	18457.46
482.67	18099.36
482.85	18593.22
483.03	18665.77
483.21	18647.05
483.39	18972.38
483.57	18661.09
483.74	19051.96
483.92	19176.01
484.10	19494.32
484.28	19431.13
484.46	20093.50
484.64	20180.10
484.82	19688.59
485.00	20039.67
485.18	20360.32
485.35	20912.69
485.53	20741.83
485.71	20732.47
485.89	21418.24
486.07	20943.11
486.25	21310.58
486.43	21254.40
486.61	21809.11
486.78	21874.65
486.96	21989.33
487.14	22216.36
487.32	21879.33
487.50	22483.19
487.68	22724.26
487.85	22944.27
488.03	23161.94
488.21	23297.69
488.39	23363.23
488.57	23667.50
488.75	23697.92
488.92	23967.09
489.10	24109.86
489.28	24327.53
489.46	24669.25
489.64	24617.75
489.81	24884.58
489.99	24889.26
490.17	25221.61
490.35	25221.61
490.53	25596.10
490.70	25860.58
490.88	25635.89
491.06	26242.09
491.24	25603.12
491.41	26087.61
491.59	26410.60
491.77	26529.97
491.95	26581.46
492.13	27026.17
492.30	27206.39
492.48	27105.74
492.66	27047.23
492.84	27805.56
493.01	27552.79
493.19	27847.69
493.37	28381.34
493.54	28556.88
493.72	28348.57
493.90	28643.48
494.08	28369.63
494.25	29153.71
494.43	28889.23
494.61	29062.43
494.79	29387.77
494.96	29331.59
495.14	29687.36
495.32	29759.91
495.49	30012.69
495.67	30174.19
495.85	30445.69
496.02	30845.92
496.20	30841.24
496.38	30672.72
496.55	31122.10
496.73	31342.11
496.91	31274.24
497.09	31580.85
497.26	31662.77
497.44	31454.46
497.62	31690.85
497.79	32285.35
497.97	32081.72
498.14	32507.70
498.32	32549.83
498.50	32294.71
498.67	32973.47
498.85	32779.20
499.03	32961.76
499.20	33039.00
499.38	32877.51
499.56	33502.43
499.73	33720.10
499.91	33350.29
500.08	34237.36
500.26	33820.74
500.44	33755.21
500.61	33991.60
500.79	34003.30
500.97	34319.28
501.14	34948.88
501.32	34794.40
501.49	34312.25
501.67	34726.53
501.84	34813.13
502.02	34801.43
502.20	35356.13
502.37	35421.67
502.55	35229.74
502.72	35857.01
502.90	35501.25
503.07	35463.80
503.25	35484.86
503.43	35990.42
503.60	36273.62
503.78	36893.86
503.95	36498.31
504.13	36500.65
504.30	36385.97
504.48	36329.80
504.65	36987.49
504.83	37036.64
505.01	36985.15
505.18	37062.38
505.36	37589.00
505.53	37120.90
505.71	36989.83
505.88	37605.39
506.06	37024.93
506.23	38073.49
506.41	37811.35
506.58	38225.63
506.76	37968.17
506.93	38108.60
507.11	38164.78
507.28	38518.20
507.46	38850.55
507.63	38616.50
507.81	38836.51
507.98	38918.43
508.16	38677.35
508.33	38738.21
508.50	38976.94
508.68	38600.12
508.85	39136.10
509.03	39533.99
509.20	39360.79
509.38	39992.73
509.55	40250.19
509.73	39812.51
509.90	40240.83
510.08	39950.60
510.25	40065.29
510.42	40634.04
510.60	40858.73
510.77	40982.78
510.95	40907.88
511.12	40765.11
511.30	40861.07
511.47	41071.72
511.64	41331.52
511.82	41708.35
511.99	40790.86
512.17	41598.34
512.34	41326.84
512.51	41762.18
512.69	41544.51
512.86	41897.93
513.04	42312.20
513.21	42396.46
513.38	42576.69
513.56	42600.09
513.73	42057.09
513.90	42286.46
514.08	42270.08
514.25	42887.98
514.43	42569.66
514.60	42724.14
514.77	42895.00
514.95	43140.75
515.12	42885.64
515.29	43344.38
515.47	43580.78
515.64	43107.99
515.81	43669.72
515.99	43569.07
516.16	43959.94
516.33	43880.36
516.51	43601.84
516.68	43728.23
516.85	44144.84
517.03	44156.55
517.20	44100.37
517.37	44278.25
517.54	44596.57
517.72	44088.67
517.89	44479.54
518.06	44545.08
518.24	44879.77
518.41	44641.04
518.58	44474.86
518.75	44786.15
518.93	45162.98
519.10	45088.08
519.27	45155.96
519.45	44973.39
519.62	45338.52
519.79	45095.10
519.96	45404.05
520.14	45715.34
520.31	45869.82
520.48	45811.31
520.65	45427.46
520.83	46471.34
521.00	45371.28
521.17	45825.35
521.34	46127.28
521.52	46494.74
521.69	46326.22
521.86	46628.15
522.03	46866.89
522.20	46646.88
522.38	46227.92
522.55	46464.32
522.72	46499.42
522.89	47454.36
523.07	46759.22
523.24	47086.90
523.41	47576.07
523.58	47075.19
523.75	47508.19
523.92	47047.11
524.10	47360.74
524.27	47192.22
524.44	47718.84
524.61	48065.24
524.78	48203.33
524.96	48076.94
525.13	47840.55
525.30	48170.57
525.47	48004.39
525.64	48086.31
525.81	47997.37
525.98	48514.62
526.16	48098.01
526.33	48268.87
526.50	48718.25
526.67	47922.47
526.84	48568.46
527.01	48556.75
527.18	48112.05
527.36	49003.80
527.53	48800.17
527.70	48964.01
527.87	48933.58
528.04	48942.94
528.21	49066.99
528.38	48917.20
528.55	49235.51
528.72	49120.82
528.89	49287.00
529.07	49317.43
529.24	48987.41
529.41	49401.69
529.58	49467.22
529.75	49169.97
529.92	49404.03
530.09	49439.14
530.26	49434.45
530.43	49834.69
530.60	49701.28
530.77	49649.78
530.94	49881.50
531.11	49593.61
531.28	49715.32
531.46	49806.60
531.63	50167.04
531.80	50237.26
531.97	50171.72
532.14	50258.32
532.31	50415.14
532.48	50340.24
532.65	50335.56
532.82	49972.78
532.99	50398.76
533.16	50373.01
533.33	50691.32
533.50	51117.30
533.67	50766.22
533.84	50492.38
534.01	50431.52
534.18	50443.23
534.35	50850.48
534.52	50871.54
534.69	51051.76
534.86	51011.98
535.03	50726.43
535.20	50946.44
535.37	51246.03
535.54	51463.70
535.71	50597.70
535.88	51346.67
536.05	50810.69
536.22	51302.20
536.38	51599.45
536.55	51512.85
536.72	51611.15
536.89	51398.16
537.06	51648.60
537.23	51498.81
537.40	51515.19
537.57	51351.35
537.74	51650.94
537.91	51796.06
538.08	51889.68
538.25	51786.69
538.42	51803.08
538.59	52025.43
538.75	51325.61
538.92	51856.91
539.09	52109.69
539.26	51971.60
539.43	51892.02
539.60	52271.18
539.77	52116.71
539.94	52416.30
540.11	52175.22
540.28	52196.29
540.44	52437.36
540.61	52156.50
540.78	52114.37
540.95	52341.40
541.12	52301.61
541.29	52322.68
541.46	52449.06
541.62	52762.70
541.79	52446.72
541.96	52069.90
542.13	52154.16
542.30	52584.82
542.47	52755.68
542.63	52907.81
542.80	52865.68
542.97	53066.97
543.14	52882.06
543.31	52956.96
543.48	52956.96
543.64	53427.41
543.81	53256.55
543.98	53448.47
544.15	53453.15
544.32	53247.19
544.48	53371.24
544.65	53450.81
544.82	53237.83
544.99	53329.11
545.16	53357.19
545.32	53270.59
545.49	53806.58
545.66	53703.59
545.83	53535.07
546.00	53900.20
546.16	53602.95
546.33	53631.04
546.50	53272.93
546.67	53551.46
546.83	53301.02
547.00	53607.63
547.17	53638.06
547.34	53815.94
547.50	53942.33
547.67	54035.95
547.84	53815.94
548.00	54145.95
548.17	54197.44
548.34	53982.12
548.51	54253.62
548.67	54045.31
548.84	54255.96
549.01	54223.19
549.18	53890.83
549.34	54171.70
549.51	53834.66
549.68	53932.96
549.84	54017.22
550.01	54185.74
550.18	54122.55
550.34	54461.93
550.51	54681.94
550.68	54272.34
550.84	53900.20
551.01	54438.52
551.18	54061.69
551.34	54127.23
551.51	54272.34
551.68	54539.16
551.84	54440.86
552.01	54405.75
552.18	54370.64
552.34	54506.40
552.51	54597.68
552.68	54272.34
552.84	54719.38
553.01	54869.18
553.18	54695.98
553.34	54656.19
553.51	54501.71
553.67	54801.30
553.84	55112.59
554.01	54880.88
554.17	54927.69
554.34	54913.65
554.51	54841.09
554.67	55121.96
554.84	54878.54
555.00	54707.68
555.17	55117.28
555.33	55061.10
555.50	54948.76
555.67	54742.79
555.83	55103.23
556.00	54920.67
556.16	55025.99
556.33	54845.77
556.50	54798.96
556.66	55348.99
556.83	55007.27
556.99	55288.13
557.16	55370.05
557.32	55304.52
557.49	55454.31
557.65	54899.61
557.82	55269.41
557.98	55107.91
558.15	55220.26
558.32	55463.67
558.48	55370.05
558.65	55334.95
558.81	55217.92
558.98	55501.12
559.14	55451.97
559.31	55524.53
559.47	55203.88
559.64	55356.01
559.80	55529.21
559.97	55767.94
560.13	55388.78
560.30	55524.53
560.46	55458.99
560.63	55599.43
560.79	55501.12
560.96	55585.38
561.12	55674.32
561.29	55473.04
561.45	55709.43
561.61	55653.26
561.78	55664.96
561.94	55746.88
562.11	55842.84
562.27	55599.43
562.44	55372.39
562.60	55496.44
562.77	55671.98
562.93	55625.17
563.10	55884.97
563.26	55580.70
563.42	56172.86
563.59	55856.88
563.75	55688.37
563.92	55941.14
564.08	55718.79
564.24	55683.69
564.41	55810.07
564.57	55894.33
564.74	55646.24
564.90	55725.81
565.07	55576.02
565.23	55969.23
565.39	55899.01
565.56	56090.94
565.72	55983.27
565.88	55859.23
566.05	55784.33
566.21	55735.18
566.38	55611.13
566.54	55917.74
566.70	56168.18
566.87	56172.86
567.03	56144.77
567.19	56322.65
567.36	55917.74
567.52	55599.43
567.68	56058.17
567.85	55952.85
568.01	55955.19
568.17	55948.17
568.34	56060.51
568.50	55845.18
568.66	55978.59
568.83	56067.53
568.99	55690.71
569.15	55847.52
569.32	55924.76
569.48	55805.39
569.64	55980.93
569.81	56065.19
569.97	56161.15
570.13	56172.86
570.30	56034.77
570.46	56107.32
570.62	55899.01
570.78	55973.91
570.95	55929.44
571.11	55978.59
571.27	55920.08
571.43	56107.32
571.60	56018.38
571.76	56165.84
571.92	56137.75
572.09	56214.99
572.25	56086.26
572.41	56217.33
572.57	56224.35
572.74	56420.95
572.90	56177.54
573.06	56079.24
573.22	56219.67
573.38	56137.75
573.55	56261.80
573.71	56584.79
573.87	56456.06
574.03	55985.61
574.20	56336.69
574.36	56231.37
574.52	56090.94
574.68	56006.68
574.84	56093.28
575.01	56121.37
575.17	56076.90
575.33	56369.46
575.49	56409.25
575.65	56409.25
575.82	56505.21
575.98	56095.62
576.14	56540.32
576.30	56126.05
576.46	56151.79
576.62	56114.34
576.79	56306.27
576.95	56315.63
577.11	56074.55
577.27	56200.94
577.43	56214.99
577.59	56465.42
577.75	56147.11
577.92	55913.06
578.08	56233.71
578.24	56006.68
578.40	56313.29
578.56	56004.34
578.72	56411.59
578.88	56610.54
579.04	56313.29
579.21	56198.60
579.37	56449.04
579.53	56203.28
579.69	56289.88
579.85	56133.07
580.01	56266.48
580.17	56278.18
580.33	56048.81
580.49	55964.55
580.65	56371.80
580.82	56329.67
580.98	56420.95
581.14	56427.98
581.30	56163.50
581.46	56280.52
581.62	56266.48
581.78	56191.58
581.94	56327.33
582.10	56011.36
582.26	56350.74
582.42	56467.76
582.58	56566.07
582.74	56343.72
582.90	56460.74
583.06	56381.16
583.22	56327.33
583.38	56289.88
583.54	56317.97
583.70	56161.15
583.86	56383.51
584.02	56308.61
584.18	56552.02
584.34	56261.80
584.50	56577.77
584.66	56310.95
584.82	56179.88
584.98	56210.31
585.14	56219.67
585.30	56046.47
585.46	56348.40
585.62	56315.63
585.78	56409.25
585.94	56030.08
586.10	56292.22
586.26	56432.66
586.42	56341.38
586.58	56360.10
586.74	56474.79
586.90	56388.19
587.06	56142.43
587.22	56430.32
587.38	56264.14
587.54	56381.16
587.70	56774.37
587.86	56554.36
588.02	56547.34
588.18	56612.88
588.34	56409.25
588.49	56647.99
588.65	56383.51
588.81	56591.81
588.97	56416.27
589.13	56392.87
589.29	56385.85
589.45	56552.02
589.61	56315.63
589.77	56776.72
589.93	56718.20
590.08	56547.34
590.24	56596.49
590.40	56844.59
590.56	56680.75
590.72	56247.75
590.88	56612.88
591.04	56425.64
591.20	56713.52
591.35	56807.14
591.51	56830.55
591.67	56828.21
591.83	56711.18
591.99	56561.39
592.15	56779.06
592.31	56533.30
592.46	56502.87
592.62	56446.70
592.78	56547.34
592.94	56584.79
593.10	56526.28
593.26	56743.95
593.41	56671.39
593.57	56584.79
593.73	56793.10
593.89	56687.78
594.05	56636.28
594.20	56523.94
594.36	56802.46
594.52	56507.55
594.68	56545.00
594.84	56367.12
594.99	56727.56
595.15	56493.51
595.31	56949.92
595.47	56706.50
595.62	56767.35
595.78	56594.15
595.94	56750.97
596.10	56650.33
596.25	56561.39
596.41	56570.75
596.57	56217.33
596.73	56655.01
596.88	56554.36
597.04	56970.98
597.20	56769.69
597.36	56886.72
597.51	56928.85
597.67	56671.39
597.83	56889.06
597.99	56729.90
598.14	56713.52
598.30	56788.42
598.46	56608.20
598.61	56704.16
598.77	56427.98
598.93	56633.94
599.09	56776.72
599.24	56966.30
599.40	56900.76
599.56	56713.52
599.71	56863.32
599.87	56816.50
600.03	56743.95
600.18	56657.35
600.34	56853.95
600.50	56708.84
600.65	57059.92
600.81	56814.16
600.97	56573.09
601.12	56851.61
601.28	56760.33
601.44	56844.59
601.59	56853.95
601.75	56545.00
601.91	56746.29
602.06	56779.06
602.22	56566.07
602.37	56432.66
602.53	56713.52
602.69	57045.88
602.84	56547.34
603.00	56542.66
603.16	56926.51
603.31	56692.46
603.47	56832.89
603.62	56552.02
603.78	56830.55
603.94	56542.66
604.09	56863.32
604.25	56481.81
604.40	56484.15
604.56	56624.58
604.71	56830.55
604.87	56655.01
605.03	56708.84
605.18	56671.39
605.34	56533.30
605.49	56287.54
605.65	56451.38
605.80	56528.62
605.96	56465.42
606.12	56568.41
606.27	56814.16
606.43	56385.85
606.58	56732.25
606.74	56713.52
606.89	56367.12
607.05	56683.09
607.20	56629.26
607.36	56626.92
607.51	56547.34
607.67	56179.88
607.82	56619.90
607.98	56420.95
608.13	56488.83
608.29	56467.76
608.44	56292.22
608.60	56437.34
608.75	56549.68
608.91	56425.64
609.06	56310.95
609.22	56535.64
609.37	56100.30
609.53	56664.37
609.68	56198.60
609.84	56090.94
609.99	56336.69
610.15	56126.05
610.30	56186.90
610.46	56081.58
610.61	56369.46
610.76	56533.30
610.92	56189.24
611.07	56219.67
611.23	56165.84
611.38	56002.00
611.54	56280.52
611.69	56102.64
611.84	56079.24
612.00	56301.59
612.15	56090.94
612.31	56486.49
612.46	56109.66
612.62	56322.65
612.77	56240.73
612.92	56327.33
613.08	55983.27
613.23	55959.87
613.39	56252.44
613.54	55819.44
613.69	56090.94
613.85	55819.44
614.00	56009.02
614.15	55973.91
614.31	55938.80
614.46	56324.99
614.62	56100.30
614.77	56130.73
614.92	56123.71
615.08	55976.25
615.23	55807.73
615.38	56107.32
615.54	55742.20
615.69	55723.47
615.84	55889.65
616.00	55739.86
616.15	55791.35
616.30	55856.88
616.46	55983.27
616.61	55728.16
616.76	55962.21
616.92	55751.56
617.07	56018.38
617.22	55772.63
617.37	55730.50
617.53	55679.00
617.68	55730.50
617.83	55554.96
617.99	55627.51
618.14	55714.11
618.29	55639.22
618.45	55845.18
618.60	55641.56
618.75	55800.71
618.90	55899.01
619.06	55753.90
619.21	55501.12
619.36	55817.10
619.51	55262.39
619.67	55070.46
619.82	55320.90
619.97	55320.90
620.12	55002.59
620.28	55458.99
620.43	55545.59
620.58	55330.26
620.73	55238.98
620.89	55444.95
621.04	55571.34
621.19	55320.90
621.34	55353.67
621.49	55077.49
621.65	55131.32
621.80	55529.21
621.95	55356.01
622.10	55210.90
622.25	55337.29
622.41	55117.28
622.56	55180.47
622.71	55166.43
622.86	55110.25
623.01	55281.11
623.16	55213.24
623.32	55014.29
623.47	55157.06
623.62	54934.71
623.77	54880.88
623.92	55260.05
624.07	54848.11
624.23	55002.59
624.38	54836.41
624.53	54845.77
624.68	55168.77
624.83	54986.21
624.98	55337.29
625.13	54911.31
625.29	55035.36
625.44	55007.27
625.59	54733.43
625.74	54845.77
625.89	54300.43
626.04	54450.22
626.19	54354.26
626.34	54637.47
626.49	54464.27
626.65	54494.69
626.80	54738.11
626.95	54424.48
627.10	54885.56
627.25	54494.69
627.40	54471.29
627.55	54443.20
627.70	54314.47
627.85	54349.58
628.00	53923.60
628.15	54206.81
628.30	54157.66
628.45	54248.94
628.60	54176.38
628.76	54227.87
628.91	54714.70
629.06	54424.48
629.21	54595.34
629.36	54284.04
629.51	54237.23
629.66	54064.03
629.81	53844.02
629.96	54141.27
630.11	53965.73
630.26	54024.25
630.41	54115.53
630.56	53787.85
630.71	53846.36
630.86	54129.57
631.01	53790.19
631.16	54101.48
631.31	54124.89
631.46	53827.64
631.61	54230.21
631.76	53844.02
631.91	54038.29
632.06	53642.74
632.21	53530.39
632.36	53738.70
632.51	53705.93
632.66	53663.80
632.81	53619.33
632.96	54045.31
633.10	53612.31
633.25	53764.45
633.40	53832.32
633.55	53616.99
633.70	53670.82
633.85	53326.77
634.00	53441.45
634.15	53621.67
634.30	53570.18
634.45	53478.90
634.60	53521.03
634.75	53689.55
634.90	53677.85
635.05	53436.77
635.19	53195.70
635.34	53462.52
635.49	53523.37
635.64	53436.77
635.79	52912.49
635.94	53382.94
636.09	53312.72
636.24	53258.89
636.39	53146.54
636.53	53338.47
636.68	53158.25
636.83	53188.67
636.98	53521.03
637.13	53364.21
637.28	53439.11
637.43	53165.27
637.57	53160.59
637.72	53207.40
637.87	53066.97
638.02	53209.74
638.17	52907.81
638.32	52942.92
638.46	52971.00
638.61	52835.25
638.76	52584.82
638.91	52772.06
639.06	52963.98
639.20	52931.22
639.35	52992.07
639.50	52818.87
639.65	52633.97
639.80	52830.57
639.94	52640.99
640.09	52774.40
640.24	52776.74
640.39	52821.21
640.54	52591.84
640.68	52271.18
640.83	52191.61
640.98	52193.95
641.13	52105.01
641.27	52446.72
641.42	52123.73
641.57	52390.55
641.72	52645.67
641.86	52142.45
642.01	52243.10
642.16	52296.93
642.31	52093.30
642.45	52348.42
642.60	52163.52
642.75	52037.13
642.90	52165.86
643.04	52142.45
643.19	52165.86
643.34	52172.88
643.48	52140.11
643.63	52135.43
643.78	52116.71
643.93	52446.72
644.07	52116.71
644.22	52327.36
644.37	52137.77
644.51	52179.90
644.66	52023.09
644.81	51721.16
644.95	51760.95
645.10	52004.36
645.25	51676.69
645.39	51854.57
645.54	52088.62
645.69	51941.17
645.83	52142.45
645.98	51922.44
646.13	52133.09
646.27	51948.19
646.42	51662.64
646.57	51571.36
646.71	51320.93
646.86	51751.59
647.00	51466.04
647.15	51721.16
647.30	51618.17
647.44	51573.70
647.59	51257.73
647.74	51264.75
647.88	51531.57
648.03	51793.71
648.17	51856.91
648.32	51482.42
648.47	51367.74
648.61	51302.20
648.76	51674.35
648.90	51391.14
649.05	51323.27
649.20	51243.69
649.34	51412.21
649.49	50742.81
649.63	51224.96
649.78	51185.18
649.92	51215.60
650.07	51281.14
650.21	51192.20
650.36	51510.51
650.51	51257.73
650.65	51250.71
650.80	51531.57
650.94	51344.33
651.09	51257.73
651.23	51035.38
651.38	50972.19
651.52	50824.73
651.67	50841.12
651.81	50768.56
651.96	50967.51
652.10	50838.78
652.25	50777.92
652.39	50972.19
652.54	51068.15
652.68	51138.36
652.83	50955.80
652.97	51016.66
653.12	50981.55
653.26	50766.22
653.41	50841.12
653.55	50623.45
653.70	50459.61
653.84	50759.20
653.99	50195.13
654.13	50483.01
654.27	50490.04
654.42	50405.78
654.56	50548.55
654.71	50525.14
654.85	50408.12
655.00	50597.70
655.14	50190.45
655.29	50426.84
655.43	50293.43
655.57	50309.82
655.72	50012.57
655.86	50234.92
656.01	50113.21
656.15	49518.71
656.30	49841.71
656.44	49773.83
656.58	49759.79
656.73	50096.83
656.87	49815.96
657.01	49813.62
657.16	49806.60
657.30	50167.04
657.45	50033.63
657.59	49883.84
657.73	49895.54
657.88	50054.70
658.02	50040.65
658.16	49574.89
658.31	49521.05
658.45	49593.61
658.60	49478.92
658.74	49251.89
658.88	49207.42
659.03	49418.07
659.17	49469.56
659.31	49146.57
659.46	49642.76
659.60	49207.42
659.74	49282.32
659.89	49455.52
660.03	49413.39
660.17	49813.62
660.32	48816.55
660.46	48975.71
660.60	48704.21
660.74	49137.21
660.89	48830.60
661.03	48580.16
661.17	48238.44
661.32	48404.62
661.46	48968.69
661.60	48500.58
661.74	48863.36
661.89	48870.39
662.03	48566.12
662.17	48584.84
662.31	48369.51
662.46	48376.53
662.60	48418.66
662.74	48399.94
662.88	48322.70
663.03	47896.72
663.17	48320.36
663.31	47466.06
663.45	47550.32
663.60	47690.76
663.74	47847.57
663.88	47875.66
664.02	48428.02
664.17	48135.46
664.31	48095.67
664.45	47714.16
664.59	48074.60
664.73	47824.17
664.88	47393.51
665.02	46731.14
665.16	47236.69
665.30	47229.67
665.44	47302.23
665.59	46686.67
665.73	46777.95
665.87	46660.92
666.01	47220.31
666.15	47107.96
666.29	47196.90
666.44	47012.00
666.58	46422.19
666.72	46674.96
666.86	47009.66
667.00	46742.84
667.14	46803.69
667.28	46625.81
667.43	46696.03
667.57	46314.52
667.71	46253.67
667.85	46199.83
667.99	46150.68
668.13	45933.01
668.27	45811.31
668.41	46043.02
668.56	45586.61
668.70	46129.62
668.84	45986.85
668.98	45745.77
669.12	45776.20
669.26	45935.35
669.40	45485.97
669.54	45429.80
669.68	45411.07
669.82	45595.98
669.96	45298.73
670.10	45387.67
670.25	44940.63
670.39	44900.84
670.53	45118.51
670.67	44610.61
670.81	45359.58
670.95	44985.10
671.09	44870.41
671.23	44697.21
671.37	45111.49
671.51	44924.24
671.65	45085.74
671.79	44605.93
671.93	44552.10
672.07	44091.01
672.21	44308.68
672.35	44381.24
672.49	44268.89
672.63	43892.07
672.77	44048.88
672.91	44081.65
673.05	43707.16
673.19	43936.54
673.33	43737.59
673.47	43859.30
673.61	43927.17
673.75	43618.22
673.89	43550.35
674.03	43157.14
674.17	43531.62
674.31	43555.03
674.45	42742.86
674.59	42932.45
674.73	43117.35
674.87	42838.83
675.01	42485.40
675.15	42721.80
675.29	42424.55
675.43	42707.76
675.56	42770.95
675.70	42497.11
675.84	42216.24
675.98	41408.76
676.12	42326.25
676.26	42300.50
676.40	41834.74
676.54	41886.23
676.68	41642.81
676.82	40561.48
676.96	40947.67
677.10	40811.92
677.23	40971.08
677.37	41003.85
677.51	40538.08
677.65	40690.21
677.79	40364.88
677.93	40575.53
678.07	40442.12
678.21	39899.11
678.34	40245.51
678.48	40245.51
678.62	39866.34
678.76	39943.58
678.90	39548.03
679.04	39255.46
679.18	39686.12
679.31	39297.59
679.45	39042.48
679.59	38899.70
679.73	39103.33
679.87	38808.42
680.00	38789.70
680.14	38550.96
680.28	38417.55
680.42	38770.97
680.56	38504.15
680.70	38401.17
680.83	38649.27
680.97	38614.16
681.11	38660.97
681.25	38345.00
681.39	38675.01
681.52	38054.77
681.66	37406.44
681.80	37745.82
681.94	37593.68
682.07	37291.76
682.21	37134.94
682.35	36847.05
682.49	37156.00
682.62	36655.13
682.76	36598.96
682.90	36507.68
683.04	36407.03
683.17	36531.08
683.31	36493.63
683.45	36320.43
683.59	36404.69
683.72	36371.92
683.86	35938.93
684.00	35517.63
684.13	35510.61
684.27	34932.50
684.41	34951.22
684.55	35456.78
684.68	34621.20
684.82	34787.38
684.96	34665.67
685.09	34749.93
685.23	34602.48
685.37	34829.51
685.50	34663.33
685.64	34558.01
685.78	34375.45
685.91	34597.80
686.05	34162.46
686.19	33865.21
686.32	34188.21
686.46	33270.72
686.60	33366.68
686.73	33752.87
686.87	33652.22
687.01	33031.98
687.14	33214.54
687.28	32943.04
687.42	32924.32
687.55	32608.34
687.69	32573.24
687.82	32444.51
687.96	32514.72
688.10	32339.18
688.23	32442.17
688.37	32346.20
688.50	32442.17
688.64	31899.16
688.78	32196.41
688.91	31695.53
689.05	31421.69
689.18	31459.14
689.32	30778.04
689.46	31255.51
689.59	31028.48
689.73	31012.10
689.86	30829.54
690.00	30939.54
690.13	30740.60
690.27	30408.24
690.41	30621.23
690.54	30492.50
690.68	30462.07
690.81	30731.23
690.95	30462.07
691.08	29879.28
691.22	30183.55
691.35	29799.70
691.49	29867.58
691.62	29640.54
691.76	29174.78
691.89	29153.71
692.03	28961.79
692.16	28985.19
692.30	28659.86
692.43	28704.33
692.57	28718.37
692.70	28711.35
692.84	28720.71
692.97	28229.20
693.11	28865.83
693.24	28294.74
693.38	28645.82
693.51	28222.18
693.65	28322.82
693.78	28329.84
693.92	28491.34
694.05	28025.57
694.19	27625.34
694.32	27428.74
694.45	27557.47
694.59	27199.37
694.72	26979.36
694.86	27070.64
694.99	26766.37
695.13	26768.71
695.26	26824.88
695.39	26590.83
695.53	26665.72
695.66	26768.71
695.80	26473.80
695.93	26260.81
696.07	26202.30
696.20	26324.01
696.33	25923.77
696.47	26022.08
696.60	26134.42
696.73	25867.60
696.87	25654.61
697.00	25591.42
697.14	24947.77
697.27	24755.85
697.40	24505.41
697.54	24919.68
697.67	24479.66
697.80	24900.96
697.94	24652.86
698.07	24283.06
698.21	24456.26
698.34	24346.25
698.47	24210.50
698.61	24329.87
698.74	24149.65
698.87	24018.58
699.01	24067.73
699.14	23377.27
699.27	23709.63
699.40	23676.86
699.54	23351.52
699.67	23021.51
699.80	22902.14
699.94	22845.97
700.07	23218.11
700.20	22508.93
700.34	22728.94
700.47	22546.38
700.60	22424.67
700.73	22834.27
700.87	22590.85
701.00	22625.96
701.13	22394.25
701.26	22277.22
701.40	22181.26
701.53	21972.95
701.66	22284.24
701.79	21692.08
701.93	21724.85
702.06	21558.67
702.19	21256.75
702.32	21373.77
702.46	21261.43
702.59	21102.27
702.72	21039.08
702.85	20889.28
702.99	20718.42
703.12	20809.70
703.25	20451.60
703.38	20456.28
703.51	20641.18
703.65	20652.89
703.78	20390.75
703.91	20458.62
704.04	20201.16
704.17	20442.24
704.31	20046.69
704.44	19763.48
704.57	19623.05
704.70	19782.21
704.83	19367.93
704.96	19314.10
705.10	19353.89
705.23	19297.72
>>>>>End Processed Spectral Data<<<<<
