SpectraSuite Data File
++++++++++++++++++++++++++++++++++++
Date: Fri Oct 18 13:55:47 GMT-05:00 2013
User: bianchi
Dark Spectrum Present: No
Reference Spectrum Present: No
Number of Sampled Component Spectra: 1
Spectrometers: USB2+H05261
Integration Time (usec): 100000 (USB2+H05261)
Spectra Averaged: 1 (USB2+H05261)
Boxcar Smoothing: 0 (USB2+H05261)
Correct for Electrical Dark: No (USB2+H05261)
Strobe/Lamp Enabled: No (USB2+H05261)
Correct for Detector Non-linearity: No (USB2+H05261)
Correct for Stray Light: No (USB2+H05261)
Number of Pixels in Processed Spectrum: 2048
>>>>>Begin Processed Spectral Data<<<<<
365.73	0.00
365.92	0.00
366.12	0.00
366.32	0.00
366.52	0.00
366.72	0.00
366.91	0.00
367.11	0.00
367.31	0.00
367.51	0.00
367.70	0.00
367.90	0.00
368.10	0.00
368.30	0.00
368.49	0.00
368.69	0.00
368.89	0.00
369.09	0.00
369.28	0.00
369.48	0.00
369.68	0.00
369.87	0.00
370.07	0.00
370.27	0.00
370.47	0.00
370.66	173.20
370.86	217.67
371.06	299.59
371.25	348.74
371.45	285.55
371.65	325.33
371.84	264.48
372.04	243.42
372.24	388.53
372.44	374.49
372.63	337.04
372.83	447.04
373.03	390.87
373.22	425.98
373.42	425.98
373.62	383.85
373.81	486.83
374.01	425.98
374.21	381.51
374.40	369.80
374.60	430.66
374.79	381.51
374.99	433.00
375.19	423.64
375.38	416.62
375.58	475.13
375.78	496.19
375.97	465.77
376.17	479.81
376.37	543.00
376.56	428.32
376.76	475.13
376.95	395.55
377.15	465.77
377.35	517.26
377.54	496.19
377.74	472.79
377.93	442.36
378.13	491.51
378.33	505.56
378.52	411.93
378.72	496.19
378.91	484.49
379.11	463.43
379.31	512.58
379.50	503.22
379.70	517.26
379.89	568.75
380.09	486.83
380.28	540.66
380.48	580.45
380.68	587.47
380.87	557.05
381.07	606.20
381.26	594.50
381.46	531.30
381.65	585.13
381.85	620.24
382.04	638.97
382.24	568.75
382.43	638.97
382.63	592.16
382.83	589.82
383.02	690.46
383.22	688.12
383.41	645.99
383.61	699.82
383.80	692.80
384.00	737.27
384.19	524.28
384.39	643.65
384.58	653.01
384.78	683.44
384.97	685.78
385.17	601.52
385.36	770.04
385.56	660.03
385.75	622.58
385.95	678.76
386.14	737.27
386.34	748.97
386.53	667.05
386.72	697.48
386.92	716.20
387.11	636.63
387.31	748.97
387.50	748.97
387.70	739.61
387.89	807.48
388.09	763.01
388.28	737.27
388.48	800.46
388.67	938.55
388.86	802.80
389.06	875.36
389.25	840.25
389.45	802.80
389.64	844.93
389.84	875.36
390.03	851.96
390.22	880.04
390.42	847.27
390.61	734.93
390.81	805.14
391.00	940.90
391.19	903.45
391.39	947.92
391.58	882.38
391.78	826.21
391.97	1013.45
392.16	931.53
392.36	903.45
392.55	952.60
392.75	990.05
392.94	931.53
393.13	985.37
393.33	1013.45
393.52	1015.79
393.71	1015.79
393.91	1004.09
394.10	992.39
394.29	997.07
394.49	1008.77
394.68	1093.03
394.88	1069.62
395.07	1137.50
395.26	1055.58
395.46	1100.05
395.65	1104.73
395.84	1172.61
396.04	1214.74
396.23	1172.61
396.42	1128.14
396.62	1130.48
396.81	1217.08
397.00	1078.99
397.19	1163.25
397.39	1174.95
397.58	1259.21
397.77	1210.06
397.97	1221.76
398.16	1247.51
398.35	1366.87
398.55	1320.06
398.74	1217.08
398.93	1263.89
399.12	1315.38
399.32	1249.85
399.51	1327.08
399.70	1434.75
399.90	1350.49
400.09	1423.05
400.28	1451.13
400.47	1418.36
400.67	1423.05
400.86	1418.36
401.05	1458.15
401.24	1521.35
401.44	1549.43
401.63	1476.88
401.82	1563.48
402.01	1455.81
402.21	1479.22
402.40	1528.37
402.59	1598.59
402.78	1551.78
402.97	1537.73
403.17	1650.08
403.36	1657.10
403.55	1591.56
403.74	1556.46
403.93	1582.20
404.13	1610.29
404.32	1720.29
404.51	1734.34
404.70	1792.85
404.89	1757.74
405.09	1764.76
405.28	1732.00
405.47	1844.34
405.66	1867.75
405.85	1811.57
406.05	1923.92
406.24	1746.04
406.43	1874.77
406.62	1877.11
406.81	1926.26
407.00	1902.86
407.20	1867.75
407.39	1935.62
407.58	1989.46
407.77	1984.77
407.96	2040.95
408.15	2069.03
408.34	1926.26
408.54	2162.66
408.73	2090.10
408.92	2139.25
409.11	2197.76
409.30	2043.29
409.49	2179.04
409.68	2258.62
409.87	2195.42
410.07	2162.66
410.26	2296.07
410.45	2253.94
410.64	2373.30
410.83	2284.36
411.02	2265.64
411.21	2511.39
411.40	2387.35
411.59	2518.42
411.78	2483.31
411.98	2504.37
412.17	2518.42
412.36	2527.78
412.55	2560.55
412.74	2534.80
412.93	2675.23
413.12	2675.23
413.31	2640.12
413.50	2686.94
413.69	2686.94
413.88	2803.96
414.07	2876.52
414.26	2906.95
414.45	2892.90
414.64	2920.99
414.83	2942.05
415.02	2967.80
415.22	2906.95
415.41	3084.83
415.60	3110.57
415.79	3164.40
415.98	3279.09
416.17	3178.45
416.36	3222.92
416.55	3150.36
416.74	3304.84
416.93	3255.69
417.12	3297.81
417.31	3208.87
417.50	3318.88
417.69	3447.61
417.88	3489.74
418.07	3445.27
418.26	3545.91
418.45	3527.19
418.64	3719.11
418.83	3623.15
419.02	3513.14
419.21	3578.68
419.39	3681.66
419.58	3613.79
419.77	3637.19
419.96	3653.58
420.15	3702.73
420.34	3796.35
420.53	3843.16
420.72	3936.78
420.91	3791.67
421.10	3908.69
421.29	4021.04
421.48	3707.41
421.67	4009.34
421.86	3861.88
422.05	4152.11
422.24	3791.67
422.43	3934.44
422.61	4072.53
422.80	4074.87
422.99	4121.68
423.18	4065.51
423.37	4145.09
423.56	3950.82
423.75	4100.62
423.94	4081.89
424.13	3822.09
424.32	3969.55
424.50	4049.13
424.69	4175.52
424.88	4287.86
425.07	4231.69
425.26	3964.87
425.45	4189.56
425.64	4100.62
425.83	4154.45
426.01	4301.90
426.20	4177.86
426.39	4128.70
426.58	4159.13
426.77	4198.92
426.96	4201.26
427.15	4227.01
427.33	4203.60
427.52	4248.07
427.71	4416.59
427.90	4304.25
428.09	4421.27
428.28	4421.27
428.46	4608.51
428.65	4468.08
428.84	4624.90
429.03	4538.30
429.22	4472.76
429.40	4552.34
429.59	4531.28
429.78	4397.87
429.97	4374.46
430.16	4561.70
430.34	4603.83
430.53	4723.20
430.72	4772.35
430.91	4624.90
431.10	4561.70
431.28	4807.46
431.47	4844.91
431.66	4767.67
431.85	4788.74
432.03	4966.62
432.22	5137.48
432.41	4966.62
432.60	4910.44
432.79	4987.68
432.97	5015.77
433.16	4985.34
433.35	5064.92
433.54	5125.77
433.72	5139.82
433.91	5111.73
434.10	5174.92
434.28	5050.88
434.47	5029.81
434.66	5177.26
434.85	5210.03
435.03	5254.50
435.22	5348.12
435.41	5547.07
435.59	5135.14
435.78	5242.80
435.97	5425.36
436.16	5418.34
436.34	5181.95
436.53	5472.17
436.72	5771.76
436.90	5313.02
437.09	5518.98
437.28	5270.89
437.46	5570.48
437.65	5689.84
437.84	5668.78
438.02	5640.69
438.21	5568.13
438.40	5425.36
438.58	5748.36
438.77	5781.12
438.96	5741.33
439.14	5832.62
439.33	6024.54
439.52	6097.10
439.70	6033.90
439.89	6127.52
440.08	6148.59
440.26	6214.12
440.45	6235.19
440.63	6218.80
440.82	6279.66
441.01	6120.50
441.19	6469.24
441.38	6436.47
441.57	6523.07
441.75	6509.03
441.94	6630.74
442.12	6586.27
442.31	6562.86
442.50	6698.61
442.68	6588.61
442.87	6717.34
443.05	6747.76
443.24	6782.87
443.43	6867.13
443.61	6930.33
443.80	6869.47
443.98	6822.66
444.17	6586.27
444.35	6953.73
444.54	6944.37
444.73	6925.65
444.91	6817.98
445.10	6867.13
445.28	7019.27
445.47	6787.55
445.65	6899.90
445.84	6963.09
446.02	6988.84
446.21	6860.11
446.39	6979.48
446.58	7061.40
446.77	7112.89
446.95	6963.09
447.14	7105.87
447.32	7276.73
447.51	7089.48
447.69	7112.89
447.88	7066.08
448.06	7243.96
448.25	7077.78
448.43	7190.13
448.62	6895.22
448.80	7117.57
448.99	7096.50
449.17	7222.89
449.36	7138.63
449.54	7342.26
449.73	7349.28
449.91	7400.77
450.10	7494.40
450.28	7520.14
450.46	7571.63
450.65	7489.71
450.83	7667.60
451.02	7403.11
451.20	7721.43
451.39	7578.65
451.57	7613.76
451.76	7660.57
451.94	7702.70
452.13	7943.78
452.31	7534.18
452.49	7730.79
452.68	7798.66
452.86	7742.49
453.05	8006.97
453.23	7817.39
453.42	7826.75
453.60	7878.24
453.78	7892.29
453.97	7749.51
454.15	8030.38
454.34	7995.27
454.52	7950.80
454.70	8091.23
454.89	7964.84
455.07	8273.79
455.26	8222.30
455.44	8465.72
455.62	8102.93
455.81	8161.45
455.99	8421.25
456.17	8196.56
456.36	8322.94
456.54	8383.80
456.73	8545.30
456.91	8674.03
457.09	8549.98
457.28	8737.22
457.46	8435.29
457.64	8798.07
457.83	8905.74
458.01	8765.31
458.19	8798.07
458.38	8905.74
458.56	8994.68
458.74	8978.30
458.93	8744.24
459.11	9078.94
459.29	8980.64
459.48	9015.74
459.66	9046.17
459.84	9085.96
460.03	9174.90
460.21	9198.31
460.39	9179.58
460.57	9090.64
460.76	9308.31
460.94	9348.10
461.12	9355.12
461.31	9191.28
461.49	9320.01
461.67	9121.07
461.85	9359.80
462.04	9525.98
462.22	9944.94
462.40	9652.37
462.59	9596.20
462.77	9411.29
462.95	9729.61
463.13	9233.41
463.32	9727.27
463.50	9872.38
463.68	9727.27
463.86	9605.56
464.05	9439.38
464.23	9757.69
464.41	9982.38
464.59	9528.32
464.78	9764.72
464.96	9724.93
465.14	9638.33
465.32	9811.53
465.50	10181.33
465.69	10068.98
465.87	9795.14
466.05	10225.80
466.23	9846.63
466.41	10083.03
466.60	10403.68
466.78	9923.87
466.96	10132.18
467.14	10120.48
467.32	10136.86
467.51	10291.34
467.69	10083.03
467.87	10251.55
468.05	10345.17
468.23	10125.16
468.41	10237.50
468.60	10209.42
468.78	10534.75
468.96	10436.45
469.14	10635.39
469.32	10607.31
469.50	10281.97
469.69	10733.70
469.87	10745.40
470.05	10824.98
470.23	10913.92
470.41	10785.19
470.59	10860.09
470.77	10846.04
470.95	10932.64
471.14	11030.94
471.32	10897.53
471.50	11169.04
471.68	11241.59
471.86	11166.70
472.04	11129.25
472.22	11454.58
472.40	11194.78
472.58	11218.19
472.77	11400.75
472.95	11414.79
473.13	11971.84
473.31	11630.12
473.49	11562.25
473.67	11747.15
473.85	11721.40
474.03	11770.55
474.21	11833.75
474.39	12248.02
474.57	12131.00
474.75	12266.75
474.93	12315.90
475.12	12175.47
475.30	12554.63
475.48	12191.85
475.66	12538.25
475.84	12624.85
476.02	12692.73
476.20	12844.86
476.38	12896.35
476.56	13076.57
476.74	13064.87
476.92	13067.21
477.10	13034.44
477.28	13209.98
477.46	12917.42
477.64	13582.13
477.82	13741.29
478.00	13703.84
478.18	13984.70
478.36	13710.86
478.54	13907.46
478.72	14356.85
478.90	14132.15
479.08	14232.80
479.26	14637.71
479.44	14480.89
479.62	14478.55
479.80	14792.19
479.98	14731.33
480.16	15000.49
480.34	14977.09
480.52	15173.69
480.70	15438.17
480.88	15147.95
481.06	15594.99
481.24	15311.78
481.41	15440.51
481.59	15896.92
481.77	15817.34
481.95	16016.29
482.13	15962.45
482.31	16154.38
482.49	16379.07
482.67	16353.32
482.85	16858.88
483.03	16980.59
483.21	16959.52
483.39	17280.18
483.57	17186.55
483.74	17153.79
483.92	17558.70
484.10	17542.32
484.28	17680.41
484.46	17862.97
484.64	18391.93
484.82	18143.83
485.00	17872.33
485.18	18539.38
485.35	18462.15
485.53	18415.34
485.71	18897.49
485.89	19058.98
486.07	18946.64
486.25	19070.68
486.43	19304.74
486.61	19613.69
486.78	19885.19
486.96	19845.40
487.14	20152.01
487.32	20173.08
487.50	20184.78
487.68	20327.55
487.85	20453.94
488.03	20826.09
488.21	21036.74
488.39	21167.80
488.57	21436.97
488.75	21640.59
488.92	21406.54
489.10	21781.03
489.28	21839.54
489.46	22265.52
489.64	22326.37
489.81	22335.73
489.99	22478.50
490.17	22586.17
490.35	23009.81
490.53	23161.94
490.70	23185.35
490.88	23171.30
491.06	23506.00
491.24	23405.36
491.41	23674.52
491.59	23592.60
491.77	23974.11
491.95	24201.14
492.13	24205.82
492.30	24652.86
492.48	24341.57
492.66	24762.87
492.84	24554.56
493.01	24966.49
493.19	24617.75
493.37	25378.43
493.54	25130.33
493.72	25511.84
493.90	25488.43
494.08	26153.15
494.25	26417.63
494.43	26115.70
494.61	26368.48
494.79	26647.00
494.96	26354.43
495.14	26705.51
495.32	26845.94
495.49	27084.68
495.67	27152.55
495.85	27037.87
496.02	27634.71
496.20	27590.24
496.38	27646.41
496.55	27775.14
496.73	28568.58
496.91	28435.17
497.09	28472.62
497.26	28631.77
497.44	28481.98
497.62	28779.23
497.79	29015.62
497.97	29034.35
498.14	29205.20
498.32	29450.96
498.50	29474.37
498.67	29677.99
498.85	29474.37
499.03	29635.86
499.20	29839.49
499.38	29621.82
499.56	30197.59
499.73	30408.24
499.91	30494.84
500.08	30565.06
500.26	30391.86
500.44	30492.50
500.61	30888.05
500.79	30890.39
500.97	30862.30
501.14	31564.46
501.32	31489.57
501.49	31295.30
501.67	31281.26
501.84	31419.35
502.02	31658.09
502.20	31529.36
502.37	32437.48
502.55	31786.82
502.72	32264.28
502.90	32201.09
503.07	31910.86
503.25	32275.99
503.43	32308.76
503.60	32535.79
503.78	32435.14
503.95	33057.73
504.13	32917.29
504.30	33123.26
504.48	32484.30
504.65	32994.53
504.83	33095.18
505.01	33563.28
505.18	33493.07
505.36	33848.83
505.53	33488.38
505.71	33586.69
505.88	33886.28
506.06	33684.99
506.23	34143.74
506.41	34265.44
506.58	34668.02
506.76	34258.42
506.93	34625.89
507.11	34244.38
507.28	34682.06
507.46	34581.42
507.63	35056.54
507.81	35026.12
507.98	34752.27
508.16	34888.03
508.33	35028.46
508.50	35618.27
508.68	35360.81
508.85	35489.54
509.03	35505.93
509.20	36297.03
509.38	36006.80
509.55	36093.40
509.73	36341.50
509.90	35938.93
510.08	36133.19
510.25	36151.91
510.42	36411.71
510.60	36912.59
510.77	37116.22
510.95	36610.66
511.12	36664.49
511.30	36535.76
511.47	37240.26
511.64	37443.89
511.82	37099.83
511.99	37464.96
512.17	37441.55
512.34	37570.28
512.51	37790.29
512.69	37989.24
512.86	37649.86
513.04	37935.40
513.21	38089.88
513.38	38216.27
513.56	38286.48
513.73	38230.31
513.90	38511.17
514.08	38225.63
514.25	38370.74
514.43	38864.60
514.60	38810.76
514.77	38806.08
514.95	39021.41
515.12	39126.74
515.29	38869.28
515.47	39248.44
515.64	39194.61
515.81	39335.04
515.99	39735.27
516.16	39833.58
516.33	40093.38
516.51	40112.10
516.68	39592.50
516.85	40144.87
517.03	40119.12
517.20	39943.58
517.37	40205.72
517.54	40322.75
517.72	40179.98
517.89	39929.54
518.06	40126.14
518.24	40474.88
518.41	40481.91
518.58	40610.64
518.75	40357.86
518.93	40882.14
519.10	41085.76
519.27	40912.56
519.45	40804.90
519.62	41118.53
519.79	40615.32
519.96	41071.72
520.14	41422.80
520.31	41186.41
520.48	41486.00
520.65	41771.54
520.83	41921.34
521.00	41876.86
521.17	41509.40
521.34	41808.99
521.52	41752.82
521.69	41771.54
521.86	41982.19
522.03	42394.12
522.20	42438.59
522.38	42286.46
522.55	42600.09
522.72	42763.93
522.89	42766.27
523.07	42934.79
523.24	43089.26
523.41	43093.94
523.58	42532.22
523.75	42976.92
523.92	42932.45
524.10	42911.38
524.27	43438.00
524.44	43295.23
524.61	43660.35
524.78	43564.39
524.96	43723.55
525.13	43222.67
525.30	43660.35
525.47	44009.09
525.64	44046.54
525.81	43885.04
525.98	44252.51
526.16	44357.83
526.33	43714.19
526.50	44875.09
526.67	44039.52
526.84	43849.94
527.01	43849.94
527.18	44446.77
527.36	44210.38
527.53	44425.71
527.70	44912.54
527.87	45013.18
528.04	44961.69
528.21	44605.93
528.38	45001.48
528.55	44720.62
528.72	44708.91
528.89	44949.99
529.07	45221.49
529.24	45111.49
529.41	45591.30
529.58	45261.28
529.75	45254.26
529.92	45148.93
530.09	45291.71
530.26	45799.60
530.43	45375.97
530.60	45144.25
530.77	46075.79
530.94	45635.77
531.11	45916.63
531.28	46047.70
531.46	45881.52
531.63	45998.55
531.80	45951.74
531.97	46043.02
532.14	46387.08
532.31	46038.34
532.48	46532.19
532.65	46181.11
532.82	45855.78
532.99	46312.18
533.16	46265.37
533.33	46337.93
533.50	46927.74
533.67	46609.43
533.84	46342.61
534.01	46246.65
534.18	46436.23
534.35	46990.94
534.52	46637.51
534.69	46969.87
534.86	46972.21
535.03	46960.51
535.20	47201.58
535.37	47168.82
535.54	47215.63
535.71	46541.55
535.88	47014.34
536.05	47374.78
536.22	47805.44
536.38	47693.10
536.55	47597.13
536.72	47767.99
536.89	47248.39
537.06	47803.10
537.23	47255.42
537.40	47697.78
537.57	47473.09
537.74	47786.72
537.91	48474.84
538.08	47814.80
538.25	47789.06
538.42	48086.31
538.59	48053.54
538.75	47842.89
538.92	47721.18
539.09	47999.71
539.26	48098.01
539.43	48137.80
539.60	48313.34
539.77	48245.46
539.94	48264.19
540.11	48090.99
540.28	48311.00
540.44	48680.80
540.61	48299.30
540.78	48383.55
540.95	48636.33
541.12	48346.11
541.29	48746.34
541.46	48633.99
541.62	48538.03
541.79	48774.42
541.96	48100.35
542.13	48879.75
542.30	48701.87
542.47	48896.13
542.63	49174.66
542.80	49139.55
542.97	49312.75
543.14	49125.50
543.31	49385.30
543.48	49254.23
543.64	49298.70
543.81	49624.04
543.98	49448.50
544.15	49750.43
544.32	49860.43
544.48	49993.84
544.65	49401.69
544.82	49439.14
544.99	48945.28
545.16	49830.01
545.32	49549.14
545.49	50005.55
545.66	50227.90
545.83	50127.25
546.00	50258.32
546.16	49989.16
546.33	50145.98
546.50	49338.49
546.67	49701.28
546.83	49619.36
547.00	49888.52
547.17	50197.47
547.34	50071.08
547.50	50026.61
547.67	50363.65
547.84	50202.15
548.00	50307.47
548.17	50623.45
548.34	50295.77
548.51	50733.45
548.67	50511.10
548.84	50113.21
549.01	50447.91
549.18	50560.25
549.34	50693.66
549.51	50431.52
549.68	50635.15
549.84	50621.11
550.01	50616.43
550.18	50349.60
550.34	50735.79
550.51	50672.60
550.68	50688.98
550.84	50255.98
551.01	50822.39
551.18	50131.93
551.34	50597.70
551.51	50979.21
551.68	51070.49
551.84	51166.45
552.01	50745.15
552.18	51110.28
552.34	50887.93
552.51	50997.93
552.68	50808.35
552.84	50885.59
553.01	51098.58
553.18	51246.03
553.34	51257.73
553.51	51447.32
553.67	51070.49
553.84	51503.49
554.01	51414.55
554.17	51323.27
554.34	51351.35
554.51	51290.50
554.67	51229.65
554.84	51189.86
555.00	51402.85
555.17	51178.15
555.33	51901.38
555.50	51264.75
555.67	51269.43
555.83	51477.74
556.00	51580.73
556.16	51784.35
556.33	51433.27
556.50	51796.06
556.66	51721.16
556.83	51569.02
556.99	51669.67
557.16	51866.27
557.32	51845.21
557.49	52207.99
557.65	51594.77
557.82	51583.07
557.98	51955.21
558.15	52069.90
558.32	52317.99
558.48	51880.31
558.65	51971.60
558.81	51877.97
558.98	51885.00
559.14	51849.89
559.31	51917.76
559.47	51894.36
559.64	51987.98
559.80	52025.43
559.97	52037.13
560.13	52018.41
560.30	52009.04
560.46	51779.67
560.63	51990.32
560.79	52161.18
560.96	51962.23
561.12	52086.28
561.29	52362.46
561.45	51980.96
561.61	52018.41
561.78	52205.65
561.94	52308.63
562.11	52570.77
562.27	52226.71
562.44	51934.15
562.60	52079.26
562.77	52016.07
562.93	51896.70
563.10	52465.45
563.26	52158.84
563.42	52458.43
563.59	52390.55
563.75	52371.83
563.92	52233.74
564.08	52191.61
564.24	52182.24
564.41	52112.03
564.57	52142.45
564.74	52210.33
564.90	52474.81
565.07	52465.45
565.23	52556.73
565.39	52023.09
565.56	52383.53
565.72	52200.97
565.88	52378.85
566.05	52383.53
566.21	52435.02
566.38	52303.95
566.54	52509.92
566.70	52683.12
566.87	52828.23
567.03	52231.40
567.19	52870.36
567.36	52463.11
567.52	52402.25
567.68	52559.07
567.85	52294.59
568.01	52762.70
568.17	52313.31
568.34	52484.17
568.50	52573.11
568.66	52570.77
568.83	52404.59
568.99	52327.36
569.15	52570.77
569.32	52437.36
569.48	52446.72
569.64	52582.48
569.81	52594.18
569.97	52858.66
570.13	52793.12
570.30	52804.83
570.46	52626.95
570.62	52643.33
570.78	52512.26
570.95	52446.72
571.11	52552.05
571.27	52271.18
571.43	52535.66
571.60	52538.01
571.76	52594.18
571.92	52521.62
572.09	52781.42
572.25	52631.63
572.41	52509.92
572.57	52973.34
572.74	53015.47
572.90	52828.23
573.06	52809.51
573.22	52734.61
573.38	52851.64
573.55	52648.01
573.71	52966.32
573.87	52746.31
574.03	52870.36
574.20	52832.91
574.36	52603.54
574.52	52509.92
574.68	52514.60
574.84	52870.36
575.01	52797.80
575.17	52828.23
575.33	52912.49
575.49	52900.79
575.65	53219.10
575.82	52945.26
575.98	52528.64
576.14	52856.32
576.30	52708.86
576.46	52877.38
576.62	52519.28
576.79	52917.17
576.95	52694.82
577.11	52811.85
577.27	52945.26
577.43	52680.78
577.59	52788.44
577.75	53116.12
577.92	52643.33
578.08	52385.87
578.24	52430.34
578.40	52842.27
578.56	52736.95
578.72	52790.78
578.88	53036.54
579.04	52870.36
579.21	52624.60
579.37	52879.72
579.53	53106.76
579.69	52655.03
579.85	52638.65
580.01	52580.13
580.17	52481.83
580.33	52711.20
580.49	52528.64
580.65	52952.28
580.82	52985.05
580.98	52697.16
581.14	52856.32
581.30	53099.73
581.46	52774.40
581.62	52626.95
581.78	52690.14
581.94	52830.57
582.10	52605.88
582.26	52774.40
582.42	52783.76
582.58	52865.68
582.74	52865.68
582.90	52886.74
583.06	53109.10
583.22	52893.77
583.38	52863.34
583.54	52818.87
583.70	52729.93
583.86	52652.69
584.02	52591.84
584.18	53027.18
584.34	52928.87
584.50	53226.12
584.66	52954.62
584.82	52748.65
584.98	52533.32
585.14	52596.52
585.30	52629.29
585.46	52617.58
585.62	52678.44
585.78	53006.11
585.94	52648.01
586.10	52963.98
586.26	52966.32
586.42	53116.12
586.58	53158.25
586.74	52741.63
586.90	52519.28
587.06	52584.82
587.22	52685.46
587.38	52732.27
587.54	53076.33
587.70	52942.92
587.86	53029.52
588.02	53130.16
588.18	53408.68
588.34	52971.00
588.49	52954.62
588.65	52643.33
588.81	52921.85
588.97	52683.12
589.13	52868.02
589.29	52739.29
589.45	52797.80
589.61	52968.66
589.77	53158.25
589.93	53078.67
590.08	53148.88
590.24	53198.04
590.40	53017.82
590.56	53434.43
590.72	53198.04
590.88	52989.73
591.04	52966.32
591.20	53380.60
591.35	53066.97
591.51	53511.67
591.67	53441.45
591.83	53158.25
591.99	53279.96
592.15	53034.20
592.31	53256.55
592.46	52975.69
592.62	53073.99
592.78	52914.83
592.94	53305.70
593.10	52905.47
593.26	53134.84
593.41	52830.57
593.57	53099.73
593.73	53059.94
593.89	53244.85
594.05	53038.88
594.20	52783.76
594.36	53256.55
594.52	52917.17
594.68	53214.42
594.84	52830.57
594.99	53347.83
595.15	53188.67
595.31	53151.23
595.47	53130.16
595.62	53270.59
595.78	53415.71
595.94	53347.83
596.10	53308.04
596.25	52956.96
596.41	52919.51
596.57	53050.58
596.73	53017.82
596.88	53134.84
597.04	53235.48
597.20	53188.67
597.36	53031.86
597.51	53448.47
597.67	52999.09
597.83	53183.99
597.99	53331.45
598.14	53141.86
598.30	53036.54
598.46	53099.73
598.61	52910.15
598.77	52797.80
598.93	53265.91
599.09	53331.45
599.24	53724.66
599.40	53205.06
599.56	53345.49
599.71	53153.57
599.87	53521.03
600.03	52795.46
600.18	53092.71
600.34	52797.80
600.50	52985.05
600.65	53066.97
600.81	53139.52
600.97	53394.64
601.12	53612.31
601.28	53378.26
601.44	53343.15
601.59	53258.89
601.75	53279.96
601.91	53125.48
602.06	53038.88
602.22	53495.28
602.37	53027.18
602.53	52816.53
602.69	53214.42
602.84	52769.72
603.00	53043.56
603.16	53263.57
603.31	53106.76
603.47	52952.28
603.62	52849.30
603.78	53008.45
603.94	52889.09
604.09	53073.99
604.25	52992.07
604.40	53029.52
604.56	53165.27
604.71	53434.43
604.87	53176.97
605.03	53191.01
605.18	52849.30
605.34	53034.20
605.49	53062.29
605.65	52999.09
605.80	52430.34
605.96	52851.64
606.12	52694.82
606.27	53127.82
606.43	52769.72
606.58	53256.55
606.74	53041.22
606.89	53111.44
607.05	52938.24
607.20	52956.96
607.36	52779.08
607.51	53027.18
607.67	52779.08
607.82	52727.59
607.98	52978.03
608.13	52846.96
608.29	52715.89
608.44	52568.43
608.60	52589.50
608.75	52776.74
608.91	52818.87
609.06	52596.52
609.22	52802.49
609.37	52413.96
609.53	52844.62
609.68	52619.92
609.84	52608.22
609.99	52573.11
610.15	52573.11
610.30	52598.86
610.46	52484.17
610.61	52776.74
610.76	52416.30
610.92	52552.05
611.07	52509.92
611.23	52425.66
611.38	52762.70
611.54	52523.96
611.69	52348.42
611.84	52406.94
612.00	52275.87
612.15	52313.31
612.31	52659.71
612.46	52655.03
612.62	52694.82
612.77	52617.58
612.92	52858.66
613.08	52320.34
613.23	52339.06
613.39	52486.51
613.54	52369.49
613.69	52210.33
613.85	51838.18
614.00	52334.38
614.15	52233.74
614.31	52186.92
614.46	52638.65
614.62	52446.72
614.77	52325.02
614.92	52467.79
615.08	52561.41
615.23	52378.85
615.38	52163.52
615.54	51978.62
615.69	51873.29
615.84	51943.51
616.00	52039.47
616.15	51910.74
616.30	52203.31
616.46	51629.88
616.61	51847.55
616.76	52392.89
616.92	51920.10
617.07	51906.06
617.22	51587.75
617.37	51461.36
617.53	51632.22
617.68	51679.03
617.83	51648.60
617.99	51760.95
618.14	51779.67
618.29	52081.60
618.45	52060.54
618.60	51718.82
618.75	51826.48
618.90	51536.26
619.06	51917.76
619.21	51831.16
619.36	51676.69
619.51	51337.31
619.67	51430.93
619.82	51070.49
619.97	51327.95
620.12	51372.42
620.28	51386.46
620.43	51442.63
620.58	51414.55
620.73	51604.13
620.89	51363.06
621.04	51985.64
621.19	51641.58
621.34	51559.66
621.49	51173.47
621.65	51117.30
621.80	51374.76
621.95	50995.59
622.10	51224.96
622.25	51346.67
622.41	51426.25
622.56	51271.78
622.71	51456.68
622.86	51171.13
623.01	51229.65
623.16	51274.12
623.32	50859.84
623.47	51077.51
623.62	50564.93
623.77	50387.05
623.92	51058.79
624.07	50892.61
624.23	50960.48
624.38	50883.25
624.53	50838.78
624.68	50939.42
624.83	51318.59
624.98	50974.53
625.13	50927.72
625.29	50923.04
625.44	50457.27
625.59	50447.91
625.74	50586.00
625.89	50426.84
626.04	50209.17
626.19	50251.30
626.34	50623.45
626.49	50237.26
626.65	50096.83
626.80	50677.28
626.95	50445.57
627.10	50532.17
627.25	50333.22
627.40	50302.79
627.55	50291.09
627.70	50267.69
627.85	49888.52
628.00	49944.69
628.15	50454.93
628.30	50162.36
628.45	50354.29
628.60	49867.45
628.76	50153.00
628.91	50248.96
629.06	50171.72
629.21	50239.60
629.36	50267.69
629.51	50057.04
629.66	50136.62
629.81	49911.92
629.96	49764.47
630.11	50131.93
630.26	49956.39
630.41	49478.92
630.56	49436.80
630.71	50103.85
630.86	49900.22
631.01	49846.39
631.16	50234.92
631.31	49947.03
631.46	49504.67
631.61	49869.79
631.76	49415.73
631.91	49712.98
632.06	49212.10
632.21	49350.20
632.36	49277.64
632.51	49186.36
632.66	49296.36
632.81	49160.61
632.96	49705.96
633.10	49584.25
633.25	49443.82
633.40	49694.25
633.55	49759.79
633.70	49294.02
633.85	49038.90
634.00	49010.82
634.15	49027.20
634.30	49436.80
634.45	49146.57
634.60	49457.86
634.75	49317.43
634.90	49226.15
635.05	49212.10
635.19	48945.28
635.34	49338.49
635.49	48928.90
635.64	49064.65
635.79	48769.74
635.94	48641.01
636.09	49017.84
636.24	48376.53
636.39	48701.87
636.53	48722.93
636.68	48596.54
636.83	48769.74
636.98	48832.94
637.13	48767.40
637.28	48886.77
637.43	48706.55
637.57	48935.92
637.72	48243.12
637.87	48645.69
638.02	48699.53
638.17	48542.71
638.32	48566.12
638.46	48339.08
638.61	48285.25
638.76	48252.48
638.91	48027.79
639.06	48320.36
639.20	48378.87
639.35	48659.74
639.50	48439.73
639.65	48739.32
639.80	48561.44
639.94	48250.14
640.09	48500.58
640.24	48177.59
640.39	48114.39
640.54	47849.91
640.68	47686.07
640.83	48208.01
640.98	47718.84
641.13	47384.15
641.27	47777.36
641.42	47735.23
641.57	48067.58
641.72	47447.34
641.86	47964.60
642.01	47405.21
642.16	47784.38
642.31	47386.49
642.45	47817.14
642.60	47643.94
642.75	47526.92
642.90	47334.99
643.04	47327.97
643.19	47306.91
643.34	47356.06
643.48	47501.17
643.63	47477.77
643.78	47292.86
643.93	47531.60
644.07	47737.57
644.22	47473.09
644.37	47332.65
644.51	47278.82
644.66	47454.36
644.81	46927.74
644.95	47297.55
645.10	46962.85
645.25	47283.50
645.39	47012.00
645.54	47096.26
645.69	47480.11
645.83	46965.19
645.98	46967.53
646.13	47255.42
646.27	47217.97
646.42	47248.39
646.57	47107.96
646.71	47065.83
646.86	46740.50
647.00	46773.27
647.15	46607.09
647.30	46464.32
647.44	46887.95
647.59	46988.60
647.74	46349.63
647.88	47019.02
648.03	46733.48
648.17	47044.77
648.32	46768.58
648.47	47131.37
648.61	46377.72
648.76	46958.17
648.90	46756.88
649.05	46239.62
649.20	46080.47
649.34	46415.16
649.49	46101.53
649.63	45904.93
649.78	46160.05
649.92	46190.47
650.07	46550.91
650.21	46349.63
650.36	46490.06
650.51	46014.93
650.65	46621.13
650.80	46373.03
650.94	46043.02
651.09	46197.49
651.23	45921.31
651.38	45963.44
651.52	45944.72
651.67	45837.05
651.81	45727.05
651.96	45815.99
652.10	46000.89
652.25	45874.50
652.39	45790.24
652.54	45984.51
652.68	45841.73
652.83	45860.46
652.97	46148.34
653.12	45593.64
653.26	45612.36
653.41	45872.16
653.55	45752.79
653.70	45305.75
653.84	45970.46
653.99	45509.38
654.13	45797.26
654.27	45610.02
654.42	45549.17
654.56	45270.64
654.71	45586.61
654.85	45755.13
655.00	45453.20
655.14	45485.97
655.29	45406.39
655.43	45469.59
655.57	45401.71
655.72	45038.93
655.86	45392.35
656.01	44987.44
656.15	45085.74
656.30	44942.97
656.44	44835.30
656.58	44680.83
656.73	44849.35
656.87	45031.91
657.01	44889.13
657.16	45006.16
657.30	45029.57
657.45	44694.87
657.59	45205.11
657.73	44811.90
657.88	44868.07
658.02	44907.86
658.16	44027.82
658.31	44175.27
658.45	44404.64
658.60	44067.61
658.74	44329.75
658.88	44154.21
659.03	44247.83
659.17	44144.84
659.31	44381.24
659.46	43737.59
659.60	43906.11
659.74	44348.47
659.89	44266.55
660.03	44191.65
660.17	44205.70
660.32	43819.51
660.46	43658.01
660.60	43761.00
660.74	43775.04
660.89	43992.71
661.03	43770.36
661.17	43590.14
661.32	43093.94
661.46	43709.50
661.60	43133.73
661.74	43161.82
661.89	43538.65
662.03	43335.02
662.17	43267.14
662.31	43276.51
662.46	43559.71
662.60	42873.93
662.74	43051.81
662.88	42621.16
663.03	42546.26
663.17	42700.73
663.31	42234.97
663.45	42990.96
663.60	42689.03
663.74	42469.02
663.88	42660.94
664.02	42375.40
664.17	42913.72
664.31	42274.76
664.45	42110.92
664.59	42532.22
664.73	42113.26
664.88	42373.06
665.02	41940.06
665.16	42094.53
665.30	41902.61
665.44	41921.34
665.59	41626.43
665.73	41893.25
665.87	41773.88
666.01	41972.83
666.15	41574.94
666.29	41659.20
666.44	41495.36
666.58	41675.58
666.72	41060.02
666.86	41698.98
667.00	41544.51
667.14	41256.62
667.28	41284.71
667.43	41113.85
667.57	41551.53
667.71	40823.62
667.85	41268.33
667.99	40573.19
668.13	40795.54
668.27	40615.32
668.41	40996.82
668.56	40488.93
668.70	40594.25
668.84	40767.45
668.98	40657.45
669.12	40411.69
669.26	40353.18
669.40	40451.48
669.54	40666.81
669.68	40299.34
669.82	40076.99
669.96	39999.76
670.10	39742.30
670.25	40217.43
670.39	39505.90
670.53	39388.88
670.67	39732.93
670.81	40135.51
670.95	39852.30
671.09	39337.38
671.23	39531.65
671.37	39606.55
671.51	39784.43
671.65	39739.96
671.79	39491.86
671.93	38979.28
672.07	39335.04
672.21	39201.63
672.35	38543.94
672.49	38649.27
672.63	38852.89
672.77	38436.28
672.91	38717.14
673.05	38370.74
673.19	38693.74
673.33	38363.72
673.47	38768.63
673.61	38714.80
673.75	38398.83
673.89	38347.34
674.03	38089.88
674.17	38071.15
674.31	38073.49
674.45	37942.42
674.59	37404.10
674.73	37876.89
674.87	37514.11
675.01	37448.57
675.15	37406.44
675.29	37397.08
675.43	36978.12
675.56	37062.38
675.70	37223.88
675.84	37560.92
675.98	36140.21
676.12	37186.43
676.26	37605.39
676.40	37209.84
676.54	36500.65
676.68	36570.87
676.82	35857.01
676.96	36011.48
677.10	35969.35
677.23	35686.15
677.37	36191.70
677.51	35552.74
677.65	35625.29
677.79	35166.55
677.93	35292.94
678.07	35447.41
678.21	35133.78
678.34	35108.04
678.48	35122.08
678.62	35531.67
678.76	34909.09
678.90	34930.16
679.04	34646.95
679.18	34565.03
679.31	34230.33
679.45	34003.30
679.59	34408.22
679.73	34270.12
679.87	34256.08
680.00	34455.03
680.14	33977.56
680.28	34012.66
680.42	33968.19
680.56	33895.64
680.70	33717.76
680.83	33741.16
680.97	33645.20
681.11	33818.40
681.25	33666.27
681.39	33216.88
681.52	33525.83
681.66	33322.21
681.80	32751.12
681.94	32617.71
682.07	32283.01
682.21	32343.86
682.35	32582.60
682.49	32018.53
682.62	32238.54
682.76	31758.73
682.90	31676.81
683.04	31798.52
683.17	32002.14
683.31	31821.92
683.45	32109.81
683.59	31501.27
683.72	31515.31
683.86	31580.85
684.00	31529.36
684.13	31068.27
684.27	31204.02
684.41	30721.87
684.55	30654.00
684.68	30590.80
684.82	30485.48
684.96	30307.60
685.09	30302.92
685.23	30010.35
685.37	30249.08
685.50	30445.69
685.64	30265.47
685.78	29963.54
685.91	29998.65
686.05	30335.68
686.19	29811.40
686.32	29577.35
686.46	29134.99
686.60	28971.15
686.73	29254.36
686.87	29156.05
687.01	29294.14
687.14	28914.98
687.28	28584.96
687.42	28957.11
687.55	28123.88
687.69	28568.58
687.82	28407.08
687.96	28481.98
688.10	27941.32
688.23	28325.16
688.37	28046.64
688.50	28018.55
688.64	27857.06
688.78	27864.08
688.91	27756.41
689.05	27545.76
689.18	27473.21
689.32	27161.92
689.46	27019.14
689.59	27103.40
689.73	27269.58
689.86	26808.50
690.00	26724.24
690.13	27101.06
690.27	26831.90
690.41	26600.19
690.54	26499.55
690.68	26785.09
690.81	26459.76
690.95	26728.92
691.08	26429.33
691.22	25928.45
691.35	26052.50
691.49	26228.04
691.62	25928.45
691.76	25553.97
691.89	25518.86
692.03	25345.66
692.16	25064.80
692.30	25256.72
692.43	25333.96
692.57	25167.78
692.70	24889.26
692.84	24882.24
692.97	24917.34
693.11	25057.78
693.24	24793.29
693.38	24655.20
693.51	24666.91
693.65	24678.61
693.78	24582.65
693.92	24135.60
694.05	24264.33
694.19	24217.52
694.32	23943.68
694.45	23967.09
694.59	23632.39
694.72	23445.15
694.86	23311.74
694.99	23351.52
695.13	22848.31
695.26	22801.50
695.39	23091.73
695.53	23379.61
695.66	23356.21
695.80	23051.94
695.93	22642.34
696.07	22857.67
696.20	22860.01
696.33	22513.61
696.47	22464.46
696.60	22684.47
696.73	22408.29
696.87	22108.70
697.00	22094.66
697.14	22115.72
697.27	21462.71
697.40	21420.58
697.54	21275.47
697.67	21570.38
697.80	21188.87
697.94	21003.97
698.07	20783.96
698.21	20807.36
698.34	21167.80
698.47	21333.98
698.61	21018.01
698.74	20751.19
698.87	20900.98
699.01	20709.06
699.14	20702.04
699.27	20805.02
699.40	20432.88
699.54	20350.96
699.67	19983.49
699.80	20210.53
699.94	19662.84
700.07	19896.89
700.20	19674.54
700.34	19906.26
700.47	19524.75
700.60	19697.95
700.73	19513.05
700.87	19449.85
701.00	19484.96
701.13	19318.78
701.26	19159.63
701.40	19119.84
701.53	19229.84
701.66	19075.37
701.79	18876.42
701.93	18513.64
702.06	18455.12
702.19	18284.26
702.32	18508.96
702.46	18169.58
702.59	18272.56
702.72	18024.47
702.85	18038.51
702.99	18225.75
703.12	17916.80
703.25	18178.94
703.38	18031.49
703.51	17982.34
703.65	17743.60
703.78	17621.89
703.91	17668.70
704.04	17652.32
704.17	17518.91
704.31	17242.73
704.44	17343.37
704.57	17233.36
704.70	17025.06
704.83	16706.74
704.96	16978.25
705.10	16730.15
705.23	16566.31
>>>>>End Processed Spectral Data<<<<<
