SpectraSuite Data File
++++++++++++++++++++++++++++++++++++
Date: Fri Oct 18 13:55:21 GMT-05:00 2013
User: bianchi
Dark Spectrum Present: No
Reference Spectrum Present: No
Number of Sampled Component Spectra: 1
Spectrometers: USB2+H05261
Integration Time (usec): 100000 (USB2+H05261)
Spectra Averaged: 1 (USB2+H05261)
Boxcar Smoothing: 0 (USB2+H05261)
Correct for Electrical Dark: No (USB2+H05261)
Strobe/Lamp Enabled: No (USB2+H05261)
Correct for Detector Non-linearity: No (USB2+H05261)
Correct for Stray Light: No (USB2+H05261)
Number of Pixels in Processed Spectrum: 2048
>>>>>Begin Processed Spectral Data<<<<<
365.73	0.00
365.92	0.00
366.12	0.00
366.32	0.00
366.52	0.00
366.72	0.00
366.91	0.00
367.11	0.00
367.31	0.00
367.51	0.00
367.70	0.00
367.90	0.00
368.10	0.00
368.30	0.00
368.49	0.00
368.69	0.00
368.89	0.00
369.09	0.00
369.28	0.00
369.48	0.00
369.68	0.00
369.87	0.00
370.07	0.00
370.27	0.00
370.47	0.00
370.66	280.86
370.86	215.33
371.06	418.96
371.25	322.99
371.45	280.86
371.65	428.32
371.84	367.46
372.04	367.46
372.24	447.04
372.44	390.87
372.63	348.74
372.83	440.02
373.03	479.81
373.22	454.06
373.42	479.81
373.62	493.85
373.81	458.74
374.01	484.49
374.21	514.92
374.40	465.77
374.60	475.13
374.79	400.23
374.99	514.92
375.19	550.03
375.38	524.28
375.58	587.47
375.78	585.13
375.97	484.49
376.17	571.09
376.37	592.16
376.56	587.47
376.76	521.94
376.95	507.90
377.15	519.60
377.35	479.81
377.54	547.69
377.74	608.54
377.93	606.20
378.13	615.56
378.33	573.43
378.52	575.77
378.72	624.92
378.91	606.20
379.11	636.63
379.31	578.11
379.50	517.26
379.70	660.03
379.89	650.67
380.09	624.92
380.28	617.90
380.48	655.35
380.68	650.67
380.87	681.10
381.07	727.91
381.26	671.73
381.46	734.93
381.65	683.44
381.85	758.33
382.04	716.20
382.24	676.41
382.43	772.38
382.63	681.10
382.83	674.07
383.02	755.99
383.22	732.59
383.41	770.04
383.61	748.97
383.80	802.80
384.00	716.20
384.19	823.87
384.39	779.40
384.58	805.14
384.78	772.38
384.97	809.83
385.17	819.19
385.36	763.01
385.56	781.74
385.75	814.51
385.95	812.17
386.14	891.74
386.34	870.68
386.53	980.68
386.72	821.53
386.92	858.98
387.11	891.74
387.31	861.32
387.50	896.43
387.70	828.55
387.89	912.81
388.09	952.60
388.28	919.83
388.48	957.28
388.67	968.98
388.86	950.26
389.06	940.90
389.25	924.51
389.45	943.24
389.64	954.94
389.84	931.53
390.03	908.13
390.22	1008.77
390.42	1036.86
390.61	1008.77
390.81	903.45
391.00	999.41
391.19	1107.07
391.39	1006.43
391.58	1097.71
391.78	968.98
391.97	1011.11
392.16	1167.93
392.36	1121.12
392.55	1116.44
392.75	1104.73
392.94	1156.22
393.13	1146.86
393.33	1102.39
393.52	1114.10
393.71	1224.10
393.91	1240.48
394.10	1172.61
394.29	1179.63
394.49	1130.48
394.68	1210.06
394.88	1249.85
395.07	1224.10
395.26	1282.61
395.46	1280.27
395.65	1296.66
395.84	1270.91
396.04	1282.61
396.23	1291.98
396.42	1242.82
396.62	1420.71
396.81	1263.89
397.00	1399.64
397.19	1345.81
397.39	1376.24
397.58	1430.07
397.77	1385.60
397.97	1315.38
398.16	1336.45
398.35	1500.28
398.55	1490.92
398.74	1420.71
398.93	1535.39
399.12	1497.94
399.32	1556.46
399.51	1593.90
399.70	1572.84
399.90	1526.03
400.09	1610.29
400.28	1589.22
400.47	1544.75
400.67	1673.48
400.86	1593.90
401.05	1657.10
401.24	1638.38
401.44	1734.34
401.63	1584.54
401.82	1703.91
402.01	1729.66
402.21	1724.97
402.40	1827.96
402.59	1746.04
402.78	1764.76
402.97	1811.57
403.17	1823.28
403.36	1755.40
403.55	1727.32
403.74	1947.33
403.93	1858.39
404.13	1928.60
404.32	1851.36
404.51	1830.30
404.70	1966.05
404.89	1909.88
405.09	2047.97
405.28	2038.61
405.47	2038.61
405.66	2038.61
405.85	2141.59
406.05	2052.65
406.24	2153.29
406.43	2101.80
406.62	2218.83
406.81	2275.00
407.00	2228.19
407.20	2108.82
407.39	2209.47
407.58	2141.59
407.77	2181.38
407.96	2228.19
408.15	2403.73
408.34	2363.94
408.54	2354.58
408.73	2392.03
408.92	2267.98
409.11	2410.75
409.30	2525.44
409.49	2354.58
409.68	2583.95
409.87	2544.16
410.07	2565.23
410.26	2560.55
410.45	2642.46
410.64	2516.08
410.83	2715.02
411.02	2586.29
411.21	2775.88
411.40	2644.81
411.59	2810.98
411.78	2670.55
411.98	2871.84
412.17	2780.56
412.36	2775.88
412.55	2930.35
412.74	2911.63
412.93	2951.42
413.12	2956.10
413.31	3070.78
413.50	3063.76
413.69	3005.25
413.88	3162.06
414.07	3098.87
414.26	3241.64
414.45	3232.28
414.64	3089.51
414.83	3251.00
415.02	3171.43
415.22	3229.94
415.41	3426.54
415.60	3363.35
415.79	3492.08
415.98	3435.91
416.17	3557.61
416.36	3529.53
416.55	3599.74
416.74	3648.90
416.93	3627.83
417.12	3716.77
417.31	3669.96
417.50	3665.28
417.69	3840.82
417.88	3918.06
418.07	3700.39
418.26	3829.12
418.45	3784.65
418.64	4065.51
418.83	3941.46
419.02	3946.14
419.21	4030.40
419.39	3971.89
419.58	4145.09
419.77	4002.32
419.96	4063.17
420.15	4180.20
420.34	4292.54
420.53	4060.83
420.72	4208.28
420.91	4250.41
421.10	4269.14
421.29	4245.73
421.48	4205.94
421.67	4313.61
421.86	4262.12
422.05	4358.08
422.24	4187.22
422.43	4367.44
422.61	4484.47
422.80	4418.93
422.99	4550.00
423.18	4461.06
423.37	4507.87
423.56	4573.41
423.75	4418.93
423.94	4355.74
424.13	4208.28
424.32	4482.13
424.50	4568.73
424.69	4592.13
424.88	4587.45
425.07	4500.85
425.26	4355.74
425.45	4461.06
425.64	4418.93
425.83	4538.30
426.01	4650.64
426.20	4482.13
426.39	4566.39
426.58	4440.00
426.77	4669.37
426.96	4744.27
427.15	4627.24
427.33	4692.77
427.52	4732.56
427.71	4821.50
427.90	4861.29
428.09	4943.21
428.28	4943.21
428.46	5025.13
428.65	4870.65
428.84	4943.21
429.03	4973.64
429.22	4961.94
429.40	5163.22
429.59	5078.96
429.78	4856.61
429.97	4915.12
430.16	4940.87
430.34	5067.26
430.53	5212.37
430.72	5188.97
430.91	5142.16
431.10	5130.45
431.28	5242.80
431.47	5338.76
431.66	5226.42
431.85	5256.84
432.03	5413.66
432.22	5528.35
432.41	5287.27
432.60	5518.98
432.79	5331.74
432.97	5572.82
433.16	5619.63
433.35	5509.62
433.54	5624.31
433.72	5579.84
433.91	5675.80
434.10	5685.16
434.28	5736.65
434.47	5764.74
434.66	5834.96
434.85	5832.62
435.03	5806.87
435.22	5797.51
435.41	5900.49
435.59	5753.04
435.78	5865.38
435.97	5834.96
436.16	5900.49
436.34	5863.04
436.53	6057.31
436.72	6059.65
436.90	5914.53
437.09	6057.31
437.28	6003.47
437.46	5954.32
437.65	6167.31
437.84	6200.08
438.02	6115.82
438.21	6125.18
438.40	6160.29
438.58	6359.24
438.77	6527.75
438.96	6462.22
439.14	6490.31
439.33	6764.15
439.52	6642.44
439.70	6764.15
439.89	6813.30
440.08	6778.19
440.26	6836.70
440.45	6925.65
440.63	6843.73
440.82	6998.20
441.01	6848.41
441.19	7105.87
441.38	7129.27
441.57	7119.91
441.75	7335.24
441.94	7379.71
442.12	7176.08
442.31	7463.97
442.50	7445.24
442.68	7356.30
442.87	7382.05
443.05	7339.92
443.24	7681.64
443.43	7588.02
443.61	7573.97
443.80	7751.85
443.98	7487.37
444.17	7281.41
444.35	7698.02
444.54	7669.94
444.73	7630.15
444.91	7836.11
445.10	7630.15
445.28	7637.17
445.47	7480.35
445.65	7466.31
445.84	7761.22
446.02	7906.33
446.21	7634.83
446.39	7578.65
446.58	7812.71
446.77	7796.32
446.95	7742.49
447.14	7852.50
447.32	7964.84
447.51	7892.29
447.69	7669.94
447.88	7861.86
448.06	8051.44
448.25	7920.37
448.43	8021.02
448.62	7925.05
448.80	7805.69
448.99	7911.01
449.17	7850.16
449.36	8023.36
449.54	8124.00
449.73	8393.16
449.91	8170.81
450.10	8231.66
450.28	8439.97
450.46	8327.63
450.65	8194.22
450.83	8456.36
451.02	8355.71
451.20	8379.12
451.39	8423.59
451.57	8315.92
451.76	8189.53
451.94	8535.93
452.13	8535.93
452.31	8557.00
452.49	8458.70
452.68	8461.04
452.86	8648.28
453.05	8662.32
453.23	8917.44
453.42	8648.28
453.60	8816.80
453.78	8741.90
453.97	8669.34
454.15	8727.86
454.34	8868.29
454.52	8842.54
454.70	8879.99
454.89	8889.35
455.07	8814.46
455.26	9006.38
455.44	9135.11
455.62	9104.68
455.81	9088.30
455.99	9284.91
456.17	9259.16
456.36	9210.01
456.54	9514.28
456.73	9317.67
456.91	9448.74
457.09	9483.85
457.28	9689.82
457.46	9392.57
457.64	9645.35
457.83	9881.74
458.01	9516.62
458.19	9905.15
458.38	9617.26
458.56	9741.31
458.74	9717.90
458.93	9783.44
459.11	9940.26
459.29	9865.36
459.48	9954.30
459.66	9968.34
459.84	9741.31
460.03	9907.49
460.21	10338.15
460.39	10022.17
460.57	10150.90
460.76	10209.42
460.94	10457.51
461.12	10321.76
461.31	10272.61
461.49	10314.74
461.67	10408.36
461.85	10485.60
462.04	10415.38
462.22	10693.91
462.40	10602.63
462.59	10583.90
462.77	10492.62
462.95	10768.80
463.13	10532.41
463.32	10906.90
463.50	10740.72
463.68	10672.84
463.86	10609.65
464.05	10576.88
464.23	10869.45
464.41	11019.24
464.59	10548.79
464.78	11070.73
464.96	11229.89
465.14	10878.81
465.32	11150.31
465.50	11293.08
465.69	11255.64
465.87	11075.42
466.05	11176.06
466.23	11084.78
466.41	11344.58
466.60	11632.46
466.78	11173.72
466.96	11154.99
467.14	10984.13
467.32	11262.66
467.51	11559.91
467.69	11365.64
467.87	11428.84
468.05	11499.05
468.23	11396.07
468.41	11393.73
468.60	11571.61
468.78	11606.72
468.96	11332.87
469.14	11733.11
469.32	11910.99
469.50	11585.65
469.69	11789.28
469.87	11932.05
470.05	12046.74
470.23	12269.09
470.41	11756.51
470.59	12123.98
470.77	12009.29
470.95	12184.83
471.14	12229.30
471.32	12109.93
471.50	12439.95
471.68	12365.05
471.86	12430.59
472.04	12430.59
472.22	12858.90
472.40	12592.08
472.58	12709.11
472.77	12613.15
472.95	12996.99
473.13	13303.60
473.31	12957.21
473.49	12973.59
473.67	13053.17
473.85	12992.31
474.03	13191.26
474.21	13371.48
474.39	13465.10
474.57	13572.77
474.75	13579.79
474.93	13771.71
475.12	13502.55
475.30	13717.88
475.48	13750.65
475.66	13951.93
475.84	13820.86
476.02	14204.71
476.20	14029.17
476.38	14487.92
476.56	14707.93
476.74	14389.61
476.92	14396.64
477.10	14438.76
477.28	14850.70
477.46	14686.86
477.64	14684.52
477.82	15288.38
478.00	15370.30
478.18	15372.64
478.36	15559.88
478.54	15655.84
478.72	15630.10
478.90	15770.53
479.08	15997.56
479.26	16147.36
479.44	16318.22
479.62	16360.34
479.80	16460.99
479.98	16451.63
480.16	17090.59
480.34	16652.91
480.52	17025.06
480.70	17170.17
480.88	16901.01
481.06	16996.97
481.24	17277.83
481.41	17687.43
481.59	17619.55
481.77	17687.43
481.95	17394.86
482.13	18342.78
482.31	17951.91
482.49	18693.86
482.67	18590.88
482.85	18679.82
483.03	19044.94
483.21	18988.77
483.39	19215.80
483.57	19115.16
483.74	19449.85
483.92	19389.00
484.10	19534.11
484.28	19747.10
484.46	20037.33
484.64	20407.13
484.82	19920.30
485.00	20482.03
485.18	20702.04
485.35	20994.61
485.53	20819.07
485.71	20999.29
485.89	21249.72
486.07	21418.24
486.25	21357.39
486.43	21493.14
486.61	21783.37
486.78	22120.40
486.96	22167.21
487.14	22469.14
487.32	22829.59
487.50	22647.02
487.68	22916.19
487.85	22871.72
488.03	23506.00
488.21	23903.89
488.39	23522.38
488.57	23789.20
488.75	23751.76
488.92	24175.39
489.10	24285.40
489.28	24592.01
489.46	25116.29
489.64	24809.68
489.81	25230.98
489.99	25113.95
490.17	25654.61
490.35	25731.85
490.53	25701.42
490.70	26075.91
490.88	25832.49
491.06	26085.27
491.24	25848.88
491.41	26387.20
491.59	26705.51
491.77	26829.56
491.95	27398.31
492.13	27129.15
492.30	27253.20
492.48	27400.65
492.66	27482.57
492.84	27452.14
493.01	27854.72
493.19	27859.40
493.37	28154.30
493.54	28613.05
493.72	28397.72
493.90	28210.48
494.08	28910.30
494.25	29102.22
494.43	29120.95
494.61	29706.08
494.79	29294.14
494.96	29523.52
495.14	29977.58
495.32	30017.37
495.49	30340.36
495.67	30223.34
495.85	30562.72
496.02	30864.64
496.20	30747.62
496.38	31222.75
496.55	31140.83
496.73	31321.05
496.91	31328.07
497.09	31842.99
497.26	32100.45
497.44	32114.49
497.62	31761.07
497.79	32507.70
497.97	32182.37
498.14	32966.45
498.32	33242.63
498.50	32870.48
498.67	33476.68
498.85	33502.43
499.03	33450.94
499.20	33589.03
499.38	33670.95
499.56	33958.83
499.73	34029.05
499.91	33848.83
500.08	34108.63
500.26	34199.91
500.44	33792.65
500.61	34616.52
500.79	34230.33
500.97	35065.91
501.14	34834.19
501.32	35166.55
501.49	35101.01
501.67	34728.87
501.84	35381.88
502.02	35512.95
502.20	35569.12
502.37	36119.15
502.55	35765.73
502.72	35852.33
502.90	36102.76
503.07	35672.10
503.25	35964.67
503.43	36116.81
503.60	36343.84
503.78	36690.24
503.95	36650.45
504.13	36903.23
504.30	37034.30
504.48	36629.38
504.65	36737.05
504.83	37408.78
505.01	38167.12
505.18	37474.32
505.36	37780.93
505.53	37303.46
505.71	37479.00
505.88	37834.76
506.06	37574.96
506.23	38330.95
506.41	37926.04
506.58	38555.64
506.76	38394.15
506.93	38377.76
507.11	38581.39
507.28	39133.76
507.46	38747.57
507.63	39196.95
507.81	39285.89
507.98	39042.48
508.16	39044.82
508.33	39215.68
508.50	39203.97
508.68	39651.02
508.85	39597.18
509.03	39913.16
509.20	40079.33
509.38	40561.48
509.55	40627.02
509.73	40217.43
509.90	40498.29
510.08	40456.16
510.25	40491.27
510.42	40549.78
510.60	41144.28
510.77	41415.78
510.95	41493.02
511.12	40793.20
511.30	41249.60
511.47	41514.08
511.64	41631.11
511.82	41680.26
511.99	41214.49
512.17	41624.09
512.34	42024.32
512.51	42005.59
512.69	42169.43
512.86	42050.06
513.04	42312.20
513.21	42873.93
513.38	43009.68
513.56	42401.14
513.73	42405.83
513.90	42749.88
514.08	43178.20
514.25	43381.83
514.43	43519.92
514.60	43269.48
514.77	43297.57
514.95	43470.77
515.12	43393.53
515.29	43384.17
515.47	43636.95
515.64	44189.31
515.81	43952.92
515.99	44203.36
516.16	44266.55
516.33	44404.64
516.51	44692.53
516.68	44179.95
516.85	44275.91
517.03	44477.20
517.20	44776.79
517.37	44622.31
517.54	44594.23
517.72	44847.00
517.89	44928.92
518.06	44795.51
518.24	44832.96
518.41	45170.00
518.58	45006.16
518.75	44790.83
518.93	45462.57
519.10	45385.33
519.27	45928.33
519.45	45209.79
519.62	45752.79
519.79	45659.17
519.96	45804.28
520.14	46518.15
520.31	45717.68
520.48	46628.15
520.65	46043.02
520.83	46777.95
521.00	46539.21
521.17	46305.16
521.34	46518.15
521.52	46962.85
521.69	46789.65
521.86	46906.68
522.03	47049.45
522.20	47267.12
522.38	46960.51
522.55	47250.74
522.72	47150.09
522.89	47297.55
523.07	47379.46
523.24	47498.83
523.41	47669.69
523.58	47323.29
523.75	47999.71
523.92	47447.34
524.10	47449.68
524.27	47892.04
524.44	47885.02
524.61	48442.07
524.78	48261.85
524.96	48128.44
525.13	48222.06
525.30	48285.25
525.47	48353.13
525.64	48062.90
525.81	48655.06
525.98	48935.92
526.16	48926.56
526.33	48783.79
526.50	48865.70
526.67	48512.28
526.84	48905.49
527.01	48891.45
527.18	49076.35
527.36	48839.96
527.53	49263.60
527.70	49310.41
527.87	49443.82
528.04	49162.95
528.21	49251.89
528.38	49401.69
528.55	49350.20
528.72	49483.61
528.89	49914.26
529.07	49532.76
529.24	49504.67
529.41	49970.44
529.58	50064.06
529.75	49790.22
529.92	49771.49
530.09	49673.19
530.26	49708.30
530.43	49930.65
530.60	50328.54
530.77	49991.50
530.94	50120.23
531.11	50047.68
531.28	50124.91
531.46	50295.77
531.63	50199.81
531.80	50581.32
531.97	50803.67
532.14	50871.54
532.31	50625.79
532.48	50380.03
532.65	50384.71
532.82	50677.28
532.99	50983.89
533.16	50609.40
533.33	50880.91
533.50	51152.41
533.67	50951.12
533.84	51023.68
534.01	50969.85
534.18	51051.76
534.35	51260.07
534.52	51381.78
534.69	51498.81
534.86	51597.11
535.03	51580.73
535.20	51040.06
535.37	51332.63
535.54	51571.36
535.71	51157.09
535.88	51468.38
536.05	51496.47
536.22	51688.39
536.38	51885.00
536.55	51973.94
536.72	51777.33
536.89	51489.45
537.06	51765.63
537.23	51987.98
537.40	51817.12
537.57	51887.34
537.74	52060.54
537.91	52315.65
538.08	52081.60
538.25	51936.49
538.42	52034.79
538.59	52322.68
538.75	51969.26
538.92	51833.50
539.09	52413.96
539.26	52488.85
539.43	52580.13
539.60	52598.86
539.77	52442.04
539.94	52498.22
540.11	52603.54
540.28	52629.29
540.44	52463.11
540.61	52435.02
540.78	52736.95
540.95	52692.48
541.12	52889.09
541.29	52762.70
541.46	52861.00
541.62	52383.53
541.79	52818.87
541.96	52657.37
542.13	52676.10
542.30	52999.09
542.47	53144.20
542.63	53350.17
542.80	53085.69
542.97	53408.68
543.14	53485.92
543.31	53448.47
543.48	53282.30
543.64	53677.85
543.81	53595.93
543.98	53741.04
544.15	53624.01
544.32	53542.10
544.48	54234.89
544.65	54028.93
544.82	53558.48
544.99	53319.74
545.16	53450.81
545.32	53633.38
545.49	54082.76
545.66	54127.23
545.83	54122.55
546.00	54162.34
546.16	54045.31
546.33	53750.40
546.50	53624.01
546.67	53766.79
546.83	53553.80
547.00	54066.38
547.17	53785.51
547.34	54103.82
547.50	54302.77
547.67	54258.30
547.84	54176.38
548.00	54199.79
548.17	54424.48
548.34	54370.64
548.51	54429.16
548.67	54349.58
548.84	54581.29
549.01	54419.80
549.18	54323.83
549.34	54354.26
549.51	54607.04
549.68	54497.03
549.84	54438.52
550.01	54700.66
550.18	54431.50
550.34	54520.44
550.51	54780.24
550.68	54452.56
550.84	54595.34
551.01	54958.12
551.18	54422.14
551.34	54632.78
551.51	54588.31
551.68	54838.75
551.84	54878.54
552.01	54499.37
552.18	54976.84
552.34	54925.35
552.51	54803.64
552.68	54740.45
552.84	54904.29
553.01	54983.86
553.18	55028.34
553.34	55105.57
553.51	54838.75
553.67	55093.87
553.84	55341.97
554.01	55248.35
554.17	55274.09
554.34	55288.13
554.51	55260.05
554.67	55292.82
554.84	55234.30
555.00	55283.45
555.17	55510.49
555.33	55227.28
555.50	55543.25
555.67	55255.37
555.83	55262.39
556.00	55466.02
556.16	55550.27
556.33	55360.69
556.50	55185.15
556.66	55435.59
556.83	55540.91
556.99	55578.36
557.16	55597.09
557.32	55723.47
557.49	55709.43
557.65	55288.13
557.82	55641.56
557.98	55693.05
558.15	55501.12
558.32	55863.91
558.48	55583.04
558.65	55749.22
558.81	55875.61
558.98	55728.16
559.14	55592.40
559.31	55627.51
559.47	55770.28
559.64	55906.04
559.80	55899.01
559.97	55667.30
560.13	55641.56
560.30	55945.83
560.46	56060.51
560.63	55690.71
560.79	55693.05
560.96	55969.23
561.12	55803.05
561.29	55828.80
561.45	55917.74
561.61	56058.17
561.78	55831.14
561.94	55906.04
562.11	56097.96
562.27	56051.15
562.44	55931.78
562.60	55884.97
562.77	55828.80
562.93	56055.83
563.10	55826.46
563.26	56006.68
563.42	56383.51
563.59	56097.96
563.75	56060.51
563.92	55810.07
564.08	55842.84
564.24	55957.53
564.41	55945.83
564.57	56121.37
564.74	55934.12
564.90	56112.00
565.07	56051.15
565.23	56112.00
565.39	56126.05
565.56	56432.66
565.72	56034.77
565.88	56381.16
566.05	56154.13
566.21	56067.53
566.38	56210.31
566.54	56086.26
566.70	56378.82
566.87	56638.62
567.03	56189.24
567.19	56495.85
567.36	56224.35
567.52	55999.66
567.68	56336.69
567.85	55971.57
568.01	56348.40
568.17	56303.93
568.34	56254.78
568.50	56315.63
568.66	56397.55
568.83	56123.71
568.99	56315.63
569.15	56413.93
569.32	56271.16
569.48	56137.75
569.64	56320.31
569.81	56367.12
569.97	56219.67
570.13	56432.66
570.30	56282.86
570.46	56535.64
570.62	56240.73
570.78	56177.54
570.95	56149.45
571.11	56346.06
571.27	56151.79
571.43	56327.33
571.60	56254.78
571.76	56640.96
571.92	56495.85
572.09	56435.00
572.25	56669.05
572.41	56509.89
572.57	56516.92
572.74	56545.00
572.90	56409.25
573.06	56481.81
573.22	56310.95
573.38	56470.11
573.55	56362.44
573.71	57015.45
573.87	56718.20
574.03	56367.12
574.20	56662.03
574.36	56406.91
574.52	56568.41
574.68	56420.95
574.84	56484.15
575.01	56523.94
575.17	56456.06
575.33	56392.87
575.49	56523.94
575.65	56554.36
575.82	56320.31
575.98	56535.64
576.14	56615.22
576.30	56568.41
576.46	56219.67
576.62	56542.66
576.79	56467.76
576.95	56486.49
577.11	56474.79
577.27	56657.35
577.43	56296.91
577.59	56458.40
577.75	56783.74
577.92	56629.26
578.08	56573.09
578.24	56397.55
578.40	56537.98
578.56	56645.65
578.72	56495.85
578.88	56673.73
579.04	56973.32
579.21	56830.55
579.37	56519.26
579.53	56561.39
579.69	56470.11
579.85	56666.71
580.01	56383.51
580.17	56357.76
580.33	56470.11
580.49	56685.43
580.65	56678.41
580.82	56666.71
580.98	56587.13
581.14	56818.84
581.30	56757.99
581.46	56516.92
581.62	56542.66
581.78	56350.74
581.94	56521.60
582.10	56289.88
582.26	56788.42
582.42	56594.15
582.58	56746.29
582.74	56545.00
582.90	56760.33
583.06	56865.66
583.22	56601.18
583.38	56533.30
583.54	56720.54
583.70	56666.71
583.86	56762.67
584.02	56409.25
584.18	56928.85
584.34	56655.01
584.50	56790.76
584.66	56561.39
584.82	56615.22
584.98	56795.44
585.14	56725.22
585.30	56413.93
585.46	56818.84
585.62	56589.47
585.78	56683.09
585.94	56526.28
586.10	56797.78
586.26	56652.67
586.42	56678.41
586.58	56980.34
586.74	56617.56
586.90	56591.81
587.06	56470.11
587.22	56467.76
587.38	56762.67
587.54	56772.03
587.70	56720.54
587.86	56975.66
588.02	56846.93
588.18	57064.60
588.34	56690.12
588.49	56765.01
588.65	56519.26
588.81	56673.73
588.97	56886.72
589.13	56804.80
589.29	56811.82
589.45	56921.83
589.61	56954.60
589.77	57165.24
589.93	56992.04
590.08	57052.90
590.24	56931.19
590.40	56823.53
590.56	57038.86
590.72	56891.40
590.88	56640.96
591.04	56917.15
591.20	56982.68
591.35	57095.03
591.51	57212.06
591.67	57080.98
591.83	57073.96
591.99	56966.30
592.15	56856.29
592.31	56893.74
592.46	56736.93
592.62	56757.99
592.78	56886.72
592.94	56868.00
593.10	56947.57
593.26	56879.70
593.41	57034.17
593.57	57013.11
593.73	56903.10
593.89	57052.90
594.05	56980.34
594.20	56968.64
594.36	56886.72
594.52	56910.13
594.68	56802.46
594.84	56870.34
594.99	57153.54
595.15	57050.56
595.31	57104.39
595.47	57153.54
595.62	56926.51
595.78	56891.40
595.94	57106.73
596.10	56842.25
596.25	56767.35
596.41	56898.42
596.57	56970.98
596.73	57088.01
596.88	56802.46
597.04	57069.28
597.20	57195.67
597.36	56928.85
597.51	57350.15
597.67	57022.47
597.83	56788.42
597.99	57125.46
598.14	56835.23
598.30	56935.87
598.46	56818.84
598.61	57104.39
598.77	56875.02
598.93	57233.12
599.09	57031.83
599.24	57308.02
599.40	57226.10
599.56	57214.40
599.71	56952.26
599.87	57120.77
600.03	56839.91
600.18	56987.36
600.34	56949.92
600.50	57123.11
600.65	57045.88
600.81	57078.64
600.97	57109.07
601.12	57233.12
601.28	57041.20
601.44	57111.41
601.59	57038.86
601.75	56872.68
601.91	56846.93
602.06	57092.69
602.22	56896.08
602.37	57027.15
602.53	56835.23
602.69	57036.51
602.84	56931.19
603.00	56942.89
603.16	57162.90
603.31	57066.94
603.47	57071.62
603.62	57059.92
603.78	56900.76
603.94	56891.40
604.09	57059.92
604.25	57048.22
604.40	56858.63
604.56	57010.77
604.71	57244.82
604.87	56896.08
605.03	57083.33
605.18	56970.98
605.34	57034.17
605.49	56762.67
605.65	56914.81
605.80	56849.27
605.96	56863.32
606.12	56781.40
606.27	56949.92
606.43	56802.46
606.58	56968.64
606.74	56865.66
606.89	56779.06
607.05	56732.25
607.20	56949.92
607.36	56851.61
607.51	56872.68
607.67	56767.35
607.82	56636.28
607.98	56992.04
608.13	56715.86
608.29	56769.69
608.44	56903.10
608.60	56739.27
608.75	57064.60
608.91	56715.86
609.06	56835.23
609.22	56676.07
609.37	56479.47
609.53	56694.80
609.68	56699.48
609.84	56479.47
609.99	56619.90
610.15	56753.31
610.30	56783.74
610.46	56694.80
610.61	56636.28
610.76	56617.56
610.92	56568.41
611.07	56619.90
611.23	56231.37
611.38	56591.81
611.54	56472.45
611.69	56500.53
611.84	56449.04
612.00	56315.63
612.15	56278.18
612.31	56528.62
612.46	56549.68
612.62	56472.45
612.77	56306.27
612.92	56554.36
613.08	56512.23
613.23	56514.58
613.39	56282.86
613.54	56481.81
613.69	56357.76
613.85	56343.72
614.00	56360.10
614.15	56516.92
614.31	56357.76
614.46	56535.64
614.62	56371.80
614.77	56589.47
614.92	56460.74
615.08	56336.69
615.23	56481.81
615.38	56348.40
615.54	55999.66
615.69	56163.50
615.84	56060.51
616.00	56226.69
616.15	56158.81
616.30	56156.47
616.46	56165.84
616.61	55891.99
616.76	56470.11
616.92	55964.55
617.07	55990.30
617.22	56156.47
617.37	55929.44
617.53	55987.95
617.68	56165.84
617.83	55793.69
617.99	56097.96
618.14	55955.19
618.29	55952.85
618.45	56247.75
618.60	55831.14
618.75	55924.76
618.90	55882.63
619.06	55870.93
619.21	55936.46
619.36	56051.15
619.51	55578.36
619.67	55440.27
619.82	55667.30
619.97	55494.10
620.12	55695.39
620.28	55515.17
620.43	55964.55
620.58	55639.22
620.73	55702.41
620.89	56100.30
621.04	55592.40
621.19	55463.67
621.34	55774.97
621.49	55306.86
621.65	55351.33
621.80	55620.49
621.95	55325.58
622.10	55498.78
622.25	55498.78
622.41	55779.65
622.56	55306.86
622.71	55517.51
622.86	55653.26
623.01	55285.79
623.16	55578.36
623.32	55269.41
623.47	55356.01
623.62	55407.50
623.77	55407.50
623.92	55409.84
624.07	55407.50
624.23	55189.83
624.38	55463.67
624.53	55215.58
624.68	55477.72
624.83	55154.72
624.98	55489.42
625.13	55337.29
625.29	55363.03
625.44	55119.62
625.59	55150.04
625.74	54962.80
625.89	55220.26
626.04	55035.36
626.19	55054.08
626.34	54630.44
626.49	55199.19
626.65	55098.55
626.80	54925.35
626.95	55025.99
627.10	55042.38
627.25	54890.24
627.40	54787.26
627.55	54600.02
627.70	54672.57
627.85	54695.98
628.00	54499.37
628.15	54754.49
628.30	54623.42
628.45	54635.13
628.60	54738.11
628.76	54801.30
628.91	54824.71
629.06	54679.60
629.21	54677.25
629.36	54557.89
629.51	54703.00
629.66	54625.76
629.81	54396.39
629.96	54316.81
630.11	54298.09
630.26	54438.52
630.41	54518.10
630.56	54138.93
630.71	54230.21
630.86	54471.29
631.01	54618.74
631.16	54543.84
631.31	54340.22
631.46	54431.50
631.61	54410.43
631.76	54167.02
631.91	54564.91
632.06	54227.87
632.21	54108.50
632.36	54089.78
632.51	54162.34
632.66	54108.50
632.81	54061.69
632.96	54349.58
633.10	53998.50
633.25	54183.40
633.40	53893.18
633.55	54152.97
633.70	54040.63
633.85	53834.66
634.00	53975.09
634.15	53923.60
634.30	53715.29
634.45	53696.57
634.60	54080.42
634.75	53923.60
634.90	53708.27
635.05	53979.78
635.19	53780.83
635.34	53970.41
635.49	53839.34
635.64	53984.46
635.79	53794.87
635.94	53591.25
636.09	53916.58
636.24	53455.50
636.39	53329.11
636.53	53825.30
636.68	53563.16
636.83	53806.58
636.98	53609.97
637.13	53553.80
637.28	53935.30
637.43	53551.46
637.57	53560.82
637.72	53502.31
637.87	53570.18
638.02	53251.87
638.17	53368.90
638.32	53118.46
638.46	53506.99
638.61	53017.82
638.76	52931.22
638.91	53071.65
639.06	53027.18
639.20	53305.70
639.35	53228.46
639.50	53092.71
639.65	53354.85
639.80	53331.45
639.94	52961.64
640.09	53193.36
640.24	53324.43
640.39	53116.12
640.54	52842.27
640.68	52844.62
640.83	52891.43
640.98	52699.50
641.13	52378.85
641.27	52956.96
641.42	52804.83
641.57	52807.17
641.72	52900.79
641.86	52776.74
642.01	52917.17
642.16	52779.08
642.31	52561.41
642.45	52921.85
642.60	52346.08
642.75	52350.76
642.90	52743.97
643.04	52303.95
643.19	52287.57
643.34	52530.98
643.48	52692.48
643.63	52858.66
643.78	52540.35
643.93	52858.66
644.07	52708.86
644.22	52591.84
644.37	52378.85
644.51	52685.46
644.66	52413.96
644.81	52193.95
644.95	52264.16
645.10	51966.91
645.25	52432.68
645.39	51917.76
645.54	52245.44
645.69	52294.59
645.83	52636.31
645.98	52392.89
646.13	52456.09
646.27	51948.19
646.42	52009.04
646.57	52289.91
646.71	52044.15
646.86	52067.56
647.00	51915.42
647.15	51702.43
647.30	51765.63
647.44	51679.03
647.59	51810.10
647.74	51924.78
647.88	51793.71
648.03	52053.51
648.17	52109.69
648.32	51969.26
648.47	52184.58
648.61	51847.55
648.76	51758.61
648.90	51648.60
649.05	51821.80
649.20	51877.97
649.34	51639.24
649.49	51459.02
649.63	51515.19
649.78	51725.84
649.92	51269.43
650.07	51966.91
650.21	51826.48
650.36	51585.41
650.51	51554.98
650.65	51913.08
650.80	51723.50
650.94	51601.79
651.09	51332.63
651.23	51346.67
651.38	51789.03
651.52	51112.62
651.67	51320.93
651.81	51014.32
651.96	51253.05
652.10	51508.17
652.25	51161.77
652.39	51559.66
652.54	51456.68
652.68	51416.89
652.83	51049.42
652.97	51473.06
653.12	51103.26
653.26	51278.80
653.41	51222.62
653.55	50981.55
653.70	50869.20
653.84	50759.20
653.99	51030.70
654.13	50944.10
654.27	50862.18
654.42	50972.19
654.56	50686.64
654.71	51114.96
654.85	50794.31
655.00	50946.44
655.14	50967.51
655.29	50953.46
655.43	50916.01
655.57	50710.05
655.72	50541.53
655.86	50698.34
656.01	50546.21
656.15	50342.58
656.30	50672.60
656.44	50583.66
656.58	50110.87
656.73	50520.46
656.87	50593.02
657.01	50464.29
657.16	50464.29
657.30	50370.67
657.45	50721.75
657.59	50660.90
657.73	50291.09
657.88	50089.80
658.02	50169.38
658.16	50181.09
658.31	50094.49
658.45	49944.69
658.60	49771.49
658.74	49853.41
658.88	49982.14
659.03	50211.51
659.17	49869.79
659.31	49975.12
659.46	49869.79
659.60	50253.64
659.74	49832.35
659.89	49820.64
660.03	49893.20
660.17	50382.37
660.32	49429.77
660.46	49499.99
660.60	49570.21
660.74	49748.09
660.89	49565.52
661.03	49106.78
661.17	49237.85
661.32	49186.36
661.46	49195.72
661.60	48882.09
661.74	49104.44
661.89	49333.81
662.03	49027.20
662.17	49160.61
662.31	48949.96
662.46	48982.73
662.60	48989.75
662.74	48821.23
662.88	48540.37
663.03	48488.88
663.17	48413.98
663.31	48245.46
663.45	48039.50
663.60	48451.43
663.74	48004.39
663.88	48170.57
664.02	47995.03
664.17	48533.35
664.31	48243.12
664.45	48395.26
664.59	48083.97
664.73	48027.79
664.88	47959.92
665.02	47241.37
665.16	47192.22
665.30	47985.66
665.44	47580.75
665.59	47004.98
665.73	47545.64
665.87	47220.31
666.01	47224.99
666.15	47555.00
666.29	47566.71
666.44	47400.53
666.58	47613.52
666.72	47524.58
666.86	47531.60
667.00	47559.69
667.14	47522.24
667.28	47206.26
667.43	47269.46
667.57	47178.18
667.71	46700.71
667.85	46564.96
667.99	46480.70
668.13	46387.08
668.27	46349.63
668.41	46773.27
668.56	46387.08
668.70	46810.71
668.84	46363.67
668.98	46335.59
669.12	46277.07
669.26	46452.61
669.40	46527.51
669.54	46164.73
669.68	45757.47
669.82	45797.26
669.96	45790.24
670.10	45720.02
670.25	45705.98
670.39	45516.40
670.53	45289.37
670.67	45242.56
670.81	45752.79
670.95	45694.28
671.09	45354.90
671.23	45656.83
671.37	44999.14
671.51	45247.24
671.65	45516.40
671.79	45020.20
671.93	45144.25
672.07	44870.41
672.21	44849.35
672.35	44615.29
672.49	44376.56
672.63	44634.02
672.77	44243.15
672.91	44006.75
673.05	44444.43
673.19	43840.57
673.33	44502.95
673.47	44275.91
673.61	44732.32
673.75	43573.75
673.89	43952.92
674.03	43927.17
674.17	43681.42
674.31	43976.33
674.45	43641.63
674.59	43697.80
674.73	43564.39
674.87	43196.93
675.01	43049.47
675.15	43016.71
675.29	42909.04
675.43	42866.91
675.56	43054.15
675.70	43147.78
675.84	43173.52
675.98	41734.09
676.12	42660.94
676.26	42593.07
676.40	42604.77
676.54	42712.44
676.68	41907.29
676.82	41757.50
676.96	41549.19
677.10	41680.26
677.23	41214.49
677.37	41567.91
677.51	41144.28
677.65	41326.84
677.79	41097.47
677.93	40910.22
678.07	40856.39
678.21	40982.78
678.34	40774.47
678.48	40746.39
678.62	40601.27
678.76	40275.94
678.90	40463.18
679.04	40189.34
679.18	40282.96
679.31	39791.45
679.45	39194.61
679.59	39632.29
679.73	39367.81
679.87	38895.02
680.00	39206.31
680.14	39110.35
680.28	38918.43
680.42	39051.84
680.56	39068.22
680.70	39215.68
680.83	38649.27
680.97	38850.55
681.11	39133.76
681.25	38501.81
681.39	38609.48
681.52	38677.35
681.66	38251.38
681.80	37851.14
681.94	37677.94
682.07	37514.11
682.21	37380.70
682.35	37663.90
682.49	36877.48
682.62	37153.66
682.76	37357.29
682.90	37137.28
683.04	37277.71
683.17	36837.69
683.31	37001.53
683.45	36921.95
683.59	36442.14
683.72	36423.42
683.86	36149.57
684.00	36144.89
684.13	35950.63
684.27	35515.29
684.41	35246.13
684.55	35592.53
684.68	35690.83
684.82	35101.01
684.96	35161.87
685.09	35201.66
685.23	34932.50
685.37	35119.74
685.50	35028.46
685.64	34843.56
685.78	34782.70
685.91	34789.72
686.05	34621.20
686.19	34345.02
686.32	34462.05
686.46	34284.17
686.60	33984.58
686.73	33998.62
686.87	33710.74
687.01	33809.04
687.14	33043.68
687.28	33235.61
687.42	33109.22
687.55	32800.27
687.69	33289.44
687.82	33205.18
687.96	33013.26
688.10	32826.01
688.23	33104.54
688.37	33137.30
688.50	32657.49
688.64	32652.81
688.78	32341.52
688.91	32051.30
689.05	31688.51
689.18	31777.45
689.32	31409.99
689.46	31639.36
689.59	31608.93
689.73	31414.67
689.86	31730.64
690.00	31072.95
690.13	31531.70
690.27	30883.37
690.41	31129.12
690.54	31079.97
690.68	31129.12
690.81	31302.32
690.95	30749.96
691.08	30679.74
691.22	30377.81
691.35	30209.29
691.49	30164.82
691.62	29942.47
691.76	29638.20
691.89	29600.76
692.03	29898.00
692.16	29067.11
692.30	29092.86
692.43	28753.48
692.57	29034.35
692.70	29230.95
692.84	28837.74
692.97	28664.54
693.11	29252.02
693.24	29064.77
693.38	28828.38
693.51	28725.39
693.65	28837.74
693.78	28931.36
693.92	28631.77
694.05	28460.91
694.19	28191.75
694.32	27789.18
694.45	27789.18
694.59	27770.46
694.72	27412.35
694.86	27508.32
694.99	27133.83
695.13	27213.41
695.26	26728.92
695.39	26792.11
695.53	26792.11
695.66	27040.21
695.80	27152.55
695.93	26581.46
696.07	26513.59
696.20	26630.62
696.33	26544.02
696.47	26068.89
696.60	25956.54
696.73	26089.95
696.87	25862.92
697.00	25891.01
697.14	25542.27
697.27	25139.69
697.40	25247.36
697.54	24762.87
697.67	24936.07
697.80	24680.95
697.94	24840.11
698.07	24636.48
698.21	24388.38
698.34	24858.83
698.47	24636.48
698.61	24154.33
698.74	24474.98
698.87	24683.29
699.01	24451.58
699.14	24034.96
699.27	23964.75
699.40	23777.50
699.54	23772.82
699.67	23190.03
699.80	23393.65
699.94	22986.40
700.07	23281.31
700.20	22794.48
700.34	22958.31
700.47	22663.41
700.60	22682.13
700.73	22705.54
700.87	22750.01
701.00	22970.02
701.13	22691.49
701.26	22752.35
701.40	22450.42
701.53	22382.54
701.66	22518.29
701.79	22207.00
701.93	22015.08
702.06	21874.65
702.19	21563.36
702.32	21568.04
702.46	21507.18
702.59	21355.05
702.72	20849.49
702.85	21268.45
702.99	21256.75
703.12	21233.34
703.25	20723.10
703.38	20802.68
703.51	20748.85
703.65	20695.02
703.78	20767.57
703.91	20271.38
704.04	20683.31
704.17	20294.79
704.31	20472.67
704.44	20304.15
704.57	20409.47
704.70	20161.37
704.83	19744.76
704.96	19555.18
705.10	19660.50
705.23	19171.33
>>>>>End Processed Spectral Data<<<<<
