SpectraSuite Data File
++++++++++++++++++++++++++++++++++++
Date: Fri Oct 18 13:55:25 GMT-05:00 2013
User: bianchi
Dark Spectrum Present: No
Reference Spectrum Present: No
Number of Sampled Component Spectra: 1
Spectrometers: USB2+H05261
Integration Time (usec): 100000 (USB2+H05261)
Spectra Averaged: 1 (USB2+H05261)
Boxcar Smoothing: 0 (USB2+H05261)
Correct for Electrical Dark: No (USB2+H05261)
Strobe/Lamp Enabled: No (USB2+H05261)
Correct for Detector Non-linearity: No (USB2+H05261)
Correct for Stray Light: No (USB2+H05261)
Number of Pixels in Processed Spectrum: 2048
>>>>>Begin Processed Spectral Data<<<<<
365.73	0.00
365.92	0.00
366.12	0.00
366.32	0.00
366.52	0.00
366.72	0.00
366.91	0.00
367.11	0.00
367.31	0.00
367.51	0.00
367.70	0.00
367.90	0.00
368.10	0.00
368.30	0.00
368.49	0.00
368.69	0.00
368.89	0.00
369.09	0.00
369.28	0.00
369.48	0.00
369.68	0.00
369.87	0.00
370.07	0.00
370.27	0.00
370.47	0.00
370.66	292.57
370.86	334.70
371.06	330.02
371.25	423.64
371.45	344.06
371.65	334.70
371.84	283.20
372.04	290.23
372.24	442.36
372.44	322.99
372.63	341.72
372.83	517.26
373.03	348.74
373.22	372.15
373.42	365.12
373.62	395.55
373.81	437.68
374.01	451.72
374.21	489.17
374.40	423.64
374.60	493.85
374.79	435.34
374.99	484.49
375.19	503.22
375.38	557.05
375.58	486.83
375.78	538.32
375.97	514.92
376.17	561.73
376.37	601.52
376.56	454.06
376.76	496.19
376.95	524.28
377.15	491.51
377.35	543.00
377.54	599.18
377.74	557.05
377.93	643.65
378.13	505.56
378.33	627.26
378.52	589.82
378.72	683.44
378.91	627.26
379.11	559.39
379.31	575.77
379.50	594.50
379.70	671.73
379.89	617.90
380.09	571.09
380.28	505.56
380.48	641.31
380.68	559.39
380.87	716.20
381.07	681.10
381.26	674.07
381.46	650.67
381.65	615.56
381.85	636.63
382.04	683.44
382.24	716.20
382.43	678.76
382.63	669.39
382.83	781.74
383.02	798.12
383.22	812.17
383.41	664.71
383.61	821.53
383.80	786.42
384.00	725.57
384.19	706.84
384.39	814.51
384.58	800.46
384.78	840.25
384.97	781.74
385.17	849.61
385.36	795.78
385.56	805.14
385.75	837.91
385.95	683.44
386.14	849.61
386.34	807.48
386.53	744.29
386.72	821.53
386.92	842.59
387.11	851.96
387.31	847.27
387.50	889.40
387.70	861.32
387.89	875.36
388.09	854.30
388.28	896.43
388.48	880.04
388.67	847.27
388.86	1001.75
389.06	924.51
389.25	905.79
389.45	933.87
389.64	917.49
389.84	952.60
390.03	1060.26
390.22	926.85
390.42	926.85
390.61	964.30
390.81	908.13
391.00	1048.56
391.19	1100.05
391.39	1097.71
391.58	1027.50
391.78	1025.15
391.97	1153.88
392.16	1074.31
392.36	1069.62
392.55	1062.60
392.75	1100.05
392.94	1146.86
393.13	1123.46
393.33	1104.73
393.52	1158.57
393.71	1163.25
393.91	1249.85
394.10	1214.74
394.29	1125.80
394.49	1273.25
394.68	1301.34
394.88	1268.57
395.07	1249.85
395.26	1247.51
395.46	1207.72
395.65	1315.38
395.84	1287.29
396.04	1334.11
396.23	1413.68
396.42	1355.17
396.62	1338.79
396.81	1373.89
397.00	1284.95
397.19	1238.14
397.39	1359.85
397.58	1416.02
397.77	1434.75
397.97	1526.03
398.16	1507.30
398.35	1511.99
398.55	1401.98
398.74	1479.22
398.93	1521.35
399.12	1455.81
399.32	1444.11
399.51	1476.88
399.70	1610.29
399.90	1596.25
400.09	1514.33
400.28	1561.14
400.47	1647.74
400.67	1743.70
400.86	1636.03
401.05	1818.60
401.24	1685.19
401.44	1661.78
401.63	1732.00
401.82	1659.44
402.01	1675.82
402.21	1783.49
402.40	1717.95
402.59	1732.00
402.78	1776.47
402.97	1755.40
403.17	1792.85
403.36	1820.94
403.55	1849.02
403.74	1837.32
403.93	1874.77
404.13	2033.93
404.32	1947.33
404.51	1954.35
404.70	2069.03
404.89	1886.47
405.09	2134.57
405.28	2054.99
405.47	2031.58
405.66	2127.55
405.85	2143.93
406.05	2050.31
406.24	2073.71
406.43	2165.00
406.62	2195.42
406.81	2277.34
407.00	2256.28
407.20	2174.36
407.39	2260.96
407.58	2354.58
407.77	2253.94
407.96	2408.41
408.15	2314.79
408.34	2225.85
408.54	2293.72
408.73	2249.25
408.92	2370.96
409.11	2450.54
409.30	2466.92
409.49	2429.48
409.68	2530.12
409.87	2445.86
410.07	2492.67
410.26	2537.14
410.45	2649.49
410.64	2530.12
410.83	2640.12
411.02	2649.49
411.21	2738.43
411.40	2647.15
411.59	2703.32
411.78	2710.34
411.98	2555.86
412.17	2925.67
412.36	2850.77
412.55	2888.22
412.74	2850.77
412.93	2937.37
413.12	3000.57
413.31	3164.40
413.50	3009.93
413.69	3206.53
413.88	3108.23
414.07	3049.72
414.26	3274.41
414.45	3251.00
414.64	3290.79
414.83	3330.58
415.02	3283.77
415.22	3391.44
415.41	3445.27
415.60	3433.57
415.79	3555.27
415.98	3449.95
416.17	3517.83
416.36	3487.40
416.55	3695.71
416.74	3536.55
416.93	3557.61
417.12	3576.34
417.31	3726.13
417.50	3705.07
417.69	3850.18
417.88	3803.37
418.07	3911.04
418.26	3859.54
418.45	3838.48
418.64	4084.23
418.83	3857.20
419.02	3896.99
419.21	3934.44
419.39	3964.87
419.58	3999.98
419.77	4035.08
419.96	4210.62
420.15	4049.13
420.34	4271.48
420.53	4124.02
420.72	4194.24
420.91	4191.90
421.10	4320.63
421.29	4351.06
421.48	4182.54
421.67	4222.33
421.86	4173.18
422.05	4372.12
422.24	4367.44
422.43	4594.47
422.61	4320.63
422.80	4526.60
422.99	4573.41
423.18	4484.47
423.37	4561.70
423.56	4409.57
423.75	4542.98
423.94	4407.23
424.13	4231.69
424.32	4393.19
424.50	4730.22
424.69	4512.55
424.88	4713.84
425.07	4472.76
425.26	4358.08
425.45	4479.79
425.64	4566.39
425.83	4554.68
426.01	4561.70
426.20	4365.10
426.39	4587.45
426.58	4519.57
426.77	4727.88
426.96	4517.23
427.15	4580.43
427.33	4788.74
427.52	4585.11
427.71	4978.32
427.90	4819.16
428.09	4840.23
428.28	4781.71
428.46	4873.00
428.65	4816.82
428.84	4917.47
429.03	5100.03
429.22	4917.47
429.40	5097.69
429.59	4987.68
429.78	4849.59
429.97	4816.82
430.16	5041.51
430.34	5020.45
430.53	5186.63
430.72	5078.96
430.91	5193.65
431.10	5156.20
431.28	5359.83
431.47	5294.29
431.66	5385.57
431.85	5207.69
432.03	5486.22
432.22	5544.73
432.41	5558.77
432.60	5521.32
432.79	5537.71
432.97	5408.98
433.16	5554.09
433.35	5558.77
433.54	5668.78
433.72	5706.23
433.91	5652.39
434.10	5652.39
434.28	5811.55
434.47	5783.46
434.66	5863.04
434.85	5820.91
435.03	5954.32
435.22	5799.85
435.41	5994.11
435.59	5806.87
435.78	5703.89
435.97	5846.66
436.16	5891.13
436.34	5963.68
436.53	6157.95
436.72	6118.16
436.90	5959.00
437.09	6162.63
437.28	6054.97
437.46	5963.68
437.65	5996.45
437.84	6197.74
438.02	6340.51
438.21	6244.55
438.40	6015.18
438.58	6382.64
438.77	6560.52
438.96	6296.04
439.14	6569.88
439.33	6443.49
439.52	6478.60
439.70	6560.52
439.89	6644.78
440.08	6876.49
440.26	6832.02
440.45	6862.45
440.63	6930.33
440.82	7091.82
441.01	7159.70
441.19	7276.73
441.38	7164.38
441.57	7112.89
441.75	7166.72
441.94	7169.06
442.12	7339.92
442.31	7515.46
442.50	7438.22
442.68	7424.18
442.87	7606.74
443.05	7335.24
443.24	7662.91
443.43	7548.23
443.61	7613.76
443.80	7723.77
443.98	7595.04
444.17	7328.22
444.35	7569.29
444.54	7627.81
444.73	7719.09
444.91	7847.82
445.10	7517.80
445.28	7613.76
445.47	7698.02
445.65	7831.43
445.84	7791.64
446.02	7742.49
446.21	7735.47
446.39	7918.03
446.58	7815.05
446.77	7871.22
446.95	7798.66
447.14	7859.52
447.32	7997.61
447.51	7808.03
447.69	7838.45
447.88	8004.63
448.06	7995.27
448.25	7857.18
448.43	7847.82
448.62	7721.43
448.80	7735.47
448.99	7988.25
449.17	8030.38
449.36	8091.23
449.54	8128.68
449.73	8194.22
449.91	8231.66
450.10	8198.90
450.28	8386.14
450.46	8250.39
450.65	8236.35
450.83	8252.73
451.02	8461.04
451.20	8388.48
451.39	8564.02
451.57	8533.59
451.76	8437.63
451.94	8585.08
452.13	8655.30
452.31	8545.30
452.49	8327.63
452.68	8545.30
452.86	8461.04
453.05	8734.88
453.23	8688.07
453.42	8615.51
453.60	8601.47
453.78	8730.20
453.97	8697.43
454.15	8627.21
454.34	8655.30
454.52	8842.54
454.70	8861.27
454.89	8858.93
455.07	9137.45
455.26	8868.29
455.44	8950.21
455.62	9142.13
455.81	9090.64
455.99	9362.14
456.17	9118.73
456.36	9034.47
456.54	9472.15
456.73	9469.81
456.91	9547.05
457.09	9376.19
457.28	9914.51
457.46	9507.26
457.64	9713.22
457.83	9525.98
458.01	9605.56
458.19	9930.89
458.38	9612.58
458.56	9900.47
458.74	9877.06
458.93	10076.01
459.11	9874.72
459.29	9799.82
459.48	10003.45
459.66	9694.50
459.84	9942.60
460.03	9989.41
460.21	10106.43
460.39	10204.74
460.57	10218.78
460.76	10284.31
460.94	10382.62
461.12	10284.31
461.31	10235.16
461.49	10345.17
461.67	10223.46
461.85	10483.26
462.04	10366.23
462.22	10637.73
462.40	10834.34
462.59	10534.75
462.77	10693.91
462.95	10689.23
463.13	10761.78
463.32	10766.46
463.50	10750.08
463.68	10743.06
463.86	10878.81
464.05	10939.66
464.23	10595.61
464.41	10799.23
464.59	10743.06
464.78	11087.12
464.96	10743.06
465.14	10871.79
465.32	10991.16
465.50	11424.15
465.69	11157.33
465.87	11089.46
466.05	11023.92
466.23	11290.74
466.41	11154.99
466.60	11365.64
466.78	11028.60
466.96	11026.26
467.14	11215.85
467.32	11311.81
467.51	11477.99
467.69	11307.13
467.87	11571.61
468.05	11269.68
468.23	11021.58
468.41	11351.60
468.60	11564.59
468.78	11758.85
468.96	11435.86
469.14	11754.17
469.32	11936.73
469.50	11548.20
469.69	11845.45
469.87	12100.57
470.05	12056.10
470.23	11939.07
470.41	11873.54
470.59	12297.17
470.77	12084.19
470.95	12255.04
471.14	12365.05
471.32	12070.14
471.50	12182.49
471.68	12336.96
471.86	12374.41
472.04	12498.46
472.22	12840.18
472.40	12463.35
472.58	12578.04
472.77	12776.98
472.95	13036.78
473.13	13341.05
473.31	12833.16
473.49	13205.30
473.67	13050.83
473.85	12896.35
474.03	13504.89
474.21	13511.91
474.39	13586.81
474.57	13547.02
474.75	13612.56
474.93	13968.32
475.12	13500.21
475.30	13778.73
475.48	13811.50
475.66	13778.73
475.84	13984.70
476.02	14094.71
476.20	14054.92
476.38	14326.42
476.56	14647.07
476.74	14670.48
476.92	14478.55
477.10	14541.75
477.28	14745.38
477.46	14698.56
477.64	14829.63
477.82	15145.61
478.00	15557.54
478.18	15365.62
478.36	15683.93
478.54	15955.43
478.72	15637.12
478.90	15903.94
479.08	15833.72
479.26	16252.68
479.44	16109.91
479.62	16397.79
479.80	16517.16
479.98	16273.74
480.16	16718.45
480.34	16718.45
480.52	16910.37
480.70	17032.08
480.88	16840.15
481.06	17238.05
481.24	17305.92
481.41	17610.19
481.59	17771.69
481.77	17914.46
481.95	18178.94
482.13	17944.89
482.31	17886.37
482.49	18391.93
482.67	18464.49
482.85	18637.69
483.03	19094.09
483.21	18984.09
483.39	19168.99
483.57	19194.73
483.74	19126.86
483.92	19779.87
484.10	19042.60
484.28	19974.13
484.46	20102.86
484.64	20470.33
484.82	20046.69
485.00	20119.24
485.18	20779.28
485.35	21120.99
485.53	20865.88
485.71	21308.24
485.89	21792.73
486.07	21170.15
486.25	21511.86
486.43	21680.38
486.61	21696.77
486.78	21986.99
486.96	22199.98
487.14	22527.66
487.32	22586.17
487.50	22544.04
487.68	22710.22
487.85	22916.19
488.03	23924.96
488.21	23531.75
488.39	23372.59
488.57	23871.12
488.75	24217.52
488.92	24362.64
489.10	24629.46
489.28	24584.99
489.46	24655.20
489.64	24727.76
489.81	25380.77
489.99	25263.74
490.17	25329.28
490.35	25766.96
490.53	25940.16
490.70	25891.01
490.88	25914.41
491.06	26223.36
491.24	26214.00
491.41	26178.89
491.59	26969.99
491.77	26649.34
491.95	27105.74
492.13	27346.82
492.30	27491.93
492.48	27618.32
492.66	27611.30
492.84	27702.58
493.01	27812.59
493.19	28053.66
493.37	28371.97
493.54	28453.89
493.72	28809.65
493.90	28725.39
494.08	28968.81
494.25	29160.73
494.43	29212.23
494.61	29589.05
494.79	29507.13
494.96	29785.66
495.14	29883.96
495.32	30120.35
495.49	30410.58
495.67	30253.76
495.85	31033.16
496.02	30969.97
496.20	31337.43
496.38	31019.12
496.55	31290.62
496.73	32144.92
496.91	31613.62
497.09	31714.26
497.26	32039.59
497.44	31690.85
497.62	32198.75
497.79	32568.55
497.97	32519.40
498.14	32573.24
498.32	33067.09
498.50	33071.77
498.67	33357.32
498.85	33268.37
499.03	33593.71
499.20	33619.46
499.38	33572.64
499.56	34050.11
499.73	34022.03
499.91	34178.84
500.08	34319.28
500.26	33692.01
500.44	34176.50
500.61	34272.46
500.79	34625.89
500.97	34728.87
501.14	35056.54
501.32	34857.60
501.49	35173.57
501.67	35253.15
501.84	35754.02
502.02	35243.79
502.20	35784.45
502.37	35459.12
502.55	35768.07
502.72	35861.69
502.90	36273.62
503.07	35959.99
503.25	36580.23
503.43	36093.40
503.60	36463.21
503.78	37034.30
503.95	36814.29
504.13	37242.60
504.30	36947.70
504.48	36985.15
504.65	37043.66
504.83	37317.50
505.01	37497.72
505.18	37523.47
505.36	38251.38
505.53	37408.78
505.71	37736.46
505.88	38038.39
506.06	37469.64
506.23	38036.05
506.41	38415.21
506.58	38375.42
506.76	38473.73
506.93	38792.04
507.11	38466.70
507.28	38459.68
507.46	38983.96
507.63	39210.99
507.81	39133.76
507.98	39374.83
508.16	39215.68
508.33	39187.59
508.50	39321.00
508.68	39517.60
508.85	39959.97
509.03	39707.19
509.20	40278.28
509.38	40062.95
509.55	40437.44
509.73	40334.45
509.90	40332.11
510.08	39999.76
510.25	40226.79
510.42	40652.76
510.60	41144.28
510.77	41366.63
510.95	41579.62
511.12	40374.24
511.30	41113.85
511.47	41586.64
511.64	41390.03
511.82	41673.24
511.99	41907.29
512.17	41895.59
512.34	41961.12
512.51	42131.98
512.69	41993.89
512.86	42026.66
513.04	42431.57
513.21	42607.11
513.38	43166.50
513.56	42569.66
513.73	43007.34
513.90	42843.51
514.08	42590.73
514.25	43166.50
514.43	43445.02
514.60	43643.97
514.77	43498.86
514.95	43700.14
515.12	43248.42
515.29	43344.38
515.47	43599.50
515.64	43540.99
515.81	43730.57
515.99	44053.56
516.16	44186.97
516.33	44208.04
516.51	44268.89
516.68	44135.48
516.85	44399.96
517.03	44521.67
517.20	45298.73
517.37	44692.53
517.54	44772.11
517.72	44884.45
517.89	45174.68
518.06	44800.19
518.24	45167.66
518.41	45118.51
518.58	45272.98
518.75	45411.07
518.93	45776.20
519.10	45397.03
519.27	45680.24
519.45	45425.12
519.62	45755.13
519.79	46241.96
519.96	45584.27
520.14	46028.98
520.31	45708.32
520.48	46230.26
520.65	45982.16
520.83	46681.98
521.00	46134.30
521.17	46490.06
521.34	46436.23
521.52	46637.51
521.69	46628.15
521.86	47166.48
522.03	47405.21
522.20	46979.23
522.38	47278.82
522.55	47480.11
522.72	46944.12
522.89	47524.58
523.07	47494.15
523.24	47311.59
523.41	47929.49
523.58	47224.99
523.75	47437.98
523.92	47765.65
524.10	47711.82
524.27	47826.51
524.44	48081.63
524.61	48203.33
524.78	48296.95
524.96	48196.31
525.13	48315.68
525.30	48392.92
525.47	48680.80
525.64	48250.14
525.81	48308.66
525.98	48280.57
526.16	48823.58
526.33	48924.22
526.50	48865.70
526.67	48596.54
526.84	48781.45
527.01	48823.58
527.18	49233.17
527.36	49284.66
527.53	49116.14
527.70	49659.15
527.87	49701.28
528.04	49315.09
528.21	49453.18
528.38	49265.94
528.55	49331.47
528.72	49436.80
528.89	49720.00
529.07	49565.52
529.24	49563.18
529.41	49909.58
529.58	49724.68
529.75	49790.22
529.92	50040.65
530.09	49947.03
530.26	49932.99
530.43	50312.16
530.60	50012.57
530.77	49914.26
530.94	50115.55
531.11	50106.19
531.28	50251.30
531.46	50468.97
531.63	50824.73
531.80	50450.25
531.97	50822.39
532.14	50850.48
532.31	50459.61
532.48	50607.06
532.65	50635.15
532.82	50752.18
532.99	50663.24
533.16	50569.61
533.33	51091.55
533.50	51203.90
533.67	50965.17
533.84	51210.92
534.01	51278.80
534.18	51068.15
534.35	51239.01
534.52	50993.25
534.69	51452.00
534.86	51646.26
535.03	51393.48
535.20	51269.43
535.37	51742.22
535.54	51576.04
535.71	51028.36
535.88	51564.34
536.05	51400.50
536.22	51856.91
536.38	51866.27
536.55	52233.74
536.72	51552.64
536.89	51889.68
537.06	51725.84
537.23	51929.47
537.40	51767.97
537.57	52055.85
537.74	52086.28
537.91	52364.81
538.08	52231.40
538.25	52271.18
538.42	52317.99
538.59	52493.54
538.75	51906.06
538.92	52308.63
539.09	52406.94
539.26	52458.43
539.43	52662.05
539.60	52439.70
539.77	52601.20
539.94	52453.75
540.11	52554.39
540.28	52657.37
540.44	52835.25
540.61	52435.02
540.78	52715.89
540.95	52584.82
541.12	52624.60
541.29	52718.23
541.46	52896.11
541.62	52547.37
541.79	52893.77
541.96	52626.95
542.13	52828.23
542.30	53326.77
542.47	53396.98
542.63	53340.81
542.80	53057.60
542.97	53464.86
543.14	53584.22
543.31	53361.87
543.48	53240.17
543.64	53523.37
543.81	53790.19
543.98	53258.89
544.15	53544.44
544.32	53939.99
544.48	54087.44
544.65	53860.41
544.82	53645.08
544.99	53427.41
545.16	53649.76
545.32	53588.91
545.49	54075.74
545.66	53944.67
545.83	54026.59
546.00	54216.17
546.16	53982.12
546.33	53631.04
546.50	53811.26
546.67	54108.50
546.83	53633.38
547.00	54192.76
547.17	54216.17
547.34	53958.71
547.50	54038.29
547.67	54433.84
547.84	54410.43
548.00	54499.37
548.17	54546.18
548.34	54209.15
548.51	54492.35
548.67	54508.74
548.84	54452.56
549.01	54705.34
549.18	54258.30
549.34	54375.33
549.51	54513.42
549.68	54506.40
549.84	54356.60
550.01	54562.57
550.18	54396.39
550.34	54534.48
550.51	54822.37
550.68	54908.97
550.84	54478.31
551.01	54625.76
551.18	54520.44
551.34	54571.93
551.51	54721.72
551.68	54773.22
551.84	55049.40
552.01	54948.76
552.18	54857.48
552.34	54714.70
552.51	54808.32
552.68	54827.05
552.84	54808.32
553.01	55215.58
553.18	55000.25
553.34	55182.81
553.51	55105.57
553.67	55018.97
553.84	55458.99
554.01	55243.66
554.17	55173.45
554.34	55241.32
554.51	55114.94
554.67	55599.43
554.84	55222.60
555.00	55388.78
555.17	55145.36
555.33	55292.82
555.50	55311.54
555.67	55564.32
555.83	55257.71
556.00	55466.02
556.16	55440.27
556.33	55341.97
556.50	55430.91
556.66	55571.34
556.83	55154.72
556.99	55866.25
557.16	55877.95
557.32	55590.06
557.49	55852.20
557.65	55634.53
557.82	55653.26
557.98	55330.26
558.15	55498.78
558.32	55828.80
558.48	55606.45
558.65	55861.57
558.81	55655.60
558.98	55629.85
559.14	55730.50
559.31	55613.47
559.47	55676.66
559.64	55796.03
559.80	56002.00
559.97	55800.71
560.13	55615.81
560.30	55700.07
560.46	55826.46
560.63	55753.90
560.79	56041.79
560.96	55789.01
561.12	55969.23
561.29	55927.10
561.45	55987.95
561.61	56079.24
561.78	56102.64
561.94	56104.98
562.11	56222.01
562.27	55990.30
562.44	56046.47
562.60	56009.02
562.77	55955.19
562.93	55924.76
563.10	56100.30
563.26	55948.17
563.42	56296.91
563.59	56144.77
563.75	56144.77
563.92	56205.62
564.08	56093.28
564.24	55983.27
564.41	56046.47
564.57	55920.08
564.74	56303.93
564.90	56294.56
565.07	56238.39
565.23	56217.33
565.39	56175.20
565.56	56332.01
565.72	56039.45
565.88	56144.77
566.05	56081.58
566.21	55880.29
566.38	55990.30
566.54	56320.31
566.70	56582.45
566.87	56549.68
567.03	56236.05
567.19	56582.45
567.36	56156.47
567.52	56299.25
567.68	56303.93
567.85	56177.54
568.01	56376.48
568.17	56397.55
568.34	56357.76
568.50	56172.86
568.66	56420.95
568.83	56523.94
568.99	56245.41
569.15	56439.68
569.32	56151.79
569.48	56236.05
569.64	56339.04
569.81	56367.12
569.97	56360.10
570.13	56519.26
570.30	56334.35
570.46	56542.66
570.62	56552.02
570.78	56231.37
570.95	56189.24
571.11	56472.45
571.27	56207.97
571.43	56369.46
571.60	56488.83
571.76	56460.74
571.92	56280.52
572.09	56683.09
572.25	56729.90
572.41	56605.86
572.57	56430.32
572.74	56685.43
572.90	56392.87
573.06	56633.94
573.22	56198.60
573.38	56535.64
573.55	56479.47
573.71	56779.06
573.87	56760.33
574.03	56603.52
574.20	56697.14
574.36	56549.68
574.52	56692.46
574.68	56437.34
574.84	56353.08
575.01	56516.92
575.17	56669.05
575.33	56474.79
575.49	56355.42
575.65	56779.06
575.82	56903.10
575.98	56530.96
576.14	56736.93
576.30	56484.15
576.46	56348.40
576.62	56453.72
576.79	56411.59
576.95	56575.43
577.11	56493.51
577.27	56580.11
577.43	56587.13
577.59	56343.72
577.75	56706.50
577.92	56397.55
578.08	56324.99
578.24	56427.98
578.40	56694.80
578.56	56711.18
578.72	56640.96
578.88	56860.97
579.04	56736.93
579.21	56821.19
579.37	56694.80
579.53	56783.74
579.69	56498.19
579.85	56706.50
580.01	56612.88
580.17	56575.43
580.33	56552.02
580.49	56535.64
580.65	56718.20
580.82	56793.10
580.98	56811.82
581.14	56781.40
581.30	56793.10
581.46	56505.21
581.62	56788.42
581.78	56559.05
581.94	56502.87
582.10	56411.59
582.26	56554.36
582.42	56535.64
582.58	56589.47
582.74	56528.62
582.90	56996.73
583.06	56999.07
583.22	56727.56
583.38	56680.75
583.54	56493.51
583.70	56324.99
583.86	56769.69
584.02	56477.13
584.18	56748.63
584.34	56683.09
584.50	56762.67
584.66	56655.01
584.82	56385.85
584.98	56715.86
585.14	56699.48
585.30	56301.59
585.46	56673.73
585.62	56594.15
585.78	56676.07
585.94	56676.07
586.10	56584.79
586.26	56591.81
586.42	56875.02
586.58	57013.11
586.74	56750.97
586.90	56652.67
587.06	56554.36
587.22	56657.35
587.38	56467.76
587.54	56622.24
587.70	56781.40
587.86	56788.42
588.02	56875.02
588.18	56821.19
588.34	56992.04
588.49	56736.93
588.65	56594.15
588.81	56612.88
588.97	56856.29
589.13	57015.45
589.29	56814.16
589.45	56919.49
589.61	56851.61
589.77	56907.79
589.93	56949.92
590.08	56860.97
590.24	56973.32
590.40	56982.68
590.56	57029.49
590.72	56830.55
590.88	56706.50
591.04	56811.82
591.20	56931.19
591.35	57024.81
591.51	57237.80
591.67	56973.32
591.83	57223.76
591.99	57064.60
592.15	56877.36
592.31	56940.55
592.46	56692.46
592.62	56685.43
592.78	57003.75
592.94	57010.77
593.10	56825.87
593.26	56949.92
593.41	57216.74
593.57	57230.78
593.73	57347.81
593.89	57006.09
594.05	57090.35
594.20	56769.69
594.36	56952.26
594.52	56963.96
594.68	56790.76
594.84	56896.08
594.99	57017.79
595.15	57174.61
595.31	57240.14
595.47	57219.08
595.62	56938.21
595.78	56877.36
595.94	56975.66
596.10	57052.90
596.25	56961.62
596.41	56629.26
596.57	56392.87
596.73	57106.73
596.88	56924.17
597.04	57174.61
597.20	57111.41
597.36	57200.35
597.51	57052.90
597.67	57038.86
597.83	56987.36
597.99	57251.84
598.14	57052.90
598.30	56839.91
598.46	56835.23
598.61	57284.61
598.77	56963.96
598.93	57097.37
599.09	57132.48
599.24	57057.58
599.40	57221.42
599.56	57085.67
599.71	57069.28
599.87	57322.06
600.03	56959.28
600.18	57006.09
600.34	56912.47
600.50	56952.26
600.65	57069.28
600.81	57261.21
600.97	57130.14
601.12	57212.06
601.28	57230.78
601.44	57148.86
601.59	57120.77
601.75	56945.23
601.91	57008.43
602.06	56809.48
602.22	56779.06
602.37	56905.44
602.53	57130.14
602.69	57205.03
602.84	57006.09
603.00	57080.98
603.16	57162.90
603.31	57073.96
603.47	57057.58
603.62	56774.37
603.78	56996.73
603.94	57078.64
604.09	57106.73
604.25	56711.18
604.40	56996.73
604.56	56952.26
604.71	57340.78
604.87	57102.05
605.03	57165.24
605.18	56900.76
605.34	57013.11
605.49	56568.41
605.65	57022.47
605.80	56708.84
605.96	56966.30
606.12	56882.04
606.27	56963.96
606.43	56989.70
606.58	56907.79
606.74	57059.92
606.89	56917.15
607.05	56985.02
607.20	56835.23
607.36	56877.36
607.51	57045.88
607.67	56772.03
607.82	56762.67
607.98	56982.68
608.13	56633.94
608.29	56741.61
608.44	56711.18
608.60	56905.44
608.75	56898.42
608.91	56860.97
609.06	56868.00
609.22	56851.61
609.37	56577.77
609.53	56676.07
609.68	56704.16
609.84	56631.60
609.99	56673.73
610.15	56650.33
610.30	56809.48
610.46	56519.26
610.61	56692.46
610.76	56554.36
610.92	56566.07
611.07	56860.97
611.23	56781.40
611.38	56493.51
611.54	56547.34
611.69	56624.58
611.84	56594.15
612.00	56547.34
612.15	56348.40
612.31	56676.07
612.46	56395.21
612.62	56479.47
612.77	56409.25
612.92	56765.01
613.08	56750.97
613.23	56528.62
613.39	56765.01
613.54	56346.06
613.69	56388.19
613.85	56147.11
614.00	56442.02
614.15	56409.25
614.31	56353.08
614.46	56495.85
614.62	56381.16
614.77	56746.29
614.92	56502.87
615.08	56547.34
615.23	56537.98
615.38	56299.25
615.54	56147.11
615.69	56273.50
615.84	55812.41
616.00	56154.13
616.15	56060.51
616.30	56254.78
616.46	56168.18
616.61	56250.09
616.76	56467.76
616.92	56168.18
617.07	56278.18
617.22	56104.98
617.37	55896.67
617.53	56072.21
617.68	56030.08
617.83	55842.84
617.99	56135.41
618.14	55838.16
618.29	56004.34
618.45	56044.13
618.60	55941.14
618.75	55774.97
618.90	56198.60
619.06	55943.48
619.21	56062.85
619.36	56048.81
619.51	55964.55
619.67	55561.98
619.82	55547.93
619.97	55756.24
620.12	55704.75
620.28	55721.13
620.43	55625.17
620.58	55826.46
620.73	55599.43
620.89	55838.16
621.04	55934.12
621.19	55901.36
621.34	55515.17
621.49	55700.07
621.65	55695.39
621.80	55744.54
621.95	55545.59
622.10	55852.20
622.25	55463.67
622.41	55615.81
622.56	55393.46
622.71	55781.99
622.86	55463.67
623.01	55281.11
623.16	55561.98
623.32	55501.12
623.47	55393.46
623.62	55346.65
623.77	55313.88
623.92	55243.66
624.07	55442.61
624.23	55281.11
624.38	55253.03
624.53	55199.19
624.68	55592.40
624.83	55393.46
624.98	55402.82
625.13	55346.65
625.29	55374.73
625.44	55210.90
625.59	55262.39
625.74	55025.99
625.89	55168.77
626.04	54986.21
626.19	55049.40
626.34	54955.78
626.49	54862.16
626.65	55021.31
626.80	55182.81
626.95	54869.18
627.10	55037.70
627.25	54969.82
627.40	54918.33
627.55	54862.16
627.70	54581.29
627.85	54719.38
628.00	54525.12
628.15	54766.20
628.30	54504.06
628.45	54848.11
628.60	54864.50
628.76	54562.57
628.91	54583.63
629.06	54777.90
629.21	54890.24
629.36	54705.34
629.51	54731.09
629.66	54553.21
629.81	54557.89
629.96	54131.91
630.11	54195.10
630.26	54412.77
630.41	54693.64
630.56	54302.77
630.71	54288.73
630.86	54286.39
631.01	54494.69
631.16	54447.88
631.31	54527.46
631.46	54312.13
631.61	54536.82
631.76	54298.09
631.91	54333.20
632.06	54059.35
632.21	54279.36
632.36	54190.42
632.51	53703.59
632.66	54040.63
632.81	54169.36
632.96	54520.44
633.10	54141.27
633.25	54035.95
633.40	54174.04
633.55	54057.01
633.70	53794.87
633.85	53595.93
634.00	53928.28
634.15	53956.37
634.30	53963.39
634.45	53799.55
634.60	53834.66
634.75	54169.36
634.90	53862.75
635.05	54000.84
635.19	53794.87
635.34	54117.87
635.49	53895.52
635.64	53860.41
635.79	53738.70
635.94	53628.69
636.09	53455.50
636.24	53429.75
636.39	53731.68
636.53	53535.07
636.68	53759.76
636.83	53502.31
636.98	53785.51
637.13	53619.33
637.28	53902.54
637.43	53750.40
637.57	53574.86
637.72	53277.61
637.87	53457.84
638.02	53392.30
638.17	53483.58
638.32	53256.55
638.46	53471.88
638.61	53282.30
638.76	53249.53
638.91	52877.38
639.06	53237.83
639.20	53176.97
639.35	53109.10
639.50	53148.88
639.65	53317.40
639.80	53425.07
639.94	53155.91
640.09	53350.17
640.24	53076.33
640.39	52914.83
640.54	52919.51
640.68	52865.68
640.83	52786.10
640.98	52767.38
641.13	52584.82
641.27	52994.41
641.42	52858.66
641.57	53179.31
641.72	52919.51
641.86	52931.22
642.01	52697.16
642.16	52861.00
642.31	52748.65
642.45	52708.86
642.60	52598.86
642.75	52243.10
642.90	52460.77
643.04	52743.97
643.19	52472.47
643.34	52470.13
643.48	52533.32
643.63	52736.95
643.78	52697.16
643.93	52945.26
644.07	52643.33
644.22	52598.86
644.37	52718.23
644.51	52687.80
644.66	52645.67
644.81	52289.91
644.95	52598.86
645.10	52381.19
645.25	52259.48
645.39	52243.10
645.54	52378.85
645.69	52285.23
645.83	52285.23
645.98	52580.13
646.13	52367.15
646.27	52334.38
646.42	52072.24
646.57	51971.60
646.71	52233.74
646.86	52198.63
647.00	52121.39
647.15	51964.57
647.30	51910.74
647.44	51985.64
647.59	51910.74
647.74	52083.94
647.88	52004.36
648.03	51863.93
648.17	52193.95
648.32	52172.88
648.47	52222.03
648.61	51910.74
648.76	51655.62
648.90	51688.39
649.05	51718.82
649.20	52020.75
649.34	51821.80
649.49	51405.19
649.63	51669.67
649.78	51501.15
649.92	51786.69
650.07	51847.55
650.21	51793.71
650.36	51704.77
650.51	51620.52
650.65	51744.56
650.80	51833.50
650.94	51702.43
651.09	51613.49
651.23	51573.70
651.38	51498.81
651.52	51358.38
651.67	51353.69
651.81	51096.24
651.96	51409.87
652.10	51414.55
652.25	51456.68
652.39	51121.98
652.54	51606.47
652.68	51231.99
652.83	51173.47
652.97	51416.89
653.12	51435.61
653.26	50738.13
653.41	51260.07
653.55	51026.02
653.70	50911.33
653.84	51178.15
653.99	51117.30
654.13	51068.15
654.27	51110.28
654.42	50965.17
654.56	50908.99
654.71	51019.00
654.85	51047.08
655.00	50738.13
655.14	51175.81
655.29	50897.29
655.43	51430.93
655.57	50948.78
655.72	50721.75
655.86	50911.33
656.01	50593.02
656.15	50246.62
656.30	50274.71
656.44	50344.92
656.58	50363.65
656.73	50361.31
656.87	50225.56
657.01	50443.23
657.16	50796.65
657.30	50490.04
657.45	50504.08
657.59	50534.51
657.73	50384.71
657.88	50319.18
658.02	50457.27
658.16	50026.61
658.31	50239.60
658.45	50087.46
658.60	50014.91
658.74	49867.45
658.88	50103.85
659.03	49717.66
659.17	50412.80
659.31	50031.29
659.46	49668.51
659.60	49867.45
659.74	50052.36
659.89	49811.28
660.03	49940.01
660.17	50227.90
660.32	49626.38
660.46	49853.41
660.60	49509.35
660.74	49296.36
660.89	49155.93
661.03	49184.02
661.17	49364.24
661.32	49017.84
661.46	49102.10
661.60	49017.84
661.74	49434.45
661.89	48664.42
662.03	49291.68
662.17	49134.87
662.31	48973.37
662.46	48992.09
662.60	49146.57
662.74	48914.86
662.88	48648.03
663.03	48259.51
663.17	48383.55
663.31	48617.61
663.45	48332.06
663.60	48240.78
663.74	48140.14
663.88	48072.26
664.02	48170.57
664.17	48816.55
664.31	47922.47
664.45	48481.86
664.59	48100.35
664.73	48580.16
664.88	47751.61
665.02	47639.26
665.16	47821.83
665.30	47578.41
665.44	47791.40
665.59	47423.93
665.73	47489.47
665.87	47433.30
666.01	47753.95
666.15	47569.05
666.29	47728.20
666.44	47817.14
666.58	47194.56
666.72	47351.38
666.86	47344.36
667.00	47433.30
667.14	47180.52
667.28	47278.82
667.43	46911.36
667.57	46803.69
667.71	46719.43
667.85	46951.15
667.99	46763.90
668.13	46447.93
668.27	46763.90
668.41	46398.78
668.56	46340.27
668.70	46579.00
668.84	46347.29
668.98	46401.12
669.12	46089.83
669.26	46003.23
669.40	45904.93
669.54	46230.26
669.68	45872.16
669.82	45989.19
669.96	45869.82
670.10	45420.44
670.25	45595.98
670.39	45392.35
670.53	45504.70
670.67	45195.74
670.81	45354.90
670.95	45942.38
671.09	45567.89
671.23	45741.09
671.37	45453.20
671.51	45158.30
671.65	45556.19
671.79	45008.50
671.93	44952.33
672.07	45289.37
672.21	44512.31
672.35	44729.98
672.49	44605.93
672.63	44575.50
672.77	44453.79
672.91	44432.73
673.05	43463.75
673.19	44219.74
673.33	44369.54
673.47	44280.60
673.61	44423.37
673.75	44357.83
673.89	44250.17
674.03	43955.26
674.17	43758.66
674.31	44327.41
674.45	43910.79
674.59	43157.14
674.73	43271.82
674.87	42857.55
675.01	43222.67
675.15	43269.48
675.29	42724.14
675.43	43253.10
675.56	42967.55
675.70	43213.31
675.84	42808.40
675.98	41886.23
676.12	42649.24
676.26	42632.86
676.40	42286.46
676.54	42068.79
676.68	42440.93
676.82	41373.65
676.96	42108.58
677.10	41289.39
677.23	41464.93
677.37	41174.70
677.51	41296.41
677.65	41104.49
677.79	40657.45
677.93	40865.75
678.07	40655.11
678.21	40547.44
678.34	40549.78
678.48	40378.92
678.62	40715.96
678.76	40184.66
678.90	40135.51
679.04	40346.15
679.18	40013.80
679.31	39737.62
679.45	39466.11
679.59	39627.61
679.73	39688.46
679.87	39370.15
680.00	39332.70
680.14	39220.36
680.28	39384.19
680.42	39007.37
680.56	38946.51
680.70	39028.43
680.83	38934.81
680.97	39157.16
681.11	39056.52
681.25	38653.95
681.39	38693.74
681.52	38796.72
681.66	38532.24
681.80	37979.87
681.94	38213.93
682.07	38103.92
682.21	37390.06
682.35	37563.26
682.49	37486.02
682.62	37535.17
682.76	37120.90
682.90	37038.98
683.04	36362.56
683.17	37127.92
683.31	37251.97
683.45	36755.77
683.59	36748.75
683.72	36938.33
683.86	36126.17
684.00	36147.23
684.13	36062.97
684.27	35812.54
684.41	35695.51
684.55	35632.32
684.68	35803.17
684.82	35618.27
684.96	35503.59
685.09	35246.13
685.23	35285.92
685.37	34998.03
685.50	35117.40
685.64	34932.50
685.78	34670.36
685.91	35014.41
686.05	34595.46
686.19	34658.65
686.32	34235.02
686.46	33811.38
686.60	33572.64
686.73	33961.17
686.87	33638.18
687.01	33699.03
687.14	33460.30
687.28	33373.70
687.42	33448.60
687.55	33118.58
687.69	33102.20
687.82	32884.53
687.96	33055.39
688.10	33020.28
688.23	33060.07
688.37	32936.02
688.50	32584.94
688.64	32390.67
688.78	32348.54
688.91	32168.32
689.05	32123.85
689.18	31751.71
689.32	31304.67
689.46	31456.80
689.59	31782.13
689.73	31828.95
689.86	31201.68
690.00	31400.63
690.13	31173.60
690.27	30972.31
690.41	31089.34
690.54	30998.06
690.68	31033.16
690.81	30696.13
690.95	30731.23
691.08	30684.42
691.22	30326.32
691.35	30103.97
691.49	30228.02
691.62	29738.85
691.76	29888.64
691.89	29582.03
692.03	29575.01
692.16	29418.19
692.30	29551.60
692.43	29228.61
692.57	29050.73
692.70	29261.38
692.84	28957.11
692.97	29106.90
693.11	28837.74
693.24	28795.61
693.38	28828.38
693.51	28556.88
693.65	28694.97
693.78	28606.03
693.92	28540.49
694.05	28456.23
694.19	27667.47
694.32	27929.61
694.45	27850.03
694.59	27812.59
694.72	27681.52
694.86	27449.80
694.99	27094.04
695.13	27215.75
695.26	26771.05
695.39	26780.41
695.53	26925.52
695.66	27164.26
695.80	27138.51
695.93	26668.06
696.07	26757.00
696.20	26583.80
696.33	26029.10
696.47	26141.44
696.60	26185.91
696.73	25982.29
696.87	25933.14
697.00	25528.22
697.14	25326.94
697.27	25186.50
697.40	25507.16
697.54	25249.70
697.67	25029.69
697.80	25158.42
697.94	24659.88
698.07	24929.05
698.21	24730.10
698.34	24709.04
698.47	25179.48
698.61	24280.72
698.74	24526.47
698.87	24528.81
699.01	24259.65
699.14	24245.61
699.27	24187.10
699.40	24194.12
699.54	23496.64
699.67	23346.84
699.80	23293.01
699.94	23119.81
700.07	22979.38
700.20	23204.07
700.34	22855.33
700.47	23000.44
700.60	23166.62
700.73	22684.47
700.87	22941.93
701.00	22719.58
701.13	22799.16
701.26	22553.40
701.40	22656.39
701.53	22314.67
701.66	22246.79
701.79	22415.31
701.93	22050.19
702.06	21947.20
702.19	21455.69
702.32	21521.23
702.46	21343.35
702.59	21348.03
702.72	21041.42
702.85	21273.13
702.99	21413.56
703.12	20964.18
703.25	21076.52
703.38	20650.55
703.51	21270.79
703.65	20922.05
703.78	20486.71
703.91	20451.60
704.04	20573.31
704.17	20318.19
704.31	20170.74
704.44	20311.17
704.57	20325.21
704.70	19857.10
704.83	20163.72
704.96	19747.10
705.10	19728.38
705.23	19403.04
>>>>>End Processed Spectral Data<<<<<
