SpectraSuite Data File
++++++++++++++++++++++++++++++++++++
Date: Fri Oct 18 13:54:49 GMT-05:00 2013
User: bianchi
Dark Spectrum Present: No
Reference Spectrum Present: No
Number of Sampled Component Spectra: 1
Spectrometers: USB2+H05261
Integration Time (usec): 100000 (USB2+H05261)
Spectra Averaged: 1 (USB2+H05261)
Boxcar Smoothing: 0 (USB2+H05261)
Correct for Electrical Dark: No (USB2+H05261)
Strobe/Lamp Enabled: No (USB2+H05261)
Correct for Detector Non-linearity: No (USB2+H05261)
Correct for Stray Light: No (USB2+H05261)
Number of Pixels in Processed Spectrum: 2048
>>>>>Begin Processed Spectral Data<<<<<
365.73	0.00
365.92	0.00
366.12	0.00
366.32	0.00
366.52	0.00
366.72	0.00
366.91	0.00
367.11	0.00
367.31	0.00
367.51	0.00
367.70	0.00
367.90	0.00
368.10	0.00
368.30	0.00
368.49	0.00
368.69	0.00
368.89	0.00
369.09	0.00
369.28	0.00
369.48	0.00
369.68	0.00
369.87	0.00
370.07	0.00
370.27	0.00
370.47	56.17
370.66	248.10
370.86	252.78
371.06	351.08
371.25	372.15
371.45	344.06
371.65	411.93
371.84	344.06
372.04	353.42
372.24	433.00
372.44	449.38
372.63	442.36
372.83	496.19
373.03	414.27
373.22	397.89
373.42	395.55
373.62	496.19
373.81	414.27
374.01	472.79
374.21	458.74
374.40	519.60
374.60	528.96
374.79	484.49
374.99	475.13
375.19	566.41
375.38	552.37
375.58	561.73
375.78	547.69
375.97	557.05
376.17	589.82
376.37	587.47
376.56	526.62
376.76	538.32
376.95	578.11
377.15	594.50
377.35	573.43
377.54	610.88
377.74	519.60
377.93	615.56
378.13	557.05
378.33	599.18
378.52	554.71
378.72	645.99
378.91	697.48
379.11	540.66
379.31	564.07
379.50	585.13
379.70	711.52
379.89	697.48
380.09	653.01
380.28	678.76
380.48	634.29
380.68	645.99
380.87	660.03
381.07	781.74
381.26	711.52
381.46	660.03
381.65	763.01
381.85	688.12
382.04	758.33
382.24	692.80
382.43	688.12
382.63	662.37
382.83	741.95
383.02	730.25
383.22	805.14
383.41	777.06
383.61	760.67
383.80	798.12
384.00	753.65
384.19	795.78
384.39	945.58
384.58	758.33
384.78	898.77
384.97	802.80
385.17	741.95
385.36	739.61
385.56	819.19
385.75	833.23
385.95	919.83
386.14	835.57
386.34	828.55
386.53	821.53
386.72	819.19
386.92	931.53
387.11	826.21
387.31	940.90
387.50	833.23
387.70	924.51
387.89	858.98
388.09	929.19
388.28	940.90
388.48	999.41
388.67	1015.79
388.86	933.87
389.06	947.92
389.25	945.58
389.45	999.41
389.64	959.62
389.84	985.37
390.03	870.68
390.22	1004.09
390.42	992.39
390.61	954.94
390.81	1039.20
391.00	1093.03
391.19	1093.03
391.39	1114.10
391.58	1027.50
391.78	1086.01
391.97	1081.33
392.16	1022.81
392.36	1156.22
392.55	1142.18
392.75	1146.86
392.94	1151.54
393.13	1238.14
393.33	1217.08
393.52	1165.59
393.71	1188.99
393.91	1170.27
394.10	1167.93
394.29	1191.33
394.49	1224.10
394.68	1217.08
394.88	1167.93
395.07	1371.55
395.26	1294.32
395.46	1315.38
395.65	1289.64
395.84	1376.24
396.04	1451.13
396.23	1465.18
396.42	1359.85
396.62	1327.08
396.81	1409.00
397.00	1394.96
397.19	1441.77
397.39	1350.49
397.58	1418.36
397.77	1479.22
397.97	1481.56
398.16	1441.77
398.35	1554.12
398.55	1467.52
398.74	1507.30
398.93	1542.41
399.12	1540.07
399.32	1500.28
399.51	1558.80
399.70	1682.85
399.90	1572.84
400.09	1636.03
400.28	1668.80
400.47	1668.80
400.67	1659.44
400.86	1631.35
401.05	1638.38
401.24	1813.92
401.44	1694.55
401.63	1757.74
401.82	1694.55
402.01	1750.72
402.21	1769.44
402.40	1755.40
402.59	1853.70
402.78	1741.36
402.97	1837.32
403.17	1799.87
403.36	1909.88
403.55	1937.96
403.74	1947.33
403.93	1949.67
404.13	1996.48
404.32	2101.80
404.51	1926.26
404.70	1926.26
404.89	1966.05
405.09	2069.03
405.28	2073.71
405.47	2019.88
405.66	2083.08
405.85	2172.02
406.05	2289.04
406.24	2172.02
406.43	2188.40
406.62	2179.04
406.81	2335.85
407.00	2221.17
407.20	2136.91
407.39	2232.87
407.58	2377.98
407.77	2438.84
407.96	2375.64
408.15	2373.30
408.34	2352.24
408.54	2349.90
408.73	2452.88
408.92	2445.86
409.11	2441.18
409.30	2490.33
409.49	2473.95
409.68	2499.69
409.87	2509.05
410.07	2574.59
410.26	2562.89
410.45	2644.81
410.64	2710.34
410.83	2572.25
411.02	2581.61
411.21	2733.75
411.40	2771.19
411.59	2810.98
411.78	2663.53
411.98	2818.00
412.17	2808.64
412.36	2942.05
412.55	3030.99
412.74	2939.71
412.93	3038.02
413.12	2993.55
413.31	3218.24
413.50	3009.93
413.69	3049.72
413.88	3215.90
414.07	3192.49
414.26	3173.77
414.45	3300.16
414.64	3297.81
414.83	3428.88
415.02	3557.61
415.22	3506.12
415.41	3571.66
415.60	3536.55
415.79	3492.08
415.98	3524.85
416.17	3646.55
416.36	3669.96
416.55	3592.72
416.74	3803.37
416.93	3679.32
417.12	3859.54
417.31	3805.71
417.50	3864.22
417.69	3866.56
417.88	3885.29
418.07	3950.82
418.26	3922.74
418.45	3988.27
418.64	4049.13
418.83	4147.43
419.02	4046.79
419.21	4051.47
419.39	4049.13
419.58	4070.19
419.77	4049.13
419.96	4154.45
420.15	4114.66
420.34	4159.13
420.53	4334.67
420.72	4278.50
420.91	4315.95
421.10	4451.70
421.29	4461.06
421.48	4322.97
421.67	4381.48
421.86	4397.87
422.05	4430.63
422.24	4437.66
422.43	4432.97
422.61	4573.41
422.80	4667.03
422.99	4447.02
423.18	4568.73
423.37	4685.75
423.56	4650.64
423.75	4503.19
423.94	4587.45
424.13	4255.09
424.32	4292.54
424.50	4622.56
424.69	4730.22
424.88	4718.52
425.07	4575.75
425.26	4568.73
425.45	4575.75
425.64	4484.47
425.83	4613.20
426.01	4753.63
426.20	4610.86
426.39	4849.59
426.58	4627.24
426.77	4802.78
426.96	4777.03
427.15	4863.63
427.33	4858.95
427.52	4830.87
427.71	4807.46
427.90	4915.12
428.09	4840.23
428.28	4983.00
428.46	4952.57
428.65	5055.56
428.84	5043.85
429.03	5078.96
429.22	4966.62
429.40	5156.20
429.59	5135.14
429.78	4851.93
429.97	5036.83
430.16	5071.94
430.34	5193.65
430.53	5284.93
430.72	5179.61
430.91	5270.89
431.10	5132.79
431.28	5277.91
431.47	5563.45
431.66	5617.29
431.85	5289.61
432.03	5408.98
432.22	5542.39
432.41	5507.28
432.60	5636.01
432.79	5245.14
432.97	5549.41
433.16	5643.03
433.35	5715.59
433.54	5682.82
433.72	5820.91
433.91	5640.69
434.10	5542.39
434.28	5554.09
434.47	5811.55
434.66	5736.65
434.85	5811.55
435.03	5813.89
435.22	5778.78
435.41	6188.38
435.59	6050.28
435.78	6061.99
435.97	6129.86
436.16	6040.92
436.34	5879.43
436.53	6059.65
436.72	6155.61
436.90	6038.58
437.09	6267.95
437.28	6106.46
437.46	6347.53
437.65	6179.01
437.84	6410.73
438.02	6253.91
438.21	6457.54
438.40	6232.85
438.58	6431.79
438.77	6696.27
438.96	6656.48
439.14	6771.17
439.33	6619.04
439.52	6801.60
439.70	6675.21
439.89	6869.47
440.08	7059.06
440.26	7080.12
440.45	6878.83
440.63	6958.41
440.82	7119.91
441.01	7281.41
441.19	7236.94
441.38	7508.44
441.57	7349.28
441.75	7335.24
441.94	7524.82
442.12	7630.15
442.31	7698.02
442.50	7470.99
442.68	7522.48
442.87	7524.82
443.05	7648.87
443.24	7751.85
443.43	7679.30
443.61	7588.02
443.80	7925.05
443.98	7597.38
444.17	7489.71
444.35	7662.91
444.54	7726.11
444.73	7756.54
444.91	7707.38
445.10	7885.26
445.28	7899.31
445.47	7988.25
445.65	7733.13
445.84	7962.50
446.02	7908.67
446.21	7885.26
446.39	7836.11
446.58	8009.31
446.77	7810.37
446.95	7847.82
447.14	7882.92
447.32	8006.97
447.51	7957.82
447.69	8035.06
447.88	7882.92
448.06	8065.49
448.25	8023.36
448.43	8203.58
448.62	8028.04
448.80	7878.24
448.99	8175.49
449.17	8163.79
449.36	7967.18
449.54	8234.00
449.73	8491.46
449.91	8538.27
450.10	8388.48
450.28	8409.54
450.46	8315.92
450.65	8566.36
450.83	8741.90
451.02	8475.08
451.20	8568.70
451.39	8709.13
451.57	8697.43
451.76	8503.17
451.94	8613.17
452.13	8791.05
452.31	8807.44
452.49	8699.77
452.68	8865.95
452.86	8889.35
453.05	8889.35
453.23	8957.23
453.42	9027.45
453.60	8844.88
453.78	8833.18
453.97	8919.78
454.15	8938.51
454.34	8952.55
454.52	9123.41
454.70	9128.09
454.89	9195.96
455.07	9350.44
455.26	9125.75
455.44	9198.31
455.62	9210.01
455.81	9259.16
455.99	9376.19
456.17	9455.76
456.36	9579.81
456.54	9638.33
456.73	9582.15
456.91	9825.57
457.09	9703.86
457.28	9923.87
457.46	9694.50
457.64	10071.33
457.83	9888.76
458.01	9764.72
458.19	10174.31
458.38	9912.17
458.56	10200.05
458.74	10045.58
458.93	10059.62
459.11	10036.22
459.29	10108.77
459.48	9968.34
459.66	10253.89
459.84	10150.90
460.03	10509.01
460.21	10363.89
460.39	10242.18
460.57	10277.29
460.76	10509.01
460.94	10523.05
461.12	10527.73
461.31	10223.46
461.49	10546.45
461.67	10483.26
461.85	10766.46
462.04	10621.35
462.22	11126.91
462.40	10920.94
462.59	10796.89
462.77	10766.46
462.95	10719.65
463.13	10817.96
463.32	10799.23
463.50	10829.66
463.68	11103.50
463.86	11000.52
464.05	11037.97
464.23	11023.92
464.41	11119.89
464.59	10820.30
464.78	11211.17
464.96	11159.67
465.14	11103.50
465.32	11087.12
465.50	11307.13
465.69	11253.30
465.87	11150.31
466.05	11389.05
466.23	11323.51
466.41	11475.65
466.60	11840.77
466.78	11559.91
466.96	11492.03
467.14	11531.82
467.32	11662.89
467.51	11810.34
467.69	11440.54
467.87	11571.61
468.05	11641.82
468.23	11644.17
468.41	11808.00
468.60	11749.49
468.78	11789.28
468.96	11974.18
469.14	12231.64
469.32	12147.38
469.50	11812.68
469.69	12355.69
469.87	12217.60
470.05	12418.88
470.23	12182.49
470.41	12198.87
470.59	12468.03
470.77	12346.33
470.95	12507.82
471.14	12559.31
471.32	12372.07
471.50	12727.83
471.68	12821.45
471.86	12641.23
472.04	12931.46
472.22	13163.17
472.40	12634.21
472.58	13109.34
472.77	13029.76
472.95	13156.15
473.13	13673.41
473.31	13043.81
473.49	13114.02
473.67	13200.62
473.85	13418.29
474.03	13593.83
474.21	13291.90
474.39	13561.06
474.57	13701.50
474.75	13881.72
474.93	13970.66
475.12	13956.61
475.30	14026.83
475.48	14108.75
475.66	14239.82
475.84	14356.85
476.02	14354.51
476.20	14455.15
476.38	14572.18
476.56	14850.70
476.74	14775.80
476.92	14949.00
477.10	14785.16
477.28	15250.93
477.46	15124.54
477.64	15030.92
477.82	15227.53
478.00	15756.49
478.18	15639.46
478.36	15770.53
478.54	16107.57
478.72	15974.16
478.90	16278.43
479.08	16112.25
479.26	16765.26
479.44	16549.93
479.62	16795.68
479.80	16673.98
479.98	16959.52
480.16	17188.89
480.34	16865.90
480.52	17490.82
480.70	17385.50
480.88	17177.19
481.06	17355.07
481.24	17476.78
481.41	17816.16
481.59	17968.29
481.77	18335.76
481.95	18370.86
482.13	18520.66
482.31	18434.06
482.49	18576.83
482.67	18925.57
482.85	19211.12
483.03	19246.23
483.21	19419.42
483.39	19693.27
483.57	19716.67
483.74	19852.42
483.92	19962.43
484.10	20044.35
484.28	20196.48
484.46	20594.37
484.64	20746.51
484.82	20247.97
485.00	20769.91
485.18	21050.78
485.35	21582.08
485.53	21406.54
485.71	21535.27
485.89	22010.40
486.07	21832.52
486.25	21694.43
486.43	21940.18
486.61	22214.02
486.78	22279.56
486.96	23021.51
487.14	23356.21
487.32	23005.13
487.50	23159.60
487.68	23379.61
487.85	23587.92
488.03	23920.28
488.21	24046.66
488.39	24308.80
488.57	24100.50
488.75	24559.24
488.92	24741.80
489.10	24865.85
489.28	25092.88
489.46	25245.02
489.64	25280.13
489.81	26185.91
489.99	26197.62
490.17	25666.31
490.35	26267.83
490.53	26541.68
490.70	26829.56
490.88	26597.85
491.06	26698.49
491.24	26555.72
491.41	26951.27
491.59	27374.91
491.77	27054.25
491.95	27920.25
492.13	27527.04
492.30	27847.69
492.48	27946.00
492.66	28292.40
492.84	28393.04
493.01	28231.54
493.19	28711.35
493.37	29223.93
493.54	28638.80
493.72	29310.53
493.90	29041.37
494.08	29748.21
494.25	30190.57
494.43	30101.63
494.61	30246.74
494.79	30253.76
494.96	30174.19
495.14	30508.88
495.32	31197.00
495.49	30918.48
495.67	31056.57
495.85	31194.66
496.02	31658.09
496.20	31489.57
496.38	31653.40
496.55	32151.94
496.73	32446.85
496.91	32439.82
497.09	32816.65
497.26	32535.79
497.44	32320.46
497.62	32725.37
497.79	33352.63
497.97	33226.24
498.14	33649.88
498.32	33385.40
498.50	33593.71
498.67	33972.88
498.85	33579.67
499.03	34007.98
499.20	34078.20
499.38	34148.42
499.56	34569.71
499.73	34932.50
499.91	34672.70
500.08	35054.20
500.26	34885.68
500.44	34813.13
500.61	35082.29
500.79	35175.91
500.97	35512.95
501.14	35840.62
501.32	35796.15
501.49	36175.32
501.67	36121.49
501.84	36091.06
502.02	36278.30
502.20	36526.40
502.37	36769.82
502.55	36790.88
502.72	36505.34
502.90	36411.71
503.07	36933.65
503.25	37422.83
503.43	36851.73
503.60	36947.70
503.78	37701.35
503.95	37303.46
504.13	37570.28
504.30	37537.51
504.48	37406.44
504.65	38082.86
504.83	38419.89
505.01	38794.38
505.18	38089.88
505.36	38885.66
505.53	38249.03
505.71	38572.03
505.88	38796.72
506.06	38574.37
506.23	39068.22
506.41	39021.41
506.58	39356.11
506.76	39281.21
506.93	39042.48
507.11	39173.55
507.28	39636.97
507.46	39381.85
507.63	39875.71
507.81	40498.29
507.98	39828.90
508.16	39824.22
508.33	40175.30
508.50	40182.32
508.68	40266.58
508.85	40868.09
509.03	40781.49
509.20	41305.77
509.38	41106.83
509.55	40964.06
509.73	41572.60
509.90	41497.70
510.08	41158.32
510.25	41315.14
510.42	41689.62
510.60	42115.60
510.77	41834.74
510.95	42134.32
511.12	41771.54
511.30	41914.31
511.47	42506.47
511.64	42300.50
511.82	42639.88
511.99	42539.24
512.17	42824.78
512.34	43136.07
512.51	42710.10
512.69	42550.94
512.86	43154.80
513.04	43538.65
513.21	43306.93
513.38	43564.39
513.56	43770.36
513.73	43501.20
513.90	43936.54
514.08	43234.38
514.25	43999.73
514.43	44273.57
514.60	44203.36
514.77	44126.12
514.95	44741.68
515.12	43957.60
515.29	44144.84
515.47	44428.05
515.64	44910.20
515.81	44729.98
515.99	45162.98
516.16	45043.61
516.33	45436.82
516.51	45483.63
516.68	45003.82
516.85	45078.72
517.03	45418.10
517.20	45806.62
517.37	45785.56
517.54	45621.72
517.72	45773.86
517.89	45694.28
518.06	45947.06
518.24	45996.21
518.41	46010.25
518.58	46403.46
518.75	46038.34
518.93	46389.42
519.10	46330.90
519.27	46852.84
519.45	46347.29
519.62	46328.56
519.79	46712.41
519.96	46791.99
520.14	47082.22
520.31	46932.42
520.48	46880.93
520.65	47346.70
520.83	47885.02
521.00	46988.60
521.17	46806.03
521.34	46820.08
521.52	47592.45
521.69	47309.25
521.86	47721.18
522.03	48065.24
522.20	48229.08
522.38	48112.05
522.55	48130.78
522.72	48327.38
522.89	48079.28
523.07	48498.24
523.24	48636.33
523.41	48278.23
523.58	48526.33
523.75	48425.68
523.92	48694.85
524.10	48507.60
524.27	48917.20
524.44	49095.08
524.61	49066.99
524.78	48921.88
524.96	49102.10
525.13	49392.33
525.30	49167.63
525.47	49413.39
525.64	49247.21
525.81	49579.57
525.98	49750.43
526.16	49649.78
526.33	49626.38
526.50	49605.31
526.67	49588.93
526.84	49684.89
527.01	49420.41
527.18	49830.01
527.36	50054.70
527.53	50164.70
527.70	50635.15
527.87	50321.52
528.04	50007.89
528.21	50309.82
528.38	50255.98
528.55	50438.54
528.72	50234.92
528.89	50436.20
529.07	50480.67
529.24	50490.04
529.41	50653.87
529.58	50857.50
529.75	50787.28
529.92	50569.61
530.09	50473.65
530.26	50574.30
530.43	51194.54
530.60	50665.58
530.77	50908.99
530.94	51021.34
531.11	50937.08
531.28	50761.54
531.46	51126.66
531.63	51449.66
531.80	51271.78
531.97	51480.08
532.14	51634.56
532.31	51166.45
532.48	51480.08
532.65	51526.89
532.82	51608.81
532.99	51482.42
533.16	51344.33
533.33	51999.68
533.50	52140.11
533.67	51447.32
533.84	51629.88
534.01	51676.69
534.18	51716.48
534.35	52170.54
534.52	51983.30
534.69	52334.38
534.86	52500.56
535.03	52002.02
535.20	52479.49
535.37	52505.24
535.54	52367.15
535.71	52179.90
535.88	52168.20
536.05	52130.75
536.22	52704.18
536.38	52755.68
536.55	52844.62
536.72	52704.18
536.89	52502.90
537.06	52406.94
537.23	52610.56
537.40	52481.83
537.57	52540.35
537.74	52697.16
537.91	53055.26
538.08	52996.75
538.25	52884.40
538.42	52758.02
538.59	53069.31
538.75	52870.36
538.92	52898.45
539.09	53347.83
539.26	53207.40
539.43	53226.12
539.60	53275.27
539.77	52942.92
539.94	53181.65
540.11	53270.59
540.28	53371.24
540.44	53429.75
540.61	53525.71
540.78	53202.72
540.95	53418.05
541.12	53467.20
541.29	53361.87
541.46	53492.94
541.62	53389.96
541.79	53797.21
541.96	53530.39
542.13	53642.74
542.30	53837.00
542.47	53918.92
542.63	54216.17
542.80	53904.88
542.97	54192.76
543.14	54445.54
543.31	53794.87
543.48	54096.80
543.64	54206.81
543.81	54358.94
543.98	54426.82
544.15	54473.63
544.32	54344.90
544.48	54604.70
544.65	54333.20
544.82	54237.23
544.99	53989.14
545.16	54314.47
545.32	54597.68
545.49	54915.99
545.66	54658.53
545.83	54908.97
546.00	54925.35
546.16	54593.00
546.33	54520.44
546.50	54368.30
546.67	54625.76
546.83	54447.88
547.00	54569.59
547.17	54724.07
547.34	54742.79
547.50	54906.63
547.67	55208.56
547.84	54960.46
548.00	54941.74
548.17	55199.19
548.34	55103.23
548.51	55182.81
548.67	54983.86
548.84	55253.03
549.01	55145.36
549.18	55037.70
549.34	55178.13
549.51	55054.08
549.68	54946.42
549.84	55004.93
550.01	55274.09
550.18	55248.35
550.34	55302.18
550.51	55466.02
550.68	55435.59
550.84	55398.14
551.01	55543.25
551.18	55058.76
551.34	54887.90
551.51	55444.95
551.68	55545.59
551.84	55667.30
552.01	55622.83
552.18	55332.60
552.34	55461.33
552.51	55547.93
552.68	55632.19
552.84	55540.91
553.01	55945.83
553.18	55559.64
553.34	55716.45
553.51	55695.39
553.67	56065.19
553.84	55999.66
554.01	55934.12
554.17	55826.46
554.34	55941.14
554.51	55927.10
554.67	56004.34
554.84	56310.95
555.00	55987.95
555.17	56151.79
555.33	56231.37
555.50	56121.37
555.67	55772.63
555.83	56413.93
556.00	55854.54
556.16	56198.60
556.33	56004.34
556.50	56093.28
556.66	56292.22
556.83	55866.25
556.99	56423.29
557.16	56282.86
557.32	56512.23
557.49	56442.02
557.65	56137.75
557.82	56037.11
557.98	56210.31
558.15	56116.68
558.32	56537.98
558.48	56231.37
558.65	56273.50
558.81	56423.29
558.98	56430.32
559.14	56507.55
559.31	56339.04
559.47	56357.76
559.64	56399.89
559.80	56287.54
559.97	56509.89
560.13	56172.86
560.30	56329.67
560.46	56493.51
560.63	56603.52
560.79	56427.98
560.96	56807.14
561.12	56573.09
561.29	56694.80
561.45	56657.35
561.61	56736.93
561.78	56858.63
561.94	56540.32
562.11	56465.42
562.27	56645.65
562.44	56509.89
562.60	56598.83
562.77	56722.88
562.93	56659.69
563.10	56662.03
563.26	56765.01
563.42	57020.13
563.59	56860.97
563.75	56830.55
563.92	56816.50
564.08	56528.62
564.24	56528.62
564.41	56631.60
564.57	56914.81
564.74	56687.78
564.90	56938.21
565.07	56924.17
565.23	56917.15
565.39	56907.79
565.56	56996.73
565.72	56870.34
565.88	56746.29
566.05	56865.66
566.21	56662.03
566.38	56699.48
566.54	56676.07
566.70	57078.64
566.87	57024.81
567.03	56928.85
567.19	57113.75
567.36	56884.38
567.52	56727.56
567.68	57200.35
567.85	56603.52
568.01	56842.25
568.17	56914.81
568.34	57113.75
568.50	56989.70
568.66	57127.80
568.83	57071.62
568.99	56980.34
569.15	57029.49
569.32	56910.13
569.48	56910.13
569.64	56966.30
569.81	56884.38
569.97	57043.54
570.13	57319.72
570.30	57080.98
570.46	57308.02
570.62	57104.39
570.78	56987.36
570.95	56978.00
571.11	57050.56
571.27	56795.44
571.43	56715.86
571.60	57165.24
571.76	57219.08
571.92	57223.76
572.09	57364.19
572.25	57172.27
572.41	57155.88
572.57	57291.63
572.74	57284.61
572.90	57167.58
573.06	57003.75
573.22	57066.94
573.38	56999.07
573.55	57272.91
573.71	57284.61
573.87	57326.74
574.03	57153.54
574.20	57462.49
574.36	57099.71
574.52	57102.05
574.68	56935.87
574.84	57202.69
575.01	57137.16
575.17	57116.09
575.33	57326.74
575.49	57242.48
575.65	57380.57
575.82	57298.65
575.98	57013.11
576.14	57474.20
576.30	57139.50
576.46	57499.94
576.62	56851.61
576.79	57256.53
576.95	57134.82
577.11	57233.12
577.27	57146.52
577.43	57303.34
577.59	57237.80
577.75	57249.50
577.92	57041.20
578.08	57001.41
578.24	57141.84
578.40	57179.29
578.56	57261.21
578.72	57205.03
578.88	57263.55
579.04	57506.96
579.21	57275.25
579.37	57209.71
579.53	57223.76
579.69	57031.83
579.85	57352.49
580.01	57176.95
580.17	57153.54
580.33	57312.70
580.49	57207.37
580.65	57411.00
580.82	57350.15
580.98	57460.15
581.14	57490.58
581.30	57380.57
581.46	57244.82
581.62	57270.57
581.78	56994.39
581.94	57343.12
582.10	57453.13
582.26	57125.46
582.42	57565.48
582.58	57312.70
582.74	57436.75
582.90	57546.75
583.06	57490.58
583.22	57221.42
583.38	57301.00
583.54	57275.25
583.70	57333.76
583.86	57331.42
584.02	57031.83
584.18	57457.81
584.34	57497.60
584.50	57542.07
584.66	57272.91
584.82	57462.49
584.98	57504.62
585.14	57165.24
585.30	56994.39
585.46	57333.76
585.62	57221.42
585.78	57497.60
585.94	57277.59
586.10	57371.21
586.26	57326.74
586.42	57586.54
586.58	57432.07
586.74	57336.10
586.90	57322.06
587.06	57378.23
587.22	57223.76
587.38	57130.14
587.54	57623.99
587.70	57457.81
587.86	57574.84
588.02	57347.81
588.18	57659.10
588.34	57289.29
588.49	57598.24
588.65	57485.90
588.81	57361.85
588.97	57109.07
589.13	57439.09
589.29	57375.89
589.45	57450.79
589.61	57549.09
589.77	57764.42
589.93	57741.02
590.08	57677.82
590.24	57434.41
590.40	57567.82
590.56	57528.03
590.72	57441.43
590.88	57499.94
591.04	57741.02
591.20	57528.03
591.35	57801.87
591.51	57876.77
591.67	57764.42
591.83	57853.36
591.99	57848.68
592.15	57354.83
592.31	57490.58
592.46	57546.75
592.62	57853.36
592.78	57563.14
592.94	57516.32
593.10	57703.57
593.26	57605.26
593.41	57759.74
593.57	57553.77
593.73	57567.82
593.89	57785.49
594.05	57623.99
594.20	57441.43
594.36	57574.84
594.52	57593.56
594.68	57631.01
594.84	57455.47
594.99	57633.35
595.15	57649.74
595.31	57822.93
595.47	57722.29
595.62	57925.92
595.78	57446.11
595.94	57628.67
596.10	57722.29
596.25	57621.65
596.41	57516.32
596.57	57485.90
596.73	57626.33
596.88	57766.76
597.04	57616.97
597.20	57712.93
597.36	57944.64
597.51	57921.24
597.67	57553.77
597.83	57741.02
597.99	57738.68
598.14	57645.05
598.30	57755.06
598.46	57661.44
598.61	57708.25
598.77	57411.00
598.93	57743.36
599.09	57745.70
599.24	58042.95
599.40	57939.96
599.56	57780.81
599.71	57626.33
599.87	57790.17
600.03	57729.31
600.18	57616.97
600.34	57530.37
600.50	57677.82
600.65	57670.80
600.81	57733.99
600.97	57968.05
601.12	57687.18
601.28	57853.36
601.44	57954.00
601.59	57783.15
601.75	57755.06
601.91	57745.70
602.06	57748.04
602.22	57708.25
602.37	57567.82
602.53	57715.27
602.69	57855.70
602.84	57834.64
603.00	57717.61
603.16	57745.70
603.31	57867.40
603.47	57851.02
603.62	57563.14
603.78	57661.44
603.94	57457.81
604.09	57616.97
604.25	57794.85
604.40	57418.02
604.56	57724.63
604.71	58157.63
604.87	57607.61
605.03	57738.68
605.18	57731.65
605.34	57853.36
605.49	57490.58
605.65	57616.97
605.80	57291.63
605.96	57607.61
606.12	57642.71
606.27	57710.59
606.43	57460.15
606.58	57748.04
606.74	57532.71
606.89	57366.53
607.05	57654.42
607.20	57764.42
607.36	57474.20
607.51	57413.34
607.67	57497.60
607.82	57155.88
607.98	57406.32
608.13	57492.92
608.29	57476.54
608.44	57612.29
608.60	57567.82
608.75	57633.35
608.91	57345.47
609.06	57368.87
609.22	57513.98
609.37	57205.03
609.53	57347.81
609.68	57422.70
609.84	57399.30
609.99	57418.02
610.15	57207.37
610.30	57352.49
610.46	57413.34
610.61	57506.96
610.76	57118.43
610.92	57439.09
611.07	57490.58
611.23	57457.81
611.38	57289.29
611.54	57347.81
611.69	57155.88
611.84	56996.73
612.00	57118.43
612.15	57130.14
612.31	57120.77
612.46	57179.29
612.62	57467.17
612.77	57476.54
612.92	57525.69
613.08	57249.50
613.23	57429.72
613.39	57198.01
613.54	57088.01
613.69	57134.82
613.85	56795.44
614.00	57272.91
614.15	57071.62
614.31	56973.32
614.46	57221.42
614.62	56959.28
614.77	57200.35
614.92	57223.76
615.08	57123.11
615.23	57155.88
615.38	57083.33
615.54	56790.76
615.69	56844.59
615.84	56772.03
616.00	56662.03
616.15	57083.33
616.30	56910.13
616.46	56903.10
616.61	57139.50
616.76	56926.51
616.92	56673.73
617.07	57034.17
617.22	56699.48
617.37	56750.97
617.53	56788.42
617.68	56502.87
617.83	56739.27
617.99	56540.32
618.14	56669.05
618.29	56994.39
618.45	56743.95
618.60	56711.18
618.75	56690.12
618.90	56750.97
619.06	56851.61
619.21	56669.05
619.36	56619.90
619.51	56575.43
619.67	56254.78
619.82	56240.73
619.97	56839.91
620.12	56278.18
620.28	56273.50
620.43	56376.48
620.58	56605.86
620.73	56498.19
620.89	56612.88
621.04	56589.47
621.19	56545.00
621.34	56591.81
621.49	56205.62
621.65	56470.11
621.80	56397.55
621.95	55938.80
622.10	56472.45
622.25	56114.34
622.41	56158.81
622.56	56479.47
622.71	56411.59
622.86	56252.44
623.01	56397.55
623.16	56236.05
623.32	56039.45
623.47	56168.18
623.62	56039.45
623.77	55941.14
623.92	56243.07
624.07	56027.74
624.23	56154.13
624.38	56292.22
624.53	55957.53
624.68	56083.92
624.83	56200.94
624.98	56224.35
625.13	55824.12
625.29	55950.51
625.44	56055.83
625.59	55906.04
625.74	55702.41
625.89	55707.09
626.04	55819.44
626.19	55683.69
626.34	55758.58
626.49	55936.46
626.65	55891.99
626.80	55739.86
626.95	55657.94
627.10	55660.28
627.25	55739.86
627.40	55693.05
627.55	55517.51
627.70	55395.80
627.85	55402.82
628.00	55306.86
628.15	55384.10
628.30	55257.71
628.45	55393.46
628.60	55243.66
628.76	55608.79
628.91	55580.70
629.06	55309.20
629.21	55601.77
629.36	55655.60
629.51	55463.67
629.66	55356.01
629.81	55311.54
629.96	55327.92
630.11	55178.13
630.26	55040.04
630.41	55112.59
630.56	55028.34
630.71	55290.48
630.86	55332.60
631.01	55178.13
631.16	55400.48
631.31	54969.82
631.46	54981.52
631.61	55592.40
631.76	55171.11
631.91	55136.00
632.06	55152.38
632.21	54850.45
632.36	55009.61
632.51	54710.02
632.66	54775.56
632.81	54665.55
632.96	55093.87
633.10	54714.70
633.25	54915.99
633.40	55023.65
633.55	54862.16
633.70	54829.39
633.85	54925.35
634.00	54855.14
634.15	54532.14
634.30	54358.94
634.45	54749.81
634.60	54817.69
634.75	54609.38
634.90	54906.63
635.05	54674.91
635.19	54710.02
635.34	55004.93
635.49	54796.62
635.64	54780.24
635.79	54782.58
635.94	54534.48
636.09	54585.97
636.24	54396.39
636.39	54284.04
636.53	54344.90
636.68	54358.94
636.83	54241.92
636.98	54344.90
637.13	54316.81
637.28	54712.36
637.43	54492.35
637.57	54309.79
637.72	54092.12
637.87	54106.16
638.02	54253.62
638.17	54291.07
638.32	54326.17
638.46	54227.87
638.61	54152.97
638.76	54160.00
638.91	53851.05
639.06	53965.73
639.20	54045.31
639.35	54183.40
639.50	54042.97
639.65	54234.89
639.80	54113.19
639.94	54160.00
640.09	54017.22
640.24	54019.56
640.39	53607.63
640.54	53790.19
640.68	53743.38
640.83	53523.37
640.98	53680.19
641.13	53448.47
641.27	53757.42
641.42	53598.27
641.57	53801.89
641.72	53670.82
641.86	53530.39
642.01	53631.04
642.16	53722.32
642.31	53490.60
642.45	53972.75
642.60	53242.51
642.75	53544.44
642.90	53478.90
643.04	53380.60
643.19	53616.99
643.34	53478.90
643.48	53518.69
643.63	53563.16
643.78	53497.62
643.93	53879.13
644.07	53427.41
644.22	53399.32
644.37	53279.96
644.51	53387.62
644.66	53088.03
644.81	53631.04
644.95	53188.67
645.10	53010.79
645.25	53312.72
645.39	53113.78
645.54	53113.78
645.69	53235.48
645.83	53179.31
645.98	52861.00
646.13	53291.66
646.27	53413.37
646.42	53207.40
646.57	53125.48
646.71	53073.99
646.86	52978.03
647.00	52650.35
647.15	52907.81
647.30	52861.00
647.44	52903.13
647.59	52973.34
647.74	52804.83
647.88	52797.80
648.03	53233.14
648.17	52928.87
648.32	52882.06
648.47	53003.77
648.61	52870.36
648.76	53038.88
648.90	52547.37
649.05	52505.24
649.20	52753.33
649.34	52322.68
649.49	52402.25
649.63	52388.21
649.78	52669.08
649.92	52416.30
650.07	52938.24
650.21	52261.82
650.36	52760.36
650.51	52502.90
650.65	52978.03
650.80	52722.91
650.94	52329.70
651.09	52406.94
651.23	52231.40
651.38	52334.38
651.52	51924.78
651.67	52247.78
651.81	52048.83
651.96	52147.14
652.10	52362.46
652.25	52072.24
652.39	52474.81
652.54	52177.56
652.68	52346.08
652.83	52568.43
652.97	52547.37
653.12	51929.47
653.26	51877.97
653.41	51950.53
653.55	52119.05
653.70	52034.79
653.84	51995.00
653.99	51856.91
654.13	51945.85
654.27	51849.89
654.42	51765.63
654.56	51805.42
654.71	52100.32
654.85	52093.30
655.00	52175.22
655.14	51903.72
655.29	51744.56
655.43	51833.50
655.57	51517.53
655.72	51327.95
655.86	51400.50
656.01	51377.10
656.15	51112.62
656.30	51398.16
656.44	51192.20
656.58	51590.09
656.73	51217.94
656.87	51171.13
657.01	51255.39
657.16	51510.51
657.30	51585.41
657.45	51409.87
657.59	51372.42
657.73	51470.72
657.88	51072.83
658.02	51021.34
658.16	50974.53
658.31	51061.13
658.45	51110.28
658.60	50866.86
658.74	51105.60
658.88	50646.85
659.03	50855.16
659.17	50745.15
659.31	51016.66
659.46	50855.16
659.60	50857.50
659.74	50796.65
659.89	50885.59
660.03	50670.26
660.17	50717.07
660.32	50412.80
660.46	50578.98
660.60	50803.67
660.74	50583.66
660.89	50326.20
661.03	50251.30
661.17	50298.11
661.32	50298.11
661.46	50253.64
661.60	50148.32
661.74	50246.62
661.89	50057.04
662.03	50295.77
662.17	49766.81
662.31	49916.61
662.46	50143.64
662.60	50230.24
662.74	49745.75
662.88	49595.95
663.03	49448.50
663.17	49769.15
663.31	49308.07
663.45	49340.83
663.60	49326.79
663.74	49139.55
663.88	49492.97
664.02	49345.51
664.17	49986.82
664.31	49509.35
664.45	49287.00
664.59	49345.51
664.73	49209.76
664.88	49209.76
665.02	48364.83
665.16	48664.42
665.30	48774.42
665.44	48612.93
665.59	48435.05
665.73	48577.82
665.87	48641.01
666.01	48608.25
666.15	48491.22
666.29	48130.78
666.44	48383.55
666.58	48552.07
666.72	48746.34
666.86	48683.14
667.00	48566.12
667.14	48222.06
667.28	48196.31
667.43	48296.95
667.57	48016.09
667.71	47838.21
667.85	47952.90
667.99	47793.74
668.13	47564.37
668.27	47924.81
668.41	47852.25
668.56	47363.08
668.70	47641.60
668.84	47414.57
668.98	47201.58
669.12	47590.11
669.26	47363.08
669.40	46925.40
669.54	47262.44
669.68	46763.90
669.82	47044.77
669.96	46768.58
670.10	46958.17
670.25	46740.50
670.39	46380.06
670.53	46377.72
670.67	46138.98
670.81	46642.20
670.95	46990.94
671.09	46532.19
671.23	46473.68
671.37	46536.87
671.51	46564.96
671.65	46759.22
671.79	46181.11
671.93	45918.97
672.07	46064.08
672.21	46181.11
672.35	45741.09
672.49	45907.27
672.63	45614.70
672.77	45427.46
672.91	45352.56
673.05	45275.32
673.19	45443.84
673.33	44992.12
673.47	45537.46
673.61	45366.60
673.75	45308.09
673.89	45057.65
674.03	45308.09
674.17	44793.17
674.31	44837.64
674.45	44842.32
674.59	44313.36
674.73	44711.25
674.87	44318.04
675.01	44275.91
675.15	43969.30
675.29	44238.47
675.43	44060.58
675.56	44130.80
675.70	44257.19
675.84	44201.02
675.98	42866.91
676.12	44034.84
676.26	43758.66
676.40	43517.58
676.54	43316.29
676.68	43452.05
676.82	42485.40
676.96	42644.56
677.10	42913.72
677.23	42930.11
677.37	42810.74
677.51	42052.41
677.65	42045.38
677.79	41900.27
677.93	41771.54
678.07	41581.96
678.21	41886.23
678.34	41780.90
678.48	41670.90
678.62	41673.24
678.76	41603.02
678.90	41233.22
679.04	41525.78
679.18	41209.81
679.31	40804.90
679.45	40732.34
679.59	40650.42
679.73	40708.94
679.87	40313.39
680.00	40175.30
680.14	40350.84
680.28	40184.66
680.42	39861.66
680.56	40072.31
680.70	40016.14
680.83	39985.71
680.97	40175.30
681.11	40025.50
681.25	39824.22
681.39	39157.16
681.52	38990.98
681.66	39161.84
681.80	38993.32
681.94	38803.74
682.07	38679.69
682.21	38382.45
682.35	38522.88
682.49	38185.84
682.62	38202.22
682.76	38258.40
682.90	38557.99
683.04	37755.18
683.17	37909.66
683.31	37851.14
683.45	38075.84
683.59	37801.99
683.72	37179.41
683.86	37736.46
684.00	37446.23
684.13	37022.59
684.27	36613.00
684.41	36250.22
684.55	36559.17
684.68	36425.76
684.82	36563.85
684.96	36388.31
685.09	36357.88
685.23	36446.82
685.37	36308.73
685.50	36367.24
685.64	35784.45
685.78	35679.13
685.91	35868.71
686.05	35398.26
686.19	35393.58
686.32	35124.42
686.46	34792.06
686.60	34923.13
686.73	34792.06
686.87	34653.97
687.01	34803.77
687.14	34232.68
687.28	34169.48
687.42	34288.85
687.55	34249.06
687.69	33895.64
687.82	33584.35
687.96	33785.63
688.10	33546.90
688.23	34005.64
688.37	34052.45
688.50	34178.84
688.64	33387.74
688.78	33308.16
688.91	32999.21
689.05	33212.20
689.18	32732.39
689.32	32163.64
689.46	32212.79
689.59	32128.53
689.73	32542.81
689.86	32161.30
690.00	31861.71
690.13	32348.54
690.27	31744.69
690.41	32130.87
690.54	31573.83
690.68	31779.79
690.81	31732.98
690.95	31395.95
691.08	31405.31
691.22	31323.39
691.35	30998.06
691.49	31309.35
691.62	31089.34
691.76	30595.48
691.89	30478.46
692.03	30525.27
692.16	30543.99
692.30	30129.72
692.43	29947.15
692.57	29675.65
692.70	29673.31
692.84	29778.64
692.97	29914.39
693.11	29839.49
693.24	29441.60
693.38	29420.53
693.51	29685.01
693.65	29212.23
693.78	29280.10
693.92	29544.58
694.05	29008.60
694.19	28947.75
694.32	28547.51
694.45	28725.39
694.59	28657.52
694.72	28301.76
694.86	28379.00
694.99	27931.95
695.13	27857.06
695.26	27520.02
695.39	27655.77
695.53	27864.08
695.66	27758.75
695.80	28077.07
695.93	27262.56
696.07	27271.92
696.20	27248.52
696.33	27344.48
696.47	27063.61
696.60	26958.29
696.73	26969.99
696.87	26714.87
697.00	26272.51
697.14	25874.62
697.27	25909.73
697.40	25942.50
697.54	25869.94
697.67	25450.99
697.80	25710.78
697.94	25481.41
698.07	25415.88
698.21	25287.15
698.34	25680.36
698.47	25408.86
698.61	25078.84
698.74	25270.76
698.87	25188.85
699.01	25348.00
699.14	25092.88
699.27	24856.49
699.40	24606.05
699.54	24353.27
699.67	24065.39
699.80	23868.78
699.94	23880.49
700.07	24074.75
700.20	24041.98
700.34	23372.59
700.47	23508.34
700.60	23637.07
700.73	23302.37
700.87	23325.78
701.00	23431.10
701.13	23248.54
701.26	23496.64
701.40	23283.65
701.53	23241.52
701.66	23218.11
701.79	23065.98
701.93	22597.87
702.06	22476.16
702.19	22522.98
702.32	22363.82
702.46	22225.73
702.59	22099.34
702.72	21996.35
702.85	21734.21
702.99	21703.79
703.12	21769.32
703.25	21572.72
703.38	21535.27
703.51	21495.48
703.65	21312.92
703.78	21135.04
703.91	21214.62
704.04	21266.11
704.17	20889.28
704.31	21057.80
704.44	20762.89
704.57	20847.15
704.70	20372.02
704.83	20217.55
704.96	20074.77
705.10	20144.99
705.23	20339.26
>>>>>End Processed Spectral Data<<<<<
