SpectraSuite Data File
++++++++++++++++++++++++++++++++++++
Date: Fri Oct 18 13:55:55 GMT-05:00 2013
User: bianchi
Dark Spectrum Present: No
Reference Spectrum Present: No
Number of Sampled Component Spectra: 1
Spectrometers: USB2+H05261
Integration Time (usec): 100000 (USB2+H05261)
Spectra Averaged: 1 (USB2+H05261)
Boxcar Smoothing: 0 (USB2+H05261)
Correct for Electrical Dark: No (USB2+H05261)
Strobe/Lamp Enabled: No (USB2+H05261)
Correct for Detector Non-linearity: No (USB2+H05261)
Correct for Stray Light: No (USB2+H05261)
Number of Pixels in Processed Spectrum: 2048
>>>>>Begin Processed Spectral Data<<<<<
365.73	0.00
365.92	0.00
366.12	0.00
366.32	0.00
366.52	0.00
366.72	0.00
366.91	0.00
367.11	0.00
367.31	0.00
367.51	0.00
367.70	0.00
367.90	0.00
368.10	0.00
368.30	0.00
368.49	0.00
368.69	0.00
368.89	0.00
369.09	0.00
369.28	0.00
369.48	0.00
369.68	0.00
369.87	0.00
370.07	0.00
370.27	0.00
370.47	28.09
370.66	201.29
370.86	238.73
371.06	252.78
371.25	318.31
371.45	283.20
371.65	313.63
371.84	308.95
372.04	330.02
372.24	294.91
372.44	341.72
372.63	390.87
372.83	362.78
373.03	393.21
373.22	325.33
373.42	442.36
373.62	386.19
373.81	390.87
374.01	425.98
374.21	433.00
374.40	414.27
374.60	386.19
374.79	482.15
374.99	491.51
375.19	503.22
375.38	458.74
375.58	470.45
375.78	451.72
375.97	503.22
376.17	519.60
376.37	458.74
376.56	381.51
376.76	535.98
376.95	477.47
377.15	442.36
377.35	491.51
377.54	463.43
377.74	557.05
377.93	566.41
378.13	521.94
378.33	566.41
378.52	463.43
378.72	582.79
378.91	477.47
379.11	484.49
379.31	475.13
379.50	477.47
379.70	543.00
379.89	573.43
380.09	519.60
380.28	493.85
380.48	568.75
380.68	601.52
380.87	610.88
381.07	566.41
381.26	629.60
381.46	585.13
381.65	585.13
381.85	543.00
382.04	585.13
382.24	638.97
382.43	662.37
382.63	603.86
382.83	702.16
383.02	653.01
383.22	683.44
383.41	599.18
383.61	631.94
383.80	697.48
384.00	676.41
384.19	645.99
384.39	688.12
384.58	688.12
384.78	753.65
384.97	641.31
385.17	681.10
385.36	631.94
385.56	725.57
385.75	727.91
385.95	697.48
386.14	788.76
386.34	638.97
386.53	786.42
386.72	741.95
386.92	734.93
387.11	713.86
387.31	765.36
387.50	826.21
387.70	734.93
387.89	730.25
388.09	781.74
388.28	828.55
388.48	877.70
388.67	784.08
388.86	734.93
389.06	842.59
389.25	816.85
389.45	730.25
389.64	877.70
389.84	903.45
390.03	905.79
390.22	849.61
390.42	954.94
390.61	875.36
390.81	823.87
391.00	854.30
391.19	903.45
391.39	938.55
391.58	1046.22
391.78	915.15
391.97	880.04
392.16	945.58
392.36	1020.47
392.55	1039.20
392.75	947.92
392.94	945.58
393.13	1039.20
393.33	1004.09
393.52	1118.78
393.71	1048.56
393.91	1027.50
394.10	1088.35
394.29	1034.52
394.49	1078.99
394.68	1008.77
394.88	1142.18
395.07	1160.91
395.26	1015.79
395.46	1060.26
395.65	1125.80
395.84	1142.18
396.04	1233.46
396.23	1123.46
396.42	1139.84
396.62	1238.14
396.81	1200.69
397.00	1240.48
397.19	1280.27
397.39	1151.54
397.58	1210.06
397.77	1284.95
397.97	1207.72
398.16	1214.74
398.35	1324.74
398.55	1231.12
398.74	1341.13
398.93	1249.85
399.12	1275.59
399.32	1303.68
399.51	1259.21
399.70	1320.06
399.90	1483.90
400.09	1371.55
400.28	1409.00
400.47	1336.45
400.67	1406.66
400.86	1460.49
401.05	1423.05
401.24	1540.07
401.44	1521.35
401.63	1565.82
401.82	1490.92
402.01	1411.34
402.21	1624.33
402.40	1614.97
402.59	1610.29
402.78	1558.80
402.97	1643.06
403.17	1647.74
403.36	1626.67
403.55	1629.01
403.74	1682.85
403.93	1732.00
404.13	1605.61
404.32	1734.34
404.51	1638.38
404.70	1654.76
404.89	1790.51
405.09	1898.17
405.28	1776.47
405.47	1755.40
405.66	1858.39
405.85	1788.17
406.05	1818.60
406.24	1872.43
406.43	1856.04
406.62	1968.39
406.81	1956.69
407.00	1905.20
407.20	1956.69
407.39	2040.95
407.58	1996.48
407.77	2038.61
407.96	2132.23
408.15	2083.08
408.34	2087.76
408.54	2090.10
408.73	2179.04
408.92	2115.84
409.11	2338.20
409.30	2204.78
409.49	2331.17
409.68	2239.89
409.87	2162.66
410.07	2289.04
410.26	2207.13
410.45	2363.94
410.64	2361.60
410.83	2396.71
411.02	2314.79
411.21	2464.58
411.40	2396.71
411.59	2532.46
411.78	2534.80
411.98	2635.44
412.17	2558.21
412.36	2544.16
412.55	2576.93
412.74	2710.34
412.93	2729.06
413.12	2544.16
413.31	2635.44
413.50	2724.38
413.69	2740.77
413.88	2806.30
414.07	2853.11
414.26	2829.71
414.45	2906.95
414.64	2963.12
414.83	2904.60
415.02	2958.44
415.22	3030.99
415.41	3255.69
415.60	3056.74
415.79	3164.40
415.98	3075.46
416.17	3091.85
416.36	3087.17
416.55	3148.02
416.74	3288.45
416.93	3258.03
417.12	3258.03
417.31	3314.20
417.50	3536.55
417.69	3557.61
417.88	3487.40
418.07	3346.97
418.26	3384.41
418.45	3562.30
418.64	3730.81
418.83	3611.45
419.02	3571.66
419.21	3758.90
419.39	3868.91
419.58	3700.39
419.77	3686.34
419.96	3625.49
420.15	3859.54
420.34	3681.66
420.53	3927.42
420.72	3911.04
420.91	3925.08
421.10	4070.19
421.29	3985.93
421.48	3768.26
421.67	3901.67
421.86	3880.61
422.05	4058.49
422.24	4021.04
422.43	3985.93
422.61	4177.86
422.80	4049.13
422.99	4138.07
423.18	4084.23
423.37	4086.58
423.56	4243.39
423.75	4170.83
423.94	4065.51
424.13	3777.62
424.32	3946.14
424.50	4135.73
424.69	4166.15
424.88	4217.65
425.07	4053.81
425.26	3831.46
425.45	4177.86
425.64	4205.94
425.83	4236.37
426.01	4201.26
426.20	4257.43
426.39	4301.90
426.58	4266.80
426.77	4159.13
426.96	4358.08
427.15	4327.65
427.33	4346.37
427.52	4463.40
427.71	4358.08
427.90	4395.53
428.09	4575.75
428.28	4344.03
428.46	4517.23
428.65	4400.21
428.84	4547.66
429.03	4622.56
429.22	4667.03
429.40	4631.92
429.59	4652.98
429.78	4500.85
429.97	4456.38
430.16	4622.56
430.34	4514.89
430.53	4702.14
430.72	4662.35
430.91	4739.58
431.10	4674.05
431.28	4784.06
431.47	4812.14
431.66	4971.30
431.85	4784.06
432.03	5029.81
432.22	4912.78
432.41	5022.79
432.60	5046.20
432.79	4997.04
432.97	5034.49
433.16	5050.88
433.35	5015.77
433.54	5125.77
433.72	5078.96
433.91	5046.20
434.10	5109.39
434.28	5184.29
434.47	5085.98
434.66	5125.77
434.85	5114.07
435.03	5329.40
435.22	5282.59
435.41	5516.64
435.59	5287.27
435.78	5430.04
435.97	5404.30
436.16	5455.79
436.34	5427.70
436.53	5455.79
436.72	5579.84
436.90	5380.89
437.09	5551.75
437.28	5406.64
437.46	5687.50
437.65	5514.30
437.84	5724.95
438.02	5654.73
438.21	5741.33
438.40	5820.91
438.58	5692.18
438.77	5849.00
438.96	5776.44
439.14	5991.77
439.33	6150.93
439.52	6298.38
439.70	6005.81
439.89	6122.84
440.08	6202.42
440.26	6298.38
440.45	6274.98
440.63	6333.49
440.82	6237.53
441.01	6265.61
441.19	6576.91
441.38	6661.16
441.57	6469.24
441.75	6607.33
441.94	6490.31
442.12	6689.25
442.31	6766.49
442.50	6747.76
442.68	6813.30
442.87	6951.39
443.05	6815.64
443.24	6920.96
443.43	6853.09
443.61	6825.00
443.80	6883.52
443.98	6984.16
444.17	6750.10
444.35	6974.80
444.54	7084.80
444.73	7162.04
444.91	6902.24
445.10	7005.22
445.28	7005.22
445.47	6817.98
445.65	7070.76
445.84	7068.42
446.02	7140.97
446.21	7000.54
446.39	7012.24
446.58	7178.42
446.77	7084.80
446.95	6857.77
447.14	7180.76
447.32	7164.38
447.51	7213.53
447.69	7190.13
447.88	7339.92
448.06	7375.03
448.25	7180.76
448.43	7248.64
448.62	7178.42
448.80	7321.20
448.99	7403.11
449.17	7410.14
449.36	7227.57
449.54	7489.71
449.73	7442.90
449.91	7445.24
450.10	7667.60
450.28	7695.68
450.46	7545.89
450.65	7634.83
450.83	7728.45
451.02	7620.78
451.20	7875.90
451.39	7712.07
451.57	7756.54
451.76	7630.15
451.94	7700.36
452.13	7875.90
452.31	7831.43
452.49	7829.09
452.68	7882.92
452.86	8013.99
453.05	7976.55
453.23	8058.46
453.42	7899.31
453.60	7850.16
453.78	7948.46
453.97	7871.22
454.15	8119.32
454.34	8098.25
454.52	8201.24
454.70	8168.47
454.89	8065.49
455.07	8084.21
455.26	8098.25
455.44	8166.13
455.62	8241.03
455.81	8519.55
455.99	8362.73
456.17	8374.44
456.36	8463.38
456.54	8720.84
456.73	8627.21
456.91	8922.12
457.09	8547.64
457.28	8987.66
457.46	8791.05
457.64	8681.05
457.83	8758.28
458.01	8798.07
458.19	9144.47
458.38	8889.35
458.56	9135.11
458.74	8947.87
458.93	8819.14
459.11	9057.87
459.29	8840.20
459.48	9081.28
459.66	9057.87
459.84	9137.45
460.03	9455.76
460.21	9277.88
460.39	9523.64
460.57	9158.52
460.76	9334.06
460.94	9334.06
461.12	9357.46
461.31	9259.16
461.49	9207.67
461.67	9270.86
461.85	9741.31
462.04	9518.96
462.22	10176.65
462.40	9668.75
462.59	9341.08
462.77	9748.33
462.95	9469.81
463.13	9703.86
463.32	9699.18
463.50	9727.27
463.68	9729.61
463.86	9951.96
464.05	9713.22
464.23	9813.87
464.41	10068.98
464.59	9720.24
464.78	10052.60
464.96	10022.17
465.14	9839.61
465.32	10071.33
465.50	10532.41
465.69	10354.53
465.87	10059.62
466.05	10001.11
466.23	9912.17
466.41	10415.38
466.60	10513.69
466.78	10314.74
466.96	9958.98
467.14	10349.85
467.32	10277.29
467.51	10487.94
467.69	10115.80
467.87	10319.42
468.05	10595.61
468.23	10483.26
468.41	10441.13
468.60	10434.11
468.78	10654.12
468.96	10333.47
469.14	10794.55
469.32	10668.16
469.50	10298.36
469.69	10906.90
469.87	10855.40
470.05	11016.90
470.23	11101.16
470.41	10778.17
470.59	10960.73
470.77	10721.99
470.95	10993.50
471.14	11241.59
471.32	10984.13
471.50	11288.40
471.68	11442.88
471.86	11241.59
472.04	11641.82
472.22	11698.00
472.40	11257.98
472.58	11438.20
472.77	11623.10
472.95	11463.94
473.13	12128.66
473.31	11690.98
473.49	11955.46
473.67	11583.31
473.85	12023.33
474.03	11910.99
474.21	12020.99
474.39	12189.51
474.57	12154.40
474.75	12414.20
474.93	12224.62
475.12	12465.69
475.30	12564.00
475.48	12285.47
475.66	12603.78
475.84	12784.01
476.02	12940.82
476.20	12690.38
476.38	13078.91
476.56	13429.99
476.74	13245.09
476.92	13125.72
477.10	13256.79
477.28	13355.10
477.46	13563.40
477.64	13490.85
477.82	13565.74
478.00	14157.90
478.18	14115.77
478.36	14015.13
478.54	14150.88
478.72	14382.59
478.90	14546.43
479.08	14546.43
479.26	14616.65
479.44	14525.36
479.62	14728.99
479.80	14977.09
479.98	14853.04
480.16	15225.18
480.34	15122.20
480.52	15550.52
480.70	15555.20
480.88	15213.48
481.06	15372.64
481.24	15365.62
481.41	15627.76
481.59	16166.08
481.77	16168.42
481.95	16189.49
482.13	16367.37
482.31	16315.87
482.49	16638.87
482.67	16744.19
482.85	16683.34
483.03	17214.64
483.21	17121.02
483.39	17350.39
483.57	17521.25
483.74	17544.66
483.92	17635.94
484.10	17804.46
484.28	18106.38
484.46	18181.28
484.64	18333.42
484.82	18162.56
485.00	18541.72
485.18	18754.71
485.35	19007.49
485.53	18888.12
485.71	19112.81
485.89	19489.64
486.07	19672.20
486.25	19389.00
486.43	19833.70
486.61	19777.53
486.78	19829.02
486.96	19814.98
487.14	20393.09
487.32	20329.89
487.50	20676.29
487.68	20744.17
487.85	20594.37
488.03	21561.02
488.21	21216.96
488.39	21532.93
488.57	21462.71
488.75	21502.50
488.92	22155.51
489.10	22209.34
489.28	22136.79
489.46	22635.32
489.64	22298.28
489.81	22822.56
489.99	22895.12
490.17	23091.73
490.35	23323.44
490.53	23051.94
490.70	23445.15
490.88	23597.28
491.06	23662.82
491.24	23510.68
491.41	23908.57
491.59	24144.97
491.77	24037.30
491.95	24531.15
492.13	24650.52
492.30	24973.52
492.48	24996.92
492.66	24709.04
492.84	25062.46
493.01	25160.76
493.19	25497.80
493.37	25656.95
493.54	25682.70
493.72	25881.64
493.90	25891.01
494.08	26143.78
494.25	26448.05
494.43	26387.20
494.61	26710.19
494.79	26892.76
494.96	27164.26
495.14	26888.07
495.32	27456.82
495.49	27178.30
495.67	27456.82
495.85	27782.16
496.02	28198.77
496.20	27824.29
496.38	27669.81
496.55	27835.99
496.73	28999.24
496.91	28226.86
497.09	29137.33
497.26	28783.91
497.44	28404.74
497.62	29123.29
497.79	29259.04
497.97	29078.82
498.14	29727.14
498.32	30120.35
498.50	29549.26
498.67	30328.66
498.85	29567.99
499.03	30026.73
499.20	30288.87
499.38	30239.72
499.56	30389.52
499.73	30560.37
499.91	31037.84
500.08	31143.17
500.26	30824.86
500.44	30939.54
500.61	30976.99
500.79	31072.95
500.97	31215.72
501.14	31693.19
501.32	31835.97
501.49	31545.74
501.67	31700.22
501.84	31838.31
502.02	32037.25
502.20	32367.27
502.37	32250.24
502.55	32275.99
502.72	32685.58
502.90	32573.24
503.07	32364.93
503.25	32449.19
503.43	32374.29
503.60	33134.96
503.78	32786.22
503.95	33277.74
504.13	33235.61
504.30	33125.60
504.48	33230.93
504.65	33481.36
504.83	33701.37
505.01	34033.73
505.18	33851.17
505.36	34171.82
505.53	33654.56
505.71	34232.68
505.88	34148.42
506.06	33975.22
506.23	34520.56
506.41	34426.94
506.58	34742.91
506.76	34735.89
506.93	34691.42
507.11	35005.05
507.28	34768.66
507.46	35103.35
507.63	35082.29
507.81	35702.53
507.98	35201.66
508.16	35250.81
508.33	35601.89
508.50	35599.55
508.68	35639.34
508.85	36320.43
509.03	35817.22
509.20	35992.76
509.38	36638.75
509.55	36233.83
509.73	36451.50
509.90	36491.29
510.08	36299.37
510.25	36779.18
510.42	37336.23
510.60	37170.05
510.77	36987.49
510.95	37797.31
511.12	37017.91
511.30	37373.67
511.47	37310.48
511.64	37392.40
511.82	37907.32
511.99	37738.80
512.17	38036.05
512.34	37727.10
512.51	38267.76
512.69	38284.14
512.86	38162.43
513.04	38457.34
513.21	38815.44
513.38	38780.34
513.56	38565.01
513.73	38679.69
513.90	38298.19
514.08	39009.71
514.25	38983.96
514.43	39124.40
514.60	39189.93
514.77	39112.69
514.95	39243.76
515.12	38925.45
515.29	39533.99
515.47	39625.27
515.64	40210.40
515.81	40093.38
515.99	40369.56
516.16	40165.93
516.33	39931.88
516.51	39913.16
516.68	39964.65
516.85	40212.74
517.03	40278.28
517.20	40458.50
517.37	40996.82
517.54	40999.16
517.72	40758.09
517.89	40641.06
518.06	40687.87
518.24	41205.13
518.41	41048.32
518.58	41366.63
518.75	41071.72
518.93	41521.10
519.10	41371.31
519.27	41617.07
519.45	41661.54
519.62	41219.17
519.79	41179.39
519.96	41675.58
520.14	42085.17
520.31	41855.80
520.48	42176.45
520.65	42349.65
520.83	42445.62
521.00	41930.70
521.17	41830.05
521.34	42078.15
521.52	42176.45
521.69	42499.45
521.86	43157.14
522.03	42836.48
522.20	42906.70
522.38	42993.30
522.55	42934.79
522.72	43150.12
522.89	42836.48
523.07	43147.78
523.24	43388.85
523.41	43601.84
523.58	42946.49
523.75	43522.26
523.92	43433.32
524.10	43608.86
524.27	43332.68
524.44	43892.07
524.61	44182.29
524.78	43805.47
524.96	44287.62
525.13	44025.48
525.30	44062.93
525.47	44105.06
525.64	44432.73
525.81	44748.70
525.98	44715.93
526.16	44659.76
526.33	44793.17
526.50	45214.47
526.67	44617.63
526.84	44729.98
527.01	44769.77
527.18	45223.83
527.36	45284.68
527.53	45139.57
527.70	45546.82
527.87	45495.33
528.04	44680.83
528.21	45160.64
528.38	45263.62
528.55	45282.34
528.72	45399.37
528.89	45621.72
529.07	45507.04
529.24	45518.74
529.41	45778.54
529.58	45645.13
529.75	45485.97
529.92	45890.88
530.09	45631.08
530.26	46082.81
530.43	46253.67
530.60	45801.94
530.77	46059.40
530.94	46174.09
531.11	46349.63
531.28	46188.13
531.46	46305.16
531.63	46714.75
531.80	46679.64
531.97	46799.01
532.14	46742.84
532.31	46721.77
532.48	46787.31
532.65	46429.21
532.82	46251.33
532.99	47058.81
533.16	46808.37
533.33	46693.69
533.50	47136.05
533.67	47243.71
533.84	46857.52
534.01	46794.33
534.18	47353.72
534.35	47435.64
534.52	47079.88
534.69	47309.25
534.86	47824.17
535.03	47381.80
535.20	47608.84
535.37	47510.53
535.54	47739.91
535.71	47433.30
535.88	47353.72
536.05	47826.51
536.22	47955.24
536.38	48381.21
536.55	48566.12
536.72	48259.51
536.89	47641.60
537.06	47828.85
537.23	48210.35
537.40	48250.14
537.57	48175.25
537.74	48439.73
537.91	48633.99
538.08	48428.02
538.25	47959.92
538.42	48505.26
538.59	48751.02
538.75	48086.31
538.92	48098.01
539.09	48645.69
539.26	48865.70
539.43	48545.05
539.60	48711.23
539.77	49055.29
539.94	48809.53
540.11	48704.21
540.28	48844.64
540.44	48779.10
540.61	48498.24
540.78	49116.14
540.95	49003.80
541.12	49146.57
541.29	49177.00
541.46	49155.93
541.62	48570.80
541.79	49141.89
541.96	48701.87
542.13	49186.36
542.30	49464.88
542.47	49670.85
542.63	49469.56
542.80	49495.31
542.97	50021.93
543.14	49846.39
543.31	49773.83
543.48	49415.73
543.64	50155.34
543.81	50197.47
543.98	49741.06
544.15	50042.99
544.32	50176.40
544.48	50457.27
544.65	49822.98
544.82	49935.33
544.99	49961.08
545.16	49825.32
545.32	50164.70
545.49	50396.42
545.66	50443.23
545.83	50279.39
546.00	50726.43
546.16	50014.91
546.33	50164.70
546.50	50206.83
546.67	50681.96
546.83	49722.34
547.00	50440.89
547.17	50066.40
547.34	50569.61
547.50	50787.28
547.67	50848.14
547.84	50841.12
548.00	50637.49
548.17	50773.24
548.34	50707.71
548.51	50988.57
548.67	50897.29
548.84	51161.77
549.01	51161.77
549.18	50986.23
549.34	50878.57
549.51	50838.78
549.68	50632.81
549.84	50927.72
550.01	51056.45
550.18	50941.76
550.34	51295.18
550.51	51105.60
550.68	51185.18
550.84	50848.14
551.01	51138.36
551.18	50962.82
551.34	51007.29
551.51	51341.99
551.68	51444.98
551.84	51491.79
552.01	51070.49
552.18	51702.43
552.34	51372.42
552.51	51475.40
552.68	51554.98
552.84	51484.76
553.01	51536.26
553.18	51349.01
553.34	51833.50
553.51	51447.32
553.67	51922.44
553.84	51936.49
554.01	51924.78
554.17	51571.36
554.34	51772.65
554.51	51697.75
554.67	51487.10
554.84	52037.13
555.00	51873.29
555.17	51791.37
555.33	51545.62
555.50	51973.94
555.67	52058.20
555.83	51938.83
556.00	51976.28
556.16	52126.07
556.33	51756.27
556.50	51929.47
556.66	52142.45
556.83	52011.38
556.99	52332.04
557.16	52147.14
557.32	52327.36
557.49	52463.11
557.65	52093.30
557.82	51915.42
557.98	52002.02
558.15	52128.41
558.32	52507.58
558.48	52388.21
558.65	52420.98
558.81	52568.43
558.98	52514.60
559.14	52219.69
559.31	52301.61
559.47	52383.53
559.64	52390.55
559.80	52416.30
559.97	52397.57
560.13	52102.67
560.30	52257.14
560.46	52584.82
560.63	52388.21
560.79	52226.71
560.96	52507.58
561.12	52622.26
561.29	52500.56
561.45	52580.13
561.61	52816.53
561.78	52832.91
561.94	52982.71
562.11	52659.71
562.27	52322.68
562.44	52472.47
562.60	52669.08
562.77	52236.08
562.93	52390.55
563.10	52947.60
563.26	52577.79
563.42	52739.29
563.59	52947.60
563.75	52622.26
563.92	52556.73
564.08	52308.63
564.24	52853.98
564.41	52720.57
564.57	52701.84
564.74	52793.12
564.90	52830.57
565.07	52956.96
565.23	52893.77
565.39	52837.59
565.56	52839.93
565.72	52722.91
565.88	52720.57
566.05	52814.19
566.21	52818.87
566.38	52811.85
566.54	52938.24
566.70	52940.58
566.87	52928.87
567.03	52804.83
567.19	53059.94
567.36	52919.51
567.52	52640.99
567.68	53151.23
567.85	52608.22
568.01	53041.22
568.17	52743.97
568.34	53186.33
568.50	53097.39
568.66	52868.02
568.83	52975.69
568.99	52903.13
569.15	53132.50
569.32	52648.01
569.48	52877.38
569.64	53090.37
569.81	53024.84
569.97	53270.59
570.13	53364.21
570.30	53198.04
570.46	53284.64
570.62	53141.86
570.78	52992.07
570.95	52612.90
571.11	53001.43
571.27	52839.93
571.43	52954.62
571.60	53371.24
571.76	53111.44
571.92	53322.08
572.09	53286.98
572.25	53221.44
572.41	52928.87
572.57	52992.07
572.74	53008.45
572.90	53006.11
573.06	53118.46
573.22	52921.85
573.38	53092.71
573.55	52884.40
573.71	53483.58
573.87	53336.13
574.03	53151.23
574.20	53179.31
574.36	53186.33
574.52	53052.92
574.68	52947.60
574.84	53261.23
575.01	53013.13
575.17	53116.12
575.33	53183.99
575.49	53235.48
575.65	53345.49
575.82	53432.09
575.98	53378.26
576.14	53338.47
576.30	53336.13
576.46	53134.84
576.62	52776.74
576.79	53347.83
576.95	53137.18
577.11	53052.92
577.27	53324.43
577.43	53137.18
577.59	52924.19
577.75	53179.31
577.92	53043.56
578.08	52814.19
578.24	53111.44
578.40	53003.77
578.56	53111.44
578.72	53254.21
578.88	53434.43
579.04	53621.67
579.21	53305.70
579.37	53209.74
579.53	53567.84
579.69	53226.12
579.85	53132.50
580.01	53237.83
580.17	53036.54
580.33	53041.22
580.49	53284.64
580.65	53387.62
580.82	53272.93
580.98	53151.23
581.14	53240.17
581.30	53525.71
581.46	52921.85
581.62	53034.20
581.78	53113.78
581.94	53275.27
582.10	53106.76
582.26	53394.64
582.42	53427.41
582.58	53207.40
582.74	53176.97
582.90	53275.27
583.06	53331.45
583.22	52973.34
583.38	53017.82
583.54	53296.34
583.70	53172.29
583.86	53162.93
584.02	53008.45
584.18	53219.10
584.34	53516.35
584.50	53633.38
584.66	53481.24
584.82	53008.45
584.98	53261.23
585.14	53301.02
585.30	53282.30
585.46	53322.08
585.62	53013.13
585.78	53301.02
585.94	52992.07
586.10	53052.92
586.26	53387.62
586.42	53698.91
586.58	53411.02
586.74	53237.83
586.90	52842.27
587.06	53198.04
587.22	53319.74
587.38	53104.41
587.54	53460.18
587.70	53521.03
587.86	53429.75
588.02	53516.35
588.18	53511.67
588.34	53387.62
588.49	53331.45
588.65	53188.67
588.81	53284.64
588.97	53567.84
589.13	53116.12
589.29	53240.17
589.45	53731.68
589.61	53352.51
589.77	53499.97
589.93	53460.18
590.08	53771.47
590.24	53525.71
590.40	53631.04
590.56	53467.20
590.72	53104.41
590.88	53396.98
591.04	53249.53
591.20	53797.21
591.35	53549.12
591.51	53638.06
591.67	53551.46
591.83	53806.58
591.99	53670.82
592.15	53595.93
592.31	53521.03
592.46	53448.47
592.62	53272.93
592.78	53432.09
592.94	53773.81
593.10	53684.87
593.26	53879.13
593.41	53642.74
593.57	53455.50
593.73	53705.93
593.89	53846.36
594.05	53659.12
594.20	53675.51
594.36	53506.99
594.52	53481.24
594.68	53675.51
594.84	53148.88
594.99	53670.82
595.15	53544.44
595.31	53759.76
595.47	54157.66
595.62	53682.53
595.78	53404.00
595.94	53773.81
596.10	53509.33
596.25	53572.52
596.41	53411.02
596.57	53146.54
596.73	53624.01
596.88	53598.27
597.04	53741.04
597.20	53897.86
597.36	53687.21
597.51	53682.53
597.67	53404.00
597.83	53741.04
597.99	53544.44
598.14	53404.00
598.30	53682.53
598.46	53357.19
598.61	53731.68
598.77	53542.10
598.93	53504.65
599.09	53712.95
599.24	53710.61
599.40	53649.76
599.56	53549.12
599.71	53684.87
599.87	53708.27
600.03	53357.19
600.18	53291.66
600.34	53464.86
600.50	53631.04
600.65	53537.41
600.81	53785.51
600.97	53916.58
601.12	53806.58
601.28	53738.70
601.44	53380.60
601.59	53396.98
601.75	53837.00
601.91	53797.21
602.06	53745.72
602.22	53378.26
602.37	53464.86
602.53	53502.31
602.69	53834.66
602.84	53542.10
603.00	53483.58
603.16	53577.20
603.31	53771.47
603.47	53652.10
603.62	53212.08
603.78	53490.60
603.94	53609.97
604.09	53551.46
604.25	53289.32
604.40	53382.94
604.56	53766.79
604.71	54066.38
604.87	53420.39
605.03	53783.17
605.18	53628.69
605.34	53415.71
605.49	53183.99
605.65	53366.55
605.80	53265.91
605.96	53256.55
606.12	53081.01
606.27	53837.00
606.43	53371.24
606.58	53591.25
606.74	53488.26
606.89	53326.77
607.05	53464.86
607.20	53408.68
607.36	53286.98
607.51	53471.88
607.67	53462.52
607.82	53216.76
607.98	53200.38
608.13	53240.17
608.29	53420.39
608.44	53176.97
608.60	53160.59
608.75	53366.55
608.91	53200.38
609.06	53247.19
609.22	53453.15
609.37	52891.43
609.53	53048.24
609.68	53174.63
609.84	52781.42
609.99	53029.52
610.15	53027.18
610.30	53310.38
610.46	52886.74
610.61	53083.35
610.76	53078.67
610.92	52999.09
611.07	52968.66
611.23	52900.79
611.38	53247.19
611.54	52865.68
611.69	52942.92
611.84	52664.39
612.00	52896.11
612.15	52971.00
612.31	53272.93
612.46	52898.45
612.62	53090.37
612.77	52758.02
612.92	52921.85
613.08	52713.55
613.23	53083.35
613.39	52985.05
613.54	52505.24
613.69	52697.16
613.85	52669.08
614.00	52870.36
614.15	52715.89
614.31	52561.41
614.46	52849.30
614.62	52905.47
614.77	52861.00
614.92	52940.58
615.08	52706.52
615.23	52692.48
615.38	52985.05
615.54	52465.45
615.69	52542.69
615.84	52439.70
616.00	52296.93
616.15	52147.14
616.30	52622.26
616.46	52315.65
616.61	52474.81
616.76	52718.23
616.92	52509.92
617.07	52622.26
617.22	52348.42
617.37	52327.36
617.53	52509.92
617.68	52317.99
617.83	52287.57
617.99	52177.56
618.14	52521.62
618.29	52472.47
618.45	51873.29
618.60	52339.06
618.75	51990.32
618.90	52088.62
619.06	52083.94
619.21	52186.92
619.36	52514.60
619.51	51910.74
619.67	51721.16
619.82	51819.46
619.97	51976.28
620.12	52034.79
620.28	51870.95
620.43	51789.03
620.58	51950.53
620.73	51641.58
620.89	52062.88
621.04	51966.91
621.19	51915.42
621.34	51718.82
621.49	51765.63
621.65	51681.37
621.80	51536.26
621.95	51421.57
622.10	51444.98
622.25	51728.18
622.41	51370.08
622.56	51428.59
622.71	51779.67
622.86	51332.63
623.01	51423.91
623.16	51641.58
623.32	51569.02
623.47	51653.28
623.62	51540.94
623.77	51484.76
623.92	51327.95
624.07	51105.60
624.23	51447.32
624.38	51171.13
624.53	51540.94
624.68	51419.23
624.83	51693.07
624.98	51264.75
625.13	51491.79
625.29	51395.82
625.44	51187.52
625.59	51325.61
625.74	51194.54
625.89	51002.61
626.04	51037.72
626.19	50841.12
626.34	50831.75
626.49	50815.37
626.65	50885.59
626.80	51145.39
626.95	50953.46
627.10	51154.75
627.25	51007.29
627.40	50773.24
627.55	50885.59
627.70	50749.84
627.85	50925.38
628.00	50658.56
628.15	50810.69
628.30	50522.80
628.45	50691.32
628.60	50356.63
628.76	50625.79
628.91	50838.78
629.06	50436.20
629.21	50684.30
629.36	50557.91
629.51	50564.93
629.66	50365.99
629.81	50335.56
629.96	50684.30
630.11	50543.87
630.26	50176.40
630.41	50007.89
630.56	50321.52
630.71	50040.65
630.86	50541.53
631.01	50382.37
631.16	50373.01
631.31	50405.78
631.46	50007.89
631.61	50085.12
631.76	50389.39
631.91	50225.56
632.06	50176.40
632.21	49923.63
632.36	49577.23
632.51	49911.92
632.66	50122.57
632.81	49841.71
632.96	49958.73
633.10	50127.25
633.25	50061.72
633.40	50148.32
633.55	50115.55
633.70	49900.22
633.85	49537.44
634.00	49869.79
634.15	49556.16
634.30	49553.82
634.45	49734.04
634.60	49757.45
634.75	49462.54
634.90	49752.77
635.05	49649.78
635.19	49560.84
635.34	50045.33
635.49	49350.20
635.64	49235.51
635.79	49347.86
635.94	49319.77
636.09	49467.22
636.24	49226.15
636.39	49301.04
636.53	49109.12
636.68	48985.07
636.83	49537.44
636.98	49443.82
637.13	49109.12
637.28	48931.24
637.43	49373.60
637.57	49406.37
637.72	48790.81
637.87	48903.15
638.02	48903.15
638.17	48975.71
638.32	48781.45
638.46	48903.15
638.61	48889.11
638.76	48720.59
638.91	48891.45
639.06	48818.89
639.20	48807.19
639.35	48973.37
639.50	48404.62
639.65	49118.48
639.80	49148.91
639.94	48823.58
640.09	49027.20
640.24	48924.22
640.39	48790.81
640.54	48294.61
640.68	48381.21
640.83	48315.68
640.98	48170.57
641.13	48055.88
641.27	48559.09
641.42	48004.39
641.57	48325.04
641.72	48521.65
641.86	48215.04
642.01	48095.67
642.16	48341.42
642.31	47973.96
642.45	48374.19
642.60	48086.31
642.75	48062.90
642.90	47842.89
643.04	48238.44
643.19	47976.30
643.34	47894.38
643.48	48112.05
643.63	48456.11
643.78	48236.10
643.93	48299.30
644.07	48140.14
644.22	48018.43
644.37	47702.46
644.51	47903.74
644.66	48023.11
644.81	47686.07
644.95	47697.78
645.10	47934.17
645.25	47459.04
645.39	47510.53
645.54	47957.58
645.69	47775.02
645.83	48069.92
645.98	47880.34
646.13	48065.24
646.27	47896.72
646.42	47732.89
646.57	47519.90
646.71	47182.86
646.86	46976.89
647.00	47313.93
647.15	47133.71
647.30	47150.09
647.44	47489.47
647.59	47168.82
647.74	47126.69
647.88	47426.28
648.03	47468.40
648.17	47721.18
648.32	47351.38
648.47	47648.63
648.61	47009.66
648.76	47192.22
648.90	47070.51
649.05	47150.09
649.20	46529.85
649.34	46574.32
649.49	46843.48
649.63	46677.30
649.78	46923.06
649.92	46855.18
650.07	47437.98
650.21	46735.82
650.36	47033.07
650.51	47356.06
650.65	47044.77
650.80	47070.51
650.94	46988.60
651.09	46501.76
651.23	46815.40
651.38	46494.74
651.52	46714.75
651.67	46433.89
651.81	46412.82
651.96	46628.15
652.10	46178.77
652.25	46506.44
652.39	46490.06
652.54	46398.78
652.68	46377.72
652.83	46593.04
652.97	46586.02
653.12	46473.68
653.26	46436.23
653.41	46562.62
653.55	45947.06
653.70	46136.64
653.84	46398.78
653.99	46146.00
654.13	46550.91
654.27	45757.47
654.42	46314.52
654.56	45626.40
654.71	45806.62
654.85	46150.68
655.00	46108.55
655.14	45923.65
655.29	45867.48
655.43	46078.13
655.57	45874.50
655.72	45165.32
655.86	45691.94
656.01	45488.31
656.15	45272.98
656.30	45680.24
656.44	45462.57
656.58	45432.14
656.73	45312.77
656.87	45310.43
657.01	45523.42
657.16	45572.57
657.30	45394.69
657.45	45560.87
657.59	45773.86
657.73	45366.60
657.88	45270.64
658.02	45031.91
658.16	44884.45
658.31	44968.71
658.45	45387.67
658.60	44921.90
658.74	44634.02
658.88	44734.66
659.03	44631.68
659.17	44699.55
659.31	44708.91
659.46	44626.99
659.60	44961.69
659.74	45034.25
659.89	44800.19
660.03	44945.31
660.17	44886.79
660.32	44306.34
660.46	44563.80
660.60	44215.06
660.74	44126.12
660.89	44296.98
661.03	44198.68
661.17	43992.71
661.32	43835.89
661.46	43966.96
661.60	43889.73
661.74	44034.84
661.89	43990.37
662.03	43873.34
662.17	43658.01
662.31	43920.15
662.46	43824.19
662.60	43255.44
662.74	44067.61
662.88	43793.76
663.03	43538.65
663.17	43388.85
663.31	42808.40
663.45	43358.42
663.60	43372.47
663.74	42885.64
663.88	43281.19
664.02	43063.52
664.17	43665.03
664.31	42749.88
664.45	43026.07
664.59	43119.69
664.73	42958.19
664.88	43005.00
665.02	41823.03
665.16	42342.63
665.30	42356.67
665.44	42199.86
665.59	42134.32
665.73	42281.78
665.87	42300.50
666.01	42440.93
666.15	42234.97
666.29	42169.43
666.44	42553.28
666.58	41975.17
666.72	42272.42
666.86	42663.28
667.00	42019.64
667.14	42017.30
667.28	42143.69
667.43	41811.33
667.57	42024.32
667.71	41256.62
667.85	41572.60
667.99	41830.05
668.13	41198.11
668.27	41361.95
668.41	41404.08
668.56	41165.34
668.70	41455.57
668.84	41514.08
668.98	41144.28
669.12	41474.29
669.26	41134.92
669.40	40942.99
669.54	41010.87
669.68	40655.11
669.82	40608.29
669.96	40409.35
670.10	40575.53
670.25	40666.81
670.39	40135.51
670.53	40423.39
670.67	40175.30
670.81	40631.70
670.95	40257.21
671.09	40259.55
671.23	40135.51
671.37	40580.21
671.51	40367.22
671.65	40065.29
671.79	40020.82
671.93	39746.98
672.07	39988.05
672.21	39798.47
672.35	39585.48
672.49	39566.76
672.63	39711.87
672.77	39044.82
672.91	39353.77
673.05	38855.23
673.19	39576.12
673.33	39335.04
673.47	39138.44
673.61	39122.05
673.75	39100.99
673.89	39044.82
674.03	39007.37
674.17	38646.93
674.31	38511.17
674.45	38464.36
674.59	38494.79
674.73	38286.48
674.87	38492.45
675.01	37432.19
675.15	38284.14
675.29	37947.11
675.43	37865.19
675.56	37834.76
675.70	37717.73
675.84	37921.36
675.98	36926.63
676.12	37701.35
676.26	38033.71
676.40	37258.99
676.54	37251.97
676.68	37038.98
676.82	36538.10
676.96	36589.59
677.10	36753.43
677.23	36210.43
677.37	36367.24
677.51	36254.90
677.65	36531.08
677.79	35896.80
677.93	35700.19
678.07	35702.53
678.21	35880.41
678.34	35789.13
678.48	35529.33
678.62	35494.22
678.76	35559.76
678.90	35791.47
679.04	35534.01
679.18	35016.75
679.31	34616.52
679.45	34579.07
679.59	34244.38
679.73	35079.95
679.87	34522.90
680.00	34326.30
680.14	34277.15
680.28	34583.76
680.42	34403.53
680.56	34487.79
680.70	34167.14
680.83	34387.15
680.97	33692.01
681.11	34403.53
681.25	33518.81
681.39	34490.13
681.52	33797.34
681.66	33551.58
681.80	33551.58
681.94	33287.10
682.07	33048.36
682.21	32964.10
682.35	32830.69
682.49	32828.35
682.62	32680.90
682.76	32720.69
682.90	32393.01
683.04	32161.30
683.17	32521.74
683.31	31974.06
683.45	32622.39
683.59	31988.10
683.72	32184.71
683.86	31587.87
684.00	31861.71
684.13	31749.37
684.27	31466.16
684.41	31391.26
684.55	31239.13
684.68	31168.91
684.82	30958.27
684.96	30909.11
685.09	30712.51
685.23	31147.85
685.37	30331.00
685.50	30752.30
685.64	30562.72
685.78	30726.55
685.91	30579.10
686.05	30235.04
686.19	29837.15
686.32	29961.20
686.46	29844.17
686.60	29551.60
686.73	29865.24
686.87	29565.65
687.01	29380.74
687.14	29301.17
687.28	29123.29
687.42	29172.44
687.55	28811.99
687.69	29273.08
687.82	28980.51
687.96	29008.60
688.10	28900.94
688.23	28781.57
688.37	28636.45
688.50	28650.50
688.64	28357.93
688.78	28332.18
688.91	27606.62
689.05	28334.53
689.18	27964.72
689.32	27302.35
689.46	27548.11
689.59	27440.44
689.73	27454.48
689.86	27515.34
690.00	27363.20
690.13	27138.51
690.27	27063.61
690.41	27054.25
690.54	27168.94
690.68	26616.57
690.81	27051.91
690.95	26991.06
691.08	27133.83
691.22	26654.02
691.35	26272.51
691.49	26529.97
691.62	26319.32
691.76	25748.23
691.89	25769.30
692.03	25504.82
692.16	25535.24
692.30	25458.01
692.43	25635.89
692.57	25092.88
692.70	25507.16
692.84	25584.40
692.97	25242.68
693.11	25427.58
693.24	24926.71
693.38	25315.23
693.51	25022.67
693.65	25282.47
693.78	25130.33
693.92	25270.76
694.05	24519.45
694.19	24486.68
694.32	24297.10
694.45	24123.90
694.59	24133.26
694.72	23866.44
694.86	23634.73
694.99	23782.18
695.13	23442.81
695.26	23386.63
695.39	23173.64
695.53	23484.94
695.66	23585.58
695.80	23302.37
695.93	23365.57
696.07	23054.28
696.20	22986.40
696.33	22948.95
696.47	22918.53
696.60	23065.98
696.73	22794.48
696.87	22600.21
697.00	22539.36
697.14	22209.34
697.27	22218.71
697.40	21724.85
697.54	21806.77
697.67	21633.57
697.80	21528.25
697.94	21383.13
698.07	21561.02
698.21	21188.87
698.34	21565.70
698.47	21453.35
698.61	21116.31
698.74	21364.41
698.87	21507.18
699.01	20924.39
699.14	20849.49
699.27	20814.38
699.40	20643.52
699.54	20802.68
699.67	20072.43
699.80	20311.17
699.94	20084.14
700.07	20187.12
700.20	20023.28
700.34	19716.67
700.47	19985.83
700.60	20313.51
700.73	20107.54
700.87	19927.32
701.00	19697.95
701.13	19882.85
701.26	19644.12
701.40	19487.30
701.53	19545.81
701.66	19337.51
701.79	19049.62
701.93	18897.49
702.06	18960.68
702.19	18979.40
702.32	18735.99
702.46	18389.59
702.59	18642.37
702.72	18384.91
702.85	18293.63
702.99	18331.08
703.12	18480.87
703.25	18167.24
703.38	18061.91
703.51	18345.12
703.65	18190.64
703.78	18082.98
703.91	17886.37
704.04	18031.49
704.17	17696.79
704.31	17661.68
704.44	17727.22
704.57	17603.17
704.70	17282.52
704.83	17334.01
704.96	16992.29
705.10	17088.25
705.23	17071.87
>>>>>End Processed Spectral Data<<<<<
