SpectraSuite Data File
++++++++++++++++++++++++++++++++++++
Date: Fri Oct 18 13:54:41 GMT-05:00 2013
User: bianchi
Dark Spectrum Present: No
Reference Spectrum Present: No
Number of Sampled Component Spectra: 1
Spectrometers: USB2+H05261
Integration Time (usec): 100000 (USB2+H05261)
Spectra Averaged: 1 (USB2+H05261)
Boxcar Smoothing: 0 (USB2+H05261)
Correct for Electrical Dark: No (USB2+H05261)
Strobe/Lamp Enabled: No (USB2+H05261)
Correct for Detector Non-linearity: No (USB2+H05261)
Correct for Stray Light: No (USB2+H05261)
Number of Pixels in Processed Spectrum: 2048
>>>>>Begin Processed Spectral Data<<<<<
365.73	0.00
365.92	0.00
366.12	0.00
366.32	0.00
366.52	0.00
366.72	0.00
366.91	0.00
367.11	0.00
367.31	0.00
367.51	0.00
367.70	0.00
367.90	0.00
368.10	0.00
368.30	0.00
368.49	0.00
368.69	0.00
368.89	0.00
369.09	0.00
369.28	0.00
369.48	0.00
369.68	0.00
369.87	0.00
370.07	0.00
370.27	0.00
370.47	32.77
370.66	238.73
370.86	257.46
371.06	299.59
371.25	400.23
371.45	332.36
371.65	334.70
371.84	404.91
372.04	344.06
372.24	421.30
372.44	353.42
372.63	421.30
372.83	409.59
373.03	447.04
373.22	362.78
373.42	449.38
373.62	470.45
373.81	477.47
374.01	447.04
374.21	564.07
374.40	482.15
374.60	470.45
374.79	475.13
374.99	435.34
375.19	505.56
375.38	500.87
375.58	517.26
375.78	613.22
375.97	498.53
376.17	566.41
376.37	601.52
376.56	606.20
376.76	547.69
376.95	500.87
377.15	512.58
377.35	596.84
377.54	521.94
377.74	425.98
377.93	526.62
378.13	533.64
378.33	540.66
378.52	627.26
378.72	561.73
378.91	557.05
379.11	653.01
379.31	564.07
379.50	559.39
379.70	641.31
379.89	685.78
380.09	594.50
380.28	667.05
380.48	662.37
380.68	645.99
380.87	706.84
381.07	571.09
381.26	744.29
381.46	662.37
381.65	624.92
381.85	634.29
382.04	653.01
382.24	699.82
382.43	702.16
382.63	746.63
382.83	613.22
383.02	741.95
383.22	767.70
383.41	751.31
383.61	723.23
383.80	765.36
384.00	730.25
384.19	781.74
384.39	755.99
384.58	697.48
384.78	760.67
384.97	826.21
385.17	798.12
385.36	760.67
385.56	823.87
385.75	777.06
385.95	912.81
386.14	856.64
386.34	807.48
386.53	873.02
386.72	809.83
386.92	861.32
387.11	901.11
387.31	819.19
387.50	847.27
387.70	856.64
387.89	905.79
388.09	863.66
388.28	919.83
388.48	922.17
388.67	884.72
388.86	987.71
389.06	917.49
389.25	983.02
389.45	952.60
389.64	994.73
389.84	971.32
390.03	1015.79
390.22	1015.79
390.42	1057.92
390.61	992.39
390.81	1001.75
391.00	978.34
391.19	1001.75
391.39	1043.88
391.58	1078.99
391.78	1029.84
391.97	1116.44
392.16	1086.01
392.36	1114.10
392.55	1196.01
392.75	1109.41
392.94	1137.50
393.13	1156.22
393.33	1139.84
393.52	1107.07
393.71	1184.31
393.91	1287.29
394.10	1228.78
394.29	1130.48
394.49	1203.04
394.68	1275.59
394.88	1242.82
395.07	1299.00
395.26	1245.16
395.46	1226.44
395.65	1334.11
395.84	1301.34
396.04	1432.41
396.23	1317.72
396.42	1420.71
396.62	1357.51
396.81	1437.09
397.00	1315.38
397.19	1392.62
397.39	1432.41
397.58	1444.11
397.77	1399.64
397.97	1446.45
398.16	1409.00
398.35	1497.94
398.55	1404.32
398.74	1448.79
398.93	1619.65
399.12	1535.39
399.32	1465.18
399.51	1584.54
399.70	1696.89
399.90	1593.90
400.09	1600.93
400.28	1715.61
400.47	1647.74
400.67	1575.18
400.86	1666.46
401.05	1598.59
401.24	1717.95
401.44	1802.21
401.63	1689.87
401.82	1781.15
402.01	1713.27
402.21	1687.53
402.40	1638.38
402.59	1832.64
402.78	1813.92
402.97	1755.40
403.17	1816.26
403.36	1849.02
403.55	1881.79
403.74	1900.52
403.93	1923.92
404.13	2057.33
404.32	1928.60
404.51	1942.64
404.70	1998.82
404.89	1977.75
405.09	2036.27
405.28	2026.90
405.47	2113.50
405.66	2050.31
405.85	2031.58
406.05	2134.57
406.24	2143.93
406.43	2167.34
406.62	2249.25
406.81	2211.81
407.00	2202.44
407.20	2129.89
407.39	2069.03
407.58	2256.28
407.77	2312.45
407.96	2235.21
408.15	2422.45
408.34	2403.73
408.54	2326.49
408.73	2385.01
408.92	2399.05
409.11	2333.51
409.30	2352.24
409.49	2523.10
409.68	2466.92
409.87	2551.18
410.07	2663.53
410.26	2504.37
410.45	2630.76
410.64	2600.34
410.83	2679.91
411.02	2623.74
411.21	2705.66
411.40	2609.70
411.59	2712.68
411.78	2843.75
411.98	2726.72
412.17	2810.98
412.36	2787.58
412.55	3047.38
412.74	3021.63
412.93	3068.44
413.12	2909.29
413.31	3080.14
413.50	3141.00
413.69	3129.30
413.88	3169.09
414.07	3136.32
414.26	3225.26
414.45	3323.56
414.64	3323.56
414.83	3220.58
415.02	3328.24
415.22	3421.86
415.41	3433.57
415.60	3403.14
415.79	3524.85
415.98	3543.57
416.17	3503.78
416.36	3548.25
416.55	3679.32
416.74	3660.60
416.93	3702.73
417.12	3709.75
417.31	3772.94
417.50	3665.28
417.69	3859.54
417.88	3829.12
418.07	3808.05
418.26	3861.88
418.45	3794.01
418.64	4079.55
418.83	3929.76
419.02	4011.68
419.21	4093.60
419.39	3983.59
419.58	4067.85
419.77	4021.04
419.96	4093.60
420.15	4088.92
420.34	4138.07
420.53	4191.90
420.72	4404.89
420.91	4208.28
421.10	4351.06
421.29	4503.19
421.48	4355.74
421.67	4528.94
421.86	4418.93
422.05	4404.89
422.24	4360.42
422.43	4432.97
422.61	4339.35
422.80	4650.64
422.99	4491.49
423.18	4540.64
423.37	4559.36
423.56	4564.04
423.75	4442.34
423.94	4531.28
424.13	4313.61
424.32	4414.25
424.50	4484.47
424.69	4594.47
424.88	4512.55
425.07	4571.07
425.26	4578.09
425.45	4615.54
425.64	4447.02
425.83	4550.00
426.01	4770.01
426.20	4695.11
426.39	4669.37
426.58	4622.56
426.77	4753.63
426.96	4592.13
427.15	4741.93
427.33	4875.34
427.52	4772.35
427.71	4732.56
427.90	4851.93
428.09	4983.00
428.28	4830.87
428.46	4980.66
428.65	4746.61
428.84	5121.09
429.03	5095.35
429.22	5020.45
429.40	5109.39
429.59	4950.23
429.78	4739.58
429.97	4791.08
430.16	4929.17
430.34	5165.56
430.53	5165.56
430.72	5331.74
430.91	5268.55
431.10	5125.77
431.28	5214.71
431.47	5313.02
431.66	5404.30
431.85	5373.87
432.03	5406.64
432.22	5624.31
432.41	5462.81
432.60	5668.78
432.79	5591.54
432.97	5404.30
433.16	5558.77
433.35	5628.99
433.54	5706.23
433.72	5610.26
433.91	5818.57
434.10	5762.40
434.28	5741.33
434.47	5675.80
434.66	5673.46
434.85	5886.45
435.03	5771.76
435.22	5827.93
435.41	5813.89
435.59	6125.18
435.78	5809.21
435.97	6040.92
436.16	6031.56
436.34	5989.43
436.53	6214.12
436.72	6380.30
436.90	5963.68
437.09	6204.76
437.28	5891.13
437.46	6078.37
437.65	6197.74
437.84	6375.62
438.02	6204.76
438.21	6410.73
438.40	6148.59
438.58	6291.36
438.77	6574.56
438.96	6434.13
439.14	6464.56
439.33	6590.95
439.52	6799.26
439.70	6663.51
439.89	6712.66
440.08	6883.52
440.26	6918.62
440.45	6923.30
440.63	6855.43
440.82	6911.60
441.01	7157.36
441.19	7140.97
441.38	7262.68
441.57	7260.34
441.75	7173.74
441.94	7396.09
442.12	7286.09
442.31	7433.54
442.50	7386.73
442.68	7583.34
442.87	7709.72
443.05	7480.35
443.24	7623.12
443.43	7709.72
443.61	7698.02
443.80	7669.94
443.98	7508.44
444.17	7463.97
444.35	7798.66
444.54	7602.06
444.73	7749.51
444.91	7932.08
445.10	7620.78
445.28	7819.73
445.47	7772.92
445.65	7496.74
445.84	7620.78
446.02	7709.72
446.21	7740.15
446.39	7861.86
446.58	7969.52
446.77	8049.10
446.95	7676.96
447.14	7693.34
447.32	7861.86
447.51	7948.46
447.69	7653.55
447.88	8013.99
448.06	8023.36
448.25	7981.23
448.43	8009.31
448.62	7955.48
448.80	7751.85
448.99	8133.36
449.17	8067.83
449.36	8013.99
449.54	8138.04
449.73	8442.31
449.91	8266.77
450.10	8152.09
450.28	8367.42
450.46	8514.87
450.65	8402.52
450.83	8372.10
451.02	8416.57
451.20	8292.52
451.39	8531.25
451.57	8622.53
451.76	8318.26
451.94	8552.32
452.13	8652.96
452.31	8755.94
452.49	8465.72
452.68	8629.56
452.86	8678.71
453.05	8615.51
453.23	8940.85
453.42	8713.81
453.60	8802.75
453.78	8760.63
453.97	8702.11
454.15	8975.95
454.34	8753.60
454.52	8957.23
454.70	8957.23
454.89	9085.96
455.07	9245.12
455.26	8947.87
455.44	9111.71
455.62	9095.32
455.81	9025.11
455.99	9308.31
456.17	9336.40
456.36	9329.38
456.54	9525.98
456.73	9256.82
456.91	9781.10
457.09	9666.41
457.28	9958.98
457.46	9792.80
457.64	9947.28
457.83	9806.84
458.01	9385.55
458.19	9966.00
458.38	9722.59
458.56	10097.07
458.74	9923.87
458.93	9788.12
459.11	9860.68
459.29	10026.86
459.48	9916.85
459.66	10104.09
459.84	10256.23
460.03	10485.60
460.21	10092.39
460.39	10090.05
460.57	9928.55
460.76	10200.05
460.94	10509.01
461.12	10223.46
461.31	10384.96
461.49	10354.53
461.67	10375.59
461.85	10693.91
462.04	10457.51
462.22	11243.93
462.40	10761.78
462.59	10555.82
462.77	10710.29
462.95	10794.55
463.13	10876.47
463.32	10778.17
463.50	11061.37
463.68	10707.95
463.86	11040.31
464.05	10782.85
464.23	10974.77
464.41	10902.22
464.59	10892.85
464.78	11229.89
464.96	11138.61
465.14	11056.69
465.32	10949.03
465.50	11211.17
465.69	11169.04
465.87	11061.37
466.05	11220.53
466.23	11190.10
466.41	11225.21
466.60	11571.61
466.78	11279.04
466.96	11391.39
467.14	11166.70
467.32	11653.53
467.51	11489.69
467.69	11332.87
467.87	11573.95
468.05	11573.95
468.23	11463.94
468.41	11382.03
468.60	11676.93
468.78	11826.73
468.96	11562.25
469.14	11840.77
469.32	11939.07
469.50	11485.01
469.69	11920.35
469.87	12049.08
470.05	12245.68
470.23	12177.81
470.41	11995.25
470.59	12072.48
470.77	12128.66
470.95	12217.60
471.14	12360.37
471.32	12042.06
471.50	12678.68
471.68	12461.01
471.86	12723.15
472.04	12554.63
472.22	12905.71
472.40	12746.56
472.58	12840.18
472.77	12989.97
472.95	13179.56
473.13	13378.50
473.31	12870.61
473.49	13153.81
473.67	13123.38
473.85	13338.71
474.03	13500.21
474.21	13315.31
474.39	13605.53
474.57	13673.41
474.75	13671.07
474.93	13879.38
475.12	13762.35
475.30	13942.57
475.48	13940.23
475.66	14045.55
475.84	14008.11
476.02	14134.50
476.20	14157.90
476.38	14258.54
476.56	14644.73
476.74	14693.88
476.92	14576.86
477.10	14590.90
477.28	15033.26
477.46	14953.68
477.64	15033.26
477.82	15194.76
478.00	15424.13
478.18	15686.27
478.36	15606.69
478.54	15974.16
478.72	16142.67
478.90	15887.56
479.08	16252.68
479.26	16252.68
479.44	16294.81
479.62	16425.88
479.80	16552.27
479.98	16765.26
480.16	17404.22
480.34	16882.28
480.52	17266.13
480.70	17394.86
480.88	17085.91
481.06	17362.09
481.24	17322.30
481.41	17781.05
481.59	17940.21
481.77	17972.97
481.95	18052.55
482.13	18176.60
482.31	17933.18
482.49	18670.45
482.67	18466.83
482.85	18686.84
483.03	18867.06
483.21	19227.50
483.39	19283.67
483.57	19295.38
483.74	19342.19
483.92	19611.35
484.10	19719.01
484.28	20152.01
484.46	20278.40
484.64	20664.59
484.82	20271.38
485.00	20582.67
485.18	20959.50
485.35	21195.89
485.53	20931.41
485.71	21207.59
485.89	21476.76
486.07	21460.37
486.25	21605.49
486.43	21820.81
486.61	21996.35
486.78	22089.98
486.96	22850.65
487.14	22616.60
487.32	22647.02
487.50	23012.15
487.68	22944.27
487.85	23222.80
488.03	23367.91
488.21	23690.90
488.39	23955.38
488.57	23990.49
488.75	24053.69
488.92	24360.30
489.10	24945.43
489.28	24556.90
489.46	24931.39
489.64	25029.69
489.81	25415.88
489.99	25263.74
490.17	25640.57
490.35	25652.27
490.53	25881.64
490.70	26513.59
490.88	26153.15
491.06	26508.91
491.24	26295.92
491.41	26305.28
491.59	26855.31
491.77	27316.39
491.95	27328.10
492.13	27491.93
492.30	27410.01
492.48	27873.44
492.66	27915.57
492.84	28058.34
493.01	28526.45
493.19	28446.87
493.37	28624.75
493.54	28624.75
493.72	28826.04
493.90	29125.63
494.08	29259.04
494.25	29591.39
494.43	29425.22
494.61	29876.94
494.79	29640.54
494.96	29738.85
495.14	30396.54
495.32	30433.99
495.49	30462.07
495.67	30733.57
495.85	31304.67
496.02	31484.89
496.20	31229.77
496.38	31290.62
496.55	31459.14
496.73	32273.65
496.91	31784.48
497.09	32079.38
497.26	32348.54
497.44	31997.46
497.62	32432.80
497.79	32673.88
497.97	32442.17
498.14	32582.60
498.32	33244.97
498.50	33422.85
498.67	33647.54
498.85	33462.64
499.03	33610.09
499.20	33731.80
499.38	33839.47
499.56	33926.07
499.73	34309.91
499.91	33996.28
500.08	34396.51
500.26	34291.19
500.44	34419.92
500.61	34494.82
500.79	34815.47
500.97	34897.39
501.14	35723.60
501.32	35541.03
501.49	35473.16
501.67	35262.51
501.84	35777.43
502.02	35157.19
502.20	36093.40
502.37	35983.40
502.55	36378.95
502.72	36271.28
502.90	36327.45
503.07	36402.35
503.25	36245.54
503.43	36198.73
503.60	36830.67
503.78	36800.24
503.95	36856.42
504.13	37322.18
504.30	37069.40
504.48	37116.22
504.65	37193.45
504.83	37748.16
505.01	38064.13
505.18	37607.73
505.36	37961.15
505.53	37846.46
505.71	37984.55
505.88	38443.30
506.06	37970.51
506.23	38780.34
506.41	38277.12
506.58	38569.69
506.76	38644.59
506.93	38787.36
507.11	39082.27
507.28	38857.57
507.46	38883.32
507.63	39337.38
507.81	39491.86
507.98	39566.76
508.16	39075.24
508.33	39871.03
508.50	39732.93
508.68	39608.89
508.85	40320.41
509.03	40107.42
509.20	40285.30
509.38	40861.07
509.55	40582.55
509.73	40430.41
509.90	40741.71
510.08	40905.54
510.25	41022.57
510.42	40952.35
510.60	41462.59
510.77	41083.42
510.95	41392.37
511.12	41301.09
511.30	41825.37
511.47	41518.76
511.64	41830.05
511.82	42092.19
511.99	41729.41
512.17	42445.62
512.34	42218.58
512.51	42401.14
512.69	42045.38
512.86	42572.00
513.04	42691.37
513.21	42780.31
513.38	43044.79
513.56	43077.56
513.73	42834.14
513.90	43299.91
514.08	43283.53
514.25	43744.61
514.43	43005.00
514.60	43831.21
514.77	43639.29
514.95	44130.80
515.12	44067.61
515.29	44002.07
515.47	43978.67
515.64	44350.81
515.81	44383.58
515.99	44713.59
516.16	44889.13
516.33	44884.45
516.51	44638.70
516.68	44727.64
516.85	44589.55
517.03	44776.79
517.20	44947.65
517.37	45069.36
517.54	45488.31
517.72	45401.71
517.89	44987.44
518.06	44828.28
518.24	45528.10
518.41	45380.65
518.58	45427.46
518.75	45668.53
518.93	45930.67
519.10	45556.19
519.27	46003.23
519.45	45876.84
519.62	45598.32
519.79	46012.59
519.96	46068.76
520.14	46300.48
520.31	46593.04
520.48	46801.35
520.65	46593.04
520.83	46899.65
521.00	46541.55
521.17	46700.71
521.34	46728.80
521.52	47119.66
521.69	46974.55
521.86	46962.85
522.03	47327.97
522.20	47241.37
522.38	47393.51
522.55	47475.43
522.72	47152.43
522.89	47480.11
523.07	47798.42
523.24	47613.52
523.41	48100.35
523.58	47714.16
523.75	48444.41
523.92	47962.26
524.10	47852.25
524.27	47892.04
524.44	48098.01
524.61	48570.80
524.78	48912.52
524.96	48608.25
525.13	48952.30
525.30	48561.44
525.47	48680.80
525.64	48746.34
525.81	48924.22
525.98	49116.14
526.16	49001.46
526.33	49034.22
526.50	49350.20
526.67	48566.12
526.84	49165.29
527.01	49132.53
527.18	49294.02
527.36	49593.61
527.53	49780.85
527.70	49563.18
527.87	49867.45
528.04	49488.29
528.21	49572.55
528.38	49766.81
528.55	49895.54
528.72	49708.30
528.89	50429.18
529.07	50145.98
529.24	50017.25
529.41	50387.05
529.58	50370.67
529.75	50450.25
529.92	50277.05
530.09	50396.42
530.26	50375.35
530.43	50494.72
530.60	50340.24
530.77	50562.59
530.94	50646.85
531.11	50707.71
531.28	50796.65
531.46	50578.98
531.63	50438.54
531.80	50670.26
531.97	51093.89
532.14	51040.06
532.31	50831.75
532.48	50749.84
532.65	51070.49
532.82	50920.70
532.99	50923.04
533.16	50939.42
533.33	51194.54
533.50	51590.09
533.67	51444.98
533.84	51318.59
534.01	51433.27
534.18	51114.96
534.35	51564.34
534.52	51908.40
534.69	51480.08
534.86	51789.03
535.03	51517.53
535.20	51784.35
535.37	51959.89
535.54	52079.26
535.71	51576.04
535.88	51943.51
536.05	51718.82
536.22	52184.58
536.38	52123.73
536.55	52229.05
536.72	52130.75
536.89	52044.15
537.06	52191.61
537.23	51966.91
537.40	52285.23
537.57	52259.48
537.74	52409.28
537.91	52582.48
538.08	52467.79
538.25	52193.95
538.42	52390.55
538.59	52465.45
538.75	52493.54
538.92	52528.64
539.09	52900.79
539.26	52718.23
539.43	53001.43
539.60	52980.37
539.77	52989.73
539.94	52849.30
540.11	52790.78
540.28	53083.35
540.44	52774.40
540.61	52732.27
540.78	52853.98
540.95	52830.57
541.12	52910.15
541.29	53286.98
541.46	53223.78
541.62	53088.03
541.79	53207.40
541.96	52772.06
542.13	52982.71
542.30	53429.75
542.47	53638.06
542.63	53462.52
542.80	53616.99
542.97	53619.33
543.14	53741.04
543.31	53752.74
543.48	53621.67
543.64	53890.83
543.81	53928.28
543.98	53972.75
544.15	54049.99
544.32	53841.68
544.48	54162.34
544.65	53560.82
544.82	54064.03
544.99	53666.14
545.16	53839.34
545.32	53925.94
545.49	54305.11
545.66	54518.10
545.83	54251.28
546.00	54391.71
546.16	54382.35
546.33	53895.52
546.50	53914.24
546.67	54321.49
546.83	53935.30
547.00	54244.26
547.17	54176.38
547.34	54190.42
547.50	54445.54
547.67	54681.94
547.84	54464.27
548.00	54658.53
548.17	54773.22
548.34	54536.82
548.51	54738.11
548.67	54693.64
548.84	54740.45
549.01	54457.24
549.18	54735.77
549.34	54745.13
549.51	54719.38
549.68	54698.32
549.84	54513.42
550.01	54810.67
550.18	54707.68
550.34	54782.58
550.51	54738.11
550.68	54934.71
550.84	54754.49
551.01	55196.85
551.18	54593.00
551.34	54883.22
551.51	54871.52
551.68	54948.76
551.84	55194.51
552.01	55234.30
552.18	55409.84
552.34	54836.41
552.51	55157.06
552.68	55007.27
552.84	55018.97
553.01	55519.85
553.18	55185.15
553.34	55547.93
553.51	55215.58
553.67	55657.94
553.84	55646.24
554.01	55536.23
554.17	55473.04
554.34	55515.17
554.51	55409.84
554.67	55695.39
554.84	55547.93
555.00	55606.45
555.17	55475.38
555.33	55819.44
555.50	55540.91
555.67	55739.86
555.83	55536.23
556.00	55540.91
556.16	55648.58
556.33	55639.22
556.50	55405.16
556.66	55817.10
556.83	55554.96
556.99	55697.73
557.16	56191.58
557.32	55847.52
557.49	56062.85
557.65	55753.90
557.82	55702.41
557.98	55468.36
558.15	55959.87
558.32	55870.93
558.48	56002.00
558.65	56030.08
558.81	56147.11
558.98	56100.30
559.14	55906.04
559.31	55906.04
559.47	55943.48
559.64	56144.77
559.80	55938.80
559.97	55985.61
560.13	55803.05
560.30	56039.45
560.46	56142.43
560.63	55945.83
560.79	56144.77
560.96	56303.93
561.12	56264.14
561.29	56020.72
561.45	56121.37
561.61	56287.54
561.78	56128.39
561.94	56343.72
562.11	56172.86
562.27	56114.34
562.44	56104.98
562.60	56233.71
562.77	56048.81
562.93	56203.28
563.10	56184.56
563.26	56296.91
563.42	56837.57
563.59	56425.64
563.75	56250.09
563.92	56416.27
564.08	56182.22
564.24	56254.78
564.41	56355.42
564.57	56320.31
564.74	56369.46
564.90	56229.03
565.07	56282.86
565.23	56582.45
565.39	56521.60
565.56	56470.11
565.72	56367.12
565.88	56362.44
566.05	56292.22
566.21	56123.71
566.38	56371.80
566.54	56507.55
566.70	56537.98
566.87	56708.84
567.03	56748.63
567.19	56680.75
567.36	56636.28
567.52	56526.28
567.68	56629.26
567.85	56603.52
568.01	56563.73
568.17	56577.77
568.34	56640.96
568.50	56603.52
568.66	56809.48
568.83	56743.95
568.99	56481.81
569.15	56540.32
569.32	56568.41
569.48	56395.21
569.64	56472.45
569.81	56523.94
569.97	56559.05
570.13	56757.99
570.30	56748.63
570.46	56540.32
570.62	56563.73
570.78	56488.83
570.95	56420.95
571.11	56367.12
571.27	56662.03
571.43	56633.94
571.60	56701.82
571.76	56633.94
571.92	56676.07
572.09	56612.88
572.25	56701.82
572.41	56975.66
572.57	56664.37
572.74	56619.90
572.90	56399.89
573.06	56802.46
573.22	56889.06
573.38	56725.22
573.55	56814.16
573.71	57062.26
573.87	57020.13
574.03	56750.97
574.20	56893.74
574.36	56797.78
574.52	56727.56
574.68	56559.05
574.84	56512.23
575.01	56797.78
575.17	57027.15
575.33	56800.12
575.49	56802.46
575.65	57085.67
575.82	57043.54
575.98	56772.03
576.14	56814.16
576.30	56844.59
576.46	56449.04
576.62	56708.84
576.79	56617.56
576.95	56734.59
577.11	56907.79
577.27	56697.14
577.43	56875.02
577.59	56804.80
577.75	56727.56
577.92	56575.43
578.08	56601.18
578.24	56835.23
578.40	56858.63
578.56	56807.14
578.72	56811.82
578.88	56900.76
579.04	57031.83
579.21	56685.43
579.37	57134.82
579.53	57015.45
579.69	56701.82
579.85	56914.81
580.01	56601.18
580.17	56537.98
580.33	56615.22
580.49	56835.23
580.65	57080.98
580.82	56898.42
580.98	57017.79
581.14	56839.91
581.30	56921.83
581.46	56774.37
581.62	56931.19
581.78	56528.62
581.94	56872.68
582.10	56767.35
582.26	57237.80
582.42	56821.19
582.58	56928.85
582.74	57200.35
582.90	56987.36
583.06	56966.30
583.22	56884.38
583.38	56788.42
583.54	56942.89
583.70	56797.78
583.86	56978.00
584.02	56495.85
584.18	57146.52
584.34	56963.96
584.50	57207.37
584.66	56921.83
584.82	56713.52
584.98	56842.25
585.14	56757.99
585.30	56687.78
585.46	56865.66
585.62	57020.13
585.78	57059.92
585.94	56830.55
586.10	56921.83
586.26	57179.29
586.42	57036.51
586.58	57382.91
586.74	57045.88
586.90	56849.27
587.06	56860.97
587.22	56933.53
587.38	56732.25
587.54	56994.39
587.70	57099.71
587.86	57181.63
588.02	56931.19
588.18	57270.57
588.34	56940.55
588.49	57104.39
588.65	56804.80
588.81	56947.57
588.97	57003.75
589.13	56910.13
589.29	56996.73
589.45	57109.07
589.61	57118.43
589.77	57270.57
589.93	57202.69
590.08	57153.54
590.24	57336.10
590.40	57167.58
590.56	57240.14
590.72	57151.20
590.88	56931.19
591.04	56875.02
591.20	57364.19
591.35	57244.82
591.51	57329.08
591.67	57242.48
591.83	57401.64
591.99	57186.31
592.15	57127.80
592.31	57223.76
592.46	56968.64
592.62	57240.14
592.78	57006.09
592.94	57303.34
593.10	57200.35
593.26	57254.18
593.41	57235.46
593.57	57319.72
593.73	57345.47
593.89	57319.72
594.05	57073.96
594.20	57333.76
594.36	57153.54
594.52	56992.04
594.68	57176.95
594.84	57045.88
594.99	57219.08
595.15	57102.05
595.31	57696.55
595.47	57343.12
595.62	57277.59
595.78	57195.67
595.94	57331.42
596.10	56961.62
596.25	57214.40
596.41	57088.01
596.57	56842.25
596.73	57315.04
596.88	57176.95
597.04	57205.03
597.20	57413.34
597.36	57326.74
597.51	57352.49
597.67	57102.05
597.83	57293.97
597.99	57291.63
598.14	57195.67
598.30	57226.10
598.46	57289.29
598.61	57366.53
598.77	56865.66
598.93	57247.16
599.09	57083.33
599.24	57513.98
599.40	57389.94
599.56	57352.49
599.71	57099.71
599.87	57298.65
600.03	57176.95
600.18	57310.36
600.34	57062.26
600.50	57305.68
600.65	57375.89
600.81	57621.65
600.97	57464.83
601.12	57523.35
601.28	57537.39
601.44	57137.16
601.59	57357.17
601.75	57172.27
601.91	57186.31
602.06	57146.52
602.22	57401.64
602.37	57176.95
602.53	57226.10
602.69	57457.81
602.84	57214.40
603.00	57176.95
603.16	57169.93
603.31	57322.06
603.47	57193.33
603.62	57090.35
603.78	57190.99
603.94	57240.14
604.09	57162.90
604.25	57226.10
604.40	57209.71
604.56	57382.91
604.71	57375.89
604.87	57038.86
605.03	57174.61
605.18	57277.59
605.34	57275.25
605.49	56765.01
605.65	57212.06
605.80	56961.62
605.96	57265.89
606.12	57193.33
606.27	57415.68
606.43	57088.01
606.58	57485.90
606.74	57017.79
606.89	57169.93
607.05	57226.10
607.20	57298.65
607.36	57134.82
607.51	57010.77
607.67	57078.64
607.82	57015.45
607.98	57003.75
608.13	57125.46
608.29	56982.68
608.44	57111.41
608.60	56994.39
608.75	57092.69
608.91	56917.15
609.06	56928.85
609.22	57022.47
609.37	56725.22
609.53	56889.06
609.68	56910.13
609.84	56919.49
609.99	56992.04
610.15	56657.35
610.30	57006.09
610.46	56905.44
610.61	56889.06
610.76	56788.42
610.92	56935.87
611.07	56741.61
611.23	56879.70
611.38	56870.34
611.54	56907.79
611.69	56790.76
611.84	56540.32
612.00	56872.68
612.15	56715.86
612.31	56853.95
612.46	56769.69
612.62	56741.61
612.77	56793.10
612.92	57076.30
613.08	56825.87
613.23	56687.78
613.39	56685.43
613.54	56580.11
613.69	56732.25
613.85	56666.71
614.00	56559.05
614.15	56631.60
614.31	56561.39
614.46	56790.76
614.62	56465.42
614.77	56671.39
614.92	56633.94
615.08	56594.15
615.23	56882.04
615.38	56619.90
615.54	56409.25
615.69	56163.50
615.84	56294.56
616.00	56280.52
616.15	56491.17
616.30	56584.79
616.46	56343.72
616.61	56425.64
616.76	56383.51
616.92	56254.78
617.07	56404.57
617.22	56186.90
617.37	56229.03
617.53	56245.41
617.68	56268.82
617.83	56165.84
617.99	56310.95
618.14	56048.81
618.29	56186.90
618.45	56512.23
618.60	56076.90
618.75	56299.25
618.90	56357.76
619.06	56322.65
619.21	56212.65
619.36	56219.67
619.51	55812.41
619.67	55749.22
619.82	55924.76
619.97	56069.87
620.12	55863.91
620.28	55751.56
620.43	56095.62
620.58	56025.40
620.73	55971.57
620.89	55920.08
621.04	56191.58
621.19	56060.51
621.34	55917.74
621.49	55866.25
621.65	55604.11
621.80	55990.30
621.95	55650.92
622.10	55894.33
622.25	55679.00
622.41	55737.52
622.56	55742.20
622.71	55702.41
622.86	55625.17
623.01	55770.28
623.16	55650.92
623.32	55580.70
623.47	55709.43
623.62	55664.96
623.77	55419.20
623.92	55739.86
624.07	55524.53
624.23	55505.80
624.38	55569.00
624.53	55381.76
624.68	55796.03
624.83	55749.22
624.98	55899.01
625.13	55196.85
625.29	55414.52
625.44	55377.08
625.59	55231.96
625.74	55341.97
625.89	55128.98
626.04	55224.94
626.19	54841.09
626.34	55208.56
626.49	55433.25
626.65	55124.30
626.80	55257.71
626.95	55320.90
627.10	55084.51
627.25	55082.17
627.40	54864.50
627.55	55079.83
627.70	54871.52
627.85	54948.76
628.00	54932.37
628.15	54986.21
628.30	54897.27
628.45	55042.38
628.60	54740.45
628.76	55180.47
628.91	55093.87
629.06	54927.69
629.21	55110.25
629.36	55030.68
629.51	54953.44
629.66	54864.50
629.81	54740.45
629.96	54707.68
630.11	54482.99
630.26	54677.25
630.41	54831.73
630.56	54440.86
630.71	54810.67
630.86	54649.17
631.01	54756.83
631.16	54658.53
631.31	54621.08
631.46	54480.65
631.61	54639.81
631.76	54564.91
631.91	54614.06
632.06	54532.14
632.21	54433.84
632.36	54705.34
632.51	54288.73
632.66	54644.49
632.81	54124.89
632.96	54588.31
633.10	54672.57
633.25	54349.58
633.40	54534.48
633.55	54440.86
633.70	54197.44
633.85	54052.33
634.00	54103.82
634.15	54103.82
634.30	54108.50
634.45	54145.95
634.60	54347.24
634.75	54148.29
634.90	54190.42
635.05	54209.15
635.19	53937.65
635.34	53970.41
635.49	54085.10
635.64	54045.31
635.79	53961.05
635.94	54066.38
636.09	54178.72
636.24	53815.94
636.39	53918.92
636.53	53993.82
636.68	53443.79
636.83	53642.74
636.98	54127.23
637.13	53844.02
637.28	53881.47
637.43	54155.32
637.57	53825.30
637.72	53673.16
637.87	53745.72
638.02	53607.63
638.17	53722.32
638.32	53628.69
638.46	53338.47
638.61	53563.16
638.76	53359.53
638.91	53474.22
639.06	53350.17
639.20	53387.62
639.35	53801.89
639.50	53509.33
639.65	53453.15
639.80	53649.76
639.94	53701.25
640.09	53427.41
640.24	53326.77
640.39	53064.63
640.54	53102.07
640.68	53240.17
640.83	53155.91
640.98	53104.41
641.13	52743.97
641.27	53158.25
641.42	52982.71
641.57	53099.73
641.72	53052.92
641.86	53057.60
642.01	52973.34
642.16	53015.47
642.31	52858.66
642.45	52956.96
642.60	52875.04
642.75	52591.84
642.90	52818.87
643.04	52849.30
643.19	52945.26
643.34	52662.05
643.48	52989.73
643.63	53027.18
643.78	52973.34
643.93	53169.95
644.07	52971.00
644.22	53081.01
644.37	52580.13
644.51	52865.68
644.66	52835.25
644.81	52690.14
644.95	52708.86
645.10	52570.77
645.25	52554.39
645.39	52505.24
645.54	52570.77
645.69	52509.92
645.83	52722.91
645.98	52299.27
646.13	52561.41
646.27	52385.87
646.42	52509.92
646.57	52259.48
646.71	52648.01
646.86	52395.23
647.00	52463.11
647.15	52268.84
647.30	52264.16
647.44	52472.47
647.59	52486.51
647.74	51920.10
647.88	51990.32
648.03	52315.65
648.17	52542.69
648.32	52378.85
648.47	52294.59
648.61	52126.07
648.76	52287.57
648.90	52097.98
649.05	52069.90
649.20	52196.29
649.34	51971.60
649.49	51824.14
649.63	52004.36
649.78	51838.18
649.92	51810.10
650.07	51896.70
650.21	52168.20
650.36	51929.47
650.51	51985.64
650.65	52065.22
650.80	52065.22
650.94	51950.53
651.09	51936.49
651.23	51758.61
651.38	51611.15
651.52	51587.75
651.67	51559.66
651.81	51756.27
651.96	51672.01
652.10	51494.13
652.25	51672.01
652.39	51882.66
652.54	51704.77
652.68	51629.88
652.83	51681.37
652.97	51798.40
653.12	51784.35
653.26	51302.20
653.41	51428.59
653.55	51435.61
653.70	51288.16
653.84	51234.33
653.99	51372.42
654.13	51393.48
654.27	51346.67
654.42	51140.71
654.56	51129.00
654.71	51358.38
654.85	51026.02
655.00	51515.19
655.14	51367.74
655.29	51206.24
655.43	51349.01
655.57	50983.89
655.72	50892.61
655.86	51011.98
656.01	50557.91
656.15	50913.67
656.30	50958.14
656.44	50691.32
656.58	50600.04
656.73	50894.95
656.87	50937.08
657.01	50789.62
657.16	50960.48
657.30	51042.40
657.45	50990.91
657.59	50810.69
657.73	50686.64
657.88	50602.38
658.02	50571.96
658.16	50370.67
658.31	50543.87
658.45	50468.97
658.60	50087.46
658.74	49853.41
658.88	49991.50
659.03	50153.00
659.17	50312.16
659.31	50082.78
659.46	50010.23
659.60	50672.60
659.74	50169.38
659.89	50017.25
660.03	50368.33
660.17	50136.62
660.32	49874.48
660.46	49698.94
660.60	49731.70
660.74	49680.21
660.89	49759.79
661.03	49787.88
661.17	49556.16
661.32	49233.17
661.46	49415.73
661.60	49305.73
661.74	49661.49
661.89	49116.14
662.03	49621.70
662.17	49420.41
662.31	49504.67
662.46	49296.36
662.60	49530.42
662.74	49350.20
662.88	49095.08
663.03	48732.29
663.17	48872.73
663.31	48584.84
663.45	48538.03
663.60	48788.47
663.74	48617.61
663.88	48575.48
664.02	48626.97
664.17	48807.19
664.31	48315.68
664.45	48622.29
664.59	48952.30
664.73	48287.59
664.88	48301.64
665.02	48037.16
665.16	48037.16
665.30	47718.84
665.44	48449.09
665.59	47564.37
665.73	47590.11
665.87	47555.00
666.01	47821.83
666.15	47969.28
666.29	47707.14
666.44	47847.57
666.58	47292.86
666.72	47751.61
666.86	47868.64
667.00	47646.29
667.14	47892.04
667.28	47590.11
667.43	47615.86
667.57	47655.65
667.71	47332.65
667.85	46948.81
667.99	46820.08
668.13	47278.82
668.27	46969.87
668.41	46892.63
668.56	46824.76
668.70	46955.83
668.84	46845.82
668.98	46768.58
669.12	46614.11
669.26	46866.89
669.40	46452.61
669.54	46777.95
669.68	46138.98
669.82	45963.44
669.96	45865.14
670.10	45647.47
670.25	46141.32
670.39	45792.58
670.53	45792.58
670.67	45439.16
670.81	46447.93
670.95	45951.74
671.09	46319.20
671.23	45705.98
671.37	46141.32
671.51	46068.76
671.65	45544.48
671.79	45436.82
671.93	45415.76
672.07	45717.68
672.21	45390.01
672.35	45242.56
672.49	45188.72
672.63	44884.45
672.77	44774.45
672.91	44753.38
673.05	44722.96
673.19	44734.66
673.33	44542.74
673.47	44575.50
673.61	44907.86
673.75	44369.54
673.89	44442.09
674.03	44041.86
674.17	44802.53
674.31	44257.19
674.45	44119.10
674.59	43833.55
674.73	43746.95
674.87	43826.53
675.01	42946.49
675.15	43056.50
675.29	43323.32
675.43	43463.75
675.56	43257.78
675.70	43440.34
675.84	43653.33
675.98	42167.09
676.12	43269.48
676.26	42986.28
676.40	43068.20
676.54	42834.14
676.68	42272.42
676.82	41890.91
676.96	42148.37
677.10	41961.12
677.23	41780.90
677.37	41551.53
677.51	41462.59
677.65	41556.21
677.79	40952.35
677.93	41581.96
678.07	41244.92
678.21	41003.85
678.34	40903.20
678.48	41258.96
678.62	41036.61
678.76	40954.69
678.90	40318.07
679.04	40538.08
679.18	40250.19
679.31	40128.48
679.45	40121.46
679.59	40027.84
679.73	40051.25
679.87	39660.38
680.00	39119.71
680.14	39332.70
680.28	39842.94
680.42	38937.15
680.56	39515.26
680.70	39023.75
680.83	39363.13
680.97	39115.03
681.11	39117.37
681.25	38906.73
681.39	38792.04
681.52	38976.94
681.66	38581.39
681.80	38223.29
681.94	37778.59
682.07	38244.35
682.21	38005.62
682.35	37834.76
682.49	37722.41
682.62	37577.30
682.76	37488.36
682.90	37317.50
683.04	37806.67
683.17	37303.46
683.31	36891.52
683.45	37352.61
683.59	37188.77
683.72	36800.24
683.86	36727.69
684.00	36191.70
684.13	36652.79
684.27	36055.95
684.41	35938.93
684.55	36034.89
684.68	36285.33
684.82	35683.81
684.96	35175.91
685.09	35093.99
685.23	35786.79
685.37	35288.26
685.50	35365.49
685.64	35119.74
685.78	35000.37
685.91	34965.26
686.05	34848.24
686.19	34476.09
686.32	34717.17
686.46	34532.26
686.60	33876.91
686.73	34232.68
686.87	33977.56
687.01	33783.29
687.14	33858.19
687.28	33443.91
687.42	33963.51
687.55	33352.63
687.69	33387.74
687.82	33244.97
687.96	33354.97
688.10	33116.24
688.23	33500.09
688.37	33179.43
688.50	32833.04
688.64	32744.09
688.78	32950.06
688.91	32116.83
689.05	32524.08
689.18	32121.51
689.32	31688.51
689.46	31620.64
689.59	32292.37
689.73	31639.36
689.86	31702.56
690.00	31592.55
690.13	31606.59
690.27	31103.38
690.41	31412.33
690.54	31260.20
690.68	30991.03
690.81	30754.64
690.95	30941.88
691.08	31161.89
691.22	31002.74
691.35	30515.90
691.49	30558.03
691.62	30129.72
691.76	29912.05
691.89	29809.06
692.03	29965.88
692.16	29907.37
692.30	29734.17
692.43	29418.19
692.57	29465.00
692.70	29249.67
692.84	29081.16
692.97	29226.27
693.11	29528.20
693.24	29078.82
693.38	28943.06
693.51	28842.42
693.65	28690.29
693.78	28631.77
693.92	28503.04
694.05	28376.66
694.19	28514.75
694.32	27843.01
694.45	28046.64
694.59	27847.69
694.72	27777.48
694.86	27573.85
694.99	27323.41
695.13	27325.75
695.26	27257.88
695.39	27154.90
695.53	27674.49
695.66	27541.08
695.80	27271.92
695.93	26995.74
696.07	26902.12
696.20	27058.93
696.33	26874.03
696.47	26738.28
696.60	26459.76
696.73	25816.11
696.87	26373.16
697.00	26012.71
697.14	25656.95
697.27	25273.10
697.40	25731.85
697.54	25198.21
697.67	25397.15
697.80	25193.53
697.94	24734.78
698.07	25139.69
698.21	25165.44
698.34	24964.15
698.47	24655.20
698.61	24613.07
698.74	25048.41
698.87	24407.11
699.01	24285.40
699.14	24229.23
699.27	24245.61
699.40	24294.76
699.54	24135.60
699.67	23318.76
699.80	23768.14
699.94	23613.66
700.07	23445.15
700.20	23269.61
700.34	23063.64
700.47	23140.88
700.60	23463.87
700.73	23033.21
700.87	23154.92
701.00	22572.13
701.13	23073.00
701.26	22782.77
701.40	22941.93
701.53	22670.43
701.66	22541.70
701.79	22609.58
701.93	22209.34
702.06	22143.81
702.19	21816.13
702.32	21680.38
702.46	21923.80
702.59	21291.85
702.72	21128.02
702.85	21319.94
702.99	21324.62
703.12	21223.98
703.25	21043.76
703.38	21118.65
703.51	20994.61
703.65	21167.80
703.78	20673.95
703.91	21003.97
704.04	20751.19
704.17	20479.69
704.31	20524.16
704.44	20561.61
704.57	20421.17
704.70	19850.08
704.83	19751.78
704.96	19864.13
705.10	20166.06
705.23	19892.21
>>>>>End Processed Spectral Data<<<<<
