SpectraSuite Data File
++++++++++++++++++++++++++++++++++++
Date: Fri Oct 18 13:54:11 GMT-05:00 2013
User: bianchi
Dark Spectrum Present: No
Reference Spectrum Present: No
Number of Sampled Component Spectra: 1
Spectrometers: USB2+H05261
Integration Time (usec): 100000 (USB2+H05261)
Spectra Averaged: 1 (USB2+H05261)
Boxcar Smoothing: 0 (USB2+H05261)
Correct for Electrical Dark: No (USB2+H05261)
Strobe/Lamp Enabled: No (USB2+H05261)
Correct for Detector Non-linearity: No (USB2+H05261)
Correct for Stray Light: No (USB2+H05261)
Number of Pixels in Processed Spectrum: 2048
>>>>>Begin Processed Spectral Data<<<<<
365.73	0.00
365.92	0.00
366.12	0.00
366.32	0.00
366.52	0.00
366.72	0.00
366.91	0.00
367.11	0.00
367.31	0.00
367.51	0.00
367.70	0.00
367.90	0.00
368.10	0.00
368.30	0.00
368.49	0.00
368.69	0.00
368.89	0.00
369.09	0.00
369.28	0.00
369.48	0.00
369.68	0.00
369.87	0.00
370.07	0.00
370.27	0.00
370.47	4.68
370.66	241.08
370.86	287.89
371.06	330.02
371.25	444.70
371.45	269.16
371.65	400.23
371.84	334.70
372.04	313.63
372.24	393.21
372.44	369.80
372.63	421.30
372.83	533.64
373.03	458.74
373.22	400.23
373.42	477.47
373.62	365.12
373.81	418.96
374.01	514.92
374.21	430.66
374.40	421.30
374.60	526.62
374.79	456.40
374.99	559.39
375.19	550.03
375.38	475.13
375.58	564.07
375.78	566.41
375.97	559.39
376.17	594.50
376.37	531.30
376.56	596.84
376.76	503.22
376.95	491.51
377.15	596.84
377.35	524.28
377.54	589.82
377.74	543.00
377.93	559.39
378.13	596.84
378.33	575.77
378.52	592.16
378.72	582.79
378.91	606.20
379.11	624.92
379.31	582.79
379.50	564.07
379.70	603.86
379.89	624.92
380.09	606.20
380.28	589.82
380.48	655.35
380.68	482.15
380.87	660.03
381.07	713.86
381.26	685.78
381.46	629.60
381.65	685.78
381.85	624.92
382.04	674.07
382.24	739.61
382.43	704.50
382.63	655.35
382.83	648.33
383.02	730.25
383.22	690.46
383.41	681.10
383.61	727.91
383.80	814.51
384.00	678.76
384.19	781.74
384.39	767.70
384.58	784.08
384.78	805.14
384.97	781.74
385.17	765.36
385.36	774.72
385.56	863.66
385.75	741.95
385.95	774.72
386.14	744.29
386.34	763.01
386.53	791.10
386.72	837.91
386.92	837.91
387.11	823.87
387.31	936.21
387.50	856.64
387.70	933.87
387.89	947.92
388.09	912.81
388.28	931.53
388.48	842.59
388.67	990.05
388.86	950.26
389.06	933.87
389.25	971.32
389.45	954.94
389.64	908.13
389.84	1097.71
390.03	1081.33
390.22	1013.45
390.42	1011.11
390.61	978.34
390.81	1013.45
391.00	1013.45
391.19	997.07
391.39	1064.94
391.58	1043.88
391.78	1015.79
391.97	1135.16
392.16	1097.71
392.36	1132.82
392.55	1060.26
392.75	1095.37
392.94	1123.46
393.13	1114.10
393.33	1203.04
393.52	1109.41
393.71	1247.51
393.91	1193.67
394.10	1151.54
394.29	1156.22
394.49	1280.27
394.68	1233.46
394.88	1224.10
395.07	1320.06
395.26	1322.40
395.46	1219.42
395.65	1301.34
395.84	1294.32
396.04	1317.72
396.23	1280.27
396.42	1357.51
396.62	1352.83
396.81	1416.02
397.00	1336.45
397.19	1411.34
397.39	1284.95
397.58	1343.47
397.77	1432.41
397.97	1469.86
398.16	1448.79
398.35	1437.09
398.55	1397.30
398.74	1511.99
398.93	1448.79
399.12	1516.67
399.32	1521.35
399.51	1556.46
399.70	1647.74
399.90	1516.67
400.09	1687.53
400.28	1629.01
400.47	1633.69
400.67	1629.01
400.86	1689.87
401.05	1570.50
401.24	1582.20
401.44	1675.82
401.63	1689.87
401.82	1818.60
402.01	1710.93
402.21	1834.98
402.40	1762.42
402.59	1746.04
402.78	1907.54
402.97	1809.23
403.17	1844.34
403.36	1898.17
403.55	1867.75
403.74	1921.58
403.93	1984.77
404.13	1912.22
404.32	1912.22
404.51	1874.77
404.70	2015.20
404.89	1921.58
405.09	2062.01
405.28	2054.99
405.47	1952.01
405.66	2122.87
405.85	2183.72
406.05	2134.57
406.24	2108.82
406.43	2094.78
406.62	2181.38
406.81	2338.20
407.00	2249.25
407.20	2214.15
407.39	2193.08
407.58	2277.34
407.77	2312.45
407.96	2408.41
408.15	2349.90
408.34	2331.17
408.54	2298.41
408.73	2406.07
408.92	2345.22
409.11	2417.77
409.30	2504.37
409.49	2586.29
409.68	2452.88
409.87	2539.48
410.07	2658.85
410.26	2567.57
410.45	2700.98
410.64	2736.09
410.83	2696.30
411.02	2693.96
411.21	2689.28
411.40	2761.83
411.59	2715.02
411.78	2850.77
411.98	2708.00
412.17	2820.35
412.36	2813.32
412.55	2897.58
412.74	2916.31
412.93	3009.93
413.12	3002.91
413.31	3063.76
413.50	3059.08
413.69	3070.78
413.88	3115.25
414.07	3328.24
414.26	3281.43
414.45	3318.88
414.64	3297.81
414.83	3241.64
415.02	3330.58
415.22	3356.33
415.41	3407.82
415.60	3552.93
415.79	3440.59
415.98	3506.12
416.17	3529.53
416.36	3581.02
416.55	3698.05
416.74	3609.11
416.93	3574.00
417.12	3794.01
417.31	3775.28
417.50	3611.45
417.69	3911.04
417.88	3922.74
418.07	3915.72
418.26	3812.73
418.45	4021.04
418.64	4009.34
418.83	4056.15
419.02	3913.38
419.21	4028.06
419.39	4102.96
419.58	4023.38
419.77	4105.30
419.96	4147.43
420.15	4276.16
420.34	4098.28
420.53	4198.92
420.72	4215.30
420.91	4262.12
421.10	4252.75
421.29	4428.29
421.48	4234.03
421.67	4421.27
421.86	4278.50
422.05	4418.93
422.24	4297.22
422.43	4341.69
422.61	4650.64
422.80	4472.76
422.99	4393.19
423.18	4718.52
423.37	4690.43
423.56	4517.23
423.75	4542.98
423.94	4524.26
424.13	4184.88
424.32	4430.63
424.50	4561.70
424.69	4741.93
424.88	4568.73
425.07	4531.28
425.26	4535.96
425.45	4475.10
425.64	4727.88
425.83	4589.79
426.01	4751.29
426.20	4531.28
426.39	4744.27
426.58	4741.93
426.77	4624.90
426.96	4699.80
427.15	4681.07
427.33	4833.21
427.52	4741.93
427.71	4833.21
427.90	4856.61
428.09	5001.72
428.28	4926.83
428.46	5015.77
428.65	4880.02
428.84	5004.07
429.03	5195.99
429.22	5006.41
429.40	4940.87
429.59	5048.54
429.78	4919.81
429.97	4957.25
430.16	5097.69
430.34	5100.03
430.53	5174.92
430.72	5142.16
430.91	5060.24
431.10	5263.86
431.28	5338.76
431.47	5235.78
431.66	5373.87
431.85	5284.93
432.03	5509.62
432.22	5547.07
432.41	5584.52
432.60	5565.79
432.79	5490.90
432.97	5467.49
433.16	5619.63
433.35	5624.31
433.54	5762.40
433.72	5703.89
433.91	5572.82
434.10	5605.58
434.28	5710.91
434.47	5771.76
434.66	5813.89
434.85	5781.12
435.03	5844.32
435.22	5813.89
435.41	6122.84
435.59	6015.18
435.78	5926.24
435.97	6012.84
436.16	5984.75
436.34	5874.74
436.53	6029.22
436.72	6190.72
436.90	5996.45
437.09	6314.77
437.28	6024.54
437.46	6193.06
437.65	6099.44
437.84	6345.19
438.02	6520.73
438.21	6328.81
438.40	6246.89
438.58	6466.90
438.77	6520.73
438.96	6600.31
439.14	6689.25
439.33	6705.63
439.52	6736.06
439.70	6754.79
439.89	6867.13
440.08	6855.43
440.26	6974.80
440.45	6855.43
440.63	6949.05
440.82	7227.57
441.01	6979.48
441.19	7119.91
441.38	7290.77
441.57	7176.08
441.75	7176.08
441.94	7410.14
442.12	7351.62
442.31	7620.78
442.50	7253.32
442.68	7508.44
442.87	7506.10
443.05	7613.76
443.24	7833.77
443.43	7751.85
443.61	7644.19
443.80	7906.33
443.98	7522.48
444.17	7323.54
444.35	7730.79
444.54	7817.39
444.73	7573.97
444.91	7777.60
445.10	8063.15
445.28	7705.04
445.47	7651.21
445.65	7632.49
445.84	7831.43
446.02	7903.99
446.21	7665.25
446.39	7644.19
446.58	8060.80
446.77	7995.27
446.95	7747.17
447.14	7714.41
447.32	7990.59
447.51	7911.01
447.69	7878.24
447.88	7981.23
448.06	7840.79
448.25	7918.03
448.43	7861.86
448.62	7964.84
448.80	8086.55
448.99	8037.40
449.17	8025.70
449.36	8121.66
449.54	8271.45
449.73	8262.09
449.91	8369.76
450.10	8573.38
450.28	8489.12
450.46	8311.24
450.65	8276.13
450.83	8416.57
451.02	8549.98
451.20	8627.21
451.39	8624.87
451.57	8554.66
451.76	8463.38
451.94	8727.86
452.13	8622.53
452.31	8816.80
452.49	8409.54
452.68	8596.79
452.86	8620.19
453.05	8830.84
453.23	8954.89
453.42	8641.26
453.60	8926.80
453.78	8959.57
453.97	8816.80
454.15	8943.19
454.34	8755.94
454.52	9039.15
454.70	8887.01
454.89	8990.00
455.07	9146.81
455.26	9053.19
455.44	9224.05
455.62	9415.98
455.81	9540.02
455.99	9301.29
456.17	9376.19
456.36	9226.39
456.54	9682.80
456.73	9549.39
456.91	9802.16
457.09	9626.62
457.28	9832.59
457.46	9685.14
457.64	9935.57
457.83	9813.87
458.01	9472.15
458.19	9921.53
458.38	9844.29
458.56	9956.64
458.74	9977.70
458.93	9989.41
459.11	10125.16
459.29	9792.80
459.48	10040.90
459.66	9933.23
459.84	10099.41
460.03	10237.50
460.21	10289.00
460.39	10298.36
460.57	10200.05
460.76	10242.18
460.94	10331.12
461.12	10406.02
461.31	10204.74
461.49	10413.04
461.67	10382.62
461.85	10483.26
462.04	10532.41
462.22	11047.33
462.40	10712.63
462.59	10803.91
462.77	10717.31
462.95	10740.72
463.13	10752.42
463.32	10827.32
463.50	10803.91
463.68	10958.39
463.86	10862.43
464.05	10876.47
464.23	10916.26
464.41	11061.37
464.59	10775.83
464.78	11145.63
464.96	10937.32
465.14	11052.01
465.32	11091.80
465.50	11272.02
465.69	11318.83
465.87	11211.17
466.05	11112.86
466.23	11239.25
466.41	11494.37
466.60	11534.16
466.78	11382.03
466.96	11323.51
467.14	11370.32
467.32	11433.52
467.51	11445.22
467.69	11215.85
467.87	11852.47
468.05	11597.35
468.23	11428.84
468.41	11803.32
468.60	11805.66
468.78	11672.25
468.96	11620.76
469.14	11712.04
469.32	12072.48
469.50	11667.57
469.69	12166.10
469.87	12138.02
470.05	12161.42
470.23	12294.83
470.41	12032.69
470.59	12262.07
470.77	12091.21
470.95	12423.56
471.14	12475.06
471.32	12123.98
471.50	12498.46
471.68	12381.43
471.86	12432.93
472.04	12774.64
472.22	12987.63
472.40	12737.20
472.58	12936.14
472.77	12982.95
472.95	13036.78
473.13	13532.98
473.31	12910.40
473.49	13207.64
473.67	13324.67
473.85	13128.06
474.03	13500.21
474.21	13383.18
474.39	13715.54
474.57	13706.18
474.75	13886.40
474.93	14012.79
475.12	14043.21
475.30	14015.13
475.48	13968.32
475.66	14178.97
475.84	13909.80
476.02	14281.95
476.20	14146.20
476.38	14752.40
476.56	14890.49
476.74	14850.70
476.92	14602.60
477.10	14853.04
477.28	15335.19
477.46	14759.42
477.64	15248.59
477.82	15499.03
478.00	15590.31
478.18	15761.17
478.36	15782.23
478.54	15700.31
478.72	15967.13
478.90	16023.31
479.08	16278.43
479.26	16168.42
479.44	16549.93
479.62	16699.72
479.80	16767.60
479.98	16650.57
480.16	16912.71
480.34	16950.16
480.52	17055.48
480.70	17254.43
480.88	16870.58
481.06	17371.46
481.24	17359.75
481.41	17612.53
481.59	17930.84
481.77	17839.56
481.95	18171.92
482.13	18443.42
482.31	18487.89
482.49	18658.75
482.67	18721.95
482.85	19152.60
483.03	18960.68
483.21	19194.73
483.39	19510.71
483.57	19660.50
483.74	19346.87
483.92	19798.59
484.10	19513.05
484.28	20177.76
484.46	20287.76
484.64	20376.70
484.82	20175.42
485.00	20908.01
485.18	20915.03
485.35	21366.75
485.53	21158.44
485.71	21238.02
485.89	21848.90
486.07	21701.45
486.25	21865.28
486.43	21893.37
486.61	22057.21
486.78	22373.18
486.96	22387.22
487.14	23002.78
487.32	22815.54
487.50	23356.21
487.68	22993.42
487.85	23374.93
488.03	23470.89
488.21	24547.54
488.39	24032.62
488.57	24362.64
488.75	24180.07
488.92	24601.37
489.10	24549.88
489.28	24800.32
489.46	25120.97
489.64	24786.27
489.81	25352.68
489.99	25188.85
490.17	25715.47
490.35	26094.63
490.53	25975.27
490.70	26370.82
490.88	26174.21
491.06	26850.63
491.24	26710.19
491.41	26752.32
491.59	27152.55
491.77	27337.46
491.95	27491.93
492.13	27655.77
492.30	27620.66
492.48	27665.13
492.66	28226.86
492.84	27599.60
493.01	28489.00
493.19	28311.12
493.37	28781.57
493.54	28821.36
493.72	28776.89
493.90	29053.07
494.08	29436.92
494.25	29263.72
494.43	29797.36
494.61	30057.16
494.79	30298.23
494.96	29853.53
495.14	30316.96
495.32	30363.77
495.49	30632.93
495.67	30803.79
495.85	30719.53
496.02	31112.74
496.20	31211.04
496.38	31367.86
496.55	31459.14
496.73	32201.09
496.91	31901.50
497.09	32503.02
497.26	32503.02
497.44	32350.88
497.62	32491.32
497.79	32833.04
497.97	32671.54
498.14	33266.03
498.32	33457.96
498.50	33472.00
498.67	34115.65
498.85	33457.96
499.03	33797.34
499.20	34122.67
499.38	33928.41
499.56	34628.23
499.73	34426.94
499.91	34590.78
500.08	34649.29
500.26	34492.47
500.44	34567.37
500.61	35173.57
500.79	35122.08
500.97	35093.99
501.14	35545.72
501.32	35838.28
501.49	35187.61
501.67	35672.10
501.84	35758.70
502.02	35704.87
502.20	36020.84
502.37	36140.21
502.55	36332.14
502.72	36589.59
502.90	36367.24
503.07	36243.20
503.25	36474.91
503.43	36622.36
503.60	37170.05
503.78	37069.40
503.95	37261.33
504.13	37263.67
504.30	37652.20
504.48	37301.12
504.65	37404.10
504.83	37696.67
505.01	38410.53
505.18	38120.31
505.36	38110.94
505.53	38361.38
505.71	37963.49
505.88	38445.64
506.06	38424.57
506.23	38693.74
506.41	38632.88
506.58	38951.20
506.76	39569.10
506.93	39381.85
507.11	38873.96
507.28	39386.54
507.46	39475.48
507.63	39604.20
507.81	39887.41
507.98	39800.81
508.16	39871.03
508.33	39599.52
508.50	39859.32
508.68	39819.53
508.85	40577.87
509.03	40289.98
509.20	40444.46
509.38	40879.80
509.55	40788.52
509.73	40580.21
509.90	40807.24
510.08	41193.43
510.25	41141.94
510.42	40957.03
510.60	41603.02
510.77	41759.84
510.95	41591.32
511.12	40978.10
511.30	41893.25
511.47	41783.24
511.64	41675.58
511.82	41970.49
511.99	42277.10
512.17	42277.10
512.34	42377.74
512.51	42766.27
512.69	42803.72
512.86	42396.46
513.04	42995.64
513.21	43304.59
513.38	43435.66
513.56	43402.89
513.73	43585.46
513.90	43145.44
514.08	43423.96
514.25	43709.50
514.43	43660.35
514.60	43606.52
514.77	43997.39
514.95	43887.39
515.12	43896.75
515.29	43798.44
515.47	44226.76
515.64	44299.32
515.81	44575.50
515.99	44662.10
516.16	45050.63
516.33	45221.49
516.51	44933.60
516.68	44935.95
516.85	44650.40
517.03	45359.58
517.20	45542.14
517.37	45457.88
517.54	45572.57
517.72	45495.33
517.89	45460.23
518.06	45539.80
518.24	45200.43
518.41	45221.49
518.58	45404.05
518.75	45851.09
518.93	46028.98
519.10	45911.95
519.27	46319.20
519.45	45907.27
519.62	46017.27
519.79	46288.77
519.96	46476.02
520.14	46714.75
520.31	46515.81
520.48	46321.54
520.65	46424.53
520.83	46803.69
521.00	46930.08
521.17	46646.88
521.34	46693.69
521.52	47199.24
521.69	46799.01
521.86	47395.85
522.03	47309.25
522.20	47636.92
522.38	47873.32
522.55	47393.51
522.72	47690.76
522.89	47817.14
523.07	48374.19
523.24	47969.28
523.41	48156.52
523.58	48058.22
523.75	47999.71
523.92	48371.85
524.10	48065.24
524.27	48633.99
524.44	48596.54
524.61	48643.35
524.78	48978.05
524.96	48570.80
525.13	48582.50
525.30	48802.51
525.47	48882.09
525.64	48554.41
525.81	48905.49
525.98	49303.38
526.16	49279.98
526.33	49062.31
526.50	49319.77
526.67	49219.13
526.84	49029.54
527.01	49263.60
527.18	49272.96
527.36	49764.47
527.53	49785.54
527.70	50087.46
527.87	50042.99
528.04	49888.52
528.21	49839.37
528.38	50110.87
528.55	49998.52
528.72	49865.11
528.89	50419.82
529.07	50267.69
529.24	49811.28
529.41	50286.41
529.58	50354.29
529.75	50040.65
529.92	50181.09
530.09	50225.56
530.26	50548.55
530.43	50883.25
530.60	50831.75
530.77	50679.62
530.94	50623.45
531.11	50651.53
531.28	50660.90
531.46	50857.50
531.63	50885.59
531.80	50703.03
531.97	51222.62
532.14	51189.86
532.31	50927.72
532.48	51349.01
532.65	51257.73
532.82	50927.72
532.99	51026.02
533.16	51217.94
533.33	51449.66
533.50	51636.90
533.67	51503.49
533.84	51161.77
534.01	51590.09
534.18	51491.79
534.35	51779.67
534.52	51447.32
534.69	51819.46
534.86	52102.67
535.03	51812.44
535.20	51856.91
535.37	52184.58
535.54	52243.10
535.71	51873.29
535.88	51910.74
536.05	52023.09
536.22	52343.74
536.38	52530.98
536.55	52498.22
536.72	52310.97
536.89	52137.77
537.06	52034.79
537.23	52397.57
537.40	52112.03
537.57	52542.69
537.74	52516.94
537.91	52753.33
538.08	52444.38
538.25	52250.12
538.42	52313.31
538.59	52837.59
538.75	52486.51
538.92	52743.97
539.09	52842.27
539.26	52961.64
539.43	53034.20
539.60	52931.22
539.77	53048.24
539.94	53118.46
540.11	53127.82
540.28	53062.29
540.44	52797.80
540.61	52931.22
540.78	52676.10
540.95	53277.61
541.12	53123.14
541.29	53081.01
541.46	53179.31
541.62	53015.47
541.79	53296.34
541.96	53083.35
542.13	53146.54
542.30	53186.33
542.47	53712.95
542.63	53806.58
542.80	53413.37
542.97	53717.64
543.14	53897.86
543.31	53851.05
543.48	53514.01
543.64	53822.96
543.81	53914.24
543.98	53909.56
544.15	54169.36
544.32	54178.72
544.48	54307.45
544.65	54171.70
544.82	54103.82
544.99	54164.68
545.16	54087.44
545.32	54103.82
545.49	54337.88
545.66	54431.50
545.83	54312.13
546.00	54745.13
546.16	54382.35
546.33	54075.74
546.50	53991.48
546.67	54417.46
546.83	54195.10
547.00	54330.86
547.17	54377.67
547.34	54436.18
547.50	54461.93
547.67	54756.83
547.84	54588.31
548.00	54770.88
548.17	54665.55
548.34	54831.73
548.51	54770.88
548.67	54901.95
548.84	54965.14
549.01	54752.15
549.18	54813.01
549.34	54773.22
549.51	54932.37
549.68	54740.45
549.84	54686.62
550.01	54883.22
550.18	54920.67
550.34	55210.90
550.51	55220.26
550.68	55241.32
550.84	54801.30
551.01	55051.74
551.18	54688.96
551.34	54754.49
551.51	55004.93
551.68	55370.05
551.84	55229.62
552.01	55068.12
552.18	55466.02
552.34	54937.05
552.51	55367.71
552.68	54827.05
552.84	55295.16
553.01	55271.75
553.18	55421.55
553.34	55611.13
553.51	55587.72
553.67	55566.66
553.84	56002.00
554.01	55494.10
554.17	55613.47
554.34	55538.57
554.51	55679.00
554.67	55716.45
554.84	55449.63
555.00	55679.00
555.17	55599.43
555.33	55711.77
555.50	55564.32
555.67	55824.12
555.83	55896.67
556.00	55901.36
556.16	55959.87
556.33	55592.40
556.50	55840.50
556.66	55941.14
556.83	55999.66
556.99	55910.72
557.16	56090.94
557.32	56065.19
557.49	55824.12
557.65	55737.52
557.82	56104.98
557.98	56147.11
558.15	56034.77
558.32	56133.07
558.48	56006.68
558.65	56278.18
558.81	56348.40
558.98	56182.22
559.14	56388.19
559.31	55952.85
559.47	56268.82
559.64	56186.90
559.80	56097.96
559.97	56121.37
560.13	56278.18
560.30	56020.72
560.46	56104.98
560.63	56030.08
560.79	56207.97
560.96	56332.01
561.12	56086.26
561.29	56259.46
561.45	56294.56
561.61	56355.42
561.78	56416.27
561.94	56743.95
562.11	56591.81
562.27	56289.88
562.44	56427.98
562.60	56339.04
562.77	56413.93
562.93	56172.86
563.10	56622.24
563.26	56179.88
563.42	56673.73
563.59	56378.82
563.75	56533.30
563.92	56605.86
564.08	56507.55
564.24	56348.40
564.41	56081.58
564.57	56493.51
564.74	56449.04
564.90	56825.87
565.07	56636.28
565.23	56748.63
565.39	56615.22
565.56	56486.49
565.72	56587.13
565.88	56715.86
566.05	56680.75
566.21	56264.14
566.38	56582.45
566.54	56540.32
566.70	56673.73
566.87	56802.46
567.03	56821.19
567.19	56851.61
567.36	56823.53
567.52	56427.98
567.68	56657.35
567.85	56425.64
568.01	56652.67
568.17	56582.45
568.34	56891.40
568.50	56629.26
568.66	56811.82
568.83	56978.00
568.99	56650.33
569.15	56765.01
569.32	56741.61
569.48	56362.44
569.64	56793.10
569.81	56715.86
569.97	56776.72
570.13	56760.33
570.30	56795.44
570.46	56715.86
570.62	56795.44
570.78	56818.84
570.95	56655.01
571.11	56818.84
571.27	56617.56
571.43	56804.80
571.60	56844.59
571.76	56849.27
571.92	57013.11
572.09	57230.78
572.25	56926.51
572.41	56741.61
572.57	56935.87
572.74	56900.76
572.90	56753.31
573.06	56713.52
573.22	56975.66
573.38	56942.89
573.55	57050.56
573.71	57190.99
573.87	57200.35
574.03	57015.45
574.20	57045.88
574.36	56837.57
574.52	57031.83
574.68	56879.70
574.84	56910.13
575.01	56975.66
575.17	57169.93
575.33	56910.13
575.49	56989.70
575.65	56968.64
575.82	56942.89
575.98	57024.81
576.14	56989.70
576.30	56999.07
576.46	56912.47
576.62	56678.41
576.79	56882.04
576.95	56748.63
577.11	56985.02
577.27	56804.80
577.43	56858.63
577.59	56835.23
577.75	56886.72
577.92	56697.14
578.08	56963.96
578.24	56980.34
578.40	56860.97
578.56	57066.94
578.72	56949.92
578.88	57034.17
579.04	57092.69
579.21	57062.26
579.37	56839.91
579.53	56781.40
579.69	57006.09
579.85	57059.92
580.01	56994.39
580.17	56823.53
580.33	56882.04
580.49	57064.60
580.65	56828.21
580.82	57186.31
580.98	56975.66
581.14	57027.15
581.30	57104.39
581.46	56928.85
581.62	56912.47
581.78	56961.62
581.94	57010.77
582.10	57092.69
582.26	56898.42
582.42	57062.26
582.58	57015.45
582.74	57034.17
582.90	57160.56
583.06	57284.61
583.22	56994.39
583.38	56816.50
583.54	57045.88
583.70	56849.27
583.86	56802.46
584.02	56942.89
584.18	57139.50
584.34	57176.95
584.50	57279.93
584.66	57338.44
584.82	56968.64
584.98	57230.78
585.14	56905.44
585.30	56853.95
585.46	56961.62
585.62	57027.15
585.78	57036.51
585.94	56985.02
586.10	57123.11
586.26	57048.22
586.42	57141.84
586.58	57099.71
586.74	57329.08
586.90	56823.53
587.06	56985.02
587.22	56903.10
587.38	56963.96
587.54	57301.00
587.70	56982.68
587.86	57305.68
588.02	57279.93
588.18	57413.34
588.34	57429.72
588.49	57118.43
588.65	57221.42
588.81	56994.39
588.97	57265.89
589.13	57268.23
589.29	57481.22
589.45	57174.61
589.61	57413.34
589.77	57373.55
589.93	57205.03
590.08	57333.76
590.24	57521.01
590.40	57467.17
590.56	57595.90
590.72	57352.49
590.88	56868.00
591.04	57272.91
591.20	57593.56
591.35	57258.87
591.51	57434.41
591.67	57560.79
591.83	57724.63
591.99	57233.12
592.15	57584.20
592.31	57399.30
592.46	57228.44
592.62	57113.75
592.78	57212.06
592.94	57284.61
593.10	57389.94
593.26	57293.97
593.41	57371.21
593.57	57354.83
593.73	57497.60
593.89	57317.38
594.05	57331.42
594.20	57214.40
594.36	57284.61
594.52	57130.14
594.68	57233.12
594.84	57200.35
594.99	57401.64
595.15	57195.67
595.31	57623.99
595.47	57474.20
595.62	57511.64
595.78	57364.19
595.94	57375.89
596.10	57282.27
596.25	57329.08
596.41	57153.54
596.57	56985.02
596.73	57481.22
596.88	57242.48
597.04	57551.43
597.20	57588.88
597.36	57619.31
597.51	57886.13
597.67	57183.97
597.83	57476.54
597.99	57378.23
598.14	57406.32
598.30	57331.42
598.46	57331.42
598.61	57148.86
598.77	57434.41
598.93	57530.37
599.09	57521.01
599.24	57851.02
599.40	57490.58
599.56	57446.11
599.71	57279.93
599.87	57504.62
600.03	57446.11
600.18	57247.16
600.34	57378.23
600.50	57364.19
600.65	57305.68
600.81	57350.15
600.97	57560.79
601.12	57385.25
601.28	57516.32
601.44	57401.64
601.59	57420.36
601.75	57347.81
601.91	57221.42
602.06	57291.63
602.22	57371.21
602.37	57586.54
602.53	57151.20
602.69	57670.80
602.84	57359.51
603.00	57453.13
603.16	57642.71
603.31	57373.55
603.47	57518.67
603.62	57361.85
603.78	57303.34
603.94	57301.00
604.09	57310.36
604.25	57375.89
604.40	57076.30
604.56	57434.41
604.71	57504.62
604.87	57240.14
605.03	57539.73
605.18	57315.04
605.34	57289.29
605.49	57132.48
605.65	57214.40
605.80	56949.92
605.96	57160.56
606.12	57120.77
606.27	57396.96
606.43	57319.72
606.58	57312.70
606.74	57261.21
606.89	57317.38
607.05	57436.75
607.20	57254.18
607.36	57205.03
607.51	57305.68
607.67	57109.07
607.82	57207.37
607.98	57008.43
608.13	57104.39
608.29	57198.01
608.44	57055.24
608.60	57162.90
608.75	57235.46
608.91	57195.67
609.06	57193.33
609.22	57188.65
609.37	56933.53
609.53	57137.16
609.68	56877.36
609.84	56863.32
609.99	57181.63
610.15	56900.76
610.30	57263.55
610.46	57020.13
610.61	57132.48
610.76	57041.20
610.92	57230.78
611.07	57052.90
611.23	56837.57
611.38	56945.23
611.54	56921.83
611.69	57045.88
611.84	56762.67
612.00	56875.02
612.15	56825.87
612.31	57003.75
612.46	57041.20
612.62	57038.86
612.77	57043.54
612.92	57418.02
613.08	56905.44
613.23	56814.16
613.39	56633.94
613.54	56711.18
613.69	56662.03
613.85	56769.69
614.00	56858.63
614.15	56914.81
614.31	56772.03
614.46	57050.56
614.62	56945.23
614.77	56860.97
614.92	57003.75
615.08	56825.87
615.23	56795.44
615.38	56666.71
615.54	56732.25
615.69	56533.30
615.84	56271.16
616.00	56858.63
616.15	56310.95
616.30	56601.18
616.46	56612.88
616.61	56655.01
616.76	56666.71
616.92	56392.87
617.07	56530.96
617.22	56657.35
617.37	56128.39
617.53	56502.87
617.68	56261.80
617.83	56378.82
617.99	56402.23
618.14	56301.59
618.29	56303.93
618.45	56416.27
618.60	56568.41
618.75	56493.51
618.90	56617.56
619.06	56467.76
619.21	56442.02
619.36	56477.13
619.51	55997.32
619.67	55941.14
619.82	56053.49
619.97	56336.69
620.12	56020.72
620.28	55985.61
620.43	56086.26
620.58	56299.25
620.73	55985.61
620.89	56006.68
621.04	56236.05
621.19	55833.48
621.34	56210.31
621.49	56053.49
621.65	55938.80
621.80	56196.26
621.95	55611.13
622.10	55966.89
622.25	55976.25
622.41	55966.89
622.56	55910.72
622.71	55945.83
622.86	55849.86
623.01	55913.06
623.16	55985.61
623.32	55737.52
623.47	55569.00
623.62	55648.58
623.77	55601.77
623.92	55643.90
624.07	55728.16
624.23	55592.40
624.38	55744.54
624.53	55716.45
624.68	55789.01
624.83	55861.57
624.98	55798.37
625.13	55643.90
625.29	55781.99
625.44	55466.02
625.59	55447.29
625.74	55461.33
625.89	55086.85
626.04	55416.86
626.19	55543.25
626.34	55360.69
626.49	55435.59
626.65	55515.17
626.80	55456.65
626.95	55267.07
627.10	55473.04
627.25	55339.63
627.40	55150.04
627.55	55114.94
627.70	55152.38
627.85	54784.92
628.00	54876.20
628.15	55018.97
628.30	54850.45
628.45	55037.70
628.60	54908.97
628.76	55175.79
628.91	55143.02
629.06	55192.17
629.21	55098.55
629.36	54967.48
629.51	54901.95
629.66	54887.90
629.81	54883.22
629.96	54791.94
630.11	54639.81
630.26	55009.61
630.41	54707.68
630.56	54658.53
630.71	54869.18
630.86	54768.54
631.01	54829.39
631.16	54939.39
631.31	54836.41
631.46	54665.55
631.61	55047.06
631.76	54749.81
631.91	54569.59
632.06	54415.11
632.21	54515.76
632.36	54513.42
632.51	54443.20
632.66	54447.88
632.81	54457.24
632.96	54590.66
633.10	54564.91
633.25	54546.18
633.40	54850.45
633.55	54454.90
633.70	54188.08
633.85	54356.60
634.00	54588.31
634.15	54443.20
634.30	54309.79
634.45	54543.84
634.60	54574.27
634.75	54464.27
634.90	54319.15
635.05	54471.29
635.19	54471.29
635.34	54583.63
635.49	54160.00
635.64	54452.56
635.79	54305.11
635.94	54232.55
636.09	54057.01
636.24	53937.65
636.39	53801.89
636.53	54281.70
636.68	54052.33
636.83	54234.89
636.98	54195.10
637.13	53862.75
637.28	54038.29
637.43	54363.62
637.57	54302.77
637.72	53914.24
637.87	54040.63
638.02	53860.41
638.17	53694.23
638.32	53811.26
638.46	53612.31
638.61	53649.76
638.76	53668.48
638.91	53649.76
639.06	53942.33
639.20	53324.43
639.35	53876.79
639.50	53521.03
639.65	54031.27
639.80	53998.50
639.94	53844.02
640.09	53429.75
640.24	53495.28
640.39	53556.14
640.54	53457.84
640.68	53263.57
640.83	53406.34
640.98	53027.18
641.13	52877.38
641.27	53354.85
641.42	52996.75
641.57	53371.24
641.72	53577.20
641.86	53364.21
642.01	53198.04
642.16	53436.77
642.31	53099.73
642.45	53371.24
642.60	53055.26
642.75	53083.35
642.90	53116.12
643.04	52877.38
643.19	53066.97
643.34	53279.96
643.48	53043.56
643.63	53069.31
643.78	53052.92
643.93	53340.81
644.07	53092.71
644.22	53165.27
644.37	52844.62
644.51	53155.91
644.66	53038.88
644.81	53031.86
644.95	52631.63
645.10	52802.49
645.25	52758.02
645.39	53015.47
645.54	52809.51
645.69	52865.68
645.83	52638.65
645.98	53034.20
646.13	52893.77
646.27	52802.49
646.42	52439.70
646.57	52638.65
646.71	52587.16
646.86	52636.31
647.00	52589.50
647.15	52589.50
647.30	52282.89
647.44	52413.96
647.59	52378.85
647.74	52224.37
647.88	52399.91
648.03	52404.59
648.17	52416.30
648.32	52383.53
648.47	52472.47
648.61	52315.65
648.76	52617.58
648.90	52411.62
649.05	52158.84
649.20	52200.97
649.34	52428.00
649.49	52254.80
649.63	51985.64
649.78	52018.41
649.92	51920.10
650.07	52680.78
650.21	52193.95
650.36	52282.89
650.51	52299.27
650.65	52348.42
650.80	52130.75
650.94	51924.78
651.09	52264.16
651.23	51959.89
651.38	52175.22
651.52	51887.34
651.67	52044.15
651.81	51803.08
651.96	51463.70
652.10	51903.72
652.25	51877.97
652.39	51693.07
652.54	51812.44
652.68	51948.19
652.83	51442.63
652.97	51861.59
653.12	51711.80
653.26	51224.96
653.41	51742.22
653.55	51805.42
653.70	51381.78
653.84	51334.97
653.99	51224.96
654.13	51428.59
654.27	51147.73
654.42	51650.94
654.56	51419.23
654.71	51264.75
654.85	51512.85
655.00	51643.92
655.14	51414.55
655.29	51297.52
655.43	51484.76
655.57	51374.76
655.72	50899.63
655.86	51168.79
656.01	50813.03
656.15	50845.80
656.30	50866.86
656.44	50972.19
656.58	51114.96
656.73	51028.36
656.87	51054.11
657.01	50831.75
657.16	51143.05
657.30	51084.53
657.45	51217.94
657.59	50962.82
657.73	50885.59
657.88	51000.27
658.02	50742.81
658.16	50499.40
658.31	51250.71
658.45	50581.32
658.60	50246.62
658.74	50356.63
658.88	50429.18
659.03	50452.59
659.17	50349.60
659.31	50597.70
659.46	50373.01
659.60	50609.40
659.74	50534.51
659.89	50267.69
660.03	50115.55
660.17	50621.11
660.32	50085.12
660.46	49932.99
660.60	50094.49
660.74	49982.14
660.89	49649.78
661.03	49785.54
661.17	49794.90
661.32	49614.68
661.46	49806.60
661.60	49727.02
661.74	49759.79
661.89	49727.02
662.03	49743.41
662.17	49832.35
662.31	49198.06
662.46	49778.51
662.60	49507.01
662.74	49471.90
662.88	48982.73
663.03	48964.01
663.17	48828.26
663.31	48828.26
663.45	48893.79
663.60	48641.01
663.74	48903.15
663.88	49198.06
664.02	48783.79
664.17	49118.48
664.31	48346.11
664.45	48837.62
664.59	49031.88
664.73	48781.45
664.88	48413.98
665.02	48100.35
665.16	48140.14
665.30	48039.50
665.44	48072.26
665.59	47648.63
665.73	48130.78
665.87	48067.58
666.01	48369.51
666.15	48191.63
666.29	47896.72
666.44	47931.83
666.58	47948.21
666.72	48058.22
666.86	48034.81
667.00	47995.03
667.14	47587.77
667.28	47838.21
667.43	47358.40
667.57	47915.45
667.71	47653.31
667.85	47529.26
667.99	47536.28
668.13	47400.53
668.27	47503.51
668.41	47150.09
668.56	46916.04
668.70	47304.57
668.84	47246.05
668.98	46876.25
669.12	47051.79
669.26	46894.97
669.40	46635.17
669.54	46429.21
669.68	46129.62
669.82	46447.93
669.96	46358.99
670.10	45951.74
670.25	45982.16
670.39	45991.53
670.53	46335.59
670.67	45790.24
670.81	46375.37
670.95	46010.25
671.09	46052.38
671.23	45937.69
671.37	45895.56
671.51	45825.35
671.65	45979.82
671.79	45572.57
671.93	45701.30
672.07	45881.52
672.21	45352.56
672.35	44769.77
672.49	44905.52
672.63	44748.70
672.77	44861.05
672.91	44800.19
673.05	44818.92
673.19	44617.63
673.33	44711.25
673.47	45333.84
673.61	44837.64
673.75	44526.35
673.89	44493.58
674.03	44334.43
674.17	44460.82
674.31	44074.63
674.45	44374.22
674.59	43983.35
674.73	44100.37
674.87	43461.41
675.01	43903.77
675.15	43597.16
675.29	43632.27
675.43	43386.51
675.56	43845.26
675.70	43388.85
675.84	43672.06
675.98	42146.03
676.12	43496.52
676.26	43824.19
676.40	43290.55
676.54	43138.41
676.68	43168.84
676.82	41916.65
676.96	42323.91
677.10	42466.68
677.23	41998.57
677.37	42068.79
677.51	41916.65
677.65	42148.37
677.79	41720.05
677.93	41368.97
678.07	41368.97
678.21	41324.50
678.34	41118.53
678.48	41572.60
678.62	40985.12
678.76	40875.12
678.90	40563.82
679.04	41193.43
679.18	40650.42
679.31	40037.20
679.45	40308.71
679.59	39864.00
679.73	40437.44
679.87	39955.29
680.00	39845.28
680.14	39246.10
680.28	39533.99
680.42	39498.88
680.56	39313.98
680.70	39274.19
680.83	39379.51
680.97	39199.29
681.11	39672.08
681.25	39122.05
681.39	39351.43
681.52	38801.40
681.66	38916.09
681.80	38384.79
681.94	38658.63
682.07	37993.92
682.21	38139.03
682.35	38110.94
682.49	37729.44
682.62	37823.06
682.76	37734.12
682.90	37619.43
683.04	37682.62
683.17	37436.87
683.31	37556.24
683.45	37731.78
683.59	37219.20
683.72	37205.16
683.86	36577.89
684.00	36706.62
684.13	36493.63
684.27	36484.27
684.41	36060.63
684.55	36231.49
684.68	36332.14
684.82	35775.09
684.96	35723.60
685.09	35510.61
685.23	35583.16
685.37	35353.79
685.50	35763.39
685.64	35849.99
685.78	35182.93
685.91	35178.25
686.05	35239.11
686.19	34658.65
686.32	34852.92
686.46	34583.76
686.60	34375.45
686.73	34483.11
686.87	34433.96
687.01	33853.51
687.14	34218.63
687.28	33771.59
687.42	34375.45
687.55	33406.47
687.69	33546.90
687.82	33156.03
687.96	33261.35
688.10	33261.35
688.23	33464.98
688.37	33347.95
688.50	33039.00
688.64	32828.35
688.78	32418.76
688.91	32442.17
689.05	32444.51
689.18	32912.61
689.32	31578.51
689.46	31892.14
689.59	31997.46
689.73	32182.37
689.86	31784.48
690.00	31707.24
690.13	31641.70
690.27	31585.53
690.41	31379.56
690.54	31316.37
690.68	31634.68
690.81	31220.41
690.95	31440.42
691.08	31136.15
691.22	31000.40
691.35	30565.06
691.49	31054.23
691.62	30345.05
691.76	30410.58
691.89	30089.93
692.03	30024.39
692.16	29720.12
692.30	29427.56
692.43	30036.09
692.57	29610.12
692.70	29652.25
692.84	29397.13
692.97	29254.36
693.11	29340.96
693.24	29181.80
693.38	29202.86
693.51	28926.68
693.65	29352.66
693.78	28819.02
693.92	28868.17
694.05	28837.74
694.19	28456.23
694.32	28439.85
694.45	28423.47
694.59	27763.43
694.72	27433.42
694.86	27824.29
694.99	27332.78
695.13	27501.29
695.26	27421.72
695.39	27360.86
695.53	27412.35
695.66	27461.51
695.80	27248.52
695.93	27026.17
696.07	27065.96
696.20	27129.15
696.33	26726.58
696.47	26780.41
696.60	26382.52
696.73	26642.32
696.87	26103.99
697.00	26258.47
697.14	26218.68
697.27	25488.43
697.40	25635.89
697.54	25727.17
697.67	25408.86
697.80	25270.76
697.94	25249.70
698.07	25088.20
698.21	25439.28
698.34	25291.83
698.47	25191.19
698.61	24793.29
698.74	24844.79
698.87	24814.36
699.01	24627.12
699.14	24313.48
699.27	24645.84
699.40	24252.63
699.54	24156.67
699.67	23791.55
699.80	23688.56
699.94	23281.31
700.07	23456.85
700.20	23386.63
700.34	23250.88
700.47	23278.97
700.60	23112.79
700.73	23227.48
700.87	22719.58
701.00	23194.71
701.13	22738.30
701.26	22752.35
701.40	23012.15
701.53	22480.85
701.66	22651.70
701.79	22370.84
701.93	22476.16
702.06	22375.52
702.19	22097.00
702.32	21631.23
702.46	22057.21
702.59	21455.69
702.72	21448.67
702.85	21617.19
702.99	21249.72
703.12	21429.94
703.25	21249.72
703.38	21235.68
703.51	21280.15
703.65	20903.32
703.78	20865.88
703.91	20533.52
704.04	21088.23
704.17	20807.36
704.31	20666.93
704.44	20374.36
704.57	20311.17
704.70	20016.26
704.83	20063.07
704.96	19793.91
705.10	19730.72
705.23	19627.73
>>>>>End Processed Spectral Data<<<<<
