SpectraSuite Data File
++++++++++++++++++++++++++++++++++++
Date: Fri Oct 18 13:55:50 GMT-05:00 2013
User: bianchi
Dark Spectrum Present: No
Reference Spectrum Present: No
Number of Sampled Component Spectra: 1
Spectrometers: USB2+H05261
Integration Time (usec): 100000 (USB2+H05261)
Spectra Averaged: 1 (USB2+H05261)
Boxcar Smoothing: 0 (USB2+H05261)
Correct for Electrical Dark: No (USB2+H05261)
Strobe/Lamp Enabled: No (USB2+H05261)
Correct for Detector Non-linearity: No (USB2+H05261)
Correct for Stray Light: No (USB2+H05261)
Number of Pixels in Processed Spectrum: 2048
>>>>>Begin Processed Spectral Data<<<<<
365.73	0.00
365.92	0.00
366.12	0.00
366.32	0.00
366.52	0.00
366.72	0.00
366.91	0.00
367.11	0.00
367.31	0.00
367.51	0.00
367.70	0.00
367.90	0.00
368.10	0.00
368.30	0.00
368.49	0.00
368.69	0.00
368.89	0.00
369.09	0.00
369.28	0.00
369.48	0.00
369.68	0.00
369.87	0.00
370.07	0.00
370.27	0.00
370.47	35.11
370.66	191.92
370.86	327.68
371.06	257.46
371.25	339.38
371.45	311.29
371.65	330.02
371.84	294.91
372.04	271.50
372.24	278.52
372.44	322.99
372.63	325.33
372.83	367.46
373.03	421.30
373.22	306.61
373.42	362.78
373.62	402.57
373.81	402.57
374.01	428.32
374.21	411.93
374.40	425.98
374.60	388.53
374.79	409.59
374.99	367.46
375.19	444.70
375.38	435.34
375.58	470.45
375.78	470.45
375.97	540.66
376.17	512.58
376.37	500.87
376.56	463.43
376.76	505.56
376.95	505.56
377.15	395.55
377.35	421.30
377.54	491.51
377.74	440.02
377.93	514.92
378.13	451.72
378.33	440.02
378.52	503.22
378.72	559.39
378.91	564.07
379.11	538.32
379.31	573.43
379.50	528.96
379.70	608.54
379.89	521.94
380.09	500.87
380.28	645.99
380.48	545.34
380.68	561.73
380.87	505.56
381.07	538.32
381.26	603.86
381.46	540.66
381.65	660.03
381.85	535.98
382.04	622.58
382.24	624.92
382.43	596.84
382.63	615.56
382.83	634.29
383.02	650.67
383.22	702.16
383.41	603.86
383.61	636.63
383.80	709.18
384.00	622.58
384.19	653.01
384.39	690.46
384.58	643.65
384.78	732.59
384.97	727.91
385.17	739.61
385.36	739.61
385.56	624.92
385.75	657.69
385.95	758.33
386.14	767.70
386.34	645.99
386.53	737.27
386.72	695.14
386.92	765.36
387.11	800.46
387.31	791.10
387.50	739.61
387.70	725.57
387.89	805.14
388.09	786.42
388.28	706.84
388.48	823.87
388.67	835.57
388.86	793.44
389.06	835.57
389.25	791.10
389.45	854.30
389.64	828.55
389.84	924.51
390.03	903.45
390.22	933.87
390.42	910.47
390.61	877.70
390.81	758.33
391.00	896.43
391.19	912.81
391.39	889.40
391.58	952.60
391.78	903.45
391.97	947.92
392.16	1022.81
392.36	1029.84
392.55	964.30
392.75	1011.11
392.94	987.71
393.13	1048.56
393.33	922.17
393.52	976.00
393.71	1025.15
393.91	1032.18
394.10	1013.45
394.29	1104.73
394.49	1100.05
394.68	1029.84
394.88	1123.46
395.07	1067.28
395.26	1095.37
395.46	1100.05
395.65	1158.57
395.84	1132.82
396.04	1198.35
396.23	1165.59
396.42	1146.86
396.62	1186.65
396.81	1210.06
397.00	1158.57
397.19	1167.93
397.39	1245.16
397.58	1294.32
397.77	1200.69
397.97	1240.48
398.16	1210.06
398.35	1336.45
398.55	1275.59
398.74	1252.19
398.93	1331.76
399.12	1193.67
399.32	1268.57
399.51	1331.76
399.70	1371.55
399.90	1352.83
400.09	1423.05
400.28	1427.73
400.47	1383.26
400.67	1423.05
400.86	1430.07
401.05	1509.65
401.24	1483.90
401.44	1483.90
401.63	1474.54
401.82	1392.62
402.01	1504.96
402.21	1589.22
402.40	1530.71
402.59	1495.60
402.78	1638.38
402.97	1514.33
403.17	1509.65
403.36	1767.10
403.55	1720.29
403.74	1724.97
403.93	1741.36
404.13	1703.91
404.32	1621.99
404.51	1610.29
404.70	1734.34
404.89	1715.61
405.09	1781.15
405.28	1713.27
405.47	1844.34
405.66	1844.34
405.85	1764.76
406.05	1877.11
406.24	1827.96
406.43	1851.36
406.62	1914.56
406.81	1949.67
407.00	1895.83
407.20	1907.54
407.39	1949.67
407.58	1956.69
407.77	2092.44
407.96	2101.80
408.15	2062.01
408.34	2029.24
408.54	2115.84
408.73	2022.22
408.92	2143.93
409.11	2204.78
409.30	2108.82
409.49	2069.03
409.68	2286.70
409.87	2249.25
410.07	2183.72
410.26	2235.21
410.45	2354.58
410.64	2326.49
410.83	2415.43
411.02	2326.49
411.21	2459.90
411.40	2506.71
411.59	2513.74
411.78	2593.31
411.98	2403.73
412.17	2504.37
412.36	2569.91
412.55	2581.61
412.74	2637.78
412.93	2745.45
413.12	2675.23
413.31	2775.88
413.50	2708.00
413.69	2867.16
413.88	2843.75
414.07	2719.70
414.26	2780.56
414.45	3038.02
414.64	2972.48
414.83	2984.18
415.02	2895.24
415.22	3094.19
415.41	3227.60
415.60	3080.14
415.79	3077.80
415.98	3213.56
416.17	3243.98
416.36	3171.43
416.55	3199.51
416.74	3208.87
416.93	3300.16
417.12	3248.66
417.31	3431.23
417.50	3433.57
417.69	3536.55
417.88	3454.63
418.07	3433.57
418.26	3557.61
418.45	3538.89
418.64	3574.00
418.83	3620.81
419.02	3712.09
419.21	3653.58
419.39	3772.94
419.58	3714.43
419.77	3630.17
419.96	3688.68
420.15	3838.48
420.34	3751.88
420.53	3775.28
420.72	3871.25
420.91	3892.31
421.10	3922.74
421.29	3850.18
421.48	3878.27
421.67	4018.70
421.86	3866.56
422.05	3985.93
422.24	3915.72
422.43	3981.25
422.61	3948.48
422.80	4145.09
422.99	4098.28
423.18	4203.60
423.37	4194.24
423.56	4070.19
423.75	4170.83
423.94	4007.00
424.13	3854.86
424.32	3845.50
424.50	4170.83
424.69	4142.75
424.88	4093.60
425.07	4131.05
425.26	4152.11
425.45	4065.51
425.64	4152.11
425.83	4271.48
426.01	4264.46
426.20	4100.62
426.39	4198.92
426.58	4109.98
426.77	4014.02
426.96	4184.88
427.15	4121.68
427.33	4306.59
427.52	4348.72
427.71	4241.05
427.90	4463.40
428.09	4477.44
428.28	4414.25
428.46	4468.08
428.65	4592.13
428.84	4610.86
429.03	4582.77
429.22	4390.84
429.40	4652.98
429.59	4674.05
429.78	4498.51
429.97	4348.72
430.16	4552.34
430.34	4524.26
430.53	4851.93
430.72	4774.69
430.91	4690.43
431.10	4748.95
431.28	4844.91
431.47	4816.82
431.66	4798.10
431.85	4781.71
432.03	4816.82
432.22	5043.85
432.41	4903.42
432.60	5008.75
432.79	4999.38
432.97	4938.53
433.16	4915.12
433.35	4755.97
433.54	5093.01
433.72	5179.61
433.91	5095.35
434.10	5144.50
434.28	5296.63
434.47	4999.38
434.66	5195.99
434.85	5191.31
435.03	5275.57
435.22	5116.41
435.41	5469.83
435.59	5289.61
435.78	5518.98
435.97	5334.08
436.16	5362.17
436.34	5385.57
436.53	5486.22
436.72	5554.09
436.90	5521.32
437.09	5556.43
437.28	5551.75
437.46	5638.35
437.65	5626.65
437.84	5694.52
438.02	5734.31
438.21	5748.36
438.40	5701.54
438.58	5888.79
438.77	6015.18
438.96	5935.60
439.14	6001.13
439.33	6005.81
439.52	6003.47
439.70	6127.52
439.89	6310.08
440.08	6232.85
440.26	6057.31
440.45	6289.02
440.63	6375.62
440.82	6429.45
441.01	6228.17
441.19	6267.95
441.38	6520.73
441.57	6509.03
441.75	6452.86
441.94	6693.93
442.12	6752.45
442.31	6848.41
442.50	6684.57
442.68	6773.51
442.87	6698.61
443.05	6567.54
443.24	6801.60
443.43	6789.89
443.61	6780.53
443.80	7000.54
443.98	6724.36
444.17	6626.06
444.35	7091.82
444.54	7087.14
444.73	7033.31
444.91	6988.84
445.10	6899.90
445.28	7068.42
445.47	7077.78
445.65	6930.33
445.84	7140.97
446.02	7255.66
446.21	7204.17
446.39	7258.00
446.58	6967.77
446.77	7124.59
446.95	6867.13
447.14	6876.49
447.32	7103.53
447.51	7096.50
447.69	7197.15
447.88	7255.66
448.06	7192.47
448.25	7148.00
448.43	7288.43
448.62	7045.01
448.80	7213.53
448.99	7199.49
449.17	7414.82
449.36	7176.08
449.54	7379.71
449.73	7370.35
449.91	7506.10
450.10	7576.31
450.28	7618.44
450.46	7709.72
450.65	7644.19
450.83	7599.72
451.02	7559.93
451.20	7536.52
451.39	7669.94
451.57	7585.68
451.76	7592.70
451.94	7749.51
452.13	7903.99
452.31	7716.75
452.49	7644.19
452.68	7779.94
452.86	7983.57
453.05	7936.76
453.23	8004.63
453.42	7892.29
453.60	7971.86
453.78	7892.29
453.97	7775.26
454.15	7808.03
454.34	7990.59
454.52	8131.02
454.70	8037.40
454.89	8257.41
455.07	8159.11
455.26	8226.98
455.44	8297.20
455.62	8131.02
455.81	8351.03
455.99	8313.58
456.17	8250.39
456.36	8318.26
456.54	8475.08
456.73	8645.94
456.91	8636.58
457.09	8599.13
457.28	8798.07
457.46	8613.17
457.64	8732.54
457.83	8990.00
458.01	8793.39
458.19	8957.23
458.38	8872.97
458.56	9078.94
458.74	8938.51
458.93	9046.17
459.11	9027.45
459.29	8870.63
459.48	8901.06
459.66	9018.08
459.84	9210.01
460.03	9291.93
460.21	9062.55
460.39	9432.36
460.57	9188.94
460.76	9324.69
460.94	9479.17
461.12	9446.40
461.31	9341.08
461.49	9273.20
461.67	9511.94
461.85	9572.79
462.04	9509.60
462.22	10143.88
462.40	9523.64
462.59	9427.68
462.77	9633.64
462.95	9696.84
463.13	9614.92
463.32	9708.54
463.50	9692.16
463.68	9865.36
463.86	9731.95
464.05	9844.29
464.23	9652.37
464.41	9841.95
464.59	9671.09
464.78	9877.06
464.96	10204.74
465.14	9905.15
465.32	10029.20
465.50	10057.28
465.69	10153.24
465.87	9790.46
466.05	10209.42
466.23	9881.74
466.41	10073.67
466.60	10611.99
466.78	10228.14
466.96	10274.95
467.14	10064.30
467.32	10197.71
467.51	10511.35
467.69	10284.31
467.87	10328.78
468.05	10352.19
468.23	10232.82
468.41	10335.81
468.60	10558.16
468.78	10637.73
468.96	10490.28
469.14	10513.69
469.32	10839.02
469.50	10368.57
469.69	10820.30
469.87	11042.65
470.05	10890.51
470.23	10937.32
470.41	10719.65
470.59	11206.48
470.77	11110.52
470.95	11035.63
471.14	11225.21
471.32	10932.64
471.50	11220.53
471.68	11279.04
471.86	11201.80
472.04	11346.92
472.22	11407.77
472.40	11337.56
472.58	11391.39
472.77	11445.22
472.95	11758.85
473.13	12327.60
473.31	11723.74
473.49	11653.53
473.67	11749.49
473.85	11681.61
474.03	11878.22
474.21	11988.22
474.39	12093.55
474.57	11932.05
474.75	12243.34
474.93	12439.95
475.12	12421.22
475.30	12521.87
475.48	12423.56
475.66	12587.40
475.84	12528.89
476.02	12732.51
476.20	12669.32
476.38	13097.64
476.56	13249.77
476.74	13125.72
476.92	13128.06
477.10	13385.52
477.28	13305.95
477.46	13446.38
477.64	13415.95
477.82	13441.70
478.00	13933.21
478.18	13816.18
478.36	13947.25
478.54	14398.98
478.72	14129.81
478.90	14277.27
479.08	14335.78
479.26	14626.01
479.44	14523.02
479.62	14710.27
479.80	14696.22
479.98	14890.49
480.16	15269.66
480.34	15082.41
480.52	15400.72
480.70	15730.74
480.88	15187.74
481.06	15192.42
481.24	15379.66
481.41	15824.36
481.59	16259.70
481.77	15920.32
481.95	15885.22
482.13	16135.65
482.31	16297.15
482.49	16699.72
482.67	16648.23
482.85	16643.55
483.03	16889.31
483.21	17029.74
483.39	17701.47
483.57	17001.65
483.74	17385.50
483.92	17638.28
484.10	17619.55
484.28	17902.76
484.46	18127.45
484.64	18324.05
484.82	17980.00
485.00	18291.29
485.18	18569.81
485.35	18930.25
485.53	18794.50
485.71	18789.82
485.89	19344.53
486.07	19199.41
486.25	19295.38
486.43	19433.47
486.61	19665.18
486.78	19822.00
486.96	19768.16
487.14	20414.15
487.32	20119.24
487.50	20643.52
487.68	20404.79
487.85	20882.26
488.03	21163.12
488.21	21181.85
488.39	21184.19
488.57	21392.50
488.75	21500.16
488.92	21860.60
489.10	21813.79
489.28	22354.46
489.46	22291.26
489.64	22019.76
489.81	22661.07
489.99	22703.20
490.17	22941.93
490.35	23293.01
490.53	23220.45
490.70	23257.90
490.88	23510.68
491.06	23531.75
491.24	23667.50
491.41	23836.02
491.59	23821.97
491.77	24121.56
491.95	24367.32
492.13	24547.54
492.30	24987.56
492.48	24507.75
492.66	24666.91
492.84	25078.84
493.01	25235.66
493.19	25326.94
493.37	25612.48
493.54	25535.24
493.72	25633.55
493.90	26015.05
494.08	25970.58
494.25	26445.71
494.43	26623.59
494.61	26665.72
494.79	26551.04
494.96	26700.83
495.14	26841.26
495.32	27353.84
495.49	27157.24
495.67	27513.00
495.85	27843.01
496.02	27674.49
496.20	27630.02
496.38	27400.65
496.55	28119.20
496.73	28446.87
496.91	27938.97
497.09	28467.94
497.26	28610.71
497.44	28657.52
497.62	28517.09
497.79	29043.71
497.97	28879.87
498.14	29605.44
498.32	29703.74
498.50	29771.61
498.67	30258.45
498.85	29670.97
499.03	29764.59
499.20	29839.49
499.38	30106.31
499.56	30253.76
499.73	30279.51
499.91	30778.04
500.08	30543.99
500.26	30747.62
500.44	30628.25
500.61	31014.44
500.79	30948.90
500.97	31232.11
501.14	31831.29
501.32	31524.68
501.49	31562.12
501.67	31552.76
501.84	32081.72
502.02	31901.50
502.20	31901.50
502.37	32177.68
502.55	32243.22
502.72	32219.81
502.90	32608.34
503.07	32416.42
503.25	32257.26
503.43	32435.14
503.60	32598.98
503.78	33310.50
503.95	32921.98
504.13	32758.14
504.30	33074.11
504.48	33008.58
504.65	33722.44
504.83	33364.34
505.01	33699.03
505.18	33940.11
505.36	34024.37
505.53	33790.31
505.71	33628.82
505.88	33951.81
506.06	33603.07
506.23	34763.98
506.41	34422.26
506.58	34543.97
506.76	34747.59
506.93	34639.93
507.11	34394.17
507.28	34569.71
507.46	34632.91
507.63	35225.06
507.81	35517.63
507.98	35098.67
508.16	35278.89
508.33	35494.22
508.50	35611.25
508.68	35445.07
508.85	35840.62
509.03	35644.02
509.20	35950.63
509.38	35728.28
509.55	36297.03
509.73	36133.19
509.90	36147.23
510.08	36257.24
510.25	36362.56
510.42	36488.95
510.60	36849.39
510.77	37031.96
510.95	37343.25
511.12	36870.46
511.30	36767.48
511.47	36964.08
511.64	37219.20
511.82	37876.89
511.99	37450.91
512.17	37809.01
512.34	37720.07
512.51	38220.95
512.69	37928.38
512.86	37722.41
513.04	38227.97
513.21	38209.25
513.38	38562.67
513.56	38232.65
513.73	38337.98
513.90	38129.67
514.08	38675.01
514.25	38916.09
514.43	38843.53
514.60	38836.51
514.77	39243.76
514.95	39445.05
515.12	38834.17
515.29	39173.55
515.47	39199.29
515.64	39789.11
515.81	39756.34
515.99	40144.87
516.16	40212.74
516.33	40114.44
516.51	40418.71
516.68	39992.73
516.85	39976.35
517.03	40210.40
517.20	40179.98
517.37	40584.89
517.54	40589.57
517.72	40657.45
517.89	40294.66
518.06	40397.65
518.24	40622.34
518.41	40718.30
518.58	41287.05
518.75	40933.63
518.93	41476.63
519.10	41071.72
519.27	41291.73
519.45	40900.86
519.62	41034.27
519.79	41181.73
519.96	41464.93
520.14	41581.96
520.31	41717.71
520.48	41909.63
520.65	41741.11
520.83	42005.59
521.00	41570.25
521.17	41862.82
521.34	42148.37
521.52	42150.71
521.69	42101.56
521.86	42595.41
522.03	42340.29
522.20	42447.96
522.38	42614.13
522.55	42845.85
522.72	42703.07
522.89	43154.80
523.07	43576.09
523.24	42962.87
523.41	43339.70
523.58	43271.82
523.75	43576.09
523.92	43122.03
524.10	43393.53
524.27	43901.43
524.44	43489.49
524.61	43873.34
524.78	44226.76
524.96	43744.61
525.13	43842.92
525.30	44041.86
525.47	43634.61
525.64	43878.02
525.81	44694.87
525.98	44287.62
526.16	44259.53
526.33	44121.44
526.50	44720.62
526.67	43990.37
526.84	44079.31
527.01	44268.89
527.18	44634.02
527.36	44556.78
527.53	45027.23
527.70	45193.40
527.87	45663.85
528.04	45022.54
528.21	44622.31
528.38	44994.46
528.55	45270.64
528.72	45067.02
528.89	45521.08
529.07	45350.22
529.24	45336.18
529.41	45481.29
529.58	45158.30
529.75	45214.47
529.92	45673.21
530.09	45577.25
530.26	45375.97
530.43	46403.46
530.60	45853.44
530.77	45713.00
530.94	45729.39
531.11	45911.95
531.28	45993.87
531.46	45649.81
531.63	46005.57
531.80	45916.63
531.97	46469.00
532.14	46557.94
532.31	46681.98
532.48	46361.33
532.65	46604.75
532.82	46527.51
532.99	46117.92
533.16	46401.12
533.33	46604.75
533.50	46925.40
533.67	46742.84
533.84	46871.57
534.01	46906.68
534.18	46667.94
534.35	47217.97
534.52	46721.77
534.69	47056.47
534.86	47133.71
535.03	47143.07
535.20	47227.33
535.37	47388.83
535.54	47407.55
535.71	47398.19
535.88	47697.78
536.05	47484.79
536.22	47597.13
536.38	48067.58
536.55	47980.98
536.72	47824.17
536.89	47707.14
537.06	47746.93
537.23	47803.10
537.40	47920.13
537.57	47903.74
537.74	48128.44
537.91	48198.65
538.08	48610.59
538.25	48025.45
538.42	48313.34
538.59	48355.47
538.75	48067.58
538.92	48044.18
539.09	48144.82
539.26	48575.48
539.43	48179.93
539.60	48315.68
539.77	48460.79
539.94	48786.13
540.11	48722.93
540.28	48208.01
540.44	48542.71
540.61	48863.36
540.78	48605.91
540.95	48814.21
541.12	48910.17
541.29	48844.64
541.46	48830.60
541.62	48334.40
541.79	48980.39
541.96	48603.56
542.13	48802.51
542.30	49200.40
542.47	49226.15
542.63	49633.40
542.80	49759.79
542.97	49572.55
543.14	49656.81
543.31	49588.93
543.48	49244.87
543.64	49801.92
543.81	49759.79
543.98	49570.21
544.15	49925.97
544.32	49701.28
544.48	50092.15
544.65	49797.24
544.82	50167.04
544.99	49773.83
545.16	49937.67
545.32	49925.97
545.49	50244.28
545.66	50466.63
545.83	50300.45
546.00	50141.30
546.16	50321.52
546.33	49855.75
546.50	49832.35
546.67	50110.87
546.83	49975.12
547.00	50028.95
547.17	50003.20
547.34	50466.63
547.50	50047.68
547.67	50703.03
547.84	50541.53
548.00	50394.07
548.17	50340.24
548.34	50391.73
548.51	50841.12
548.67	50571.96
548.84	50817.71
549.01	50609.40
549.18	50869.20
549.34	50651.53
549.51	50660.90
549.68	50808.35
549.84	50845.80
550.01	50866.86
550.18	50628.13
550.34	50845.80
550.51	50834.10
550.68	51250.71
550.84	50621.11
551.01	51126.66
551.18	50894.95
551.34	50696.00
551.51	50981.55
551.68	51309.22
551.84	51412.21
552.01	51224.96
552.18	51421.57
552.34	50946.44
552.51	51185.18
552.68	51203.90
552.84	51152.41
553.01	51157.09
553.18	51426.25
553.34	51466.04
553.51	51302.20
553.67	51363.06
553.84	51807.76
554.01	51657.96
554.17	51667.33
554.34	51716.48
554.51	51529.23
554.67	51683.71
554.84	51664.99
555.00	51442.63
555.17	51430.93
555.33	51562.00
555.50	51529.23
555.67	51707.12
555.83	51496.47
556.00	51828.82
556.16	51814.78
556.33	51873.29
556.50	51414.55
556.66	51922.44
556.83	52065.22
556.99	52261.82
557.16	52158.84
557.32	52006.70
557.49	52498.22
557.65	51952.87
557.82	51707.12
557.98	51805.42
558.15	51896.70
558.32	52355.44
558.48	52144.80
558.65	52147.14
558.81	52137.77
558.98	52034.79
559.14	52053.51
559.31	51831.16
559.47	51873.29
559.64	52156.50
559.80	52156.50
559.97	52486.51
560.13	52325.02
560.30	51927.13
560.46	52341.40
560.63	52142.45
560.79	52313.31
560.96	52484.17
561.12	52303.95
561.29	52205.65
561.45	52102.67
561.61	52294.59
561.78	52601.20
561.94	52449.06
562.11	52147.14
562.27	52275.87
562.44	52376.51
562.60	52341.40
562.77	52425.66
562.93	52037.13
563.10	52767.38
563.26	52294.59
563.42	52750.99
563.59	52552.05
563.75	52521.62
563.92	52608.22
564.08	52491.19
564.24	52467.79
564.41	52589.50
564.57	52435.02
564.74	52491.19
564.90	52406.94
565.07	52430.34
565.23	52477.15
565.39	52589.50
565.56	52652.69
565.72	52465.45
565.88	52615.24
566.05	52734.61
566.21	52303.95
566.38	52685.46
566.54	52542.69
566.70	52938.24
566.87	52856.32
567.03	52645.67
567.19	52940.58
567.36	52594.18
567.52	52708.86
567.68	52765.04
567.85	52736.95
568.01	52727.59
568.17	52619.92
568.34	52935.90
568.50	52832.91
568.66	52552.05
568.83	52839.93
568.99	52760.36
569.15	53092.71
569.32	52500.56
569.48	52758.02
569.64	52753.33
569.81	52769.72
569.97	52727.59
570.13	53024.84
570.30	52875.04
570.46	52846.96
570.62	53038.88
570.78	52727.59
570.95	52645.67
571.11	53069.31
571.27	52683.12
571.43	52690.14
571.60	52680.78
571.76	52411.62
571.92	52919.51
572.09	53001.43
572.25	52968.66
572.41	53216.76
572.57	53020.16
572.74	52949.94
572.90	52643.33
573.06	52786.10
573.22	52966.32
573.38	52736.95
573.55	53059.94
573.71	53394.64
573.87	53242.51
574.03	52765.04
574.20	52823.55
574.36	52896.11
574.52	52797.80
574.68	52811.85
574.84	52692.48
575.01	52832.91
575.17	53010.79
575.33	52956.96
575.49	52842.27
575.65	53291.66
575.82	53102.07
575.98	53148.88
576.14	53326.77
576.30	53127.82
576.46	52825.89
576.62	53015.47
576.79	52818.87
576.95	52610.56
577.11	53265.91
577.27	52917.17
577.43	53134.84
577.59	52973.34
577.75	52959.30
577.92	53062.29
578.08	52603.54
578.24	52584.82
578.40	53062.29
578.56	53176.97
578.72	52821.21
578.88	53244.85
579.04	53415.71
579.21	52842.27
579.37	52896.11
579.53	53162.93
579.69	52666.73
579.85	52832.91
580.01	52830.57
580.17	52914.83
580.33	53265.91
580.49	52928.87
580.65	53088.03
580.82	53050.58
580.98	52832.91
581.14	52907.81
581.30	53193.36
581.46	53038.88
581.62	53111.44
581.78	52718.23
581.94	53111.44
582.10	52865.68
582.26	53104.41
582.42	52907.81
582.58	53581.88
582.74	53057.60
582.90	53038.88
583.06	53249.53
583.22	53174.63
583.38	53085.69
583.54	53212.08
583.70	52650.35
583.86	52963.98
584.02	52776.74
584.18	52989.73
584.34	53368.90
584.50	53378.26
584.66	53226.12
584.82	52853.98
584.98	53272.93
585.14	52861.00
585.30	52802.49
585.46	52701.84
585.62	52924.19
585.78	53155.91
585.94	52961.64
586.10	52963.98
586.26	53352.51
586.42	53027.18
586.58	53247.19
586.74	53263.57
586.90	52750.99
587.06	52919.51
587.22	53095.05
587.38	53191.01
587.54	53195.70
587.70	53382.94
587.86	53205.06
588.02	53240.17
588.18	53214.42
588.34	53010.79
588.49	53088.03
588.65	53132.50
588.81	52842.27
588.97	53083.35
589.13	53003.77
589.29	53111.44
589.45	53144.20
589.61	53254.21
589.77	53488.26
589.93	53567.84
590.08	53420.39
590.24	53186.33
590.40	53537.41
590.56	53202.72
590.72	53160.59
590.88	53179.31
591.04	52947.60
591.20	53616.99
591.35	53504.65
591.51	53717.64
591.67	53506.99
591.83	53698.91
591.99	53432.09
592.15	53230.80
592.31	53434.43
592.46	53226.12
592.62	53226.12
592.78	53275.27
592.94	53347.83
593.10	53296.34
593.26	53024.84
593.41	53457.84
593.57	53272.93
593.73	53436.77
593.89	53511.67
594.05	53233.14
594.20	53469.54
594.36	53188.67
594.52	53329.11
594.68	53425.07
594.84	52973.34
594.99	53265.91
595.15	53567.84
595.31	53394.64
595.47	53485.92
595.62	53305.70
595.78	53153.57
595.94	53352.51
596.10	53499.97
596.25	53282.30
596.41	53277.61
596.57	52949.94
596.73	53389.96
596.88	53221.44
597.04	53368.90
597.20	53521.03
597.36	53394.64
597.51	53900.20
597.67	53399.32
597.83	53467.20
597.99	53521.03
598.14	53483.58
598.30	53396.98
598.46	53209.74
598.61	53425.07
598.77	53244.85
598.93	53439.11
599.09	53291.66
599.24	53638.06
599.40	53614.65
599.56	53485.92
599.71	53228.46
599.87	53581.88
600.03	53265.91
600.18	53329.11
600.34	53371.24
600.50	53235.48
600.65	53401.66
600.81	53357.19
600.97	53553.80
601.12	53595.93
601.28	53380.60
601.44	53535.07
601.59	53301.02
601.75	53333.79
601.91	53523.37
602.06	52942.92
602.22	53425.07
602.37	53090.37
602.53	53158.25
602.69	53638.06
602.84	52935.90
603.00	53357.19
603.16	53322.08
603.31	53483.58
603.47	53628.69
603.62	53183.99
603.78	53315.06
603.94	53322.08
604.09	53471.88
604.25	53141.86
604.40	53172.29
604.56	53193.36
604.71	53420.39
604.87	53535.07
605.03	53497.62
605.18	53188.67
605.34	53654.44
605.49	52844.62
605.65	52938.24
605.80	53045.90
605.96	53109.10
606.12	53043.56
606.27	53511.67
606.43	53055.26
606.58	53183.99
606.74	53088.03
606.89	53001.43
607.05	53256.55
607.20	53167.61
607.36	52917.17
607.51	52985.05
607.67	53155.91
607.82	52942.92
607.98	53062.29
608.13	52926.53
608.29	52947.60
608.44	52889.09
608.60	52975.69
608.75	53277.61
608.91	53254.21
609.06	52750.99
609.22	52889.09
609.37	52526.30
609.53	52931.22
609.68	52753.33
609.84	52619.92
609.99	52823.55
610.15	52568.43
610.30	52804.83
610.46	52879.72
610.61	52781.42
610.76	52851.64
610.92	52746.31
611.07	52786.10
611.23	52498.22
611.38	52903.13
611.54	52758.02
611.69	52608.22
611.84	52535.66
612.00	52971.00
612.15	52367.15
612.31	52514.60
612.46	52615.24
612.62	52853.98
612.77	52622.26
612.92	52830.57
613.08	52753.33
613.23	52818.87
613.39	52563.75
613.54	52643.33
613.69	52458.43
613.85	52561.41
614.00	52530.98
614.15	52444.38
614.31	52523.96
614.46	52685.46
614.62	52530.98
614.77	52676.10
614.92	52336.72
615.08	52320.34
615.23	52570.77
615.38	52570.77
615.54	52273.52
615.69	52034.79
615.84	52425.66
616.00	52200.97
616.15	51985.64
616.30	52664.39
616.46	52271.18
616.61	52259.48
616.76	52456.09
616.92	52186.92
617.07	52250.12
617.22	52212.67
617.37	52079.26
617.53	52165.86
617.68	52144.80
617.83	51983.30
617.99	51941.17
618.14	52116.71
618.29	51917.76
618.45	52140.11
618.60	51990.32
618.75	52016.07
618.90	52126.07
619.06	52067.56
619.21	51901.38
619.36	52013.73
619.51	51519.87
619.67	51676.69
619.82	51526.89
619.97	51704.77
620.12	51576.04
620.28	51536.26
620.43	51746.90
620.58	51842.87
620.73	51929.47
620.89	51971.60
621.04	51601.79
621.19	51784.35
621.34	51681.37
621.49	51515.19
621.65	51199.22
621.80	51449.66
621.95	51311.56
622.10	51627.54
622.25	51487.10
622.41	51178.15
622.56	51222.62
622.71	51533.92
622.86	51220.28
623.01	51454.34
623.16	51583.07
623.32	51629.88
623.47	51491.79
623.62	51203.90
623.77	51105.60
623.92	51405.19
624.07	51026.02
624.23	50965.17
624.38	51227.31
624.53	50974.53
624.68	51613.49
624.83	51283.48
624.98	51494.13
625.13	50941.76
625.29	51068.15
625.44	50972.19
625.59	51070.49
625.74	50541.53
625.89	50688.98
626.04	50525.14
626.19	50829.41
626.34	50901.97
626.49	50513.44
626.65	50754.52
626.80	50473.65
626.95	50705.37
627.10	50852.82
627.25	50894.95
627.40	50721.75
627.55	50688.98
627.70	50251.30
627.85	50443.23
628.00	50358.97
628.15	50241.94
628.30	50136.62
628.45	50284.07
628.60	50145.98
628.76	50583.66
628.91	50511.10
629.06	50349.60
629.21	50490.04
629.36	50401.10
629.51	50501.74
629.66	50174.06
629.81	50185.77
629.96	49942.35
630.11	50122.57
630.26	50017.25
630.41	49979.80
630.56	49682.55
630.71	50335.56
630.86	50160.02
631.01	50131.93
631.16	50110.87
631.31	49799.58
631.46	50138.96
631.61	50202.15
631.76	50326.20
631.91	49673.19
632.06	49523.40
632.21	49453.18
632.36	49813.62
632.51	49401.69
632.66	49483.61
632.81	49595.95
632.96	49640.42
633.10	49708.30
633.25	50028.95
633.40	49340.83
633.55	49675.53
633.70	49588.93
633.85	49364.24
634.00	49661.49
634.15	49045.93
634.30	49200.40
634.45	49361.90
634.60	49411.05
634.75	49425.09
634.90	49263.60
635.05	49832.35
635.19	49373.60
635.34	49446.16
635.49	49151.25
635.64	49336.15
635.79	48718.25
635.94	48994.43
636.09	49296.36
636.24	48912.52
636.39	49202.74
636.53	49130.19
636.68	48896.13
636.83	48729.95
636.98	49052.95
637.13	48818.89
637.28	49305.73
637.43	48856.34
637.57	49052.95
637.72	49015.50
637.87	48374.19
638.02	48987.41
638.17	48910.17
638.32	48566.12
638.46	48439.73
638.61	48273.55
638.76	48053.54
638.91	48528.67
639.06	48751.02
639.20	48369.51
639.35	48619.95
639.50	48680.80
639.65	48636.33
639.80	48502.92
639.94	48123.75
640.09	48406.96
640.24	48182.27
640.39	47997.37
640.54	48095.67
640.68	48182.27
640.83	48165.88
640.98	47793.74
641.13	47388.83
641.27	48090.99
641.42	48140.14
641.57	48032.47
641.72	48158.86
641.86	48093.33
642.01	47962.26
642.16	47831.19
642.31	47693.10
642.45	47866.30
642.60	47742.25
642.75	47882.68
642.90	47625.22
643.04	47875.66
643.19	47669.69
643.34	47662.67
643.48	47540.96
643.63	47936.51
643.78	47569.05
643.93	47997.37
644.07	47349.04
644.22	47657.99
644.37	47604.16
644.51	47540.96
644.66	47702.46
644.81	47405.21
644.95	47381.80
645.10	47367.76
645.25	47133.71
645.39	47477.77
645.54	47400.53
645.69	47075.19
645.83	47442.66
645.98	47318.61
646.13	47775.02
646.27	47477.77
646.42	47234.35
646.57	47100.94
646.71	47388.83
646.86	47271.80
647.00	46946.47
647.15	47290.52
647.30	47136.05
647.44	46806.03
647.59	46927.74
647.74	46841.14
647.88	47093.92
648.03	47648.63
648.17	47257.76
648.32	47122.01
648.47	46976.89
648.61	46588.36
648.76	47297.55
648.90	46752.20
649.05	46742.84
649.20	46665.60
649.34	46738.16
649.49	46270.05
649.63	46742.84
649.78	46391.76
649.92	46377.72
650.07	46522.83
650.21	46457.29
650.36	46721.77
650.51	46806.03
650.65	46876.25
650.80	47122.01
650.94	46415.16
651.09	46637.51
651.23	46492.40
651.38	46335.59
651.52	46307.50
651.67	46244.30
651.81	45993.87
651.96	46096.85
652.10	46227.92
652.25	45911.95
652.39	46141.32
652.54	46410.48
652.68	45944.72
652.83	46506.44
652.97	46433.89
653.12	46188.13
653.26	45935.35
653.41	46115.58
653.55	45584.27
653.70	45750.45
653.84	45415.76
653.99	45851.09
654.13	45584.27
654.27	45462.57
654.42	45855.78
654.56	46068.76
654.71	46190.47
654.85	45724.71
655.00	45659.17
655.14	45855.78
655.29	45631.08
655.43	46260.69
655.57	45177.02
655.72	45514.06
655.86	45586.61
656.01	45071.70
656.15	44882.11
656.30	45102.12
656.44	45116.17
656.58	45146.59
656.73	45137.23
656.87	45209.79
657.01	45207.45
657.16	45645.13
657.30	45354.90
657.45	45443.84
657.59	45485.97
657.73	44851.69
657.88	44870.41
658.02	44987.44
658.16	44959.35
658.31	44498.26
658.45	44921.90
658.60	44737.00
658.74	44622.31
658.88	44472.52
659.03	44575.50
659.17	44945.31
659.31	44100.37
659.46	44327.41
659.60	44652.74
659.74	44650.40
659.89	44659.76
660.03	44458.48
660.17	44360.17
660.32	44055.90
660.46	43557.37
660.60	43847.60
660.74	43931.86
660.89	44250.17
661.03	43676.74
661.17	43494.18
661.32	43601.84
661.46	43873.34
661.60	43812.49
661.74	43852.28
661.89	43466.09
662.03	43906.11
662.17	43585.46
662.31	43440.34
662.46	43248.42
662.60	43344.38
662.74	43110.33
662.88	42717.12
663.03	42813.08
663.17	43100.97
663.31	43068.20
663.45	42586.05
663.60	43042.45
663.74	42993.30
663.88	42871.59
664.02	43030.75
664.17	42862.23
664.31	43124.37
664.45	42792.01
664.59	42838.83
664.73	42635.20
664.88	42670.31
665.02	42265.39
665.16	42328.59
665.30	42265.39
665.44	42136.66
665.59	41888.57
665.73	41947.08
665.87	41614.72
666.01	41766.86
666.15	42335.61
666.29	41846.44
666.44	41862.82
666.58	41989.21
666.72	42361.36
666.86	41364.29
667.00	41701.32
667.14	41579.62
667.28	41703.67
667.43	41792.61
667.57	41911.97
667.71	41067.04
667.85	41310.46
667.99	41338.54
668.13	40914.90
668.27	41361.95
668.41	40999.16
668.56	41057.68
668.70	41139.60
668.84	41081.08
668.98	40650.42
669.12	40818.94
669.26	40718.30
669.40	40502.97
669.54	40694.89
669.68	40727.66
669.82	40444.46
669.96	40374.24
670.10	39672.08
670.25	39770.38
670.39	39950.60
670.53	39552.71
670.67	40208.06
670.81	40091.04
670.95	39866.34
671.09	39943.58
671.23	40154.23
671.37	39840.60
671.51	39997.41
671.65	39800.81
671.79	39742.30
671.93	39416.96
672.07	39721.23
672.21	39145.46
672.35	39056.52
672.49	38731.18
672.63	39306.96
672.77	39098.65
672.91	39260.15
673.05	38953.54
673.19	38918.43
673.33	38806.08
673.47	38733.53
673.61	38735.87
673.75	38752.25
673.89	38579.05
674.03	37984.55
674.17	37876.89
674.31	37860.51
674.45	37996.26
674.59	37986.89
674.73	37757.52
674.87	37865.19
675.01	37766.88
675.15	37291.76
675.29	37553.90
675.43	37614.75
675.56	37076.43
675.70	37486.02
675.84	37338.57
675.98	36725.35
676.12	37500.06
676.26	37411.12
676.40	37071.75
676.54	36744.07
676.68	36802.58
676.82	35990.42
676.96	36631.72
677.10	36601.30
677.23	35948.29
677.37	36079.36
677.51	36105.10
677.65	35744.66
677.79	35651.04
677.93	35648.70
678.07	35786.79
678.21	35653.38
678.34	35814.88
678.48	35512.95
678.62	35304.64
678.76	34979.31
678.90	34499.50
679.04	35063.57
679.18	34892.71
679.31	34265.44
679.45	34321.62
679.59	34499.50
679.73	34370.77
679.87	34309.91
680.00	34258.42
680.14	34192.89
680.28	34232.68
680.42	33853.51
680.56	34012.66
680.70	33858.19
680.83	33944.79
680.97	33837.12
681.11	34019.69
681.25	33600.73
681.39	33380.72
681.52	33376.04
681.66	33565.62
681.80	32966.45
681.94	32730.05
682.07	32657.49
682.21	32395.35
682.35	32531.11
682.49	32332.16
682.62	32318.12
682.76	32364.93
682.90	32177.68
683.04	32177.68
683.17	32105.13
683.31	32388.33
683.45	31924.91
683.59	32067.68
683.72	32100.45
683.86	31372.54
684.00	31597.23
684.13	31332.75
684.27	31065.93
684.41	31084.65
684.55	31199.34
684.68	30916.14
684.82	30747.62
684.96	30583.78
685.09	30611.87
685.23	30497.18
685.37	30478.46
685.50	30618.89
685.64	30586.12
685.78	30424.62
685.91	30249.08
686.05	30356.75
686.19	29734.17
686.32	29743.53
686.46	29752.89
686.60	29113.92
686.73	29411.17
686.87	29064.77
687.01	28877.53
687.14	28816.68
687.28	28900.94
687.42	28645.82
687.55	28718.37
687.69	28716.03
687.82	28542.83
687.96	28503.04
688.10	28573.26
688.23	28535.81
688.37	28149.62
688.50	28336.87
688.64	27838.33
688.78	27896.85
688.91	27590.24
689.05	27953.02
689.18	27737.69
689.32	27505.98
689.46	27311.71
689.59	27454.48
689.73	27379.59
689.86	27101.06
690.00	27136.17
690.13	27398.31
690.27	26656.36
690.41	26586.15
690.54	27002.76
690.68	26602.53
690.81	26630.62
690.95	27101.06
691.08	26700.83
691.22	26424.65
691.35	26216.34
691.49	26038.46
691.62	26064.21
691.76	25963.56
691.89	25818.45
692.03	25413.54
692.16	25458.01
692.30	25455.67
692.43	25352.68
692.57	25216.93
692.70	25195.87
692.84	25158.42
692.97	25266.08
693.11	25067.14
693.24	24744.14
693.38	25156.08
693.51	25003.94
693.65	24556.90
693.78	24854.15
693.92	24470.30
694.05	24599.03
694.19	24430.51
694.32	23850.06
694.45	24063.05
694.59	24020.92
694.72	23768.14
694.86	23908.57
694.99	23468.55
695.13	23262.58
695.26	23222.80
695.39	22815.54
695.53	23164.28
695.66	23597.28
695.80	23173.64
695.93	23424.08
696.07	23220.45
696.20	22845.97
696.33	23005.13
696.47	22761.71
696.60	22668.09
696.73	22342.75
696.87	22153.17
697.00	22473.82
697.14	22003.38
697.27	21673.36
697.40	21848.90
697.54	21680.38
697.67	21397.18
697.80	21626.55
697.94	21528.25
698.07	21568.04
698.21	21095.25
698.34	21483.78
698.47	21137.38
698.61	20849.49
698.74	21043.76
698.87	21128.02
699.01	21116.31
699.14	20917.37
699.27	20650.55
699.40	20709.06
699.54	20198.82
699.67	20114.56
699.80	20311.17
699.94	20168.40
700.07	20121.59
700.20	20034.99
700.34	19618.37
700.47	19885.19
700.60	19616.03
700.73	19796.25
700.87	19489.64
701.00	19438.15
701.13	19459.21
701.26	19541.13
701.40	19208.78
701.53	19543.47
701.66	19136.22
701.79	19187.71
701.93	18670.45
702.06	19117.50
702.19	18710.24
702.32	18602.58
702.46	18457.46
702.59	18553.43
702.72	18125.11
702.85	18279.58
702.99	18221.07
703.12	18024.47
703.25	17923.82
703.38	18052.55
703.51	18026.81
703.65	17923.82
703.78	17783.39
703.91	17881.69
704.04	17898.08
704.17	17851.27
704.31	17572.74
704.44	17362.09
704.57	17373.80
704.70	17413.59
704.83	17074.21
704.96	17067.19
705.10	17078.89
705.23	16648.23
>>>>>End Processed Spectral Data<<<<<
