SpectraSuite Data File
++++++++++++++++++++++++++++++++++++
Date: Fri Oct 18 13:54:28 GMT-05:00 2013
User: bianchi
Dark Spectrum Present: No
Reference Spectrum Present: No
Number of Sampled Component Spectra: 1
Spectrometers: USB2+H05261
Integration Time (usec): 100000 (USB2+H05261)
Spectra Averaged: 1 (USB2+H05261)
Boxcar Smoothing: 0 (USB2+H05261)
Correct for Electrical Dark: No (USB2+H05261)
Strobe/Lamp Enabled: No (USB2+H05261)
Correct for Detector Non-linearity: No (USB2+H05261)
Correct for Stray Light: No (USB2+H05261)
Number of Pixels in Processed Spectrum: 2048
>>>>>Begin Processed Spectral Data<<<<<
365.73	0.00
365.92	0.00
366.12	0.00
366.32	0.00
366.52	0.00
366.72	0.00
366.91	0.00
367.11	0.00
367.31	0.00
367.51	0.00
367.70	0.00
367.90	0.00
368.10	0.00
368.30	0.00
368.49	0.00
368.69	0.00
368.89	0.00
369.09	0.00
369.28	0.00
369.48	0.00
369.68	0.00
369.87	0.00
370.07	0.00
370.27	0.00
370.47	0.00
370.66	292.57
370.86	222.35
371.06	299.59
371.25	416.62
371.45	372.15
371.65	411.93
371.84	374.49
372.04	325.33
372.24	358.10
372.44	332.36
372.63	402.57
372.83	428.32
373.03	365.12
373.22	341.72
373.42	486.83
373.62	449.38
373.81	465.77
374.01	493.85
374.21	444.70
374.40	472.79
374.60	503.22
374.79	491.51
374.99	533.64
375.19	503.22
375.38	554.71
375.58	463.43
375.78	540.66
375.97	496.19
376.17	568.75
376.37	458.74
376.56	580.45
376.76	470.45
376.95	449.38
377.15	575.77
377.35	564.07
377.54	498.53
377.74	564.07
377.93	477.47
378.13	566.41
378.33	571.09
378.52	594.50
378.72	594.50
378.91	596.84
379.11	575.77
379.31	566.41
379.50	592.16
379.70	631.94
379.89	650.67
380.09	599.18
380.28	622.58
380.48	662.37
380.68	601.52
380.87	648.33
381.07	648.33
381.26	716.20
381.46	622.58
381.65	699.82
381.85	702.16
382.04	641.31
382.24	702.16
382.43	650.67
382.63	629.60
382.83	690.46
383.02	720.88
383.22	753.65
383.41	767.70
383.61	758.33
383.80	732.59
384.00	800.46
384.19	758.33
384.39	786.42
384.58	709.18
384.78	767.70
384.97	821.53
385.17	788.76
385.36	770.04
385.56	795.78
385.75	688.12
385.95	851.96
386.14	805.14
386.34	793.44
386.53	889.40
386.72	868.34
386.92	882.38
387.11	919.83
387.31	819.19
387.50	821.53
387.70	877.70
387.89	936.21
388.09	873.02
388.28	903.45
388.48	870.68
388.67	905.79
388.86	924.51
389.06	943.24
389.25	912.81
389.45	910.47
389.64	976.00
389.84	983.02
390.03	943.24
390.22	917.49
390.42	1027.50
390.61	896.43
390.81	1022.81
391.00	950.26
391.19	1032.18
391.39	966.64
391.58	1055.58
391.78	992.39
391.97	1135.16
392.16	1102.39
392.36	1149.20
392.55	1128.14
392.75	1039.20
392.94	1125.80
393.13	1174.95
393.33	1139.84
393.52	1174.95
393.71	1228.78
393.91	1151.54
394.10	1156.22
394.29	1160.91
394.49	1240.48
394.68	1128.14
394.88	1235.80
395.07	1217.08
395.26	1256.87
395.46	1174.95
395.65	1343.47
395.84	1324.74
396.04	1301.34
396.23	1294.32
396.42	1240.48
396.62	1273.25
396.81	1387.94
397.00	1469.86
397.19	1483.90
397.39	1355.17
397.58	1455.81
397.77	1362.19
397.97	1371.55
398.16	1469.86
398.35	1469.86
398.55	1540.07
398.74	1439.43
398.93	1465.18
399.12	1392.62
399.32	1467.52
399.51	1390.28
399.70	1593.90
399.90	1533.05
400.09	1647.74
400.28	1460.49
400.47	1629.01
400.67	1680.50
400.86	1673.48
401.05	1575.18
401.24	1675.82
401.44	1657.10
401.63	1729.66
401.82	1746.04
402.01	1640.72
402.21	1813.92
402.40	1739.02
402.59	1753.06
402.78	1804.55
402.97	1746.04
403.17	1785.83
403.36	1846.68
403.55	1781.15
403.74	1933.28
403.93	1956.69
404.13	1898.17
404.32	1928.60
404.51	1877.11
404.70	2024.56
404.89	2015.20
405.09	2040.95
405.28	2043.29
405.47	1963.71
405.66	2078.40
405.85	2054.99
406.05	1989.46
406.24	2207.13
406.43	2094.78
406.62	2221.17
406.81	2218.83
407.00	2143.93
407.20	2136.91
407.39	2188.40
407.58	2286.70
407.77	2354.58
407.96	2267.98
408.15	2345.22
408.34	2324.15
408.54	2352.24
408.73	2286.70
408.92	2392.03
409.11	2385.01
409.30	2539.48
409.49	2464.58
409.68	2492.67
409.87	2511.39
410.07	2544.16
410.26	2572.25
410.45	2518.42
410.64	2532.46
410.83	2754.81
411.02	2719.70
411.21	2700.98
411.40	2731.41
411.59	2930.35
411.78	2759.49
411.98	2806.30
412.17	2867.16
412.36	2820.35
412.55	2906.95
412.74	2932.69
412.93	2991.20
413.12	2923.33
413.31	3063.76
413.50	3141.00
413.69	3035.67
413.88	3241.64
414.07	3171.43
414.26	3206.53
414.45	3262.71
414.64	3295.47
414.83	3337.60
415.02	3468.67
415.22	3239.30
415.41	3566.98
415.60	3372.71
415.79	3438.25
415.98	3449.95
416.17	3515.48
416.36	3513.14
416.55	3604.42
416.74	3597.40
416.93	3660.60
417.12	3632.51
417.31	3794.01
417.50	3735.50
417.69	3892.31
417.88	3688.68
418.07	3880.61
418.26	3791.67
418.45	3911.04
418.64	4037.42
418.83	3927.42
419.02	4035.08
419.21	4009.34
419.39	4002.32
419.58	4014.02
419.77	4102.96
419.96	4119.34
420.15	4259.78
420.34	4154.45
420.53	4140.41
420.72	4196.58
420.91	4231.69
421.10	4407.23
421.29	4409.57
421.48	4294.88
421.67	4311.27
421.86	4395.53
422.05	4418.93
422.24	4215.30
422.43	4329.99
422.61	4531.28
422.80	4463.40
422.99	4348.72
423.18	4552.34
423.37	4505.53
423.56	4568.73
423.75	4589.79
423.94	4498.51
424.13	4135.73
424.32	4337.01
424.50	4517.23
424.69	4652.98
424.88	4709.16
425.07	4456.38
425.26	4322.97
425.45	4564.04
425.64	4451.70
425.83	4449.36
426.01	4760.65
426.20	4589.79
426.39	4812.14
426.58	4652.98
426.77	4587.45
426.96	4683.41
427.15	4674.05
427.33	4730.22
427.52	4596.81
427.71	4695.11
427.90	4823.84
428.09	4784.06
428.28	4889.38
428.46	4882.36
428.65	5015.77
428.84	4966.62
429.03	5198.33
429.22	4816.82
429.40	4985.34
429.59	4983.00
429.78	4915.12
429.97	4741.93
430.16	4978.32
430.34	5212.37
430.53	5093.01
430.72	5273.23
430.91	5156.20
431.10	5242.80
431.28	5373.87
431.47	5226.42
431.66	5219.39
431.85	5214.71
432.03	5490.90
432.22	5420.68
432.41	5432.38
432.60	5549.41
432.79	5479.19
432.97	5526.00
433.16	5521.32
433.35	5610.26
433.54	5626.65
433.72	5753.04
433.91	5621.97
434.10	5851.34
434.28	5554.09
434.47	5809.21
434.66	5657.07
434.85	5764.74
435.03	5841.98
435.22	5916.87
435.41	6108.80
435.59	5877.09
435.78	6038.58
435.97	5902.83
436.16	5998.79
436.34	5905.17
436.53	6085.39
436.72	6274.98
436.90	5998.79
437.09	6087.73
437.28	6085.39
437.46	6019.86
437.65	6090.07
437.84	6223.48
438.02	6289.02
438.21	6197.74
438.40	6069.01
438.58	6427.11
438.77	6562.86
438.96	6544.14
439.14	6431.79
439.33	6689.25
439.52	6869.47
439.70	6682.23
439.89	6768.83
440.08	6836.70
440.26	6686.91
440.45	6799.26
440.63	6843.73
440.82	6988.84
441.01	7030.97
441.19	6829.68
441.38	7213.53
441.57	7103.53
441.75	7265.02
441.94	7183.10
442.12	7353.96
442.31	7323.54
442.50	7482.69
442.68	7468.65
442.87	7372.69
443.05	7639.51
443.24	7756.54
443.43	7566.95
443.61	7676.96
443.80	7866.54
443.98	7426.52
444.17	7400.77
444.35	7534.18
444.54	7789.30
444.73	7655.89
444.91	7651.21
445.10	7705.04
445.28	7730.79
445.47	7634.83
445.65	7733.13
445.84	7679.30
446.02	7768.24
446.21	7679.30
446.39	7805.69
446.58	7735.47
446.77	7735.47
446.95	7716.75
447.14	7906.33
447.32	7798.66
447.51	8135.70
447.69	7822.07
447.88	7819.73
448.06	8187.19
448.25	7918.03
448.43	8046.76
448.62	7946.12
448.80	7873.56
448.99	7922.71
449.17	8215.28
449.36	8021.02
449.54	8173.15
449.73	8238.69
449.91	8105.28
450.10	8248.05
450.28	8344.01
450.46	8180.17
450.65	8294.86
450.83	8430.61
451.02	8297.20
451.20	8545.30
451.39	8526.57
451.57	8512.53
451.76	8461.04
451.94	8482.10
452.13	8781.69
452.31	8744.24
452.49	8367.42
452.68	8798.07
452.86	8608.49
453.05	8512.53
453.23	8802.75
453.42	8641.26
453.60	8538.27
453.78	8805.10
453.97	8603.81
454.15	8919.78
454.34	8777.01
454.52	8849.57
454.70	9048.51
454.89	9125.75
455.07	9160.86
455.26	9210.01
455.44	9085.96
455.62	9144.47
455.81	9205.33
455.99	9224.05
456.17	9266.18
456.36	9287.25
456.54	9432.36
456.73	9338.74
456.91	9420.66
457.09	9411.29
457.28	9832.59
457.46	9605.56
457.64	9844.29
457.83	9820.89
458.01	9635.99
458.19	9942.60
458.38	9497.89
458.56	9907.49
458.74	10078.35
458.93	9954.30
459.11	10036.22
459.29	9837.27
459.48	10008.13
459.66	9851.31
459.84	10228.14
460.03	10253.89
460.21	10113.45
460.39	10139.20
460.57	10258.57
460.76	10186.01
460.94	10305.38
461.12	10373.25
461.31	10197.71
461.49	10303.04
461.67	10321.76
461.85	10534.75
462.04	10750.08
462.22	11075.42
462.40	10815.62
462.59	10656.46
462.77	10626.03
462.95	10558.16
463.13	10403.68
463.32	10909.24
463.50	10946.69
463.68	10775.83
463.86	10991.16
464.05	10604.97
464.23	10616.67
464.41	10930.30
464.59	10712.63
464.78	10862.43
464.96	11026.26
465.14	10913.92
465.32	11023.92
465.50	11288.40
465.69	11138.61
465.87	11009.88
466.05	11183.08
466.23	10930.30
466.41	11229.89
466.60	11414.79
466.78	11297.77
466.96	11255.64
467.14	11176.06
467.32	11351.60
467.51	11428.84
467.69	11321.17
467.87	11304.79
468.05	11470.97
468.23	11147.97
468.41	11428.84
468.60	11716.72
468.78	11791.62
468.96	11616.08
469.14	11658.21
469.32	11815.02
469.50	11606.72
469.69	11861.84
469.87	12032.69
470.05	12255.04
470.23	12079.50
470.41	11948.43
470.59	11969.50
470.77	12051.42
470.95	12161.42
471.14	12161.42
471.32	12100.57
471.50	12367.39
471.68	12599.10
471.86	12299.52
472.04	12741.88
472.22	12945.50
472.40	12463.35
472.58	12812.09
472.77	12650.60
472.95	12863.58
473.13	13392.55
473.31	12994.65
473.49	12992.31
473.67	13128.06
473.85	13275.52
474.03	13394.89
474.21	13380.84
474.39	13437.02
474.57	13647.66
474.75	13605.53
474.93	13745.97
475.12	13617.24
475.30	13947.25
475.48	13619.58
475.66	14258.54
475.84	13912.14
476.02	14164.92
476.20	13888.74
476.38	14590.90
476.56	14918.57
476.74	14600.26
476.92	14588.56
477.10	14857.72
477.28	15005.17
477.46	14794.53
477.64	14867.08
477.82	15138.58
478.00	15477.96
478.18	15433.49
478.36	15623.08
478.54	15669.89
478.72	15735.42
478.90	16046.71
479.08	15831.38
479.26	16016.29
479.44	16072.46
479.62	16273.74
479.80	16561.63
479.98	16540.57
480.16	16819.09
480.34	16524.18
480.52	16973.56
480.70	17125.70
480.88	17181.87
481.06	17184.21
481.24	17310.60
481.41	17453.37
481.59	17832.54
481.77	17788.07
481.95	17916.80
482.13	18157.88
482.31	18256.18
482.49	18579.17
482.67	18527.68
482.85	18757.05
483.03	18862.38
483.21	19007.49
483.39	19496.66
483.57	19035.58
483.74	19494.32
483.92	19562.20
484.10	19646.46
484.28	20016.26
484.46	20149.67
484.64	20940.77
484.82	20119.24
485.00	20376.70
485.18	20798.00
485.35	20872.90
485.53	21095.25
485.71	20910.35
485.89	21649.96
486.07	21401.86
486.25	21441.65
486.43	21795.07
486.61	21664.00
486.78	21923.80
486.96	22101.68
487.14	22595.53
487.32	22541.70
487.50	22740.64
487.68	22913.84
487.85	23145.56
488.03	23480.25
488.21	23728.35
488.39	23627.71
488.57	24051.34
488.75	24147.31
488.92	24320.51
489.10	24584.99
489.28	24517.11
489.46	24982.88
489.64	24601.37
489.81	25352.68
489.99	25404.17
490.17	25610.14
490.35	25979.95
490.53	25593.76
490.70	26047.82
490.88	26052.50
491.06	26134.42
491.24	26239.75
491.41	26455.08
491.59	26644.66
491.77	27068.30
491.95	27281.28
492.13	27140.85
492.30	27377.25
492.48	27089.36
492.66	27447.46
492.84	27718.96
493.01	28046.64
493.19	27861.74
493.37	28439.85
493.54	28465.60
493.72	28528.79
493.90	28833.06
494.08	29364.36
494.25	29425.22
494.43	29617.14
494.61	29750.55
494.79	29984.60
494.96	29516.50
495.14	29752.89
495.32	30178.87
495.49	30412.92
495.67	30300.58
495.85	30864.64
496.02	30630.59
496.20	31072.95
496.38	30953.58
496.55	31030.82
496.73	32236.20
496.91	31431.05
497.09	31604.25
497.26	32067.68
497.44	31992.78
497.62	32374.29
497.79	32320.46
497.97	32374.29
498.14	32505.36
498.32	33188.80
498.50	32924.32
498.67	33095.18
498.85	33434.55
499.03	33249.65
499.20	33649.88
499.38	33935.43
499.56	34284.17
499.73	34117.99
499.91	34007.98
500.08	34206.93
500.26	33956.49
500.44	34169.48
500.61	34705.46
500.79	34543.97
500.97	34593.12
501.14	35461.46
501.32	35229.74
501.49	35040.16
501.67	35288.26
501.84	35604.23
502.02	35461.46
502.20	36308.73
502.37	36002.12
502.55	35824.24
502.72	35899.14
502.90	36130.85
503.07	36299.37
503.25	36196.38
503.43	36130.85
503.60	36718.32
503.78	37258.99
503.95	36587.25
504.13	36989.83
504.30	36678.54
504.48	37041.32
504.65	37216.86
504.83	37116.22
505.01	37731.78
505.18	37907.32
505.36	37792.63
505.53	37413.46
505.71	37474.32
505.88	37930.72
506.06	37574.96
506.23	38277.12
506.41	38059.45
506.58	38560.33
506.76	38499.47
506.93	38857.57
507.11	38560.33
507.28	39061.20
507.46	38974.60
507.63	39070.56
507.81	39800.81
507.98	39143.12
508.16	39501.22
508.33	39213.34
508.50	39311.64
508.68	39349.09
508.85	39945.92
509.03	40154.23
509.20	40154.23
509.38	40388.28
509.55	40240.83
509.73	40631.70
509.90	40439.78
510.08	40584.89
510.25	40907.88
510.42	40982.78
510.60	41401.74
510.77	41240.24
510.95	41212.15
511.12	41308.11
511.30	41493.02
511.47	41532.81
511.64	41879.21
511.82	42253.69
511.99	41883.89
512.17	42277.10
512.34	41584.30
512.51	42190.50
512.69	42593.07
512.86	41813.67
513.04	42689.03
513.21	43028.41
513.38	42593.07
513.56	42693.71
513.73	42892.66
513.90	43037.77
514.08	42883.30
514.25	43089.26
514.43	43625.25
514.60	43426.30
514.77	43627.59
514.95	43812.49
515.12	43501.20
515.29	43648.65
515.47	43742.27
515.64	44116.76
515.81	43973.98
515.99	44514.65
516.16	44701.89
516.33	44037.18
516.51	44694.87
516.68	44435.07
516.85	44472.52
517.03	44662.10
517.20	44442.09
517.37	44957.01
517.54	44861.05
517.72	45010.84
517.89	44711.25
518.06	44851.69
518.24	45270.64
518.41	45305.75
518.58	45771.52
518.75	45338.52
518.93	45787.90
519.10	45879.18
519.27	45603.00
519.45	45411.07
519.62	45942.38
519.79	45563.21
519.96	46019.61
520.14	46148.34
520.31	45900.25
520.48	46162.39
520.65	46497.08
520.83	46742.84
521.00	46653.90
521.17	46618.79
521.34	46422.19
521.52	46677.30
521.69	47070.51
521.86	46883.27
522.03	47133.71
522.20	47459.04
522.38	47334.99
522.55	47498.83
522.72	47122.01
522.89	47529.26
523.07	47634.58
523.24	47515.22
523.41	47838.21
523.58	47590.11
523.75	47524.58
523.92	47943.53
524.10	47592.45
524.27	47880.34
524.44	48301.64
524.61	48547.39
524.78	48282.91
524.96	48336.74
525.13	48076.94
525.30	48596.54
525.47	48353.13
525.64	48486.54
525.81	48935.92
525.98	48776.76
526.16	48835.28
526.33	48800.17
526.50	49401.69
526.67	48907.83
526.84	49081.03
527.01	49106.78
527.18	49221.47
527.36	49373.60
527.53	49485.95
527.70	49766.81
527.87	49422.75
528.04	49556.16
528.21	49638.08
528.38	49614.68
528.55	49628.72
528.72	49563.18
528.89	49687.23
529.07	49731.70
529.24	50017.25
529.41	49687.23
529.58	49893.20
529.75	49932.99
529.92	50607.06
530.09	49729.36
530.26	50059.38
530.43	50237.26
530.60	50110.87
530.77	50190.45
530.94	50206.83
531.11	50031.29
531.28	50387.05
531.46	50344.92
531.63	50490.04
531.80	50525.14
531.97	50787.28
532.14	50934.74
532.31	51117.30
532.48	50932.40
532.65	51072.83
532.82	50852.82
532.99	50836.44
533.16	50780.26
533.33	51042.40
533.50	51559.66
533.67	51042.40
533.84	50831.75
534.01	51023.68
534.18	50843.46
534.35	51278.80
534.52	51461.36
534.69	51662.64
534.86	51728.18
535.03	51505.83
535.20	51690.73
535.37	51672.01
535.54	51679.03
535.71	51576.04
535.88	51756.27
536.05	51728.18
536.22	51688.39
536.38	52322.68
536.55	51821.80
536.72	52081.60
536.89	52030.11
537.06	51852.23
537.23	51910.74
537.40	51863.93
537.57	51821.80
537.74	52128.41
537.91	52313.31
538.08	52292.25
538.25	52236.08
538.42	52271.18
538.59	52353.10
538.75	52264.16
538.92	52198.63
539.09	52526.30
539.26	52383.53
539.43	52439.70
539.60	52559.07
539.77	52753.33
539.94	52830.57
540.11	52828.23
540.28	52760.36
540.44	52521.62
540.61	52758.02
540.78	52907.81
540.95	52650.35
541.12	52683.12
541.29	53036.54
541.46	52809.51
541.62	53008.45
541.79	53073.99
541.96	52519.28
542.13	52996.75
542.30	53095.05
542.47	53528.05
542.63	53209.74
542.80	53593.59
542.97	53537.41
543.14	53764.45
543.31	53303.36
543.48	53305.70
543.64	53645.08
543.81	53675.51
543.98	53827.64
544.15	53851.05
544.32	53783.17
544.48	54129.57
544.65	53741.04
544.82	53584.22
544.99	53235.48
545.16	53844.02
545.32	53841.68
545.49	54031.27
545.66	54227.87
545.83	54052.33
546.00	54169.36
546.16	53925.94
546.33	53937.65
546.50	53979.78
546.67	53914.24
546.83	53874.45
547.00	54216.17
547.17	54190.42
547.34	54412.77
547.50	54412.77
547.67	54401.07
547.84	54494.69
548.00	54468.95
548.17	54550.87
548.34	54515.76
548.51	54665.55
548.67	54714.70
548.84	54529.80
549.01	54398.73
549.18	54370.64
549.34	54515.76
549.51	54415.11
549.68	54679.60
549.84	54485.33
550.01	54752.15
550.18	54405.75
550.34	54775.56
550.51	55000.25
550.68	54712.36
550.84	54429.16
551.01	54810.67
551.18	54630.44
551.34	54522.78
551.51	54768.54
551.68	55007.27
551.84	54869.18
552.01	55075.15
552.18	54988.55
552.34	54632.78
552.51	55028.34
552.68	54761.51
552.84	55033.02
553.01	55363.03
553.18	55021.31
553.34	55381.76
553.51	55220.26
553.67	55377.08
553.84	55482.40
554.01	55653.26
554.17	55477.72
554.34	55124.30
554.51	55180.47
554.67	55339.63
554.84	55412.18
555.00	55435.59
555.17	55458.99
555.33	55482.40
555.50	55152.38
555.67	55388.78
555.83	55372.39
556.00	55442.61
556.16	55601.77
556.33	55192.17
556.50	55356.01
556.66	55648.58
556.83	55398.14
556.99	55613.47
557.16	55817.10
557.32	55777.31
557.49	55831.14
557.65	55508.14
557.82	55655.60
557.98	55601.77
558.15	55798.37
558.32	56053.49
558.48	55526.87
558.65	55943.48
558.81	55854.54
558.98	55749.22
559.14	55700.07
559.31	55669.64
559.47	55744.54
559.64	55884.97
559.80	55903.70
559.97	55875.61
560.13	55697.73
560.30	56119.02
560.46	56044.13
560.63	55594.74
560.79	56123.71
560.96	56076.90
561.12	56002.00
561.29	55943.48
561.45	56030.08
561.61	56051.15
561.78	56025.40
561.94	56137.75
562.11	56156.47
562.27	56130.73
562.44	56088.60
562.60	56030.08
562.77	55962.21
562.93	55751.56
563.10	56275.84
563.26	55924.76
563.42	56336.69
563.59	56381.16
563.75	56203.28
563.92	56350.74
564.08	55945.83
564.24	56018.38
564.41	55973.91
564.57	56119.02
564.74	56088.60
564.90	56406.91
565.07	56048.81
565.23	56327.33
565.39	56418.61
565.56	56217.33
565.72	56013.70
565.88	56107.32
566.05	56168.18
566.21	56060.51
566.38	56023.06
566.54	56203.28
566.70	56371.80
566.87	56598.83
567.03	56264.14
567.19	56526.28
567.36	56226.69
567.52	56226.69
567.68	56561.39
567.85	56088.60
568.01	56552.02
568.17	56259.46
568.34	56418.61
568.50	56406.91
568.66	56245.41
568.83	56631.60
568.99	56406.91
569.15	56275.84
569.32	56676.07
569.48	56149.45
569.64	56514.58
569.81	56470.11
569.97	56411.59
570.13	56280.52
570.30	56479.47
570.46	56647.99
570.62	56350.74
570.78	56559.05
570.95	56423.29
571.11	56355.42
571.27	56432.66
571.43	56268.82
571.60	56584.79
571.76	56748.63
571.92	56491.17
572.09	56631.60
572.25	57022.47
572.41	56645.65
572.57	56474.79
572.74	56769.69
572.90	56470.11
573.06	56554.36
573.22	56519.26
573.38	56762.67
573.55	56460.74
573.71	56898.42
573.87	56760.33
574.03	56580.11
574.20	56640.96
574.36	56442.02
574.52	56619.90
574.68	56437.34
574.84	56435.00
575.01	56828.21
575.17	56549.68
575.33	56573.09
575.49	56549.68
575.65	56603.52
575.82	57027.15
575.98	56601.18
576.14	56938.21
576.30	56577.77
576.46	56507.55
576.62	56381.16
576.79	56362.44
576.95	56535.64
577.11	56636.28
577.27	56722.88
577.43	56727.56
577.59	56549.68
577.75	56720.54
577.92	56566.07
578.08	56624.58
578.24	56399.89
578.40	56446.70
578.56	56624.58
578.72	56706.50
578.88	56540.32
579.04	56905.44
579.21	56753.31
579.37	56694.80
579.53	56743.95
579.69	56530.96
579.85	56832.89
580.01	56743.95
580.17	56479.47
580.33	56530.96
580.49	56638.62
580.65	56858.63
580.82	56741.61
580.98	56774.37
581.14	56559.05
581.30	56818.84
581.46	56774.37
581.62	56788.42
581.78	56348.40
581.94	56725.22
582.10	56397.55
582.26	56739.27
582.42	56720.54
582.58	56928.85
582.74	56697.14
582.90	57013.11
583.06	56858.63
583.22	56722.88
583.38	56800.12
583.54	56556.70
583.70	56633.94
583.86	56793.10
584.02	56327.33
584.18	56868.00
584.34	56671.39
584.50	56928.85
584.66	56748.63
584.82	56849.27
584.98	56800.12
585.14	56626.92
585.30	56535.64
585.46	56687.78
585.62	56722.88
585.78	57020.13
585.94	56886.72
586.10	56959.28
586.26	56896.08
586.42	56886.72
586.58	56970.98
586.74	56800.12
586.90	56626.92
587.06	56617.56
587.22	56982.68
587.38	56676.07
587.54	56666.71
587.70	56942.89
587.86	57158.22
588.02	56893.74
588.18	56996.73
588.34	56741.61
588.49	56912.47
588.65	56650.33
588.81	56561.39
588.97	56720.54
589.13	56793.10
589.29	56863.32
589.45	56952.26
589.61	57099.71
589.77	56872.68
589.93	57111.41
590.08	56985.02
590.24	56891.40
590.40	56919.49
590.56	57116.09
590.72	57041.20
590.88	56837.57
591.04	56905.44
591.20	57013.11
591.35	57144.18
591.51	57411.00
591.67	57141.84
591.83	57088.01
591.99	57200.35
592.15	57078.64
592.31	56992.04
592.46	56727.56
592.62	56956.94
592.78	57034.17
592.94	56870.34
593.10	56973.32
593.26	57102.05
593.41	57212.06
593.57	57148.86
593.73	57090.35
593.89	57251.84
594.05	56956.94
594.20	56818.84
594.36	56917.15
594.52	57141.84
594.68	56722.88
594.84	56755.65
594.99	57080.98
595.15	57076.30
595.31	57298.65
595.47	57080.98
595.62	56947.57
595.78	57139.50
595.94	57104.39
596.10	56896.08
596.25	56917.15
596.41	57118.43
596.57	56849.27
596.73	57167.58
596.88	56959.28
597.04	57291.63
597.20	57237.80
597.36	57242.48
597.51	57425.04
597.67	57127.80
597.83	57350.15
597.99	57111.41
598.14	56907.79
598.30	57109.07
598.46	56917.15
598.61	57219.08
598.77	56680.75
598.93	57193.33
599.09	57221.42
599.24	57403.98
599.40	57216.74
599.56	57176.95
599.71	57258.87
599.87	57181.63
600.03	57139.50
600.18	57066.94
600.34	57176.95
600.50	57195.67
600.65	57144.18
600.81	57455.47
600.97	57301.00
601.12	57301.00
601.28	57090.35
601.44	57099.71
601.59	57324.40
601.75	57048.22
601.91	57113.75
602.06	57043.54
602.22	57134.82
602.37	57043.54
602.53	57066.94
602.69	57092.69
602.84	57247.16
603.00	57317.38
603.16	57254.18
603.31	57312.70
603.47	56978.00
603.62	56837.57
603.78	56980.34
603.94	56940.55
604.09	56966.30
604.25	57113.75
604.40	56875.02
604.56	57043.54
604.71	57319.72
604.87	57153.54
605.03	57233.12
605.18	57034.17
605.34	57064.60
605.49	56790.76
605.65	57099.71
605.80	56877.36
605.96	57050.56
606.12	56685.43
606.27	56956.94
606.43	56928.85
606.58	57134.82
606.74	56921.83
606.89	57003.75
607.05	57057.58
607.20	57104.39
607.36	56947.57
607.51	56825.87
607.67	56954.60
607.82	56783.74
607.98	56736.93
608.13	56755.65
608.29	56830.55
608.44	56640.96
608.60	57003.75
608.75	57099.71
608.91	56779.06
609.06	56772.03
609.22	57027.15
609.37	56540.32
609.53	56591.81
609.68	56868.00
609.84	56580.11
609.99	56591.81
610.15	56718.20
610.30	56743.95
610.46	56530.96
610.61	56928.85
610.76	56685.43
610.92	56559.05
611.07	56390.53
611.23	56605.86
611.38	56835.23
611.54	56514.58
611.69	56275.84
611.84	56334.35
612.00	56486.49
612.15	56676.07
612.31	56601.18
612.46	56598.83
612.62	56566.07
612.77	56673.73
612.92	56753.31
613.08	56617.56
613.23	56652.67
613.39	56563.73
613.54	56226.69
613.69	56481.81
613.85	56442.02
614.00	56252.44
614.15	56418.61
614.31	56392.87
614.46	56430.32
614.62	56200.94
614.77	56603.52
614.92	56381.16
615.08	56371.80
615.23	56502.87
615.38	56350.74
615.54	56308.61
615.69	56360.10
615.84	56177.54
616.00	56287.54
616.15	56104.98
616.30	56390.53
616.46	56315.63
616.61	56240.73
616.76	56165.84
616.92	56053.49
617.07	56128.39
617.22	56083.92
617.37	56090.94
617.53	56109.66
617.68	56154.13
617.83	56065.19
617.99	55999.66
618.14	55976.25
618.29	56020.72
618.45	55817.10
618.60	56140.09
618.75	56097.96
618.90	55945.83
619.06	56072.21
619.21	55770.28
619.36	55889.65
619.51	55948.17
619.67	55709.43
619.82	55664.96
619.97	55999.66
620.12	55730.50
620.28	55693.05
620.43	55835.82
620.58	55744.54
620.73	55845.18
620.89	55877.95
621.04	55711.77
621.19	56065.19
621.34	55800.71
621.49	55735.18
621.65	55641.56
621.80	55903.70
621.95	55655.60
622.10	55742.20
622.25	55653.26
622.41	55475.38
622.56	55765.60
622.71	55742.20
622.86	55657.94
623.01	55611.13
623.16	55578.36
623.32	55473.04
623.47	55339.63
623.62	55178.13
623.77	55320.90
623.92	55482.40
624.07	55248.35
624.23	55316.22
624.38	55428.57
624.53	55236.64
624.68	55571.34
624.83	55559.64
624.98	55426.23
625.13	55100.89
625.29	55384.10
625.44	55154.72
625.59	55180.47
625.74	55173.45
625.89	54951.10
626.04	54962.80
626.19	55035.36
626.34	54817.69
626.49	55136.00
626.65	54997.91
626.80	55224.94
626.95	54960.46
627.10	55334.95
627.25	55037.70
627.40	54780.24
627.55	54934.71
627.70	54777.90
627.85	54894.92
628.00	54726.41
628.15	54714.70
628.30	54522.78
628.45	54834.07
628.60	54562.57
628.76	55082.17
628.91	54955.78
629.06	54578.95
629.21	54808.32
629.36	54864.50
629.51	54574.27
629.66	54326.17
629.81	54475.97
629.96	54433.84
630.11	54342.56
630.26	54279.36
630.41	54347.24
630.56	54293.41
630.71	54499.37
630.86	54417.46
631.01	54571.93
631.16	54703.00
631.31	54422.14
631.46	54232.55
631.61	54328.52
631.76	54398.73
631.91	54298.09
632.06	54295.75
632.21	54066.38
632.36	54354.26
632.51	54291.07
632.66	53991.48
632.81	54272.34
632.96	54220.85
633.10	54279.36
633.25	54335.54
633.40	54103.82
633.55	54040.63
633.70	54237.23
633.85	53853.39
634.00	53909.56
634.15	53900.20
634.30	53937.65
634.45	53916.58
634.60	54026.59
634.75	53942.33
634.90	53734.02
635.05	54078.08
635.19	53888.49
635.34	53928.28
635.49	54007.86
635.64	53724.66
635.79	53804.24
635.94	53874.45
636.09	53745.72
636.24	53743.38
636.39	53518.69
636.53	53750.40
636.68	53368.90
636.83	53717.64
636.98	53731.68
637.13	53628.69
637.28	53640.40
637.43	53752.74
637.57	53661.46
637.72	53301.02
637.87	53448.47
638.02	53825.30
638.17	53687.21
638.32	53560.82
638.46	53350.17
638.61	53364.21
638.76	53111.44
638.91	53064.63
639.06	53268.25
639.20	53265.91
639.35	53200.38
639.50	53396.98
639.65	53289.32
639.80	53413.37
639.94	53083.35
640.09	53167.61
640.24	52893.77
640.39	53205.06
640.54	52697.16
640.68	53109.10
640.83	52676.10
640.98	52659.71
641.13	52638.65
641.27	52797.80
641.42	52514.60
641.57	52980.37
641.72	52846.96
641.86	52669.08
642.01	52671.42
642.16	53071.65
642.31	52924.19
642.45	52704.18
642.60	52605.88
642.75	52760.36
642.90	52631.63
643.04	52617.58
643.19	52465.45
643.34	52559.07
643.48	52697.16
643.63	52830.57
643.78	52727.59
643.93	52804.83
644.07	52767.38
644.22	52956.96
644.37	52336.72
644.51	52704.18
644.66	52498.22
644.81	52479.49
644.95	52367.15
645.10	52516.94
645.25	52397.57
645.39	52245.44
645.54	52381.19
645.69	52664.39
645.83	52411.62
645.98	52346.08
646.13	52608.22
646.27	52530.98
646.42	52296.93
646.57	52437.36
646.71	52142.45
646.86	52219.69
647.00	52334.38
647.15	51789.03
647.30	51863.93
647.44	51852.23
647.59	51901.38
647.74	51920.10
647.88	52037.13
648.03	52156.50
648.17	52093.30
648.32	52055.85
648.47	52037.13
648.61	51950.53
648.76	52030.11
648.90	51959.89
649.05	51515.19
649.20	52027.77
649.34	51454.34
649.49	51512.85
649.63	51707.12
649.78	51622.86
649.92	51578.39
650.07	51669.67
650.21	51576.04
650.36	51447.32
650.51	51812.44
650.65	52196.29
650.80	51763.29
650.94	51742.22
651.09	51840.53
651.23	51426.25
651.38	51426.25
651.52	51351.35
651.67	51421.57
651.81	51395.82
651.96	51124.32
652.10	51363.06
652.25	51334.97
652.39	51199.22
652.54	51536.26
652.68	51562.00
652.83	51412.21
652.97	51559.66
653.12	51260.07
653.26	51021.34
653.41	51070.49
653.55	51002.61
653.70	50927.72
653.84	51037.72
653.99	51246.03
654.13	51121.98
654.27	51143.05
654.42	50607.06
654.56	50841.12
654.71	51171.13
654.85	51133.68
655.00	51002.61
655.14	50878.57
655.29	50939.42
655.43	51019.00
655.57	50754.52
655.72	50707.71
655.86	50504.08
656.01	50443.23
656.15	50117.89
656.30	50768.56
656.44	50803.67
656.58	50546.21
656.73	50239.60
656.87	50410.46
657.01	50745.15
657.16	50628.13
657.30	50483.01
657.45	50646.85
657.59	50763.88
657.73	50181.09
657.88	50471.31
658.02	50384.71
658.16	50199.81
658.31	49883.84
658.45	49860.43
658.60	49769.15
658.74	49509.35
658.88	50066.40
659.03	49813.62
659.17	49902.56
659.31	49897.88
659.46	49982.14
659.60	50183.43
659.74	50164.70
659.89	49607.65
660.03	49818.30
660.17	50122.57
660.32	49652.12
660.46	49420.41
660.60	49296.36
660.74	49638.08
660.89	49806.60
661.03	49272.96
661.17	49069.33
661.32	48816.55
661.46	49031.88
661.60	49345.51
661.74	48999.12
661.89	49244.87
662.03	49270.62
662.17	49078.69
662.31	48781.45
662.46	49263.60
662.60	48659.74
662.74	48505.26
662.88	48257.17
663.03	48645.69
663.17	48577.82
663.31	48432.71
663.45	48495.90
663.60	47959.92
663.74	48346.11
663.88	48521.65
664.02	48594.20
664.17	48699.53
664.31	48460.79
664.45	48748.68
664.59	48594.20
664.73	48275.89
664.88	48278.23
665.02	47388.83
665.16	47948.21
665.30	47824.17
665.44	47805.44
665.59	47246.05
665.73	47487.13
665.87	47433.30
666.01	47704.80
666.15	47540.96
666.29	47374.78
666.44	47646.29
666.58	47210.95
666.72	47547.98
666.86	47753.95
667.00	47751.61
667.14	47056.47
667.28	47044.77
667.43	46960.51
667.57	47206.26
667.71	47063.49
667.85	47241.37
667.99	47065.83
668.13	46478.36
668.27	46754.54
668.41	46422.19
668.56	46302.82
668.70	46274.73
668.84	46553.26
668.98	46230.26
669.12	46094.51
669.26	46590.70
669.40	46604.75
669.54	46349.63
669.68	46120.26
669.82	45998.55
669.96	45958.76
670.10	45710.66
670.25	45670.87
670.39	45216.81
670.53	45689.60
670.67	45551.51
670.81	45584.27
670.95	45986.85
671.09	45546.82
671.23	45287.03
671.37	45162.98
671.51	45617.04
671.65	45808.96
671.79	45113.83
671.93	45144.25
672.07	45069.36
672.21	45146.59
672.35	44495.92
672.49	44598.91
672.63	45212.13
672.77	44428.05
672.91	44837.64
673.05	44336.77
673.19	44540.39
673.33	44383.58
673.47	44343.79
673.61	44350.81
673.75	44332.09
673.89	44243.15
674.03	44032.50
674.17	43833.55
674.31	43686.10
674.45	43501.20
674.59	43522.26
674.73	43391.19
674.87	43119.69
675.01	42895.00
675.15	43194.59
675.29	43086.92
675.43	43058.84
675.56	43243.74
675.70	42796.70
675.84	42808.40
675.98	41684.94
676.12	43147.78
676.26	43180.54
676.40	42651.58
676.54	42660.94
676.68	42368.38
676.82	41436.84
676.96	41694.30
677.10	41553.87
677.23	41483.66
677.37	41504.72
677.51	41221.52
677.65	40987.46
677.79	40732.34
677.93	40608.29
678.07	41060.02
678.21	40528.72
678.34	40690.21
678.48	40662.13
678.62	40517.01
678.76	40254.87
678.90	40491.27
679.04	40168.27
679.18	40247.85
679.31	39344.41
679.45	39929.54
679.59	39409.94
679.73	39346.75
679.87	38974.60
680.00	39697.83
680.14	39316.32
680.28	39482.50
680.42	38770.97
680.56	38932.47
680.70	39227.38
680.83	38660.97
680.97	38850.55
681.11	39021.41
681.25	38625.86
681.39	38527.56
681.52	38726.50
681.66	38153.07
681.80	38183.50
681.94	37656.88
682.07	37488.36
682.21	37535.17
682.35	37390.06
682.49	37392.40
682.62	36786.20
682.76	37202.82
682.90	37064.72
683.04	37060.04
683.17	36641.09
683.31	36905.57
683.45	36924.29
683.59	36847.05
683.72	36739.39
683.86	36704.28
684.00	36287.67
684.13	36191.70
684.27	35697.85
684.41	35742.32
684.55	35667.42
684.68	35716.58
684.82	35952.97
684.96	35182.93
685.09	34911.43
685.23	35000.37
685.37	35000.37
685.50	35171.23
685.64	34958.24
685.78	34768.66
685.91	34785.04
686.05	34918.45
686.19	34136.71
686.32	34256.08
686.46	34015.01
686.60	33914.36
686.73	33699.03
686.87	33432.21
687.01	33970.54
687.14	33331.57
687.28	33158.37
687.42	33638.18
687.55	33324.55
687.69	33394.76
687.82	32800.27
687.96	33046.02
688.10	32858.78
688.23	33125.60
688.37	32982.83
688.50	32697.28
688.64	32613.02
688.78	31955.33
688.91	32051.30
689.05	31833.63
689.18	31957.67
689.32	31388.92
689.46	31740.00
689.59	31304.67
689.73	31812.56
689.86	31194.66
690.00	31299.98
690.13	31475.52
690.27	31253.17
690.41	31232.11
690.54	31075.29
690.68	31084.65
690.81	30946.56
690.95	30878.69
691.08	30632.93
691.22	30529.95
691.35	30401.22
691.49	30398.88
691.62	30033.75
691.76	29898.00
691.89	29500.11
692.03	29214.57
692.16	29420.53
692.30	29497.77
692.43	29418.19
692.57	29256.70
692.70	28847.10
692.84	29092.86
692.97	28854.12
693.11	29259.04
693.24	28769.86
693.38	28807.31
693.51	28931.36
693.65	28898.59
693.78	28395.38
693.92	28456.23
694.05	28496.02
694.19	28203.46
694.32	27992.81
694.45	27901.53
694.59	27854.72
694.72	27248.52
694.86	27206.39
694.99	27103.40
695.13	27583.21
695.26	27077.66
695.39	26607.21
695.53	27185.32
695.66	27049.57
695.80	26920.84
695.93	26906.80
696.07	26693.81
696.20	26441.03
696.33	26412.95
696.47	26331.03
696.60	26092.29
696.73	26057.18
696.87	25631.21
697.00	25848.88
697.14	25436.94
697.27	25067.14
697.40	25149.06
697.54	25249.70
697.67	24755.85
697.80	24505.41
697.94	24795.64
698.07	24690.31
698.21	24425.83
698.34	24889.26
698.47	24694.99
698.61	24704.35
698.74	24397.74
698.87	24421.15
699.01	24198.80
699.14	24339.23
699.27	24034.96
699.40	23924.96
699.54	23758.78
699.67	23431.10
699.80	22965.34
699.94	23344.50
700.07	23281.31
700.20	23110.45
700.34	22920.87
700.47	22972.36
700.60	22946.61
700.73	23077.68
700.87	22611.92
701.00	22473.82
701.13	22665.75
701.26	22871.72
701.40	22431.69
701.53	22604.89
701.66	22621.28
701.79	22267.86
701.93	21944.86
702.06	22150.83
702.19	21638.25
702.32	21785.71
702.46	21483.78
702.59	21282.49
702.72	21050.78
702.85	20973.54
702.99	21125.68
703.12	21010.99
703.25	20620.12
703.38	20915.03
703.51	20968.86
703.65	20624.80
703.78	20755.87
703.91	20617.78
704.04	20294.79
704.17	20549.90
704.31	20306.49
704.44	20531.18
704.57	20116.90
704.70	19974.13
704.83	19431.13
704.96	19875.83
705.10	19267.29
705.23	19351.55
>>>>>End Processed Spectral Data<<<<<
