SpectraSuite Data File
++++++++++++++++++++++++++++++++++++
Date: Fri Oct 18 13:55:35 GMT-05:00 2013
User: bianchi
Dark Spectrum Present: No
Reference Spectrum Present: No
Number of Sampled Component Spectra: 1
Spectrometers: USB2+H05261
Integration Time (usec): 100000 (USB2+H05261)
Spectra Averaged: 1 (USB2+H05261)
Boxcar Smoothing: 0 (USB2+H05261)
Correct for Electrical Dark: No (USB2+H05261)
Strobe/Lamp Enabled: No (USB2+H05261)
Correct for Detector Non-linearity: No (USB2+H05261)
Correct for Stray Light: No (USB2+H05261)
Number of Pixels in Processed Spectrum: 2048
>>>>>Begin Processed Spectral Data<<<<<
365.73	0.00
365.92	0.00
366.12	0.00
366.32	0.00
366.52	0.00
366.72	0.00
366.91	0.00
367.11	0.00
367.31	0.00
367.51	0.00
367.70	0.00
367.90	0.00
368.10	0.00
368.30	0.00
368.49	0.00
368.69	0.00
368.89	0.00
369.09	0.00
369.28	0.00
369.48	0.00
369.68	0.00
369.87	0.00
370.07	0.00
370.27	0.00
370.47	21.06
370.66	322.99
370.86	301.93
371.06	330.02
371.25	379.17
371.45	421.30
371.65	353.42
371.84	348.74
372.04	418.96
372.24	379.17
372.44	472.79
372.63	435.34
372.83	447.04
373.03	311.29
373.22	456.40
373.42	407.25
373.62	421.30
373.81	524.28
374.01	500.87
374.21	456.40
374.40	486.83
374.60	491.51
374.79	578.11
374.99	517.26
375.19	428.32
375.38	498.53
375.58	383.85
375.78	477.47
375.97	514.92
376.17	578.11
376.37	479.81
376.56	472.79
376.76	428.32
376.95	484.49
377.15	627.26
377.35	608.54
377.54	613.22
377.74	533.64
377.93	528.96
378.13	540.66
378.33	613.22
378.52	667.05
378.72	603.86
378.91	620.24
379.11	613.22
379.31	559.39
379.50	589.82
379.70	648.33
379.89	627.26
380.09	645.99
380.28	606.20
380.48	667.05
380.68	655.35
380.87	603.86
381.07	592.16
381.26	636.63
381.46	613.22
381.65	641.31
381.85	706.84
382.04	739.61
382.24	699.82
382.43	784.08
382.63	657.69
382.83	681.10
383.02	770.04
383.22	683.44
383.41	727.91
383.61	711.52
383.80	802.80
384.00	734.93
384.19	704.50
384.39	706.84
384.58	718.54
384.78	781.74
384.97	816.85
385.17	812.17
385.36	873.02
385.56	891.74
385.75	746.63
385.95	779.40
386.14	821.53
386.34	851.96
386.53	777.06
386.72	802.80
386.92	901.11
387.11	915.15
387.31	854.30
387.50	844.93
387.70	828.55
387.89	919.83
388.09	924.51
388.28	959.62
388.48	903.45
388.67	877.70
388.86	947.92
389.06	924.51
389.25	1015.79
389.45	891.74
389.64	875.36
389.84	1018.13
390.03	964.30
390.22	1081.33
390.42	973.66
390.61	1013.45
390.81	1034.52
391.00	999.41
391.19	1050.90
391.39	1015.79
391.58	1149.20
391.78	1142.18
391.97	1057.92
392.16	1125.80
392.36	1184.31
392.55	1109.41
392.75	1057.92
392.94	1132.82
393.13	1088.35
393.33	1053.24
393.52	1160.91
393.71	1163.25
393.91	1090.69
394.10	1174.95
394.29	1256.87
394.49	1233.46
394.68	1296.66
394.88	1277.93
395.07	1294.32
395.26	1210.06
395.46	1287.29
395.65	1338.79
395.84	1394.96
396.04	1418.36
396.23	1280.27
396.42	1324.74
396.62	1273.25
396.81	1383.26
397.00	1380.92
397.19	1376.24
397.39	1439.43
397.58	1462.83
397.77	1469.86
397.97	1387.94
398.16	1493.26
398.35	1558.80
398.55	1493.26
398.74	1474.54
398.93	1528.37
399.12	1490.92
399.32	1474.54
399.51	1607.95
399.70	1586.88
399.90	1521.35
400.09	1626.67
400.28	1645.40
400.47	1600.93
400.67	1767.10
400.86	1654.76
401.05	1685.19
401.24	1701.57
401.44	1860.73
401.63	1710.93
401.82	1645.40
402.01	1732.00
402.21	1741.36
402.40	1853.70
402.59	1762.42
402.78	1818.60
402.97	1795.19
403.17	1827.96
403.36	1858.39
403.55	1893.49
403.74	1933.28
403.93	1942.64
404.13	1928.60
404.32	1942.64
404.51	2052.65
404.70	1856.04
404.89	1956.69
405.09	2071.37
405.28	1984.77
405.47	1947.33
405.66	2122.87
405.85	1977.75
406.05	2076.06
406.24	2172.02
406.43	2160.31
406.62	2115.84
406.81	2331.17
407.00	2216.49
407.20	2200.10
407.39	2331.17
407.58	2291.38
407.77	2275.00
407.96	2368.62
408.15	2200.10
408.34	2263.30
408.54	2434.16
408.73	2277.34
408.92	2363.94
409.11	2443.52
409.30	2345.22
409.49	2363.94
409.68	2490.33
409.87	2469.27
410.07	2574.59
410.26	2534.80
410.45	2600.34
410.64	2656.51
410.83	2677.57
411.02	2644.81
411.21	2761.83
411.40	2761.83
411.59	2745.45
411.78	2754.81
411.98	2759.49
412.17	2892.90
412.36	2729.06
412.55	2813.32
412.74	3002.91
412.93	2991.20
413.12	2813.32
413.31	3136.32
413.50	3077.80
413.69	3030.99
413.88	3133.98
414.07	3171.43
414.26	3204.19
414.45	3183.13
414.64	3265.05
414.83	3236.96
415.02	3276.75
415.22	3339.94
415.41	3527.19
415.60	3428.88
415.79	3578.68
415.98	3538.89
416.17	3454.63
416.36	3655.92
416.55	3599.74
416.74	3613.79
416.93	3602.08
417.12	3660.60
417.31	3674.64
417.50	3758.90
417.69	3843.16
417.88	3950.82
418.07	3929.76
418.26	3805.71
418.45	3978.91
418.64	3941.46
418.83	4212.96
419.02	3953.16
419.21	3981.25
419.39	4138.07
419.58	4100.62
419.77	3999.98
419.96	4147.43
420.15	4191.90
420.34	4152.11
420.53	4212.96
420.72	4292.54
420.91	4212.96
421.10	4248.07
421.29	4276.16
421.48	4184.88
421.67	4468.08
421.86	4381.48
422.05	4369.78
422.24	4454.04
422.43	4341.69
422.61	4337.01
422.80	4339.35
422.99	4524.26
423.18	4507.87
423.37	4498.51
423.56	4552.34
423.75	4526.60
423.94	4444.68
424.13	4201.26
424.32	4318.29
424.50	4575.75
424.69	4608.51
424.88	4737.24
425.07	4484.47
425.26	4458.72
425.45	4489.15
425.64	4489.15
425.83	4585.11
426.01	4674.05
426.20	4528.94
426.39	4561.70
426.58	4791.08
426.77	4685.75
426.96	4786.40
427.15	4718.52
427.33	4755.97
427.52	4823.84
427.71	4870.65
427.90	5011.09
428.09	4894.06
428.28	4912.78
428.46	4919.81
428.65	4863.63
428.84	5043.85
429.03	5032.15
429.22	5055.56
429.40	5069.60
429.59	4945.55
429.78	4802.78
429.97	4779.37
430.16	5008.75
430.34	5275.57
430.53	5420.68
430.72	5308.34
430.91	5238.12
431.10	5064.92
431.28	5301.31
431.47	5310.68
431.66	5322.38
431.85	5313.02
432.03	5533.03
432.22	5572.82
432.41	5383.23
432.60	5486.22
432.79	5483.88
432.97	5502.60
433.16	5607.92
433.35	5369.19
433.54	5621.97
433.72	5692.18
433.91	5771.76
434.10	5617.29
434.28	5722.61
434.47	5682.82
434.66	5610.26
434.85	5785.80
435.03	5860.70
435.22	5863.04
435.41	6073.69
435.59	5914.53
435.78	5877.09
435.97	5884.11
436.16	5907.51
436.34	5968.37
436.53	6197.74
436.72	6155.61
436.90	5933.26
437.09	6085.39
437.28	5968.37
437.46	6106.46
437.65	6216.46
437.84	6218.80
438.02	6218.80
438.21	6169.65
438.40	6239.87
438.58	6232.85
438.77	6377.96
438.96	6506.69
439.14	6576.91
439.33	6539.46
439.52	6806.28
439.70	6726.70
439.89	6918.62
440.08	6836.70
440.26	6825.00
440.45	6860.11
440.63	6825.00
440.82	7005.22
441.01	6979.48
441.19	7063.74
441.38	7164.38
441.57	7108.21
441.75	7066.08
441.94	7302.47
442.12	7325.88
442.31	7321.20
442.50	7550.57
442.68	7346.94
442.87	7527.16
443.05	7712.07
443.24	7625.47
443.43	7707.38
443.61	7473.33
443.80	7751.85
443.98	7510.78
444.17	7356.30
444.35	7564.61
444.54	7866.54
444.73	7730.79
444.91	7627.81
445.10	7798.66
445.28	7506.10
445.47	7634.83
445.65	7791.64
445.84	7763.56
446.02	7913.35
446.21	7765.90
446.39	7686.32
446.58	8011.65
446.77	7953.14
446.95	7686.32
447.14	7901.65
447.32	8060.80
447.51	7948.46
447.69	7922.71
447.88	7838.45
448.06	7772.92
448.25	7782.28
448.43	8044.42
448.62	7808.03
448.80	8021.02
448.99	7948.46
449.17	8138.04
449.36	7908.67
449.54	8257.41
449.73	8336.99
449.91	8278.47
450.10	8299.54
450.28	8339.33
450.46	8280.82
450.65	8365.07
450.83	8512.53
451.02	8549.98
451.20	8456.36
451.39	8435.29
451.57	8674.03
451.76	8351.03
451.94	8533.59
452.13	8620.19
452.31	8456.36
452.49	8549.98
452.68	8589.77
452.86	8542.96
453.05	8894.04
453.23	8678.71
453.42	8699.77
453.60	8615.51
453.78	8844.88
453.97	8542.96
454.15	8744.24
454.34	8952.55
454.52	9006.38
454.70	8908.08
454.89	9046.17
455.07	8971.27
455.26	9174.90
455.44	9366.82
455.62	9191.28
455.81	9095.32
455.99	9247.46
456.17	9352.78
456.36	9275.54
456.54	9490.87
456.73	9497.89
456.91	9572.79
457.09	9858.34
457.28	9919.19
457.46	9408.95
457.64	9724.93
457.83	9750.67
458.01	9554.07
458.19	9769.40
458.38	9715.56
458.56	9877.06
458.74	9827.91
458.93	9994.09
459.11	9942.60
459.29	9919.19
459.48	10005.79
459.66	10026.86
459.84	10164.95
460.03	10267.93
460.21	10108.77
460.39	10305.38
460.57	10389.64
460.76	10178.99
460.94	10321.76
461.12	10296.02
461.31	10270.27
461.49	10349.85
461.67	10246.87
461.85	10586.24
462.04	10560.50
462.22	11089.46
462.40	10663.48
462.59	10761.78
462.77	10602.63
462.95	10799.23
463.13	10581.56
463.32	10906.90
463.50	10801.57
463.68	10764.12
463.86	10832.00
464.05	10647.10
464.23	10670.50
464.41	11019.24
464.59	10764.12
464.78	11077.76
464.96	10930.30
465.14	10925.62
465.32	11145.63
465.50	11173.72
465.69	11173.72
465.87	11080.10
466.05	11234.57
466.23	11288.40
466.41	11194.78
466.60	11468.62
466.78	11215.85
466.96	11143.29
467.14	11309.47
467.32	11485.01
467.51	11595.01
467.69	11267.34
467.87	11342.24
468.05	11424.15
468.23	11407.77
468.41	11606.72
468.60	11545.86
468.78	11934.39
468.96	11779.92
469.14	11571.61
469.32	12095.89
469.50	11726.08
469.69	11889.92
469.87	11901.62
470.05	12095.89
470.23	12013.97
470.41	12152.06
470.59	12262.07
470.77	12177.81
470.95	12184.83
471.14	12512.50
471.32	12212.92
471.50	12407.18
471.68	12566.34
471.86	12587.40
472.04	12585.06
472.22	12603.78
472.40	12603.78
472.58	12751.24
472.77	12781.67
472.95	12901.03
473.13	13554.04
473.31	12912.74
473.49	13041.46
473.67	13121.04
473.85	13055.51
474.03	13322.33
474.21	13521.27
474.39	13380.84
474.57	13561.06
474.75	13760.01
474.93	13844.27
475.12	13853.63
475.30	13834.91
475.48	13930.87
475.66	13874.70
475.84	14260.88
476.02	14246.84
476.20	14183.65
476.38	14375.57
476.56	14771.12
476.74	14544.09
476.92	14356.85
477.10	14604.94
477.28	14946.66
477.46	14775.80
477.64	15262.63
477.82	15250.93
478.00	15807.98
478.18	15700.31
478.36	15754.15
478.54	15786.91
478.72	15906.28
478.90	16152.04
479.08	16006.92
479.26	16240.98
479.44	16383.75
479.62	16322.90
479.80	16437.58
479.98	16631.85
480.16	16943.14
480.34	16989.95
480.52	17050.80
480.70	17081.23
480.88	16875.26
481.06	17301.24
481.24	17200.60
481.41	17633.60
481.59	17671.04
481.77	17888.71
481.95	18246.82
482.13	18356.82
482.31	18115.75
482.49	18497.25
482.67	18307.67
482.85	18611.94
483.03	19051.96
483.21	19176.01
483.39	19325.80
483.57	19304.74
483.74	19669.86
483.92	19791.57
484.10	19477.94
484.28	20189.46
484.46	20154.35
484.64	20460.96
484.82	19978.81
485.00	20577.99
485.18	20592.03
485.35	21287.17
485.53	21223.98
485.71	21238.02
485.89	21439.31
486.07	21509.52
486.25	21401.86
486.43	21797.41
486.61	21804.43
486.78	22171.89
486.96	22607.23
487.14	22703.20
487.32	22525.32
487.50	22895.12
487.68	22672.77
487.85	23295.35
488.03	23606.64
488.21	23836.02
488.39	23885.17
488.57	23770.48
488.75	24116.88
488.92	24247.95
489.10	24163.69
489.28	24793.29
489.46	25092.88
489.64	25008.62
489.81	25186.50
489.99	25631.21
490.17	25514.18
490.35	25970.58
490.53	26120.38
490.70	26206.98
490.88	25914.41
491.06	26417.63
491.24	26572.10
491.41	26375.50
491.59	26525.29
491.77	26843.60
491.95	27424.06
492.13	27342.14
492.30	27725.99
492.48	27599.60
492.66	27761.09
492.84	27955.36
493.01	28451.55
493.19	28631.77
493.37	28367.29
493.54	28608.37
493.72	28804.97
493.90	29127.97
494.08	29371.38
494.25	28966.47
494.43	29366.70
494.61	29872.26
494.79	29670.97
494.96	29816.08
495.14	29977.58
495.32	30242.06
495.49	29860.55
495.67	30061.84
495.85	30773.36
496.02	30916.14
496.20	31094.02
496.38	30981.67
496.55	31087.00
496.73	32095.77
496.91	31796.18
497.09	32086.40
497.26	31899.16
497.44	32144.92
497.62	32039.59
497.79	32877.51
497.97	32196.41
498.14	33170.07
498.32	33558.60
498.50	33034.32
498.67	33748.18
498.85	33516.47
499.03	33626.48
499.20	33682.65
499.38	33846.49
499.56	34115.65
499.73	34017.35
499.91	33926.07
500.08	34101.61
500.26	34316.93
500.44	34335.66
500.61	34543.97
500.79	34511.20
500.97	34845.90
501.14	35351.45
501.32	35398.26
501.49	35093.99
501.67	35337.41
501.84	35468.48
502.02	35541.03
502.20	35997.44
502.37	36313.41
502.55	36060.63
502.72	36053.61
502.90	36098.08
503.07	35817.22
503.25	36683.22
503.43	36055.95
503.60	36697.26
503.78	36680.88
503.95	37446.23
504.13	36917.27
504.30	36935.99
504.48	36921.95
504.65	37256.65
504.83	37972.85
505.01	37860.51
505.18	37303.46
505.36	38082.86
505.53	37584.32
505.71	38256.06
505.88	38382.45
506.06	37944.76
506.23	38368.40
506.41	38422.23
506.58	38705.44
506.76	38728.84
506.93	39058.86
507.11	38148.39
507.28	39140.78
507.46	39103.33
507.63	39321.00
507.81	39559.73
507.98	39519.95
508.16	38923.11
508.33	39470.79
508.50	39704.85
508.68	40203.38
508.85	39931.88
509.03	39805.49
509.20	40282.96
509.38	40828.30
509.55	40367.22
509.73	40552.12
509.90	40547.44
510.08	40605.95
510.25	40320.41
510.42	41439.18
510.60	41202.79
510.77	41223.86
510.95	41572.60
511.12	41104.49
511.30	41420.46
511.47	41968.15
511.64	41387.69
511.82	42005.59
511.99	41839.42
512.17	42469.02
512.34	41893.25
512.51	42586.05
512.69	42356.67
512.86	42464.34
513.04	42981.60
513.21	42742.86
513.38	42946.49
513.56	42735.84
513.73	42595.41
513.90	43058.84
514.08	42820.10
514.25	43363.11
514.43	43672.06
514.60	43306.93
514.77	43615.88
514.95	43494.18
515.12	43784.40
515.29	43482.47
515.47	43910.79
515.64	44130.80
515.81	44233.78
515.99	44362.51
516.16	44683.17
516.33	44533.37
516.51	45015.52
516.68	44128.46
516.85	44285.28
517.03	44863.39
517.20	44891.48
517.37	45111.49
517.54	45148.93
517.72	45104.46
517.89	45109.14
518.06	45020.20
518.24	45055.31
518.41	45333.84
518.58	45708.32
518.75	45242.56
518.93	45680.24
519.10	45825.35
519.27	45949.40
519.45	45640.45
519.62	45715.34
519.79	45940.04
519.96	45942.38
520.14	46134.30
520.31	46281.75
520.48	46295.80
520.65	46375.37
520.83	46405.80
521.00	46518.15
521.17	46782.63
521.34	46742.84
521.52	46639.86
521.69	47051.79
521.86	47407.55
522.03	46916.04
522.20	47337.33
522.38	47475.43
522.55	47255.42
522.72	47409.89
522.89	47756.29
523.07	47831.19
523.24	47758.63
523.41	48130.78
523.58	47903.74
523.75	48083.97
523.92	48048.86
524.10	47990.34
524.27	47845.23
524.44	48322.70
524.61	48734.63
524.78	48552.07
524.96	48605.91
525.13	48655.06
525.30	48685.48
525.47	48631.65
525.64	48638.67
525.81	48526.33
525.98	48912.52
526.16	49331.47
526.33	49095.08
526.50	49064.65
526.67	48603.56
526.84	48926.56
527.01	49380.62
527.18	48940.60
527.36	49382.96
527.53	49408.71
527.70	49883.84
527.87	49778.51
528.04	49378.28
528.21	49818.30
528.38	49563.18
528.55	49951.71
528.72	49886.18
528.89	49909.58
529.07	49799.58
529.24	49638.08
529.41	50272.37
529.58	49680.21
529.75	49890.86
529.92	50057.04
530.09	50239.60
530.26	50253.64
530.43	50543.87
530.60	50571.96
530.77	50567.27
530.94	50586.00
531.11	50302.79
531.28	50532.17
531.46	50522.80
531.63	50588.34
531.80	50651.53
531.97	50824.73
532.14	50869.20
532.31	50869.20
532.48	50450.25
532.65	51042.40
532.82	50894.95
532.99	51136.02
533.16	50897.29
533.33	51105.60
533.50	51709.46
533.67	51327.95
533.84	51086.87
534.01	51171.13
534.18	51231.99
534.35	51559.66
534.52	51414.55
534.69	51695.41
534.86	51367.74
535.03	51349.01
535.20	51892.02
535.37	51756.27
535.54	51751.59
535.71	51758.61
535.88	51730.52
536.05	51620.52
536.22	51999.68
536.38	52065.22
536.55	52121.39
536.72	52130.75
536.89	52006.70
537.06	52254.80
537.23	52219.69
537.40	52175.22
537.57	52097.98
537.74	52245.44
537.91	52381.19
538.08	52552.05
538.25	52182.24
538.42	52325.02
538.59	52425.66
538.75	52163.52
538.92	52409.28
539.09	52694.82
539.26	52594.18
539.43	52418.64
539.60	52516.94
539.77	52868.02
539.94	52914.83
540.11	53013.13
540.28	52748.65
540.44	52886.74
540.61	52704.18
540.78	52865.68
540.95	52872.70
541.12	52919.51
541.29	53193.36
541.46	52978.03
541.62	52910.15
541.79	52809.51
541.96	52807.17
542.13	52963.98
542.30	53633.38
542.47	53776.15
542.63	53322.08
542.80	53497.62
542.97	53577.20
543.14	53783.17
543.31	53663.80
543.48	53661.46
543.64	53722.32
543.81	54019.56
543.98	53928.28
544.15	54021.90
544.32	54082.76
544.48	53956.37
544.65	53708.27
544.82	53979.78
544.99	53563.16
545.16	53654.44
545.32	53958.71
545.49	54185.74
545.66	54398.73
545.83	54387.03
546.00	54293.41
546.16	54183.40
546.33	53916.58
546.50	53853.39
546.67	54227.87
546.83	53825.30
547.00	54253.62
547.17	54426.82
547.34	54237.23
547.50	54251.28
547.67	54609.38
547.84	54225.53
548.00	54351.92
548.17	54712.36
548.34	54504.06
548.51	54791.94
548.67	54824.71
548.84	54588.31
549.01	54670.23
549.18	54569.59
549.34	54497.03
549.51	54827.05
549.68	54759.17
549.84	54574.27
550.01	54724.07
550.18	54658.53
550.34	54796.62
550.51	54915.99
550.68	55117.28
550.84	54925.35
551.01	55096.21
551.18	54850.45
551.34	54946.42
551.51	54841.09
551.68	54866.84
551.84	54770.88
552.01	54894.92
552.18	55189.83
552.34	55033.02
552.51	55180.47
552.68	54923.01
552.84	55002.59
553.01	55138.34
553.18	55131.32
553.34	55171.11
553.51	54941.74
553.67	55496.44
553.84	55430.91
554.01	55304.52
554.17	55337.29
554.34	55250.69
554.51	55468.36
554.67	55463.67
554.84	55629.85
555.00	55426.23
555.17	55356.01
555.33	55770.28
555.50	55412.18
555.67	55491.76
555.83	55627.51
556.00	55447.29
556.16	55863.91
556.33	55547.93
556.50	55695.39
556.66	55601.77
556.83	55573.68
556.99	56112.00
557.16	56062.85
557.32	56062.85
557.49	55751.56
557.65	55494.10
557.82	55592.40
557.98	55873.27
558.15	55742.20
558.32	55810.07
558.48	55805.39
558.65	56074.55
558.81	55985.61
558.98	55966.89
559.14	55962.21
559.31	55746.88
559.47	55856.88
559.64	56004.34
559.80	55936.46
559.97	56161.15
560.13	56030.08
560.30	55868.59
560.46	56074.55
560.63	56039.45
560.79	55978.59
560.96	56095.62
561.12	56065.19
561.29	56086.26
561.45	56023.06
561.61	56151.79
561.78	56229.03
561.94	56308.61
562.11	56374.14
562.27	56069.87
562.44	55882.63
562.60	56189.24
562.77	56046.47
562.93	55964.55
563.10	56491.17
563.26	56219.67
563.42	56694.80
563.59	56449.04
563.75	56397.55
563.92	56575.43
564.08	56278.18
564.24	56294.56
564.41	56348.40
564.57	56165.84
564.74	56259.46
564.90	56212.65
565.07	56413.93
565.23	56458.40
565.39	56547.34
565.56	56324.99
565.72	56271.16
565.88	56556.70
566.05	56177.54
566.21	56060.51
566.38	56149.45
566.54	56392.87
566.70	56460.74
566.87	56554.36
567.03	56399.89
567.19	56549.68
567.36	56432.66
567.52	56460.74
567.68	56505.21
567.85	56460.74
568.01	56582.45
568.17	56577.77
568.34	56722.88
568.50	56474.79
568.66	56746.29
568.83	56814.16
568.99	56486.49
569.15	56474.79
569.32	56465.42
569.48	56488.83
569.64	56669.05
569.81	56397.55
569.97	56809.48
570.13	56591.81
570.30	56481.81
570.46	56767.35
570.62	56397.55
570.78	56530.96
570.95	56493.51
571.11	56662.03
571.27	56322.65
571.43	56392.87
571.60	56802.46
571.76	56722.88
571.92	56659.69
572.09	56779.06
572.25	57008.43
572.41	56640.96
572.57	56757.99
572.74	56718.20
572.90	56619.90
573.06	56804.80
573.22	56622.24
573.38	56851.61
573.55	56795.44
573.71	56844.59
573.87	56900.76
574.03	56617.56
574.20	56809.48
574.36	56605.86
574.52	56718.20
574.68	56573.09
574.84	56638.62
575.01	56729.90
575.17	56629.26
575.33	56734.59
575.49	56769.69
575.65	57020.13
575.82	57057.58
575.98	56966.30
576.14	56669.05
576.30	56729.90
576.46	56776.72
576.62	56545.00
576.79	56638.62
576.95	56715.86
577.11	56669.05
577.27	56783.74
577.43	56743.95
577.59	56849.27
577.75	56783.74
577.92	56568.41
578.08	56783.74
578.24	56865.66
578.40	56666.71
578.56	56839.91
578.72	56846.93
578.88	56942.89
579.04	56896.08
579.21	56851.61
579.37	56896.08
579.53	56685.43
579.69	56846.93
579.85	56786.08
580.01	56701.82
580.17	56910.13
580.33	56865.66
580.49	56853.95
580.65	56896.08
580.82	57069.28
580.98	56893.74
581.14	56741.61
581.30	56952.26
581.46	56736.93
581.62	56556.70
581.78	56835.23
581.94	56963.96
582.10	56603.52
582.26	56655.01
582.42	56956.94
582.58	57097.37
582.74	56898.42
582.90	57095.03
583.06	57038.86
583.22	56786.08
583.38	56772.03
583.54	56809.48
583.70	56680.75
583.86	56926.51
584.02	56617.56
584.18	56931.19
584.34	57256.53
584.50	57116.09
584.66	56945.23
584.82	56858.63
584.98	57116.09
585.14	56645.65
585.30	56851.61
585.46	56821.19
585.62	56772.03
585.78	56989.70
585.94	56907.79
586.10	56886.72
586.26	56612.88
586.42	57176.95
586.58	57083.33
586.74	57111.41
586.90	56788.42
587.06	56704.16
587.22	56825.87
587.38	56956.94
587.54	56928.85
587.70	57350.15
587.86	56928.85
588.02	56992.04
588.18	57022.47
588.34	56961.62
588.49	56879.70
588.65	56882.04
588.81	56830.55
588.97	56945.23
589.13	56975.66
589.29	56793.10
589.45	56966.30
589.61	57160.56
589.77	57291.63
589.93	57481.22
590.08	57148.86
590.24	57097.37
590.40	57181.63
590.56	57034.17
590.72	57036.51
590.88	56954.60
591.04	56996.73
591.20	57375.89
591.35	57205.03
591.51	57265.89
591.67	57169.93
591.83	57434.41
591.99	57148.86
592.15	57144.18
592.31	57298.65
592.46	57169.93
592.62	56982.68
592.78	57144.18
592.94	57301.00
593.10	57181.63
593.26	57521.01
593.41	57214.40
593.57	57429.72
593.73	57427.38
593.89	57272.91
594.05	57233.12
594.20	56926.51
594.36	56914.81
594.52	57083.33
594.68	57008.43
594.84	56999.07
594.99	57326.74
595.15	57446.11
595.31	57490.58
595.47	57485.90
595.62	57481.22
595.78	57193.33
595.94	57336.10
596.10	57125.46
596.25	57301.00
596.41	57120.77
596.57	56919.49
596.73	57331.42
596.88	57160.56
597.04	57401.64
597.20	57389.94
597.36	57403.98
597.51	57483.56
597.67	57148.86
597.83	57059.92
597.99	57207.37
598.14	57301.00
598.30	57146.52
598.46	57057.58
598.61	57228.44
598.77	56940.55
598.93	57263.55
599.09	57310.36
599.24	57525.69
599.40	57333.76
599.56	57469.51
599.71	57247.16
599.87	57340.78
600.03	57181.63
600.18	57174.61
600.34	57158.22
600.50	57308.02
600.65	57071.62
600.81	57338.44
600.97	57408.66
601.12	57427.38
601.28	57233.12
601.44	57251.84
601.59	57396.96
601.75	57413.34
601.91	57420.36
602.06	57153.54
602.22	57425.04
602.37	57219.08
602.53	57277.59
602.69	57331.42
602.84	57474.20
603.00	57429.72
603.16	57518.67
603.31	57109.07
603.47	57062.26
603.62	57162.90
603.78	57020.13
603.94	57148.86
604.09	57371.21
604.25	57179.29
604.40	57221.42
604.56	57256.53
604.71	57394.62
604.87	57439.09
605.03	57331.42
605.18	57446.11
605.34	57317.38
605.49	56809.48
605.65	57277.59
605.80	56975.66
605.96	57130.14
606.12	57024.81
606.27	57080.98
606.43	56748.63
606.58	57059.92
606.74	57027.15
606.89	57010.77
607.05	57006.09
607.20	57162.90
607.36	57279.93
607.51	57102.05
607.67	57006.09
607.82	56863.32
607.98	57073.96
608.13	56999.07
608.29	57071.62
608.44	57059.92
608.60	57080.98
608.75	57015.45
608.91	56924.17
609.06	56772.03
609.22	57036.51
609.37	56875.02
609.53	56942.89
609.68	56966.30
609.84	56638.62
609.99	56877.36
610.15	56523.94
610.30	56743.95
610.46	56860.97
610.61	56945.23
610.76	56886.72
610.92	56699.48
611.07	56978.00
611.23	56896.08
611.38	56900.76
611.54	56725.22
611.69	56765.01
611.84	56849.27
612.00	56718.20
612.15	56697.14
612.31	56610.54
612.46	56636.28
612.62	56877.36
612.77	56547.34
612.92	56837.57
613.08	56734.59
613.23	56816.50
613.39	56650.33
613.54	56687.78
613.69	56568.41
613.85	56563.73
614.00	56561.39
614.15	56589.47
614.31	56479.47
614.46	56788.42
614.62	56825.87
614.77	56678.41
614.92	56610.54
615.08	56442.02
615.23	56561.39
615.38	56659.69
615.54	56177.54
615.69	56530.96
615.84	56390.53
616.00	56453.72
616.15	56378.82
616.30	56432.66
616.46	56423.29
616.61	56545.00
616.76	56385.85
616.92	56296.91
617.07	56289.88
617.22	56355.42
617.37	56130.73
617.53	56205.62
617.68	56053.49
617.83	56406.91
617.99	56123.71
618.14	56170.52
618.29	56341.38
618.45	56383.51
618.60	56397.55
618.75	56172.86
618.90	56306.27
619.06	56374.14
619.21	56332.01
619.36	56259.46
619.51	56062.85
619.67	55884.97
619.82	55910.72
619.97	55929.44
620.12	55917.74
620.28	55987.95
620.43	56119.02
620.58	56224.35
620.73	56076.90
620.89	56198.60
621.04	56116.68
621.19	55997.32
621.34	55828.80
621.49	55725.81
621.65	55557.30
621.80	56107.32
621.95	55913.06
622.10	56048.81
622.25	55847.52
622.41	55760.92
622.56	55941.14
622.71	55826.46
622.86	55594.74
623.01	55655.60
623.16	55819.44
623.32	55613.47
623.47	55728.16
623.62	55526.87
623.77	55454.31
623.92	55519.85
624.07	55341.97
624.23	55430.91
624.38	55704.75
624.53	55400.48
624.68	55564.32
624.83	55700.07
624.98	55716.45
625.13	55250.69
625.29	55487.08
625.44	55498.78
625.59	55281.11
625.74	55267.07
625.89	55309.20
626.04	55051.74
626.19	54993.23
626.34	55199.19
626.49	55128.98
626.65	55238.98
626.80	55313.88
626.95	54953.44
627.10	55398.14
627.25	55348.99
627.40	55267.07
627.55	55164.09
627.70	54934.71
627.85	54955.78
628.00	54649.17
628.15	55058.76
628.30	54419.80
628.45	54906.63
628.60	55016.63
628.76	54848.11
628.91	54775.56
629.06	54770.88
629.21	54990.89
629.36	54934.71
629.51	55007.27
629.66	54597.68
629.81	54506.40
629.96	54595.34
630.11	54651.51
630.26	54759.17
630.41	54604.70
630.56	54482.99
630.71	54585.97
630.86	54660.87
631.01	54887.90
631.16	54721.72
631.31	54618.74
631.46	54529.80
631.61	54726.41
631.76	54658.53
631.91	54454.90
632.06	54415.11
632.21	54504.06
632.36	54466.61
632.51	54211.49
632.66	54541.50
632.81	54485.33
632.96	54464.27
633.10	54412.77
633.25	54637.47
633.40	54518.10
633.55	54258.30
633.70	54370.64
633.85	53975.09
634.00	54127.23
634.15	54485.33
634.30	53944.67
634.45	54094.46
634.60	54211.49
634.75	54492.35
634.90	53996.16
635.05	54181.06
635.19	54152.97
635.34	54185.74
635.49	54108.50
635.64	54319.15
635.79	53832.32
635.94	54019.56
636.09	54160.00
636.24	53907.22
636.39	53666.14
636.53	53928.28
636.68	53902.54
636.83	53780.83
636.98	54141.27
637.13	53806.58
637.28	53764.45
637.43	53961.05
637.57	53914.24
637.72	53567.84
637.87	53825.30
638.02	53865.09
638.17	53631.04
638.32	53661.46
638.46	53338.47
638.61	53673.16
638.76	53326.77
638.91	53404.00
639.06	53343.15
639.20	53743.38
639.35	53579.54
639.50	53647.42
639.65	53741.04
639.80	53525.71
639.94	53294.00
640.09	53481.24
640.24	53514.01
640.39	53441.45
640.54	53102.07
640.68	53305.70
640.83	53329.11
640.98	52830.57
641.13	52846.96
641.27	53092.71
641.42	52851.64
641.57	53036.54
641.72	53230.80
641.86	52928.87
642.01	52875.04
642.16	53254.21
642.31	52793.12
642.45	53172.29
642.60	53071.65
642.75	52776.74
642.90	52786.10
643.04	53081.01
643.19	52891.43
643.34	53083.35
643.48	52971.00
643.63	52900.79
643.78	52921.85
643.93	53263.57
644.07	52940.58
644.22	52919.51
644.37	52697.16
644.51	52655.03
644.66	52617.58
644.81	52669.08
644.95	52755.68
645.10	52594.18
645.25	52479.49
645.39	52816.53
645.54	52512.26
645.69	52509.92
645.83	52795.46
645.98	52823.55
646.13	52481.83
646.27	52823.55
646.42	52261.82
646.57	52729.93
646.71	52729.93
646.86	52217.35
647.00	52310.97
647.15	52289.91
647.30	52217.35
647.44	52182.24
647.59	52182.24
647.74	51922.44
647.88	51990.32
648.03	52465.45
648.17	52523.96
648.32	52587.16
648.47	52149.48
648.61	52240.76
648.76	52346.08
648.90	51842.87
649.05	52250.12
649.20	52203.31
649.34	51917.76
649.49	51920.10
649.63	51725.84
649.78	51840.53
649.92	51866.27
650.07	52168.20
650.21	51861.59
650.36	52086.28
650.51	51941.17
650.65	52032.45
650.80	52004.36
650.94	52123.73
651.09	51971.60
651.23	51885.00
651.38	51929.47
651.52	51634.56
651.67	51360.72
651.81	51643.92
651.96	51629.88
652.10	51461.36
652.25	51892.02
652.39	51859.25
652.54	51669.67
652.68	51821.80
652.83	51725.84
652.97	51587.75
653.12	51849.89
653.26	51379.44
653.41	51643.92
653.55	51536.26
653.70	51016.66
653.84	51341.99
653.99	51171.13
654.13	51227.31
654.27	51114.96
654.42	51030.70
654.56	51447.32
654.71	51606.47
654.85	51491.79
655.00	51494.13
655.14	51330.29
655.29	51021.34
655.43	51243.69
655.57	51028.36
655.72	50632.81
655.86	50906.65
656.01	51040.06
656.15	50356.63
656.30	50534.51
656.44	50897.29
656.58	50850.48
656.73	50878.57
656.87	50639.83
657.01	51061.13
657.16	51004.95
657.30	50908.99
657.45	50815.37
657.59	50684.30
657.73	50370.67
657.88	50770.90
658.02	50387.05
658.16	50499.40
658.31	50440.89
658.45	50490.04
658.60	50216.19
658.74	50253.64
658.88	50375.35
659.03	50075.76
659.17	50094.49
659.31	50082.78
659.46	50082.78
659.60	50405.78
659.74	50253.64
659.89	50047.68
660.03	50131.93
660.17	50230.24
660.32	49799.58
660.46	49792.56
660.60	49853.41
660.74	49965.76
660.89	49834.69
661.03	49514.03
661.17	49710.64
661.32	49359.56
661.46	49907.24
661.60	49361.90
661.74	49532.76
661.89	49429.77
662.03	49780.85
662.17	49780.85
662.31	49387.64
662.46	49289.34
662.60	49434.45
662.74	49439.14
662.88	48830.60
663.03	48861.02
663.17	48633.99
663.31	48622.29
663.45	48734.63
663.60	48678.46
663.74	48776.76
663.88	48428.02
664.02	48626.97
664.17	48835.28
664.31	48886.77
664.45	48889.11
664.59	48559.09
664.73	48549.73
664.88	48217.38
665.02	47999.71
665.16	48090.99
665.30	47744.59
665.44	48182.27
665.59	47571.39
665.73	47693.10
665.87	47622.88
666.01	47784.38
666.15	47665.01
666.29	47662.67
666.44	47878.00
666.58	47789.06
666.72	48196.31
666.86	47758.63
667.00	48083.97
667.14	47449.68
667.28	47496.49
667.43	47533.94
667.57	47569.05
667.71	47107.96
667.85	47072.85
667.99	47365.42
668.13	46813.05
668.27	46469.00
668.41	47358.40
668.56	46948.81
668.70	47246.05
668.84	46897.31
668.98	46679.64
669.12	46909.02
669.26	46618.79
669.40	46576.66
669.54	46391.76
669.68	46822.42
669.82	46735.82
669.96	46256.01
670.10	46195.15
670.25	46115.58
670.39	45883.86
670.53	45509.38
670.67	45794.92
670.81	45876.84
670.95	45497.67
671.09	45455.54
671.23	45792.58
671.37	45743.43
671.51	45911.95
671.65	45769.18
671.79	45277.66
671.93	45010.84
672.07	45799.60
672.21	45043.61
672.35	45088.08
672.49	45045.95
672.63	45170.00
672.77	44697.21
672.91	44755.72
673.05	44526.35
673.19	44610.61
673.33	44818.92
673.47	44545.08
673.61	44683.17
673.75	44236.12
673.89	44465.50
674.03	44076.97
674.17	44072.29
674.31	44428.05
674.45	44172.93
674.59	44023.14
674.73	44011.43
674.87	43239.06
675.01	43164.16
675.15	43585.46
675.29	43012.02
675.43	43229.69
675.56	43138.41
675.70	43342.04
675.84	43423.96
675.98	42218.58
676.12	43335.02
676.26	43236.72
676.40	43168.84
676.54	42752.23
676.68	42632.86
676.82	41556.21
676.96	42099.22
677.10	42087.51
677.23	41776.22
677.37	41694.30
677.51	41439.18
677.65	41579.62
677.79	41413.44
677.93	41163.00
678.07	41273.01
678.21	41242.58
678.34	40924.27
678.48	41408.76
678.62	40474.88
678.76	40905.54
678.90	40900.86
679.04	40868.09
679.18	40222.11
679.31	40177.64
679.45	39950.60
679.59	40055.93
679.73	39632.29
679.87	39754.00
680.00	39328.02
680.14	39136.10
680.28	39232.06
680.42	39550.37
680.56	39316.32
680.70	38948.85
680.83	39384.19
680.97	39187.59
681.11	39887.41
681.25	38958.22
681.39	39309.30
681.52	39047.16
681.66	38728.84
681.80	37907.32
681.94	38078.18
682.07	38071.15
682.21	37844.12
682.35	37687.31
682.49	37329.20
682.62	37474.32
682.76	37240.26
682.90	37352.61
683.04	37336.23
683.17	37347.93
683.31	37462.61
683.45	37436.87
683.59	37291.76
683.72	37013.23
683.86	36975.78
684.00	36648.11
684.13	36194.04
684.27	36070.00
684.41	36556.83
684.55	35868.71
684.68	35697.85
684.82	35747.00
684.96	35775.09
685.09	35356.13
685.23	35391.24
685.37	35395.92
685.50	35098.67
685.64	35344.43
685.78	35138.46
685.91	35318.68
686.05	34946.54
686.19	34485.45
686.32	34658.65
686.46	34696.10
686.60	34522.90
686.73	34199.91
686.87	34078.20
687.01	34003.30
687.14	34249.06
687.28	33429.87
687.42	33481.36
687.55	33198.16
687.69	33352.63
687.82	33237.95
687.96	33347.95
688.10	33380.72
688.23	33385.40
688.37	32931.34
688.50	32910.27
688.64	32788.56
688.78	32723.03
688.91	32254.92
689.05	32158.96
689.18	31969.38
689.32	31828.95
689.46	31885.12
689.59	31527.02
689.73	31723.62
689.86	31784.48
690.00	31452.12
690.13	31452.12
690.27	31159.55
690.41	31660.43
690.54	31370.20
690.68	31168.91
690.81	31063.59
690.95	31173.60
691.08	30927.84
691.22	31012.10
691.35	30623.57
691.49	30305.26
691.62	30419.94
691.76	30246.74
691.89	30328.66
692.03	29745.87
692.16	29715.44
692.30	29830.13
692.43	29729.48
692.57	29329.25
692.70	29287.12
692.84	29371.38
692.97	29446.28
693.11	29022.64
693.24	28788.59
693.38	28891.57
693.51	28907.96
693.65	29001.58
693.78	28940.72
693.92	28411.76
694.05	28781.57
694.19	28512.41
694.32	28098.13
694.45	28210.48
694.59	27648.75
694.72	27782.16
694.86	27831.31
694.99	27555.13
695.13	27419.38
695.26	27281.28
695.39	27164.26
695.53	27454.48
695.66	27049.57
695.80	27283.62
695.93	26972.33
696.07	26668.06
696.20	26885.73
696.33	26677.43
696.47	26616.57
696.60	27035.53
696.73	26230.38
696.87	26155.49
697.00	25970.58
697.14	25256.72
697.27	25427.58
697.40	25308.21
697.54	25282.47
697.67	25390.13
697.80	25340.98
697.94	25205.23
698.07	24987.56
698.21	24617.75
698.34	24758.19
698.47	24917.34
698.61	24606.05
698.74	24964.15
698.87	24772.23
699.01	24482.00
699.14	24229.23
699.27	24285.40
699.40	24460.94
699.54	23981.13
699.67	23466.21
699.80	23850.06
699.94	23403.02
700.07	23424.08
700.20	22927.89
700.34	23084.70
700.47	23391.31
700.60	23065.98
700.73	22981.72
700.87	23108.11
701.00	22867.03
701.13	22668.09
701.26	22759.37
701.40	22735.96
701.53	22401.27
701.66	22623.62
701.79	22431.69
701.93	22324.03
702.06	22010.40
702.19	21553.99
702.32	21851.24
702.46	21708.47
702.59	21642.93
702.72	21198.23
702.85	21357.39
702.99	21511.86
703.12	21331.64
703.25	21193.55
703.38	20798.00
703.51	21034.39
703.65	21343.35
703.78	20917.37
703.91	20601.40
704.04	20636.50
704.17	20334.57
704.31	20475.01
704.44	20446.92
704.57	20175.42
704.70	19934.34
704.83	19983.49
704.96	19953.07
705.10	19866.47
705.23	19702.63
>>>>>End Processed Spectral Data<<<<<
