SpectraSuite Data File
++++++++++++++++++++++++++++++++++++
Date: Fri Oct 18 13:54:12 GMT-05:00 2013
User: bianchi
Dark Spectrum Present: No
Reference Spectrum Present: No
Number of Sampled Component Spectra: 1
Spectrometers: USB2+H05261
Integration Time (usec): 100000 (USB2+H05261)
Spectra Averaged: 1 (USB2+H05261)
Boxcar Smoothing: 0 (USB2+H05261)
Correct for Electrical Dark: No (USB2+H05261)
Strobe/Lamp Enabled: No (USB2+H05261)
Correct for Detector Non-linearity: No (USB2+H05261)
Correct for Stray Light: No (USB2+H05261)
Number of Pixels in Processed Spectrum: 2048
>>>>>Begin Processed Spectral Data<<<<<
365.73	0.00
365.92	0.00
366.12	0.00
366.32	0.00
366.52	0.00
366.72	0.00
366.91	0.00
367.11	0.00
367.31	0.00
367.51	0.00
367.70	0.00
367.90	0.00
368.10	0.00
368.30	0.00
368.49	0.00
368.69	0.00
368.89	0.00
369.09	0.00
369.28	0.00
369.48	0.00
369.68	0.00
369.87	0.00
370.07	0.00
370.27	0.00
370.47	0.00
370.66	292.57
370.86	311.29
371.06	358.10
371.25	395.55
371.45	325.33
371.65	369.80
371.84	367.46
372.04	365.12
372.24	372.15
372.44	395.55
372.63	507.90
372.83	458.74
373.03	372.15
373.22	430.66
373.42	367.46
373.62	482.15
373.81	468.11
374.01	552.37
374.21	447.04
374.40	543.00
374.60	550.03
374.79	571.09
374.99	550.03
375.19	533.64
375.38	550.03
375.58	564.07
375.78	535.98
375.97	482.15
376.17	662.37
376.37	580.45
376.56	456.40
376.76	526.62
376.95	533.64
377.15	601.52
377.35	599.18
377.54	608.54
377.74	608.54
377.93	543.00
378.13	564.07
378.33	575.77
378.52	629.60
378.72	505.56
378.91	671.73
379.11	561.73
379.31	571.09
379.50	540.66
379.70	594.50
379.89	641.31
380.09	622.58
380.28	657.69
380.48	690.46
380.68	561.73
380.87	599.18
381.07	599.18
381.26	671.73
381.46	627.26
381.65	662.37
381.85	662.37
382.04	753.65
382.24	737.27
382.43	634.29
382.63	711.52
382.83	746.63
383.02	732.59
383.22	716.20
383.41	678.76
383.61	781.74
383.80	793.44
384.00	802.80
384.19	741.95
384.39	779.40
384.58	739.61
384.78	770.04
384.97	835.57
385.17	734.93
385.36	807.48
385.56	781.74
385.75	741.95
385.95	779.40
386.14	777.06
386.34	828.55
386.53	821.53
386.72	861.32
386.92	861.32
387.11	954.94
387.31	903.45
387.50	891.74
387.70	903.45
387.89	1001.75
388.09	889.40
388.28	795.78
388.48	976.00
388.67	952.60
388.86	882.38
389.06	961.96
389.25	884.72
389.45	971.32
389.64	971.32
389.84	976.00
390.03	938.55
390.22	1013.45
390.42	983.02
390.61	1008.77
390.81	966.64
391.00	1011.11
391.19	1116.44
391.39	1097.71
391.58	1203.04
391.78	1046.22
391.97	1057.92
392.16	1067.28
392.36	1118.78
392.55	1055.58
392.75	1188.99
392.94	1163.25
393.13	1118.78
393.33	1268.57
393.52	1130.48
393.71	1207.72
393.91	1233.46
394.10	1200.69
394.29	1128.14
394.49	1200.69
394.68	1263.89
394.88	1170.27
395.07	1291.98
395.26	1273.25
395.46	1306.02
395.65	1294.32
395.84	1366.87
396.04	1462.83
396.23	1385.60
396.42	1289.64
396.62	1465.18
396.81	1341.13
397.00	1411.34
397.19	1411.34
397.39	1366.87
397.58	1446.45
397.77	1432.41
397.97	1451.13
398.16	1409.00
398.35	1509.65
398.55	1467.52
398.74	1474.54
398.93	1629.01
399.12	1493.26
399.32	1511.99
399.51	1493.26
399.70	1551.78
399.90	1575.18
400.09	1612.63
400.28	1617.31
400.47	1607.95
400.67	1668.80
400.86	1696.89
401.05	1624.33
401.24	1799.87
401.44	1675.82
401.63	1743.70
401.82	1736.68
402.01	1720.29
402.21	1736.68
402.40	1755.40
402.59	1785.83
402.78	1853.70
402.97	1753.06
403.17	1865.41
403.36	1895.83
403.55	1865.41
403.74	1870.09
403.93	1923.92
404.13	1984.77
404.32	1956.69
404.51	1916.90
404.70	2064.35
404.89	2012.86
405.09	2078.40
405.28	1987.11
405.47	1991.80
405.66	2012.86
405.85	2157.97
406.05	2211.81
406.24	2165.00
406.43	2200.10
406.62	2202.44
406.81	2218.83
407.00	2179.04
407.20	2230.53
407.39	2349.90
407.58	2401.39
407.77	2317.13
407.96	2436.50
408.15	2293.72
408.34	2284.36
408.54	2359.26
408.73	2385.01
408.92	2401.39
409.11	2289.04
409.30	2410.75
409.49	2518.42
409.68	2616.72
409.87	2555.86
410.07	2691.62
410.26	2544.16
410.45	2574.59
410.64	2597.99
410.83	2609.70
411.02	2668.21
411.21	2853.11
411.40	2696.30
411.59	2775.88
411.78	2787.58
411.98	2719.70
412.17	2780.56
412.36	2949.08
412.55	2995.89
412.74	2899.92
412.93	3012.27
413.12	2942.05
413.31	3176.11
413.50	3059.08
413.69	3033.33
413.88	3192.49
414.07	3124.62
414.26	3239.30
414.45	3248.66
414.64	3302.50
414.83	3405.48
415.02	3342.28
415.22	3452.29
415.41	3597.40
415.60	3302.50
415.79	3574.00
415.98	3597.40
416.17	3531.87
416.36	3627.83
416.55	3597.40
416.74	3698.05
416.93	3796.35
417.12	3723.79
417.31	3810.39
417.50	3805.71
417.69	3889.97
417.88	3939.12
418.07	3901.67
418.26	3866.56
418.45	4021.04
418.64	4053.81
418.83	4109.98
419.02	4081.89
419.21	4147.43
419.39	4091.26
419.58	4100.62
419.77	4086.58
419.96	4180.20
420.15	4142.75
420.34	4250.41
420.53	4276.16
420.72	4397.87
420.91	4205.94
421.10	4337.01
421.29	4524.26
421.48	4337.01
421.67	4322.97
421.86	4264.46
422.05	4507.87
422.24	4421.27
422.43	4510.21
422.61	4372.12
422.80	4425.95
422.99	4629.58
423.18	4566.39
423.37	4737.24
423.56	4561.70
423.75	4538.30
423.94	4498.51
424.13	4198.92
424.32	4519.57
424.50	4566.39
424.69	4627.24
424.88	4765.33
425.07	4615.54
425.26	4545.32
425.45	4463.40
425.64	4585.11
425.83	4676.39
426.01	4622.56
426.20	4627.24
426.39	4627.24
426.58	4685.75
426.77	4704.48
426.96	4535.96
427.15	4699.80
427.33	4734.90
427.52	4814.48
427.71	4784.06
427.90	4873.00
428.09	5008.75
428.28	4938.53
428.46	4966.62
428.65	5053.22
428.84	4966.62
429.03	5025.13
429.22	4997.04
429.40	5291.95
429.59	5165.56
429.78	4952.57
429.97	4938.53
430.16	5139.82
430.34	5170.24
430.53	5301.31
430.72	5191.31
430.91	5214.71
431.10	5163.22
431.28	5336.42
431.47	5544.73
431.66	5289.61
431.85	5338.76
432.03	5526.00
432.22	5643.03
432.41	5572.82
432.60	5701.54
432.79	5607.92
432.97	5612.60
433.16	5668.78
433.35	5474.51
433.54	5666.44
433.72	5668.78
433.91	5563.45
434.10	5781.12
434.28	5919.21
434.47	5818.57
434.66	5900.49
434.85	5785.80
435.03	5809.21
435.22	5776.44
435.41	6122.84
435.59	5937.94
435.78	6066.67
435.97	6005.81
436.16	6080.71
436.34	5902.83
436.53	6092.41
436.72	6267.95
436.90	5888.79
437.09	6104.12
437.28	6092.41
437.46	6232.85
437.65	6150.93
437.84	6312.42
438.02	6291.36
438.21	6106.46
438.40	6181.35
438.58	6640.10
438.77	6715.00
438.96	6539.46
439.14	6576.91
439.33	6490.31
439.52	6731.38
439.70	6740.74
439.89	6920.96
440.08	6855.43
440.26	6956.07
440.45	6810.96
440.63	7150.34
440.82	7185.44
441.01	7040.33
441.19	7164.38
441.38	7258.00
441.57	7080.12
441.75	7393.75
441.94	7407.80
442.12	7269.70
442.31	7602.06
442.50	7449.93
442.68	7466.31
442.87	7459.29
443.05	7639.51
443.24	7737.81
443.43	7651.21
443.61	7562.27
443.80	8161.45
443.98	7620.78
444.17	7377.37
444.35	7679.30
444.54	7845.48
444.73	7833.77
444.91	7983.57
445.10	7770.58
445.28	7735.47
445.47	7845.48
445.65	7899.31
445.84	7967.18
446.02	8039.74
446.21	7911.01
446.39	7929.74
446.58	8018.68
446.77	7845.48
446.95	7768.24
447.14	7964.84
447.32	7845.48
447.51	8011.65
447.69	8098.25
447.88	8105.28
448.06	8070.17
448.25	8077.19
448.43	8112.30
448.62	8124.00
448.80	7857.18
448.99	8301.88
449.17	8271.45
449.36	7868.88
449.54	8224.64
449.73	8138.04
449.91	8182.51
450.10	8369.76
450.28	8526.57
450.46	8231.66
450.65	8390.82
450.83	8510.19
451.02	8549.98
451.20	8730.20
451.39	8685.73
451.57	8765.31
451.76	8482.10
451.94	8585.08
452.13	8807.44
452.31	8758.28
452.49	8344.01
452.68	8814.46
452.86	8762.97
453.05	9011.06
453.23	8863.61
453.42	8725.52
453.60	8837.86
453.78	8779.35
453.97	8784.03
454.15	9081.28
454.34	8861.27
454.52	9142.13
454.70	8954.89
454.89	9142.13
455.07	9071.92
455.26	9186.60
455.44	9245.12
455.62	9327.03
455.81	9142.13
455.99	9097.66
456.17	9273.20
456.36	9282.56
456.54	9591.52
456.73	9682.80
456.91	9741.31
457.09	9577.47
457.28	9867.70
457.46	9582.15
457.64	9657.05
457.83	9781.10
458.01	9713.22
458.19	9949.62
458.38	9912.17
458.56	9998.77
458.74	10057.28
458.93	9928.55
459.11	9989.41
459.29	10164.95
459.48	10197.71
459.66	10146.22
459.84	10186.01
460.03	10471.56
460.21	10148.56
460.39	10429.43
460.57	10272.61
460.76	10427.09
460.94	10651.78
461.12	10518.37
461.31	10445.81
461.49	10359.21
461.67	10303.04
461.85	10778.17
462.04	10686.89
462.22	11250.96
462.40	10750.08
462.59	10640.08
462.77	10689.23
462.95	10796.89
463.13	10766.46
463.32	10848.38
463.50	10862.43
463.68	10677.52
463.86	11019.24
464.05	11112.86
464.23	10721.99
464.41	11150.31
464.59	10775.83
464.78	11131.59
464.96	11222.87
465.14	11180.74
465.32	11255.64
465.50	11454.58
465.69	11405.43
465.87	11330.53
466.05	11302.45
466.23	11227.55
466.41	11487.35
466.60	11747.15
466.78	11421.81
466.96	11311.81
467.14	11393.73
467.32	11763.53
467.51	11639.48
467.69	11620.76
467.87	11463.94
468.05	11620.76
468.23	11843.11
468.41	11473.31
468.60	11812.68
468.78	12081.85
468.96	11700.34
469.14	11929.71
469.32	12037.38
469.50	11793.96
469.69	12229.30
469.87	12365.05
470.05	12336.96
470.23	12149.72
470.41	12170.79
470.59	12386.12
470.77	12184.83
470.95	12461.01
471.14	12423.56
471.32	12194.19
471.50	12819.11
471.68	12844.86
471.86	12638.89
472.04	12711.45
472.22	12901.03
472.40	12819.11
472.58	12961.89
472.77	12929.12
472.95	13067.21
473.13	13448.72
473.31	13282.54
473.49	13085.94
473.67	13364.46
473.85	13296.58
474.03	13561.06
474.21	13502.55
474.39	13561.06
474.57	13837.25
474.75	14026.83
474.93	14061.94
475.12	13980.02
475.30	14143.86
475.48	14073.64
475.66	14408.34
475.84	14223.44
476.02	14221.10
476.20	14441.11
476.38	14604.94
476.56	14878.79
476.74	14501.96
476.92	14913.89
477.10	14693.88
477.28	15208.80
477.46	15042.62
477.64	15070.71
477.82	15552.86
478.00	15953.09
478.18	15953.09
478.36	15901.60
478.54	16032.67
478.72	16093.52
478.90	16149.70
479.08	16365.03
479.26	16116.93
479.44	16514.82
479.62	16594.40
479.80	16540.57
479.98	16947.82
480.16	17296.56
480.34	16947.82
480.52	17298.90
480.70	17652.32
480.88	17034.42
481.06	17570.40
481.24	17385.50
481.41	17874.67
481.59	18200.01
481.77	18139.15
481.95	18272.56
482.13	18684.50
482.31	18546.40
482.49	18789.82
482.67	18932.59
482.85	18597.90
483.03	18892.80
483.21	19496.66
483.39	19779.87
483.57	19424.11
483.74	19651.14
483.92	20081.80
484.10	19768.16
484.28	20367.34
484.46	20346.28
484.64	20531.18
484.82	20355.64
485.00	20788.64
485.18	21085.89
485.35	21392.50
485.53	21102.27
485.71	21628.89
485.89	21984.65
486.07	21797.41
486.25	21671.02
486.43	22302.96
486.61	22366.16
486.78	22607.23
486.96	22614.26
487.14	22862.35
487.32	22883.42
487.50	23044.91
487.68	23082.36
487.85	23508.34
488.03	23899.21
488.21	24484.34
488.39	24184.76
488.57	24215.18
488.75	24479.66
488.92	24608.39
489.10	24697.33
489.28	24758.19
489.46	25277.79
489.64	25610.14
489.81	25724.83
489.99	25434.60
490.17	25603.12
490.35	26209.32
490.53	26326.35
490.70	26352.09
490.88	26726.58
491.06	26602.53
491.24	26693.81
491.41	27124.47
491.59	27218.09
491.77	27108.08
491.95	27571.51
492.13	28009.19
492.30	27405.33
492.48	27686.20
492.66	27950.68
492.84	28144.94
493.01	28439.85
493.19	28723.05
493.37	28882.21
493.54	28854.12
493.72	29448.62
493.90	29130.31
494.08	29373.72
494.25	29593.73
494.43	29876.94
494.61	30174.19
494.79	30012.69
494.96	29890.98
495.14	30831.88
495.32	31276.58
495.49	30759.32
495.67	31028.48
495.85	31454.46
496.02	31601.91
496.20	31566.81
496.38	31735.32
496.55	31648.72
496.73	32357.91
496.91	32128.53
497.09	32531.11
497.26	32409.40
497.44	32566.21
497.62	32833.04
497.79	33029.64
497.97	33003.89
498.14	33490.73
498.32	33441.57
498.50	34080.54
498.67	33684.99
498.85	33897.98
499.03	33624.14
499.20	33944.79
499.38	34202.25
499.56	34361.40
499.73	34675.04
499.91	34707.80
500.08	35068.25
500.26	34616.52
500.44	34803.77
500.61	34925.47
500.79	35260.17
500.97	35360.81
501.14	36194.04
501.32	36086.38
501.49	35494.22
501.67	35882.75
501.84	36226.81
502.02	35892.12
502.20	36151.91
502.37	36636.41
502.55	36542.78
502.72	36493.63
502.90	36322.77
503.07	36566.19
503.25	36926.63
503.43	36825.99
503.60	37081.11
503.78	37141.96
503.95	37703.69
504.13	37614.75
504.30	37699.01
504.48	37361.97
504.65	37642.84
504.83	38305.21
505.01	38377.76
505.18	38157.75
505.36	38876.30
505.53	38220.95
505.71	38717.14
505.88	38803.74
506.06	38337.98
506.23	39580.80
506.41	38455.00
506.58	39152.48
506.76	39122.05
506.93	39133.76
507.11	39264.83
507.28	39618.25
507.46	39627.61
507.63	39716.55
507.81	40046.57
507.98	40100.40
508.16	39852.30
508.33	39889.75
508.50	40519.35
508.68	40652.76
508.85	40612.98
509.03	40643.40
509.20	40896.18
509.38	40961.72
509.55	41017.89
509.73	41074.06
509.90	41256.62
510.08	41181.73
510.25	40985.12
510.42	41858.14
510.60	41521.10
510.77	42277.10
510.95	42174.11
511.12	42036.02
511.30	41860.48
511.47	42167.09
511.64	42438.59
511.82	42548.60
511.99	42342.63
512.17	42422.21
512.34	42693.71
512.51	42689.03
512.69	42815.42
512.86	42902.02
513.04	43283.53
513.21	43100.97
513.38	43526.94
513.56	43445.02
513.73	43374.81
513.90	43409.92
514.08	43438.00
514.25	43999.73
514.43	44069.95
514.60	43810.15
514.77	44280.60
514.95	44439.75
515.12	44304.00
515.29	44112.08
515.47	44521.67
515.64	44446.77
515.81	44521.67
515.99	45015.52
516.16	45310.43
516.33	45254.26
516.51	45371.28
516.68	45104.46
516.85	45221.49
517.03	45195.74
517.20	45287.03
517.37	45081.06
517.54	45586.61
517.72	45687.26
517.89	45525.76
518.06	45701.30
518.24	45661.51
518.41	45741.09
518.58	46033.66
518.75	46429.21
518.93	46583.68
519.10	46361.33
519.27	46323.88
519.45	46131.96
519.62	46560.28
519.79	46483.04
519.96	46635.17
520.14	46665.60
520.31	47040.09
520.48	47007.32
520.65	47269.46
520.83	47138.39
521.00	47061.15
521.17	46564.96
521.34	47253.08
521.52	47660.33
521.69	47529.26
521.86	47550.32
522.03	47660.33
522.20	48009.07
522.38	47744.59
522.55	47826.51
522.72	47583.09
522.89	48215.04
523.07	48507.60
523.24	48020.77
523.41	48561.44
523.58	48334.40
523.75	48367.17
523.92	48662.08
524.10	48278.23
524.27	48633.99
524.44	48903.15
524.61	48868.05
524.78	49055.29
524.96	49165.29
525.13	49125.50
525.30	48783.79
525.47	49226.15
525.64	49074.01
525.81	49378.28
525.98	49184.02
526.16	49333.81
526.33	49492.97
526.50	49591.27
526.67	49258.91
526.84	49544.46
527.01	49357.22
527.18	49546.80
527.36	49830.01
527.53	50164.70
527.70	50560.25
527.87	50518.12
528.04	50164.70
528.21	50176.40
528.38	49745.75
528.55	50089.80
528.72	50026.61
528.89	50347.26
529.07	50354.29
529.24	50431.52
529.41	50794.31
529.58	50738.13
529.75	50417.48
529.92	50546.21
530.09	50707.71
530.26	50459.61
530.43	50712.39
530.60	50967.51
530.77	50806.01
530.94	51056.45
531.11	50782.60
531.28	51072.83
531.46	51082.19
531.63	50696.00
531.80	51306.88
531.97	51213.26
532.14	51643.92
532.31	51416.89
532.48	51550.30
532.65	51583.07
532.82	51217.94
532.99	51250.71
533.16	51199.22
533.33	51653.28
533.50	51924.78
533.67	52062.88
533.84	51681.37
534.01	51739.88
534.18	51632.22
534.35	51920.10
534.52	51955.21
534.69	51959.89
534.86	52088.62
535.03	52191.61
535.20	52200.97
535.37	52317.99
535.54	52245.44
535.71	51906.06
535.88	51929.47
536.05	52273.52
536.22	52411.62
536.38	52540.35
536.55	52828.23
536.72	52697.16
536.89	52357.78
537.06	52411.62
537.23	52533.32
537.40	52339.06
537.57	52561.41
537.74	52732.27
537.91	52884.40
538.08	53123.14
538.25	52692.48
538.42	52746.31
538.59	52669.08
538.75	52659.71
538.92	52861.00
539.09	53305.70
539.26	53125.48
539.43	53188.67
539.60	53312.72
539.77	53050.58
539.94	53476.56
540.11	53361.87
540.28	53558.48
540.44	53551.46
540.61	53263.57
540.78	53277.61
540.95	53478.90
541.12	53616.99
541.29	53418.05
541.46	53432.09
541.62	53607.63
541.79	53343.15
541.96	53226.12
542.13	53326.77
542.30	53537.41
542.47	53944.67
542.63	53673.16
542.80	54073.40
542.97	53911.90
543.14	53991.48
543.31	53942.33
543.48	53921.26
543.64	54445.54
543.81	54328.52
543.98	54152.97
544.15	54466.61
544.32	54164.68
544.48	54497.03
544.65	54057.01
544.82	54321.49
544.99	53949.35
545.16	54389.37
545.32	54398.73
545.49	54698.32
545.66	54745.13
545.83	54365.96
546.00	54815.35
546.16	54672.57
546.33	54485.33
546.50	54202.13
546.67	54506.40
546.83	54349.58
547.00	54766.20
547.17	54632.78
547.34	54817.69
547.50	54798.96
547.67	55231.96
547.84	54904.29
548.00	54920.67
548.17	55166.43
548.34	54967.48
548.51	55363.03
548.67	55075.15
548.84	55143.02
549.01	54925.35
549.18	55061.10
549.34	55021.31
549.51	54866.84
549.68	54820.03
549.84	55199.19
550.01	54997.91
550.18	55126.64
550.34	55395.80
550.51	55356.01
550.68	55512.83
550.84	54997.91
551.01	55370.05
551.18	55124.30
551.34	55126.64
551.51	55435.59
551.68	55529.21
551.84	55313.88
552.01	55545.59
552.18	55409.84
552.34	55763.26
552.51	55475.38
552.68	55400.48
552.84	55531.55
553.01	55735.18
553.18	55576.02
553.34	55618.15
553.51	55611.13
553.67	55594.74
553.84	56158.81
554.01	55625.17
554.17	55838.16
554.34	55901.36
554.51	55758.58
554.67	55814.76
554.84	55941.14
555.00	55781.99
555.17	55962.21
555.33	55873.27
555.50	55772.63
555.67	55770.28
555.83	56048.81
556.00	55948.17
556.16	56324.99
556.33	55994.98
556.50	56002.00
556.66	56086.26
556.83	56002.00
556.99	55992.64
557.16	56189.24
557.32	56385.85
557.49	56217.33
557.65	56151.79
557.82	56044.13
557.98	56121.37
558.15	56060.51
558.32	56718.20
558.48	56315.63
558.65	56495.85
558.81	56179.88
558.98	56266.48
559.14	56097.96
559.31	56182.22
559.47	56432.66
559.64	56498.19
559.80	56051.15
559.97	56446.70
560.13	56350.74
560.30	56596.49
560.46	56594.15
560.63	56294.56
560.79	56519.26
560.96	56533.30
561.12	56507.55
561.29	56207.97
561.45	56308.61
561.61	56549.68
561.78	56678.41
561.94	56797.78
562.11	56626.92
562.27	56516.92
562.44	56631.60
562.60	56509.89
562.77	56629.26
562.93	56498.19
563.10	56788.42
563.26	56755.65
563.42	57106.73
563.59	56882.04
563.75	56870.34
563.92	56774.37
564.08	56711.18
564.24	56666.71
564.41	56479.47
564.57	56472.45
564.74	56736.93
564.90	56554.36
565.07	56722.88
565.23	56938.21
565.39	56884.38
565.56	56856.29
565.72	56718.20
565.88	56858.63
566.05	56652.67
566.21	56568.41
566.38	56498.19
566.54	56643.30
566.70	57024.81
566.87	56966.30
567.03	56748.63
567.19	57092.69
567.36	56664.37
567.52	56797.78
567.68	57183.97
567.85	56947.57
568.01	56917.15
568.17	57052.90
568.34	56980.34
568.50	57006.09
568.66	56954.60
568.83	57183.97
568.99	57036.51
569.15	56825.87
569.32	57027.15
569.48	56769.69
569.64	56870.34
569.81	57057.58
569.97	56970.98
570.13	56961.62
570.30	56807.14
570.46	57155.88
570.62	57141.84
570.78	56970.98
570.95	56921.83
571.11	56900.76
571.27	56884.38
571.43	57034.17
571.60	57153.54
571.76	56921.83
571.92	57167.58
572.09	57174.61
572.25	57352.49
572.41	57120.77
572.57	57223.76
572.74	57099.71
572.90	56996.73
573.06	57212.06
573.22	56975.66
573.38	57097.37
573.55	57120.77
573.71	57298.65
573.87	57366.53
574.03	56889.06
574.20	57111.41
574.36	57080.98
574.52	57176.95
574.68	57027.15
574.84	57130.14
575.01	57111.41
575.17	57230.78
575.33	57289.29
575.49	57364.19
575.65	57319.72
575.82	57296.31
575.98	57361.85
576.14	57364.19
576.30	57172.27
576.46	57095.03
576.62	56973.32
576.79	57076.30
576.95	57062.26
577.11	57183.97
577.27	57162.90
577.43	57286.95
577.59	57036.51
577.75	57200.35
577.92	56999.07
578.08	57200.35
578.24	57083.33
578.40	56956.94
578.56	57116.09
578.72	57319.72
578.88	57382.91
579.04	57291.63
579.21	57219.08
579.37	57303.34
579.53	57511.64
579.69	57308.02
579.85	57017.79
580.01	57235.46
580.17	56985.02
580.33	57293.97
580.49	57048.22
580.65	57403.98
580.82	57240.14
580.98	57502.28
581.14	57230.78
581.30	57256.53
581.46	57050.56
581.62	57127.80
581.78	56982.68
581.94	57247.16
582.10	56966.30
582.26	57125.46
582.42	57186.31
582.58	57279.93
582.74	57188.65
582.90	57441.43
583.06	57401.64
583.22	57354.83
583.38	57333.76
583.54	57399.30
583.70	57090.35
583.86	57113.75
584.02	56970.98
584.18	57476.54
584.34	57343.12
584.50	57511.64
584.66	57343.12
584.82	57216.74
584.98	57165.24
585.14	57066.94
585.30	57165.24
585.46	57293.97
585.62	57034.17
585.78	57254.18
585.94	57132.48
586.10	57181.63
586.26	57389.94
586.42	57528.03
586.58	57399.30
586.74	57329.08
586.90	57450.79
587.06	57291.63
587.22	57268.23
587.38	57272.91
587.54	57394.62
587.70	57572.50
587.86	57570.16
588.02	57549.09
588.18	57371.21
588.34	57305.68
588.49	57453.13
588.65	57418.02
588.81	57378.23
588.97	57513.98
589.13	57272.91
589.29	57382.91
589.45	57551.43
589.61	57556.11
589.77	57464.83
589.93	57607.61
590.08	57570.16
590.24	57598.24
590.40	57513.98
590.56	57663.78
590.72	57621.65
590.88	57275.25
591.04	57556.11
591.20	57635.69
591.35	57579.52
591.51	57750.38
591.67	57762.08
591.83	57696.55
591.99	57860.38
592.15	57895.49
592.31	57427.38
592.46	57488.24
592.62	57490.58
592.78	57619.31
592.94	57537.39
593.10	57453.13
593.26	57623.99
593.41	57708.25
593.57	57551.43
593.73	57783.15
593.89	57748.04
594.05	57490.58
594.20	57537.39
594.36	57645.05
594.52	57612.29
594.68	57455.47
594.84	57378.23
594.99	57635.69
595.15	57558.45
595.31	57865.06
595.47	57748.04
595.62	57633.35
595.78	57497.60
595.94	57509.30
596.10	57797.19
596.25	57441.43
596.41	57490.58
596.57	57148.86
596.73	57616.97
596.88	57595.90
597.04	57783.15
597.20	57778.46
597.36	57659.10
597.51	57797.19
597.67	57513.98
597.83	57717.61
597.99	57673.14
598.14	57701.23
598.30	57851.02
598.46	57733.99
598.61	57668.46
598.77	57467.17
598.93	57631.01
599.09	57581.86
599.24	58045.29
599.40	57808.89
599.56	57914.22
599.71	57628.67
599.87	57876.77
600.03	57579.52
600.18	57439.09
600.34	57631.01
600.50	57659.10
600.65	57773.78
600.81	57771.44
600.97	57872.09
601.12	57696.55
601.28	57846.34
601.44	57623.99
601.59	57904.85
601.75	57396.96
601.91	57605.26
602.06	57593.56
602.22	57642.71
602.37	57588.88
602.53	57616.97
602.69	57799.53
602.84	57638.03
603.00	57961.03
603.16	57794.85
603.31	57876.77
603.47	57647.39
603.62	57652.08
603.78	57490.58
603.94	57469.51
604.09	57436.75
604.25	57385.25
604.40	57567.82
604.56	57642.71
604.71	57726.97
604.87	57584.20
605.03	57771.44
605.18	57710.59
605.34	57572.50
605.49	57268.23
605.65	57523.35
605.80	57261.21
605.96	57481.22
606.12	57495.26
606.27	57485.90
606.43	57556.11
606.58	57385.25
606.74	57485.90
606.89	57570.16
607.05	57462.49
607.20	57670.80
607.36	57478.88
607.51	57647.39
607.67	57291.63
607.82	57399.30
607.98	57158.22
608.13	57406.32
608.29	57319.72
608.44	57338.44
608.60	57647.39
608.75	57469.51
608.91	57577.18
609.06	57293.97
609.22	57389.94
609.37	57361.85
609.53	57485.90
609.68	57251.84
609.84	57207.37
609.99	57160.56
610.15	57083.33
610.30	57361.85
610.46	57240.14
610.61	57516.32
610.76	57310.36
610.92	57181.63
611.07	57031.83
611.23	57153.54
611.38	57270.57
611.54	57148.86
611.69	57258.87
611.84	56963.96
612.00	57188.65
612.15	57020.13
612.31	57359.51
612.46	57137.16
612.62	57219.08
612.77	57041.20
612.92	57448.45
613.08	56975.66
613.23	57148.86
613.39	57024.81
613.54	56853.95
613.69	57172.27
613.85	56910.13
614.00	56994.39
614.15	56884.38
614.31	57165.24
614.46	56973.32
614.62	57322.06
614.77	57134.82
614.92	57200.35
615.08	57212.06
615.23	57066.94
615.38	57125.46
615.54	56807.14
615.69	56790.76
615.84	56652.67
616.00	56919.49
616.15	56781.40
616.30	57057.58
616.46	56825.87
616.61	56891.40
616.76	56823.53
616.92	56603.52
617.07	56786.08
617.22	56933.53
617.37	56633.94
617.53	56610.54
617.68	56807.14
617.83	56612.88
617.99	56584.79
618.14	56676.07
618.29	56790.76
618.45	56800.12
618.60	56933.53
618.75	56535.64
618.90	56460.74
619.06	56542.66
619.21	56467.76
619.36	56561.39
619.51	56240.73
619.67	56308.61
619.82	56203.28
619.97	56659.69
620.12	56207.97
620.28	56296.91
620.43	56481.81
620.58	56404.57
620.73	56432.66
620.89	56636.28
621.04	56329.67
621.19	56425.64
621.34	56521.60
621.49	56207.97
621.65	56264.14
621.80	56474.79
621.95	56406.91
622.10	56332.01
622.25	56123.71
622.41	56076.90
622.56	56233.71
622.71	56048.81
622.86	55931.78
623.01	56074.55
623.16	56238.39
623.32	56102.64
623.47	55901.36
623.62	55887.31
623.77	55927.10
623.92	56037.11
624.07	55887.31
624.23	56107.32
624.38	56149.45
624.53	55758.58
624.68	56142.43
624.83	56051.15
624.98	56210.31
625.13	55847.52
625.29	56207.97
625.44	56041.79
625.59	55728.16
625.74	55798.37
625.89	55421.55
626.04	55756.24
626.19	55807.73
626.34	55725.81
626.49	55676.66
626.65	55515.17
626.80	55573.68
626.95	55522.19
627.10	55718.79
627.25	55835.82
627.40	55400.48
627.55	55398.14
627.70	55501.12
627.85	55299.84
628.00	55302.18
628.15	55636.87
628.30	55374.73
628.45	55664.96
628.60	55285.79
628.76	55636.87
628.91	55393.46
629.06	55416.86
629.21	55569.00
629.36	55334.95
629.51	55356.01
629.66	55246.00
629.81	54766.20
629.96	55297.50
630.11	55313.88
630.26	55128.98
630.41	55103.23
630.56	54796.62
630.71	55297.50
630.86	54880.88
631.01	55140.68
631.16	55157.06
631.31	55236.64
631.46	55044.72
631.61	55238.98
631.76	55131.32
631.91	54899.61
632.06	54836.41
632.21	54759.17
632.36	54906.63
632.51	54688.96
632.66	55065.78
632.81	54932.37
632.96	54850.45
633.10	54796.62
633.25	55054.08
633.40	54829.39
633.55	54653.85
633.70	54667.89
633.85	54419.80
634.00	54550.87
634.15	54646.83
634.30	54707.68
634.45	54548.53
634.60	54492.35
634.75	54731.09
634.90	54595.34
635.05	54892.58
635.19	54590.66
635.34	54768.54
635.49	54562.57
635.64	54452.56
635.79	54485.33
635.94	54213.83
636.09	54468.95
636.24	54305.11
636.39	54319.15
636.53	54312.13
636.68	54337.88
636.83	54253.62
636.98	54546.18
637.13	54429.16
637.28	54534.48
637.43	54391.71
637.57	54534.48
637.72	54232.55
637.87	54064.03
638.02	54155.32
638.17	54295.75
638.32	54110.85
638.46	53993.82
638.61	53691.89
638.76	53939.99
638.91	53935.30
639.06	53925.94
639.20	53825.30
639.35	54120.21
639.50	54049.99
639.65	54033.61
639.80	54078.08
639.94	54026.59
640.09	53923.60
640.24	53815.94
640.39	54206.81
640.54	53675.51
640.68	53736.36
640.83	53593.59
640.98	53378.26
641.13	53336.13
641.27	53324.43
641.42	53268.25
641.57	53694.23
641.72	53645.08
641.86	53558.48
642.01	53441.45
642.16	53827.64
642.31	53638.06
642.45	53422.73
642.60	53385.28
642.75	53301.02
642.90	53251.87
643.04	53268.25
643.19	53375.92
643.34	53382.94
643.48	53312.72
643.63	53230.80
643.78	53441.45
643.93	53722.32
644.07	53539.75
644.22	53326.77
644.37	52935.90
644.51	52989.73
644.66	53265.91
644.81	53223.78
644.95	53251.87
645.10	52914.83
645.25	53165.27
645.39	53242.51
645.54	52987.39
645.69	53364.21
645.83	53008.45
645.98	53134.84
646.13	53301.02
646.27	53221.44
646.42	53057.60
646.57	53158.25
646.71	53392.30
646.86	52818.87
647.00	52846.96
647.15	52746.31
647.30	52556.73
647.44	52514.60
647.59	52767.38
647.74	52662.05
647.88	52886.74
648.03	52994.41
648.17	52844.62
648.32	52837.59
648.47	53055.26
648.61	52498.22
648.76	52935.90
648.90	52397.57
649.05	52486.51
649.20	52383.53
649.34	52404.59
649.49	52343.74
649.63	52437.36
649.78	52233.74
649.92	52367.15
650.07	52364.81
650.21	52303.95
650.36	52739.29
650.51	52589.50
650.65	52697.16
650.80	52608.22
650.94	52458.43
651.09	52502.90
651.23	52109.69
651.38	52177.56
651.52	52154.16
651.67	51922.44
651.81	51999.68
651.96	52404.59
652.10	52027.77
652.25	51955.21
652.39	52273.52
652.54	52200.97
652.68	52362.46
652.83	52369.49
652.97	52285.23
653.12	52413.96
653.26	52044.15
653.41	52055.85
653.55	51826.48
653.70	51842.87
653.84	51973.94
653.99	51725.84
654.13	51735.20
654.27	51789.03
654.42	51669.67
654.56	51358.38
654.71	51683.71
654.85	51894.36
655.00	51730.52
655.14	52023.09
655.29	51592.43
655.43	51861.59
655.57	51456.68
655.72	51161.77
655.86	51648.60
656.01	51150.07
656.15	51243.69
656.30	51112.62
656.44	51365.40
656.58	51117.30
656.73	51641.58
656.87	51278.80
657.01	51643.92
657.16	51276.46
657.30	51650.94
657.45	51239.01
657.59	51749.24
657.73	51175.81
657.88	51299.86
658.02	51292.84
658.16	50883.25
658.31	50955.80
658.45	51220.28
658.60	50536.85
658.74	50424.50
658.88	50721.75
659.03	50644.51
659.17	50763.88
659.31	50838.78
659.46	50791.97
659.60	51107.94
659.74	50714.73
659.89	50464.29
660.03	50609.40
660.17	51065.81
660.32	50768.56
660.46	50387.05
660.60	50571.96
660.74	50108.53
660.89	50255.98
661.03	50138.96
661.17	50218.53
661.32	50188.11
661.46	50005.55
661.60	49879.16
661.74	50085.12
661.89	50183.43
662.03	50134.28
662.17	50066.40
662.31	49958.73
662.46	50394.07
662.60	49617.02
662.74	49956.39
662.88	49621.70
663.03	49588.93
663.17	49675.53
663.31	49244.87
663.45	48966.35
663.60	49418.07
663.74	48835.28
663.88	49336.15
664.02	49169.97
664.17	49174.66
664.31	49359.56
664.45	48992.09
664.59	49404.03
664.73	49212.10
664.88	49038.90
665.02	48360.15
665.16	48383.55
665.30	48685.48
665.44	48692.50
665.59	48399.94
665.73	48102.69
665.87	48535.69
666.01	48575.48
666.15	48179.93
666.29	48231.42
666.44	48437.39
666.58	48327.38
666.72	48523.99
666.86	48760.38
667.00	48243.12
667.14	47892.04
667.28	48289.93
667.43	48149.50
667.57	48245.46
667.71	47899.06
667.85	47840.55
667.99	47927.15
668.13	47583.09
668.27	47676.71
668.41	47547.98
668.56	47136.05
668.70	47442.66
668.84	47372.44
668.98	47606.50
669.12	47334.99
669.26	47599.47
669.40	47009.66
669.54	47309.25
669.68	47344.36
669.82	46770.93
669.96	46789.65
670.10	46333.24
670.25	46681.98
670.39	46148.34
670.53	46424.53
670.67	46344.95
670.81	46995.62
670.95	46827.10
671.09	46279.41
671.23	46256.01
671.37	46960.51
671.51	46356.65
671.65	46497.08
671.79	45670.87
671.93	46263.03
672.07	45911.95
672.21	45799.60
672.35	45743.43
672.49	45521.08
672.63	45542.14
672.77	45352.56
672.91	45272.98
673.05	45429.80
673.19	45111.49
673.33	45347.88
673.47	44851.69
673.61	45656.83
673.75	45029.57
673.89	45020.20
674.03	44917.22
674.17	44732.32
674.31	45177.02
674.45	44905.52
674.59	44395.28
674.73	44292.30
674.87	44229.10
675.01	43969.30
675.15	44163.57
675.29	44030.16
675.43	44329.75
675.56	44151.87
675.70	44243.15
675.84	44105.06
675.98	42719.46
676.12	43723.55
676.26	43927.17
676.40	43409.92
676.54	43519.92
676.68	43407.58
676.82	42918.40
676.96	42677.33
677.10	42604.77
677.23	42838.83
677.37	42354.33
677.51	42621.16
677.65	41996.23
677.79	41846.44
677.93	41944.74
678.07	41584.30
678.21	41766.86
678.34	42073.47
678.48	41603.02
678.62	42057.09
678.76	41687.28
678.90	41366.63
679.04	41265.99
679.18	41387.69
679.31	40800.22
679.45	40428.07
679.59	40311.05
679.73	40383.60
679.87	40158.91
680.00	40217.43
680.14	40163.59
680.28	40107.42
680.42	40397.65
680.56	40371.90
680.70	39543.35
680.83	40172.96
680.97	39845.28
681.11	39915.50
681.25	39784.43
681.39	39578.46
681.52	39606.55
681.66	39283.55
681.80	38902.04
681.94	38859.91
682.07	38808.42
682.21	38431.60
682.35	38679.69
682.49	38450.32
682.62	38218.61
682.76	38256.06
682.90	38277.12
683.04	37942.42
683.17	37750.50
683.31	37663.90
683.45	38085.20
683.59	37668.58
683.72	37432.19
683.86	37198.13
684.00	37074.09
684.13	36598.96
684.27	36849.39
684.41	36657.47
684.55	36603.64
684.68	36191.70
684.82	36353.20
684.96	36343.84
685.09	36292.35
685.23	35922.54
685.37	36353.20
685.50	36060.63
685.64	35669.76
685.78	35896.80
685.91	35676.79
686.05	35611.25
686.19	35325.71
686.32	35040.16
686.46	34991.01
686.60	34536.94
686.73	34995.69
686.87	35000.37
687.01	34256.08
687.14	34361.40
687.28	34050.11
687.42	34181.18
687.55	33645.20
687.69	34038.41
687.82	33989.26
687.96	33645.20
688.10	33631.16
688.23	33979.90
688.37	33476.68
688.50	33713.08
688.64	33493.07
688.78	33034.32
688.91	32610.68
689.05	32999.21
689.18	32884.53
689.32	32147.26
689.46	32491.32
689.59	32868.14
689.73	32273.65
689.86	32219.81
690.00	32107.47
690.13	32538.13
690.27	31620.64
690.41	31641.70
690.54	31653.40
690.68	31728.30
690.81	31861.71
690.95	31522.34
691.08	31351.48
691.22	31683.83
691.35	31363.18
691.49	30876.35
691.62	30316.96
691.76	30618.89
691.89	30258.45
692.03	30110.99
692.16	30143.76
692.30	30415.26
692.43	30026.73
692.57	30235.04
692.70	29963.54
692.84	29776.30
692.97	29516.50
693.11	29848.85
693.24	29212.23
693.38	29298.83
693.51	29570.33
693.65	29434.58
693.78	29366.70
693.92	29209.89
694.05	29191.16
694.19	28940.72
694.32	28945.41
694.45	28456.23
694.59	28306.44
694.72	28414.10
694.86	27934.29
694.99	27346.82
695.13	28149.62
695.26	27597.26
695.39	27639.39
695.53	27620.66
695.66	27768.12
695.80	27529.38
695.93	27520.02
696.07	27246.18
696.20	27358.52
696.33	27026.17
696.47	26820.20
696.60	26869.35
696.73	26586.15
696.87	26469.12
697.00	26314.64
697.14	26157.83
697.27	26085.27
697.40	25799.73
697.54	25977.61
697.67	25589.08
697.80	25338.64
697.94	25539.93
698.07	25479.07
698.21	25270.76
698.34	25022.67
698.47	25256.72
698.61	25151.40
698.74	25071.82
698.87	25340.98
699.01	24793.29
699.14	24849.47
699.27	24561.58
699.40	24631.80
699.54	24360.30
699.67	23913.25
699.80	24194.12
699.94	23960.06
700.07	23946.02
700.20	23777.50
700.34	23625.37
700.47	23506.00
700.60	23480.25
700.73	23606.64
700.87	23330.46
701.00	23370.25
701.13	23220.45
701.26	23026.19
701.40	23190.03
701.53	23300.03
701.66	22923.21
701.79	22471.48
701.93	22815.54
702.06	22106.36
702.19	22204.66
702.32	22157.85
702.46	21869.97
702.59	21544.63
702.72	21912.10
702.85	21614.85
702.99	21561.02
703.12	21832.52
703.25	21263.77
703.38	21348.03
703.51	21429.94
703.65	21305.90
703.78	21207.59
703.91	21223.98
704.04	21238.02
704.17	21193.55
704.31	21046.10
704.44	21029.71
704.57	20510.11
704.70	20287.76
704.83	20245.63
704.96	20357.98
705.10	20198.82
705.23	19700.29
>>>>>End Processed Spectral Data<<<<<
