SpectraSuite Data File
++++++++++++++++++++++++++++++++++++
Date: Fri Oct 18 13:54:21 GMT-05:00 2013
User: bianchi
Dark Spectrum Present: No
Reference Spectrum Present: No
Number of Sampled Component Spectra: 1
Spectrometers: USB2+H05261
Integration Time (usec): 100000 (USB2+H05261)
Spectra Averaged: 1 (USB2+H05261)
Boxcar Smoothing: 0 (USB2+H05261)
Correct for Electrical Dark: No (USB2+H05261)
Strobe/Lamp Enabled: No (USB2+H05261)
Correct for Detector Non-linearity: No (USB2+H05261)
Correct for Stray Light: No (USB2+H05261)
Number of Pixels in Processed Spectrum: 2048
>>>>>Begin Processed Spectral Data<<<<<
365.73	0.00
365.92	0.00
366.12	0.00
366.32	0.00
366.52	0.00
366.72	0.00
366.91	0.00
367.11	0.00
367.31	0.00
367.51	0.00
367.70	0.00
367.90	0.00
368.10	0.00
368.30	0.00
368.49	0.00
368.69	0.00
368.89	0.00
369.09	0.00
369.28	0.00
369.48	0.00
369.68	0.00
369.87	0.00
370.07	0.00
370.27	0.00
370.47	0.00
370.66	292.57
370.86	327.68
371.06	348.74
371.25	346.40
371.45	264.48
371.65	400.23
371.84	318.31
372.04	341.72
372.24	304.27
372.44	393.21
372.63	304.27
372.83	433.00
373.03	400.23
373.22	374.49
373.42	397.89
373.62	444.70
373.81	404.91
374.01	472.79
374.21	547.69
374.40	444.70
374.60	465.77
374.79	479.81
374.99	447.04
375.19	514.92
375.38	550.03
375.58	433.00
375.78	594.50
375.97	526.62
376.17	664.71
376.37	507.90
376.56	540.66
376.76	500.87
376.95	533.64
377.15	486.83
377.35	552.37
377.54	557.05
377.74	575.77
377.93	589.82
378.13	554.71
378.33	580.45
378.52	573.43
378.72	650.67
378.91	620.24
379.11	587.47
379.31	547.69
379.50	617.90
379.70	594.50
379.89	603.86
380.09	503.22
380.28	636.63
380.48	634.29
380.68	608.54
380.87	582.79
381.07	683.44
381.26	662.37
381.46	699.82
381.65	660.03
381.85	613.22
382.04	667.05
382.24	681.10
382.43	791.10
382.63	727.91
382.83	713.86
383.02	793.44
383.22	692.80
383.41	660.03
383.61	671.73
383.80	821.53
384.00	709.18
384.19	627.26
384.39	755.99
384.58	777.06
384.78	732.59
384.97	772.38
385.17	767.70
385.36	763.01
385.56	739.61
385.75	779.40
385.95	856.64
386.14	734.93
386.34	751.31
386.53	798.12
386.72	760.67
386.92	763.01
387.11	849.61
387.31	908.13
387.50	868.34
387.70	880.04
387.89	877.70
388.09	880.04
388.28	849.61
388.48	884.72
388.67	945.58
388.86	947.92
389.06	936.21
389.25	910.47
389.45	924.51
389.64	861.32
389.84	999.41
390.03	980.68
390.22	1057.92
390.42	983.02
390.61	1060.26
390.81	987.71
391.00	999.41
391.19	1015.79
391.39	954.94
391.58	1067.28
391.78	1041.54
391.97	1025.15
392.16	1067.28
392.36	1163.25
392.55	1053.24
392.75	1055.58
392.94	1050.90
393.13	1146.86
393.33	1032.18
393.52	1123.46
393.71	1097.71
393.91	1144.52
394.10	1116.44
394.29	1139.84
394.49	1212.40
394.68	1320.06
394.88	1151.54
395.07	1254.53
395.26	1233.46
395.46	1200.69
395.65	1261.55
395.84	1254.53
396.04	1320.06
396.23	1254.53
396.42	1303.68
396.62	1444.11
396.81	1366.87
397.00	1322.40
397.19	1343.47
397.39	1378.58
397.58	1481.56
397.77	1418.36
397.97	1406.66
398.16	1416.02
398.35	1387.94
398.55	1406.66
398.74	1362.19
398.93	1530.71
399.12	1507.30
399.32	1483.90
399.51	1521.35
399.70	1476.88
399.90	1572.84
400.09	1551.78
400.28	1554.12
400.47	1612.63
400.67	1556.46
400.86	1551.78
401.05	1603.27
401.24	1584.54
401.44	1633.69
401.63	1717.95
401.82	1614.97
402.01	1626.67
402.21	1647.74
402.40	1680.50
402.59	1689.87
402.78	1638.38
402.97	1783.49
403.17	1774.13
403.36	1860.73
403.55	1806.89
403.74	1916.90
403.93	1907.54
404.13	1816.26
404.32	2033.93
404.51	1919.24
404.70	1930.94
404.89	1902.86
405.09	1956.69
405.28	1877.11
405.47	1977.75
405.66	2108.82
405.85	2080.74
406.05	2069.03
406.24	2174.36
406.43	2195.42
406.62	2160.31
406.81	2165.00
407.00	2132.23
407.20	2106.48
407.39	2253.94
407.58	2263.30
407.77	2317.13
407.96	2326.49
408.15	2373.30
408.34	2324.15
408.54	2406.07
408.73	2356.92
408.92	2347.56
409.11	2431.82
409.30	2478.63
409.49	2377.98
409.68	2307.77
409.87	2476.29
410.07	2544.16
410.26	2523.10
410.45	2530.12
410.64	2602.68
410.83	2574.59
411.02	2703.32
411.21	2677.57
411.40	2745.45
411.59	2717.36
411.78	2722.04
411.98	2853.11
412.17	2796.94
412.36	2895.24
412.55	2839.07
412.74	2974.82
412.93	2860.13
413.12	2916.31
413.31	3054.40
413.50	2963.12
413.69	3028.65
413.88	3094.19
414.07	3117.59
414.26	3187.81
414.45	3274.41
414.64	3206.53
414.83	3398.46
415.02	3243.98
415.22	3229.94
415.41	3454.63
415.60	3386.76
415.79	3375.05
415.98	3482.72
416.17	3524.85
416.36	3555.27
416.55	3520.17
416.74	3524.85
416.93	3726.13
417.12	3676.98
417.31	3684.00
417.50	3662.94
417.69	3747.20
417.88	3740.18
418.07	3920.40
418.26	3840.82
418.45	3929.76
418.64	4135.73
418.83	4095.94
419.02	3962.53
419.21	4145.09
419.39	4032.74
419.58	4028.06
419.77	3978.91
419.96	4030.40
420.15	4194.24
420.34	4152.11
420.53	4182.54
420.72	4311.27
420.91	4231.69
421.10	4329.99
421.29	4329.99
421.48	4234.03
421.67	4353.40
421.86	4355.74
422.05	4456.38
422.24	4287.86
422.43	4334.67
422.61	4489.15
422.80	4585.11
422.99	4437.66
423.18	4479.79
423.37	4500.85
423.56	4374.46
423.75	4423.61
423.94	4376.80
424.13	4208.28
424.32	4287.86
424.50	4573.41
424.69	4512.55
424.88	4571.07
425.07	4465.74
425.26	4383.82
425.45	4456.38
425.64	4540.64
425.83	4503.19
426.01	4657.67
426.20	4758.31
426.39	4491.49
426.58	4624.90
426.77	4627.24
426.96	4631.92
427.15	4664.69
427.33	4812.14
427.52	4746.61
427.71	4795.76
427.90	4791.08
428.09	4882.36
428.28	4849.59
428.46	4931.51
428.65	4903.42
428.84	5111.73
429.03	4957.25
429.22	4814.48
429.40	5053.22
429.59	5116.41
429.78	4732.56
429.97	4751.29
430.16	5050.88
430.34	5053.22
430.53	5036.83
430.72	5046.20
430.91	5210.03
431.10	5078.96
431.28	5413.66
431.47	5282.59
431.66	5200.67
431.85	5111.73
432.03	5430.04
432.22	5535.37
432.41	5343.44
432.60	5434.72
432.79	5369.19
432.97	5558.77
433.16	5479.19
433.35	5467.49
433.54	5577.50
433.72	5631.33
433.91	5570.48
434.10	5647.71
434.28	5547.07
434.47	5673.46
434.66	5657.07
434.85	5795.17
435.03	5767.08
435.22	5905.17
435.41	5900.49
435.59	5893.47
435.78	5874.74
435.97	5865.38
436.16	5860.70
436.34	5975.39
436.53	5879.43
436.72	6216.46
436.90	5937.94
437.09	6010.50
437.28	5954.32
437.46	6251.57
437.65	6052.63
437.84	6319.45
438.02	5982.41
438.21	6300.72
438.40	6115.82
438.58	6361.58
438.77	6476.26
438.96	6258.59
439.14	6436.47
439.33	6637.76
439.52	6506.69
439.70	6651.80
439.89	6810.96
440.08	6665.85
440.26	6803.94
440.45	6892.88
440.63	6754.79
440.82	6967.77
441.01	6965.43
441.19	6953.73
441.38	7272.04
441.57	7229.91
441.75	6925.65
441.94	7148.00
442.12	7269.70
442.31	7389.07
442.50	7426.52
442.68	7470.99
442.87	7541.21
443.05	7391.41
443.24	7534.18
443.43	7510.78
443.61	7595.04
443.80	7756.54
443.98	7559.93
444.17	7297.79
444.35	7623.12
444.54	7730.79
444.73	7691.00
444.91	7604.40
445.10	7887.61
445.28	7487.37
445.47	7740.15
445.65	7583.34
445.84	7632.49
446.02	7911.01
446.21	7777.60
446.39	7550.57
446.58	7777.60
446.77	7808.03
446.95	7590.36
447.14	7590.36
447.32	7873.56
447.51	7854.84
447.69	7791.64
447.88	7999.95
448.06	7791.64
448.25	7859.52
448.43	7829.09
448.62	7864.20
448.80	7936.76
448.99	7948.46
449.17	7925.05
449.36	7920.37
449.54	8067.83
449.73	8114.64
449.91	7999.95
450.10	8250.39
450.28	8339.33
450.46	8271.45
450.65	8170.81
450.83	8470.40
451.02	8222.30
451.20	8498.49
451.39	8252.73
451.57	8276.13
451.76	8334.65
451.94	8421.25
452.13	8842.54
452.31	8549.98
452.49	8294.86
452.68	8306.56
452.86	8496.14
453.05	8713.81
453.23	8821.48
453.42	8620.19
453.60	8575.72
453.78	8926.80
453.97	8760.63
454.15	8662.32
454.34	8980.64
454.52	8891.70
454.70	8807.44
454.89	9048.51
455.07	8964.25
455.26	9013.40
455.44	9163.20
455.62	9268.52
455.81	9128.09
455.99	9097.66
456.17	9137.45
456.36	9343.42
456.54	9184.26
456.73	9453.42
456.91	9469.81
457.09	9575.13
457.28	9692.16
457.46	9525.98
457.64	9614.92
457.83	9561.09
458.01	9514.28
458.19	9921.53
458.38	9490.87
458.56	9804.50
458.74	10047.92
458.93	9877.06
459.11	9858.34
459.29	9888.76
459.48	9769.40
459.66	9874.72
459.84	10005.79
460.03	10424.75
460.21	10134.52
460.39	10076.01
460.57	10129.84
460.76	10258.57
460.94	10225.80
461.12	10317.08
461.31	10120.48
461.49	10251.55
461.67	10141.54
461.85	10553.48
462.04	10384.96
462.22	11094.14
462.40	10534.75
462.59	10736.04
462.77	10579.22
462.95	10658.80
463.13	10506.66
463.32	10647.10
463.50	10558.16
463.68	10539.43
463.86	10787.53
464.05	10693.91
464.23	10759.44
464.41	10972.43
464.59	10647.10
464.78	11115.20
464.96	11077.76
465.14	10789.87
465.32	10995.84
465.50	11220.53
465.69	11276.70
465.87	11096.48
466.05	11199.46
466.23	11080.10
466.41	11178.40
466.60	11564.59
466.78	11033.29
466.96	11131.59
467.14	11227.55
467.32	11183.08
467.51	11529.48
467.69	11267.34
467.87	11389.05
468.05	11527.14
468.23	11169.04
468.41	11424.15
468.60	11461.60
468.78	11683.95
468.96	11721.40
469.14	11749.49
469.32	11698.00
469.50	11688.64
469.69	11789.28
469.87	11798.64
470.05	11829.07
470.23	12276.11
470.41	12037.38
470.59	12065.46
470.77	11910.99
470.95	12032.69
471.14	12606.13
471.32	11997.59
471.50	12526.55
471.68	12430.59
471.86	12463.35
472.04	12439.95
472.22	12760.60
472.40	12503.14
472.58	12531.23
472.77	12379.09
472.95	12968.91
473.13	13177.22
473.31	12879.97
473.49	12901.03
473.67	12798.05
473.85	13184.24
474.03	13291.90
474.21	13303.60
474.39	13448.72
474.57	13401.91
474.75	13544.68
474.93	13738.94
475.12	13771.71
475.30	13827.88
475.48	13902.78
475.66	14101.73
475.84	13844.27
476.02	13881.72
476.20	13935.55
476.38	14511.32
476.56	14607.28
476.74	14523.02
476.92	14347.48
477.10	14438.76
477.28	14785.16
477.46	14710.27
477.64	15075.39
477.82	15194.76
478.00	15367.96
478.18	15391.36
478.36	15438.17
478.54	15510.73
478.72	15723.72
478.90	16095.86
479.08	15920.32
479.26	16264.38
479.44	16240.98
479.62	16294.81
479.80	16414.18
479.98	16610.78
480.16	16910.37
480.34	16463.33
480.52	16987.61
480.70	17261.45
480.88	16877.60
481.06	17067.19
481.24	17132.72
481.41	17387.84
481.59	18031.49
481.77	17869.99
481.95	18120.43
482.13	18192.98
482.31	17858.29
482.49	18487.89
482.67	18324.05
482.85	18780.46
483.03	18871.74
483.21	19215.80
483.39	19494.32
483.57	19215.80
483.74	19199.41
483.92	19454.53
484.10	19367.93
484.28	19939.02
484.46	20074.77
484.64	20343.94
484.82	20098.18
485.00	20299.47
485.18	20624.80
485.35	20966.52
485.53	20884.60
485.71	20765.23
485.89	21509.52
486.07	21128.02
486.25	21586.76
486.43	21507.18
486.61	21970.61
486.78	22033.80
486.96	21951.88
487.14	22471.48
487.32	22445.74
487.50	22497.23
487.68	22611.92
487.85	23239.18
488.03	23208.75
488.21	23641.75
488.39	23667.50
488.57	24013.90
488.75	23707.29
488.92	24264.33
489.10	24233.91
489.28	24334.55
489.46	24826.06
489.64	24531.15
489.81	25092.88
489.99	25476.73
490.17	25315.23
490.35	25617.16
490.53	25872.28
490.70	25977.61
490.88	25921.43
491.06	26183.57
491.24	26422.31
491.41	26338.05
491.59	26260.81
491.77	26733.60
491.95	27098.72
492.13	27136.17
492.30	27264.90
492.48	27300.01
492.66	27742.37
492.84	27468.53
493.01	28006.85
493.19	28158.99
493.37	28486.66
493.54	28245.58
493.72	28924.34
493.90	28793.27
494.08	28964.13
494.25	29221.59
494.43	29619.48
494.61	29916.73
494.79	29521.18
494.96	29427.56
495.14	29869.92
495.32	30438.67
495.49	30054.82
495.67	30431.65
495.85	30778.04
496.02	30754.64
496.20	30946.56
496.38	30813.15
496.55	31276.58
496.73	31777.45
496.91	31393.61
497.09	31735.32
497.26	31845.33
497.44	31817.24
497.62	31590.21
497.79	32297.05
497.97	32617.71
498.14	32664.52
498.32	32673.88
498.50	33177.09
498.67	33542.22
498.85	32669.20
499.03	33055.39
499.20	33188.80
499.38	33036.66
499.56	33535.20
499.73	33860.53
499.91	34033.73
500.08	34249.06
500.26	33963.51
500.44	34548.65
500.61	34429.28
500.79	34459.71
500.97	35028.46
501.14	35328.05
501.32	34660.99
501.49	35276.55
501.67	35042.50
501.84	35255.49
502.02	35409.96
502.20	35779.77
502.37	35833.60
502.55	35686.15
502.72	35978.72
502.90	36058.29
503.07	35765.73
503.25	36151.91
503.43	36163.62
503.60	36397.67
503.78	36510.02
503.95	36491.29
504.13	36774.50
504.30	36739.39
504.48	36631.72
504.65	37214.52
504.83	37570.28
505.01	37411.12
505.18	37046.00
505.36	37467.30
505.53	37769.22
505.71	37689.65
505.88	37919.02
506.06	37762.20
506.23	37809.01
506.41	37996.26
506.58	38164.78
506.76	38101.58
506.93	38813.10
507.11	38642.24
507.28	38342.66
507.46	38778.00
507.63	38864.60
507.81	39330.36
507.98	39234.40
508.16	39344.41
508.33	39419.30
508.50	39353.77
508.68	39414.62
508.85	40058.27
509.03	39842.94
509.20	39742.30
509.38	39920.18
509.55	40395.31
509.73	40137.85
509.90	40299.34
510.08	40334.45
510.25	40458.50
510.42	40900.86
510.60	41006.19
510.77	41254.28
510.95	41036.61
511.12	41008.53
511.30	41078.74
511.47	41275.35
511.64	41172.36
511.82	41706.01
511.99	41488.34
512.17	42291.14
512.34	42143.69
512.51	42265.39
512.69	42012.62
512.86	41846.44
513.04	42501.79
513.21	42745.20
513.38	42770.95
513.56	42960.53
513.73	42440.93
513.90	42953.51
514.08	42796.70
514.25	42941.81
514.43	43484.81
514.60	43246.08
514.77	43641.63
514.95	43178.20
515.12	43468.43
515.29	43524.60
515.47	43983.35
515.64	44091.01
515.81	43508.22
515.99	44261.87
516.16	44315.70
516.33	44107.40
516.51	44767.43
516.68	44098.03
516.85	44252.51
517.03	44072.29
517.20	44596.57
517.37	44638.70
517.54	44940.63
517.72	45130.21
517.89	44905.52
518.06	44851.69
518.24	44999.14
518.41	44854.03
518.58	45230.85
518.75	45429.80
518.93	45696.62
519.10	45364.26
519.27	45694.28
519.45	45787.90
519.62	45404.05
519.79	45352.56
519.96	45811.31
520.14	46017.27
520.31	45900.25
520.48	46019.61
520.65	46445.59
520.83	46005.57
521.00	46057.06
521.17	45839.39
521.34	46216.22
521.52	46813.05
521.69	46583.68
521.86	47234.35
522.03	46969.87
522.20	47276.48
522.38	47398.19
522.55	46707.73
522.72	47253.08
522.89	47082.22
523.07	47173.50
523.24	47175.84
523.41	47515.22
523.58	47089.24
523.75	48172.91
523.92	47491.81
524.10	47775.02
524.27	47915.45
524.44	47948.21
524.61	48224.40
524.78	48535.69
524.96	47931.83
525.13	48268.87
525.30	48154.18
525.47	48395.26
525.64	48605.91
525.81	48549.73
525.98	48949.96
526.16	48514.62
526.33	49148.91
526.50	49048.27
526.67	48666.76
526.84	48788.47
527.01	48633.99
527.18	49174.66
527.36	48952.30
527.53	49261.26
527.70	49598.29
527.87	49649.78
528.04	49275.30
528.21	49373.60
528.38	49214.44
528.55	49598.29
528.72	49375.94
528.89	49434.45
529.07	49532.76
529.24	49602.97
529.41	49748.09
529.58	49399.35
529.75	49750.43
529.92	49708.30
530.09	49565.52
530.26	50017.25
530.43	49951.71
530.60	50293.43
530.77	50094.49
530.94	50230.24
531.11	50319.18
531.28	50319.18
531.46	50124.91
531.63	50445.57
531.80	50494.72
531.97	50548.55
532.14	50838.78
532.31	50611.74
532.48	50880.91
532.65	50754.52
532.82	50632.81
532.99	50693.66
533.16	50749.84
533.33	51063.47
533.50	50908.99
533.67	51255.39
533.84	50941.76
534.01	50930.06
534.18	50663.24
534.35	51290.50
534.52	51007.29
534.69	51271.78
534.86	51316.25
535.03	51320.93
535.20	51564.34
535.37	51463.70
535.54	51601.79
535.71	51281.14
535.88	51580.73
536.05	51632.22
536.22	51700.09
536.38	51950.53
536.55	52055.85
536.72	51938.83
536.89	51627.54
537.06	51777.33
537.23	51664.99
537.40	51648.60
537.57	51906.06
537.74	52030.11
537.91	52369.49
538.08	52212.67
538.25	51875.63
538.42	52158.84
538.59	52442.04
538.75	52032.45
538.92	52315.65
539.09	52343.74
539.26	52170.54
539.43	52484.17
539.60	52530.98
539.77	52568.43
539.94	52573.11
540.11	52456.09
540.28	52554.39
540.44	52561.41
540.61	52758.02
540.78	52603.54
540.95	52793.12
541.12	52800.15
541.29	52814.19
541.46	52505.24
541.62	52718.23
541.79	52612.90
541.96	52392.89
542.13	52655.03
542.30	53113.78
542.47	53240.17
542.63	53256.55
542.80	53464.86
542.97	53418.05
543.14	53633.38
543.31	53268.25
543.48	53188.67
543.64	53418.05
543.81	53773.81
543.98	53659.12
544.15	53626.35
544.32	53682.53
544.48	53722.32
544.65	53626.35
544.82	53628.69
544.99	53373.58
545.16	53680.19
545.32	53511.67
545.49	54197.44
545.66	54391.71
545.83	53851.05
546.00	53818.28
546.16	54003.18
546.33	53748.06
546.50	53429.75
546.67	53799.55
546.83	53539.75
547.00	54005.52
547.17	54141.27
547.34	54120.21
547.50	54321.49
547.67	54473.63
547.84	54223.19
548.00	54143.61
548.17	54419.80
548.34	54337.88
548.51	54387.03
548.67	54597.68
548.84	54461.93
549.01	54436.18
549.18	54347.24
549.34	54246.60
549.51	54494.69
549.68	54403.41
549.84	54389.37
550.01	54487.67
550.18	54541.50
550.34	54660.87
550.51	54733.43
550.68	54686.62
550.84	54422.14
551.01	54820.03
551.18	54372.99
551.34	54408.09
551.51	54628.10
551.68	54691.30
551.84	54693.64
552.01	54717.04
552.18	55105.57
552.34	54887.90
552.51	55089.19
552.68	54852.80
552.84	55040.04
553.01	54976.84
553.18	55166.43
553.34	54946.42
553.51	54948.76
553.67	55290.48
553.84	55229.62
554.01	55236.64
554.17	55243.66
554.34	55047.06
554.51	55161.75
554.67	55089.19
554.84	55278.77
555.00	55018.97
555.17	55025.99
555.33	55166.43
555.50	55143.02
555.67	55224.94
555.83	55274.09
556.00	55051.74
556.16	55304.52
556.33	55253.03
556.50	55243.66
556.66	55660.28
556.83	55374.73
556.99	55772.63
557.16	55760.92
557.32	55798.37
557.49	55679.00
557.65	55554.96
557.82	55487.08
557.98	55547.93
558.15	55709.43
558.32	55730.50
558.48	55697.73
558.65	55891.99
558.81	55873.27
558.98	55442.61
559.14	55714.11
559.31	55601.77
559.47	55597.09
559.64	55945.83
559.80	55746.88
559.97	55805.39
560.13	55636.87
560.30	55669.64
560.46	56039.45
560.63	55924.76
560.79	55889.65
560.96	55821.78
561.12	55779.65
561.29	55679.00
561.45	55814.76
561.61	56037.11
561.78	55971.57
561.94	56126.05
562.11	56168.18
562.27	56048.81
562.44	55821.78
562.60	55693.05
562.77	56011.36
562.93	55590.06
563.10	56100.30
563.26	56018.38
563.42	56463.08
563.59	56081.58
563.75	56196.26
563.92	56048.81
564.08	56072.21
564.24	56156.47
564.41	55955.19
564.57	56067.53
564.74	55941.14
564.90	56109.66
565.07	56280.52
565.23	56322.65
565.39	56214.99
565.56	56114.34
565.72	56133.07
565.88	55987.95
566.05	56090.94
566.21	56046.47
566.38	56025.40
566.54	56119.02
566.70	56172.86
566.87	56605.86
567.03	56123.71
567.19	56554.36
567.36	56327.33
567.52	56184.56
567.68	56303.93
567.85	56079.24
568.01	56170.52
568.17	56184.56
568.34	56294.56
568.50	56261.80
568.66	56217.33
568.83	56411.59
568.99	56182.22
569.15	56273.50
569.32	56374.14
569.48	56299.25
569.64	56346.06
569.81	56285.20
569.97	56147.11
570.13	56420.95
570.30	56184.56
570.46	56488.83
570.62	56355.42
570.78	56299.25
570.95	56236.05
571.11	56287.54
571.27	56357.76
571.43	56378.82
571.60	56336.69
571.76	56474.79
571.92	56395.21
572.09	56596.49
572.25	56666.71
572.41	56458.40
572.57	56498.19
572.74	56542.66
572.90	56442.02
573.06	56069.87
573.22	56591.81
573.38	56449.04
573.55	56334.35
573.71	56708.84
573.87	56584.79
574.03	56545.00
574.20	56690.12
574.36	56474.79
574.52	56367.12
574.68	56399.89
574.84	56519.26
575.01	56416.27
575.17	56729.90
575.33	56582.45
575.49	56498.19
575.65	56779.06
575.82	56563.73
575.98	56610.54
576.14	56608.20
576.30	56355.42
576.46	56430.32
576.62	56406.91
576.79	56371.80
576.95	56392.87
577.11	56605.86
577.27	56671.39
577.43	56409.25
577.59	56559.05
577.75	56458.40
577.92	56521.60
578.08	56474.79
578.24	56566.07
578.40	56493.51
578.56	56528.62
578.72	56505.21
578.88	56828.21
579.04	56741.61
579.21	56659.69
579.37	56636.28
579.53	56685.43
579.69	56488.83
579.85	56507.55
580.01	56409.25
580.17	56512.23
580.33	56453.72
580.49	56589.47
580.65	56582.45
580.82	56519.26
580.98	56640.96
581.14	56718.20
581.30	56676.07
581.46	56502.87
581.62	56278.18
581.78	56264.14
581.94	56563.73
582.10	56500.53
582.26	56685.43
582.42	56432.66
582.58	56509.89
582.74	56556.70
582.90	56650.33
583.06	56678.41
583.22	56530.96
583.38	56605.86
583.54	56432.66
583.70	56374.14
583.86	56472.45
584.02	56526.28
584.18	56877.36
584.34	56821.19
584.50	56823.53
584.66	56704.16
584.82	56526.28
584.98	56690.12
585.14	56502.87
585.30	56275.84
585.46	56573.09
585.62	56624.58
585.78	56420.95
585.94	56437.34
586.10	56561.39
586.26	56554.36
586.42	56793.10
586.58	56828.21
586.74	56753.31
586.90	56481.81
587.06	56603.52
587.22	56584.79
587.38	56582.45
587.54	56559.05
587.70	56921.83
587.86	56573.09
588.02	56727.56
588.18	56821.19
588.34	56706.50
588.49	56741.61
588.65	56343.72
588.81	56626.92
588.97	56940.55
589.13	56643.30
589.29	56650.33
589.45	56566.07
589.61	56896.08
589.77	57078.64
589.93	57102.05
590.08	57083.33
590.24	57048.22
590.40	57008.43
590.56	57172.27
590.72	56987.36
590.88	56645.65
591.04	56978.00
591.20	56961.62
591.35	57230.78
591.51	57476.54
591.67	56863.32
591.83	57123.11
591.99	56917.15
592.15	56837.57
592.31	56975.66
592.46	56872.68
592.62	56823.53
592.78	56776.72
592.94	56996.73
593.10	56825.87
593.26	57024.81
593.41	56729.90
593.57	56868.00
593.73	56884.38
593.89	56898.42
594.05	56830.55
594.20	56980.34
594.36	56952.26
594.52	56633.94
594.68	56612.88
594.84	56725.22
594.99	57076.30
595.15	56910.13
595.31	57125.46
595.47	57090.35
595.62	57031.83
595.78	56900.76
595.94	56914.81
596.10	56961.62
596.25	57008.43
596.41	57022.47
596.57	56692.46
596.73	56860.97
596.88	56748.63
597.04	57038.86
597.20	57031.83
597.36	57064.60
597.51	56996.73
597.67	57073.96
597.83	56961.62
597.99	57277.59
598.14	56877.36
598.30	56856.29
598.46	57020.13
598.61	56795.44
598.77	56891.40
598.93	56919.49
599.09	56835.23
599.24	57162.90
599.40	57083.33
599.56	56889.06
599.71	56917.15
599.87	57277.59
600.03	57008.43
600.18	56884.38
600.34	56851.61
600.50	56963.96
600.65	57015.45
600.81	57181.63
600.97	57102.05
601.12	57226.10
601.28	57165.24
601.44	57022.47
601.59	57088.01
601.75	56858.63
601.91	56992.04
602.06	56898.42
602.22	57116.09
602.37	56978.00
602.53	56762.67
602.69	56980.34
602.84	56961.62
603.00	57134.82
603.16	57118.43
603.31	56996.73
603.47	57059.92
603.62	57031.83
603.78	56919.49
603.94	56783.74
604.09	56757.99
604.25	56853.95
604.40	56893.74
604.56	56910.13
604.71	57244.82
604.87	57069.28
605.03	57090.35
605.18	57015.45
605.34	56781.40
605.49	56708.84
605.65	56760.33
605.80	56835.23
605.96	56755.65
606.12	56708.84
606.27	56870.34
606.43	56760.33
606.58	56900.76
606.74	56860.97
606.89	56825.87
607.05	56956.94
607.20	56865.66
607.36	56683.09
607.51	56853.95
607.67	56816.50
607.82	56739.27
607.98	56690.12
608.13	56757.99
608.29	56406.91
608.44	56856.29
608.60	56657.35
608.75	56790.76
608.91	56622.24
609.06	56472.45
609.22	56729.90
609.37	56317.97
609.53	56727.56
609.68	56395.21
609.84	56547.34
609.99	56502.87
610.15	56488.83
610.30	56559.05
610.46	56804.80
610.61	56821.19
610.76	56582.45
610.92	56659.69
611.07	56556.70
611.23	56404.57
611.38	56552.02
611.54	56530.96
611.69	56432.66
611.84	56683.09
612.00	56420.95
612.15	56236.05
612.31	56395.21
612.46	56427.98
612.62	56556.70
612.77	56392.87
612.92	56704.16
613.08	56432.66
613.23	56430.32
613.39	56488.83
613.54	56271.16
613.69	56292.22
613.85	56212.65
614.00	56182.22
614.15	56467.76
614.31	56193.92
614.46	56367.12
614.62	56395.21
614.77	56655.01
614.92	56626.92
615.08	56437.34
615.23	56406.91
615.38	56474.79
615.54	55931.78
615.69	56034.77
615.84	56062.85
616.00	56079.24
616.15	56067.53
616.30	56324.99
616.46	56044.13
616.61	55950.51
616.76	56151.79
616.92	56130.73
617.07	56360.10
617.22	56142.43
617.37	55966.89
617.53	55973.91
617.68	55901.36
617.83	55863.91
617.99	55941.14
618.14	55789.01
618.29	55861.57
618.45	56303.93
618.60	55948.17
618.75	55803.05
618.90	55941.14
619.06	56055.83
619.21	55948.17
619.36	55957.53
619.51	55639.22
619.67	55381.76
619.82	55716.45
619.97	55667.30
620.12	55641.56
620.28	55611.13
620.43	55592.40
620.58	55770.28
620.73	55524.53
620.89	55695.39
621.04	55723.47
621.19	55552.62
621.34	55517.51
621.49	55341.97
621.65	55473.04
621.80	55702.41
621.95	55566.66
622.10	55529.21
622.25	55622.83
622.41	55615.81
622.56	55484.74
622.71	55395.80
622.86	55494.10
623.01	55686.03
623.16	55466.02
623.32	55180.47
623.47	55377.08
623.62	55402.82
623.77	55498.78
623.92	55337.29
624.07	55276.43
624.23	55255.37
624.38	55320.90
624.53	55260.05
624.68	55077.49
624.83	55222.60
624.98	55379.42
625.13	55164.09
625.29	55164.09
625.44	55086.85
625.59	55173.45
625.74	55061.10
625.89	54817.69
626.04	54674.91
626.19	54927.69
626.34	54838.75
626.49	55042.38
626.65	54866.84
626.80	55306.86
626.95	54937.05
627.10	54923.01
627.25	54784.92
627.40	54972.16
627.55	54569.59
627.70	54658.53
627.85	54745.13
628.00	54368.30
628.15	54583.63
628.30	54508.74
628.45	54557.89
628.60	54649.17
628.76	54770.88
628.91	55028.34
629.06	54665.55
629.21	54815.35
629.36	54548.53
629.51	54721.72
629.66	54632.78
629.81	54426.82
629.96	54262.98
630.11	54408.09
630.26	54260.64
630.41	54281.70
630.56	54513.42
630.71	54370.64
630.86	54279.36
631.01	54295.75
631.16	54157.66
631.31	54190.42
631.46	54251.28
631.61	54344.90
631.76	54087.44
631.91	54188.08
632.06	54134.25
632.21	53773.81
632.36	54071.06
632.51	53893.18
632.66	54169.36
632.81	54012.54
632.96	54057.01
633.10	54284.04
633.25	54031.27
633.40	54094.46
633.55	54122.55
633.70	54005.52
633.85	53684.87
634.00	53876.79
634.15	53956.37
634.30	53975.09
634.45	53829.98
634.60	54209.15
634.75	53860.41
634.90	53598.27
635.05	53888.49
635.19	53682.53
635.34	54225.53
635.49	53738.70
635.64	53874.45
635.79	53750.40
635.94	53546.78
636.09	53661.46
636.24	53354.85
636.39	53139.52
636.53	53354.85
636.68	53506.99
636.83	53446.13
636.98	53736.36
637.13	53392.30
637.28	53427.41
637.43	53254.21
637.57	53684.87
637.72	53263.57
637.87	53216.76
638.02	53427.41
638.17	53069.31
638.32	53319.74
638.46	53233.14
638.61	53162.93
638.76	52989.73
638.91	52987.39
639.06	53071.65
639.20	52851.64
639.35	53186.33
639.50	53071.65
639.65	53310.38
639.80	53324.43
639.94	53006.11
640.09	53010.79
640.24	53148.88
640.39	52846.96
640.54	52872.70
640.68	52940.58
640.83	52727.59
640.98	52821.21
641.13	52425.66
641.27	52956.96
641.42	52610.56
641.57	52758.02
641.72	53055.26
641.86	52900.79
642.01	52502.90
642.16	52568.43
642.31	52374.17
642.45	52830.57
642.60	52413.96
642.75	52444.38
642.90	52591.84
643.04	52598.86
643.19	52332.04
643.34	52650.35
643.48	52638.65
643.63	52184.58
643.78	52748.65
643.93	52577.79
644.07	52678.44
644.22	52704.18
644.37	52322.68
644.51	52420.98
644.66	52402.25
644.81	52229.05
644.95	52301.61
645.10	52224.37
645.25	52093.30
645.39	52163.52
645.54	52313.31
645.69	52390.55
645.83	52184.58
645.98	52332.04
646.13	52107.35
646.27	52224.37
646.42	51938.83
646.57	52259.48
646.71	52287.57
646.86	52123.73
647.00	51997.34
647.15	51655.62
647.30	51847.55
647.44	51564.34
647.59	52051.17
647.74	51751.59
647.88	51894.36
648.03	51859.25
648.17	52046.49
648.32	52105.01
648.47	52126.07
648.61	51569.02
648.76	51915.42
648.90	51667.33
649.05	51306.88
649.20	51859.25
649.34	51643.92
649.49	51372.42
649.63	51547.96
649.78	51199.22
649.92	51400.50
650.07	51676.69
650.21	51456.68
650.36	51388.80
650.51	51264.75
650.65	51889.68
650.80	51494.13
650.94	51529.23
651.09	51524.55
651.23	51360.72
651.38	51531.57
651.52	51269.43
651.67	51028.36
651.81	51391.14
651.96	51100.92
652.10	51086.87
652.25	51065.81
652.39	51239.01
652.54	51536.26
652.68	51402.85
652.83	51175.81
652.97	51278.80
653.12	51341.99
653.26	51147.73
653.41	51086.87
653.55	50866.86
653.70	50920.70
653.84	51152.41
653.99	50927.72
654.13	50892.61
654.27	50726.43
654.42	50766.22
654.56	50831.75
654.71	50979.21
654.85	50892.61
655.00	51030.70
655.14	50698.34
655.29	50660.90
655.43	50817.71
655.57	50642.17
655.72	50651.53
655.86	50621.11
656.01	50394.07
656.15	50361.31
656.30	50314.50
656.44	50110.87
656.58	50272.37
656.73	50258.32
656.87	50342.58
657.01	50520.46
657.16	50092.15
657.30	50492.38
657.45	50827.07
657.59	50368.33
657.73	50064.06
657.88	50246.62
658.02	49982.14
658.16	49848.73
658.31	50021.93
658.45	49614.68
658.60	49822.98
658.74	49635.74
658.88	49661.49
659.03	49806.60
659.17	49712.98
659.31	49883.84
659.46	49502.33
659.60	49806.60
659.74	49923.63
659.89	49544.46
660.03	49979.80
660.17	49785.54
660.32	49425.09
660.46	49375.94
660.60	49467.22
660.74	49074.01
660.89	49193.38
661.03	49298.70
661.17	49022.52
661.32	49132.53
661.46	49481.27
661.60	48877.41
661.74	48961.67
661.89	48793.15
662.03	48624.63
662.17	49160.61
662.31	48781.45
662.46	48914.86
662.60	48800.17
662.74	49195.72
662.88	48388.24
663.03	48140.14
663.17	48491.22
663.31	48128.44
663.45	47983.32
663.60	48329.72
663.74	48121.41
663.88	48062.90
664.02	48133.12
664.17	48566.12
664.31	48533.35
664.45	48098.01
664.59	48306.32
664.73	47955.24
664.88	47636.92
665.02	47562.03
665.16	47480.11
665.30	47274.14
665.44	47885.02
665.59	47016.68
665.73	47449.68
665.87	47498.83
666.01	47693.10
666.15	47054.13
666.29	47262.44
666.44	47480.11
666.58	47203.92
666.72	47152.43
666.86	47246.05
667.00	47187.54
667.14	47180.52
667.28	47334.99
667.43	46625.81
667.57	46824.76
667.71	46504.10
667.85	46590.70
667.99	46562.62
668.13	46450.27
668.27	46312.18
668.41	46354.31
668.56	46433.89
668.70	46286.43
668.84	46532.19
668.98	46319.20
669.12	46248.99
669.26	46569.64
669.40	46080.47
669.54	46148.34
669.68	45624.06
669.82	45462.57
669.96	45415.76
670.10	45708.32
670.25	45394.69
670.39	45205.11
670.53	45528.10
670.67	45474.27
670.81	45705.98
670.95	45490.65
671.09	45361.92
671.23	45443.84
671.37	45462.57
671.51	45134.89
671.65	45628.74
671.79	45064.67
671.93	44882.11
672.07	44961.69
672.21	44765.09
672.35	44313.36
672.49	44409.32
672.63	44711.25
672.77	44299.32
672.91	44105.06
673.05	43793.76
673.19	43831.21
673.33	44210.38
673.47	43761.00
673.61	44325.07
673.75	44245.49
673.89	43681.42
674.03	43718.87
674.17	43636.95
674.31	44009.09
674.45	43613.54
674.59	43517.58
674.73	43196.93
674.87	42787.33
675.01	43299.91
675.15	42747.54
675.29	43014.37
675.43	43248.42
675.56	42630.52
675.70	43107.99
675.84	43042.45
675.98	41645.15
676.12	42660.94
676.26	42576.69
676.40	42340.29
676.54	42258.37
676.68	42206.88
676.82	40896.18
676.96	41406.42
677.10	41048.32
677.23	41429.82
677.37	40975.76
677.51	41455.57
677.65	40910.22
677.79	40835.33
677.93	40580.21
678.07	40685.53
678.21	40521.69
678.34	40711.28
678.48	40816.60
678.62	40435.10
678.76	40325.09
678.90	39962.31
679.04	40245.51
679.18	39964.65
679.31	39400.58
679.45	39187.59
679.59	39576.12
679.73	39655.70
679.87	39349.09
680.00	39356.11
680.14	38958.22
680.28	38639.90
680.42	38885.66
680.56	39295.25
680.70	39091.63
680.83	38789.70
680.97	39019.07
681.11	38873.96
681.25	38443.30
681.39	38366.06
681.52	37954.13
681.66	37853.48
681.80	37904.98
681.94	37673.26
682.07	37326.86
682.21	37586.66
682.35	37038.98
682.49	37593.68
682.62	36776.84
682.76	37132.60
682.90	36659.81
683.04	37195.79
683.17	37013.23
683.31	36378.95
683.45	36521.72
683.59	36198.73
683.72	36339.16
683.86	36435.12
684.00	36156.60
684.13	36023.19
684.27	35491.88
684.41	35917.86
684.55	35295.28
684.68	35477.84
684.82	35145.48
684.96	35372.52
685.09	35431.03
685.23	34700.78
685.37	34740.57
685.50	34911.43
685.64	34890.37
685.78	35026.12
685.91	34988.67
686.05	34939.52
686.19	34183.52
686.32	34017.35
686.46	34024.37
686.60	33738.82
686.73	33771.59
686.87	33312.84
687.01	33563.28
687.14	33397.10
687.28	33132.62
687.42	33237.95
687.55	33036.66
687.69	33003.89
687.82	32793.25
687.96	33130.28
688.10	32737.07
688.23	32992.19
688.37	32879.85
688.50	32456.21
688.64	32297.05
688.78	32273.65
688.91	31885.12
689.05	32053.64
689.18	31983.42
689.32	31627.66
689.46	31470.84
689.59	31299.98
689.73	31274.24
689.86	31192.32
690.00	31115.08
690.13	31215.72
690.27	30927.84
690.41	31152.53
690.54	30892.73
690.68	30761.66
690.81	30780.39
690.95	30969.97
691.08	30277.17
691.22	30424.62
691.35	30429.30
691.49	29612.46
691.62	29703.74
691.76	29687.36
691.89	29249.67
692.03	29530.54
692.16	29125.63
692.30	29315.21
692.43	29142.01
692.57	29053.07
692.70	28989.88
692.84	29139.67
692.97	28877.53
693.11	29083.50
693.24	28709.01
693.38	28732.42
693.51	28556.88
693.65	28559.22
693.78	28641.14
693.92	27946.00
694.05	28210.48
694.19	28205.80
694.32	28009.19
694.45	27578.53
694.59	27538.74
694.72	27180.64
694.86	27463.85
694.99	27072.98
695.13	27037.87
695.26	26876.37
695.39	26859.99
695.53	27021.48
695.66	27314.05
695.80	26885.73
695.93	27007.44
696.07	26199.96
696.20	26314.64
696.33	26188.25
696.47	25982.29
696.60	25851.22
696.73	26085.27
696.87	25764.62
697.00	25481.41
697.14	25259.06
697.27	24957.13
697.40	25254.38
697.54	24854.15
697.67	24982.88
697.80	24800.32
697.94	25008.62
698.07	24685.63
698.21	24507.75
698.34	24690.31
698.47	24968.84
698.61	24334.55
698.74	24231.57
698.87	24156.67
699.01	24175.39
699.14	24098.16
699.27	24016.24
699.40	23826.65
699.54	23740.05
699.67	23527.06
699.80	23407.70
699.94	23180.67
700.07	22974.70
700.20	22815.54
700.34	22740.64
700.47	22771.07
700.60	22740.64
700.73	22595.53
700.87	22256.15
701.00	22618.94
701.13	22754.69
701.26	22710.22
701.40	22199.98
701.53	22300.62
701.66	22532.34
701.79	22286.58
701.93	22111.04
702.06	21502.50
702.19	21699.11
702.32	21507.18
702.46	21261.43
702.59	21188.87
702.72	21032.05
702.85	21238.02
702.99	20957.16
703.12	20938.43
703.25	21064.82
703.38	20615.44
703.51	20748.85
703.65	20425.86
703.78	20720.76
703.91	20423.51
704.04	20582.67
704.17	20620.12
704.31	20339.26
704.44	20002.22
704.57	20119.24
704.70	19826.68
704.83	19630.07
704.96	19646.46
705.10	19454.53
705.23	19520.07
>>>>>End Processed Spectral Data<<<<<
