SpectraSuite Data File
++++++++++++++++++++++++++++++++++++
Date: Fri Oct 18 13:54:22 GMT-05:00 2013
User: bianchi
Dark Spectrum Present: No
Reference Spectrum Present: No
Number of Sampled Component Spectra: 1
Spectrometers: USB2+H05261
Integration Time (usec): 100000 (USB2+H05261)
Spectra Averaged: 1 (USB2+H05261)
Boxcar Smoothing: 0 (USB2+H05261)
Correct for Electrical Dark: No (USB2+H05261)
Strobe/Lamp Enabled: No (USB2+H05261)
Correct for Detector Non-linearity: No (USB2+H05261)
Correct for Stray Light: No (USB2+H05261)
Number of Pixels in Processed Spectrum: 2048
>>>>>Begin Processed Spectral Data<<<<<
365.73	0.00
365.92	0.00
366.12	0.00
366.32	0.00
366.52	0.00
366.72	0.00
366.91	0.00
367.11	0.00
367.31	0.00
367.51	0.00
367.70	0.00
367.90	0.00
368.10	0.00
368.30	0.00
368.49	0.00
368.69	0.00
368.89	0.00
369.09	0.00
369.28	0.00
369.48	0.00
369.68	0.00
369.87	0.00
370.07	0.00
370.27	0.00
370.47	2.34
370.66	159.16
370.86	236.39
371.06	346.40
371.25	393.21
371.45	304.27
371.65	418.96
371.84	409.59
372.04	355.76
372.24	423.64
372.44	409.59
372.63	369.80
372.83	418.96
373.03	407.25
373.22	442.36
373.42	437.68
373.62	444.70
373.81	521.94
374.01	409.59
374.21	411.93
374.40	353.42
374.60	461.09
374.79	538.32
374.99	514.92
375.19	430.66
375.38	470.45
375.58	507.90
375.78	517.26
375.97	505.56
376.17	657.69
376.37	472.79
376.56	552.37
376.76	554.71
376.95	566.41
377.15	543.00
377.35	573.43
377.54	564.07
377.74	500.87
377.93	543.00
378.13	620.24
378.33	559.39
378.52	615.56
378.72	610.88
378.91	620.24
379.11	643.65
379.31	566.41
379.50	608.54
379.70	645.99
379.89	596.84
380.09	566.41
380.28	594.50
380.48	674.07
380.68	641.31
380.87	589.82
381.07	720.88
381.26	697.48
381.46	645.99
381.65	709.18
381.85	645.99
382.04	662.37
382.24	683.44
382.43	751.31
382.63	660.03
382.83	641.31
383.02	826.21
383.22	751.31
383.41	664.71
383.61	814.51
383.80	842.59
384.00	634.29
384.19	823.87
384.39	732.59
384.58	765.36
384.78	826.21
384.97	760.67
385.17	753.65
385.36	741.95
385.56	767.70
385.75	730.25
385.95	765.36
386.14	830.89
386.34	870.68
386.53	807.48
386.72	856.64
386.92	940.90
387.11	833.23
387.31	884.72
387.50	791.10
387.70	882.38
387.89	854.30
388.09	917.49
388.28	905.79
388.48	931.53
388.67	954.94
388.86	980.68
389.06	929.19
389.25	1034.52
389.45	936.21
389.64	945.58
389.84	966.64
390.03	1039.20
390.22	983.02
390.42	870.68
390.61	880.04
390.81	964.30
391.00	1076.65
391.19	1015.79
391.39	1032.18
391.58	1137.50
391.78	1090.69
391.97	1008.77
392.16	1086.01
392.36	1128.14
392.55	1088.35
392.75	1071.97
392.94	1153.88
393.13	1116.44
393.33	1123.46
393.52	1118.78
393.71	1207.72
393.91	1196.01
394.10	1071.97
394.29	1179.63
394.49	1086.01
394.68	1228.78
394.88	1263.89
395.07	1191.33
395.26	1287.29
395.46	1315.38
395.65	1322.40
395.84	1291.98
396.04	1245.16
396.23	1380.92
396.42	1348.15
396.62	1268.57
396.81	1348.15
397.00	1366.87
397.19	1306.02
397.39	1296.66
397.58	1418.36
397.77	1465.18
397.97	1331.76
398.16	1327.08
398.35	1455.81
398.55	1504.96
398.74	1423.05
398.93	1563.48
399.12	1486.24
399.32	1526.03
399.51	1465.18
399.70	1495.60
399.90	1579.86
400.09	1746.04
400.28	1603.27
400.47	1563.48
400.67	1617.31
400.86	1685.19
401.05	1671.14
401.24	1664.12
401.44	1710.93
401.63	1762.42
401.82	1678.16
402.01	1626.67
402.21	1720.29
402.40	1797.53
402.59	1771.79
402.78	1839.66
402.97	1788.17
403.17	1863.07
403.36	1860.73
403.55	1900.52
403.74	1968.39
403.93	2022.22
404.13	1944.99
404.32	1893.49
404.51	1898.17
404.70	1991.80
404.89	1884.13
405.09	2129.89
405.28	1923.92
405.47	2031.58
405.66	2097.12
405.85	2083.08
406.05	2118.18
406.24	2024.56
406.43	2015.20
406.62	2174.36
406.81	2314.79
407.00	2155.63
407.20	2050.31
407.39	2174.36
407.58	2326.49
407.77	2291.38
407.96	2263.30
408.15	2382.67
408.34	2303.09
408.54	2242.23
408.73	2370.96
408.92	2310.11
409.11	2478.63
409.30	2394.37
409.49	2415.43
409.68	2532.46
409.87	2455.22
410.07	2502.03
410.26	2558.21
410.45	2546.50
410.64	2644.81
410.83	2693.96
411.02	2623.74
411.21	2614.38
411.40	2647.15
411.59	2752.47
411.78	2691.62
411.98	2773.53
412.17	2808.64
412.36	2843.75
412.55	3061.42
412.74	2988.86
412.93	2960.78
413.12	2813.32
413.31	3075.46
413.50	3070.78
413.69	3056.74
413.88	3141.00
414.07	2984.18
414.26	3098.87
414.45	3103.55
414.64	3215.90
414.83	3290.79
415.02	3314.20
415.22	3314.20
415.41	3438.25
415.60	3440.59
415.79	3485.06
415.98	3438.25
416.17	3562.30
416.36	3552.93
416.55	3442.93
416.74	3562.30
416.93	3627.83
417.12	3693.37
417.31	3796.35
417.50	3695.71
417.69	3838.48
417.88	3826.78
418.07	3735.50
418.26	3679.32
418.45	4018.70
418.64	3932.10
418.83	3990.61
419.02	3957.85
419.21	4042.11
419.39	4074.87
419.58	3992.95
419.77	3852.52
419.96	4229.35
420.15	4119.34
420.34	4046.79
420.53	4287.86
420.72	4149.77
420.91	4170.83
421.10	4339.35
421.29	4416.59
421.48	4271.48
421.67	4390.84
421.86	4449.36
422.05	4416.59
422.24	4432.97
422.43	4416.59
422.61	4423.61
422.80	4601.49
422.99	4458.72
423.18	4458.72
423.37	4533.62
423.56	4400.21
423.75	4351.06
423.94	4287.86
424.13	4124.02
424.32	4393.19
424.50	4636.60
424.69	4699.80
424.88	4685.75
425.07	4489.15
425.26	4472.76
425.45	4531.28
425.64	4566.39
425.83	4528.94
426.01	4470.42
426.20	4561.70
426.39	4643.62
426.58	4643.62
426.77	4601.49
426.96	4737.24
427.15	4683.41
427.33	4739.58
427.52	4631.92
427.71	4765.33
427.90	4917.47
428.09	4992.36
428.28	4830.87
428.46	4997.04
428.65	4819.16
428.84	5090.67
429.03	4997.04
429.22	4828.53
429.40	5153.86
429.59	5125.77
429.78	4690.43
429.97	4830.87
430.16	4975.98
430.34	5078.96
430.53	5214.71
430.72	5277.91
430.91	5153.86
431.10	5153.86
431.28	5233.44
431.47	5437.06
431.66	5416.00
431.85	5219.39
432.03	5535.37
432.22	5500.26
432.41	5493.24
432.60	5465.15
432.79	5416.00
432.97	5476.85
433.16	5547.07
433.35	5481.53
433.54	5764.74
433.72	5661.76
433.91	5554.09
434.10	5610.26
434.28	5575.16
434.47	5699.20
434.66	5806.87
434.85	5734.31
435.03	5827.93
435.22	5715.59
435.41	5783.46
435.59	5966.03
435.78	5860.70
435.97	5790.49
436.16	5973.05
436.34	5778.78
436.53	5954.32
436.72	6066.67
436.90	6010.50
437.09	6071.35
437.28	6076.03
437.46	6171.99
437.65	6125.18
437.84	6160.29
438.02	6239.87
438.21	6230.51
438.40	6092.41
438.58	6466.90
438.77	6635.42
438.96	6509.03
439.14	6434.13
439.33	6464.56
439.52	6562.86
439.70	6799.26
439.89	6899.90
440.08	6937.35
440.26	6944.37
440.45	6733.72
440.63	7016.93
440.82	7014.59
441.01	6991.18
441.19	7197.15
441.38	7190.13
441.57	7148.00
441.75	7094.16
441.94	7164.38
442.12	7250.98
442.31	7447.58
442.50	7262.68
442.68	7290.77
442.87	7602.06
443.05	7536.52
443.24	7431.20
443.43	7576.31
443.61	7674.62
443.80	7683.98
443.98	7562.27
444.17	7246.30
444.35	7698.02
444.54	7740.15
444.73	7599.72
444.91	7581.00
445.10	7845.48
445.28	7714.41
445.47	7599.72
445.65	7688.66
445.84	7616.10
446.02	7707.38
446.21	7644.19
446.39	7571.63
446.58	7969.52
446.77	7824.41
446.95	7616.10
447.14	7808.03
447.32	7929.74
447.51	7791.64
447.69	7742.49
447.88	7871.22
448.06	7791.64
448.25	7819.73
448.43	7967.18
448.62	7779.94
448.80	7878.24
448.99	7960.16
449.17	7812.71
449.36	8025.70
449.54	8294.86
449.73	8105.28
449.91	8138.04
450.10	8252.73
450.28	8461.04
450.46	8372.10
450.65	8236.35
450.83	8505.51
451.02	8269.11
451.20	8397.84
451.39	8416.57
451.57	8428.27
451.76	8578.06
451.94	8482.10
452.13	8610.83
452.31	8610.83
452.49	8416.57
452.68	8720.84
452.86	8659.98
453.05	8777.01
453.23	8833.18
453.42	8777.01
453.60	8580.40
453.78	8809.78
453.97	8596.79
454.15	8720.84
454.34	8650.62
454.52	9081.28
454.70	8725.52
454.89	9139.79
455.07	8826.16
455.26	8959.57
455.44	9083.62
455.62	9151.49
455.81	9123.41
455.99	9228.73
456.17	9329.38
456.36	9284.91
456.54	9432.36
456.73	9554.07
456.91	9682.80
457.09	9579.81
457.28	9610.24
457.46	9774.08
457.64	9724.93
457.83	9680.46
458.01	9650.03
458.19	9823.23
458.38	9603.22
458.56	9994.09
458.74	9928.55
458.93	9968.34
459.11	9797.48
459.29	9837.27
459.48	9982.38
459.66	9951.96
459.84	10031.54
460.03	10085.37
460.21	10019.83
460.39	10092.39
460.57	10111.11
460.76	10071.33
460.94	10560.50
461.12	10193.03
461.31	10092.39
461.49	10183.67
461.67	10289.00
461.85	10558.16
462.04	10462.19
462.22	10974.77
462.40	10693.91
462.59	10363.89
462.77	10565.18
462.95	10794.55
463.13	10766.46
463.32	10597.95
463.50	10839.02
463.68	10810.93
463.86	10796.89
464.05	10693.91
464.23	10707.95
464.41	11000.52
464.59	10700.93
464.78	11162.01
464.96	10951.37
465.14	10677.52
465.32	11117.54
465.50	11225.21
465.69	11325.85
465.87	10925.62
466.05	11164.36
466.23	11094.14
466.41	11321.17
466.60	11552.88
466.78	11211.17
466.96	11162.01
467.14	11173.72
467.32	11337.56
467.51	11412.45
467.69	10956.05
467.87	11562.25
468.05	11400.75
468.23	11410.11
468.41	11494.37
468.60	11763.53
468.78	11620.76
468.96	11456.92
469.14	11800.98
469.32	11700.34
469.50	11445.22
469.69	11873.54
469.87	11957.80
470.05	12201.21
470.23	11929.71
470.41	11974.18
470.59	12072.48
470.77	11915.67
470.95	12238.66
471.14	12322.92
471.32	12142.70
471.50	12348.67
471.68	12365.05
471.86	12409.52
472.04	12329.94
472.22	12779.32
472.40	12547.61
472.58	12987.63
472.77	12973.59
472.95	12861.24
473.13	13221.69
473.31	12659.96
473.49	12826.14
473.67	13198.28
473.85	13041.46
474.03	13429.99
474.21	13439.36
474.39	13235.73
474.57	13577.45
474.75	13736.60
474.93	13568.09
475.12	13479.15
475.30	13708.52
475.48	13738.94
475.66	14005.77
475.84	14120.45
476.02	14150.88
476.20	14164.92
476.38	14401.32
476.56	14567.49
476.74	14347.48
476.92	14471.53
477.10	14523.02
477.28	14551.11
477.46	14586.22
477.64	14888.15
477.82	15047.30
478.00	15332.85
478.18	15229.87
478.36	15342.21
478.54	15798.62
478.72	15885.22
478.90	15932.03
479.08	15974.16
479.26	15981.18
479.44	16194.17
479.62	16428.22
479.80	16311.19
479.98	16636.53
480.16	16905.69
480.34	16769.94
480.52	16842.50
480.70	17245.07
480.88	16961.86
481.06	17198.26
481.24	17170.17
481.41	17128.04
481.59	17436.99
481.77	17444.01
481.95	17717.86
482.13	18003.40
482.31	18342.78
482.49	18492.57
482.67	18532.36
482.85	18782.80
483.03	18984.09
483.21	19051.96
483.39	19475.60
483.57	19131.54
483.74	19190.05
483.92	19456.87
484.10	19365.59
484.28	19819.66
484.46	20198.82
484.64	20503.09
484.82	20086.48
485.00	20343.94
485.18	20662.25
485.35	20861.19
485.53	20985.24
485.71	21362.07
485.89	21467.39
486.07	21329.30
486.25	21418.24
486.43	21446.33
486.61	21874.65
486.78	21984.65
486.96	22085.30
487.14	22787.46
487.32	22384.88
487.50	22785.12
487.68	22925.55
487.85	23145.56
488.03	23152.58
488.21	23931.98
488.39	23948.36
488.57	23623.03
488.75	23807.93
488.92	24271.36
489.10	24194.12
489.28	24493.71
489.46	24676.27
489.64	24790.95
489.81	25394.81
489.99	25216.93
490.17	25406.52
490.35	25589.08
490.53	25919.09
490.70	25951.86
490.88	25783.34
491.06	26382.52
491.24	26192.94
491.41	26258.47
491.59	26815.52
491.77	26614.23
491.95	27108.08
492.13	27627.68
492.30	27520.02
492.48	27522.36
492.66	27733.01
492.84	27847.69
493.01	27838.33
493.19	28121.54
493.37	28439.85
493.54	28847.10
493.72	28716.03
493.90	28776.89
494.08	28741.78
494.25	28985.19
494.43	29708.42
494.61	29757.57
494.79	29390.11
494.96	29457.98
495.14	30043.12
495.32	30197.59
495.49	30150.78
495.67	30314.62
495.85	30806.13
496.02	30761.66
496.20	30782.73
496.38	31150.19
496.55	31047.21
496.73	31653.40
496.91	31412.33
497.09	31936.61
497.26	32224.50
497.44	32072.36
497.62	31929.59
497.79	32435.14
497.97	32390.67
498.14	32840.06
498.32	32804.95
498.50	33125.60
498.67	32870.48
498.85	33036.66
499.03	33488.38
499.20	33479.02
499.38	33614.77
499.56	33582.01
499.73	33783.29
499.91	33787.97
500.08	34405.88
500.26	33883.94
500.44	34471.41
500.61	34511.20
500.79	34321.62
500.97	34820.15
501.14	35143.14
501.32	35351.45
501.49	35461.46
501.67	35278.89
501.84	35306.98
502.02	35012.07
502.20	35798.49
502.37	35709.55
502.55	35531.67
502.72	36346.18
502.90	35959.99
503.07	35962.33
503.25	35906.16
503.43	35917.86
503.60	36542.78
503.78	36723.01
503.95	36701.94
504.13	36940.68
504.30	36786.20
504.48	36554.49
504.65	37113.87
504.83	37535.17
505.01	37816.04
505.18	37200.47
505.36	37998.60
505.53	37738.80
505.71	37738.80
505.88	38033.71
506.06	37677.94
506.23	37965.83
506.41	37975.19
506.58	38106.26
506.76	38417.55
506.93	38452.66
507.11	38244.35
507.28	38845.87
507.46	38768.63
507.63	39313.98
507.81	39538.67
507.98	39051.84
508.16	39313.98
508.33	39042.48
508.50	38998.01
508.68	39693.15
508.85	39927.20
509.03	39838.26
509.20	39777.40
509.38	40130.83
509.55	40442.12
509.73	40392.97
509.90	40282.96
510.08	40170.61
510.25	40402.33
510.42	40840.01
510.60	41223.86
510.77	41443.87
510.95	41591.32
511.12	41146.62
511.30	40926.61
511.47	41429.82
511.64	41404.08
511.82	42117.94
511.99	41799.63
512.17	41874.52
512.34	42007.94
512.51	42286.46
512.69	42190.50
512.86	42225.60
513.04	42445.62
513.21	42555.62
513.38	42948.83
513.56	42632.86
513.73	42792.01
513.90	42820.10
514.08	42794.36
514.25	42955.85
514.43	42988.62
514.60	43152.46
514.77	43225.01
514.95	43646.31
515.12	43461.41
515.29	43208.63
515.47	43744.61
515.64	43840.57
515.81	44023.14
515.99	44119.10
516.16	44137.82
516.33	44304.00
516.51	44556.78
516.68	43793.76
516.85	43732.91
517.03	44203.36
517.20	44797.85
517.37	44734.66
517.54	44650.40
517.72	44954.67
517.89	44619.97
518.06	45029.57
518.24	45165.32
518.41	44917.22
518.58	45258.94
518.75	45244.90
518.93	45633.42
519.10	45551.51
519.27	46146.00
519.45	45343.20
519.62	45542.14
519.79	45736.41
519.96	45640.45
520.14	46253.67
520.31	45923.65
520.48	46038.34
520.65	46340.27
520.83	46316.86
521.00	46539.21
521.17	46073.45
521.34	46546.23
521.52	46298.14
521.69	46689.01
521.86	46532.19
522.03	47196.90
522.20	47199.24
522.38	46965.19
522.55	47372.44
522.72	47100.94
522.89	47306.91
523.07	47419.25
523.24	47587.77
523.41	47592.45
523.58	47203.92
523.75	48133.12
523.92	47566.71
524.10	47728.20
524.27	47980.98
524.44	47842.89
524.61	48142.48
524.78	48325.04
524.96	48208.01
525.13	48013.75
525.30	48521.65
525.47	48458.45
525.64	48140.14
525.81	48615.27
525.98	48949.96
526.16	48388.24
526.33	48767.40
526.50	49350.20
526.67	48360.15
526.84	48631.65
527.01	48727.61
527.18	49076.35
527.36	49511.69
527.53	49291.68
527.70	49605.31
527.87	49507.01
528.04	49001.46
528.21	49397.01
528.38	49052.95
528.55	49427.43
528.72	49429.77
528.89	49729.36
529.07	49319.77
529.24	50085.12
529.41	49832.35
529.58	49659.15
529.75	49970.44
529.92	50047.68
530.09	49764.47
530.26	50035.97
530.43	50038.31
530.60	50040.65
530.77	49904.90
530.94	50333.22
531.11	50255.98
531.28	50368.33
531.46	50078.10
531.63	50403.44
531.80	50426.84
531.97	50976.87
532.14	50742.81
532.31	50703.03
532.48	50721.75
532.65	50803.67
532.82	50593.02
532.99	50796.65
533.16	50719.41
533.33	50791.97
533.50	51210.92
533.67	51171.13
533.84	51100.92
534.01	51063.47
534.18	50735.79
534.35	51112.62
534.52	51058.79
534.69	51365.40
534.86	51817.12
535.03	51302.20
535.20	51688.39
535.37	51409.87
535.54	51667.33
535.71	51407.53
535.88	51332.63
536.05	51662.64
536.22	52025.43
536.38	52032.45
536.55	51899.04
536.72	51849.89
536.89	51725.84
537.06	51997.34
537.23	51920.10
537.40	51669.67
537.57	51838.18
537.74	51938.83
537.91	52259.48
538.08	52238.42
538.25	52060.54
538.42	52086.28
538.59	52367.15
538.75	51962.23
538.92	52289.91
539.09	52388.21
539.26	52334.38
539.43	52444.38
539.60	52617.58
539.77	52280.55
539.94	52507.58
540.11	52603.54
540.28	52453.75
540.44	52671.42
540.61	52701.84
540.78	52371.83
540.95	52736.95
541.12	52868.02
541.29	52837.59
541.46	52626.95
541.62	52671.42
541.79	52645.67
541.96	52439.70
542.13	52781.42
542.30	53059.94
542.47	53111.44
542.63	53406.34
542.80	53441.45
542.97	53532.73
543.14	53303.36
543.31	53357.19
543.48	52879.72
543.64	53614.65
543.81	53532.73
543.98	53656.78
544.15	53624.01
544.32	53876.79
544.48	53897.86
544.65	53605.29
544.82	53727.00
544.99	53427.41
545.16	53523.37
545.32	53595.93
545.49	53818.28
545.66	53881.47
545.83	53696.57
546.00	54410.43
546.16	54145.95
546.33	53670.82
546.50	53418.05
546.67	53963.39
546.83	53790.19
547.00	54251.28
547.17	54082.76
547.34	54162.34
547.50	54258.30
547.67	54443.20
547.84	54014.88
548.00	54323.83
548.17	54417.46
548.34	54408.09
548.51	54408.09
548.67	54621.08
548.84	54274.68
549.01	54319.15
549.18	54574.27
549.34	54429.16
549.51	54504.06
549.68	54644.49
549.84	54298.09
550.01	54681.94
550.18	54529.80
550.34	54511.08
550.51	54798.96
550.68	54513.42
550.84	54492.35
551.01	54576.61
551.18	54560.23
551.34	54494.69
551.51	54719.38
551.68	54529.80
551.84	54590.66
552.01	54864.50
552.18	55007.27
552.34	54770.88
552.51	54976.84
552.68	54616.40
552.84	54915.99
553.01	55105.57
553.18	55002.59
553.34	55173.45
553.51	54946.42
553.67	54990.89
553.84	55423.89
554.01	55199.19
554.17	55007.27
554.34	55086.85
554.51	55072.81
554.67	55229.62
554.84	55330.26
555.00	55004.93
555.17	55248.35
555.33	55381.76
555.50	55262.39
555.67	55412.18
555.83	55171.11
556.00	55267.07
556.16	55482.40
556.33	55543.25
556.50	55248.35
556.66	55590.06
556.83	55676.66
556.99	55669.64
557.16	55849.86
557.32	55831.14
557.49	55655.60
557.65	55292.82
557.82	55414.52
557.98	55781.99
558.15	55475.38
558.32	55667.30
558.48	55629.85
558.65	55639.22
558.81	55674.32
558.98	55812.41
559.14	55854.54
559.31	55772.63
559.47	55704.75
559.64	55803.05
559.80	55707.09
559.97	55880.29
560.13	55533.89
560.30	55728.16
560.46	55758.58
560.63	55442.61
560.79	55641.56
560.96	56039.45
561.12	55793.69
561.29	55917.74
561.45	56308.61
561.61	56039.45
561.78	56177.54
561.94	56055.83
562.11	56079.24
562.27	55870.93
562.44	55908.38
562.60	55959.87
562.77	55826.46
562.93	55812.41
563.10	56177.54
563.26	55819.44
563.42	56156.47
563.59	56294.56
563.75	56048.81
563.92	56254.78
564.08	56107.32
564.24	55931.78
564.41	55931.78
564.57	56006.68
564.74	55978.59
564.90	56090.94
565.07	56168.18
565.23	56418.61
565.39	56268.82
565.56	56123.71
565.72	56095.62
565.88	56133.07
566.05	55899.01
566.21	56126.05
566.38	55931.78
566.54	56324.99
566.70	56322.65
566.87	56451.38
567.03	56011.36
567.19	56390.53
567.36	56137.75
567.52	56184.56
567.68	56236.05
567.85	56130.73
568.01	56207.97
568.17	56154.13
568.34	56250.09
568.50	56383.51
568.66	56191.58
568.83	56296.91
568.99	56016.04
569.15	56381.16
569.32	56142.43
569.48	56123.71
569.64	56236.05
569.81	56327.33
569.97	56332.01
570.13	56427.98
570.30	56357.76
570.46	56542.66
570.62	56271.16
570.78	56385.85
570.95	56247.75
571.11	56470.11
571.27	56460.74
571.43	56207.97
571.60	56528.62
571.76	56512.23
571.92	56669.05
572.09	56647.99
572.25	56498.19
572.41	56385.85
572.57	56540.32
572.74	56591.81
572.90	56264.14
573.06	56514.58
573.22	56378.82
573.38	56383.51
573.55	56507.55
573.71	56725.22
573.87	56781.40
574.03	56535.64
574.20	56701.82
574.36	56336.69
574.52	56626.92
574.68	56411.59
574.84	56416.27
575.01	56619.90
575.17	56409.25
575.33	56170.52
575.49	56512.23
575.65	56755.65
575.82	56570.75
575.98	56350.74
576.14	56720.54
576.30	56601.18
576.46	56484.15
576.62	56460.74
576.79	56310.95
576.95	56320.31
577.11	56608.20
577.27	56549.68
577.43	56427.98
577.59	56350.74
577.75	56465.42
577.92	56294.56
578.08	56411.59
578.24	56329.67
578.40	56488.83
578.56	56533.30
578.72	56673.73
578.88	56650.33
579.04	56640.96
579.21	56416.27
579.37	56561.39
579.53	56718.20
579.69	56509.89
579.85	56636.28
580.01	56573.09
580.17	56587.13
580.33	56622.24
580.49	56729.90
580.65	56708.84
580.82	57027.15
580.98	56999.07
581.14	56673.73
581.30	56804.80
581.46	56507.55
581.62	56626.92
581.78	56191.58
581.94	56643.30
582.10	56706.50
582.26	56734.59
582.42	56629.26
582.58	56788.42
582.74	56631.60
582.90	56837.57
583.06	57031.83
583.22	56514.58
583.38	56556.70
583.54	56718.20
583.70	56556.70
583.86	56467.76
584.02	56512.23
584.18	56622.24
584.34	56655.01
584.50	56786.08
584.66	56743.95
584.82	56596.49
584.98	56757.99
585.14	56549.68
585.30	56449.04
585.46	56540.32
585.62	56341.38
585.78	56608.20
585.94	56437.34
586.10	56374.14
586.26	56828.21
586.42	56708.84
586.58	56694.80
586.74	56655.01
586.90	56509.89
587.06	56722.88
587.22	56690.12
587.38	56388.19
587.54	56786.08
587.70	56865.66
587.86	56697.14
588.02	56963.96
588.18	56947.57
588.34	56818.84
588.49	56757.99
588.65	56547.34
588.81	56570.75
588.97	56638.62
589.13	56624.58
589.29	56629.26
589.45	56458.40
589.61	57036.51
589.77	57062.26
589.93	56851.61
590.08	56896.08
590.24	56949.92
590.40	56966.30
590.56	56870.34
590.72	56708.84
590.88	56900.76
591.04	56860.97
591.20	57073.96
591.35	57111.41
591.51	57303.34
591.67	57006.09
591.83	57062.26
591.99	57116.09
592.15	57125.46
592.31	56907.79
592.46	57041.20
592.62	56694.80
592.78	56795.44
592.94	56994.39
593.10	56956.94
593.26	56945.23
593.41	56849.27
593.57	57006.09
593.73	56811.82
593.89	57155.88
594.05	56884.38
594.20	56776.72
594.36	56989.70
594.52	56940.55
594.68	56552.02
594.84	56865.66
594.99	56928.85
595.15	56839.91
595.31	57198.01
595.47	57146.52
595.62	57071.62
595.78	57006.09
595.94	56886.72
596.10	56669.05
596.25	56933.53
596.41	57052.90
596.57	56643.30
596.73	57111.41
596.88	56755.65
597.04	57029.49
597.20	57169.93
597.36	57006.09
597.51	57265.89
597.67	57109.07
597.83	56865.66
597.99	57064.60
598.14	56963.96
598.30	57120.77
598.46	57073.96
598.61	57130.14
598.77	56755.65
598.93	57013.11
599.09	57071.62
599.24	57120.77
599.40	57010.77
599.56	57153.54
599.71	57045.88
599.87	57071.62
600.03	56966.30
600.18	57010.77
600.34	56963.96
600.50	56938.21
600.65	56863.32
600.81	56968.64
600.97	57034.17
601.12	57127.80
601.28	57308.02
601.44	57059.92
601.59	56999.07
601.75	57137.16
601.91	56980.34
602.06	56746.29
602.22	57076.30
602.37	57010.77
602.53	56750.97
602.69	57064.60
602.84	57123.11
603.00	57172.27
603.16	57207.37
603.31	57003.75
603.47	57015.45
603.62	56912.47
603.78	56900.76
603.94	56781.40
604.09	56898.42
604.25	57036.51
604.40	56697.14
604.56	57172.27
604.71	57289.29
604.87	57153.54
605.03	57099.71
605.18	56903.10
605.34	57090.35
605.49	56839.91
605.65	56956.94
605.80	56685.43
605.96	56786.08
606.12	56472.45
606.27	56961.62
606.43	56968.64
606.58	57134.82
606.74	56912.47
606.89	56893.74
607.05	56863.32
607.20	56989.70
607.36	56797.78
607.51	56736.93
607.67	56783.74
607.82	56694.80
607.98	56734.59
608.13	56767.35
608.29	56715.86
608.44	56662.03
608.60	56947.57
608.75	56788.42
608.91	56900.76
609.06	56814.16
609.22	56807.14
609.37	56486.49
609.53	56816.50
609.68	56640.96
609.84	56526.28
609.99	56573.09
610.15	56542.66
610.30	56587.13
610.46	56601.18
610.61	56779.06
610.76	56619.90
610.92	56629.26
611.07	56748.63
611.23	56594.15
611.38	56729.90
611.54	56699.48
611.69	56233.71
611.84	56334.35
612.00	56383.51
612.15	56446.70
612.31	56470.11
612.46	56402.23
612.62	56774.37
612.77	56254.78
612.92	56638.62
613.08	56580.11
613.23	56409.25
613.39	56329.67
613.54	56229.03
613.69	56273.50
613.85	56158.81
614.00	56217.33
614.15	56460.74
614.31	56121.37
614.46	56598.83
614.62	56369.46
614.77	56378.82
614.92	56229.03
615.08	56151.79
615.23	56446.70
615.38	56435.00
615.54	56076.90
615.69	56264.14
615.84	56055.83
616.00	56163.50
616.15	56278.18
616.30	56324.99
616.46	55941.14
616.61	56090.94
616.76	56217.33
616.92	55962.21
617.07	56193.92
617.22	56030.08
617.37	55824.12
617.53	55962.21
617.68	55569.00
617.83	55908.38
617.99	56119.02
618.14	55899.01
618.29	55920.08
618.45	56121.37
618.60	55987.95
618.75	55861.57
618.90	56027.74
619.06	55955.19
619.21	55831.14
619.36	56025.40
619.51	55625.17
619.67	55585.38
619.82	55604.11
619.97	55803.05
620.12	55487.08
620.28	55318.56
620.43	55789.01
620.58	55676.66
620.73	55938.80
620.89	55999.66
621.04	55728.16
621.19	55728.16
621.34	55721.13
621.49	55470.70
621.65	55454.31
621.80	55849.86
621.95	55707.09
622.10	55852.20
622.25	55344.31
622.41	55337.29
622.56	55730.50
622.71	55704.75
622.86	55402.82
623.01	55405.16
623.16	55538.57
623.32	55311.54
623.47	55402.82
623.62	55292.82
623.77	55199.19
623.92	55423.89
624.07	55395.80
624.23	55594.74
624.38	55173.45
624.53	55166.43
624.68	55313.88
624.83	55679.00
624.98	55456.65
625.13	55166.43
625.29	55217.92
625.44	55136.00
625.59	55152.38
625.74	54962.80
625.89	55086.85
626.04	54934.71
626.19	55290.48
626.34	55018.97
626.49	54827.05
626.65	54967.48
626.80	54794.28
626.95	54740.45
627.10	54815.35
627.25	54803.64
627.40	54944.08
627.55	54574.27
627.70	54534.48
627.85	54351.92
628.00	54548.53
628.15	54815.35
628.30	54621.08
628.45	54878.54
628.60	54660.87
628.76	54569.59
628.91	54871.52
629.06	54768.54
629.21	54775.56
629.36	54740.45
629.51	54405.75
629.66	54663.21
629.81	54333.20
629.96	54377.67
630.11	54160.00
630.26	54309.79
630.41	54457.24
630.56	54167.02
630.71	54078.08
630.86	54150.63
631.01	54363.62
631.16	54433.84
631.31	54246.60
631.46	54101.48
631.61	54260.64
631.76	54028.93
631.91	54241.92
632.06	54223.19
632.21	54426.82
632.36	54220.85
632.51	54031.27
632.66	54164.68
632.81	54134.25
632.96	54195.10
633.10	54443.20
633.25	54211.49
633.40	54136.59
633.55	53837.00
633.70	53839.34
633.85	53841.68
634.00	53738.70
634.15	53698.91
634.30	53602.95
634.45	54010.20
634.60	54092.12
634.75	54082.76
634.90	53572.52
635.05	53942.33
635.19	53724.66
635.34	54078.08
635.49	53839.34
635.64	53881.47
635.79	53876.79
635.94	53368.90
636.09	53530.39
636.24	53462.52
636.39	53652.10
636.53	53605.29
636.68	53460.18
636.83	53382.94
636.98	53724.66
637.13	53635.72
637.28	53652.10
637.43	54033.61
637.57	53359.53
637.72	53434.43
637.87	53450.81
638.02	53464.86
638.17	53310.38
638.32	53167.61
638.46	53017.82
638.61	53137.18
638.76	53195.70
638.91	53106.76
639.06	53123.14
639.20	53167.61
639.35	53109.10
639.50	52889.09
639.65	52959.30
639.80	53326.77
639.94	53036.54
640.09	52945.26
640.24	53013.13
640.39	52807.17
640.54	52743.97
640.68	52947.60
640.83	52802.49
640.98	52601.20
641.13	52467.79
641.27	52769.72
641.42	52449.06
641.57	52900.79
641.72	52891.43
641.86	52992.07
642.01	52868.02
642.16	52851.64
642.31	52530.98
642.45	52743.97
642.60	52671.42
642.75	52516.94
642.90	52563.75
643.04	52327.36
643.19	52516.94
643.34	52619.92
643.48	52619.92
643.63	52797.80
643.78	52598.86
643.93	52734.61
644.07	52573.11
644.22	52802.49
644.37	52102.67
644.51	52505.24
644.66	52156.50
644.81	52498.22
644.95	52236.08
645.10	52158.84
645.25	52275.87
645.39	52219.69
645.54	52334.38
645.69	51936.49
645.83	52292.25
645.98	52116.71
646.13	52676.10
646.27	52430.34
646.42	52030.11
646.57	52385.87
646.71	52119.05
646.86	52128.41
647.00	51728.18
647.15	51613.49
647.30	51971.60
647.44	52020.75
647.59	51868.61
647.74	51660.30
647.88	51887.34
648.03	52121.39
648.17	51840.53
648.32	52093.30
648.47	52046.49
648.61	51737.54
648.76	51985.64
648.90	51714.14
649.05	51824.14
649.20	51566.68
649.34	51732.86
649.49	51531.57
649.63	51461.36
649.78	51599.45
649.92	51152.41
650.07	51636.90
650.21	51517.53
650.36	51590.09
650.51	51428.59
650.65	51812.44
650.80	51805.42
650.94	51622.86
651.09	51463.70
651.23	51421.57
651.38	51255.39
651.52	51360.72
651.67	51271.78
651.81	51316.25
651.96	51430.93
652.10	50988.57
652.25	51126.66
652.39	51227.31
652.54	51456.68
652.68	51224.96
652.83	51187.52
652.97	51351.35
653.12	51430.93
653.26	50972.19
653.41	50988.57
653.55	50635.15
653.70	50829.41
653.84	50953.46
653.99	50801.33
654.13	50749.84
654.27	50506.42
654.42	50618.77
654.56	50747.50
654.71	50918.35
654.85	51075.17
655.00	50660.90
655.14	50974.53
655.29	50930.06
655.43	50696.00
655.57	50745.15
655.72	50731.11
655.86	50546.21
656.01	50466.63
656.15	50288.75
656.30	50351.94
656.44	50602.38
656.58	50543.87
656.73	50176.40
656.87	50382.37
657.01	50424.50
657.16	50677.28
657.30	50398.76
657.45	50555.57
657.59	50684.30
657.73	50389.39
657.88	50323.86
658.02	50028.95
658.16	49900.22
658.31	49853.41
658.45	50190.45
658.60	49478.92
658.74	49883.84
658.88	50066.40
659.03	50024.27
659.17	49691.91
659.31	49514.03
659.46	49790.22
659.60	49982.14
659.74	49626.38
659.89	49902.56
660.03	49834.69
660.17	49827.66
660.32	49673.19
660.46	49621.70
660.60	49420.41
660.74	49418.07
660.89	49401.69
661.03	49523.40
661.17	49392.33
661.32	48886.77
661.46	49160.61
661.60	48633.99
661.74	49184.02
661.89	49205.08
662.03	49015.50
662.17	49235.51
662.31	48446.75
662.46	49031.88
662.60	48797.83
662.74	48566.12
662.88	48744.00
663.03	48383.55
663.17	48254.82
663.31	48151.84
663.45	48327.38
663.60	47973.96
663.74	48184.61
663.88	48285.25
664.02	48062.90
664.17	48715.91
664.31	48037.16
664.45	48435.05
664.59	48222.06
664.73	47784.38
664.88	47962.26
665.02	47374.78
665.16	47489.47
665.30	47620.54
665.44	47260.10
665.59	47526.92
665.73	47526.92
665.87	47002.64
666.01	47475.43
666.15	47295.21
666.29	47412.23
666.44	47344.36
666.58	47182.86
666.72	47206.26
666.86	47346.70
667.00	47555.00
667.14	46791.99
667.28	47185.20
667.43	46864.55
667.57	47004.98
667.71	46808.37
667.85	46689.01
667.99	46550.91
668.13	46382.40
668.27	46117.92
668.41	46576.66
668.56	46122.60
668.70	46312.18
668.84	46553.26
668.98	46195.15
669.12	46358.99
669.26	46436.23
669.40	46012.59
669.54	45881.52
669.68	45947.06
669.82	45511.72
669.96	45989.19
670.10	45371.28
670.25	45474.27
670.39	45642.79
670.53	45298.73
670.67	45319.79
670.81	45558.53
670.95	45373.63
671.09	45380.65
671.23	44921.90
671.37	45694.28
671.51	45326.81
671.65	45544.48
671.79	45097.44
671.93	44940.63
672.07	44919.56
672.21	45003.82
672.35	44603.59
672.49	44720.62
672.63	44924.24
672.77	44179.95
672.91	44247.83
673.05	44189.31
673.19	43922.49
673.33	44121.44
673.47	43927.17
673.61	44486.56
673.75	43866.32
673.89	43833.55
674.03	43962.28
674.17	43807.81
674.31	43674.40
674.45	43676.74
674.59	42892.66
674.73	43508.22
674.87	43386.51
675.01	43192.25
675.15	42827.12
675.29	42787.33
675.43	42803.72
675.56	42897.34
675.70	43206.29
675.84	42852.87
675.98	41930.70
676.12	42651.58
676.26	42731.16
676.40	42667.97
676.54	42110.92
676.68	42094.53
676.82	41048.32
676.96	41911.97
677.10	41546.85
677.23	41413.44
677.37	40952.35
677.51	41202.79
677.65	40994.48
677.79	40610.64
677.93	40879.80
678.07	40786.18
678.21	41003.85
678.34	40968.74
678.48	40605.95
678.62	41017.89
678.76	40240.83
678.90	40002.10
679.04	39653.36
679.18	40091.04
679.31	39503.56
679.45	39255.46
679.59	39477.82
679.73	39512.92
679.87	39620.59
680.00	39452.07
680.14	38969.92
680.28	39093.97
680.42	38983.96
680.56	39075.24
680.70	38766.29
680.83	38672.67
680.97	38447.98
681.11	38785.02
681.25	38682.03
681.39	38443.30
681.52	38541.60
681.66	38204.56
681.80	37766.88
681.94	37549.21
682.07	37940.08
682.21	37298.78
682.35	37488.36
682.49	37230.90
682.62	36723.01
682.76	37125.58
682.90	37083.45
683.04	36634.06
683.17	36816.63
683.31	36727.69
683.45	36683.22
683.59	36982.80
683.72	36385.97
683.86	36315.75
684.00	36273.62
684.13	35962.33
684.27	35976.37
684.41	35501.25
684.55	35681.47
684.68	35646.36
684.82	35534.01
684.96	34747.59
685.09	34876.32
685.23	35257.83
685.37	34780.36
685.50	35131.44
685.64	34946.54
685.78	34366.09
685.91	34740.57
686.05	34778.02
686.19	34258.42
686.32	34609.50
686.46	33923.72
686.60	33584.35
686.73	34022.03
686.87	33387.74
687.01	33593.71
687.14	32940.70
687.28	32903.25
687.42	33106.88
687.55	33228.59
687.69	32673.88
687.82	32929.00
687.96	32512.38
688.10	32800.27
688.23	32943.04
688.37	33111.56
688.50	32575.58
688.64	32514.72
688.78	32430.46
688.91	31889.80
689.05	31997.46
689.18	32020.87
689.32	31377.22
689.46	31433.39
689.59	31016.78
689.73	31634.68
689.86	31302.32
690.00	30972.31
690.13	31590.21
690.27	31129.12
690.41	30962.95
690.54	30707.83
690.68	31047.21
690.81	30991.03
690.95	30817.83
691.08	30494.84
691.22	30457.39
691.35	30260.79
691.49	30462.07
691.62	29881.62
691.76	29418.19
691.89	29656.93
692.03	29457.98
692.16	29446.28
692.30	29432.24
692.43	29151.37
692.57	29127.97
692.70	28751.14
692.84	28910.30
692.97	28599.01
693.11	29226.27
693.24	28371.97
693.38	28783.91
693.51	28872.85
693.65	28423.47
693.78	28528.79
693.92	28411.76
694.05	28301.76
694.19	28037.28
694.32	27812.59
694.45	27541.08
694.59	27583.21
694.72	27587.89
694.86	27538.74
694.99	26845.94
695.13	27051.91
695.26	26888.07
695.39	26874.03
695.53	27007.44
695.66	27070.64
695.80	26782.75
695.93	26668.06
696.07	26246.77
696.20	26955.95
696.33	26487.84
696.47	26132.08
696.60	26501.89
696.73	25867.60
696.87	25642.91
697.00	25415.88
697.14	25467.37
697.27	25163.10
697.40	25429.92
697.54	24842.45
697.67	25104.59
697.80	24797.98
697.94	24456.26
698.07	24449.24
698.21	24580.31
698.34	24657.54
698.47	24381.36
698.61	24142.63
698.74	24512.43
698.87	24503.07
699.01	24140.29
699.14	24374.34
699.27	23943.68
699.40	24011.56
699.54	23648.77
699.67	23161.94
699.80	22946.61
699.94	23253.22
700.07	23047.26
700.20	22925.55
700.34	22885.76
700.47	23136.20
700.60	22981.72
700.73	22497.23
700.87	22441.06
701.00	22728.94
701.13	22518.29
701.26	22539.36
701.40	22466.80
701.53	22340.41
701.66	22335.73
701.79	22052.53
701.93	22036.14
702.06	21788.05
702.19	21476.76
702.32	21495.48
702.46	21563.36
702.59	21312.92
702.72	21273.13
702.85	21081.21
702.99	21013.33
703.12	20816.72
703.25	20917.37
703.38	21280.15
703.51	20535.86
703.65	20643.52
703.78	20615.44
703.91	20465.64
704.04	20812.04
704.17	20395.43
704.31	20004.56
704.44	19644.12
704.57	20088.82
704.70	19613.69
704.83	19440.49
704.96	19840.72
705.10	19061.32
705.23	19576.24
>>>>>End Processed Spectral Data<<<<<
