SpectraSuite Data File
++++++++++++++++++++++++++++++++++++
Date: Fri Oct 18 13:54:48 GMT-05:00 2013
User: bianchi
Dark Spectrum Present: No
Reference Spectrum Present: No
Number of Sampled Component Spectra: 1
Spectrometers: USB2+H05261
Integration Time (usec): 100000 (USB2+H05261)
Spectra Averaged: 1 (USB2+H05261)
Boxcar Smoothing: 0 (USB2+H05261)
Correct for Electrical Dark: No (USB2+H05261)
Strobe/Lamp Enabled: No (USB2+H05261)
Correct for Detector Non-linearity: No (USB2+H05261)
Correct for Stray Light: No (USB2+H05261)
Number of Pixels in Processed Spectrum: 2048
>>>>>Begin Processed Spectral Data<<<<<
365.73	0.00
365.92	0.00
366.12	0.00
366.32	0.00
366.52	0.00
366.72	0.00
366.91	0.00
367.11	0.00
367.31	0.00
367.51	0.00
367.70	0.00
367.90	0.00
368.10	0.00
368.30	0.00
368.49	0.00
368.69	0.00
368.89	0.00
369.09	0.00
369.28	0.00
369.48	0.00
369.68	0.00
369.87	0.00
370.07	0.00
370.27	0.00
370.47	21.06
370.66	341.72
370.86	325.33
371.06	227.03
371.25	456.40
371.45	367.46
371.65	351.08
371.84	348.74
372.04	369.80
372.24	442.36
372.44	449.38
372.63	395.55
372.83	477.47
373.03	440.02
373.22	353.42
373.42	383.85
373.62	484.49
373.81	465.77
374.01	486.83
374.21	435.34
374.40	505.56
374.60	498.53
374.79	479.81
374.99	514.92
375.19	528.96
375.38	550.03
375.58	568.75
375.78	552.37
375.97	528.96
376.17	559.39
376.37	547.69
376.56	507.90
376.76	500.87
376.95	524.28
377.15	582.79
377.35	653.01
377.54	538.32
377.74	533.64
377.93	596.84
378.13	622.58
378.33	655.35
378.52	648.33
378.72	589.82
378.91	617.90
379.11	594.50
379.31	653.01
379.50	645.99
379.70	645.99
379.89	575.77
380.09	622.58
380.28	608.54
380.48	580.45
380.68	699.82
380.87	603.86
381.07	638.97
381.26	706.84
381.46	690.46
381.65	676.41
381.85	730.25
382.04	671.73
382.24	795.78
382.43	727.91
382.63	746.63
382.83	725.57
383.02	737.27
383.22	765.36
383.41	751.31
383.61	802.80
383.80	802.80
384.00	770.04
384.19	763.01
384.39	737.27
384.58	702.16
384.78	858.98
384.97	837.91
385.17	912.81
385.36	847.27
385.56	739.61
385.75	781.74
385.95	795.78
386.14	856.64
386.34	835.57
386.53	889.40
386.72	891.74
386.92	980.68
387.11	933.87
387.31	854.30
387.50	985.37
387.70	880.04
387.89	959.62
388.09	1004.09
388.28	968.98
388.48	929.19
388.67	936.21
388.86	1015.79
389.06	961.96
389.25	1027.50
389.45	1060.26
389.64	912.81
389.84	964.30
390.03	1015.79
390.22	1025.15
390.42	1018.13
390.61	992.39
390.81	968.98
391.00	1114.10
391.19	1076.65
391.39	1132.82
391.58	1053.24
391.78	1029.84
391.97	1174.95
392.16	1053.24
392.36	1144.52
392.55	1102.39
392.75	1177.29
392.94	1135.16
393.13	1137.50
393.33	1200.69
393.52	1097.71
393.71	1277.93
393.91	1301.34
394.10	1214.74
394.29	1144.52
394.49	1256.87
394.68	1259.21
394.88	1240.48
395.07	1308.36
395.26	1266.23
395.46	1301.34
395.65	1310.70
395.84	1277.93
396.04	1432.41
396.23	1364.53
396.42	1427.73
396.62	1453.47
396.81	1441.77
397.00	1444.11
397.19	1423.05
397.39	1497.94
397.58	1411.34
397.77	1444.11
397.97	1430.07
398.16	1441.77
398.35	1479.22
398.55	1521.35
398.74	1551.78
398.93	1530.71
399.12	1493.26
399.32	1572.84
399.51	1572.84
399.70	1643.06
399.90	1600.93
400.09	1526.03
400.28	1692.21
400.47	1664.12
400.67	1643.06
400.86	1661.78
401.05	1687.53
401.24	1746.04
401.44	1741.36
401.63	1682.85
401.82	1678.16
402.01	1673.48
402.21	1813.92
402.40	1900.52
402.59	1788.17
402.78	1851.36
402.97	1902.86
403.17	1870.09
403.36	1799.87
403.55	1891.15
403.74	1944.99
403.93	2003.50
404.13	1975.41
404.32	1989.46
404.51	1900.52
404.70	2057.33
404.89	1987.11
405.09	2033.93
405.28	2052.65
405.47	2160.31
405.66	2087.76
405.85	2097.12
406.05	2148.61
406.24	2186.06
406.43	2188.40
406.62	2272.66
406.81	2340.54
407.00	2282.02
407.20	2225.85
407.39	2307.77
407.58	2349.90
407.77	2326.49
407.96	2441.18
408.15	2235.21
408.34	2303.09
408.54	2380.32
408.73	2387.35
408.92	2462.24
409.11	2424.80
409.30	2516.08
409.49	2492.67
409.68	2424.80
409.87	2438.84
410.07	2541.82
410.26	2593.31
410.45	2665.87
410.64	2689.28
410.83	2705.66
411.02	2642.46
411.21	2708.00
411.40	2789.92
411.59	2696.30
411.78	2862.48
411.98	2970.14
412.17	2918.65
412.36	2832.05
412.55	2930.35
412.74	3005.25
412.93	3002.91
413.12	2874.18
413.31	3126.96
413.50	2981.84
413.69	3105.89
413.88	3300.16
414.07	3229.94
414.26	3192.49
414.45	3286.11
414.64	3162.06
414.83	3274.41
415.02	3325.90
415.22	3513.14
415.41	3517.83
415.60	3471.01
415.79	3541.23
415.98	3405.48
416.17	3447.61
416.36	3538.89
416.55	3625.49
416.74	3679.32
416.93	3517.83
417.12	3693.37
417.31	3761.24
417.50	3843.16
417.69	3915.72
417.88	4032.74
418.07	4037.42
418.26	3946.14
418.45	3997.64
418.64	4007.00
418.83	4145.09
419.02	3878.27
419.21	4081.89
419.39	4025.72
419.58	4079.55
419.77	3995.29
419.96	4126.36
420.15	4379.14
420.34	4142.75
420.53	4318.29
420.72	4346.37
420.91	4304.25
421.10	4355.74
421.29	4517.23
421.48	4135.73
421.67	4442.34
421.86	4248.07
422.05	4500.85
422.24	4271.48
422.43	4425.95
422.61	4451.70
422.80	4648.30
422.99	4627.24
423.18	4655.33
423.37	4568.73
423.56	4601.49
423.75	4526.60
423.94	4629.58
424.13	4194.24
424.32	4479.79
424.50	4610.86
424.69	4688.09
424.88	4592.13
425.07	4699.80
425.26	4594.47
425.45	4564.04
425.64	4711.50
425.83	4765.33
426.01	4760.65
426.20	4627.24
426.39	4660.01
426.58	4657.67
426.77	4704.48
426.96	4802.78
427.15	4578.09
427.33	4901.08
427.52	4987.68
427.71	4919.81
427.90	4891.72
428.09	5107.05
428.28	5020.45
428.46	4915.12
428.65	5097.69
428.84	5186.63
429.03	5090.67
429.22	5057.90
429.40	5118.75
429.59	5210.03
429.78	4847.25
429.97	4903.42
430.16	5135.14
430.34	5259.18
430.53	5364.51
430.72	5296.63
430.91	5238.12
431.10	5301.31
431.28	5373.87
431.47	5453.45
431.66	5481.53
431.85	5455.79
432.03	5362.17
432.22	5502.60
432.41	5547.07
432.60	5556.43
432.79	5603.24
432.97	5551.75
433.16	5568.13
433.35	5685.16
433.54	5750.70
433.72	5846.66
433.91	5610.26
434.10	5685.16
434.28	5816.23
434.47	5806.87
434.66	5846.66
434.85	5825.59
435.03	6015.18
435.22	6012.84
435.41	6059.65
435.59	6174.33
435.78	6106.46
435.97	5956.66
436.16	6083.05
436.34	6207.10
436.53	6022.20
436.72	6258.59
436.90	6054.97
437.09	6122.84
437.28	6076.03
437.46	6179.01
437.65	6396.68
437.84	6361.58
438.02	6211.78
438.21	6558.18
438.40	6382.64
438.58	6537.12
438.77	6373.28
438.96	6628.40
439.14	6693.93
439.33	6696.27
439.52	6754.79
439.70	6745.42
439.89	7012.24
440.08	6883.52
440.26	6942.03
440.45	7077.78
440.63	6913.94
440.82	7054.37
441.01	6782.87
441.19	7162.04
441.38	7360.98
441.57	7370.35
441.75	7302.47
441.94	7349.28
442.12	7480.35
442.31	7658.23
442.50	7695.68
442.68	7513.12
442.87	7620.78
443.05	7494.40
443.24	7688.66
443.43	7700.36
443.61	7611.42
443.80	7864.20
443.98	7782.28
444.17	7396.09
444.35	7854.84
444.54	7571.63
444.73	7868.88
444.91	7798.66
445.10	7913.35
445.28	7892.29
445.47	7625.47
445.65	7885.26
445.84	8053.78
446.02	7988.25
446.21	7936.76
446.39	7936.76
446.58	7903.99
446.77	8088.89
446.95	7960.16
447.14	8021.02
447.32	8030.38
447.51	7906.33
447.69	7864.20
447.88	7955.48
448.06	8189.53
448.25	8018.68
448.43	8051.44
448.62	7873.56
448.80	8152.09
448.99	8044.42
449.17	8222.30
449.36	8166.13
449.54	8217.62
449.73	8376.78
449.91	8269.11
450.10	8411.89
450.28	8531.25
450.46	8486.78
450.65	8402.52
450.83	8613.17
451.02	8772.33
451.20	8524.23
451.39	8744.24
451.57	8451.67
451.76	8573.38
451.94	8777.01
452.13	8964.25
452.31	8659.98
452.49	8589.77
452.68	8868.29
452.86	8678.71
453.05	8917.44
453.23	9041.49
453.42	8849.57
453.60	8606.15
453.78	8926.80
453.97	8903.40
454.15	8884.67
454.34	9067.24
454.52	9011.06
454.70	9128.09
454.89	9177.24
455.07	9146.81
455.26	9294.27
455.44	9270.86
455.62	9287.25
455.81	9249.80
455.99	9383.21
456.17	9238.09
456.36	9380.87
456.54	9633.64
456.73	9727.27
456.91	9987.07
457.09	9806.84
457.28	10134.52
457.46	9603.22
457.64	9872.38
457.83	10003.45
458.01	9802.16
458.19	10141.54
458.38	9874.72
458.56	9944.94
458.74	9930.89
458.93	10085.37
459.11	10111.11
459.29	10146.22
459.48	10015.15
459.66	10251.55
459.84	10319.42
460.03	10476.24
460.21	10104.09
460.39	10377.94
460.57	10396.66
460.76	10469.22
460.94	10483.26
461.12	10366.23
461.31	10380.28
461.49	10485.60
461.67	10391.98
461.85	10799.23
462.04	10410.70
462.22	11276.70
462.40	10960.73
462.59	10806.25
462.77	10963.07
462.95	10963.07
463.13	10888.17
463.32	11084.78
463.50	10995.84
463.68	11009.88
463.86	11023.92
464.05	10995.84
464.23	10787.53
464.41	11068.39
464.59	10815.62
464.78	11342.24
464.96	11173.72
465.14	11091.80
465.32	11307.13
465.50	11426.50
465.69	11295.43
465.87	11255.64
466.05	11351.60
466.23	11356.28
466.41	11494.37
466.60	11611.40
466.78	11456.92
466.96	11272.02
467.14	11302.45
467.32	11838.43
467.51	11824.39
467.69	11494.37
467.87	11557.57
468.05	11894.60
468.23	11611.40
468.41	11681.61
468.60	11660.55
468.78	11910.99
468.96	11726.08
469.14	11983.54
469.32	12056.10
469.50	11735.45
469.69	12140.36
469.87	12390.80
470.05	12353.35
470.23	12182.49
470.41	12191.85
470.59	12325.26
470.77	12360.37
470.95	12423.56
471.14	12734.85
471.32	12381.43
471.50	12737.20
471.68	12730.17
471.86	12711.45
472.04	12835.50
472.22	13212.32
472.40	12877.63
472.58	12870.61
472.77	13041.46
472.95	13245.09
473.13	13687.45
473.31	13081.25
473.49	13069.55
473.67	13289.56
473.85	13392.55
474.03	13860.65
474.21	13647.66
474.39	13783.41
474.57	13956.61
474.75	13909.80
474.93	13872.36
475.12	13748.31
475.30	13947.25
475.48	14071.30
475.66	14157.90
475.84	14232.80
476.02	14417.70
476.20	14111.09
476.38	14530.05
476.56	14841.34
476.74	14829.63
476.92	14871.76
477.10	14869.42
477.28	15204.12
477.46	15105.82
477.64	15260.29
477.82	15707.34
478.00	15777.55
478.18	15681.59
478.36	16159.06
478.54	15978.84
478.72	15976.50
478.90	16472.69
479.08	16353.32
479.26	16414.18
479.44	16484.39
479.62	16901.01
479.80	16915.05
479.98	16835.47
480.16	17102.29
480.34	17092.93
480.52	17439.33
480.70	17301.24
480.88	17483.80
481.06	17397.20
481.24	17467.42
481.41	17577.42
481.59	18153.20
481.77	18342.78
481.95	18443.42
482.13	18546.40
482.31	18396.61
482.49	18892.80
482.67	18588.53
482.85	18979.40
483.03	19377.30
483.21	19550.49
483.39	19920.30
483.57	19667.52
483.74	19679.22
483.92	19922.64
484.10	19838.38
484.28	20678.63
484.46	20236.27
484.64	20835.45
484.82	20589.69
485.00	20898.64
485.18	20863.54
485.35	21703.79
485.53	21434.63
485.71	21666.34
485.89	21888.69
486.07	21914.44
486.25	21970.61
486.43	21979.97
486.61	22045.51
486.78	22637.66
486.96	23094.07
487.14	22955.97
487.32	23033.21
487.50	23314.08
487.68	23220.45
487.85	23396.00
488.03	23885.17
488.21	24278.38
488.39	24311.14
488.57	24283.06
488.75	24273.70
488.92	24891.60
489.10	25125.65
489.28	24851.81
489.46	25441.62
489.64	25579.71
489.81	26003.35
489.99	25773.98
490.17	25961.22
490.35	26270.17
490.53	26368.48
490.70	26974.67
490.88	26466.78
491.06	27232.13
491.24	26820.20
491.41	27126.81
491.59	27157.24
491.77	27461.51
491.95	28100.47
492.13	28135.58
492.30	27967.06
492.48	27873.44
492.66	27906.21
492.84	28493.68
493.01	28563.90
493.19	28746.46
493.37	28952.43
493.54	29411.17
493.72	28950.09
493.90	28884.55
494.08	29727.14
494.25	29883.96
494.43	30022.05
494.61	30576.76
494.79	30485.48
494.96	30270.15
495.14	30775.70
495.32	30778.04
495.49	31241.47
495.67	31482.55
495.85	31477.86
496.02	31473.18
496.20	31861.71
496.38	31709.58
496.55	31747.03
496.73	32102.79
496.91	31882.78
497.09	32470.25
497.26	32353.23
497.44	32748.78
497.62	33078.79
497.79	33060.07
497.97	32966.45
498.14	33809.04
498.32	34024.37
498.50	33617.11
498.67	34258.42
498.85	33886.28
499.03	34103.95
499.20	34071.18
499.38	34745.25
499.56	34464.39
499.73	34609.50
499.91	35002.71
500.08	35157.19
500.26	34911.43
500.44	34937.18
500.61	35288.26
500.79	35014.41
500.97	35229.74
501.14	35702.53
501.32	36140.21
501.49	35833.60
501.67	35845.30
501.84	36194.04
502.02	36205.75
502.20	36245.54
502.37	36617.68
502.55	36554.49
502.72	36935.99
502.90	36690.24
503.07	36811.95
503.25	36966.42
503.43	37013.23
503.60	37280.05
503.78	37507.08
503.95	37804.33
504.13	37862.85
504.30	37860.51
504.48	37350.27
504.65	38160.09
504.83	38569.69
505.01	38401.17
505.18	38597.77
505.36	38696.08
505.53	38387.13
505.71	38763.95
505.88	38707.78
506.06	38440.96
506.23	38710.12
506.41	38667.99
506.58	39578.46
506.76	39491.86
506.93	39234.40
507.11	39522.29
507.28	39189.93
507.46	39861.66
507.63	40091.04
507.81	40383.60
507.98	39667.40
508.16	40297.00
508.33	40060.61
508.50	40655.11
508.68	40526.38
508.85	40854.05
509.03	40711.28
509.20	40774.47
509.38	41102.15
509.55	41127.89
509.73	41251.94
509.90	41336.20
510.08	40884.48
510.25	41116.19
510.42	41930.70
510.60	42206.88
510.77	41687.28
510.95	42564.98
511.12	41832.39
511.30	42342.63
511.47	42550.94
511.64	42218.58
511.82	42972.24
511.99	42667.97
512.17	43175.86
512.34	42880.95
512.51	42714.78
512.69	43019.05
512.86	43037.77
513.04	43526.94
513.21	43356.08
513.38	44062.93
513.56	43374.81
513.73	43468.43
513.90	43597.16
514.08	43665.03
514.25	44126.12
514.43	43871.00
514.60	44222.08
514.77	44474.86
514.95	44194.00
515.12	44123.78
515.29	44163.57
515.47	44701.89
515.64	44818.92
515.81	44917.22
515.99	45361.92
516.16	45453.20
516.33	45223.83
516.51	45963.44
516.68	45127.87
516.85	45078.72
517.03	45427.46
517.20	45996.21
517.37	45724.71
517.54	45993.87
517.72	46288.77
517.89	45886.20
518.06	45879.18
518.24	46050.04
518.41	45916.63
518.58	46174.09
518.75	46021.95
518.93	46176.43
519.10	46260.69
519.27	46122.60
519.45	46630.49
519.62	46546.23
519.79	46848.16
519.96	46490.06
520.14	46927.74
520.31	47192.22
520.48	47173.50
520.65	47452.02
520.83	47627.56
521.00	46878.59
521.17	47100.94
521.34	47309.25
521.52	47564.37
521.69	47892.04
521.86	47988.00
522.03	47948.21
522.20	48339.08
522.38	47854.59
522.55	47969.28
522.72	47887.36
522.89	48034.81
523.07	48589.52
523.24	48458.45
523.41	48924.22
523.58	48495.90
523.75	48725.27
523.92	48523.99
524.10	48638.67
524.27	48502.92
524.44	49062.31
524.61	49277.64
524.78	49202.74
524.96	49294.02
525.13	48875.07
525.30	49265.94
525.47	49043.59
525.64	49446.16
525.81	49139.55
525.98	49621.70
526.16	49602.97
526.33	49750.43
526.50	50188.11
526.67	49687.23
526.84	49577.23
527.01	49457.86
527.18	49848.73
527.36	50183.43
527.53	50192.79
527.70	50625.79
527.87	50417.48
528.04	50024.27
528.21	50258.32
528.38	50113.21
528.55	50611.74
528.72	50314.50
528.89	50586.00
529.07	50555.57
529.24	50618.77
529.41	50887.93
529.58	50351.94
529.75	50471.31
529.92	50604.72
530.09	51091.55
530.26	50766.22
530.43	50873.88
530.60	50932.40
530.77	51068.15
530.94	51161.77
531.11	50588.34
531.28	51114.96
531.46	51084.53
531.63	51168.79
531.80	51437.95
531.97	51597.11
532.14	51789.03
532.31	51585.41
532.48	51571.36
532.65	51269.43
532.82	51524.55
532.99	51590.09
533.16	51487.10
533.33	51601.79
533.50	52034.79
533.67	51978.62
533.84	51672.01
534.01	51681.37
534.18	51966.91
534.35	52189.27
534.52	51995.00
534.69	52374.17
534.86	52633.97
535.03	52093.30
535.20	52329.70
535.37	52327.36
535.54	52460.77
535.71	52259.48
535.88	52479.49
536.05	52093.30
536.22	52566.09
536.38	52851.64
536.55	52891.43
536.72	52601.20
536.89	52495.88
537.06	52706.52
537.23	52671.42
537.40	52432.68
537.57	52580.13
537.74	52575.45
537.91	52940.58
538.08	53076.33
538.25	53055.26
538.42	53109.10
538.59	53029.52
538.75	52891.43
538.92	53237.83
539.09	53364.21
539.26	53038.88
539.43	53315.06
539.60	53532.73
539.77	53380.60
539.94	53528.05
540.11	53415.71
540.28	53368.90
540.44	53357.19
540.61	53354.85
540.78	53525.71
540.95	53415.71
541.12	53661.46
541.29	53535.07
541.46	53525.71
541.62	53586.57
541.79	53666.14
541.96	53366.55
542.13	53647.42
542.30	53602.95
542.47	53904.88
542.63	54129.57
542.80	54110.85
542.97	54134.25
543.14	54131.91
543.31	54033.61
543.48	54068.72
543.64	54475.97
543.81	54504.06
543.98	54766.20
544.15	54405.75
544.32	54284.04
544.48	54717.04
544.65	54251.28
544.82	54490.01
544.99	54199.79
545.16	54422.14
545.32	54377.67
545.49	54878.54
545.66	54915.99
545.83	54941.74
546.00	54983.86
546.16	54869.18
546.33	54501.71
546.50	54101.48
546.67	54670.23
546.83	54475.97
547.00	54782.58
547.17	54461.93
547.34	54820.03
547.50	54808.32
547.67	54887.90
547.84	54918.33
548.00	54981.52
548.17	55173.45
548.34	55117.28
548.51	55070.46
548.67	55330.26
548.84	55143.02
549.01	55173.45
549.18	55044.72
549.34	55276.43
549.51	55175.79
549.68	55257.71
549.84	55131.32
550.01	55255.37
550.18	55231.96
550.34	55494.10
550.51	55384.10
550.68	55271.75
550.84	55121.96
551.01	55578.36
551.18	55154.72
551.34	55290.48
551.51	55302.18
551.68	55679.00
551.84	55599.43
552.01	55269.41
552.18	55669.64
552.34	55456.65
552.51	55419.20
552.68	55648.58
552.84	55639.22
553.01	55889.65
553.18	55583.04
553.34	55849.86
553.51	55812.41
553.67	56011.36
553.84	56268.82
554.01	56114.34
554.17	55863.91
554.34	55847.52
554.51	55803.05
554.67	56133.07
554.84	56205.62
555.00	55906.04
555.17	55969.23
555.33	56079.24
555.50	55789.01
555.67	56158.81
555.83	56243.07
556.00	56086.26
556.16	56346.06
556.33	55980.93
556.50	55896.67
556.66	56278.18
556.83	56207.97
556.99	56559.05
557.16	56395.21
557.32	56397.55
557.49	56362.44
557.65	56348.40
557.82	56109.66
557.98	56238.39
558.15	56212.65
558.32	56353.08
558.48	56329.67
558.65	56615.22
558.81	56336.69
558.98	56259.46
559.14	56367.12
559.31	56271.16
559.47	56392.87
559.64	56477.13
559.80	56484.15
559.97	56807.14
560.13	56285.20
560.30	56411.59
560.46	56456.06
560.63	56645.65
560.79	56456.06
560.96	56608.20
561.12	56772.03
561.29	56633.94
561.45	56423.29
561.61	56423.29
561.78	56769.69
561.94	56552.02
562.11	56765.01
562.27	56598.83
562.44	56741.61
562.60	56615.22
562.77	56537.98
562.93	56521.60
563.10	56917.15
563.26	56743.95
563.42	57183.97
563.59	56973.32
563.75	56811.82
563.92	56992.04
564.08	56601.18
564.24	56741.61
564.41	56657.35
564.57	56617.56
564.74	56617.56
564.90	56828.21
565.07	56750.97
565.23	57013.11
565.39	57085.67
565.56	56821.19
565.72	56725.22
565.88	56814.16
566.05	56666.71
566.21	56961.62
566.38	56959.28
566.54	56802.46
566.70	57193.33
566.87	57130.14
567.03	56891.40
567.19	57324.40
567.36	57083.33
567.52	56999.07
567.68	57001.41
567.85	56994.39
568.01	57120.77
568.17	56989.70
568.34	57017.79
568.50	57071.62
568.66	57137.16
568.83	57385.25
568.99	57097.37
569.15	56907.79
569.32	57151.20
569.48	56961.62
569.64	57319.72
569.81	56921.83
569.97	57167.58
570.13	57162.90
570.30	57015.45
570.46	57099.71
570.62	57298.65
570.78	56947.57
570.95	56811.82
571.11	57066.94
571.27	56982.68
571.43	56879.70
571.60	57076.30
571.76	57029.49
571.92	57308.02
572.09	57371.21
572.25	57308.02
572.41	57237.80
572.57	57151.20
572.74	57291.63
572.90	57078.64
573.06	56999.07
573.22	57179.29
573.38	57373.55
573.55	57139.50
573.71	57668.46
573.87	57439.09
574.03	57228.44
574.20	57312.70
574.36	57062.26
574.52	57151.20
574.68	57207.37
574.84	57174.61
575.01	57015.45
575.17	57315.04
575.33	57389.94
575.49	57464.83
575.65	57443.77
575.82	57368.87
575.98	57055.24
576.14	57385.25
576.30	57286.95
576.46	57010.77
576.62	56982.68
576.79	57176.95
576.95	57317.38
577.11	57268.23
577.27	57399.30
577.43	57212.06
577.59	57059.92
577.75	57385.25
577.92	57230.78
578.08	57052.90
578.24	57123.11
578.40	57207.37
578.56	57537.39
578.72	57368.87
578.88	57312.70
579.04	57455.47
579.21	57249.50
579.37	57226.10
579.53	57310.36
579.69	57214.40
579.85	57371.21
580.01	57319.72
580.17	57237.80
580.33	57205.03
580.49	57167.58
580.65	57467.17
580.82	57214.40
580.98	57467.17
581.14	57240.14
581.30	57612.29
581.46	57242.48
581.62	57242.48
581.78	57296.31
581.94	57268.23
582.10	57298.65
582.26	57198.01
582.42	57357.17
582.58	57443.77
582.74	57504.62
582.90	57432.07
583.06	57701.23
583.22	57432.07
583.38	57319.72
583.54	57319.72
583.70	57317.38
583.86	57326.74
584.02	57235.46
584.18	57301.00
584.34	57415.68
584.50	57453.13
584.66	57483.56
584.82	57361.85
584.98	57506.96
585.14	57303.34
585.30	57233.12
585.46	57322.06
585.62	57275.25
585.78	57373.55
585.94	57223.76
586.10	57537.39
586.26	57542.07
586.42	57778.46
586.58	57544.41
586.74	57289.29
586.90	57289.29
587.06	57385.25
587.22	57420.36
587.38	57385.25
587.54	57506.96
587.70	57432.07
587.86	57528.03
588.02	57577.18
588.18	57518.67
588.34	57570.16
588.49	57513.98
588.65	57338.44
588.81	57567.82
588.97	57506.96
589.13	57813.57
589.29	57558.45
589.45	57312.70
589.61	57649.74
589.77	57883.79
589.93	57939.96
590.08	57738.68
590.24	57485.90
590.40	57726.97
590.56	57668.46
590.72	57670.80
590.88	57572.50
591.04	57556.11
591.20	57675.48
591.35	57656.76
591.51	57741.02
591.67	57876.77
591.83	57979.75
591.99	57820.59
592.15	57839.32
592.31	57748.04
592.46	57460.15
592.62	57579.52
592.78	57736.34
592.94	57745.70
593.10	57483.56
593.26	57745.70
593.41	57937.62
593.57	57696.55
593.73	57972.73
593.89	57881.45
594.05	57710.59
594.20	57471.85
594.36	57516.32
594.52	57750.38
594.68	57593.56
594.84	57600.58
594.99	57785.49
595.15	57848.68
595.31	57970.39
595.47	57799.53
595.62	57757.40
595.78	57780.81
595.94	57691.86
596.10	57757.40
596.25	57649.74
596.41	57652.08
596.57	57502.28
596.73	57923.58
596.88	57521.01
597.04	58000.82
597.20	58071.03
597.36	57797.19
597.51	58099.12
597.67	57755.06
597.83	57659.10
597.99	57748.04
598.14	57778.46
598.30	57785.49
598.46	57970.39
598.61	57785.49
598.77	57483.56
598.93	57834.64
599.09	57537.39
599.24	57944.64
599.40	57851.02
599.56	57794.85
599.71	57811.23
599.87	57834.64
600.03	57729.31
600.18	57471.85
600.34	57518.67
600.50	57825.28
600.65	57719.95
600.81	57956.35
600.97	57986.77
601.12	58099.12
601.28	58049.97
601.44	57825.28
601.59	57712.93
601.75	57427.38
601.91	57970.39
602.06	57600.58
602.22	57844.00
602.37	57724.63
602.53	57750.38
602.69	58040.60
602.84	57726.97
603.00	57741.02
603.16	57942.30
603.31	57986.77
603.47	57886.13
603.62	57794.85
603.78	57708.25
603.94	57858.04
604.09	57776.12
604.25	57806.55
604.40	57836.98
604.56	57750.38
604.71	57958.69
604.87	57682.50
605.03	57869.75
605.18	57752.72
605.34	57623.99
605.49	57581.86
605.65	57518.67
605.80	57464.83
605.96	57724.63
606.12	57801.87
606.27	57776.12
606.43	57518.67
606.58	57979.75
606.74	57977.41
606.89	57724.63
607.05	57530.37
607.20	57874.43
607.36	57289.29
607.51	57649.74
607.67	57645.05
607.82	57366.53
607.98	57432.07
608.13	57478.88
608.29	57623.99
608.44	57591.22
608.60	57652.08
608.75	57773.78
608.91	57544.41
609.06	57471.85
609.22	57696.55
609.37	57244.82
609.53	57570.16
609.68	57403.98
609.84	57474.20
609.99	57092.69
610.15	57310.36
610.30	57467.17
610.46	57324.40
610.61	57415.68
610.76	57605.26
610.92	57418.02
611.07	57375.89
611.23	57354.83
611.38	57389.94
611.54	57251.84
611.69	57352.49
611.84	57270.57
612.00	57190.99
612.15	57293.97
612.31	57448.45
612.46	56978.00
612.62	57392.28
612.77	57254.18
612.92	57584.20
613.08	57209.71
613.23	57399.30
613.39	57102.05
613.54	57109.07
613.69	57186.31
613.85	56973.32
614.00	57181.63
614.15	57265.89
614.31	57120.77
614.46	57275.25
614.62	57125.46
614.77	57263.55
614.92	57209.71
615.08	56999.07
615.23	57181.63
615.38	57055.24
615.54	56692.46
615.69	56865.66
615.84	56774.37
616.00	56821.19
616.15	57172.27
616.30	57195.67
616.46	57036.51
616.61	56811.82
616.76	56982.68
616.92	56807.14
617.07	57022.47
617.22	56870.34
617.37	56769.69
617.53	56868.00
617.68	56903.10
617.83	56788.42
617.99	56914.81
618.14	56828.21
618.29	56652.67
618.45	56818.84
618.60	56804.80
618.75	56783.74
618.90	56582.45
619.06	56992.04
619.21	56849.27
619.36	56828.21
619.51	56561.39
619.67	56306.27
619.82	56303.93
619.97	56678.41
620.12	56346.06
620.28	56334.35
620.43	56442.02
620.58	56694.80
620.73	56624.58
620.89	56655.01
621.04	56797.78
621.19	56470.11
621.34	56378.82
621.49	56474.79
621.65	56186.90
621.80	56706.50
621.95	56432.66
622.10	56460.74
622.25	56254.78
622.41	56413.93
622.56	56088.60
622.71	56411.59
622.86	56332.01
623.01	56444.36
623.16	56334.35
623.32	56034.77
623.47	56207.97
623.62	56013.70
623.77	56020.72
623.92	56104.98
624.07	55990.30
624.23	56013.70
624.38	56186.90
624.53	56018.38
624.68	56203.28
624.83	56193.92
624.98	56002.00
625.13	55849.86
625.29	56116.68
625.44	56186.90
625.59	56074.55
625.74	56067.53
625.89	55763.26
626.04	55686.03
626.19	55594.74
626.34	55789.01
626.49	55835.82
626.65	55774.97
626.80	55908.38
626.95	55686.03
627.10	55753.90
627.25	55814.76
627.40	55817.10
627.55	55629.85
627.70	55597.09
627.85	55451.97
628.00	55510.49
628.15	55552.62
628.30	55428.57
628.45	55690.71
628.60	55461.33
628.76	55386.44
628.91	55756.24
629.06	55583.04
629.21	55686.03
629.36	55468.36
629.51	55370.05
629.66	55395.80
629.81	55206.22
629.96	55224.94
630.11	55168.77
630.26	55121.96
630.41	55363.03
630.56	55161.75
630.71	55395.80
630.86	55299.84
631.01	55494.10
631.16	55313.88
631.31	55229.62
631.46	54948.76
631.61	55327.92
631.76	55168.77
631.91	55018.97
632.06	54822.37
632.21	55100.89
632.36	55229.62
632.51	55086.85
632.66	55166.43
632.81	55051.74
632.96	55255.37
633.10	55042.38
633.25	55105.57
633.40	54691.30
633.55	54880.88
633.70	54937.05
633.85	54618.74
634.00	54693.64
634.15	54752.15
634.30	54688.96
634.45	54894.92
634.60	54894.92
634.75	54698.32
634.90	54707.68
635.05	54923.01
635.19	54745.13
635.34	54763.85
635.49	54595.34
635.64	54754.49
635.79	54447.88
635.94	54632.78
636.09	54417.46
636.24	54438.52
636.39	54307.45
636.53	54693.64
636.68	54461.93
636.83	54607.04
636.98	54616.40
637.13	54600.02
637.28	54426.82
637.43	54766.20
637.57	54585.97
637.72	54080.42
637.87	54443.20
638.02	54602.36
638.17	54199.79
638.32	54431.50
638.46	54129.57
638.61	53965.73
638.76	53902.54
638.91	53883.81
639.06	54164.68
639.20	54192.76
639.35	54143.61
639.50	54211.49
639.65	54344.90
639.80	54197.44
639.94	54288.73
640.09	54057.01
640.24	53750.40
640.39	53883.81
640.54	53743.38
640.68	53811.26
640.83	54035.95
640.98	53612.31
641.13	53387.62
641.27	53944.67
641.42	53504.65
641.57	53710.61
641.72	53607.63
641.86	53841.68
642.01	53422.73
642.16	53612.31
642.31	53506.99
642.45	53846.36
642.60	53455.50
642.75	53343.15
642.90	53638.06
643.04	53511.67
643.19	53551.46
643.34	53488.26
643.48	53233.14
643.63	53872.11
643.78	53464.86
643.93	53701.25
644.07	53624.01
644.22	53396.98
644.37	53434.43
644.51	53530.39
644.66	53488.26
644.81	53324.43
644.95	53254.21
645.10	53006.11
645.25	53247.19
645.39	53153.57
645.54	53099.73
645.69	53427.41
645.83	53001.43
645.98	53364.21
646.13	53577.20
646.27	53612.31
646.42	53083.35
646.57	53340.81
646.71	53308.04
646.86	53350.17
647.00	53083.35
647.15	53343.15
647.30	53270.59
647.44	53249.53
647.59	52914.83
647.74	52973.34
647.88	52762.70
648.03	53062.29
648.17	52968.66
648.32	53123.14
648.47	52966.32
648.61	52919.51
648.76	52917.17
648.90	52683.12
649.05	52914.83
649.20	52711.20
649.34	53102.07
649.49	52109.69
649.63	52680.78
649.78	52486.51
649.92	52741.63
650.07	52781.42
650.21	52638.65
650.36	52849.30
650.51	52516.94
650.65	52973.34
650.80	52781.42
650.94	52402.25
651.09	52727.59
651.23	52343.74
651.38	52680.78
651.52	52257.14
651.67	52406.94
651.81	52523.96
651.96	52334.38
652.10	52093.30
652.25	52442.04
652.39	52430.34
652.54	52636.31
652.68	52355.44
652.83	52282.89
652.97	52444.38
653.12	52491.19
653.26	52357.78
653.41	52177.56
653.55	52179.90
653.70	51840.53
653.84	51990.32
653.99	52133.09
654.13	52135.43
654.27	52067.56
654.42	51997.34
654.56	52051.17
654.71	51828.82
654.85	51927.13
655.00	52086.28
655.14	52177.56
655.29	51632.22
655.43	51866.27
655.57	51826.48
655.72	51707.12
655.86	51444.98
656.01	51569.02
656.15	51318.59
656.30	51388.80
656.44	51133.68
656.58	51419.23
656.73	51423.91
656.87	51519.87
657.01	51800.74
657.16	51789.03
657.30	51608.81
657.45	51592.43
657.59	51723.50
657.73	51538.60
657.88	51384.12
658.02	51026.02
658.16	51311.56
658.31	50960.48
658.45	51278.80
658.60	51119.64
658.74	50885.59
658.88	51021.34
659.03	50717.07
659.17	51393.48
659.31	51044.74
659.46	50918.35
659.60	51253.05
659.74	50988.57
659.89	51159.43
660.03	50941.76
660.17	50777.92
660.32	50791.97
660.46	50925.38
660.60	50934.74
660.74	50770.90
660.89	50955.80
661.03	50033.63
661.17	50674.94
661.32	50337.90
661.46	50246.62
661.60	50431.52
661.74	49998.52
661.89	50136.62
662.03	50396.42
662.17	50230.24
662.31	50251.30
662.46	50167.04
662.60	50258.32
662.74	50064.06
662.88	49904.90
663.03	49521.05
663.17	49666.17
663.31	49514.03
663.45	49626.38
663.60	49537.44
663.74	49251.89
663.88	49773.83
664.02	49420.41
664.17	49979.80
664.31	49439.14
664.45	49647.44
664.59	49464.88
664.73	49497.65
664.88	49230.83
665.02	48509.94
665.16	48355.47
665.30	48971.03
665.44	48760.38
665.59	48193.97
665.73	49029.54
665.87	48278.23
666.01	49010.82
666.15	48680.80
666.29	48861.02
666.44	48690.16
666.58	48519.31
666.72	49055.29
666.86	48411.64
667.00	48488.88
667.14	48523.99
667.28	48327.38
667.43	48151.84
667.57	48311.00
667.71	48009.07
667.85	48044.18
667.99	48072.26
668.13	48156.52
668.27	47351.38
668.41	47721.18
668.56	47693.10
668.70	47625.22
668.84	47952.90
668.98	47435.64
669.12	47363.08
669.26	47508.19
669.40	46995.62
669.54	47435.64
669.68	47407.55
669.82	46726.46
669.96	46766.24
670.10	47044.77
670.25	46852.84
670.39	46471.34
670.53	46307.50
670.67	46791.99
670.81	46696.03
670.95	46707.73
671.09	46513.47
671.23	46705.39
671.37	46838.80
671.51	46894.97
671.65	46623.47
671.79	46270.05
671.93	46078.13
672.07	46417.50
672.21	46206.86
672.35	46092.17
672.49	45965.78
672.63	45724.71
672.77	45443.84
672.91	45649.81
673.05	45661.51
673.19	45312.77
673.33	45275.32
673.47	45375.97
673.61	45790.24
673.75	45186.38
673.89	45296.39
674.03	45261.28
674.17	45109.14
674.31	45148.93
674.45	44945.31
674.59	44774.45
674.73	44823.60
674.87	44395.28
675.01	44615.29
675.15	44488.90
675.29	44121.44
675.43	44058.24
675.56	44210.38
675.70	44039.52
675.84	44191.65
675.98	43072.88
676.12	43569.07
676.26	44357.83
676.40	43910.79
676.54	43356.08
676.68	43510.56
676.82	42621.16
676.96	43405.23
677.10	42768.61
677.23	42810.74
677.37	42880.95
677.51	42457.32
677.65	42473.70
677.79	42014.96
677.93	41872.18
678.07	42344.97
678.21	41902.61
678.34	42195.18
678.48	42237.31
678.62	41972.83
678.76	41834.74
678.90	41904.95
679.04	41298.75
679.18	41553.87
679.31	40765.11
679.45	40437.44
679.59	41118.53
679.73	40933.63
679.87	40638.72
680.00	40442.12
680.14	40458.50
680.28	40334.45
680.42	40198.70
680.56	40318.07
680.70	39915.50
680.83	40189.34
680.97	40301.68
681.11	40486.59
681.25	39765.70
681.39	39845.28
681.52	39779.74
681.66	39473.13
681.80	39276.53
681.94	39274.19
682.07	39311.64
682.21	38508.83
682.35	38253.72
682.49	38581.39
682.62	38485.43
682.76	38361.38
682.90	38302.87
683.04	38101.58
683.17	37996.26
683.31	37844.12
683.45	38600.12
683.59	38005.62
683.72	37713.05
683.86	37390.06
684.00	37621.77
684.13	36753.43
684.27	37376.01
684.41	36706.62
684.55	36664.49
684.68	36823.65
684.82	36634.06
684.96	35936.59
685.09	36254.90
685.23	36065.31
685.37	36194.04
685.50	36357.88
685.64	36280.64
685.78	35782.11
685.91	35562.10
686.05	35744.66
686.19	35688.49
686.32	35559.76
686.46	35431.03
686.60	35000.37
686.73	34731.21
686.87	35290.60
687.01	34759.30
687.14	34682.06
687.28	34656.31
687.42	34148.42
687.55	34167.14
687.69	34321.62
687.82	33818.40
687.96	34204.59
688.10	33984.58
688.23	34199.91
688.37	33954.15
688.50	33773.93
688.64	33132.62
688.78	33418.17
688.91	32994.53
689.05	33132.62
689.18	32870.48
689.32	32638.77
689.46	32519.40
689.59	32613.02
689.73	32563.87
689.86	32208.11
690.00	32645.79
690.13	32463.23
690.27	32114.49
690.41	32058.32
690.54	31805.54
690.68	31721.28
690.81	31976.40
690.95	31838.31
691.08	31505.95
691.22	31487.23
691.35	31391.26
691.49	30998.06
691.62	30862.30
691.76	30668.04
691.89	30841.24
692.03	30408.24
692.16	30164.82
692.30	30263.13
692.43	30279.51
692.57	30272.49
692.70	29905.02
692.84	30050.14
692.97	29862.90
693.11	30003.33
693.24	30061.84
693.38	29376.06
693.51	29560.97
693.65	29336.27
693.78	29455.64
693.92	29432.24
694.05	29177.12
694.19	28870.51
694.32	28711.35
694.45	28826.04
694.59	28180.05
694.72	28086.43
694.86	28247.93
694.99	28102.81
695.13	27969.40
695.26	27777.48
695.39	27590.24
695.53	27665.13
695.66	27573.85
695.80	27892.16
695.93	27786.84
696.07	27782.16
696.20	27693.22
696.33	27190.00
696.47	27204.05
696.60	27335.12
696.73	26794.45
696.87	26651.68
697.00	26354.43
697.14	26558.06
697.27	25727.17
697.40	25589.08
697.54	26195.28
697.67	25661.63
697.80	25668.66
697.94	25340.98
698.07	25654.61
698.21	25411.20
698.34	25476.73
698.47	25376.09
698.61	25041.39
698.74	25357.36
698.87	25261.40
699.01	25181.82
699.14	25415.88
699.27	24931.39
699.40	24779.25
699.54	24528.81
699.67	24020.92
699.80	24353.27
699.94	24067.73
700.07	24119.22
700.20	24058.37
700.34	23838.36
700.47	23751.76
700.60	23555.15
700.73	23777.50
700.87	23456.85
701.00	23580.90
701.13	23831.33
701.26	23154.92
701.40	23190.03
701.53	23140.88
701.66	23124.49
701.79	22958.31
701.93	22525.32
702.06	22579.15
702.19	22204.66
702.32	22457.44
702.46	22113.38
702.59	21804.43
702.72	21689.74
702.85	21799.75
702.99	21731.87
703.12	21654.64
703.25	21638.25
703.38	21605.49
703.51	21528.25
703.65	21701.45
703.78	21298.88
703.91	21605.49
704.04	21469.73
704.17	21174.83
704.31	21109.29
704.44	20924.39
704.57	20788.64
704.70	20503.09
704.83	20175.42
704.96	20690.34
705.10	20231.59
705.23	20161.37
>>>>>End Processed Spectral Data<<<<<
