SpectraSuite Data File
++++++++++++++++++++++++++++++++++++
Date: Fri Oct 18 13:55:06 GMT-05:00 2013
User: bianchi
Dark Spectrum Present: No
Reference Spectrum Present: No
Number of Sampled Component Spectra: 1
Spectrometers: USB2+H05261
Integration Time (usec): 100000 (USB2+H05261)
Spectra Averaged: 1 (USB2+H05261)
Boxcar Smoothing: 0 (USB2+H05261)
Correct for Electrical Dark: No (USB2+H05261)
Strobe/Lamp Enabled: No (USB2+H05261)
Correct for Detector Non-linearity: No (USB2+H05261)
Correct for Stray Light: No (USB2+H05261)
Number of Pixels in Processed Spectrum: 2048
>>>>>Begin Processed Spectral Data<<<<<
365.73	0.00
365.92	0.00
366.12	0.00
366.32	0.00
366.52	0.00
366.72	0.00
366.91	0.00
367.11	0.00
367.31	0.00
367.51	0.00
367.70	0.00
367.90	0.00
368.10	0.00
368.30	0.00
368.49	0.00
368.69	0.00
368.89	0.00
369.09	0.00
369.28	0.00
369.48	0.00
369.68	0.00
369.87	0.00
370.07	0.00
370.27	0.00
370.47	0.00
370.66	215.33
370.86	273.84
371.06	301.93
371.25	308.95
371.45	360.44
371.65	379.17
371.84	379.17
372.04	374.49
372.24	353.42
372.44	440.02
372.63	388.53
372.83	540.66
373.03	362.78
373.22	430.66
373.42	369.80
373.62	418.96
373.81	369.80
374.01	463.43
374.21	489.17
374.40	465.77
374.60	521.94
374.79	458.74
374.99	421.30
375.19	475.13
375.38	587.47
375.58	568.75
375.78	610.88
375.97	491.51
376.17	540.66
376.37	550.03
376.56	561.73
376.76	491.51
376.95	561.73
377.15	592.16
377.35	517.26
377.54	533.64
377.74	517.26
377.93	603.86
378.13	617.90
378.33	554.71
378.52	692.80
378.72	538.32
378.91	557.05
379.11	503.22
379.31	711.52
379.50	613.22
379.70	655.35
379.89	641.31
380.09	573.43
380.28	557.05
380.48	578.11
380.68	650.67
380.87	695.14
381.07	706.84
381.26	720.88
381.46	608.54
381.65	610.88
381.85	648.33
382.04	662.37
382.24	727.91
382.43	830.89
382.63	725.57
382.83	791.10
383.02	718.54
383.22	863.66
383.41	737.27
383.61	760.67
383.80	880.04
384.00	781.74
384.19	765.36
384.39	704.50
384.58	816.85
384.78	734.93
384.97	786.42
385.17	777.06
385.36	777.06
385.56	786.42
385.75	751.31
385.95	816.85
386.14	905.79
386.34	866.00
386.53	866.00
386.72	784.08
386.92	931.53
387.11	763.01
387.31	880.04
387.50	940.90
387.70	910.47
387.89	894.08
388.09	889.40
388.28	887.06
388.48	823.87
388.67	894.08
388.86	992.39
389.06	819.19
389.25	987.71
389.45	968.98
389.64	950.26
389.84	1039.20
390.03	1062.60
390.22	1034.52
390.42	1001.75
390.61	1034.52
390.81	1036.86
391.00	985.37
391.19	1078.99
391.39	968.98
391.58	1067.28
391.78	1097.71
391.97	1137.50
392.16	1029.84
392.36	1144.52
392.55	1125.80
392.75	1102.39
392.94	1226.44
393.13	1163.25
393.33	1114.10
393.52	1060.26
393.71	1078.99
393.91	1200.69
394.10	1100.05
394.29	1139.84
394.49	1149.20
394.68	1252.19
394.88	1280.27
395.07	1273.25
395.26	1224.10
395.46	1266.23
395.65	1270.91
395.84	1263.89
396.04	1437.09
396.23	1341.13
396.42	1383.26
396.62	1331.76
396.81	1301.34
397.00	1359.85
397.19	1362.19
397.39	1385.60
397.58	1469.86
397.77	1497.94
397.97	1455.81
398.16	1331.76
398.35	1399.64
398.55	1451.13
398.74	1535.39
398.93	1657.10
399.12	1582.20
399.32	1460.49
399.51	1535.39
399.70	1621.99
399.90	1633.69
400.09	1479.22
400.28	1661.78
400.47	1584.54
400.67	1687.53
400.86	1661.78
401.05	1633.69
401.24	1603.27
401.44	1636.03
401.63	1790.51
401.82	1703.91
402.01	1671.14
402.21	1783.49
402.40	1788.17
402.59	1743.70
402.78	1715.61
402.97	1799.87
403.17	1881.79
403.36	1816.26
403.55	1886.47
403.74	1891.15
403.93	1827.96
404.13	1886.47
404.32	1827.96
404.51	1853.70
404.70	1942.64
404.89	1973.07
405.09	2057.33
405.28	2064.35
405.47	2036.27
405.66	2022.22
405.85	2050.31
406.05	2047.97
406.24	2115.84
406.43	2127.55
406.62	2228.19
406.81	2239.89
407.00	2129.89
407.20	1980.09
407.39	2129.89
407.58	2251.60
407.77	2228.19
407.96	2333.51
408.15	2345.22
408.34	2448.20
408.54	2267.98
408.73	2497.35
408.92	2392.03
409.11	2516.08
409.30	2403.73
409.49	2438.84
409.68	2438.84
409.87	2492.67
410.07	2499.69
410.26	2532.46
410.45	2553.52
410.64	2623.74
410.83	2722.04
411.02	2633.10
411.21	2696.30
411.40	2607.36
411.59	2686.94
411.78	2768.85
411.98	2738.43
412.17	2869.50
412.36	2841.41
412.55	2944.39
412.74	2970.14
412.93	3063.76
413.12	2949.08
413.31	3070.78
413.50	3045.04
413.69	3112.91
413.88	3091.85
414.07	3141.00
414.26	3227.60
414.45	3304.84
414.64	3272.07
414.83	3393.78
415.02	3173.77
415.22	3276.75
415.41	3447.61
415.60	3309.52
415.79	3318.88
415.98	3459.31
416.17	3391.44
416.36	3590.38
416.55	3506.12
416.74	3555.27
416.93	3578.68
417.12	3754.22
417.31	3714.43
417.50	3845.50
417.69	3873.59
417.88	3777.62
418.07	3779.97
418.26	3761.24
418.45	3969.55
418.64	4049.13
418.83	3960.19
419.02	3990.61
419.21	4058.49
419.39	4021.04
419.58	4079.55
419.77	3997.64
419.96	3999.98
420.15	4131.05
420.34	4149.77
420.53	4222.33
420.72	4182.54
420.91	4278.50
421.10	4418.93
421.29	4344.03
421.48	4166.15
421.67	4437.66
421.86	4351.06
422.05	4191.90
422.24	4269.14
422.43	4311.27
422.61	4456.38
422.80	4519.57
422.99	4451.70
423.18	4468.08
423.37	4505.53
423.56	4601.49
423.75	4526.60
423.94	4241.05
424.13	4341.69
424.32	4447.02
424.50	4561.70
424.69	4592.13
424.88	4664.69
425.07	4512.55
425.26	4627.24
425.45	4540.64
425.64	4643.62
425.83	4528.94
426.01	4599.15
426.20	4447.02
426.39	4580.43
426.58	4608.51
426.77	4526.60
426.96	4695.11
427.15	4608.51
427.33	4819.16
427.52	4629.58
427.71	4793.42
427.90	4594.47
428.09	4744.27
428.28	4880.02
428.46	4861.29
428.65	4880.02
428.84	5008.75
429.03	5064.92
429.22	4894.06
429.40	4975.98
429.59	4985.34
429.78	4786.40
429.97	4688.09
430.16	4898.74
430.34	5015.77
430.53	5121.09
430.72	5280.25
430.91	5142.16
431.10	5114.07
431.28	5193.65
431.47	5317.70
431.66	5514.30
431.85	5228.76
432.03	5273.23
432.22	5495.58
432.41	5425.36
432.60	5509.62
432.79	5282.59
432.97	5439.40
433.16	5523.66
433.35	5542.39
433.54	5598.56
433.72	5645.37
433.91	5516.64
434.10	5617.29
434.28	5661.76
434.47	5717.93
434.66	5659.42
434.85	5736.65
435.03	5837.30
435.22	5720.27
435.41	6001.13
435.59	5755.38
435.78	5984.75
435.97	5900.49
436.16	5956.66
436.34	5863.04
436.53	6143.91
436.72	6265.61
436.90	5963.68
437.09	5991.77
437.28	5994.11
437.46	6099.44
437.65	6300.72
437.84	6326.47
438.02	6160.29
438.21	6181.35
438.40	6071.35
438.58	6441.15
438.77	6623.72
438.96	6296.04
439.14	6551.16
439.33	6516.05
439.52	6609.67
439.70	6722.02
439.89	6827.34
440.08	6729.04
440.26	6850.75
440.45	6867.13
440.63	7000.54
440.82	6871.81
441.01	6895.22
441.19	7052.03
441.38	7192.47
441.57	7129.27
441.75	7241.62
441.94	7208.85
442.12	7276.73
442.31	7368.01
442.50	7400.77
442.68	7541.21
442.87	7384.39
443.05	7499.08
443.24	7719.09
443.43	7709.72
443.61	7559.93
443.80	7943.78
443.98	7489.71
444.17	7342.26
444.35	7700.36
444.54	8042.08
444.73	7812.71
444.91	7618.44
445.10	7695.68
445.28	7845.48
445.47	7761.22
445.65	7620.78
445.84	7679.30
446.02	7978.89
446.21	7618.44
446.39	7815.05
446.58	7983.57
446.77	7908.67
446.95	7581.00
447.14	7786.96
447.32	7751.85
447.51	7824.41
447.69	7932.08
447.88	7683.98
448.06	7864.20
448.25	7875.90
448.43	7758.88
448.62	7786.96
448.80	7833.77
448.99	7995.27
449.17	8102.93
449.36	7791.64
449.54	7957.82
449.73	8238.69
449.91	8255.07
450.10	8269.11
450.28	8266.77
450.46	8496.14
450.65	8243.37
450.83	8397.84
451.02	8454.02
451.20	8461.04
451.39	8379.12
451.57	8203.58
451.76	8461.04
451.94	8444.65
452.13	8889.35
452.31	8505.51
452.49	8425.93
452.68	8706.79
452.86	8533.59
453.05	8856.59
453.23	8800.41
453.42	8610.83
453.60	8624.87
453.78	8659.98
453.97	8706.79
454.15	8608.49
454.34	8648.28
454.52	9048.51
454.70	9041.49
454.89	9114.05
455.07	9029.79
455.26	9015.74
455.44	9144.47
455.62	9135.11
455.81	9149.15
455.99	9149.15
456.17	9116.39
456.36	9312.99
456.54	9167.88
456.73	9408.95
456.91	9767.06
457.09	9694.50
457.28	9722.59
457.46	9320.01
457.64	9617.26
457.83	9788.12
458.01	9640.67
458.19	9863.02
458.38	9757.69
458.56	9926.21
458.74	9792.80
458.93	9902.81
459.11	9982.38
459.29	10038.56
459.48	9984.73
459.66	10186.01
459.84	9975.36
460.03	10380.28
460.21	9982.38
460.39	10066.64
460.57	10104.09
460.76	10267.93
460.94	10326.44
461.12	10310.06
461.31	10345.17
461.49	10340.49
461.67	10347.51
461.85	10527.73
462.04	10380.28
462.22	10527.73
462.40	10619.01
462.59	10630.71
462.77	10640.08
462.95	10637.73
463.13	10572.20
463.32	10738.38
463.50	10927.96
463.68	10726.68
463.86	10820.30
464.05	10869.45
464.23	10684.55
464.41	10731.36
464.59	10768.80
464.78	11145.63
464.96	11056.69
465.14	10766.46
465.32	11061.37
465.50	11461.60
465.69	10942.00
465.87	11035.63
466.05	11122.23
466.23	11089.46
466.41	11183.08
466.60	11573.95
466.78	11211.17
466.96	11255.64
467.14	11166.70
467.32	11367.98
467.51	11267.34
467.69	11218.19
467.87	11499.05
468.05	11503.73
468.23	11346.92
468.41	11506.07
468.60	11522.46
468.78	11716.72
468.96	11548.20
469.14	11761.19
469.32	11927.37
469.50	11548.20
469.69	12079.50
469.87	11985.88
470.05	12133.34
470.23	12004.61
470.41	11838.43
470.59	12189.51
470.77	11999.93
470.95	12030.35
471.14	12442.29
471.32	12224.62
471.50	12472.71
471.68	12472.71
471.86	12472.71
472.04	12449.31
472.22	12989.97
472.40	12624.85
472.58	12517.18
472.77	12484.42
472.95	12856.56
473.13	13163.17
473.31	12795.71
473.49	12924.44
473.67	13184.24
473.85	13357.44
474.03	13570.43
474.21	13530.64
474.39	13425.31
474.57	13572.77
474.75	13565.74
474.93	13757.67
475.12	13563.40
475.30	13748.31
475.48	13687.45
475.66	13942.57
475.84	13907.46
476.02	14221.10
476.20	14143.86
476.38	14181.31
476.56	14375.57
476.74	14464.51
476.92	14621.33
477.10	14618.99
477.28	14864.74
477.46	14848.36
477.64	14862.40
477.82	15136.24
478.00	15234.55
478.18	15662.86
478.36	15524.77
478.54	15845.43
478.72	15850.11
478.90	16004.58
479.08	16135.65
479.26	16161.40
479.44	16119.27
479.62	16402.47
479.80	16479.71
479.98	16397.79
480.16	16910.37
480.34	16666.95
480.52	16898.67
480.70	17064.85
480.88	16924.41
481.06	17345.71
481.24	17242.73
481.41	17544.66
481.59	17839.56
481.77	17816.16
481.95	18040.85
482.13	18061.91
482.31	17942.55
482.49	18462.15
482.67	18579.17
482.85	18562.79
483.03	18766.42
483.21	19103.45
483.39	19190.05
483.57	19318.78
483.74	19445.17
483.92	19538.79
484.10	19419.42
484.28	19826.68
484.46	20212.87
484.64	20561.61
484.82	20112.22
485.00	19978.81
485.18	20643.52
485.35	21137.38
485.53	21025.03
485.71	20854.17
485.89	21387.82
486.07	21432.29
486.25	21551.65
486.43	21996.35
486.61	21886.35
486.78	21972.95
486.96	22075.93
487.14	22658.73
487.32	22218.71
487.50	22684.47
487.68	22768.73
487.85	23239.18
488.03	23381.95
488.21	23618.35
488.39	23503.66
488.57	23730.69
488.75	24147.31
488.92	24306.46
489.10	24421.15
489.28	24484.34
489.46	25088.20
489.64	24599.03
489.81	25418.22
489.99	25472.05
490.17	25256.72
490.35	25797.38
490.53	25748.23
490.70	26155.49
490.88	25951.86
491.06	26223.36
491.24	25989.31
491.41	26176.55
491.59	26859.99
491.77	26944.25
491.95	27190.00
492.13	27197.02
492.30	27323.41
492.48	27367.88
492.66	27543.42
492.84	27688.54
493.01	27847.69
493.19	28072.39
493.37	28531.13
493.54	28472.62
493.72	28837.74
493.90	28549.85
494.08	29268.40
494.25	29378.40
494.43	29502.45
494.61	29708.42
494.79	29575.01
494.96	29495.43
495.14	29752.89
495.32	30078.22
495.49	30506.54
495.67	30185.89
495.85	30878.69
496.02	30925.50
496.20	30843.58
496.38	30925.50
496.55	31033.16
496.73	31913.20
496.91	31604.25
497.09	31772.77
497.26	31999.80
497.44	31735.32
497.62	32275.99
497.79	32180.03
497.97	32446.85
498.14	32510.04
498.32	32933.68
498.50	32954.74
498.67	33230.93
498.85	32790.91
499.03	33577.33
499.20	33247.31
499.38	33455.62
499.56	33202.84
499.73	34117.99
499.91	33797.34
500.08	34155.44
500.26	34015.01
500.44	34565.03
500.61	34302.89
500.79	34436.30
500.97	35007.39
501.14	35257.83
501.32	34658.65
501.49	35395.92
501.67	35129.10
501.84	35143.14
502.02	35526.99
502.20	35522.31
502.37	35718.92
502.55	36058.29
502.72	35896.80
502.90	35894.46
503.07	35651.04
503.25	36294.69
503.43	35730.62
503.60	36634.06
503.78	37034.30
503.95	36577.89
504.13	36797.90
504.30	37134.94
504.48	36996.85
504.65	37191.11
504.83	37514.11
505.01	37642.84
505.18	37883.91
505.36	38022.00
505.53	37467.30
505.71	37755.18
505.88	37956.47
506.06	37708.37
506.23	38506.49
506.41	38061.79
506.58	38129.67
506.76	38452.66
506.93	38845.87
507.11	38394.15
507.28	38553.30
507.46	38658.63
507.63	39154.82
507.81	39428.66
507.98	39002.69
508.16	39229.72
508.33	39068.22
508.50	39438.03
508.68	39541.01
508.85	40069.97
509.03	39868.69
509.20	40161.25
509.38	40268.92
509.55	40575.53
509.73	40374.24
509.90	40261.90
510.08	40058.27
510.25	40727.66
510.42	41076.40
510.60	40973.42
510.77	41249.60
510.95	41317.48
511.12	40856.39
511.30	40645.74
511.47	40966.40
511.64	41125.55
511.82	41806.65
511.99	41954.10
512.17	42349.65
512.34	42127.30
512.51	42162.41
512.69	42029.00
512.86	42328.59
513.04	42527.53
513.21	42539.24
513.38	42843.51
513.56	43098.62
513.73	42572.00
513.90	42789.67
514.08	42759.25
514.25	43084.58
514.43	42895.00
514.60	43133.73
514.77	43309.27
514.95	43700.14
515.12	43110.33
515.29	43278.85
515.47	43922.49
515.64	43732.91
515.81	43826.53
515.99	44198.68
516.16	44657.42
516.33	44006.75
516.51	44273.57
516.68	44315.70
516.85	44364.85
517.03	44687.85
517.20	44519.33
517.37	44701.89
517.54	44978.07
517.72	44683.17
517.89	44526.35
518.06	44823.60
518.24	44926.58
518.41	44701.89
518.58	45174.68
518.75	45329.16
518.93	45567.89
519.10	45656.83
519.27	45476.61
519.45	45455.54
519.62	45319.79
519.79	45411.07
519.96	45968.12
520.14	46066.42
520.31	45713.00
520.48	46204.52
520.65	46279.41
520.83	46447.93
521.00	46358.99
521.17	46096.85
521.34	46143.66
521.52	46211.54
521.69	46932.42
521.86	46883.27
522.03	46972.21
522.20	47110.30
522.38	47082.22
522.55	46934.76
522.72	47278.82
522.89	46979.23
523.07	47517.56
523.24	47466.06
523.41	47533.94
523.58	47707.14
523.75	47885.02
523.92	47573.73
524.10	47721.18
524.27	47538.62
524.44	48044.18
524.61	48299.30
524.78	48236.10
524.96	48360.15
525.13	48144.82
525.30	48720.59
525.47	48528.67
525.64	48240.78
525.81	48669.10
525.98	48912.52
526.16	48835.28
526.33	48912.52
526.50	49188.70
526.67	48889.11
526.84	48793.15
527.01	48966.35
527.18	48772.08
527.36	48942.94
527.53	48933.58
527.70	49401.69
527.87	49415.73
528.04	49169.97
528.21	49378.28
528.38	49120.82
528.55	49921.29
528.72	49474.24
528.89	49448.50
529.07	49736.38
529.24	49382.96
529.41	49813.62
529.58	49998.52
529.75	49638.08
529.92	49698.94
530.09	49516.37
530.26	50089.80
530.43	50209.17
530.60	49949.37
530.77	49783.19
530.94	50396.42
531.11	50356.63
531.28	50167.04
531.46	50096.83
531.63	50696.00
531.80	50670.26
531.97	50548.55
532.14	50843.46
532.31	50763.88
532.48	50834.10
532.65	50937.08
532.82	50611.74
532.99	50602.38
533.16	50656.21
533.33	51276.46
533.50	51583.07
533.67	51105.60
533.84	50974.53
534.01	51327.95
534.18	50803.67
534.35	51248.37
534.52	51014.32
534.69	51079.85
534.86	51569.02
535.03	51615.83
535.20	51262.41
535.37	51664.99
535.54	51482.42
535.71	51365.40
535.88	51547.96
536.05	51760.95
536.22	51723.50
536.38	51569.02
536.55	51491.79
536.72	52172.88
536.89	51856.91
537.06	51590.09
537.23	51941.17
537.40	51679.03
537.57	51882.66
537.74	52013.73
537.91	52294.59
538.08	52355.44
538.25	51868.61
538.42	52303.95
538.59	52451.41
538.75	51992.66
538.92	52313.31
539.09	52158.84
539.26	52306.29
539.43	52446.72
539.60	52741.63
539.77	52474.81
539.94	52584.82
540.11	52648.01
540.28	52577.79
540.44	52535.66
540.61	52601.20
540.78	52617.58
540.95	52853.98
541.12	52575.45
541.29	52704.18
541.46	52596.52
541.62	52725.25
541.79	52917.17
541.96	52378.85
542.13	52636.31
542.30	52968.66
542.47	53338.47
542.63	53263.57
542.80	53279.96
542.97	53469.54
543.14	53492.94
543.31	53258.89
543.48	53373.58
543.64	53659.12
543.81	53722.32
543.98	53748.06
544.15	53731.68
544.32	53471.88
544.48	54073.40
544.65	53558.48
544.82	53696.57
544.99	53429.75
545.16	53815.94
545.32	53478.90
545.49	54220.85
545.66	54248.94
545.83	54138.93
546.00	54038.29
546.16	53996.16
546.33	53773.81
546.50	53680.19
546.67	54225.53
546.83	53778.49
547.00	54117.87
547.17	54145.95
547.34	54335.54
547.50	54192.76
547.67	54342.56
547.84	54394.05
548.00	54401.07
548.17	54520.44
548.34	54361.28
548.51	54300.43
548.67	54506.40
548.84	54408.09
549.01	54312.13
549.18	54391.71
549.34	54375.33
549.51	54241.92
549.68	54639.81
549.84	54387.03
550.01	54719.38
550.18	54417.46
550.34	54857.48
550.51	54756.83
550.68	54775.56
550.84	54326.17
551.01	54796.62
551.18	54511.08
551.34	54602.36
551.51	54382.35
551.68	54841.09
551.84	54770.88
552.01	54738.11
552.18	54958.12
552.34	54630.44
552.51	54759.17
552.68	54672.57
552.84	54866.84
553.01	55089.19
553.18	54871.52
553.34	55199.19
553.51	55107.91
553.67	54958.12
553.84	55262.39
554.01	55171.11
554.17	55173.45
554.34	55131.32
554.51	55302.18
554.67	55140.68
554.84	55058.76
555.00	55264.73
555.17	55164.09
555.33	55201.53
555.50	55473.04
555.67	55264.73
555.83	55327.92
556.00	55283.45
556.16	55660.28
556.33	55175.79
556.50	55281.11
556.66	55508.14
556.83	55351.33
556.99	55487.08
557.16	55877.95
557.32	55557.30
557.49	55639.22
557.65	55416.86
557.82	55683.69
557.98	55601.77
558.15	55414.52
558.32	55714.11
558.48	55517.51
558.65	55929.44
558.81	55564.32
558.98	55632.19
559.14	55971.57
559.31	55807.73
559.47	55592.40
559.64	55772.63
559.80	55980.93
559.97	55847.52
560.13	55571.34
560.30	55765.60
560.46	55875.61
560.63	55863.91
560.79	55779.65
560.96	55901.36
561.12	55543.25
561.29	55856.88
561.45	55866.25
561.61	55777.31
561.78	56107.32
561.94	56093.28
562.11	56018.38
562.27	55833.48
562.44	55955.19
562.60	55941.14
562.77	56217.33
562.93	55983.27
563.10	56032.42
563.26	55927.10
563.42	56292.22
563.59	56074.55
563.75	56149.45
563.92	56257.12
564.08	56292.22
564.24	55985.61
564.41	55683.69
564.57	55922.42
564.74	56231.37
564.90	56016.04
565.07	56119.02
565.23	56186.90
565.39	56133.07
565.56	56250.09
565.72	56123.71
565.88	56097.96
566.05	56090.94
566.21	55805.39
566.38	56009.02
566.54	56236.05
566.70	56285.20
566.87	56505.21
567.03	56149.45
567.19	56493.51
567.36	56179.88
567.52	56016.04
567.68	56126.05
567.85	55943.48
568.01	56243.07
568.17	56409.25
568.34	56362.44
568.50	56191.58
568.66	56472.45
568.83	56140.09
568.99	56128.39
569.15	56236.05
569.32	56179.88
569.48	56135.41
569.64	56261.80
569.81	56332.01
569.97	56320.31
570.13	56383.51
570.30	56151.79
570.46	56626.92
570.62	56418.61
570.78	56498.19
570.95	56275.84
571.11	56364.78
571.27	55903.70
571.43	56236.05
571.60	56706.50
571.76	56509.89
571.92	56484.15
572.09	56839.91
572.25	56261.80
572.41	56268.82
572.57	56549.68
572.74	56528.62
572.90	56383.51
573.06	56591.81
573.22	56413.93
573.38	56346.06
573.55	56341.38
573.71	56757.99
573.87	56823.53
574.03	56329.67
574.20	56655.01
574.36	56456.06
574.52	56603.52
574.68	56343.72
574.84	56402.23
575.01	56376.48
575.17	56640.96
575.33	56329.67
575.49	56615.22
575.65	56814.16
575.82	56720.54
575.98	56416.27
576.14	56601.18
576.30	56385.85
576.46	56662.03
576.62	56392.87
576.79	56694.80
576.95	56226.69
577.11	56664.37
577.27	56697.14
577.43	56404.57
577.59	56516.92
577.75	56605.86
577.92	56280.52
578.08	56624.58
578.24	56376.48
578.40	56535.64
578.56	56561.39
578.72	56404.57
578.88	56807.14
579.04	56797.78
579.21	56556.70
579.37	56575.43
579.53	56868.00
579.69	56423.29
579.85	56603.52
580.01	56439.68
580.17	56601.18
580.33	56259.46
580.49	56563.73
580.65	56647.99
580.82	56886.72
580.98	56631.60
581.14	56736.93
581.30	56816.50
581.46	56568.41
581.62	56495.85
581.78	56310.95
581.94	56692.46
582.10	56566.07
582.26	56713.52
582.42	56491.17
582.58	56956.94
582.74	56992.04
582.90	56935.87
583.06	56793.10
583.22	56540.32
583.38	56566.07
583.54	56718.20
583.70	56825.87
583.86	56416.27
584.02	56467.76
584.18	56781.40
584.34	56804.80
584.50	56870.34
584.66	56640.96
584.82	56573.09
584.98	56629.26
585.14	56509.89
585.30	56507.55
585.46	56678.41
585.62	56619.90
585.78	56905.44
585.94	56484.15
586.10	56685.43
586.26	56727.56
586.42	56690.12
586.58	56701.82
586.74	56549.68
586.90	56507.55
587.06	56472.45
587.22	56875.02
587.38	56423.29
587.54	56825.87
587.70	56739.27
587.86	56879.70
588.02	56860.97
588.18	56828.21
588.34	56903.10
588.49	56832.89
588.65	56556.70
588.81	56568.41
588.97	56678.41
589.13	56868.00
589.29	56673.73
589.45	56673.73
589.61	56622.24
589.77	56872.68
589.93	56945.23
590.08	57073.96
590.24	56978.00
590.40	56959.28
590.56	56851.61
590.72	56776.72
590.88	57036.51
591.04	56762.67
591.20	57123.11
591.35	56839.91
591.51	57148.86
591.67	56846.93
591.83	57092.69
591.99	57015.45
592.15	56793.10
592.31	56914.81
592.46	56734.59
592.62	56765.01
592.78	56701.82
592.94	56891.40
593.10	56900.76
593.26	57193.33
593.41	57069.28
593.57	56970.98
593.73	56973.32
593.89	57190.99
594.05	57088.01
594.20	56779.06
594.36	56790.76
594.52	56945.23
594.68	56521.60
594.84	56762.67
594.99	57141.84
595.15	57116.09
595.31	57008.43
595.47	57050.56
595.62	57010.77
595.78	56783.74
595.94	57174.61
596.10	56865.66
596.25	56837.57
596.41	57043.54
596.57	56734.59
596.73	57066.94
596.88	56774.37
597.04	57120.77
597.20	57069.28
597.36	57029.49
597.51	57125.46
597.67	56963.96
597.83	57064.60
597.99	57045.88
598.14	56987.36
598.30	56882.04
598.46	56947.57
598.61	57013.11
598.77	56891.40
598.93	57069.28
599.09	56963.96
599.24	57242.48
599.40	57134.82
599.56	57289.29
599.71	57219.08
599.87	57254.18
600.03	56928.85
600.18	56905.44
600.34	56715.86
600.50	57083.33
600.65	57031.83
600.81	57169.93
600.97	57113.75
601.12	57315.04
601.28	57183.97
601.44	57169.93
601.59	57230.78
601.75	56863.32
601.91	56931.19
602.06	56767.35
602.22	57003.75
602.37	56704.16
602.53	56802.46
602.69	56949.92
602.84	56905.44
603.00	57141.84
603.16	57134.82
603.31	57165.24
603.47	57064.60
603.62	56818.84
603.78	56935.87
603.94	57006.09
604.09	57022.47
604.25	56790.76
604.40	56741.61
604.56	56992.04
604.71	57160.56
604.87	56926.51
605.03	57001.41
605.18	56891.40
605.34	57078.64
605.49	56942.89
605.65	56692.46
605.80	56814.16
605.96	56706.50
606.12	56912.47
606.27	56905.44
606.43	56877.36
606.58	56800.12
606.74	56828.21
606.89	57006.09
607.05	56985.02
607.20	56858.63
607.36	56704.16
607.51	56877.36
607.67	56694.80
607.82	56779.06
607.98	56484.15
608.13	56537.98
608.29	56575.43
608.44	56715.86
608.60	56875.02
608.75	56776.72
608.91	56701.82
609.06	56706.50
609.22	56835.23
609.37	56542.66
609.53	56753.31
609.68	56767.35
609.84	56465.42
609.99	56479.47
610.15	56535.64
610.30	56542.66
610.46	56423.29
610.61	56678.41
610.76	56589.47
610.92	56470.11
611.07	56552.02
611.23	56676.07
611.38	56453.72
611.54	56432.66
611.69	56446.70
611.84	56339.04
612.00	56095.62
612.15	56432.66
612.31	56774.37
612.46	56596.49
612.62	56491.17
612.77	56449.04
612.92	56596.49
613.08	56435.00
613.23	56282.86
613.39	56324.99
613.54	56336.69
613.69	56121.37
613.85	56484.15
614.00	56296.91
614.15	56399.89
614.31	56083.92
614.46	56397.55
614.62	56530.96
614.77	56435.00
614.92	56350.74
615.08	56252.44
615.23	56523.94
615.38	56523.94
615.54	56104.98
615.69	56222.01
615.84	56137.75
616.00	55943.48
616.15	56425.64
616.30	56456.06
616.46	56214.99
616.61	56030.08
616.76	56453.72
616.92	56151.79
617.07	56339.04
617.22	55894.33
617.37	55824.12
617.53	56016.04
617.68	56053.49
617.83	55803.05
617.99	55753.90
618.14	55969.23
618.29	55950.51
618.45	55903.70
618.60	56343.72
618.75	55899.01
618.90	55877.95
619.06	55920.08
619.21	55847.52
619.36	55814.76
619.51	55615.81
619.67	55309.20
619.82	55641.56
619.97	55906.04
620.12	55721.13
620.28	55426.23
620.43	55571.34
620.58	55922.42
620.73	55920.08
620.89	55781.99
621.04	55807.73
621.19	55899.01
621.34	55833.48
621.49	55580.70
621.65	55430.91
621.80	55522.19
621.95	55512.83
622.10	55487.08
622.25	55288.13
622.41	55416.86
622.56	55278.77
622.71	55634.53
622.86	55543.25
623.01	55526.87
623.16	55639.22
623.32	55489.42
623.47	55267.07
623.62	55323.24
623.77	55182.81
623.92	55250.69
624.07	55501.12
624.23	55117.28
624.38	55168.77
624.53	55201.53
624.68	55229.62
624.83	55377.08
624.98	55437.93
625.13	55309.20
625.29	55119.62
625.44	55199.19
625.59	55131.32
625.74	55068.12
625.89	55161.75
626.04	54904.29
626.19	54780.24
626.34	54892.58
626.49	54923.01
626.65	55070.46
626.80	54934.71
626.95	54705.34
627.10	54705.34
627.25	54859.82
627.40	54855.14
627.55	54733.43
627.70	54515.76
627.85	54789.60
628.00	54342.56
628.15	54932.37
628.30	54712.36
628.45	54429.16
628.60	54688.96
628.76	54731.09
628.91	54693.64
629.06	54454.90
629.21	54698.32
629.36	54473.63
629.51	54562.57
629.66	54424.48
629.81	54497.03
629.96	54286.39
630.11	54216.17
630.26	54167.02
630.41	54185.74
630.56	54218.51
630.71	54438.52
630.86	54209.15
631.01	54375.33
631.16	54309.79
631.31	54466.61
631.46	54426.82
631.61	54487.67
631.76	54305.11
631.91	54281.70
632.06	54239.57
632.21	53895.52
632.36	54075.74
632.51	53837.00
632.66	54000.84
632.81	53961.05
632.96	54003.18
633.10	54227.87
633.25	54241.92
633.40	54164.68
633.55	53979.78
633.70	54122.55
633.85	53680.19
634.00	53837.00
634.15	53991.48
634.30	53750.40
634.45	53825.30
634.60	53944.67
634.75	53991.48
634.90	53719.98
635.05	53949.35
635.19	53832.32
635.34	54054.67
635.49	53766.79
635.64	53708.27
635.79	53719.98
635.94	53506.99
636.09	53895.52
636.24	53535.07
636.39	53216.76
636.53	53712.95
636.68	53485.92
636.83	53930.62
636.98	53633.38
637.13	53645.08
637.28	53345.49
637.43	53640.40
637.57	53734.02
637.72	53294.00
637.87	53076.33
638.02	53422.73
638.17	53415.71
638.32	53212.08
638.46	53092.71
638.61	52971.00
638.76	53242.51
638.91	53319.74
639.06	53013.13
639.20	53263.57
639.35	53275.27
639.50	53020.16
639.65	53357.19
639.80	53132.50
639.94	53602.95
640.09	53097.39
640.24	52980.37
640.39	52734.61
640.54	52711.20
640.68	52706.52
640.83	52982.71
640.98	52514.60
641.13	52442.04
641.27	52846.96
641.42	52800.15
641.57	52725.25
641.72	53092.71
641.86	52561.41
642.01	52692.48
642.16	52701.84
642.31	52369.49
642.45	52982.71
642.60	52179.90
642.75	52416.30
642.90	52463.11
643.04	52179.90
643.19	52343.74
643.34	52528.64
643.48	52392.89
643.63	52364.81
643.78	52339.06
643.93	52835.25
644.07	52655.03
644.22	52594.18
644.37	52346.08
644.51	52507.58
644.66	52273.52
644.81	52018.41
644.95	52140.11
645.10	52310.97
645.25	52336.72
645.39	52039.47
645.54	52313.31
645.69	52112.03
645.83	52346.08
645.98	52210.33
646.13	52458.43
646.27	52184.58
646.42	52339.06
646.57	51948.19
646.71	51985.64
646.86	51849.89
647.00	51875.63
647.15	51826.48
647.30	52144.80
647.44	51540.94
647.59	51672.01
647.74	51831.16
647.88	51742.22
648.03	51952.87
648.17	52147.14
648.32	51875.63
648.47	51868.61
648.61	51643.92
648.76	51927.13
648.90	51812.44
649.05	51697.75
649.20	51562.00
649.34	51716.48
649.49	51344.33
649.63	51475.40
649.78	51885.00
649.92	51250.71
650.07	51779.67
650.21	51496.47
650.36	51746.90
650.51	51737.54
650.65	51863.93
650.80	51718.82
650.94	51498.81
651.09	51358.38
651.23	51250.71
651.38	51475.40
651.52	51011.98
651.67	51161.77
651.81	51173.47
651.96	51440.29
652.10	51246.03
652.25	51395.82
652.39	50993.25
652.54	51351.35
652.68	51306.88
652.83	51150.07
652.97	51646.26
653.12	51217.94
653.26	50595.36
653.41	51234.33
653.55	51295.18
653.70	51129.00
653.84	50845.80
653.99	50951.12
654.13	50660.90
654.27	50894.95
654.42	50777.92
654.56	50911.33
654.71	50953.46
654.85	51033.04
655.00	51011.98
655.14	50862.18
655.29	50611.74
655.43	50649.19
655.57	50784.94
655.72	50445.57
655.86	50356.63
656.01	50129.59
656.15	50232.58
656.30	50490.04
656.44	50471.31
656.58	50129.59
656.73	50103.85
656.87	50356.63
657.01	50543.87
657.16	50307.47
657.30	50429.18
657.45	50468.97
657.59	50466.63
657.73	50047.68
657.88	49890.86
658.02	50099.17
658.16	49968.10
658.31	49755.11
658.45	50150.66
658.60	50010.23
658.74	49965.76
658.88	49862.77
659.03	50012.57
659.17	49977.46
659.31	49614.68
659.46	50038.31
659.60	49940.01
659.74	49851.07
659.89	49602.97
660.03	49757.45
660.17	50185.77
660.32	49544.46
660.46	49272.96
660.60	49579.57
660.74	49184.02
660.89	49443.82
661.03	49298.70
661.17	48900.81
661.32	48942.94
661.46	49202.74
661.60	48428.02
661.74	48832.94
661.89	48631.65
662.03	49088.06
662.17	48830.60
662.31	49031.88
662.46	49066.99
662.60	48968.69
662.74	48357.81
662.88	48685.48
663.03	48608.25
663.17	48416.32
663.31	48217.38
663.45	48446.75
663.60	48083.97
663.74	48182.27
663.88	48308.66
664.02	48266.53
664.17	48669.10
664.31	48205.67
664.45	48467.81
664.59	48093.33
664.73	48016.09
664.88	48233.76
665.02	47496.49
665.16	47611.18
665.30	47550.32
665.44	47625.22
665.59	47327.97
665.73	47026.04
665.87	47096.26
666.01	47246.05
666.15	47227.33
666.29	47040.09
666.44	47655.65
666.58	47494.15
666.72	47342.02
666.86	47772.67
667.00	47316.27
667.14	47278.82
667.28	47220.31
667.43	47194.56
667.57	47140.73
667.71	46705.39
667.85	46773.27
667.99	47129.03
668.13	46454.95
668.27	46539.21
668.41	46656.24
668.56	46321.54
668.70	46579.00
668.84	46080.47
668.98	46206.86
669.12	46291.12
669.26	46431.55
669.40	46199.83
669.54	45937.69
669.68	46281.75
669.82	45359.58
669.96	45741.09
670.10	45427.46
670.25	45537.46
670.39	45408.73
670.53	45382.99
670.67	45769.18
670.81	45352.56
670.95	45642.79
671.09	45064.67
671.23	45270.64
671.37	45530.44
671.51	45144.25
671.65	45408.73
671.79	44622.31
671.93	44945.31
672.07	45181.70
672.21	44397.62
672.35	44498.26
672.49	44612.95
672.63	44406.98
672.77	44287.62
672.91	43906.11
673.05	43934.20
673.19	43917.81
673.33	43988.03
673.47	43889.73
673.61	44376.56
673.75	44184.63
673.89	43978.67
674.03	43590.14
674.17	43704.82
674.31	43655.67
674.45	43400.55
674.59	43281.19
674.73	43093.94
674.87	43370.13
675.01	43033.09
675.15	42773.29
675.29	43030.75
675.43	42799.04
675.56	42850.53
675.70	42799.04
675.84	42974.58
675.98	41610.04
676.12	42534.56
676.26	42328.59
676.40	42471.36
676.54	42333.27
676.68	42017.30
676.82	41085.76
676.96	41619.41
677.10	41661.54
677.23	40942.99
677.37	40921.93
677.51	40732.34
677.65	41139.60
677.79	40608.29
677.93	40671.49
678.07	41177.04
678.21	40652.76
678.34	40671.49
678.48	40896.18
678.62	40367.22
678.76	40016.14
678.90	40184.66
679.04	40091.04
679.18	40142.53
679.31	39435.69
679.45	39339.72
679.59	39480.16
679.73	39510.58
679.87	39168.87
680.00	39285.89
680.14	39243.76
680.28	39049.50
680.42	38920.77
680.56	39044.82
680.70	38595.43
680.83	38639.90
680.97	38836.51
681.11	38597.77
681.25	38377.76
681.39	38792.04
681.52	38623.52
681.66	38007.96
681.80	38288.82
681.94	37584.32
682.07	37811.35
682.21	37404.10
682.35	37649.86
682.49	37420.48
682.62	37013.23
682.76	37244.94
682.90	36975.78
683.04	36811.95
683.17	36718.32
683.31	36687.90
683.45	37294.10
683.59	36561.51
683.72	36348.52
683.86	35941.27
684.00	36077.02
684.13	35889.77
684.27	35697.85
684.41	35805.52
684.55	35473.16
684.68	35765.73
684.82	35590.19
684.96	35075.27
685.09	35070.59
685.23	35229.74
685.37	35154.85
685.50	34787.38
685.64	35232.08
685.78	34782.70
685.91	34433.96
686.05	34759.30
686.19	34497.16
686.32	34300.55
686.46	33610.09
686.60	33778.61
686.73	33659.24
686.87	33745.84
687.01	33617.11
687.14	33270.72
687.28	33069.43
687.42	32804.95
687.55	33102.20
687.69	33259.01
687.82	32723.03
687.96	33404.13
688.10	32414.08
688.23	32989.85
688.37	32685.58
688.50	32781.54
688.64	32982.83
688.78	32189.39
688.91	32009.17
689.05	32388.33
689.18	31620.64
689.32	31311.69
689.46	31618.30
689.59	31271.90
689.73	31496.59
689.86	31089.34
690.00	31194.66
690.13	31714.26
690.27	30902.09
690.41	31021.46
690.54	30735.92
690.68	30499.52
690.81	31077.63
690.95	30586.12
691.08	30071.20
691.22	30885.71
691.35	30029.07
691.49	30164.82
691.62	30099.29
691.76	29898.00
691.89	29532.88
692.03	29432.24
692.16	29102.22
692.30	28931.36
692.43	29235.63
692.57	28936.04
692.70	28694.97
692.84	29322.23
692.97	29090.52
693.11	29022.64
693.24	28716.03
693.38	29060.09
693.51	28524.11
693.65	28748.80
693.78	28313.46
693.92	28308.78
694.05	28409.42
694.19	27651.09
694.32	27718.96
694.45	27524.70
694.59	27342.14
694.72	27351.50
694.86	27278.94
694.99	26675.09
695.13	27257.88
695.26	26806.16
695.39	26778.07
695.53	26796.79
695.66	27311.71
695.80	26939.57
695.93	26710.19
696.07	26548.70
696.20	26162.51
696.33	26445.71
696.47	26162.51
696.60	26103.99
696.73	26078.25
696.87	25717.81
697.00	25708.44
697.14	25703.76
697.27	25179.48
697.40	24968.84
697.54	25083.52
697.67	25102.25
697.80	24865.85
697.94	24444.56
698.07	24549.88
698.21	24650.52
698.34	24882.24
698.47	24577.97
698.61	24538.18
698.74	24374.34
698.87	24751.17
699.01	23957.72
699.14	24203.48
699.27	24109.86
699.40	23707.29
699.54	23620.69
699.67	23304.71
699.80	23173.64
699.94	23206.41
700.07	23054.28
700.20	22916.19
700.34	22899.80
700.47	22778.09
700.60	22735.96
700.73	22906.82
700.87	22661.07
701.00	22705.54
701.13	22551.06
701.26	22525.32
701.40	22530.00
701.53	22249.13
701.66	22424.67
701.79	22356.80
701.93	21717.83
702.06	21589.10
702.19	21338.66
702.32	21603.14
702.46	21277.81
702.59	21064.82
702.72	21034.39
702.85	20774.60
702.99	21172.49
703.12	21104.61
703.25	21128.02
703.38	20989.92
703.51	20676.29
703.65	20776.94
703.78	20863.54
703.91	20610.76
704.04	20453.94
704.17	20350.96
704.31	20306.49
704.44	20390.75
704.57	20294.79
704.70	19683.91
704.83	19630.07
704.96	19735.40
705.10	19344.53
705.23	19531.77
>>>>>End Processed Spectral Data<<<<<
