SpectraSuite Data File
++++++++++++++++++++++++++++++++++++
Date: Fri Oct 18 13:55:29 GMT-05:00 2013
User: bianchi
Dark Spectrum Present: No
Reference Spectrum Present: No
Number of Sampled Component Spectra: 1
Spectrometers: USB2+H05261
Integration Time (usec): 100000 (USB2+H05261)
Spectra Averaged: 1 (USB2+H05261)
Boxcar Smoothing: 0 (USB2+H05261)
Correct for Electrical Dark: No (USB2+H05261)
Strobe/Lamp Enabled: No (USB2+H05261)
Correct for Detector Non-linearity: No (USB2+H05261)
Correct for Stray Light: No (USB2+H05261)
Number of Pixels in Processed Spectrum: 2048
>>>>>Begin Processed Spectral Data<<<<<
365.73	0.00
365.92	0.00
366.12	0.00
366.32	0.00
366.52	0.00
366.72	0.00
366.91	0.00
367.11	0.00
367.31	0.00
367.51	0.00
367.70	0.00
367.90	0.00
368.10	0.00
368.30	0.00
368.49	0.00
368.69	0.00
368.89	0.00
369.09	0.00
369.28	0.00
369.48	0.00
369.68	0.00
369.87	0.00
370.07	0.00
370.27	0.00
370.47	84.26
370.66	191.92
370.86	285.55
371.06	355.76
371.25	416.62
371.45	337.04
371.65	337.04
371.84	322.99
372.04	346.40
372.24	369.80
372.44	411.93
372.63	477.47
372.83	404.91
373.03	407.25
373.22	458.74
373.42	454.06
373.62	444.70
373.81	496.19
374.01	512.58
374.21	554.71
374.40	442.36
374.60	491.51
374.79	477.47
374.99	528.96
375.19	575.77
375.38	500.87
375.58	521.94
375.78	550.03
375.97	514.92
376.17	545.34
376.37	496.19
376.56	514.92
376.76	486.83
376.95	557.05
377.15	479.81
377.35	545.34
377.54	564.07
377.74	543.00
377.93	526.62
378.13	557.05
378.33	554.71
378.52	592.16
378.72	568.75
378.91	683.44
379.11	521.94
379.31	608.54
379.50	578.11
379.70	617.90
379.89	540.66
380.09	648.33
380.28	650.67
380.48	517.26
380.68	657.69
380.87	648.33
381.07	681.10
381.26	660.03
381.46	636.63
381.65	706.84
381.85	645.99
382.04	667.05
382.24	716.20
382.43	765.36
382.63	683.44
382.83	748.97
383.02	774.72
383.22	765.36
383.41	718.54
383.61	655.35
383.80	802.80
384.00	744.29
384.19	748.97
384.39	753.65
384.58	692.80
384.78	802.80
384.97	699.82
385.17	823.87
385.36	753.65
385.56	875.36
385.75	744.29
385.95	814.51
386.14	821.53
386.34	851.96
386.53	816.85
386.72	805.14
386.92	863.66
387.11	814.51
387.31	884.72
387.50	875.36
387.70	896.43
387.89	819.19
388.09	781.74
388.28	901.11
388.48	912.81
388.67	917.49
388.86	952.60
389.06	910.47
389.25	800.46
389.45	903.45
389.64	903.45
389.84	987.71
390.03	915.15
390.22	961.96
390.42	957.28
390.61	973.66
390.81	894.08
391.00	1057.92
391.19	1064.94
391.39	1095.37
391.58	1032.18
391.78	1050.90
391.97	1046.22
392.16	1076.65
392.36	1025.15
392.55	1142.18
392.75	1224.10
392.94	1172.61
393.13	1184.31
393.33	1149.20
393.52	1165.59
393.71	1114.10
393.91	1224.10
394.10	1125.80
394.29	1151.54
394.49	1118.78
394.68	1179.63
394.88	1116.44
395.07	1254.53
395.26	1268.57
395.46	1287.29
395.65	1287.29
395.84	1256.87
396.04	1331.76
396.23	1299.00
396.42	1341.13
396.62	1329.42
396.81	1329.42
397.00	1299.00
397.19	1444.11
397.39	1380.92
397.58	1394.96
397.77	1404.32
397.97	1409.00
398.16	1263.89
398.35	1465.18
398.55	1341.13
398.74	1376.24
398.93	1469.86
399.12	1418.36
399.32	1451.13
399.51	1448.79
399.70	1617.31
399.90	1521.35
400.09	1507.30
400.28	1605.61
400.47	1528.37
400.67	1582.20
400.86	1668.80
401.05	1694.55
401.24	1638.38
401.44	1722.63
401.63	1598.59
401.82	1664.12
402.01	1582.20
402.21	1753.06
402.40	1696.89
402.59	1701.57
402.78	1785.83
402.97	1966.05
403.17	1788.17
403.36	1874.77
403.55	1795.19
403.74	1926.26
403.93	1820.94
404.13	1860.73
404.32	1834.98
404.51	1881.79
404.70	2040.95
404.89	1914.56
405.09	1973.07
405.28	2003.50
405.47	1949.67
405.66	2010.52
405.85	2099.46
406.05	2129.89
406.24	2101.80
406.43	2073.71
406.62	2064.35
406.81	2200.10
407.00	2005.84
407.20	2150.95
407.39	2303.09
407.58	2258.62
407.77	2303.09
407.96	2352.24
408.15	2380.32
408.34	2422.45
408.54	2296.07
408.73	2438.84
408.92	2321.81
409.11	2415.43
409.30	2452.88
409.49	2490.33
409.68	2373.30
409.87	2403.73
410.07	2495.01
410.26	2602.68
410.45	2403.73
410.64	2553.52
410.83	2640.12
411.02	2626.08
411.21	2775.88
411.40	2663.53
411.59	2764.17
411.78	2761.83
411.98	2782.90
412.17	2818.00
412.36	2771.19
412.55	2834.39
412.74	2918.65
412.93	2857.79
413.12	2848.43
413.31	3108.23
413.50	3023.97
413.69	3000.57
413.88	3030.99
414.07	3122.27
414.26	3180.79
414.45	3164.40
414.64	3211.22
414.83	3241.64
415.02	3267.39
415.22	3351.65
415.41	3440.59
415.60	3382.07
415.79	3384.41
415.98	3400.80
416.17	3449.95
416.36	3569.32
416.55	3651.24
416.74	3520.17
416.93	3571.66
417.12	3590.38
417.31	3698.05
417.50	3672.30
417.69	3976.57
417.88	3791.67
418.07	3829.12
418.26	3735.50
418.45	3904.01
418.64	3969.55
418.83	3922.74
419.02	4018.70
419.21	3964.87
419.39	4035.08
419.58	3992.95
419.77	3934.44
419.96	4037.42
420.15	4161.47
420.34	4030.40
420.53	4091.26
420.72	4145.09
420.91	4327.65
421.10	4262.12
421.29	4456.38
421.48	4273.82
421.67	4196.58
421.86	4191.90
422.05	4325.31
422.24	4234.03
422.43	4287.86
422.61	4304.25
422.80	4337.01
422.99	4423.61
423.18	4421.27
423.37	4390.84
423.56	4430.63
423.75	4468.08
423.94	4533.62
424.13	4042.11
424.32	4250.41
424.50	4669.37
424.69	4510.21
424.88	4491.49
425.07	4409.57
425.26	4435.32
425.45	4507.87
425.64	4461.06
425.83	4550.00
426.01	4594.47
426.20	4552.34
426.39	4559.36
426.58	4643.62
426.77	4629.58
426.96	4617.88
427.15	4578.09
427.33	4727.88
427.52	4734.90
427.71	4826.18
427.90	4779.37
428.09	4781.71
428.28	4844.91
428.46	4720.86
428.65	4966.62
428.84	5032.15
429.03	4947.89
429.22	4812.14
429.40	4931.51
429.59	5006.41
429.78	4884.70
429.97	4858.95
430.16	4830.87
430.34	5085.98
430.53	5123.43
430.72	5053.22
430.91	4994.70
431.10	5153.86
431.28	5378.55
431.47	5233.44
431.66	5455.79
431.85	5191.31
432.03	5458.13
432.22	5476.85
432.41	5404.30
432.60	5385.57
432.79	5329.40
432.97	5401.96
433.16	5511.96
433.35	5359.83
433.54	5558.77
433.72	5565.79
433.91	5528.35
434.10	5589.20
434.28	5481.53
434.47	5638.35
434.66	5781.12
434.85	5687.50
435.03	5610.26
435.22	5750.70
435.41	5963.68
435.59	5874.74
435.78	5846.66
435.97	5888.79
436.16	5879.43
436.34	5860.70
436.53	5994.11
436.72	6080.71
436.90	5893.47
437.09	6101.78
437.28	5942.62
437.46	5909.85
437.65	6167.31
437.84	6069.01
438.02	6167.31
438.21	6289.02
438.40	6169.65
438.58	6253.91
438.77	6459.88
438.96	6340.51
439.14	6551.16
439.33	6490.31
439.52	6567.54
439.70	6525.41
439.89	6509.03
440.08	6747.76
440.26	6846.07
440.45	6672.87
440.63	6864.79
440.82	6871.81
441.01	6834.36
441.19	6892.88
441.38	7098.84
441.57	7108.21
441.75	7016.93
441.94	7328.22
442.12	7169.06
442.31	7335.24
442.50	7321.20
442.68	7295.45
442.87	7297.79
443.05	7279.07
443.24	7768.24
443.43	7412.48
443.61	7302.47
443.80	7880.58
443.98	7337.58
444.17	7265.02
444.35	7433.54
444.54	7882.92
444.73	7695.68
444.91	7456.95
445.10	7548.23
445.28	7644.19
445.47	7695.68
445.65	7705.04
445.84	7683.98
446.02	7583.34
446.21	7709.72
446.39	7712.07
446.58	7588.02
446.77	7751.85
446.95	7733.13
447.14	7719.09
447.32	7836.11
447.51	7719.09
447.69	7613.76
447.88	7836.11
448.06	7871.22
448.25	7887.61
448.43	7845.48
448.62	7939.10
448.80	7730.79
448.99	8109.96
449.17	8013.99
449.36	7819.73
449.54	8147.40
449.73	8063.15
449.91	8173.15
450.10	8145.06
450.28	8311.24
450.46	8234.00
450.65	8191.88
450.83	8386.14
451.02	8224.64
451.20	8542.96
451.39	8334.65
451.57	8528.91
451.76	8430.61
451.94	8334.65
452.13	8353.37
452.31	8449.33
452.49	8308.90
452.68	8638.92
452.86	8542.96
453.05	8662.32
453.23	8667.00
453.42	8730.20
453.60	8505.51
453.78	8624.87
453.97	8669.34
454.15	8671.68
454.34	8615.51
454.52	8828.50
454.70	8884.67
454.89	8816.80
455.07	8842.54
455.26	8910.42
455.44	8999.36
455.62	9043.83
455.81	9130.43
455.99	8957.23
456.17	9114.05
456.36	9195.96
456.54	9296.61
456.73	9303.63
456.91	9612.58
457.09	9612.58
457.28	9727.27
457.46	9413.63
457.64	9638.33
457.83	9717.90
458.01	9413.63
458.19	9483.85
458.38	9343.42
458.56	9991.75
458.74	9757.69
458.93	9710.88
459.11	9888.76
459.29	9710.88
459.48	9844.29
459.66	9823.23
459.84	9951.96
460.03	10155.58
460.21	10176.65
460.39	10008.13
460.57	10017.49
460.76	10326.44
460.94	10513.69
461.12	10090.05
461.31	10214.10
461.49	10249.21
461.67	10099.41
461.85	10459.85
462.04	10256.23
462.22	10988.82
462.40	10375.59
462.59	10399.00
462.77	10427.09
462.95	10401.34
463.13	10593.26
463.32	10752.42
463.50	10607.31
463.68	10672.84
463.86	10633.05
464.05	10560.50
464.23	10499.64
464.41	10619.01
464.59	10567.52
464.78	11103.50
464.96	10974.77
465.14	10640.08
465.32	10813.28
465.50	10923.28
465.69	11115.20
465.87	10876.47
466.05	10991.16
466.23	11115.20
466.41	11290.74
466.60	11384.37
466.78	11052.01
466.96	11080.10
467.14	11044.99
467.32	11157.33
467.51	11433.52
467.69	11089.46
467.87	11279.04
468.05	11606.72
468.23	11241.59
468.41	11342.24
468.60	11403.09
468.78	11700.34
468.96	11520.12
469.14	11749.49
469.32	11557.57
469.50	11316.49
469.69	11833.75
469.87	11817.36
470.05	11775.24
470.23	11796.30
470.41	11946.09
470.59	12011.63
470.77	11817.36
470.95	11974.18
471.14	12074.82
471.32	12035.03
471.50	12524.21
471.68	12498.46
471.86	12283.13
472.04	12477.40
472.22	12681.02
472.40	12348.67
472.58	12449.31
472.77	12849.54
472.95	12870.61
473.13	13327.01
473.31	12765.28
473.49	12781.67
473.67	12748.90
473.85	13076.57
474.03	13371.48
474.21	13167.85
474.39	13125.72
474.57	13268.50
474.75	13593.83
474.93	13626.60
475.12	13502.55
475.30	13650.00
475.48	13809.16
475.66	13619.58
475.84	13760.01
476.02	13865.33
476.20	14064.28
476.38	14181.31
476.56	14157.90
476.74	14391.95
476.92	14408.34
477.10	14242.16
477.28	14677.50
477.46	14607.28
477.64	14703.25
477.82	14902.19
478.00	15461.58
478.18	15393.70
478.36	15456.90
478.54	15382.00
478.72	15660.52
478.90	15845.43
479.08	15967.13
479.26	16051.39
479.44	16184.80
479.62	16390.77
479.80	16215.23
479.98	16395.45
480.16	16889.31
480.34	16575.67
480.52	16912.71
480.70	16741.85
480.88	16868.24
481.06	16788.66
481.24	17046.12
481.41	17205.28
481.59	17598.49
481.77	17675.73
481.95	17659.34
482.13	18024.47
482.31	18097.02
482.49	18118.09
482.67	18279.58
482.85	18424.70
483.03	18696.20
483.21	18977.06
483.39	19021.53
483.57	18806.20
483.74	19105.79
483.92	19651.14
484.10	19377.30
484.28	19417.08
484.46	19976.47
484.64	20091.16
484.82	20130.95
485.00	20095.84
485.18	20596.71
485.35	20648.21
485.53	20570.97
485.71	20688.00
485.89	21261.43
486.07	21099.93
486.25	21139.72
486.43	21472.07
486.61	21736.56
486.78	21844.22
486.96	22157.85
487.14	22164.87
487.32	22611.92
487.50	22499.57
487.68	22637.66
487.85	22651.70
488.03	23218.11
488.21	23379.61
488.39	23283.65
488.57	23470.89
488.75	23718.99
488.92	24271.36
489.10	24002.19
489.28	24159.01
489.46	24582.65
489.64	24442.21
489.81	25001.60
489.99	24905.64
490.17	25092.88
490.35	25465.03
490.53	25525.88
490.70	25776.32
490.88	25446.30
491.06	25879.30
491.24	26160.17
491.41	26424.65
491.59	26293.58
491.77	26607.21
491.95	26969.99
492.13	27068.30
492.30	27131.49
492.48	27175.96
492.66	27232.13
492.84	27154.90
493.01	27672.15
493.19	27854.72
493.37	28402.40
493.54	28105.15
493.72	28144.94
493.90	28446.87
494.08	28533.47
494.25	28849.44
494.43	29544.58
494.61	29322.23
494.79	29596.07
494.96	29291.80
495.14	29628.84
495.32	29670.97
495.49	29832.47
495.67	30160.14
495.85	30340.36
496.02	30869.33
496.20	30431.65
496.38	30806.13
496.55	30792.09
496.73	31524.68
496.91	31063.59
497.09	31374.88
497.26	31393.61
497.44	31445.10
497.62	31723.62
497.79	31800.86
497.97	31915.54
498.14	32112.15
498.32	32760.48
498.50	32601.32
498.67	32835.38
498.85	32690.26
499.03	33055.39
499.20	32872.82
499.38	33144.33
499.56	33205.18
499.73	33612.43
499.91	33713.08
500.08	33741.16
500.26	33607.75
500.44	33689.67
500.61	34618.86
500.79	33991.60
500.97	34761.64
501.14	34726.53
501.32	34951.22
501.49	34490.13
501.67	34778.02
501.84	34895.05
502.02	35225.06
502.20	35297.62
502.37	35339.75
502.55	35484.86
502.72	35742.32
502.90	35470.82
503.07	35454.44
503.25	35639.34
503.43	35625.29
503.60	36177.66
503.78	36170.64
503.95	36727.69
504.13	36416.40
504.30	36353.20
504.48	36477.25
504.65	36608.32
504.83	36978.12
505.01	37277.71
505.18	37053.02
505.36	37504.74
505.53	37357.29
505.71	37432.19
505.88	37825.40
506.06	37336.23
506.23	37869.87
506.41	37691.99
506.58	38066.47
506.76	38089.88
506.93	38085.20
507.11	37689.65
507.28	38132.01
507.46	38359.04
507.63	38504.15
507.81	38923.11
507.98	38820.13
508.16	38981.62
508.33	38719.48
508.50	38976.94
508.68	39241.42
508.85	39400.58
509.03	39559.73
509.20	39629.95
509.38	39789.11
509.55	40343.81
509.73	39976.35
509.90	39974.01
510.08	40224.45
510.25	39995.07
510.42	40236.15
510.60	40727.66
510.77	40999.16
510.95	40858.73
511.12	40456.16
511.30	40980.44
511.47	40390.62
511.64	41172.36
511.82	41031.93
511.99	41167.68
512.17	41291.73
512.34	41813.67
512.51	41876.86
512.69	41436.84
512.86	42197.52
513.04	42494.77
513.21	41982.19
513.38	42073.47
513.56	42270.08
513.73	42117.94
513.90	42309.86
514.08	41570.25
514.25	42733.50
514.43	42859.89
514.60	43152.46
514.77	43014.37
514.95	43049.47
515.12	42705.41
515.29	42731.16
515.47	43243.74
515.64	43721.21
515.81	43632.27
515.99	43814.83
516.16	43789.08
516.33	43847.60
516.51	43782.06
516.68	43470.77
516.85	43779.72
517.03	44158.89
517.20	44465.50
517.37	44238.47
517.54	44718.28
517.72	43999.73
517.89	44514.65
518.06	44573.16
518.24	44737.00
518.41	44577.84
518.58	44760.40
518.75	44940.63
518.93	45462.57
519.10	44748.70
519.27	44959.35
519.45	45226.17
519.62	45209.79
519.79	45291.71
519.96	45303.41
520.14	45813.65
520.31	44940.63
520.48	45687.26
520.65	46106.21
520.83	45844.07
521.00	46040.68
521.17	45970.46
521.34	46094.51
521.52	46017.27
521.69	46408.14
521.86	46270.05
522.03	46597.73
522.20	47079.88
522.38	46557.94
522.55	46401.12
522.72	47056.47
522.89	46927.74
523.07	47164.14
523.24	47206.26
523.41	47426.28
523.58	47157.11
523.75	47084.56
523.92	47000.30
524.10	47452.02
524.27	47459.04
524.44	47690.76
524.61	47576.07
524.78	47934.17
524.96	47732.89
525.13	48037.16
525.30	47936.51
525.47	48051.20
525.64	47938.85
525.81	48048.86
525.98	48439.73
526.16	48268.87
526.33	48339.08
526.50	48636.33
526.67	48252.48
526.84	48531.01
527.01	48547.39
527.18	48355.47
527.36	48942.94
527.53	48825.92
527.70	48912.52
527.87	49125.50
528.04	48961.67
528.21	48898.47
528.38	48973.37
528.55	49366.58
528.72	49174.66
528.89	49193.38
529.07	49006.14
529.24	49174.66
529.41	49195.72
529.58	49029.54
529.75	49200.40
529.92	49308.07
530.09	49275.30
530.26	49275.30
530.43	49851.07
530.60	49579.57
530.77	49909.58
530.94	49904.90
531.11	49715.32
531.28	49588.93
531.46	49659.15
531.63	50019.59
531.80	50012.57
531.97	50248.96
532.14	50052.36
532.31	50291.09
532.48	50515.78
532.65	50485.36
532.82	50092.15
532.99	50244.28
533.16	50106.19
533.33	50782.60
533.50	50775.58
533.67	50801.33
533.84	50347.26
534.01	50578.98
534.18	50459.61
534.35	50953.46
534.52	50656.21
534.69	51196.88
534.86	50894.95
535.03	51054.11
535.20	51143.05
535.37	51058.79
535.54	51145.39
535.71	50815.37
535.88	51021.34
536.05	51327.95
536.22	51351.35
536.38	51723.50
536.55	51711.80
536.72	51620.52
536.89	51386.46
537.06	51496.47
537.23	51915.42
537.40	51498.81
537.57	51498.81
537.74	51906.06
537.91	51784.35
538.08	51873.29
538.25	51887.34
538.42	51550.30
538.59	52102.67
538.75	51873.29
538.92	51978.62
539.09	52163.52
539.26	51810.10
539.43	52090.96
539.60	52509.92
539.77	52137.77
539.94	52591.84
540.11	52205.65
540.28	52170.54
540.44	52343.74
540.61	52048.83
540.78	52203.31
540.95	52327.36
541.12	52339.06
541.29	52423.32
541.46	52388.21
541.62	52364.81
541.79	52577.79
541.96	52261.82
542.13	52467.79
542.30	52280.55
542.47	53010.79
542.63	52835.25
542.80	53242.51
542.97	53186.33
543.14	53216.76
543.31	53221.44
543.48	52774.40
543.64	53411.02
543.81	53095.05
543.98	53343.15
544.15	53408.68
544.32	53270.59
544.48	53490.60
544.65	53518.69
544.82	53322.08
544.99	53059.94
545.16	53495.28
545.32	53371.24
545.49	53668.48
545.66	53939.99
545.83	53972.75
546.00	53970.41
546.16	53762.11
546.33	53581.88
546.50	53305.70
546.67	53226.12
546.83	53401.66
547.00	53684.87
547.17	53846.36
547.34	53982.12
547.50	54096.80
547.67	54213.83
547.84	54241.92
548.00	53886.15
548.17	53804.24
548.34	54021.90
548.51	54082.76
548.67	54241.92
548.84	54096.80
549.01	54213.83
549.18	54171.70
549.34	54103.82
549.51	54082.76
549.68	54164.68
549.84	54092.12
550.01	54281.70
550.18	54202.13
550.34	54316.81
550.51	54351.92
550.68	54136.59
550.84	54087.44
551.01	54319.15
551.18	54017.22
551.34	54225.53
551.51	54621.08
551.68	54384.69
551.84	54623.42
552.01	54246.60
552.18	54571.93
552.34	54656.19
552.51	54663.21
552.68	54206.81
552.84	54522.78
553.01	54852.80
553.18	54564.91
553.34	55007.27
553.51	54480.65
553.67	54908.97
553.84	55157.06
554.01	55033.02
554.17	54944.08
554.34	54546.18
554.51	54691.30
554.67	55068.12
554.84	54979.18
555.00	54763.85
555.17	54958.12
555.33	55054.08
555.50	54878.54
555.67	55107.91
555.83	55021.31
556.00	54927.69
556.16	55393.46
556.33	54712.36
556.50	54946.42
556.66	55107.91
556.83	55035.36
556.99	55327.92
557.16	55292.82
557.32	55377.08
557.49	55391.12
557.65	55004.93
557.82	55103.23
557.98	55100.89
558.15	55271.75
558.32	55325.58
558.48	55164.09
558.65	55409.84
558.81	55538.57
558.98	55363.03
559.14	55480.06
559.31	55393.46
559.47	55341.97
559.64	55231.96
559.80	55325.58
559.97	55545.59
560.13	55707.09
560.30	55409.84
560.46	55543.25
560.63	55442.61
560.79	55686.03
560.96	55437.93
561.12	55697.73
561.29	55494.10
561.45	55564.32
561.61	55660.28
561.78	55791.35
561.94	56140.09
562.11	55800.71
562.27	55374.73
562.44	55622.83
562.60	55505.80
562.77	55487.08
562.93	55583.04
563.10	55978.59
563.26	55679.00
563.42	55969.23
563.59	55817.10
563.75	55835.82
563.92	55803.05
564.08	55774.97
564.24	55941.14
564.41	55838.16
564.57	55739.86
564.74	55793.69
564.90	55938.80
565.07	55781.99
565.23	56072.21
565.39	56041.79
565.56	55997.32
565.72	55613.47
565.88	56027.74
566.05	55784.33
566.21	55739.86
566.38	55987.95
566.54	55931.78
566.70	56006.68
566.87	56062.85
567.03	55723.47
567.19	56161.15
567.36	56051.15
567.52	55884.97
567.68	56044.13
567.85	55913.06
568.01	56151.79
568.17	56121.37
568.34	55870.93
568.50	56259.46
568.66	56142.43
568.83	55908.38
568.99	55861.57
569.15	56062.85
569.32	55990.30
569.48	55847.52
569.64	55817.10
569.81	56093.28
569.97	55889.65
570.13	56002.00
570.30	55950.51
570.46	56140.09
570.62	56205.62
570.78	56041.79
570.95	55957.53
571.11	56053.49
571.27	55861.57
571.43	55976.25
571.60	55997.32
571.76	55945.83
571.92	56165.84
572.09	56252.44
572.25	56341.38
572.41	56416.27
572.57	55976.25
572.74	56411.59
572.90	55880.29
573.06	56086.26
573.22	56217.33
573.38	56097.96
573.55	56266.48
573.71	56535.64
573.87	56238.39
574.03	56163.50
574.20	56341.38
574.36	56135.41
574.52	56214.99
574.68	56041.79
574.84	55997.32
575.01	56282.86
575.17	56252.44
575.33	56034.77
575.49	56034.77
575.65	56608.20
575.82	56481.81
575.98	56196.26
576.14	56357.76
576.30	56184.56
576.46	56053.49
576.62	56144.77
576.79	56168.18
576.95	56137.75
577.11	56207.97
577.27	56317.97
577.43	56334.35
577.59	56177.54
577.75	56327.33
577.92	56186.90
578.08	56210.31
578.24	56023.06
578.40	56273.50
578.56	56058.17
578.72	56205.62
578.88	56294.56
579.04	56568.41
579.21	56453.72
579.37	56313.29
579.53	56364.78
579.69	56271.16
579.85	56287.54
580.01	56121.37
580.17	56165.84
580.33	56282.86
580.49	56149.45
580.65	56416.27
580.82	56175.20
580.98	56495.85
581.14	56458.40
581.30	56463.08
581.46	56112.00
581.62	56079.24
581.78	56074.55
581.94	56205.62
582.10	56170.52
582.26	56378.82
582.42	56306.27
582.58	56619.90
582.74	56278.18
582.90	56308.61
583.06	56521.60
583.22	56341.38
583.38	56093.28
583.54	56346.06
583.70	56362.44
583.86	56402.23
584.02	55978.59
584.18	56587.13
584.34	56697.14
584.50	56446.70
584.66	56451.38
584.82	56093.28
584.98	56322.65
585.14	56313.29
585.30	56308.61
585.46	56322.65
585.62	56282.86
585.78	56308.61
585.94	56367.12
586.10	56453.72
586.26	56474.79
586.42	56643.30
586.58	56741.61
586.74	56308.61
586.90	56273.50
587.06	56030.08
587.22	56275.84
587.38	56224.35
587.54	56605.86
587.70	56704.16
587.86	56472.45
588.02	56545.00
588.18	56498.19
588.34	56594.15
588.49	56306.27
588.65	56442.02
588.81	56371.80
588.97	56418.61
589.13	56317.97
589.29	56507.55
589.45	56795.44
589.61	56655.01
589.77	56453.72
589.93	56837.57
590.08	56776.72
590.24	56708.84
590.40	56699.48
590.56	56552.02
590.72	56481.81
590.88	56357.76
591.04	56535.64
591.20	56652.67
591.35	56633.94
591.51	56914.81
591.67	56839.91
591.83	56940.55
591.99	56608.20
592.15	56666.71
592.31	56547.34
592.46	56465.42
592.62	56559.05
592.78	56638.62
592.94	56666.71
593.10	56633.94
593.26	56552.02
593.41	56647.99
593.57	56940.55
593.73	56933.53
593.89	56790.76
594.05	56495.85
594.20	56624.58
594.36	56594.15
594.52	56622.24
594.68	56287.54
594.84	56207.97
594.99	56877.36
595.15	56917.15
595.31	57015.45
595.47	56872.68
595.62	56757.99
595.78	56521.60
595.94	56573.09
596.10	56715.86
596.25	56477.13
596.41	56383.51
596.57	56612.88
596.73	56746.29
596.88	56795.44
597.04	56802.46
597.20	56687.78
597.36	56774.37
597.51	56938.21
597.67	56825.87
597.83	56610.54
597.99	57071.62
598.14	56465.42
598.30	56715.86
598.46	56563.73
598.61	56598.83
598.77	56530.96
598.93	56713.52
599.09	56706.50
599.24	56825.87
599.40	56879.70
599.56	56846.93
599.71	56502.87
599.87	56959.28
600.03	56589.47
600.18	56633.94
600.34	56612.88
600.50	56694.80
600.65	56912.47
600.81	56931.19
600.97	56741.61
601.12	57111.41
601.28	56743.95
601.44	56629.26
601.59	56851.61
601.75	56753.31
601.91	56821.19
602.06	56392.87
602.22	56582.45
602.37	56465.42
602.53	56662.03
602.69	56706.50
602.84	56769.69
603.00	56966.30
603.16	56865.66
603.31	56657.35
603.47	56725.22
603.62	56404.57
603.78	56835.23
603.94	56622.24
604.09	56802.46
604.25	56467.76
604.40	56807.14
604.56	56652.67
604.71	56853.95
604.87	56940.55
605.03	56577.77
605.18	56617.56
605.34	56332.01
605.49	56362.44
605.65	56472.45
605.80	56411.59
605.96	56383.51
606.12	56563.73
606.27	56765.01
606.43	56423.29
606.58	56467.76
606.74	56460.74
606.89	56748.63
607.05	56563.73
607.20	56528.62
607.36	56444.36
607.51	56629.26
607.67	56182.22
607.82	56481.81
607.98	56397.55
608.13	56549.68
608.29	56252.44
608.44	56395.21
608.60	56554.36
608.75	56488.83
608.91	56561.39
609.06	56374.14
609.22	56406.91
609.37	56257.12
609.53	56535.64
609.68	56392.87
609.84	56390.53
609.99	56390.53
610.15	56130.73
610.30	56327.33
610.46	56133.07
610.61	56580.11
610.76	56207.97
610.92	56247.75
611.07	56374.14
611.23	56416.27
611.38	56140.09
611.54	56252.44
611.69	55903.70
611.84	55833.48
612.00	55980.93
612.15	56053.49
612.31	56076.90
612.46	56041.79
612.62	56362.44
612.77	55971.57
612.92	56474.79
613.08	56196.26
613.23	56374.14
613.39	56385.85
613.54	55945.83
613.69	55980.93
613.85	55629.85
614.00	55875.61
614.15	56245.41
614.31	56102.64
614.46	56161.15
614.62	56224.35
614.77	56133.07
614.92	56006.68
615.08	55955.19
615.23	56076.90
615.38	56261.80
615.54	56051.15
615.69	55870.93
615.84	55604.11
616.00	55957.53
616.15	55796.03
616.30	56308.61
616.46	55842.84
616.61	55826.46
616.76	56245.41
616.92	55730.50
617.07	55828.80
617.22	55660.28
617.37	55564.32
617.53	55522.19
617.68	55571.34
617.83	55351.33
617.99	55533.89
618.14	55576.02
618.29	55508.14
618.45	55669.64
618.60	55456.65
618.75	55807.73
618.90	55348.99
619.06	55557.30
619.21	55576.02
619.36	55758.58
619.51	55451.97
619.67	55489.42
619.82	55367.71
619.97	55437.93
620.12	55281.11
620.28	55365.37
620.43	55302.18
620.58	55433.25
620.73	55421.55
620.89	55533.89
621.04	55325.58
621.19	55388.78
621.34	55428.57
621.49	54951.10
621.65	55384.10
621.80	55381.76
621.95	55098.55
622.10	55030.68
622.25	55091.53
622.41	55189.83
622.56	55285.79
622.71	55229.62
622.86	55114.94
623.01	55278.77
623.16	55283.45
623.32	55075.15
623.47	54923.01
623.62	55105.57
623.77	55033.02
623.92	55007.27
624.07	55091.53
624.23	54920.67
624.38	54965.14
624.53	54827.05
624.68	55154.72
624.83	55224.94
624.98	54988.55
625.13	54602.36
625.29	54906.63
625.44	54777.90
625.59	54831.73
625.74	54600.02
625.89	54813.01
626.04	54349.58
626.19	54583.63
626.34	54618.74
626.49	54724.07
626.65	54553.21
626.80	54614.06
626.95	54691.30
627.10	54560.23
627.25	54667.89
627.40	54464.27
627.55	54590.66
627.70	54464.27
627.85	54199.79
628.00	54255.96
628.15	54361.28
628.30	54052.33
628.45	54340.22
628.60	54167.02
628.76	54693.64
628.91	54330.86
629.06	54321.49
629.21	54267.66
629.36	54372.99
629.51	54471.29
629.66	54424.48
629.81	53916.58
629.96	54293.41
630.11	53893.18
630.26	54136.59
630.41	53841.68
630.56	53787.85
630.71	54094.46
630.86	54241.92
631.01	53977.43
631.16	54000.84
631.31	54082.76
631.46	53944.67
631.61	54099.14
631.76	54181.06
631.91	53895.52
632.06	53911.90
632.21	53769.13
632.36	53670.82
632.51	53764.45
632.66	53797.21
632.81	53689.55
632.96	53890.83
633.10	53907.22
633.25	54106.16
633.40	53759.76
633.55	53888.49
633.70	53818.28
633.85	53495.28
634.00	53413.37
634.15	53815.94
634.30	53418.05
634.45	53710.61
634.60	53741.04
634.75	53652.10
634.90	53308.04
635.05	53647.42
635.19	53298.68
635.34	53738.70
635.49	53511.67
635.64	53460.18
635.79	53436.77
635.94	53294.00
636.09	53127.82
636.24	53193.36
636.39	53240.17
636.53	53116.12
636.68	53162.93
636.83	53017.82
636.98	53373.58
637.13	53268.25
637.28	53263.57
637.43	53602.95
637.57	53368.90
637.72	53078.67
637.87	53022.50
638.02	53020.16
638.17	53118.46
638.32	52935.90
638.46	52772.06
638.61	52729.93
638.76	52872.70
638.91	52582.48
639.06	52800.15
639.20	52832.91
639.35	52975.69
639.50	53027.18
639.65	53041.22
639.80	53066.97
639.94	52839.93
640.09	52495.88
640.24	52830.57
640.39	52804.83
640.54	52310.97
640.68	52423.32
640.83	52538.01
640.98	52170.54
641.13	52582.48
641.27	52947.60
641.42	52020.75
641.57	52306.29
641.72	52353.10
641.86	52083.94
642.01	52243.10
642.16	52399.91
642.31	52341.40
642.45	52310.97
642.60	52130.75
642.75	52594.18
642.90	51908.40
643.04	52224.37
643.19	52053.51
643.34	52252.46
643.48	52065.22
643.63	52385.87
643.78	52310.97
643.93	52252.46
644.07	52568.43
644.22	52126.07
644.37	52308.63
644.51	52280.55
644.66	52072.24
644.81	52371.83
644.95	51966.91
645.10	51950.53
645.25	51800.74
645.39	51702.43
645.54	51887.34
645.69	51854.57
645.83	51852.23
645.98	51817.12
646.13	52130.75
646.27	51889.68
646.42	51870.95
646.57	51737.54
646.71	51634.56
646.86	51686.05
647.00	51835.84
647.15	51599.45
647.30	51407.53
647.44	51409.87
647.59	51484.76
647.74	51344.33
647.88	51433.27
648.03	51737.54
648.17	51997.34
648.32	51456.68
648.47	51707.12
648.61	51222.62
648.76	51444.98
648.90	51185.18
649.05	51330.29
649.20	51033.04
649.34	51227.31
649.49	51077.51
649.63	51409.87
649.78	51262.41
649.92	51077.51
650.07	51606.47
650.21	51442.63
650.36	51194.54
650.51	51250.71
650.65	51126.66
650.80	51374.76
650.94	51299.86
651.09	51028.36
651.23	51121.98
651.38	51295.18
651.52	51000.27
651.67	50791.97
651.81	51007.29
651.96	50728.77
652.10	51199.22
652.25	51239.01
652.39	50869.20
652.54	50763.88
652.68	51014.32
652.83	50714.73
652.97	51091.55
653.12	50857.50
653.26	50658.56
653.41	50763.88
653.55	50497.06
653.70	50349.60
653.84	50665.58
653.99	50763.88
654.13	50457.27
654.27	50454.93
654.42	50511.10
654.56	50328.54
654.71	50377.69
654.85	50220.87
655.00	50644.51
655.14	50768.56
655.29	50398.76
655.43	50822.39
655.57	50415.14
655.72	50129.59
655.86	50155.34
656.01	50035.97
656.15	49631.06
656.30	49776.17
656.44	50040.65
656.58	50190.45
656.73	49830.01
656.87	49841.71
657.01	49874.48
657.16	50241.94
657.30	49832.35
657.45	50389.39
657.59	50190.45
657.73	49720.00
657.88	49844.05
658.02	49532.76
658.16	49502.33
658.31	49708.30
658.45	49844.05
658.60	49387.64
658.74	49389.98
658.88	49420.41
659.03	49359.56
659.17	49476.58
659.31	49265.94
659.46	49427.43
659.60	49387.64
659.74	49488.29
659.89	49209.76
660.03	49406.37
660.17	49614.68
660.32	48945.28
660.46	49478.92
660.60	49041.24
660.74	48872.73
660.89	48704.21
661.03	48643.35
661.17	48706.55
661.32	48971.03
661.46	48854.00
661.60	48652.72
661.74	48678.46
661.89	48816.55
662.03	49015.50
662.17	48374.19
662.31	48313.34
662.46	48266.53
662.60	48633.99
662.74	48325.04
662.88	48116.73
663.03	47711.82
663.17	48067.58
663.31	47744.59
663.45	47697.78
663.60	47690.76
663.74	47679.05
663.88	48065.24
664.02	48076.94
664.17	48268.87
664.31	47992.68
664.45	47845.23
664.59	48055.88
664.73	47470.75
664.88	47702.46
665.02	47407.55
665.16	47196.90
665.30	46965.19
665.44	46859.87
665.59	46904.34
665.73	46850.50
665.87	46820.08
666.01	47154.77
666.15	46972.21
666.29	47077.54
666.44	47014.34
666.58	46962.85
666.72	46831.78
666.86	47136.05
667.00	46852.84
667.14	46518.15
667.28	46405.80
667.43	46689.01
667.57	46693.69
667.71	46520.49
667.85	46323.88
667.99	46511.13
668.13	46138.98
668.27	46185.79
668.41	46328.56
668.56	45991.53
668.70	45862.80
668.84	46171.75
668.98	45872.16
669.12	45900.25
669.26	45909.61
669.40	45605.34
669.54	45659.17
669.68	45879.18
669.82	45205.11
669.96	45216.81
670.10	45055.31
670.25	44994.46
670.39	44861.05
670.53	45043.61
670.67	45031.91
670.81	44985.10
670.95	45422.78
671.09	44898.50
671.23	44903.18
671.37	44952.33
671.51	44931.26
671.65	44851.69
671.79	44556.78
671.93	44814.24
672.07	44706.57
672.21	44830.62
672.35	43856.96
672.49	43730.57
672.63	44067.61
672.77	43831.21
672.91	43878.02
673.05	43398.21
673.19	43882.70
673.33	43992.71
673.47	43658.01
673.61	43894.41
673.75	43838.23
673.89	43569.07
674.03	43398.21
674.17	43643.97
674.31	43606.52
674.45	43260.12
674.59	43051.81
674.73	43110.33
674.87	42946.49
675.01	42637.54
675.15	42415.19
675.29	42792.01
675.43	42464.34
675.56	43007.34
675.70	42504.13
675.84	42389.44
675.98	41471.95
676.12	42480.72
676.26	42171.77
676.40	41844.10
676.54	41565.57
676.68	41921.34
676.82	40596.59
676.96	41188.75
677.10	41315.14
677.23	41001.50
677.37	40992.14
677.51	40713.62
677.65	40222.11
677.79	40566.16
677.93	40407.01
678.07	40446.80
678.21	40374.24
678.34	40339.13
678.48	40114.44
678.62	40208.06
678.76	40037.20
678.90	39824.22
679.04	39707.19
679.18	39690.80
679.31	39260.15
679.45	39056.52
679.59	38962.90
679.73	39292.91
679.87	38916.09
680.00	38806.08
680.14	38707.78
680.28	39075.24
680.42	38359.04
680.56	38658.63
680.70	38375.42
680.83	38759.27
680.97	38284.14
681.11	38359.04
681.25	38218.61
681.39	38398.83
681.52	38213.93
681.66	37820.72
681.80	37493.04
681.94	37212.18
682.07	37359.63
682.21	36928.97
682.35	36769.82
682.49	37207.50
682.62	36879.82
682.76	36582.57
682.90	36692.58
683.04	36510.02
683.17	36282.98
683.31	36495.97
683.45	36547.47
683.59	36259.58
683.72	35990.42
683.86	36128.51
684.00	35693.17
684.13	35461.46
684.27	35601.89
684.41	35250.81
684.55	34998.03
684.68	35379.54
684.82	35051.86
684.96	34965.26
685.09	34754.61
685.23	34672.70
685.37	34396.51
685.50	34742.91
685.64	34899.73
685.78	34078.20
685.91	34330.98
686.05	34284.17
686.19	34181.18
686.32	34267.78
686.46	33443.91
686.60	33067.09
686.73	33261.35
686.87	33493.07
687.01	32975.81
687.14	32617.71
687.28	32847.08
687.42	32823.67
687.55	32479.61
687.69	32699.62
687.82	32416.42
687.96	32620.05
688.10	32849.42
688.23	32613.02
688.37	32233.86
688.50	32514.72
688.64	32105.13
688.78	31728.30
688.91	31438.08
689.05	31571.49
689.18	31400.63
689.32	31012.10
689.46	31302.32
689.59	31192.32
689.73	31253.17
689.86	30890.39
690.00	30871.67
690.13	30944.22
690.27	30291.21
690.41	30506.54
690.54	30312.28
690.68	30438.67
690.81	30422.28
690.95	30359.09
691.08	30286.53
691.22	30558.03
691.35	29991.62
691.49	29773.95
691.62	29617.14
691.76	29790.34
691.89	29598.41
692.03	29329.25
692.16	29237.97
692.30	28844.76
692.43	28706.67
692.57	28659.86
692.70	29216.91
692.84	28596.67
692.97	28582.62
693.11	28568.58
693.24	28458.57
693.38	28402.40
693.51	28383.68
693.65	28463.25
693.78	28535.81
693.92	28510.07
694.05	27882.80
694.19	27728.33
694.32	27379.59
694.45	27466.19
694.59	27344.48
694.72	26995.74
694.86	26675.09
694.99	26611.89
695.13	26600.19
695.26	26672.74
695.39	26274.85
695.53	26668.06
695.66	26909.14
695.80	26607.21
695.93	26642.32
696.07	26267.83
696.20	26192.94
696.33	25888.67
696.47	25853.56
696.60	26108.68
696.73	25535.24
696.87	25397.15
697.00	24968.84
697.14	24849.47
697.27	24250.29
697.40	24751.17
697.54	24767.55
697.67	24596.69
697.80	24613.07
697.94	24334.55
698.07	24496.05
698.21	24123.90
698.34	24142.63
698.47	24589.67
698.61	24367.32
698.74	24088.79
698.87	24112.20
699.01	23922.62
699.14	23953.04
699.27	23637.07
699.40	23763.46
699.54	23220.45
699.67	23150.24
699.80	23133.86
699.94	23506.00
700.07	23044.91
700.20	22508.93
700.34	22452.76
700.47	22321.69
700.60	22595.53
700.73	22312.33
700.87	22649.36
701.00	22537.02
701.13	22300.62
701.26	22256.15
701.40	22237.43
701.53	21811.45
701.66	22169.55
701.79	21841.88
701.93	21853.58
702.06	21495.48
702.19	21497.82
702.32	21338.66
702.46	20999.29
702.59	20856.51
702.72	20985.24
702.85	21003.97
702.99	20638.84
703.12	20856.51
703.25	20601.40
703.38	20884.60
703.51	20676.29
703.65	20339.26
703.78	20409.47
703.91	20332.23
704.04	20084.14
704.17	20269.04
704.31	19770.51
704.44	19756.46
704.57	19910.94
704.70	19765.82
704.83	19300.06
704.96	19295.38
705.10	19323.46
705.23	19374.95
>>>>>End Processed Spectral Data<<<<<
