SpectraSuite Data File
++++++++++++++++++++++++++++++++++++
Date: Fri Oct 18 13:58:17 GMT-05:00 2013
User: bianchi
Dark Spectrum Present: No
Reference Spectrum Present: No
Number of Sampled Component Spectra: 1
Spectrometers: USB2+H05261
Integration Time (usec): 50000 (USB2+H05261)
Spectra Averaged: 1 (USB2+H05261)
Boxcar Smoothing: 0 (USB2+H05261)
Correct for Electrical Dark: No (USB2+H05261)
Strobe/Lamp Enabled: No (USB2+H05261)
Correct for Detector Non-linearity: No (USB2+H05261)
Correct for Stray Light: No (USB2+H05261)
Number of Pixels in Processed Spectrum: 2048
>>>>>Begin Processed Spectral Data<<<<<
365.73	0.00
365.92	0.00
366.12	0.00
366.32	0.00
366.52	0.00
366.72	0.00
366.91	0.00
367.11	0.00
367.31	0.00
367.51	0.00
367.70	0.00
367.90	0.00
368.10	0.00
368.30	0.00
368.49	0.00
368.69	0.00
368.89	0.00
369.09	0.00
369.28	0.00
369.48	0.00
369.68	0.00
369.87	0.00
370.07	0.00
370.27	0.00
370.47	11.70
370.66	0.00
370.86	161.50
371.06	135.75
371.25	124.05
371.45	191.92
371.65	121.71
371.84	182.56
372.04	79.58
372.24	133.41
372.44	140.43
372.63	180.22
372.83	229.37
373.03	205.97
373.22	224.69
373.42	175.54
373.62	217.67
373.81	215.33
374.01	224.69
374.21	259.80
374.40	194.26
374.60	243.42
374.79	259.80
374.99	259.80
375.19	299.59
375.38	161.50
375.58	208.31
375.78	304.27
375.97	276.18
376.17	245.76
376.37	285.55
376.56	330.02
376.76	243.42
376.95	259.80
377.15	287.89
377.35	315.97
377.54	306.61
377.74	266.82
377.93	308.95
378.13	301.93
378.33	273.84
378.52	290.23
378.72	306.61
378.91	339.38
379.11	278.52
379.31	301.93
379.50	301.93
379.70	308.95
379.89	243.42
380.09	299.59
380.28	311.29
380.48	297.25
380.68	278.52
380.87	283.20
381.07	332.36
381.26	271.50
381.46	360.44
381.65	383.85
381.85	346.40
382.04	255.12
382.24	369.80
382.43	325.33
382.63	341.72
382.83	337.04
383.02	376.83
383.22	451.72
383.41	306.61
383.61	351.08
383.80	360.44
384.00	407.25
384.19	339.38
384.39	444.70
384.58	344.06
384.78	437.68
384.97	388.53
385.17	369.80
385.36	381.51
385.56	330.02
385.75	367.46
385.95	379.17
386.14	386.19
386.34	367.46
386.53	358.10
386.72	341.72
386.92	381.51
387.11	425.98
387.31	407.25
387.50	414.27
387.70	414.27
387.89	374.49
388.09	355.76
388.28	416.62
388.48	472.79
388.67	444.70
388.86	538.32
389.06	468.11
389.25	440.02
389.45	444.70
389.64	524.28
389.84	512.58
390.03	491.51
390.22	416.62
390.42	386.19
390.61	475.13
390.81	531.30
391.00	554.71
391.19	512.58
391.39	550.03
391.58	496.19
391.78	514.92
391.97	524.28
392.16	528.96
392.36	582.79
392.55	437.68
392.75	568.75
392.94	550.03
393.13	498.53
393.33	496.19
393.52	638.97
393.71	580.45
393.91	620.24
394.10	585.13
394.29	601.52
394.49	582.79
394.68	540.66
394.88	550.03
395.07	559.39
395.26	615.56
395.46	692.80
395.65	699.82
395.84	601.52
396.04	667.05
396.23	627.26
396.42	641.31
396.62	561.73
396.81	622.58
397.00	641.31
397.19	727.91
397.39	608.54
397.58	638.97
397.77	599.18
397.97	678.76
398.16	695.14
398.35	706.84
398.55	753.65
398.74	685.78
398.93	727.91
399.12	741.95
399.32	688.12
399.51	641.31
399.70	800.46
399.90	758.33
400.09	779.40
400.28	842.59
400.47	746.63
400.67	819.19
400.86	873.02
401.05	774.72
401.24	828.55
401.44	828.55
401.63	837.91
401.82	814.51
402.01	816.85
402.21	744.29
402.40	866.00
402.59	798.12
402.78	772.38
402.97	805.14
403.17	884.72
403.36	816.85
403.55	833.23
403.74	837.91
403.93	821.53
404.13	889.40
404.32	861.32
404.51	861.32
404.70	875.36
404.89	884.72
405.09	1029.84
405.28	873.02
405.47	933.87
405.66	947.92
405.85	926.85
406.05	929.19
406.24	924.51
406.43	1020.47
406.62	959.62
406.81	1053.24
407.00	1039.20
407.20	994.73
407.39	997.07
407.58	1008.77
407.77	1114.10
407.96	1071.97
408.15	1160.91
408.34	1071.97
408.54	1125.80
408.73	1083.67
408.92	1125.80
409.11	1095.37
409.30	1196.01
409.49	1165.59
409.68	1174.95
409.87	1097.71
410.07	1177.29
410.26	1268.57
410.45	1181.97
410.64	1273.25
410.83	1228.78
411.02	1188.99
411.21	1231.12
411.40	1242.82
411.59	1259.21
411.78	1233.46
411.98	1350.49
412.17	1289.64
412.36	1207.72
412.55	1217.08
412.74	1362.19
412.93	1376.24
413.12	1294.32
413.31	1441.77
413.50	1362.19
413.69	1469.86
413.88	1418.36
414.07	1467.52
414.26	1497.94
414.45	1497.94
414.64	1479.22
414.83	1528.37
415.02	1526.03
415.22	1451.13
415.41	1507.30
415.60	1556.46
415.79	1600.93
415.98	1577.52
416.17	1610.29
416.36	1530.71
416.55	1631.35
416.74	1565.82
416.93	1673.48
417.12	1717.95
417.31	1748.38
417.50	1678.16
417.69	1778.81
417.88	1734.34
418.07	1769.44
418.26	1678.16
418.45	1746.04
418.64	1788.17
418.83	1823.28
419.02	1769.44
419.21	1809.23
419.39	1851.36
419.58	1816.26
419.77	1806.89
419.96	1753.06
420.15	1900.52
420.34	1769.44
420.53	1872.43
420.72	1872.43
420.91	1900.52
421.10	1881.79
421.29	1926.26
421.48	1898.17
421.67	2026.90
421.86	2012.86
422.05	1956.69
422.24	2010.52
422.43	1991.80
422.61	1961.37
422.80	2066.69
422.99	1975.41
423.18	2069.03
423.37	2001.16
423.56	2045.63
423.75	2076.06
423.94	1961.37
424.13	1944.99
424.32	1921.58
424.50	1973.07
424.69	2024.56
424.88	2057.33
425.07	2080.74
425.26	1989.46
425.45	1839.66
425.64	2036.27
425.83	2057.33
426.01	2101.80
426.20	2085.42
426.39	2047.97
426.58	2160.31
426.77	2031.58
426.96	2134.57
427.15	2127.55
427.33	2246.91
427.52	2040.95
427.71	2139.25
427.90	2167.34
428.09	2186.06
428.28	2101.80
428.46	2195.42
428.65	2277.34
428.84	2392.03
429.03	2258.62
429.22	2104.14
429.40	2232.87
429.59	2314.79
429.78	2125.21
429.97	2108.82
430.16	2314.79
430.34	2214.15
430.53	2289.04
430.72	2195.42
430.91	2148.61
431.10	2275.00
431.28	2352.24
431.47	2368.62
431.66	2443.52
431.85	2275.00
432.03	2464.58
432.22	2614.38
432.41	2352.24
432.60	2462.24
432.79	2396.71
432.97	2527.78
433.16	2406.07
433.35	2464.58
433.54	2527.78
433.72	2602.68
433.91	2487.99
434.10	2546.50
434.28	2406.07
434.47	2562.89
434.66	2546.50
434.85	2539.48
435.03	2686.94
435.22	2576.93
435.41	2787.58
435.59	2691.62
435.78	2581.61
435.97	2562.89
436.16	2663.53
436.34	2583.95
436.53	2663.53
436.72	2764.17
436.90	2621.40
437.09	2710.34
437.28	2761.83
437.46	2651.83
437.65	2754.81
437.84	2883.54
438.02	2717.36
438.21	2832.05
438.40	2757.15
438.58	2885.88
438.77	2892.90
438.96	2939.71
439.14	2923.33
439.33	2822.69
439.52	2895.24
439.70	2953.76
439.89	3124.62
440.08	2916.31
440.26	2986.52
440.45	2928.01
440.63	3019.29
440.82	3169.09
441.01	2991.20
441.19	3066.10
441.38	3155.04
441.57	3213.56
441.75	3222.92
441.94	3279.09
442.12	3361.01
442.31	3414.84
442.50	3272.07
442.68	3283.77
442.87	3206.53
443.05	3375.05
443.24	3410.16
443.43	3368.03
443.61	3475.70
443.80	3513.14
443.98	3368.03
444.17	3162.06
444.35	3471.01
444.54	3426.54
444.73	3449.95
444.91	3461.65
445.10	3389.10
445.28	3468.67
445.47	3318.88
445.65	3466.33
445.84	3499.10
446.02	3454.63
446.21	3510.80
446.39	3590.38
446.58	3543.57
446.77	3524.85
446.95	3492.08
447.14	3501.44
447.32	3602.08
447.51	3520.17
447.69	3414.84
447.88	3548.25
448.06	3555.27
448.25	3531.87
448.43	3442.93
448.62	3641.87
448.80	3440.59
448.99	3534.21
449.17	3641.87
449.36	3751.88
449.54	3646.55
449.73	3674.64
449.91	3744.86
450.10	3833.80
450.28	3672.30
450.46	3684.00
450.65	3723.79
450.83	3765.92
451.02	3777.62
451.20	3775.28
451.39	3880.61
451.57	3772.94
451.76	3719.11
451.94	3868.91
452.13	3784.65
452.31	3941.46
452.49	3777.62
452.68	3983.59
452.86	4058.49
453.05	3894.65
453.23	3948.48
453.42	3866.56
453.60	3854.86
453.78	3964.87
453.97	3850.18
454.15	3859.54
454.34	3894.65
454.52	3904.01
454.70	4042.11
454.89	4053.81
455.07	3950.82
455.26	4100.62
455.44	3997.64
455.62	4114.66
455.81	4100.62
455.99	4133.39
456.17	4135.73
456.36	4030.40
456.54	4325.31
456.73	4187.22
456.91	4393.19
457.09	4327.65
457.28	4475.10
457.46	4266.80
457.64	4313.61
457.83	4388.50
458.01	4292.54
458.19	4521.92
458.38	4280.84
458.56	4514.89
458.74	4400.21
458.93	4432.97
459.11	4496.17
459.29	4411.91
459.48	4451.70
459.66	4468.08
459.84	4550.00
460.03	4458.72
460.21	4526.60
460.39	4557.02
460.57	4643.62
460.76	4512.55
460.94	4652.98
461.12	4709.16
461.31	4678.73
461.49	4554.68
461.67	4723.20
461.85	4716.18
462.04	4793.42
462.22	4947.89
462.40	4753.63
462.59	4697.46
462.77	4596.81
462.95	4739.58
463.13	4727.88
463.32	4770.01
463.50	4809.80
463.68	4861.29
463.86	4882.36
464.05	4835.55
464.23	4821.50
464.41	4854.27
464.59	4741.93
464.78	4875.34
464.96	4940.87
465.14	4746.61
465.32	4950.23
465.50	4882.36
465.69	4975.98
465.87	4884.70
466.05	4816.82
466.23	4973.64
466.41	5081.30
466.60	5116.41
466.78	5013.43
466.96	5114.07
467.14	5149.18
467.32	5160.88
467.51	5200.67
467.69	5015.77
467.87	5111.73
468.05	5245.14
468.23	5039.17
468.41	5149.18
468.60	5109.39
468.78	5149.18
468.96	5259.18
469.14	5411.32
469.32	5298.97
469.50	5186.63
469.69	5331.74
469.87	5518.98
470.05	5425.36
470.23	5467.49
470.41	5446.43
470.59	5425.36
470.77	5359.83
470.95	5434.72
471.14	5493.24
471.32	5444.09
471.50	5631.33
471.68	5486.22
471.86	5544.73
472.04	5603.24
472.22	5769.42
472.40	5598.56
472.58	5860.70
472.77	5778.78
472.95	5816.23
473.13	5944.96
473.31	5795.17
473.49	5706.23
473.67	5757.72
473.85	5877.09
474.03	6026.88
474.21	5961.34
474.39	6115.82
474.57	6239.87
474.75	6223.48
474.93	6300.72
475.12	6230.51
475.30	6216.46
475.48	6080.71
475.66	6324.13
475.84	6251.57
476.02	6291.36
476.20	6445.84
476.38	6448.18
476.56	6424.77
476.74	6462.22
476.92	6672.87
477.10	6361.58
477.28	6644.78
477.46	6712.66
477.64	6684.57
477.82	6822.66
478.00	6960.75
478.18	6853.09
478.36	7028.63
478.54	7117.57
478.72	6974.80
478.90	7211.19
479.08	7274.38
479.26	7365.67
479.44	7375.03
479.62	7297.79
479.80	7417.16
479.98	7424.18
480.16	7536.52
480.34	7695.68
480.52	7651.21
480.70	7541.21
480.88	7735.47
481.06	7747.17
481.24	7702.70
481.41	7761.22
481.59	7868.88
481.77	8105.28
481.95	8100.59
482.13	8119.32
482.31	8177.83
482.49	8154.43
482.67	8142.72
482.85	8458.70
483.03	8454.02
483.21	8540.61
483.39	8575.72
483.57	8552.32
483.74	8676.37
483.92	8826.16
484.10	8734.88
484.28	8884.67
484.46	9057.87
484.64	9104.68
484.82	8898.72
485.00	9130.43
485.18	9200.65
485.35	9635.99
485.53	9352.78
485.71	9561.09
485.89	9540.02
486.07	9771.74
486.25	9549.39
486.43	9568.11
486.61	9736.63
486.78	9858.34
486.96	9806.84
487.14	10139.20
487.32	10134.52
487.50	10263.25
487.68	10174.31
487.85	10235.16
488.03	10382.62
488.21	10509.01
488.39	10408.36
488.57	10820.30
488.75	10778.17
488.92	10761.78
489.10	10820.30
489.28	10965.41
489.46	11026.26
489.64	11183.08
489.81	11218.19
489.99	11375.00
490.17	11569.27
490.35	11311.81
490.53	11466.28
490.70	11662.89
490.88	11524.80
491.06	11672.25
491.24	11375.00
491.41	12046.74
491.59	12081.85
491.77	11910.99
491.95	12142.70
492.13	12575.70
492.30	12304.20
492.48	11948.43
492.66	12369.73
492.84	12395.48
493.01	12484.42
493.19	12521.87
493.37	12723.15
493.54	12730.17
493.72	12917.42
493.90	13090.62
494.08	13165.51
494.25	12826.14
494.43	13252.11
494.61	13123.38
494.79	13352.76
494.96	13083.59
495.14	13188.92
495.32	13502.55
495.49	13799.80
495.67	13607.87
495.85	13874.70
496.02	14057.26
496.20	14022.15
496.38	13958.96
496.55	13736.60
496.73	14256.20
496.91	14279.61
497.09	14228.12
497.26	14471.53
497.44	14377.91
497.62	14300.67
497.79	14560.47
497.97	14553.45
498.14	14656.43
498.32	14951.34
498.50	14717.29
498.67	15021.56
498.85	14829.63
499.03	14970.07
499.20	15173.69
499.38	15295.40
499.56	15220.50
499.73	15201.78
499.91	15590.31
500.08	15564.56
500.26	15302.42
500.44	15419.45
500.61	15433.49
500.79	15353.91
500.97	15885.22
501.14	16023.31
501.32	15866.49
501.49	15562.22
501.67	16011.60
501.84	15894.58
502.02	15800.96
502.20	15978.84
502.37	16091.18
502.55	16189.49
502.72	16180.12
502.90	16240.98
503.07	16105.23
503.25	16128.63
503.43	16367.37
503.60	16343.96
503.78	16444.60
503.95	16767.60
504.13	16601.42
504.30	16786.32
504.48	16624.83
504.65	16964.20
504.83	16877.60
505.01	16823.77
505.18	16992.29
505.36	17099.95
505.53	17041.44
505.71	17062.51
505.88	17294.22
506.06	17216.98
506.23	17362.09
506.41	17181.87
506.58	17329.33
506.76	17568.06
506.93	17748.28
507.11	17432.31
507.28	17188.89
507.46	17525.93
507.63	17589.13
507.81	17771.69
507.98	17741.26
508.16	17715.51
508.33	17799.77
508.50	17916.80
508.68	18024.47
508.85	18171.92
509.03	18038.51
509.20	17963.61
509.38	18272.56
509.55	18525.34
509.73	18333.42
509.90	18675.13
510.08	18394.27
510.25	18314.69
510.42	18340.44
510.60	18682.16
510.77	18438.74
510.95	18806.20
511.12	18740.67
511.30	18551.09
511.47	18843.65
511.64	18948.98
511.82	18937.27
511.99	18892.80
512.17	19286.01
512.34	19133.88
512.51	18988.77
512.69	19222.82
512.86	19117.50
513.04	19278.99
513.21	19536.45
513.38	19545.81
513.56	19440.49
513.73	19405.38
513.90	19690.93
514.08	19796.25
514.25	19655.82
514.43	19903.92
514.60	19847.74
514.77	19721.35
514.95	19737.74
515.12	19651.14
515.29	19398.36
515.47	19967.11
515.64	20009.24
515.81	20063.07
515.99	20074.77
516.16	20613.10
516.33	20161.37
516.51	20336.91
516.68	20348.62
516.85	20196.48
517.03	20428.20
517.20	20526.50
517.37	20208.19
517.54	20395.43
517.72	20418.83
517.89	20835.45
518.06	20727.78
518.24	20695.02
518.41	20753.53
518.58	21158.44
518.75	20643.52
518.93	21020.35
519.10	21109.29
519.27	20856.51
519.45	20718.42
519.62	20938.43
519.79	21177.17
519.96	21144.40
520.14	21174.83
520.31	21277.81
520.48	21132.70
520.65	21436.97
520.83	21654.64
521.00	21472.07
521.17	21355.05
521.34	21521.23
521.52	21610.17
521.69	21741.24
521.86	21830.18
522.03	21696.77
522.20	22148.49
522.38	21816.13
522.55	21764.64
522.72	22122.74
522.89	22235.09
523.07	22038.48
523.24	21664.00
523.41	22342.75
523.58	21766.98
523.75	22441.06
523.92	21879.33
524.10	22036.14
524.27	22281.90
524.44	22342.75
524.61	22448.08
524.78	22499.57
524.96	22649.36
525.13	22553.40
525.30	22691.49
525.47	22677.45
525.64	22628.30
525.81	22501.91
525.98	22735.96
526.16	22792.14
526.33	23145.56
526.50	23260.24
526.67	22808.52
526.84	22986.40
527.01	23002.78
527.18	22920.87
527.36	22970.02
527.53	23419.40
527.70	23384.29
527.87	23328.12
528.04	23250.88
528.21	23157.26
528.38	23328.12
528.55	23351.52
528.72	23166.62
528.89	23756.44
529.07	23288.33
529.24	23096.41
529.41	23768.14
529.58	23653.45
529.75	23438.12
529.92	23503.66
530.09	23768.14
530.26	23697.92
530.43	23646.43
530.60	23754.10
530.77	23709.63
530.94	23697.92
531.11	23843.04
531.28	23721.33
531.46	23948.36
531.63	24121.56
531.80	24161.35
531.97	24334.55
532.14	24051.34
532.31	23868.78
532.48	24137.94
532.65	24056.03
532.82	24191.78
532.99	24453.92
533.16	24053.69
533.33	24261.99
533.50	24615.41
533.67	24652.86
533.84	24098.16
534.01	24151.99
534.18	24355.61
534.35	24821.38
534.52	24517.11
534.69	24498.39
534.86	24819.04
535.03	24570.94
535.20	24849.47
535.37	24896.28
535.54	24863.51
535.71	24900.96
535.88	24907.98
536.05	24594.35
536.22	25202.89
536.38	25099.90
536.55	25090.54
536.72	25195.87
536.89	24987.56
537.06	25324.60
537.23	25324.60
537.40	25113.95
537.57	25593.76
537.74	25027.35
537.91	25202.89
538.08	25427.58
538.25	25266.08
538.42	25109.27
538.59	25434.60
538.75	25369.07
538.92	25345.66
539.09	25605.46
539.26	25458.01
539.43	25092.88
539.60	25577.37
539.77	25394.81
539.94	25282.47
540.11	25781.00
540.28	25645.25
540.44	25736.53
540.61	25429.92
540.78	25422.90
540.95	25858.24
541.12	25916.75
541.29	25661.63
541.46	25818.45
541.62	25743.55
541.79	25841.85
541.96	25565.67
542.13	25963.56
542.30	25729.51
542.47	26232.72
542.63	26284.22
542.80	26307.62
542.97	26419.97
543.14	26513.59
543.31	25909.73
543.48	26225.70
543.64	26452.73
543.81	26548.70
543.98	26625.93
544.15	26349.75
544.32	26799.13
544.48	26717.22
544.65	26686.79
544.82	26618.91
544.99	26600.19
545.16	26852.97
545.32	26438.69
545.49	27211.07
545.66	26895.10
545.83	26658.70
546.00	27199.37
546.16	27234.47
546.33	26675.09
546.50	26490.18
546.67	27000.42
546.83	26169.53
547.00	27208.73
547.17	26759.34
547.34	26661.04
547.50	27356.18
547.67	27508.32
547.84	27253.20
548.00	27206.39
548.17	27061.27
548.34	27452.14
548.51	27412.35
548.67	27658.11
548.84	27173.62
549.01	27536.40
549.18	27498.95
549.34	27316.39
549.51	27173.62
549.68	27377.25
549.84	27367.88
550.01	27557.47
550.18	27182.98
550.34	27770.46
550.51	27508.32
550.68	27718.96
550.84	27470.87
551.01	27929.61
551.18	27740.03
551.34	27861.74
551.51	27496.61
551.68	27644.07
551.84	27777.48
552.01	27821.95
552.18	27772.80
552.34	27761.09
552.51	28037.28
552.68	27901.53
552.84	28030.26
553.01	27459.16
553.18	27838.33
553.34	27772.80
553.51	28304.10
553.67	27868.76
553.84	28503.04
554.01	28254.95
554.17	27765.78
554.34	27887.48
554.51	28020.89
554.67	28369.63
554.84	28051.32
555.00	28369.63
555.17	28353.25
555.33	28112.17
555.50	28048.98
555.67	27971.74
555.83	28379.00
556.00	28198.77
556.16	28467.94
556.33	28123.88
556.50	28030.26
556.66	28371.97
556.83	28453.89
556.99	28758.16
557.16	28872.85
557.32	28587.30
557.49	28367.29
557.65	28236.22
557.82	28519.43
557.98	28346.23
558.15	28180.05
558.32	28746.46
558.48	28526.45
558.65	28526.45
558.81	28774.55
558.98	28636.45
559.14	28872.85
559.31	28573.26
559.47	28313.46
559.64	28692.63
559.80	28926.68
559.97	28676.24
560.13	28737.10
560.30	28882.21
560.46	28975.83
560.63	29125.63
560.79	29010.94
560.96	28844.76
561.12	28968.81
561.29	28697.31
561.45	29036.69
561.61	28985.19
561.78	28755.82
561.94	28723.05
562.11	29125.63
562.27	29041.37
562.44	29010.94
562.60	29097.54
562.77	29071.79
562.93	29017.96
563.10	28964.13
563.26	29326.91
563.42	29134.99
563.59	29106.90
563.75	29303.51
563.92	29404.15
564.08	28800.29
564.24	29268.40
564.41	29563.31
564.57	28554.54
564.74	29256.70
564.90	29275.42
565.07	29228.61
565.23	29156.05
565.39	29123.29
565.56	29163.08
565.72	29092.86
565.88	29319.89
566.05	29205.20
566.21	29142.01
566.38	28940.72
566.54	29635.86
566.70	29113.92
566.87	29443.94
567.03	29200.52
567.19	29500.11
567.36	29310.53
567.52	29134.99
567.68	29436.92
567.85	29247.33
568.01	29715.44
568.17	29153.71
568.34	29432.24
568.50	29326.91
568.66	29546.92
568.83	29830.13
568.99	29359.68
569.15	29738.85
569.32	29233.29
569.48	29207.55
569.64	29443.94
569.81	29256.70
569.97	29401.81
570.13	29633.52
570.30	29509.47
570.46	30012.69
570.62	29340.96
570.78	29516.50
570.95	29745.87
571.11	29535.22
571.27	29362.02
571.43	29675.65
571.60	29933.11
571.76	29717.78
571.92	29476.71
572.09	29476.71
572.25	29598.41
572.41	29640.54
572.57	29680.33
572.74	29610.12
572.90	29539.90
573.06	29404.15
573.22	29483.73
573.38	29776.30
573.55	29788.00
573.71	30010.35
573.87	29888.64
574.03	29818.42
574.20	29488.41
574.36	29294.14
574.52	29750.55
574.68	29467.34
574.84	29717.78
575.01	29766.93
575.17	29881.62
575.33	29755.23
575.49	29963.54
575.65	29741.19
575.82	29858.21
575.98	29813.74
576.14	29895.66
576.30	30059.50
576.46	29617.14
576.62	29626.50
576.79	29986.94
576.95	29490.75
577.11	29902.68
577.27	30054.82
577.43	29961.20
577.59	29764.59
577.75	29687.36
577.92	29659.27
578.08	29930.77
578.24	29605.44
578.40	29881.62
578.56	29769.27
578.72	29851.19
578.88	29881.62
579.04	30298.23
579.21	29893.32
579.37	29935.45
579.53	30092.27
579.69	29713.10
579.85	29600.76
580.01	29905.02
580.17	29708.42
580.33	29638.20
580.49	30169.51
580.65	30221.00
580.82	30335.68
580.98	30080.56
581.14	29743.53
581.30	30286.53
581.46	29450.96
581.62	29624.16
581.78	29961.20
581.94	29951.84
582.10	29656.93
582.26	29874.60
582.42	30518.25
582.58	30008.01
582.74	29961.20
582.90	30321.64
583.06	30096.95
583.22	30010.35
583.38	29874.60
583.54	29912.05
583.70	30204.61
583.86	29972.90
584.02	29965.88
584.18	30466.75
584.34	30122.69
584.50	30448.03
584.66	30085.25
584.82	29668.63
584.98	29935.45
585.14	29851.19
585.30	29783.32
585.46	29944.81
585.62	30050.14
585.78	29876.94
585.94	29935.45
586.10	30211.64
586.26	29986.94
586.42	30115.67
586.58	30162.48
586.74	29809.06
586.90	29968.22
587.06	30064.18
587.22	29996.31
587.38	30029.07
587.54	30204.61
587.70	29881.62
587.86	30010.35
588.02	30228.02
588.18	30302.92
588.34	30361.43
588.49	30457.39
588.65	29872.26
588.81	30110.99
588.97	30064.18
589.13	29865.24
589.29	30122.69
589.45	30536.97
589.61	30574.42
589.77	30590.80
589.93	30382.49
590.08	30347.39
590.24	30558.03
590.40	30410.58
590.56	30342.70
590.72	29937.79
590.88	30192.91
591.04	29986.94
591.20	30272.49
591.35	30546.33
591.51	30473.78
591.67	30403.56
591.83	30462.07
591.99	30476.12
592.15	30387.18
592.31	30331.00
592.46	30265.47
592.62	30307.60
592.78	30038.44
592.94	30274.83
593.10	30312.28
593.26	30340.36
593.41	30651.66
593.57	30279.51
593.73	30368.45
593.89	30785.07
594.05	30225.68
594.20	30637.61
594.36	30267.81
594.52	30394.20
594.68	30206.95
594.84	30139.08
594.99	30548.67
595.15	30661.02
595.31	30623.57
595.47	30520.59
595.62	30637.61
595.78	30426.96
595.94	30314.62
596.10	30672.72
596.25	30398.88
596.41	30572.08
596.57	30267.81
596.73	30574.42
596.88	30300.58
597.04	30672.72
597.20	30871.67
597.36	30583.78
597.51	30756.98
597.67	30457.39
597.83	31058.91
597.99	30429.30
598.14	30785.07
598.30	30497.18
598.46	30614.21
598.61	30726.55
598.77	30602.50
598.93	30810.81
599.09	30719.53
599.24	30785.07
599.40	30845.92
599.56	30925.50
599.71	30885.71
599.87	30689.10
600.03	30579.10
600.18	30487.82
600.34	30459.73
600.50	30773.36
600.65	30698.47
600.81	31000.40
600.97	30934.86
601.12	31054.23
601.28	30824.86
601.44	30506.54
601.59	30874.01
601.75	30749.96
601.91	30518.25
602.06	31082.31
602.22	30153.12
602.37	30244.40
602.53	30677.40
602.69	30981.67
602.84	30749.96
603.00	30635.27
603.16	30668.04
603.31	30974.65
603.47	30661.02
603.62	30651.66
603.78	30604.84
603.94	30431.65
604.09	30576.76
604.25	30551.01
604.40	30689.10
604.56	30721.87
604.71	30611.87
604.87	30501.86
605.03	31105.72
605.18	30735.92
605.34	30565.06
605.49	30345.05
605.65	30546.33
605.80	30225.68
605.96	30244.40
606.12	30206.95
606.27	30586.12
606.43	30312.28
606.58	30595.48
606.74	30501.86
606.89	30785.07
607.05	30298.23
607.20	31189.98
607.36	30850.60
607.51	30785.07
607.67	30579.10
607.82	30782.73
607.98	30345.05
608.13	30742.94
608.29	30249.08
608.44	30209.29
608.60	30377.81
608.75	30665.70
608.91	30478.46
609.06	30792.09
609.22	30501.86
609.37	30164.82
609.53	30799.11
609.68	30569.74
609.84	30525.27
609.99	30462.07
610.15	29663.95
610.30	29916.73
610.46	30253.76
610.61	30525.27
610.76	30019.71
610.92	30113.33
611.07	30483.14
611.23	30331.00
611.38	30239.72
611.54	30391.86
611.69	30031.41
611.84	29734.17
612.00	30125.04
612.15	29914.39
612.31	30288.87
612.46	30560.37
612.62	30375.47
612.77	30534.63
612.92	30368.45
613.08	29954.18
613.23	30185.89
613.39	30202.27
613.54	29668.63
613.69	30347.39
613.85	29820.77
614.00	30333.34
614.15	30293.55
614.31	30307.60
614.46	30171.85
614.62	29769.27
614.77	30349.73
614.92	30349.73
615.08	29977.58
615.23	29926.09
615.38	30129.72
615.54	29706.08
615.69	29694.38
615.84	29708.42
616.00	29633.52
616.15	29724.80
616.30	30024.39
616.46	29582.03
616.61	30176.53
616.76	30136.74
616.92	29530.54
617.07	29685.01
617.22	29802.04
617.37	29673.31
617.53	30085.25
617.68	29816.08
617.83	29572.67
617.99	29535.22
618.14	29530.54
618.29	29944.81
618.45	29647.57
618.60	29645.23
618.75	29617.14
618.90	29738.85
619.06	29998.65
619.21	29429.90
619.36	29757.57
619.51	29394.79
619.67	29387.77
619.82	29202.86
619.97	29362.02
620.12	29579.69
620.28	29113.92
620.43	29364.36
620.58	29523.52
620.73	29685.01
620.89	29640.54
621.04	29832.47
621.19	29790.34
621.34	29518.84
621.49	29439.26
621.65	28783.91
621.80	29338.62
621.95	29043.71
622.10	29376.06
622.25	29209.89
622.41	28835.40
622.56	29261.38
622.71	29303.51
622.86	29205.20
623.01	29202.86
623.16	29179.46
623.32	29074.13
623.47	29163.08
623.62	29034.35
623.77	28999.24
623.92	29132.65
624.07	29172.44
624.23	29383.09
624.38	28999.24
624.53	29130.31
624.68	29188.82
624.83	29277.76
624.98	29252.02
625.13	28982.85
625.29	28929.02
625.44	28741.78
625.59	29062.43
625.74	28709.01
625.89	29024.98
626.04	28599.01
626.19	28666.88
626.34	28725.39
626.49	29022.64
626.65	28456.23
626.80	28737.10
626.95	28381.34
627.10	28795.61
627.25	28772.21
627.40	28329.84
627.55	28833.06
627.70	28914.98
627.85	28416.44
628.00	28318.14
628.15	28837.74
628.30	28357.93
628.45	28503.04
628.60	28320.48
628.76	28549.85
628.91	28343.89
629.06	28236.22
629.21	28465.60
629.36	28580.28
629.51	28126.22
629.66	28336.87
629.81	28306.44
629.96	28308.78
630.11	28119.20
630.26	28379.00
630.41	28006.85
630.56	28149.62
630.71	28540.49
630.86	28093.45
631.01	28048.98
631.16	28175.37
631.31	28133.24
631.46	28135.58
631.61	28673.90
631.76	28395.38
631.91	28210.48
632.06	28144.94
632.21	27988.13
632.36	28238.56
632.51	27751.73
632.66	28364.95
632.81	28149.62
632.96	28379.00
633.10	27838.33
633.25	28102.81
633.40	28236.22
633.55	28252.61
633.70	27513.00
633.85	27740.03
634.00	27608.96
634.15	28072.39
634.30	27623.00
634.45	27857.06
634.60	27262.56
634.75	27892.16
634.90	27826.63
635.05	27983.44
635.19	27913.23
635.34	28009.19
635.49	27796.20
635.64	27580.87
635.79	27718.96
635.94	28009.19
636.09	27538.74
636.24	27721.30
636.39	27283.62
636.53	27501.29
636.68	27498.95
636.83	27356.18
636.98	27520.02
637.13	27742.37
637.28	27548.11
637.43	27854.72
637.57	27749.39
637.72	27580.87
637.87	27463.85
638.02	27337.46
638.17	26895.10
638.32	27314.05
638.46	27215.75
638.61	26969.99
638.76	27356.18
638.91	26960.63
639.06	27077.66
639.20	27051.91
639.35	27379.59
639.50	27494.27
639.65	27304.69
639.80	27028.51
639.94	26941.91
640.09	27461.51
640.24	27190.00
640.39	27044.89
640.54	27115.11
640.68	26609.55
640.83	27138.51
640.98	27260.22
641.13	26728.92
641.27	27126.81
641.42	26932.54
641.57	27344.48
641.72	27028.51
641.86	27084.68
642.01	27047.23
642.16	26909.14
642.31	26855.31
642.45	26733.60
642.60	26824.88
642.75	26560.40
642.90	26780.41
643.04	26572.10
643.19	26492.52
643.34	26656.36
643.48	26780.41
643.63	27035.53
643.78	27016.80
643.93	26721.90
644.07	26845.94
644.22	27072.98
644.37	26742.96
644.51	26899.78
644.66	26562.74
644.81	26536.99
644.95	26394.22
645.10	26742.96
645.25	26761.69
645.39	26654.02
645.54	26441.03
645.69	26548.70
645.83	26714.87
645.98	26340.39
646.13	26356.77
646.27	26902.12
646.42	26726.58
646.57	26551.04
646.71	26534.65
646.86	26391.88
647.00	26754.66
647.15	26237.41
647.30	26352.09
647.44	26253.79
647.59	26417.63
647.74	26181.23
647.88	26211.66
648.03	26382.52
648.17	26455.08
648.32	26457.42
648.47	26501.89
648.61	26017.40
648.76	26389.54
648.90	26586.15
649.05	26277.19
649.20	25944.84
649.34	25972.92
649.49	26214.00
649.63	26029.10
649.78	26225.70
649.92	26082.93
650.07	26164.85
650.21	25905.05
650.36	25989.31
650.51	26199.96
650.65	25991.65
650.80	25947.18
650.94	26230.38
651.09	25912.07
651.23	26010.37
651.38	25713.13
651.52	25631.21
651.67	25940.16
651.81	25916.75
651.96	25951.86
652.10	25727.17
652.25	25958.88
652.39	25968.24
652.54	25853.56
652.68	25764.62
652.83	25783.34
652.97	26050.16
653.12	26251.45
653.26	25851.22
653.41	25928.45
653.55	26211.66
653.70	25511.84
653.84	25570.35
653.99	25689.72
654.13	25682.70
654.27	25336.30
654.42	25493.12
654.56	25645.25
654.71	25610.14
654.85	25715.47
655.00	25455.67
655.14	25972.92
655.29	25628.87
655.43	25560.99
655.57	25308.21
655.72	25621.84
655.86	25366.73
656.01	25270.76
656.15	25174.80
656.30	25537.59
656.44	25036.71
656.58	25132.67
656.73	25436.94
656.87	25357.36
657.01	25273.10
657.16	25401.83
657.30	25481.41
657.45	25493.12
657.59	25645.25
657.73	25228.63
657.88	25163.10
658.02	25092.88
658.16	25254.38
658.31	25427.58
658.45	24978.20
658.60	24889.26
658.74	25001.60
658.88	25085.86
659.03	24655.20
659.17	24737.12
659.31	25223.95
659.46	24966.49
659.60	24950.11
659.74	24966.49
659.89	24725.42
660.03	24636.48
660.17	24959.47
660.32	24652.86
660.46	24507.75
660.60	24308.80
660.74	24334.55
660.89	24968.84
661.03	24353.27
661.17	24505.41
661.32	24599.03
661.46	24669.25
661.60	24610.73
661.74	24559.24
661.89	24236.25
662.03	24606.05
662.17	24484.34
662.31	24245.61
662.46	24388.38
662.60	24128.58
662.74	24226.89
662.88	24280.72
663.03	24177.73
663.17	23889.85
663.31	23999.85
663.45	23779.84
663.60	23978.79
663.74	23871.12
663.88	24046.66
664.02	23520.04
664.17	24123.90
664.31	23910.91
664.45	24027.94
664.59	23950.70
664.73	24144.97
664.88	23786.86
665.02	23215.77
665.16	23599.62
665.30	23576.22
665.44	23562.17
665.59	23381.95
665.73	23543.45
665.87	23377.27
666.01	23470.89
666.15	23885.17
666.29	23307.05
666.44	23321.10
666.58	23166.62
666.72	23372.59
666.86	23173.64
667.00	23440.47
667.14	23234.50
667.28	23241.52
667.43	23201.73
667.57	23140.88
667.71	23293.01
667.85	23101.09
667.99	22948.95
668.13	22860.01
668.27	22927.89
668.41	22972.36
668.56	22977.04
668.70	22869.37
668.84	22963.00
668.98	23009.81
669.12	22775.75
669.26	23054.28
669.40	22890.44
669.54	22597.87
669.68	23171.30
669.82	22588.51
669.96	22630.64
670.10	22427.01
670.25	22202.32
670.39	22270.20
670.53	22389.56
670.67	22405.95
670.81	22286.58
670.95	22335.73
671.09	22345.09
671.23	22209.34
671.37	22270.20
671.51	22422.33
671.65	22483.19
671.79	22232.75
671.93	22036.14
672.07	22164.87
672.21	21799.75
672.35	21944.86
672.49	21600.80
672.63	21855.92
672.77	22157.85
672.91	22031.46
673.05	21575.06
673.19	21605.49
673.33	21919.12
673.47	21392.50
673.61	21495.48
673.75	21734.21
673.89	21673.36
674.03	21565.70
674.17	21469.73
674.31	21717.83
674.45	21357.39
674.59	21345.69
674.73	21247.38
674.87	21198.23
675.01	21275.47
675.15	20968.86
675.29	21071.84
675.43	20903.32
675.56	20870.56
675.70	21081.21
675.84	21090.57
675.98	20741.83
676.12	21099.93
676.26	20898.64
676.40	20891.62
676.54	20695.02
676.68	20940.77
676.82	20404.79
676.96	20540.54
677.10	20439.90
677.23	20390.75
677.37	20318.19
677.51	20510.11
677.65	20355.64
677.79	20084.14
677.93	20119.24
678.07	20166.06
678.21	19981.15
678.34	19960.09
678.48	19630.07
678.62	19648.80
678.76	19740.08
678.90	19473.26
679.04	19438.15
679.18	19864.13
679.31	18904.51
679.45	19232.18
679.59	19215.80
679.73	19105.79
679.87	19274.31
680.00	19304.74
680.14	18855.36
680.28	19271.97
680.42	18916.21
680.56	19300.06
680.70	19161.97
680.83	18717.26
680.97	19035.58
681.11	19075.37
681.25	18944.30
681.39	18843.65
681.52	18691.52
681.66	18532.36
681.80	18532.36
681.94	18600.24
682.07	18590.88
682.21	18200.01
682.35	18216.39
682.49	18022.12
682.62	18221.07
682.76	18176.60
682.90	18190.64
683.04	17862.97
683.17	18106.38
683.31	18270.22
683.45	17713.17
683.59	17921.48
683.72	17750.62
683.86	17954.25
684.00	17895.74
684.13	17893.40
684.27	17874.67
684.41	17343.37
684.55	17362.09
684.68	17392.52
684.82	17425.29
684.96	17158.47
685.09	17102.29
685.23	16947.82
685.37	17205.28
685.50	17319.96
685.64	17055.48
685.78	17209.96
685.91	17331.67
686.05	16957.18
686.19	17142.08
686.32	16952.50
686.46	16484.39
686.60	16840.15
686.73	16814.41
686.87	16517.16
687.01	16727.81
687.14	16641.21
687.28	16287.79
687.42	16255.02
687.55	16198.85
687.69	16407.16
687.82	16313.53
687.96	16271.40
688.10	15868.83
688.23	15887.56
688.37	16519.50
688.50	15948.41
688.64	16231.62
688.78	16009.26
688.91	15819.68
689.05	15772.87
689.18	15536.48
689.32	15456.90
689.46	15290.72
689.59	15569.24
689.73	15414.77
689.86	15470.94
690.00	15335.19
690.13	15257.95
690.27	15190.08
690.41	15492.01
690.54	15304.76
690.68	15311.78
690.81	14885.81
690.95	15194.76
691.08	15171.35
691.22	14918.57
691.35	15147.95
691.49	15225.18
691.62	14672.82
691.76	14581.54
691.89	14843.68
692.03	14408.34
692.16	14413.02
692.30	14319.40
692.43	14434.08
692.57	14265.57
692.70	14307.69
692.84	14401.32
692.97	14005.77
693.11	14038.53
693.24	14059.60
693.38	14291.31
693.51	14017.47
693.65	13774.05
693.78	13853.63
693.92	13902.78
694.05	13783.41
694.19	13865.33
694.32	13692.13
694.45	13659.37
694.59	13202.96
694.72	13476.80
694.86	13256.79
694.99	13104.66
695.13	13291.90
695.26	13460.42
695.39	13256.79
695.53	13128.06
695.66	13261.48
695.80	13378.50
695.93	13020.40
696.07	13420.63
696.20	13263.82
696.33	12947.84
696.47	12994.65
696.60	12992.31
696.73	12889.33
696.87	12755.92
697.00	12477.40
697.14	12369.73
697.27	12453.99
697.40	12463.35
697.54	12168.45
697.67	12163.76
697.80	12248.02
697.94	12362.71
698.07	12177.81
698.21	11997.59
698.34	12147.38
698.47	12339.30
698.61	12168.45
698.74	12163.76
698.87	12074.82
699.01	11894.60
699.14	11927.37
699.27	11681.61
699.40	11974.18
699.54	11569.27
699.67	11616.08
699.80	11506.07
699.94	11611.40
700.07	11431.18
700.20	11265.00
700.34	11342.24
700.47	11225.21
700.60	11360.96
700.73	11253.30
700.87	11349.26
701.00	10977.11
701.13	11290.74
701.26	11150.31
701.40	11143.29
701.53	11108.18
701.66	11194.78
701.79	11087.12
701.93	10995.84
702.06	10871.79
702.19	10729.02
702.32	10684.55
702.46	10562.84
702.59	10359.21
702.72	10492.62
702.85	10345.17
702.99	10480.92
703.12	10473.90
703.25	10448.15
703.38	10352.19
703.51	10487.94
703.65	10530.07
703.78	10141.54
703.91	10183.67
704.04	10092.39
704.17	10342.83
704.31	10141.54
704.44	10083.03
704.57	10092.39
704.70	10008.13
704.83	9790.46
704.96	9771.74
705.10	9891.10
705.23	9668.75
>>>>>End Processed Spectral Data<<<<<
