SpectraSuite Data File
++++++++++++++++++++++++++++++++++++
Date: Fri Oct 18 13:58:24 GMT-05:00 2013
User: bianchi
Dark Spectrum Present: No
Reference Spectrum Present: No
Number of Sampled Component Spectra: 1
Spectrometers: USB2+H05261
Integration Time (usec): 50000 (USB2+H05261)
Spectra Averaged: 1 (USB2+H05261)
Boxcar Smoothing: 0 (USB2+H05261)
Correct for Electrical Dark: No (USB2+H05261)
Strobe/Lamp Enabled: No (USB2+H05261)
Correct for Detector Non-linearity: No (USB2+H05261)
Correct for Stray Light: No (USB2+H05261)
Number of Pixels in Processed Spectrum: 2048
>>>>>Begin Processed Spectral Data<<<<<
365.73	0.00
365.92	0.00
366.12	0.00
366.32	0.00
366.52	0.00
366.72	0.00
366.91	0.00
367.11	0.00
367.31	0.00
367.51	0.00
367.70	0.00
367.90	0.00
368.10	0.00
368.30	0.00
368.49	0.00
368.69	0.00
368.89	0.00
369.09	0.00
369.28	0.00
369.48	0.00
369.68	0.00
369.87	0.00
370.07	0.00
370.27	0.00
370.47	0.00
370.66	100.64
370.86	147.45
371.06	79.58
371.25	168.52
371.45	88.94
371.65	170.86
371.84	194.26
372.04	133.41
372.24	194.26
372.44	86.60
372.63	259.80
372.83	138.09
373.03	215.33
373.22	126.39
373.42	194.26
373.62	173.20
373.81	278.52
374.01	208.31
374.21	224.69
374.40	212.99
374.60	215.33
374.79	294.91
374.99	227.03
375.19	208.31
375.38	231.71
375.58	166.18
375.78	236.39
375.97	201.29
376.17	315.97
376.37	245.76
376.56	224.69
376.76	271.50
376.95	245.76
377.15	306.61
377.35	262.14
377.54	243.42
377.74	287.89
377.93	327.68
378.13	273.84
378.33	325.33
378.52	238.73
378.72	264.48
378.91	142.77
379.11	234.05
379.31	278.52
379.50	283.20
379.70	346.40
379.89	243.42
380.09	358.10
380.28	262.14
380.48	266.82
380.68	292.57
380.87	325.33
381.07	276.18
381.26	280.86
381.46	276.18
381.65	304.27
381.85	299.59
382.04	285.55
382.24	301.93
382.43	290.23
382.63	376.83
382.83	290.23
383.02	372.15
383.22	421.30
383.41	299.59
383.61	292.57
383.80	362.78
384.00	414.27
384.19	292.57
384.39	351.08
384.58	344.06
384.78	353.42
384.97	379.17
385.17	388.53
385.36	407.25
385.56	409.59
385.75	395.55
385.95	393.21
386.14	423.64
386.34	414.27
386.53	409.59
386.72	390.87
386.92	442.36
387.11	374.49
387.31	327.68
387.50	400.23
387.70	362.78
387.89	376.83
388.09	395.55
388.28	388.53
388.48	369.80
388.67	407.25
388.86	440.02
389.06	489.17
389.25	493.85
389.45	367.46
389.64	461.09
389.84	447.04
390.03	482.15
390.22	484.49
390.42	477.47
390.61	454.06
390.81	496.19
391.00	496.19
391.19	524.28
391.39	503.22
391.58	442.36
391.78	615.56
391.97	512.58
392.16	543.00
392.36	629.60
392.55	615.56
392.75	627.26
392.94	540.66
393.13	538.32
393.33	479.81
393.52	510.24
393.71	493.85
393.91	571.09
394.10	547.69
394.29	578.11
394.49	580.45
394.68	634.29
394.88	580.45
395.07	575.77
395.26	606.20
395.46	645.99
395.65	650.67
395.84	634.29
396.04	681.10
396.23	657.69
396.42	627.26
396.62	592.16
396.81	636.63
397.00	554.71
397.19	685.78
397.39	620.24
397.58	699.82
397.77	720.88
397.97	685.78
398.16	706.84
398.35	690.46
398.55	741.95
398.74	650.67
398.93	711.52
399.12	688.12
399.32	734.93
399.51	720.88
399.70	760.67
399.90	760.67
400.09	688.12
400.28	690.46
400.47	685.78
400.67	791.10
400.86	753.65
401.05	784.08
401.24	741.95
401.44	856.64
401.63	866.00
401.82	826.21
402.01	819.19
402.21	786.42
402.40	851.96
402.59	788.76
402.78	908.13
402.97	779.40
403.17	812.17
403.36	830.89
403.55	971.32
403.74	889.40
403.93	854.30
404.13	901.11
404.32	908.13
404.51	919.83
404.70	933.87
404.89	833.23
405.09	922.17
405.28	987.71
405.47	1050.90
405.66	915.15
405.85	971.32
406.05	971.32
406.24	1020.47
406.43	917.49
406.62	968.98
406.81	987.71
407.00	978.34
407.20	957.28
407.39	1050.90
407.58	1043.88
407.77	1057.92
407.96	1060.26
408.15	1039.20
408.34	1060.26
408.54	1060.26
408.73	1128.14
408.92	1111.75
409.11	1121.12
409.30	1125.80
409.49	1116.44
409.68	1088.35
409.87	1207.72
410.07	1186.65
410.26	1128.14
410.45	1179.63
410.64	1214.74
410.83	1090.69
411.02	1142.18
411.21	1207.72
411.40	1167.93
411.59	1270.91
411.78	1308.36
411.98	1214.74
412.17	1291.98
412.36	1294.32
412.55	1313.04
412.74	1322.40
412.93	1336.45
413.12	1551.78
413.31	1371.55
413.50	1306.02
413.69	1341.13
413.88	1441.77
414.07	1490.92
414.26	1432.41
414.45	1432.41
414.64	1387.94
414.83	1385.60
415.02	1528.37
415.22	1526.03
415.41	1579.86
415.60	1544.75
415.79	1577.52
415.98	1631.35
416.17	1664.12
416.36	1617.31
416.55	1619.65
416.74	1727.32
416.93	1638.38
417.12	1614.97
417.31	1659.44
417.50	1650.08
417.69	1685.19
417.88	1732.00
418.07	1839.66
418.26	1837.32
418.45	1764.76
418.64	1753.06
418.83	1760.08
419.02	1685.19
419.21	1717.95
419.39	1736.68
419.58	1767.10
419.77	1832.64
419.96	1806.89
420.15	1809.23
420.34	1865.41
420.53	1696.89
420.72	1914.56
420.91	1907.54
421.10	1888.81
421.29	1963.71
421.48	1942.64
421.67	1952.01
421.86	2017.54
422.05	2024.56
422.24	1980.09
422.43	1909.88
422.61	2005.84
422.80	2033.93
422.99	2003.50
423.18	1937.96
423.37	1954.35
423.56	2038.61
423.75	1987.11
423.94	2015.20
424.13	1863.07
424.32	1937.96
424.50	2076.06
424.69	2047.97
424.88	2092.44
425.07	2029.24
425.26	1952.01
425.45	1998.82
425.64	2071.37
425.83	2026.90
426.01	2139.25
426.20	2129.89
426.39	2069.03
426.58	1977.75
426.77	1982.43
426.96	1994.14
427.15	2024.56
427.33	2090.10
427.52	2129.89
427.71	2101.80
427.90	2223.51
428.09	2127.55
428.28	2153.29
428.46	2200.10
428.65	2120.53
428.84	2204.78
429.03	2305.43
429.22	2111.16
429.40	2094.78
429.59	2169.68
429.78	2120.53
429.97	2181.38
430.16	2181.38
430.34	2157.97
430.53	2265.64
430.72	2300.75
430.91	2289.04
431.10	2225.85
431.28	2312.45
431.47	2345.22
431.66	2394.37
431.85	2277.34
432.03	2422.45
432.22	2385.01
432.41	2387.35
432.60	2506.71
432.79	2312.45
432.97	2396.71
433.16	2593.31
433.35	2553.52
433.54	2464.58
433.72	2555.86
433.91	2518.42
434.10	2424.80
434.28	2441.18
434.47	2630.76
434.66	2574.59
434.85	2546.50
435.03	2565.23
435.22	2574.59
435.41	2693.96
435.59	2478.63
435.78	2738.43
435.97	2537.14
436.16	2583.95
436.34	2513.74
436.53	2668.21
436.72	2794.60
436.90	2689.28
437.09	2689.28
437.28	2623.74
437.46	2750.13
437.65	2724.38
437.84	2754.81
438.02	2883.54
438.21	2719.70
438.40	2672.89
438.58	2773.53
438.77	2967.80
438.96	2867.16
439.14	2965.46
439.33	2925.67
439.52	2937.37
439.70	2878.86
439.89	2974.82
440.08	2965.46
440.26	3000.57
440.45	3096.53
440.63	3056.74
440.82	3098.87
441.01	3042.70
441.19	3112.91
441.38	3211.22
441.57	3122.27
441.75	3323.56
441.94	3260.37
442.12	3159.72
442.31	3283.77
442.50	3246.32
442.68	3335.26
442.87	3178.45
443.05	3276.75
443.24	3492.08
443.43	3368.03
443.61	3349.31
443.80	3419.52
443.98	3307.18
444.17	3295.47
444.35	3405.48
444.54	3492.08
444.73	3412.50
444.91	3438.25
445.10	3316.54
445.28	3349.31
445.47	3311.86
445.65	3361.01
445.84	3508.46
446.02	3421.86
446.21	3520.17
446.39	3384.41
446.58	3522.51
446.77	3463.99
446.95	3428.88
447.14	3405.48
447.32	3407.82
447.51	3473.36
447.69	3517.83
447.88	3496.76
448.06	3513.14
448.25	3569.32
448.43	3459.31
448.62	3571.66
448.80	3480.38
448.99	3585.70
449.17	3545.91
449.36	3541.23
449.54	3616.13
449.73	3761.24
449.91	3768.26
450.10	3590.38
450.28	3756.56
450.46	3660.60
450.65	3679.32
450.83	3786.99
451.02	3798.69
451.20	3735.50
451.39	3885.29
451.57	3698.05
451.76	3852.52
451.94	3667.62
452.13	3894.65
452.31	3915.72
452.49	3712.09
452.68	3871.25
452.86	3756.56
453.05	3817.41
453.23	3882.95
453.42	3854.86
453.60	3871.25
453.78	3974.23
453.97	3925.08
454.15	3941.46
454.34	3892.31
454.52	3943.80
454.70	3861.88
454.89	3995.29
455.07	3992.95
455.26	3967.21
455.44	3953.16
455.62	3957.85
455.81	4067.85
455.99	4053.81
456.17	4037.42
456.36	4042.11
456.54	4152.11
456.73	4128.70
456.91	4351.06
457.09	4255.09
457.28	4273.82
457.46	4259.78
457.64	4299.56
457.83	4362.76
458.01	4322.97
458.19	4332.33
458.38	4442.34
458.56	4461.06
458.74	4355.74
458.93	4294.88
459.11	4442.34
459.29	4409.57
459.48	4491.49
459.66	4400.21
459.84	4454.04
460.03	4622.56
460.21	4538.30
460.39	4540.64
460.57	4491.49
460.76	4627.24
460.94	4622.56
461.12	4557.02
461.31	4465.74
461.49	4596.81
461.67	4587.45
461.85	4638.94
462.04	4676.39
462.22	4643.62
462.40	4713.84
462.59	4695.11
462.77	4617.88
462.95	4636.60
463.13	4650.64
463.32	4865.97
463.50	4851.93
463.68	4657.67
463.86	4795.76
464.05	4791.08
464.23	4781.71
464.41	5034.49
464.59	4734.90
464.78	4835.55
464.96	4819.16
465.14	4784.06
465.32	4975.98
465.50	4898.74
465.69	5018.11
465.87	4861.29
466.05	5022.79
466.23	4973.64
466.41	5041.51
466.60	5210.03
466.78	5027.47
466.96	4851.93
467.14	4821.50
467.32	4959.60
467.51	5043.85
467.69	4933.85
467.87	4926.83
468.05	5301.31
468.23	4922.15
468.41	5034.49
468.60	5107.05
468.78	5231.10
468.96	5146.84
469.14	5284.93
469.32	5195.99
469.50	5071.94
469.69	5207.69
469.87	5399.62
470.05	5245.14
470.23	5345.78
470.41	5385.57
470.59	5518.98
470.77	5376.21
470.95	5476.85
471.14	5570.48
471.32	5385.57
471.50	5518.98
471.68	5645.37
471.86	5462.81
472.04	5507.28
472.22	5844.32
472.40	5640.69
472.58	5558.77
472.77	5607.92
472.95	5687.50
473.13	5856.02
473.31	5783.46
473.49	5860.70
473.67	5781.12
473.85	6026.88
474.03	5994.11
474.21	5827.93
474.39	5926.24
474.57	5949.64
474.75	6113.48
474.93	6141.57
475.12	6125.18
475.30	6113.48
475.48	6202.42
475.66	6230.51
475.84	6345.19
476.02	6300.72
476.20	6321.79
476.38	6244.55
476.56	6434.13
476.74	6464.56
476.92	6333.49
477.10	6539.46
477.28	6537.12
477.46	6579.25
477.64	6813.30
477.82	6729.04
478.00	6993.52
478.18	6846.07
478.36	6876.49
478.54	7040.33
478.72	7047.35
478.90	7007.56
479.08	7262.68
479.26	7302.47
479.44	7269.70
479.62	7253.32
479.80	7145.66
479.98	7342.26
480.16	7428.86
480.34	7494.40
480.52	7606.74
480.70	7534.18
480.88	7571.63
481.06	7726.11
481.24	7602.06
481.41	7705.04
481.59	8042.08
481.77	7978.89
481.95	7854.84
482.13	8098.25
482.31	8088.89
482.49	8222.30
482.67	8236.35
482.85	8301.88
483.03	8273.79
483.21	8367.42
483.39	8526.57
483.57	8573.38
483.74	8568.70
483.92	8645.94
484.10	8800.41
484.28	8915.10
484.46	8830.84
484.64	9013.40
484.82	8802.75
485.00	8952.55
485.18	9195.96
485.35	9240.44
485.53	9210.01
485.71	9481.51
485.89	9607.90
486.07	9432.36
486.25	9490.87
486.43	9591.52
486.61	9738.97
486.78	9919.19
486.96	9933.23
487.14	10167.29
487.32	10043.24
487.50	10106.43
487.68	10125.16
487.85	10101.75
488.03	10328.78
488.21	10361.55
488.39	10555.82
488.57	10609.65
488.75	10684.55
488.92	10862.43
489.10	10813.28
489.28	10766.46
489.46	10822.64
489.64	10953.71
489.81	11178.40
489.99	11119.89
490.17	11321.17
490.35	11410.11
490.53	11524.80
490.70	11573.95
490.88	11508.41
491.06	11770.55
491.24	11702.68
491.41	11639.48
491.59	11946.09
491.77	11915.67
491.95	11903.96
492.13	12226.96
492.30	12180.15
492.48	12149.72
492.66	12257.39
492.84	12262.07
493.01	12315.90
493.19	12416.54
493.37	12552.29
493.54	12732.51
493.72	12463.35
493.90	12709.11
494.08	13034.44
494.25	13004.02
494.43	12915.08
494.61	13231.05
494.79	13172.54
494.96	13151.47
495.14	13158.49
495.32	13415.95
495.49	13455.74
495.67	13502.55
495.85	13657.03
496.02	13757.67
496.20	13741.29
496.38	13820.86
496.55	13881.72
496.73	14242.16
496.91	13991.72
497.09	13984.70
497.26	14167.26
497.44	14300.67
497.62	14174.28
497.79	14590.90
497.97	14396.64
498.14	14368.55
498.32	14569.83
498.50	14810.91
498.67	14714.95
498.85	14829.63
499.03	15044.96
499.20	14778.14
499.38	14909.21
499.56	15473.28
499.73	15220.50
499.91	15367.96
500.08	15136.24
500.26	15534.14
500.44	15236.89
500.61	15281.36
500.79	15414.77
500.97	15564.56
501.14	15623.08
501.32	15702.65
501.49	15524.77
501.67	15693.29
501.84	15564.56
502.02	15463.92
502.20	15772.87
502.37	16184.80
502.55	16201.19
502.72	16273.74
502.90	16070.12
503.07	16095.86
503.25	16070.12
503.43	15974.16
503.60	16526.52
503.78	16372.05
503.95	16100.55
504.13	16540.57
504.30	16531.20
504.48	16358.00
504.65	16746.53
504.83	16563.97
505.01	16809.73
505.18	16767.60
505.36	17064.85
505.53	16961.86
505.71	16802.71
505.88	17130.38
506.06	16826.11
506.23	17015.69
506.41	17331.67
506.58	17013.35
506.76	17135.06
506.93	17254.43
507.11	17308.26
507.28	17434.65
507.46	17331.67
507.63	17577.42
507.81	17682.75
507.98	17273.15
508.16	17764.67
508.33	17692.11
508.50	17582.10
508.68	17767.01
508.85	17982.34
509.03	18017.44
509.20	18043.19
509.38	18054.89
509.55	18281.92
509.73	18246.82
509.90	18129.79
510.08	17998.72
510.25	18321.71
510.42	18375.55
510.60	18490.23
510.77	18487.89
510.95	18675.13
511.12	18427.04
511.30	18553.43
511.47	18853.02
511.64	18717.26
511.82	18778.12
511.99	18726.63
512.17	18831.95
512.34	18867.06
512.51	19080.05
512.69	19346.87
512.86	19129.20
513.04	19253.25
513.21	19269.63
513.38	19122.18
513.56	19391.34
513.73	19080.05
513.90	19185.37
514.08	19269.63
514.25	19611.35
514.43	19793.91
514.60	19751.78
514.77	19531.77
514.95	19466.24
515.12	19573.90
515.29	19903.92
515.47	19751.78
515.64	20006.90
515.81	19915.62
515.99	19913.28
516.16	20393.09
516.33	20173.08
516.51	20318.19
516.68	20042.01
516.85	20133.29
517.03	20222.23
517.20	20315.85
517.37	20137.97
517.54	19974.13
517.72	20524.16
517.89	20482.03
518.06	20210.53
518.24	20760.55
518.41	20627.14
518.58	20599.05
518.75	20463.30
518.93	21036.74
519.10	20776.94
519.27	20943.11
519.45	21116.31
519.62	20741.83
519.79	20767.57
519.96	20812.04
520.14	21186.53
520.31	20975.88
520.48	20875.24
520.65	20886.94
520.83	21238.02
521.00	21179.51
521.17	21249.72
521.34	21411.22
521.52	21263.77
521.69	21518.89
521.86	21570.38
522.03	21359.73
522.20	21624.21
522.38	21273.13
522.55	21546.97
522.72	21678.04
522.89	21598.46
523.07	21626.55
523.24	21825.50
523.41	21912.10
523.58	21855.92
523.75	21851.24
523.92	22015.08
524.10	21851.24
524.27	22380.20
524.44	22366.16
524.61	22237.43
524.78	22054.87
524.96	22417.65
525.13	22223.39
525.30	22249.13
525.47	22405.95
525.64	22441.06
525.81	22462.12
525.98	22611.92
526.16	22843.63
526.33	22405.95
526.50	22530.00
526.67	22616.60
526.84	22546.38
527.01	22724.26
527.18	22817.88
527.36	22616.60
527.53	23002.78
527.70	22867.03
527.87	23140.88
528.04	22944.27
528.21	23166.62
528.38	23358.55
528.55	22934.91
528.72	23250.88
528.89	23138.54
529.07	23405.36
529.24	23337.48
529.41	23449.83
529.58	23105.77
529.75	23407.70
529.92	23281.31
530.09	23208.75
530.26	23435.78
530.43	23578.56
530.60	23637.07
530.77	23506.00
530.94	23470.89
531.11	23133.86
531.28	23620.69
531.46	23662.82
531.63	24034.96
531.80	23807.93
531.97	23859.42
532.14	24051.34
532.31	23859.42
532.48	23917.93
532.65	24130.92
532.82	23627.71
532.99	23662.82
533.16	24159.01
533.33	24154.33
533.50	24393.06
533.67	24203.48
533.84	23709.63
534.01	24041.98
534.18	23800.91
534.35	24472.64
534.52	24423.49
534.69	24505.41
534.86	24865.85
535.03	24163.69
535.20	24566.26
535.37	24170.71
535.54	24723.08
535.71	24638.82
535.88	24718.40
536.05	24716.06
536.22	24680.95
536.38	24685.63
536.55	24449.24
536.72	24767.55
536.89	24751.17
537.06	24849.47
537.23	24772.23
537.40	24622.44
537.57	25097.56
537.74	24863.51
537.91	25359.70
538.08	25252.04
538.25	24664.57
538.42	24706.70
538.59	25158.42
538.75	24922.02
538.92	24893.94
539.09	25160.76
539.26	24992.24
539.43	25371.41
539.60	25179.48
539.77	25032.03
539.94	25556.31
540.11	25312.89
540.28	25390.13
540.44	25617.16
540.61	25043.73
540.78	25465.03
540.95	25378.43
541.12	25343.32
541.29	25710.78
541.46	25441.62
541.62	25493.12
541.79	25340.98
541.96	25301.19
542.13	25357.36
542.30	25713.13
542.47	25638.23
542.63	26015.05
542.80	25668.66
542.97	25799.73
543.14	26164.85
543.31	26157.83
543.48	25605.46
543.64	26370.82
543.81	26462.10
543.98	26546.36
544.15	25912.07
544.32	26398.90
544.48	26597.85
544.65	26394.22
544.82	26338.05
544.99	26057.18
545.16	26469.12
545.32	26258.47
545.49	26979.36
545.66	26462.10
545.83	26855.31
546.00	26747.64
546.16	26721.90
546.33	26134.42
546.50	26412.95
546.67	26590.83
546.83	26347.41
547.00	26473.80
547.17	26544.02
547.34	27089.36
547.50	26801.47
547.67	26984.04
547.84	26464.44
548.00	26958.29
548.17	27147.87
548.34	26850.63
548.51	27119.79
548.67	27087.02
548.84	27131.49
549.01	27143.19
549.18	27119.79
549.34	26817.86
549.51	27056.59
549.68	26569.76
549.84	27220.43
550.01	27288.31
550.18	26778.07
550.34	26747.64
550.51	27337.46
550.68	27311.71
550.84	27360.86
551.01	27407.67
551.18	27175.96
551.34	27082.34
551.51	27410.01
551.68	27641.73
551.84	27494.27
552.01	27175.96
552.18	27522.36
552.34	27440.44
552.51	27520.02
552.68	27667.47
552.84	27545.76
553.01	27358.52
553.18	27391.29
553.34	27840.67
553.51	27569.17
553.67	27768.12
553.84	27927.27
554.01	27981.10
554.17	27957.70
554.34	27711.94
554.51	27765.78
554.67	27892.16
554.84	28276.01
555.00	27927.27
555.17	27777.48
555.33	27744.71
555.50	28009.19
555.67	28037.28
555.83	28065.36
556.00	28142.60
556.16	28156.64
556.33	28135.58
556.50	28158.99
556.66	27740.03
556.83	27981.10
556.99	28460.91
557.16	28360.27
557.32	28364.95
557.49	28402.40
557.65	28149.62
557.82	27866.42
557.98	27873.44
558.15	28126.22
558.32	28023.23
558.48	28063.02
558.65	28615.39
558.81	28566.24
558.98	28514.75
559.14	28301.76
559.31	28285.37
559.47	28313.46
559.64	28549.85
559.80	28395.38
559.97	28896.25
560.13	28208.14
560.30	28638.80
560.46	28446.87
560.63	28325.16
560.79	28308.78
560.96	28474.96
561.12	28304.10
561.29	28409.42
561.45	28662.20
561.61	28776.89
561.78	28416.44
561.94	28496.02
562.11	28601.35
562.27	28561.56
562.44	28694.97
562.60	28599.01
562.77	28725.39
562.93	28620.07
563.10	28856.46
563.26	28680.92
563.42	28657.52
563.59	28472.62
563.75	28772.21
563.92	28697.31
564.08	28797.95
564.24	28470.28
564.41	28531.13
564.57	28823.70
564.74	28861.15
564.90	29027.32
565.07	28835.40
565.23	29134.99
565.39	28982.85
565.56	29036.69
565.72	28676.24
565.88	28975.83
566.05	28833.06
566.21	28903.28
566.38	29008.60
566.54	28884.55
566.70	29338.62
566.87	29572.67
567.03	29223.93
567.19	29511.81
567.36	29230.95
567.52	29088.18
567.68	29216.91
567.85	28673.90
568.01	28788.59
568.17	29046.05
568.34	29151.37
568.50	29495.43
568.66	28973.49
568.83	29242.65
568.99	29053.07
569.15	29165.42
569.32	28879.87
569.48	28826.04
569.64	29202.86
569.81	29198.18
569.97	29244.99
570.13	29263.72
570.30	29144.35
570.46	29132.65
570.62	29219.25
570.78	29076.48
570.95	28863.49
571.11	29240.31
571.27	29132.65
571.43	29039.03
571.60	28849.44
571.76	28961.79
571.92	29156.05
572.09	29235.63
572.25	29050.73
572.41	29256.70
572.57	29095.20
572.74	29455.64
572.90	29345.64
573.06	29418.19
573.22	29387.77
573.38	29617.14
573.55	29144.35
573.71	29563.31
573.87	29525.86
574.03	29439.26
574.20	29427.56
574.36	29188.82
574.52	29422.87
574.68	29331.59
574.84	29149.03
575.01	29261.38
575.17	29673.31
575.33	29263.72
575.49	29221.59
575.65	29443.94
575.82	29713.10
575.98	29282.44
576.14	29523.52
576.30	29551.60
576.46	28989.88
576.62	29137.33
576.79	29060.09
576.95	29640.54
577.11	29523.52
577.27	29699.06
577.43	29488.41
577.59	29425.22
577.75	29549.26
577.92	29558.63
578.08	29497.77
578.24	29102.22
578.40	29338.62
578.56	29944.81
578.72	29518.84
578.88	29535.22
579.04	29766.93
579.21	29436.92
579.37	29247.33
579.53	29280.10
579.69	29453.30
579.85	29490.75
580.01	29408.83
580.17	29305.85
580.33	29184.14
580.49	29663.95
580.65	29825.45
580.82	29558.63
580.98	29699.06
581.14	29336.27
581.30	29729.48
581.46	29516.50
581.62	29439.26
581.78	29376.06
581.94	29610.12
582.10	29605.44
582.26	29427.56
582.42	29862.90
582.58	29692.04
582.74	29804.38
582.90	29883.96
583.06	29469.69
583.22	29298.83
583.38	29666.29
583.54	29556.28
583.70	29579.69
583.86	29762.25
584.02	29689.70
584.18	29708.42
584.34	29708.42
584.50	29827.79
584.66	29373.72
584.82	29418.19
584.98	29596.07
585.14	29589.05
585.30	29418.19
585.46	29675.65
585.62	29516.50
585.78	30101.63
585.94	29331.59
586.10	29720.12
586.26	29696.72
586.42	29809.06
586.58	29780.98
586.74	29603.10
586.90	29876.94
587.06	29614.80
587.22	29825.45
587.38	29565.65
587.54	29795.02
587.70	29961.20
587.86	30096.95
588.02	30040.78
588.18	29893.32
588.34	30113.33
588.49	29689.70
588.65	29778.64
588.81	29663.95
588.97	30045.46
589.13	29755.23
589.29	29509.47
589.45	29855.87
589.61	29659.27
589.77	30213.98
589.93	29795.02
590.08	29696.72
590.24	30239.72
590.40	30181.21
590.56	29944.81
590.72	29809.06
590.88	29495.43
591.04	29872.26
591.20	29986.94
591.35	29905.02
591.51	30174.19
591.67	30059.50
591.83	30288.87
591.99	29661.61
592.15	30375.47
592.31	30223.34
592.46	29755.23
592.62	30225.68
592.78	29514.16
592.94	29949.50
593.10	30012.69
593.26	30546.33
593.41	30157.80
593.57	30176.53
593.73	30314.62
593.89	30368.45
594.05	30071.20
594.20	30174.19
594.36	30082.91
594.52	29752.89
594.68	29823.11
594.84	29855.87
594.99	30010.35
595.15	30106.31
595.31	30333.34
595.47	30017.37
595.62	30232.70
595.78	29895.66
595.94	30146.10
596.10	30061.84
596.25	30052.48
596.41	30008.01
596.57	29773.95
596.73	30164.82
596.88	30047.80
597.04	30153.12
597.20	30410.58
597.36	30171.85
597.51	30607.19
597.67	30206.95
597.83	29841.83
597.99	30036.09
598.14	29965.88
598.30	29961.20
598.46	29699.06
598.61	30239.72
598.77	30019.71
598.93	30019.71
599.09	30326.32
599.24	30639.95
599.40	30192.91
599.56	30806.13
599.71	30506.54
599.87	30370.79
600.03	30239.72
600.18	30132.06
600.34	30080.56
600.50	30389.52
600.65	29874.60
600.81	30279.51
600.97	30426.96
601.12	30817.83
601.28	30522.93
601.44	30403.56
601.59	30150.78
601.75	30448.03
601.91	29935.45
602.06	30092.27
602.22	30375.47
602.37	30326.32
602.53	30022.05
602.69	30494.84
602.84	30246.74
603.00	30518.25
603.16	30136.74
603.31	30441.01
603.47	30307.60
603.62	29951.84
603.78	30040.78
603.94	29944.81
604.09	30319.30
604.25	30167.16
604.40	30345.05
604.56	30213.98
604.71	30375.47
604.87	30178.87
605.03	30398.88
605.18	30415.26
605.34	30384.83
605.49	29844.17
605.65	29944.81
605.80	29963.54
605.96	29802.04
606.12	30106.31
606.27	30171.85
606.43	30082.91
606.58	30199.93
606.74	30103.97
606.89	30501.86
607.05	30785.07
607.20	30452.71
607.36	30125.04
607.51	30361.43
607.67	30249.08
607.82	29898.00
607.98	30251.42
608.13	29914.39
608.29	29867.58
608.44	30099.29
608.60	29963.54
608.75	30583.78
608.91	30143.76
609.06	30080.56
609.22	30181.21
609.37	29663.95
609.53	29783.32
609.68	29876.94
609.84	29656.93
609.99	29799.70
610.15	29860.55
610.30	29799.70
610.46	30134.40
610.61	29961.20
610.76	29921.41
610.92	30045.46
611.07	29521.18
611.23	29319.89
611.38	30115.67
611.54	29546.92
611.69	29757.57
611.84	29717.78
612.00	29954.18
612.15	29647.57
612.31	29956.52
612.46	29352.66
612.62	29834.81
612.77	29511.81
612.92	29986.94
613.08	29628.84
613.23	29762.25
613.39	29413.51
613.54	29567.99
613.69	29848.85
613.85	29347.98
614.00	29598.41
614.15	29659.27
614.31	29766.93
614.46	29408.83
614.62	29713.10
614.77	29607.78
614.92	29448.62
615.08	29347.98
615.23	29411.17
615.38	29825.45
615.54	29551.60
615.69	29523.52
615.84	29441.60
616.00	29326.91
616.15	29420.53
616.30	29626.50
616.46	29546.92
616.61	29237.97
616.76	29827.79
616.92	29567.99
617.07	29685.01
617.22	29558.63
617.37	29184.14
617.53	29322.23
617.68	29153.71
617.83	29102.22
617.99	29727.14
618.14	29216.91
618.29	29502.45
618.45	29095.20
618.60	29521.18
618.75	28898.59
618.90	29172.44
619.06	29296.49
619.21	29099.88
619.36	29380.74
619.51	29006.26
619.67	28819.02
619.82	28900.94
619.97	29350.32
620.12	28797.95
620.28	29125.63
620.43	29043.71
620.58	29270.74
620.73	29120.95
620.89	28910.30
621.04	29179.46
621.19	29184.14
621.34	28971.15
621.49	28980.51
621.65	28826.04
621.80	29228.61
621.95	28690.29
622.10	28568.58
622.25	28973.49
622.41	28940.72
622.56	28856.46
622.71	29331.59
622.86	28587.30
623.01	28797.95
623.16	28856.46
623.32	28507.72
623.47	28566.24
623.62	28741.78
623.77	28395.38
623.92	28922.00
624.07	28615.39
624.23	28425.81
624.38	28299.42
624.53	28322.82
624.68	28608.37
624.83	28540.49
624.98	28886.89
625.13	28835.40
625.29	28844.76
625.44	28533.47
625.59	28627.09
625.74	28350.91
625.89	28325.16
626.04	28498.36
626.19	28336.87
626.34	28254.95
626.49	28254.95
626.65	28116.86
626.80	28320.48
626.95	27847.69
627.10	28189.41
627.25	28755.82
627.40	28196.43
627.55	28161.33
627.70	28325.16
627.85	28332.18
628.00	27901.53
628.15	27936.63
628.30	28020.89
628.45	27894.50
628.60	27948.34
628.76	28037.28
628.91	27981.10
629.06	28070.04
629.21	28100.47
629.36	28245.58
629.51	28030.26
629.66	27896.85
629.81	27875.78
629.96	27735.35
630.11	27817.27
630.26	27662.79
630.41	28189.41
630.56	27892.16
630.71	27908.55
630.86	27604.28
631.01	28273.67
631.16	27854.72
631.31	27580.87
631.46	27625.34
631.61	27798.54
631.76	27803.22
631.91	27625.34
632.06	27983.44
632.21	27711.94
632.36	27655.77
632.51	27325.75
632.66	27328.10
632.81	27557.47
632.96	27463.85
633.10	27611.30
633.25	27936.63
633.40	27555.13
633.55	27847.69
633.70	27311.71
633.85	27208.73
634.00	27473.21
634.15	27309.37
634.30	27365.54
634.45	27381.93
634.60	27564.49
634.75	27740.03
634.90	27552.79
635.05	27517.68
635.19	27417.04
635.34	27805.56
635.49	27693.22
635.64	27810.25
635.79	27028.51
635.94	26759.34
636.09	27147.87
636.24	27180.64
636.39	26859.99
636.53	27449.80
636.68	27014.46
636.83	27042.55
636.98	27007.44
637.13	27157.24
637.28	27496.61
637.43	26843.60
637.57	27164.26
637.72	27023.83
637.87	26972.33
638.02	26883.39
638.17	26890.41
638.32	26555.72
638.46	26944.25
638.61	26595.51
638.76	26836.58
638.91	26899.78
639.06	26710.19
639.20	26899.78
639.35	26904.46
639.50	27082.34
639.65	26759.34
639.80	27115.11
639.94	26991.06
640.09	26801.47
640.24	26710.19
640.39	26515.93
640.54	26780.41
640.68	26672.74
640.83	26759.34
640.98	26466.78
641.13	26223.36
641.27	26618.91
641.42	26738.28
641.57	26677.43
641.72	26630.62
641.86	26373.16
642.01	26405.92
642.16	26654.02
642.31	26366.13
642.45	26508.91
642.60	26029.10
642.75	26342.73
642.90	26129.74
643.04	26176.55
643.19	26478.48
643.34	26244.43
643.48	26455.08
643.63	26794.45
643.78	26457.42
643.93	26260.81
644.07	26553.38
644.22	26595.51
644.37	26331.03
644.51	26459.76
644.66	26132.08
644.81	26068.89
644.95	26309.96
645.10	26471.46
645.25	25862.92
645.39	26181.23
645.54	26134.42
645.69	26047.82
645.83	26253.79
645.98	26218.68
646.13	26426.99
646.27	26288.90
646.42	26429.33
646.57	26197.62
646.71	25940.16
646.86	26118.04
647.00	26141.44
647.15	25710.78
647.30	25912.07
647.44	25795.04
647.59	26019.74
647.74	25891.01
647.88	25944.84
648.03	25830.15
648.17	25986.97
648.32	26157.83
648.47	26356.77
648.61	25668.66
648.76	26047.82
648.90	25778.66
649.05	26024.42
649.20	25612.48
649.34	25876.96
649.49	25273.10
649.63	25764.62
649.78	25223.95
649.92	25448.64
650.07	25874.62
650.21	25455.67
650.36	25703.76
650.51	25612.48
650.65	25415.88
650.80	25535.24
650.94	25600.78
651.09	25586.74
651.23	25331.62
651.38	25743.55
651.52	25551.63
651.67	25481.41
651.81	25631.21
651.96	25462.69
652.10	25420.56
652.25	25336.30
652.39	25757.60
652.54	25619.50
652.68	25324.60
652.83	25605.46
652.97	25879.30
653.12	25647.59
653.26	25193.53
653.41	25479.07
653.55	25441.62
653.70	25254.38
653.84	25010.96
653.99	25460.35
654.13	25296.51
654.27	25296.51
654.42	25252.04
654.56	25139.69
654.71	25266.08
654.85	25118.63
655.00	25488.43
655.14	25331.62
655.29	25422.90
655.43	24893.94
655.57	25296.51
655.72	25013.31
655.86	25022.67
656.01	24999.26
656.15	24978.20
656.30	24814.36
656.44	24870.53
656.58	24657.54
656.73	25003.94
656.87	24634.14
657.01	24875.21
657.16	25057.78
657.30	25036.71
657.45	24727.76
657.59	24985.22
657.73	24753.51
657.88	25001.60
658.02	24922.02
658.16	24479.66
658.31	24620.10
658.45	24477.32
658.60	24334.55
658.74	24741.80
658.88	24470.30
659.03	24474.98
659.17	24175.39
659.31	24596.69
659.46	24739.46
659.60	24683.29
659.74	24765.21
659.89	24416.47
660.03	24364.98
660.17	24437.53
660.32	24182.42
660.46	24711.38
660.60	24151.99
660.74	24254.97
660.89	23847.72
661.03	24142.63
661.17	24680.95
661.32	23852.40
661.46	24049.00
661.60	23910.91
661.74	24077.09
661.89	24261.99
662.03	23824.31
662.17	24030.28
662.31	23971.77
662.46	24217.52
662.60	23924.96
662.74	24093.47
662.88	23819.63
663.03	23405.36
663.17	23527.06
663.31	23456.85
663.45	23564.51
663.60	23733.03
663.74	23590.26
663.88	23543.45
664.02	23487.28
664.17	23875.80
664.31	23424.08
664.45	23520.04
664.59	23330.46
664.73	23662.82
664.88	23508.34
665.02	23021.51
665.16	23297.69
665.30	23190.03
665.44	23297.69
665.59	22881.08
665.73	23243.86
665.87	22916.19
666.01	23161.94
666.15	23117.47
666.29	22864.69
666.44	23473.23
666.58	22817.88
666.72	23058.96
666.86	22581.49
667.00	22986.40
667.14	23021.51
667.28	23007.47
667.43	22485.53
667.57	22913.84
667.71	22693.83
667.85	22361.48
667.99	22511.27
668.13	22614.26
668.27	22658.73
668.41	22560.42
668.56	22427.01
668.70	22686.81
668.84	22614.26
668.98	22581.49
669.12	22429.35
669.26	22656.39
669.40	22431.69
669.54	22448.08
669.68	22611.92
669.82	22162.53
669.96	22382.54
670.10	22122.74
670.25	22295.94
670.39	22101.68
670.53	22396.59
670.67	21783.37
670.81	21982.31
670.95	21916.78
671.09	22143.81
671.23	21886.35
671.37	21893.37
671.51	22139.13
671.65	22010.40
671.79	21612.51
671.93	21362.07
672.07	21841.88
672.21	21855.92
672.35	21331.64
672.49	21214.62
672.63	21415.90
672.77	21607.83
672.91	21750.60
673.05	21462.71
673.19	21544.63
673.33	21188.87
673.47	21497.82
673.61	21467.39
673.75	21235.68
673.89	21200.57
674.03	21708.47
674.17	20926.73
674.31	20973.54
674.45	20844.81
674.59	20767.57
674.73	20926.73
674.87	20800.34
675.01	20783.96
675.15	20779.28
675.29	20727.78
675.43	20678.63
675.56	20690.34
675.70	20449.26
675.84	20603.74
675.98	20276.06
676.12	20936.09
676.26	20905.66
676.40	20540.54
676.54	20423.51
676.68	20573.31
676.82	20123.93
676.96	20283.08
677.10	20240.95
677.23	20128.61
677.37	19686.25
677.51	19882.85
677.65	20119.24
677.79	19763.48
677.93	19590.28
678.07	19641.78
678.21	19587.94
678.34	19344.53
678.48	19765.82
678.62	19396.02
678.76	19882.85
678.90	18974.72
679.04	19295.38
679.18	19583.26
679.31	18906.85
679.45	19309.42
679.59	19529.43
679.73	18773.44
679.87	19063.66
680.00	18836.63
680.14	18583.85
680.28	18778.12
680.42	18876.42
680.56	18878.76
680.70	18902.17
680.83	18633.00
680.97	18677.48
681.11	18747.69
681.25	18497.25
681.39	18438.74
681.52	18640.03
681.66	18237.45
681.80	17764.67
681.94	18422.36
682.07	18420.02
682.21	18185.96
682.35	17926.16
682.49	17954.25
682.62	17703.81
682.76	17891.06
682.90	18036.17
683.04	17603.17
683.17	17874.67
683.31	17984.68
683.45	17774.03
683.59	17434.65
683.72	17465.08
683.86	17785.73
684.00	17415.93
684.13	17642.96
684.27	17074.21
684.41	17097.61
684.55	16992.29
684.68	16905.69
684.82	16739.51
684.96	16936.12
685.09	16837.81
685.23	16994.63
685.37	16992.29
685.50	16996.97
685.64	16851.86
685.78	17064.85
685.91	16863.56
686.05	16669.30
686.19	16673.98
686.32	16697.38
686.46	16589.72
686.60	16114.59
686.73	16479.71
686.87	16070.12
687.01	16365.03
687.14	16201.19
687.28	15976.50
687.42	16145.02
687.55	16018.63
687.69	15964.79
687.82	15894.58
687.96	15953.09
688.10	15925.00
688.23	15843.09
688.37	15974.16
688.50	15592.65
688.64	15569.24
688.78	15358.60
688.91	15342.21
689.05	15529.45
689.18	15578.61
689.32	15131.56
689.46	15414.77
689.59	15241.57
689.73	15344.55
689.86	15197.10
690.00	15288.38
690.13	15211.14
690.27	15028.58
690.41	15016.88
690.54	14862.40
690.68	15007.52
690.81	14974.75
690.95	14801.55
691.08	14871.76
691.22	14714.95
691.35	14445.79
691.49	14707.93
691.62	14628.35
691.76	14342.80
691.89	14202.37
692.03	14232.80
692.16	14003.43
692.30	14024.49
692.43	14113.43
692.57	13781.07
692.70	13965.98
692.84	13984.70
692.97	14162.58
693.11	13806.82
693.24	13898.10
693.38	13823.20
693.51	13792.78
693.65	13841.93
693.78	13806.82
693.92	13589.15
694.05	13568.09
694.19	13598.51
694.32	13233.39
694.45	13385.52
694.59	13125.72
694.72	13090.62
694.86	13298.92
694.99	13046.15
695.13	13041.46
695.26	13018.06
695.39	12922.10
695.53	12971.25
695.66	12982.95
695.80	12903.37
695.93	13027.42
696.07	12800.39
696.20	12812.09
696.33	12610.81
696.47	12798.05
696.60	12580.38
696.73	12657.62
696.87	12662.30
697.00	12308.88
697.14	12315.90
697.27	12236.32
697.40	12318.24
697.54	12149.72
697.67	12009.29
697.80	11880.56
697.94	12248.02
698.07	11840.77
698.21	11777.58
698.34	12163.76
698.47	11639.48
698.61	11873.54
698.74	11779.92
698.87	12088.87
699.01	11749.49
699.14	11698.00
699.27	11728.42
699.40	11367.98
699.54	11522.46
699.67	11555.22
699.80	11466.28
699.94	11311.81
700.07	11290.74
700.20	11300.11
700.34	11103.50
700.47	11082.44
700.60	11220.53
700.73	11281.38
700.87	10883.49
701.00	11117.54
701.13	11005.20
701.26	11019.24
701.40	10902.22
701.53	10932.64
701.66	10813.28
701.79	10705.61
701.93	10682.20
702.06	10677.52
702.19	10558.16
702.32	10314.74
702.46	10303.04
702.59	10335.81
702.72	10256.23
702.85	10312.40
702.99	10286.65
703.12	10204.74
703.25	10164.95
703.38	10237.50
703.51	10143.88
703.65	10024.51
703.78	10078.35
703.91	10256.23
704.04	10195.37
704.17	10050.26
704.31	9928.55
704.44	9907.49
704.57	10132.18
704.70	9867.70
704.83	9689.82
704.96	9511.94
705.10	9434.70
705.23	9621.94
>>>>>End Processed Spectral Data<<<<<
