SpectraSuite Data File
++++++++++++++++++++++++++++++++++++
Date: Fri Oct 18 13:58:07 GMT-05:00 2013
User: bianchi
Dark Spectrum Present: No
Reference Spectrum Present: No
Number of Sampled Component Spectra: 1
Spectrometers: USB2+H05261
Integration Time (usec): 50000 (USB2+H05261)
Spectra Averaged: 1 (USB2+H05261)
Boxcar Smoothing: 0 (USB2+H05261)
Correct for Electrical Dark: No (USB2+H05261)
Strobe/Lamp Enabled: No (USB2+H05261)
Correct for Detector Non-linearity: No (USB2+H05261)
Correct for Stray Light: No (USB2+H05261)
Number of Pixels in Processed Spectrum: 2048
>>>>>Begin Processed Spectral Data<<<<<
365.73	0.00
365.92	0.00
366.12	0.00
366.32	0.00
366.52	0.00
366.72	0.00
366.91	0.00
367.11	0.00
367.31	0.00
367.51	0.00
367.70	0.00
367.90	0.00
368.10	0.00
368.30	0.00
368.49	0.00
368.69	0.00
368.89	0.00
369.09	0.00
369.28	0.00
369.48	0.00
369.68	0.00
369.87	0.00
370.07	0.00
370.27	0.00
370.47	0.00
370.66	18.72
370.86	145.11
371.06	145.11
371.25	191.92
371.45	217.67
371.65	138.09
371.84	112.35
372.04	138.09
372.24	154.48
372.44	191.92
372.63	159.16
372.83	168.52
373.03	208.31
373.22	163.84
373.42	208.31
373.62	262.14
373.81	182.56
374.01	290.23
374.21	266.82
374.40	262.14
374.60	273.84
374.79	266.82
374.99	245.76
375.19	322.99
375.38	283.20
375.58	224.69
375.78	215.33
375.97	339.38
376.17	330.02
376.37	250.44
376.56	231.71
376.76	154.48
376.95	278.52
377.15	290.23
377.35	290.23
377.54	257.46
377.74	341.72
377.93	301.93
378.13	315.97
378.33	250.44
378.52	224.69
378.72	257.46
378.91	351.08
379.11	264.48
379.31	227.03
379.50	250.44
379.70	278.52
379.89	278.52
380.09	299.59
380.28	358.10
380.48	318.31
380.68	346.40
380.87	325.33
381.07	243.42
381.26	301.93
381.46	395.55
381.65	395.55
381.85	383.85
382.04	337.04
382.24	395.55
382.43	374.49
382.63	339.38
382.83	351.08
383.02	346.40
383.22	306.61
383.41	337.04
383.61	369.80
383.80	346.40
384.00	301.93
384.19	388.53
384.39	425.98
384.58	374.49
384.78	383.85
384.97	404.91
385.17	339.38
385.36	496.19
385.56	421.30
385.75	306.61
385.95	449.38
386.14	383.85
386.34	355.76
386.53	437.68
386.72	379.17
386.92	397.89
387.11	397.89
387.31	444.70
387.50	360.44
387.70	470.45
387.89	416.62
388.09	468.11
388.28	491.51
388.48	442.36
388.67	404.91
388.86	369.80
389.06	411.93
389.25	461.09
389.45	496.19
389.64	407.25
389.84	449.38
390.03	465.77
390.22	442.36
390.42	470.45
390.61	463.43
390.81	447.04
391.00	521.94
391.19	571.09
391.39	484.49
391.58	505.56
391.78	514.92
391.97	503.22
392.16	489.17
392.36	566.41
392.55	491.51
392.75	645.99
392.94	550.03
393.13	608.54
393.33	599.18
393.52	521.94
393.71	582.79
393.91	521.94
394.10	634.29
394.29	585.13
394.49	596.84
394.68	645.99
394.88	524.28
395.07	634.29
395.26	589.82
395.46	559.39
395.65	617.90
395.84	617.90
396.04	723.23
396.23	662.37
396.42	664.71
396.62	568.75
396.81	575.77
397.00	645.99
397.19	706.84
397.39	746.63
397.58	777.06
397.77	650.67
397.97	751.31
398.16	683.44
398.35	676.41
398.55	692.80
398.74	678.76
398.93	723.23
399.12	683.44
399.32	706.84
399.51	730.25
399.70	678.76
399.90	744.29
400.09	816.85
400.28	798.12
400.47	795.78
400.67	753.65
400.86	741.95
401.05	814.51
401.24	765.36
401.44	823.87
401.63	802.80
401.82	833.23
402.01	800.46
402.21	809.83
402.40	847.27
402.59	844.93
402.78	866.00
402.97	875.36
403.17	912.81
403.36	983.02
403.55	903.45
403.74	933.87
403.93	929.19
404.13	875.36
404.32	961.96
404.51	863.66
404.70	889.40
404.89	1027.50
405.09	908.13
405.28	971.32
405.47	985.37
405.66	1055.58
405.85	1015.79
406.05	994.73
406.24	1041.54
406.43	1006.43
406.62	1041.54
406.81	1008.77
407.00	1062.60
407.20	1013.45
407.39	1093.03
407.58	1036.86
407.77	1043.88
407.96	1078.99
408.15	1111.75
408.34	1146.86
408.54	1011.11
408.73	1104.73
408.92	1205.38
409.11	1128.14
409.30	1116.44
409.49	1160.91
409.68	1137.50
409.87	1235.80
410.07	1146.86
410.26	1146.86
410.45	1235.80
410.64	1097.71
410.83	1226.44
411.02	1231.12
411.21	1240.48
411.40	1284.95
411.59	1301.34
411.78	1207.72
411.98	1320.06
412.17	1380.92
412.36	1299.00
412.55	1343.47
412.74	1392.62
412.93	1273.25
413.12	1270.91
413.31	1488.58
413.50	1404.32
413.69	1434.75
413.88	1348.15
414.07	1418.36
414.26	1504.96
414.45	1434.75
414.64	1465.18
414.83	1495.60
415.02	1483.90
415.22	1507.30
415.41	1647.74
415.60	1554.12
415.79	1511.99
415.98	1423.05
416.17	1586.88
416.36	1600.93
416.55	1722.63
416.74	1654.76
416.93	1633.69
417.12	1659.44
417.31	1680.50
417.50	1657.10
417.69	1818.60
417.88	1736.68
418.07	1790.51
418.26	1797.53
418.45	1820.94
418.64	1909.88
418.83	1778.81
419.02	1823.28
419.21	1820.94
419.39	1806.89
419.58	1816.26
419.77	1846.68
419.96	1874.77
420.15	1933.28
420.34	1816.26
420.53	1830.30
420.72	1984.77
420.91	1994.14
421.10	2029.24
421.29	1867.75
421.48	2010.52
421.67	2076.06
421.86	2029.24
422.05	1930.94
422.24	2003.50
422.43	2036.27
422.61	1956.69
422.80	1975.41
422.99	1961.37
423.18	2019.88
423.37	2085.42
423.56	2045.63
423.75	2120.53
423.94	2073.71
424.13	1942.64
424.32	1785.83
424.50	2059.67
424.69	2169.68
424.88	2190.74
425.07	2113.50
425.26	2057.33
425.45	2148.61
425.64	2136.91
425.83	2101.80
426.01	2176.70
426.20	2033.93
426.39	2069.03
426.58	2050.31
426.77	2118.18
426.96	2232.87
427.15	2190.74
427.33	2047.97
427.52	2127.55
427.71	2162.66
427.90	2179.04
428.09	2094.78
428.28	2172.02
428.46	2298.41
428.65	2200.10
428.84	2270.32
429.03	2251.60
429.22	2200.10
429.40	2216.49
429.59	2345.22
429.78	2132.23
429.97	2115.84
430.16	2207.13
430.34	2260.96
430.53	2363.94
430.72	2307.77
430.91	2296.07
431.10	2345.22
431.28	2429.48
431.47	2296.07
431.66	2403.73
431.85	2394.37
432.03	2455.22
432.22	2555.86
432.41	2480.97
432.60	2399.05
432.79	2375.64
432.97	2473.95
433.16	2509.05
433.35	2572.25
433.54	2525.44
433.72	2487.99
433.91	2455.22
434.10	2558.21
434.28	2628.42
434.47	2576.93
434.66	2506.71
434.85	2600.34
435.03	2644.81
435.22	2658.85
435.41	2544.16
435.59	2651.83
435.78	2684.59
435.97	2703.32
436.16	2698.64
436.34	2686.94
436.53	2579.27
436.72	2855.45
436.90	2698.64
437.09	2829.71
437.28	2806.30
437.46	2757.15
437.65	2822.69
437.84	2813.32
438.02	2722.04
438.21	2853.11
438.40	2686.94
438.58	2857.79
438.77	2932.69
438.96	2860.13
439.14	2984.18
439.33	2937.37
439.52	2981.84
439.70	2963.12
439.89	3052.06
440.08	2998.23
440.26	3122.27
440.45	3089.51
440.63	3073.12
440.82	3220.58
441.01	3166.74
441.19	3126.96
441.38	3332.92
441.57	3241.64
441.75	3225.26
441.94	3190.15
442.12	3276.75
442.31	3239.30
442.50	3384.41
442.68	3363.35
442.87	3428.88
443.05	3272.07
443.24	3452.29
443.43	3382.07
443.61	3499.10
443.80	3421.86
443.98	3328.24
444.17	3283.77
444.35	3461.65
444.54	3571.66
444.73	3461.65
444.91	3513.14
445.10	3426.54
445.28	3440.59
445.47	3335.26
445.65	3368.03
445.84	3508.46
446.02	3545.91
446.21	3398.46
446.39	3534.21
446.58	3440.59
446.77	3555.27
446.95	3480.38
447.14	3555.27
447.32	3637.19
447.51	3592.72
447.69	3627.83
447.88	3442.93
448.06	3478.04
448.25	3485.06
448.43	3709.75
448.62	3569.32
448.80	3648.90
448.99	3597.40
449.17	3618.47
449.36	3559.95
449.54	3655.92
449.73	3707.41
449.91	3669.96
450.10	3829.12
450.28	3878.27
450.46	3822.09
450.65	3782.31
450.83	3798.69
451.02	3801.03
451.20	3772.94
451.39	3733.15
451.57	3817.41
451.76	3803.37
451.94	3784.65
452.13	3859.54
452.31	3840.82
452.49	3779.97
452.68	3885.29
452.86	3892.31
453.05	3974.23
453.23	3978.91
453.42	3911.04
453.60	3896.99
453.78	4004.66
453.97	3962.53
454.15	3852.52
454.34	3976.57
454.52	3960.19
454.70	4086.58
454.89	4025.72
455.07	4079.55
455.26	4203.60
455.44	4058.49
455.62	4196.58
455.81	4313.61
455.99	4140.41
456.17	4173.18
456.36	4262.12
456.54	4224.67
456.73	4276.16
456.91	4290.20
457.09	4355.74
457.28	4379.14
457.46	4257.43
457.64	4440.00
457.83	4402.55
458.01	4287.86
458.19	4498.51
458.38	4311.27
458.56	4393.19
458.74	4521.92
458.93	4552.34
459.11	4652.98
459.29	4484.47
459.48	4463.40
459.66	4507.87
459.84	4603.83
460.03	4657.67
460.21	4519.57
460.39	4564.04
460.57	4676.39
460.76	4725.54
460.94	4641.28
461.12	4737.24
461.31	4676.39
461.49	4550.00
461.67	4692.77
461.85	4748.95
462.04	4685.75
462.22	4978.32
462.40	4781.71
462.59	4882.36
462.77	4950.23
462.95	4938.53
463.13	4819.16
463.32	4901.08
463.50	4849.59
463.68	4809.80
463.86	4903.42
464.05	4919.81
464.23	4924.49
464.41	4997.04
464.59	4975.98
464.78	4978.32
464.96	5004.07
465.14	4826.18
465.32	5039.17
465.50	5195.99
465.69	5142.16
465.87	5064.92
466.05	5090.67
466.23	4990.02
466.41	5142.16
466.60	5359.83
466.78	5142.16
466.96	5153.86
467.14	5060.24
467.32	5060.24
467.51	5195.99
467.69	5046.20
467.87	5275.57
468.05	5242.80
468.23	5015.77
468.41	5341.10
468.60	5317.70
468.78	5322.38
468.96	5235.78
469.14	5420.68
469.32	5341.10
469.50	5291.95
469.69	5446.43
469.87	5502.60
470.05	5589.20
470.23	5593.88
470.41	5495.58
470.59	5586.86
470.77	5448.77
470.95	5425.36
471.14	5465.15
471.32	5446.43
471.50	5830.27
471.68	5703.89
471.86	5610.26
472.04	5767.08
472.22	5692.18
472.40	5703.89
472.58	5823.25
472.77	5762.40
472.95	5968.37
473.13	5933.26
473.31	5914.53
473.49	5984.75
473.67	6005.81
473.85	5954.32
474.03	6214.12
474.21	5916.87
474.39	6174.33
474.57	6246.89
474.75	6174.33
474.93	6272.64
475.12	6279.66
475.30	6181.35
475.48	6274.98
475.66	6200.08
475.84	6471.58
476.02	6511.37
476.20	6483.28
476.38	6527.75
476.56	6654.14
476.74	6719.68
476.92	6415.41
477.10	6668.19
477.28	6616.69
477.46	6665.85
477.64	6822.66
477.82	6953.73
478.00	7040.33
478.18	7014.59
478.36	7162.04
478.54	7152.68
478.72	7143.32
478.90	7368.01
479.08	7370.35
479.26	7185.44
479.44	7508.44
479.62	7363.33
479.80	7489.71
479.98	7506.10
480.16	7695.68
480.34	7604.40
480.52	7775.26
480.70	7705.04
480.88	7653.55
481.06	7831.43
481.24	7957.82
481.41	7705.04
481.59	8081.87
481.77	8147.40
481.95	8184.85
482.13	8369.76
482.31	8100.59
482.49	8386.14
482.67	8269.11
482.85	8507.85
483.03	8524.23
483.21	8624.87
483.39	8746.58
483.57	8676.37
483.74	8830.84
483.92	8807.44
484.10	8887.01
484.28	9163.20
484.46	9418.32
484.64	9181.92
484.82	9039.15
485.00	9198.31
485.18	9448.74
485.35	9661.73
485.53	9481.51
485.71	9509.60
485.89	9685.14
486.07	9877.06
486.25	9781.10
486.43	9750.67
486.61	9830.25
486.78	10026.86
486.96	10176.65
487.14	10225.80
487.32	10045.58
487.50	10164.95
487.68	10317.08
487.85	10487.94
488.03	10420.06
488.21	10562.84
488.39	10719.65
488.57	10822.64
488.75	10619.01
488.92	11272.02
489.10	11218.19
489.28	11070.73
489.46	11281.38
489.64	11211.17
489.81	11342.24
489.99	11438.20
490.17	11590.33
490.35	11700.34
490.53	11625.44
490.70	11599.70
490.88	11798.64
491.06	11918.01
491.24	11805.66
491.41	11840.77
491.59	12123.98
491.77	12030.35
491.95	12264.41
492.13	12390.80
492.30	12322.92
492.48	12400.16
492.66	12409.52
492.84	12390.80
493.01	12606.13
493.19	12760.60
493.37	12889.33
493.54	13165.51
493.72	13006.36
493.90	13015.72
494.08	13055.51
494.25	13252.11
494.43	13256.79
494.61	13521.27
494.79	13392.55
494.96	13483.83
495.14	13659.37
495.32	13893.42
495.49	13642.98
495.67	13818.52
495.85	13862.99
496.02	13846.61
496.20	13928.53
496.38	14256.20
496.55	14066.62
496.73	14508.98
496.91	14230.46
497.09	14464.51
497.26	14717.29
497.44	14663.46
497.62	14661.12
497.79	14518.34
497.97	14679.84
498.14	15019.22
498.32	15103.48
498.50	15023.90
498.67	15545.84
498.85	15070.71
499.03	15374.98
499.20	15272.00
499.38	15564.56
499.56	15492.01
499.73	15681.59
499.91	15482.64
500.08	15627.76
500.26	15309.44
500.44	15208.80
500.61	15616.05
500.79	15576.27
500.97	15908.62
501.14	16077.14
501.32	16105.23
501.49	16081.82
501.67	16130.97
501.84	16002.24
502.02	16128.63
502.20	16463.33
502.37	16524.18
502.55	16402.47
502.72	16636.53
502.90	16418.86
503.07	16409.50
503.25	16468.01
503.43	16741.85
503.60	16491.41
503.78	16833.13
503.95	16837.81
504.13	16842.50
504.30	17006.33
504.48	16823.77
504.65	17156.13
504.83	16891.65
505.01	17387.84
505.18	17317.62
505.36	17397.20
505.53	17160.81
505.71	17626.57
505.88	17486.14
506.06	17231.02
506.23	17645.30
506.41	17743.60
506.58	17556.36
506.76	17902.76
506.93	17776.37
507.11	17750.62
507.28	17610.19
507.46	17865.31
507.63	17998.72
507.81	17928.50
507.98	18171.92
508.16	18230.43
508.33	17708.49
508.50	18164.90
508.68	18326.39
508.85	18253.84
509.03	18305.33
509.20	18640.03
509.38	18801.52
509.55	18754.71
509.73	18621.30
509.90	18888.12
510.08	18600.24
510.25	18670.45
510.42	18958.34
510.60	19122.18
510.77	19103.45
510.95	19101.11
511.12	18813.23
511.30	18993.45
511.47	19267.29
511.64	19138.56
511.82	19396.02
511.99	19222.82
512.17	19480.28
512.34	19414.74
512.51	19431.13
512.69	19480.28
512.86	19323.46
513.04	19704.97
513.21	19953.07
513.38	19786.89
513.56	19971.79
513.73	19807.95
513.90	19765.82
514.08	19536.45
514.25	20194.14
514.43	20088.82
514.60	19985.83
514.77	20020.94
514.95	20453.94
515.12	19999.88
515.29	20215.21
515.47	20088.82
515.64	20346.28
515.81	20549.90
515.99	20514.80
516.16	20734.81
516.33	20449.26
516.51	20451.60
516.68	20381.38
516.85	20697.36
517.03	20830.77
517.20	20959.50
517.37	20947.79
517.54	21003.97
517.72	20978.22
517.89	20802.68
518.06	20657.57
518.24	20919.71
518.41	21109.29
518.58	21123.33
518.75	21238.02
518.93	21333.98
519.10	21191.21
519.27	21212.28
519.45	21582.08
519.62	21280.15
519.79	21333.98
519.96	21443.99
520.14	21549.31
520.31	21303.56
520.48	21415.90
520.65	21624.21
520.83	21593.78
521.00	22050.19
521.17	21708.47
521.34	21935.50
521.52	21745.92
521.69	22106.36
521.86	21860.60
522.03	22050.19
522.20	22408.29
522.38	22415.31
522.55	21963.59
522.72	22693.83
522.89	22148.49
523.07	22469.14
523.24	22295.94
523.41	22501.91
523.58	22476.16
523.75	22511.27
523.92	22363.82
524.10	22256.15
524.27	22286.58
524.44	22841.29
524.61	23080.02
524.78	22838.95
524.96	22974.70
525.13	22728.94
525.30	23019.17
525.47	22883.42
525.64	22764.05
525.81	23049.60
525.98	23414.72
526.16	23491.96
526.33	23077.68
526.50	23426.42
526.67	23068.32
526.84	23133.86
527.01	23285.99
527.18	23447.49
527.36	23515.36
527.53	23513.02
527.70	23917.93
527.87	23887.51
528.04	23372.59
528.21	23433.44
528.38	23358.55
528.55	23852.40
528.72	23496.64
528.89	23805.59
529.07	23735.37
529.24	24013.90
529.41	23934.32
529.58	23580.90
529.75	24009.22
529.92	24084.11
530.09	23765.80
530.26	24322.85
530.43	24030.28
530.60	23878.15
530.77	24182.42
530.94	23978.79
531.11	24093.47
531.28	24271.36
531.46	23784.52
531.63	24706.70
531.80	24692.65
531.97	24545.20
532.14	24451.58
532.31	24575.62
532.48	24563.92
532.65	24725.42
532.82	24460.94
532.99	24669.25
533.16	24376.68
533.33	24868.19
533.50	24755.85
533.67	24711.38
533.84	24657.54
534.01	24411.79
534.18	24971.18
534.35	24711.38
534.52	24936.07
534.69	24907.98
534.86	25165.44
535.03	25088.20
535.20	24828.40
535.37	24924.36
535.54	25415.88
535.71	25186.50
535.88	25207.57
536.05	24985.22
536.22	25003.94
536.38	25462.69
536.55	25448.64
536.72	25462.69
536.89	25380.77
537.06	25518.86
537.23	25425.24
537.40	25465.03
537.57	25352.68
537.74	25717.81
537.91	25914.41
538.08	25514.18
538.25	25277.79
538.42	25769.30
538.59	25895.69
538.75	25816.11
538.92	25500.14
539.09	25867.60
539.26	25750.57
539.43	26036.12
539.60	25958.88
539.77	25823.13
539.94	26008.03
540.11	25818.45
540.28	26036.12
540.44	25914.41
540.61	25883.98
540.78	25764.62
540.95	26204.64
541.12	26183.57
541.29	26139.10
541.46	26291.24
541.62	26338.05
541.79	26176.55
541.96	26089.95
542.13	26150.81
542.30	26312.30
542.47	26906.80
542.63	26654.02
542.80	26733.60
542.97	26824.88
543.14	26916.16
543.31	26808.50
543.48	26712.53
543.64	26614.23
543.81	26991.06
543.98	27051.91
544.15	26806.16
544.32	27131.49
544.48	27042.55
544.65	27021.48
544.82	27091.70
544.99	26939.57
545.16	26979.36
545.32	26845.94
545.49	26965.31
545.66	27098.72
545.83	26913.82
546.00	27339.80
546.16	27012.12
546.33	27438.10
546.50	26654.02
546.67	27117.45
546.83	27019.14
547.00	27592.58
547.17	27384.27
547.34	27374.91
547.50	27517.68
547.67	27641.73
547.84	27241.50
548.00	27632.36
548.17	27843.01
548.34	27545.76
548.51	27864.08
548.67	27976.42
548.84	27410.01
549.01	27861.74
549.18	27789.18
549.34	27391.29
549.51	27679.18
549.68	27992.81
549.84	27573.85
550.01	27779.82
550.18	27889.82
550.34	27644.07
550.51	28114.52
550.68	28041.96
550.84	27985.79
551.01	28074.73
551.18	27721.30
551.34	27723.65
551.51	27807.90
551.68	28636.45
551.84	28465.60
552.01	28343.89
552.18	28423.47
552.34	28065.36
552.51	28519.43
552.68	28311.12
552.84	28020.89
553.01	28531.13
553.18	28414.10
553.34	28339.21
553.51	28629.43
553.67	28474.96
553.84	28664.54
554.01	28266.65
554.17	28664.54
554.34	28624.75
554.51	28636.45
554.67	28538.15
554.84	28332.18
555.00	28400.06
555.17	28629.43
555.33	28381.34
555.50	28512.41
555.67	28503.04
555.83	28786.25
556.00	28622.41
556.16	28835.40
556.33	28676.24
556.50	28938.38
556.66	28898.59
556.83	28533.47
556.99	29240.31
557.16	29083.50
557.32	29008.60
557.49	28847.10
557.65	28779.23
557.82	29106.90
557.98	28814.34
558.15	28978.17
558.32	29039.03
558.48	29062.43
558.65	28947.75
558.81	28856.46
558.98	29113.92
559.14	28856.46
559.31	28870.51
559.47	28985.19
559.64	29158.39
559.80	29493.09
559.97	29448.62
560.13	29195.84
560.30	29443.94
560.46	29092.86
560.63	29593.73
560.79	29149.03
560.96	29656.93
561.12	28889.23
561.29	29151.37
561.45	29502.45
561.61	29090.52
561.78	29692.04
561.94	29507.13
562.11	29570.33
562.27	29184.14
562.44	29170.10
562.60	29448.62
562.77	29256.70
562.93	29221.59
563.10	29862.90
563.26	29184.14
563.42	29914.39
563.59	29642.88
563.75	29563.31
563.92	29436.92
564.08	29469.69
564.24	29525.86
564.41	29095.20
564.57	29600.76
564.74	29612.46
564.90	29961.20
565.07	29956.52
565.23	29708.42
565.39	29652.25
565.56	29670.97
565.72	29883.96
565.88	29546.92
566.05	30000.99
566.21	29509.47
566.38	29560.97
566.54	29635.86
566.70	29996.31
566.87	30026.73
567.03	29687.36
567.19	29970.56
567.36	30295.89
567.52	29731.83
567.68	29818.42
567.85	29701.40
568.01	29813.74
568.17	29682.67
568.34	29532.88
568.50	30167.16
568.66	30157.80
568.83	30202.27
568.99	30064.18
569.15	29930.77
569.32	30157.80
569.48	29717.78
569.64	30150.78
569.81	29937.79
569.97	30026.73
570.13	30235.04
570.30	30281.85
570.46	30190.57
570.62	30103.97
570.78	29965.88
570.95	29425.22
571.11	29537.56
571.27	29867.58
571.43	29912.05
571.60	30050.14
571.76	29881.62
571.92	30183.55
572.09	30312.28
572.25	30150.78
572.41	30375.47
572.57	30146.10
572.74	30052.48
572.90	30192.91
573.06	30040.78
573.22	29907.37
573.38	29752.89
573.55	30316.96
573.71	30279.51
573.87	30513.56
574.03	30562.72
574.20	30012.69
574.36	30096.95
574.52	29820.77
574.68	29895.66
574.84	30321.64
575.01	30113.33
575.17	30614.21
575.33	30178.87
575.49	30260.79
575.65	30251.42
575.82	30445.69
575.98	30242.06
576.14	30302.92
576.30	30543.99
576.46	30239.72
576.62	30436.33
576.79	30239.72
576.95	29853.53
577.11	30246.74
577.27	30405.90
577.43	30295.89
577.59	30096.95
577.75	30274.83
577.92	30071.20
578.08	29813.74
578.24	30134.40
578.40	30050.14
578.56	30555.69
578.72	30429.30
578.88	30965.29
579.04	30689.10
579.21	30710.17
579.37	30281.85
579.53	30555.69
579.69	30277.17
579.85	30520.59
580.01	30452.71
580.17	30195.25
580.33	30417.60
580.49	30155.46
580.65	30616.55
580.82	30721.87
580.98	30551.01
581.14	30302.92
581.30	30595.48
581.46	30438.67
581.62	30457.39
581.78	30431.65
581.94	30370.79
582.10	30462.07
582.26	30548.67
582.42	30436.33
582.58	30651.66
582.74	30651.66
582.90	30410.58
583.06	30543.99
583.22	30756.98
583.38	30506.54
583.54	30281.85
583.70	30511.22
583.86	30122.69
584.02	30389.52
584.18	30635.27
584.34	30721.87
584.50	30548.67
584.66	30438.67
584.82	30478.46
584.98	30752.30
585.14	30497.18
585.30	30279.51
585.46	30494.84
585.62	30398.88
585.78	30518.25
585.94	30593.14
586.10	30614.21
586.26	30698.47
586.42	30829.54
586.58	30588.46
586.74	30679.74
586.90	30532.29
587.06	30436.33
587.22	30513.56
587.38	30607.19
587.54	30728.89
587.70	31077.63
587.86	30962.95
588.02	30646.97
588.18	30986.35
588.34	31119.76
588.49	30759.32
588.65	30869.33
588.81	30167.16
588.97	30944.22
589.13	30845.92
589.29	30326.32
589.45	30820.17
589.61	30960.61
589.77	30988.69
589.93	30841.24
590.08	31014.44
590.24	30815.49
590.40	30864.64
590.56	30675.06
590.72	30679.74
590.88	30553.35
591.04	30923.16
591.20	30827.20
591.35	31030.82
591.51	31243.81
591.67	31136.15
591.83	31419.35
591.99	31136.15
592.15	31161.89
592.31	31044.87
592.46	31014.44
592.62	30546.33
592.78	31150.19
592.94	31084.65
593.10	31161.89
593.26	30937.20
593.41	31480.21
593.57	31147.85
593.73	31218.07
593.89	30916.14
594.05	31091.68
594.20	31108.06
594.36	31124.44
594.52	31007.42
594.68	31119.76
594.84	30646.97
594.99	30593.14
595.15	31208.70
595.31	31374.88
595.47	30932.52
595.62	31056.57
595.78	31117.42
595.94	31063.59
596.10	31072.95
596.25	31126.78
596.41	30852.94
596.57	30738.26
596.73	30993.37
596.88	30719.53
597.04	30972.31
597.20	31049.55
597.36	31440.42
597.51	31178.28
597.67	30951.24
597.83	30916.14
597.99	30792.09
598.14	30916.14
598.30	31007.42
598.46	31112.74
598.61	31393.61
598.77	30857.62
598.93	31264.88
599.09	31365.52
599.24	31351.48
599.40	30892.73
599.56	31548.08
599.71	31307.01
599.87	31264.88
600.03	31145.51
600.18	31218.07
600.34	30815.49
600.50	30951.24
600.65	31335.09
600.81	31234.45
600.97	31611.28
601.12	31407.65
601.28	31482.55
601.44	31178.28
601.59	31459.14
601.75	31304.67
601.91	31307.01
602.06	31089.34
602.22	31335.09
602.37	31150.19
602.53	30909.11
602.69	31299.98
602.84	31136.15
603.00	31409.99
603.16	31431.05
603.31	31241.47
603.47	30972.31
603.62	31445.10
603.78	30862.30
603.94	31037.84
604.09	31335.09
604.25	31421.69
604.40	31189.98
604.56	31194.66
604.71	31285.94
604.87	31290.62
605.03	31395.95
605.18	31330.41
605.34	31358.50
605.49	30794.43
605.65	31007.42
605.80	30831.88
605.96	30876.35
606.12	30899.75
606.27	30899.75
606.43	30668.04
606.58	31309.35
606.74	30944.22
606.89	31276.58
607.05	31108.06
607.20	31316.37
607.36	30555.69
607.51	31374.88
607.67	31119.76
607.82	30806.13
607.98	30878.69
608.13	31302.32
608.29	31159.55
608.44	30693.79
608.60	30845.92
608.75	31271.90
608.91	31402.97
609.06	30895.07
609.22	30918.48
609.37	30560.37
609.53	30691.44
609.68	30525.27
609.84	30691.44
609.99	30960.61
610.15	31077.63
610.30	30815.49
610.46	30920.82
610.61	31180.62
610.76	30918.48
610.92	30616.55
611.07	30808.47
611.23	31098.70
611.38	30785.07
611.54	31016.78
611.69	30555.69
611.84	30291.21
612.00	30848.26
612.15	30635.27
612.31	30902.09
612.46	30630.59
612.62	30635.27
612.77	30504.20
612.92	30595.48
613.08	30733.57
613.23	30801.45
613.39	30693.79
613.54	30349.73
613.69	30747.62
613.85	30529.95
614.00	30263.13
614.15	30675.06
614.31	30586.12
614.46	30455.05
614.62	30726.55
614.77	30691.44
614.92	30803.79
615.08	30122.69
615.23	30314.62
615.38	30412.92
615.54	29823.11
615.69	30501.86
615.84	30703.15
616.00	30408.24
616.15	30228.02
616.30	30176.53
616.46	30675.06
616.61	30670.38
616.76	30466.75
616.92	30705.49
617.07	30511.22
617.22	30408.24
617.37	30328.66
617.53	30436.33
617.68	29724.80
617.83	30286.53
617.99	30326.32
618.14	30342.70
618.29	30375.47
618.45	30520.59
618.60	29914.39
618.75	30012.69
618.90	30150.78
619.06	30279.51
619.21	30368.45
619.36	30349.73
619.51	30305.26
619.67	29851.19
619.82	30052.48
619.97	29926.09
620.12	29696.72
620.28	30148.44
620.43	30010.35
620.58	29902.68
620.73	29998.65
620.89	29895.66
621.04	30462.07
621.19	30003.33
621.34	30029.07
621.49	29937.79
621.65	29890.98
621.80	29951.84
621.95	29806.72
622.10	30017.37
622.25	29811.40
622.41	29914.39
622.56	29411.17
622.71	29951.84
622.86	29654.59
623.01	29792.68
623.16	29778.64
623.32	29699.06
623.47	29453.30
623.62	29460.32
623.77	29593.73
623.92	29668.63
624.07	29312.87
624.23	29518.84
624.38	30216.32
624.53	29724.80
624.68	29652.25
624.83	29898.00
624.98	29731.83
625.13	29434.58
625.29	29504.79
625.44	29549.26
625.59	29364.36
625.74	29296.49
625.89	29434.58
626.04	29584.37
626.19	29256.70
626.34	29134.99
626.49	29219.25
626.65	29111.58
626.80	29680.33
626.95	29404.15
627.10	29174.78
627.25	29418.19
627.40	29315.21
627.55	28872.85
627.70	29057.75
627.85	29223.93
628.00	29181.80
628.15	29326.91
628.30	28755.82
628.45	29376.06
628.60	29104.56
628.76	28814.34
628.91	29303.51
629.06	28987.53
629.21	29291.80
629.36	29050.73
629.51	28877.53
629.66	29340.96
629.81	28755.82
629.96	29067.11
630.11	28636.45
630.26	28716.03
630.41	28854.12
630.56	28559.22
630.71	28929.02
630.86	28809.65
631.01	28697.31
631.16	28975.83
631.31	28793.27
631.46	28800.29
631.61	28833.06
631.76	28210.48
631.91	28505.38
632.06	28594.32
632.21	28367.29
632.36	28353.25
632.51	28720.71
632.66	28727.74
632.81	28657.52
632.96	28767.52
633.10	28360.27
633.25	28673.90
633.40	28655.18
633.55	28783.91
633.70	28343.89
633.85	28474.96
634.00	28201.11
634.15	28327.50
634.30	28025.57
634.45	28496.02
634.60	28442.19
634.75	28327.50
634.90	28357.93
635.05	28320.48
635.19	28259.63
635.34	28456.23
635.49	28278.35
635.64	28690.29
635.79	28369.63
635.94	28381.34
636.09	28212.82
636.24	28313.46
636.39	28149.62
636.53	27967.06
636.68	28189.41
636.83	27917.91
636.98	28173.03
637.13	28053.66
637.28	28301.76
637.43	27997.49
637.57	28023.23
637.72	28107.49
637.87	28128.56
638.02	27924.93
638.17	27910.89
638.32	27955.36
638.46	27761.09
638.61	27620.66
638.76	27594.92
638.91	27349.16
639.06	27718.96
639.20	27812.59
639.35	28084.09
639.50	28065.36
639.65	28163.67
639.80	27782.16
639.94	28065.36
640.09	27777.48
640.24	27559.81
640.39	27623.00
640.54	27665.13
640.68	27761.09
640.83	27290.65
640.98	27541.08
641.13	27351.50
641.27	27948.34
641.42	27419.38
641.57	27477.89
641.72	27604.28
641.86	27311.71
642.01	26897.44
642.16	27484.91
642.31	27164.26
642.45	27503.64
642.60	27250.86
642.75	27159.58
642.90	27101.06
643.04	26984.04
643.19	27222.77
643.34	27213.41
643.48	27372.57
643.63	27438.10
643.78	27393.63
643.93	27475.55
644.07	27468.53
644.22	27264.90
644.37	27625.34
644.51	27302.35
644.66	26958.29
644.81	27129.15
644.95	27126.81
645.10	27122.13
645.25	27253.20
645.39	27243.84
645.54	27070.64
645.69	27159.58
645.83	27089.36
645.98	26998.08
646.13	26998.08
646.27	26944.25
646.42	26658.70
646.57	27276.60
646.71	26932.54
646.86	27030.85
647.00	26951.27
647.15	27035.53
647.30	26682.11
647.44	26408.26
647.59	26977.01
647.74	26796.79
647.88	26932.54
648.03	27227.45
648.17	27065.96
648.32	26979.36
648.47	26806.16
648.61	26693.81
648.76	27103.40
648.90	26845.94
649.05	26590.83
649.20	26946.59
649.34	26719.56
649.49	26340.39
649.63	26710.19
649.78	26597.85
649.92	26464.44
650.07	27077.66
650.21	26232.72
650.36	26785.09
650.51	26670.40
650.65	26600.19
650.80	26892.76
650.94	26455.08
651.09	26445.71
651.23	26148.46
651.38	26639.98
651.52	26513.59
651.67	26602.53
651.81	26419.97
651.96	26223.36
652.10	26625.93
652.25	26565.08
652.39	26438.69
652.54	26434.01
652.68	26572.10
652.83	26546.36
652.97	26471.46
653.12	26223.36
653.26	26108.68
653.41	26101.65
653.55	26214.00
653.70	26464.44
653.84	26356.77
653.99	26026.76
654.13	25827.81
654.27	26195.28
654.42	26113.36
654.56	26192.94
654.71	26192.94
654.85	26366.13
655.00	26281.88
655.14	26010.37
655.29	25919.09
655.43	26038.46
655.57	25895.69
655.72	25891.01
655.86	25876.96
656.01	25795.04
656.15	26047.82
656.30	25722.49
656.44	25685.04
656.58	25631.21
656.73	25640.57
656.87	25652.27
657.01	25757.60
657.16	25308.21
657.30	26127.40
657.45	25759.94
657.59	25900.37
657.73	25869.94
657.88	25591.42
658.02	25678.02
658.16	25556.31
658.31	25607.80
658.45	25516.52
658.60	25383.11
658.74	25982.29
658.88	25443.96
659.03	25312.89
659.17	25245.02
659.31	25429.92
659.46	25493.12
659.60	25729.51
659.74	25329.28
659.89	25216.93
660.03	25125.65
660.17	25441.62
660.32	25357.36
660.46	24954.79
660.60	25008.62
660.74	24739.46
660.89	24690.31
661.03	25106.93
661.17	25284.81
661.32	24828.40
661.46	25390.13
661.60	25111.61
661.74	25233.32
661.89	25216.93
662.03	25177.14
662.17	25029.69
662.31	24833.08
662.46	24744.14
662.60	24723.08
662.74	24629.46
662.88	24545.20
663.03	24507.75
663.17	24526.47
663.31	24577.97
663.45	24201.14
663.60	24594.35
663.74	24343.91
663.88	24421.15
664.02	24273.70
664.17	24683.29
664.31	24570.94
664.45	23997.51
664.59	24456.26
664.73	24451.58
664.88	24587.33
665.02	24049.00
665.16	24191.78
665.30	23924.96
665.44	24196.46
665.59	23779.84
665.73	24140.29
665.87	23784.52
666.01	24011.56
666.15	23826.65
666.29	24006.87
666.44	24154.33
666.58	24013.90
666.72	23632.39
666.86	23857.08
667.00	23960.06
667.14	23611.32
667.28	23838.36
667.43	23398.34
667.57	23758.78
667.71	23073.00
667.85	23616.01
667.99	23208.75
668.13	23428.76
668.27	23452.17
668.41	23356.21
668.56	23407.70
668.70	23498.98
668.84	23358.55
668.98	23585.58
669.12	23627.71
669.26	23297.69
669.40	23180.67
669.54	23330.46
669.68	23377.27
669.82	23028.53
669.96	22918.53
670.10	22944.27
670.25	23005.13
670.39	23157.26
670.53	22595.53
670.67	22766.39
670.81	23016.83
670.95	22761.71
671.09	22590.85
671.23	22773.41
671.37	23173.64
671.51	22735.96
671.65	22604.89
671.79	22525.32
671.93	22637.66
672.07	22787.46
672.21	22464.46
672.35	22148.49
672.49	22333.39
672.63	22506.59
672.77	22366.16
672.91	21891.03
673.05	22249.13
673.19	22132.11
673.33	21954.22
673.47	22225.73
673.61	22253.81
673.75	22178.92
673.89	22284.24
674.03	22209.34
674.17	21827.84
674.31	21944.86
674.45	21862.94
674.59	21806.77
674.73	21729.53
674.87	21591.44
675.01	21687.40
675.15	21472.07
675.29	21535.27
675.43	21324.62
675.56	21654.64
675.70	21561.02
675.84	21458.03
675.98	20893.96
676.12	21626.55
676.26	21797.41
676.40	21355.05
676.54	20994.61
676.68	21228.66
676.82	20865.88
676.96	21125.68
677.10	21008.65
677.23	20793.32
677.37	20662.25
677.51	20683.31
677.65	20264.36
677.79	20418.83
677.93	20463.30
678.07	20458.62
678.21	20538.20
678.34	20514.80
678.48	20140.31
678.62	20177.76
678.76	19889.87
678.90	20119.24
679.04	19908.60
679.18	20116.90
679.31	19779.87
679.45	19756.46
679.59	19880.51
679.73	19747.10
679.87	19601.99
680.00	19679.22
680.14	19688.59
680.28	19482.62
680.42	19566.88
680.56	19616.03
680.70	19496.66
680.83	19613.69
680.97	19454.53
681.11	19192.39
681.25	19061.32
681.39	19087.07
681.52	19124.52
681.66	19243.88
681.80	18977.06
681.94	19250.91
682.07	19103.45
682.21	18427.04
682.35	18466.83
682.49	18487.89
682.62	18710.24
682.76	18593.22
682.90	18150.85
683.04	18609.60
683.17	18703.22
683.31	18508.96
683.45	18396.61
683.59	18462.15
683.72	18321.71
683.86	18483.21
684.00	17947.23
684.13	18225.75
684.27	17928.50
684.41	17799.77
684.55	17846.58
684.68	17425.29
684.82	17823.18
684.96	17804.46
685.09	17598.49
685.23	17483.80
685.37	17617.21
685.50	17741.26
685.64	17479.12
685.78	17348.05
685.91	17593.81
686.05	17362.09
686.19	17460.40
686.32	17308.26
686.46	17074.21
686.60	17034.42
686.73	16655.25
686.87	16891.65
687.01	16879.94
687.14	16580.36
687.28	16624.83
687.42	16769.94
687.55	16531.20
687.69	16453.97
687.82	16489.07
687.96	16566.31
688.10	16559.29
688.23	16575.67
688.37	16393.11
688.50	16343.96
688.64	16460.99
688.78	15999.90
688.91	15960.11
689.05	16102.89
689.18	15936.71
689.32	15925.00
689.46	15721.38
689.59	15723.72
689.73	15690.95
689.86	15967.13
690.00	15988.20
690.13	15609.03
690.27	15569.24
690.41	15697.97
690.54	15396.04
690.68	15557.54
690.81	15438.17
690.95	15403.07
691.08	15253.27
691.22	15426.47
691.35	15279.02
691.49	14981.77
691.62	15260.29
691.76	14963.04
691.89	14850.70
692.03	14850.70
692.16	14611.96
692.30	14895.17
692.43	14487.92
692.57	14434.08
692.70	14771.12
692.84	14455.15
692.97	14586.22
693.11	14670.48
693.24	14265.57
693.38	14319.40
693.51	14471.53
693.65	14370.89
693.78	14326.42
693.92	14113.43
694.05	14010.45
694.19	13874.70
694.32	13898.10
694.45	13989.38
694.59	13783.41
694.72	13696.82
694.86	13783.41
694.99	13453.40
695.13	13614.90
695.26	13694.47
695.39	13465.10
695.53	13488.51
695.66	13591.49
695.80	13530.64
695.93	13460.42
696.07	13444.04
696.20	13523.62
696.33	13392.55
696.47	13153.81
696.60	13209.98
696.73	13064.87
696.87	13170.19
697.00	13172.54
697.14	12762.94
697.27	12507.82
697.40	12580.38
697.54	12648.26
697.67	12446.97
697.80	12608.47
697.94	12400.16
698.07	12528.89
698.21	12252.70
698.34	12465.69
698.47	12524.21
698.61	12517.18
698.74	12461.01
698.87	12376.75
699.01	12128.66
699.14	12226.96
699.27	12231.64
699.40	12217.60
699.54	11969.50
699.67	12011.63
699.80	12145.04
699.94	11836.09
700.07	11948.43
700.20	11590.33
700.34	11545.86
700.47	11838.43
700.60	11552.88
700.73	11726.08
700.87	11669.91
701.00	11564.59
701.13	11346.92
701.26	11396.07
701.40	11543.52
701.53	11325.85
701.66	11328.19
701.79	11197.12
701.93	11185.42
702.06	11007.54
702.19	10888.17
702.32	10958.39
702.46	10782.85
702.59	10698.59
702.72	10691.57
702.85	10640.08
702.99	10785.19
703.12	10705.61
703.25	10785.19
703.38	10434.11
703.51	10693.91
703.65	10541.77
703.78	10436.45
703.91	10286.65
704.04	10480.92
704.17	10537.09
704.31	10406.02
704.44	10333.47
704.57	10061.96
704.70	10136.86
704.83	9872.38
704.96	9886.42
705.10	9928.55
705.23	9703.86
>>>>>End Processed Spectral Data<<<<<
