SpectraSuite Data File
++++++++++++++++++++++++++++++++++++
Date: Fri Oct 18 13:58:21 GMT-05:00 2013
User: bianchi
Dark Spectrum Present: No
Reference Spectrum Present: No
Number of Sampled Component Spectra: 1
Spectrometers: USB2+H05261
Integration Time (usec): 50000 (USB2+H05261)
Spectra Averaged: 1 (USB2+H05261)
Boxcar Smoothing: 0 (USB2+H05261)
Correct for Electrical Dark: No (USB2+H05261)
Strobe/Lamp Enabled: No (USB2+H05261)
Correct for Detector Non-linearity: No (USB2+H05261)
Correct for Stray Light: No (USB2+H05261)
Number of Pixels in Processed Spectrum: 2048
>>>>>Begin Processed Spectral Data<<<<<
365.73	0.00
365.92	0.00
366.12	0.00
366.32	0.00
366.52	0.00
366.72	0.00
366.91	0.00
367.11	0.00
367.31	0.00
367.51	0.00
367.70	0.00
367.90	0.00
368.10	0.00
368.30	0.00
368.49	0.00
368.69	0.00
368.89	0.00
369.09	0.00
369.28	0.00
369.48	0.00
369.68	0.00
369.87	0.00
370.07	0.00
370.27	0.00
370.47	0.00
370.66	58.51
370.86	74.90
371.06	135.75
371.25	205.97
371.45	110.01
371.65	196.60
371.84	201.29
372.04	128.73
372.24	215.33
372.44	203.63
372.63	269.16
372.83	273.84
373.03	212.99
373.22	184.90
373.42	203.63
373.62	217.67
373.81	208.31
374.01	252.78
374.21	231.71
374.40	180.22
374.60	301.93
374.79	283.20
374.99	191.92
375.19	294.91
375.38	245.76
375.58	180.22
375.78	278.52
375.97	220.01
376.17	306.61
376.37	177.88
376.56	196.60
376.76	248.10
376.95	294.91
377.15	297.25
377.35	259.80
377.54	194.26
377.74	217.67
377.93	306.61
378.13	287.89
378.33	355.76
378.52	255.12
378.72	337.04
378.91	276.18
379.11	243.42
379.31	234.05
379.50	290.23
379.70	243.42
379.89	227.03
380.09	257.46
380.28	266.82
380.48	308.95
380.68	334.70
380.87	283.20
381.07	308.95
381.26	229.37
381.46	313.63
381.65	252.78
381.85	276.18
382.04	294.91
382.24	313.63
382.43	304.27
382.63	304.27
382.83	334.70
383.02	299.59
383.22	374.49
383.41	456.40
383.61	269.16
383.80	308.95
384.00	379.17
384.19	355.76
384.39	381.51
384.58	416.62
384.78	346.40
384.97	374.49
385.17	365.12
385.36	360.44
385.56	376.83
385.75	435.34
385.95	351.08
386.14	402.57
386.34	423.64
386.53	383.85
386.72	421.30
386.92	407.25
387.11	414.27
387.31	421.30
387.50	348.74
387.70	351.08
387.89	435.34
388.09	374.49
388.28	451.72
388.48	430.66
388.67	435.34
388.86	400.23
389.06	463.43
389.25	482.15
389.45	468.11
389.64	416.62
389.84	437.68
390.03	521.94
390.22	505.56
390.42	484.49
390.61	451.72
390.81	395.55
391.00	475.13
391.19	423.64
391.39	470.45
391.58	468.11
391.78	533.64
391.97	573.43
392.16	547.69
392.36	491.51
392.55	543.00
392.75	606.20
392.94	631.94
393.13	463.43
393.33	503.22
393.52	543.00
393.71	543.00
393.91	615.56
394.10	624.92
394.29	538.32
394.49	500.87
394.68	589.82
394.88	547.69
395.07	603.86
395.26	636.63
395.46	592.16
395.65	517.26
395.84	631.94
396.04	648.33
396.23	578.11
396.42	641.31
396.62	613.22
396.81	678.76
397.00	615.56
397.19	613.22
397.39	613.22
397.58	695.14
397.77	709.18
397.97	564.07
398.16	678.76
398.35	716.20
398.55	730.25
398.74	636.63
398.93	627.26
399.12	706.84
399.32	645.99
399.51	781.74
399.70	730.25
399.90	685.78
400.09	793.44
400.28	774.72
400.47	791.10
400.67	772.38
400.86	800.46
401.05	821.53
401.24	777.06
401.44	866.00
401.63	835.57
401.82	849.61
402.01	802.80
402.21	755.99
402.40	746.63
402.59	866.00
402.78	784.08
402.97	889.40
403.17	875.36
403.36	877.70
403.55	814.51
403.74	858.98
403.93	936.21
404.13	940.90
404.32	933.87
404.51	884.72
404.70	943.24
404.89	905.79
405.09	957.28
405.28	936.21
405.47	868.34
405.66	880.04
405.85	983.02
406.05	919.83
406.24	880.04
406.43	901.11
406.62	912.81
406.81	1158.57
407.00	964.30
407.20	926.85
407.39	987.71
407.58	999.41
407.77	1062.60
407.96	1034.52
408.15	1067.28
408.34	990.05
408.54	1090.69
408.73	1076.65
408.92	1001.75
409.11	1219.42
409.30	1083.67
409.49	1109.41
409.68	1111.75
409.87	1102.39
410.07	1196.01
410.26	1167.93
410.45	1144.52
410.64	1086.01
410.83	1160.91
411.02	1181.97
411.21	1245.16
411.40	1198.35
411.59	1299.00
411.78	1310.70
411.98	1191.33
412.17	1235.80
412.36	1210.06
412.55	1359.85
412.74	1390.28
412.93	1444.11
413.12	1324.74
413.31	1336.45
413.50	1355.17
413.69	1385.60
413.88	1385.60
414.07	1345.81
414.26	1469.86
414.45	1380.92
414.64	1511.99
414.83	1338.79
415.02	1479.22
415.22	1502.62
415.41	1481.56
415.60	1486.24
415.79	1490.92
415.98	1596.25
416.17	1568.16
416.36	1589.22
416.55	1584.54
416.74	1596.25
416.93	1563.48
417.12	1654.76
417.31	1687.53
417.50	1610.29
417.69	1769.44
417.88	1776.47
418.07	1687.53
418.26	1673.48
418.45	1788.17
418.64	1647.74
418.83	1795.19
419.02	1739.02
419.21	1764.76
419.39	1760.08
419.58	1809.23
419.77	1987.11
419.96	1813.92
420.15	1874.77
420.34	1811.57
420.53	1760.08
420.72	1975.41
420.91	1802.21
421.10	1865.41
421.29	1984.77
421.48	1886.47
421.67	1909.88
421.86	1816.26
422.05	1930.94
422.24	1935.62
422.43	1956.69
422.61	1884.13
422.80	1966.05
422.99	1926.26
423.18	1984.77
423.37	2029.24
423.56	1947.33
423.75	1959.03
423.94	1942.64
424.13	1820.94
424.32	1849.02
424.50	2087.76
424.69	1966.05
424.88	2101.80
425.07	1966.05
425.26	1996.48
425.45	2066.69
425.64	1937.96
425.83	1994.14
426.01	2024.56
426.20	1933.28
426.39	1930.94
426.58	2047.97
426.77	2090.10
426.96	2083.08
427.15	1975.41
427.33	2064.35
427.52	2029.24
427.71	2113.50
427.90	2090.10
428.09	2216.49
428.28	2188.40
428.46	2120.53
428.65	2097.12
428.84	2263.30
429.03	2282.02
429.22	2193.08
429.40	2258.62
429.59	2239.89
429.78	2146.27
429.97	2242.23
430.16	2160.31
430.34	2225.85
430.53	2300.75
430.72	2321.81
430.91	2368.62
431.10	2305.43
431.28	2270.32
431.47	2303.09
431.66	2373.30
431.85	2399.05
432.03	2363.94
432.22	2464.58
432.41	2300.75
432.60	2462.24
432.79	2427.14
432.97	2342.88
433.16	2239.89
433.35	2490.33
433.54	2392.03
433.72	2464.58
433.91	2361.60
434.10	2420.11
434.28	2399.05
434.47	2483.31
434.66	2499.69
434.85	2462.24
435.03	2565.23
435.22	2530.12
435.41	2663.53
435.59	2654.17
435.78	2590.97
435.97	2574.59
436.16	2691.62
436.34	2698.64
436.53	2668.21
436.72	2757.15
436.90	2633.10
437.09	2703.32
437.28	2677.57
437.46	2644.81
437.65	2640.12
437.84	2808.64
438.02	2654.17
438.21	2789.92
438.40	2757.15
438.58	2869.50
438.77	2890.56
438.96	2939.71
439.14	3000.57
439.33	2974.82
439.52	3012.27
439.70	2925.67
439.89	2899.92
440.08	2869.50
440.26	2904.60
440.45	2988.86
440.63	3075.46
440.82	3169.09
441.01	2928.01
441.19	3094.19
441.38	3089.51
441.57	3129.30
441.75	3148.02
441.94	3251.00
442.12	3236.96
442.31	3225.26
442.50	3325.90
442.68	3330.58
442.87	3351.65
443.05	3255.69
443.24	3307.18
443.43	3215.90
443.61	3290.79
443.80	3417.18
443.98	3307.18
444.17	3272.07
444.35	3335.26
444.54	3480.38
444.73	3405.48
444.91	3325.90
445.10	3503.78
445.28	3243.98
445.47	3321.22
445.65	3318.88
445.84	3508.46
446.02	3466.33
446.21	3384.41
446.39	3356.33
446.58	3475.70
446.77	3384.41
446.95	3353.99
447.14	3382.07
447.32	3449.95
447.51	3377.39
447.69	3503.78
447.88	3501.44
448.06	3475.70
448.25	3482.72
448.43	3557.61
448.62	3522.51
448.80	3485.06
448.99	3489.74
449.17	3534.21
449.36	3559.95
449.54	3487.40
449.73	3595.06
449.91	3669.96
450.10	3620.81
450.28	3768.26
450.46	3665.28
450.65	3796.35
450.83	3775.28
451.02	3693.37
451.20	3639.53
451.39	3712.09
451.57	3719.11
451.76	3695.71
451.94	3702.73
452.13	3812.73
452.31	3941.46
452.49	3686.34
452.68	3847.84
452.86	3721.45
453.05	3817.41
453.23	3805.71
453.42	3770.60
453.60	3763.58
453.78	3913.38
453.97	3815.07
454.15	3815.07
454.34	4028.06
454.52	4032.74
454.70	3875.93
454.89	3988.27
455.07	3997.64
455.26	4051.47
455.44	3999.98
455.62	4070.19
455.81	3983.59
455.99	3971.89
456.17	4121.68
456.36	4058.49
456.54	4203.60
456.73	4152.11
456.91	4266.80
457.09	4177.86
457.28	4250.41
457.46	4304.25
457.64	4416.59
457.83	4348.72
458.01	4297.22
458.19	4451.70
458.38	4329.99
458.56	4348.72
458.74	4334.67
458.93	4287.86
459.11	4437.66
459.29	4362.76
459.48	4489.15
459.66	4526.60
459.84	4655.33
460.03	4421.27
460.21	4535.96
460.39	4456.38
460.57	4491.49
460.76	4615.54
460.94	4585.11
461.12	4542.98
461.31	4580.43
461.49	4535.96
461.67	4512.55
461.85	4699.80
462.04	4688.09
462.22	4716.18
462.40	4774.69
462.59	4599.15
462.77	4784.06
462.95	4664.69
463.13	4652.98
463.32	4816.82
463.50	4851.93
463.68	4652.98
463.86	4835.55
464.05	4727.88
464.23	4734.90
464.41	4924.49
464.59	4765.33
464.78	4861.29
464.96	4767.67
465.14	4800.44
465.32	4924.49
465.50	5048.54
465.69	4990.02
465.87	4966.62
466.05	4964.28
466.23	4961.94
466.41	5015.77
466.60	5107.05
466.78	4987.68
466.96	4938.53
467.14	4947.89
467.32	5018.11
467.51	5071.94
467.69	4793.42
467.87	4973.64
468.05	5116.41
468.23	5025.13
468.41	5160.88
468.60	5027.47
468.78	5102.37
468.96	5027.47
469.14	5259.18
469.32	5167.90
469.50	5151.52
469.69	5359.83
469.87	5193.65
470.05	5355.15
470.23	5313.02
470.41	5420.68
470.59	5369.19
470.77	5453.45
470.95	5380.89
471.14	5448.77
471.32	5479.19
471.50	5636.01
471.68	5605.58
471.86	5600.90
472.04	5617.29
472.22	5671.12
472.40	5628.99
472.58	5542.39
472.77	5556.43
472.95	5680.48
473.13	5757.72
473.31	5874.74
473.49	5851.34
473.67	5729.63
473.85	5717.93
474.03	5849.00
474.21	5856.02
474.39	6038.58
474.57	5884.11
474.75	6052.63
474.93	6305.40
475.12	6029.22
475.30	6181.35
475.48	6054.97
475.66	6146.25
475.84	6050.28
476.02	6375.62
476.20	6307.74
476.38	6307.74
476.56	6525.41
476.74	6494.99
476.92	6347.53
477.10	6410.73
477.28	6644.78
477.46	6628.40
477.64	6604.99
477.82	6661.16
478.00	6920.96
478.18	6988.84
478.36	6850.75
478.54	6761.81
478.72	6867.13
478.90	6953.73
479.08	7068.42
479.26	7124.59
479.44	7358.64
479.62	7300.13
479.80	7250.98
479.98	7375.03
480.16	7384.39
480.34	7248.64
480.52	7379.71
480.70	7496.74
480.88	7269.70
481.06	7506.10
481.24	7679.30
481.41	7688.66
481.59	7822.07
481.77	7913.35
481.95	7967.18
482.13	8046.76
482.31	7887.61
482.49	8189.53
482.67	8135.70
482.85	8346.35
483.03	8245.71
483.21	8482.10
483.39	8461.04
483.57	8446.99
483.74	8498.49
483.92	8489.12
484.10	8514.87
484.28	8975.95
484.46	8931.48
484.64	9076.60
484.82	9020.42
485.00	8945.53
485.18	9104.68
485.35	9275.54
485.53	9228.73
485.71	9287.25
485.89	9617.26
486.07	9441.72
486.25	9540.02
486.43	9273.20
486.61	9715.56
486.78	9680.46
486.96	9736.63
487.14	9731.95
487.32	9888.76
487.50	10153.24
487.68	10139.20
487.85	10237.50
488.03	10406.02
488.21	10548.79
488.39	10455.17
488.57	10614.33
488.75	10455.17
488.92	10754.76
489.10	10920.94
489.28	10867.11
489.46	10977.11
489.64	10913.92
489.81	11243.93
489.99	11007.54
490.17	11510.75
490.35	11356.28
490.53	11501.39
490.70	11688.64
490.88	11304.79
491.06	11583.31
491.24	11744.81
491.41	11662.89
491.59	11803.32
491.77	11597.35
491.95	12032.69
492.13	11971.84
492.30	12074.82
492.48	12065.46
492.66	12140.36
492.84	12226.96
493.01	12461.01
493.19	12432.93
493.37	12458.67
493.54	12554.63
493.72	12596.76
493.90	12681.02
494.08	12833.16
494.25	13048.49
494.43	13015.72
494.61	13064.87
494.79	13064.87
494.96	13177.22
495.14	13345.73
495.32	13254.45
495.49	13547.02
495.67	13518.93
495.85	13633.62
496.02	13678.09
496.20	13678.09
496.38	14031.51
496.55	13734.26
496.73	14019.81
496.91	14050.24
497.09	14136.84
497.26	14160.24
497.44	14068.96
497.62	14083.00
497.79	14420.04
497.97	14389.61
498.14	14551.11
498.32	14846.02
498.50	14583.88
498.67	14555.79
498.85	14640.05
499.03	14696.22
499.20	14757.08
499.38	14984.11
499.56	14824.95
499.73	15272.00
499.91	15269.66
500.08	15194.76
500.26	15272.00
500.44	15183.06
500.61	15173.69
500.79	15178.37
500.97	15630.10
501.14	15644.14
501.32	15831.38
501.49	15585.63
501.67	15480.30
501.84	15644.14
502.02	15786.91
502.20	15803.30
502.37	16081.82
502.55	15866.49
502.72	16119.27
502.90	15920.32
503.07	16100.55
503.25	16086.50
503.43	16018.63
503.60	16177.78
503.78	16222.25
503.95	16095.86
504.13	16215.23
504.30	16587.38
504.48	16341.62
504.65	16400.13
504.83	16428.22
505.01	16786.32
505.18	16798.02
505.36	17053.14
505.53	16753.55
505.71	16844.84
505.88	16758.24
506.06	16666.95
506.23	17022.72
506.41	17046.12
506.58	17193.58
506.76	17343.37
506.93	17277.83
507.11	17153.79
507.28	17385.50
507.46	17357.41
507.63	17458.06
507.81	17542.32
507.98	17406.56
508.16	17537.63
508.33	17444.01
508.50	17460.40
508.68	17640.62
508.85	17975.31
509.03	17710.83
509.20	18029.15
509.38	18190.64
509.55	18197.67
509.73	18181.28
509.90	18221.07
510.08	18523.00
510.25	18015.10
510.42	18347.46
510.60	18263.20
510.77	18525.34
510.95	18721.95
511.12	18328.74
511.30	18104.04
511.47	18635.35
511.64	18445.76
511.82	18743.01
511.99	18679.82
512.17	18719.60
512.34	18991.11
512.51	19208.78
512.69	18909.19
512.86	19094.09
513.04	19124.52
513.21	19145.58
513.38	19339.85
513.56	19307.08
513.73	19110.47
513.90	19166.65
514.08	19073.03
514.25	19248.57
514.43	19255.59
514.60	19412.40
514.77	19601.99
514.95	19702.63
515.12	19281.33
515.29	19571.56
515.47	19672.20
515.64	19772.85
515.81	19840.72
515.99	20119.24
516.16	20077.12
516.33	19824.34
516.51	19997.54
516.68	19850.08
516.85	20065.41
517.03	19932.00
517.20	20126.27
517.37	20402.45
517.54	20306.49
517.72	20170.74
517.89	20456.28
518.06	20552.24
518.24	20393.09
518.41	20177.76
518.58	20617.78
518.75	20439.90
518.93	20760.55
519.10	20690.34
519.27	20482.03
519.45	20664.59
519.62	20678.63
519.79	20826.09
519.96	20823.75
520.14	20891.62
520.31	20486.71
520.48	21401.86
520.65	20844.81
520.83	21280.15
521.00	21008.65
521.17	21069.50
521.34	21228.66
521.52	21193.55
521.69	21390.16
521.86	21266.11
522.03	21472.07
522.20	21666.34
522.38	21490.80
522.55	21436.97
522.72	21645.27
522.89	21518.89
523.07	21832.52
523.24	21778.68
523.41	21694.43
523.58	21640.59
523.75	22267.86
523.92	21638.25
524.10	21958.91
524.27	21888.69
524.44	22024.44
524.61	22265.52
524.78	22312.33
524.96	22036.14
525.13	22361.48
525.30	22209.34
525.47	22274.88
525.64	22260.84
525.81	22155.51
525.98	22375.52
526.16	22391.91
526.33	22452.76
526.50	22473.82
526.67	22307.65
526.84	22602.55
527.01	22398.93
527.18	22750.01
527.36	22511.27
527.53	23040.23
527.70	22974.70
527.87	23075.34
528.04	22941.93
528.21	22869.37
528.38	22890.44
528.55	22838.95
528.72	23075.34
528.89	23129.17
529.07	23091.73
529.24	23545.79
529.41	23143.22
529.58	22958.31
529.75	22944.27
529.92	23164.28
530.09	23044.91
530.26	23379.61
530.43	23290.67
530.60	23337.48
530.77	23435.78
530.94	23508.34
531.11	23293.01
531.28	23384.29
531.46	23747.08
531.63	23627.71
531.80	23845.38
531.97	23751.76
532.14	23737.71
532.31	23676.86
532.48	23737.71
532.65	23716.65
532.82	23786.86
532.99	23805.59
533.16	23751.76
533.33	24203.48
533.50	24051.34
533.67	24428.17
533.84	23913.25
534.01	24023.26
534.18	23770.48
534.35	24290.08
534.52	24063.05
534.69	24020.92
534.86	24486.68
535.03	24367.32
535.20	24065.39
535.37	24577.97
535.54	24404.77
535.71	24159.01
535.88	24119.22
536.05	24395.40
536.22	24453.92
536.38	24556.90
536.55	24584.99
536.72	24652.86
536.89	24683.29
537.06	24805.00
537.23	24652.86
537.40	24833.08
537.57	24533.50
537.74	24704.35
537.91	24702.01
538.08	24826.06
538.25	24676.27
538.42	24985.22
538.59	24964.15
538.75	24952.45
538.92	24971.18
539.09	24797.98
539.26	25076.50
539.43	25329.28
539.60	25518.86
539.77	25008.62
539.94	25048.41
540.11	25055.43
540.28	25212.25
540.44	25284.81
540.61	25371.41
540.78	24971.18
540.95	25268.42
541.12	25291.83
541.29	25256.72
541.46	25551.63
541.62	25656.95
541.79	25408.86
541.96	25221.61
542.13	25376.09
542.30	25614.82
542.47	25848.88
542.63	26087.61
542.80	26054.84
542.97	25729.51
543.14	25956.54
543.31	26061.87
543.48	25909.73
543.64	26012.71
543.81	26235.06
543.98	26071.23
544.15	26127.40
544.32	26150.81
544.48	26415.29
544.65	26209.32
544.82	26022.08
544.99	25790.36
545.16	26586.15
545.32	26209.32
545.49	26398.90
545.66	26583.80
545.83	26607.21
546.00	26836.58
546.16	26342.73
546.33	26111.02
546.50	26106.34
546.67	26487.84
546.83	26267.83
547.00	26581.46
547.17	26618.91
547.34	26214.00
547.50	26698.49
547.67	26843.60
547.84	26918.50
548.00	26434.01
548.17	26733.60
548.34	26679.77
548.51	26693.81
548.67	26878.71
548.84	27028.51
549.01	26773.39
549.18	27117.45
549.34	26686.79
549.51	26855.31
549.68	26696.15
549.84	27171.28
550.01	26939.57
550.18	26628.27
550.34	27105.74
550.51	26937.23
550.68	27084.68
550.84	27033.19
551.01	27227.45
551.18	27091.70
551.34	27033.19
551.51	27005.10
551.68	27077.66
551.84	27161.92
552.01	27676.83
552.18	27264.90
552.34	27236.81
552.51	27627.68
552.68	27051.91
552.84	27262.56
553.01	27634.71
553.18	27517.68
553.34	27468.53
553.51	27613.64
553.67	27828.97
553.84	27934.29
554.01	27833.65
554.17	27597.26
554.34	27470.87
554.51	27365.54
554.67	27894.50
554.84	27990.47
555.00	27459.16
555.17	27428.74
555.33	27850.03
555.50	27772.80
555.67	27880.46
555.83	27749.39
556.00	27721.30
556.16	27868.76
556.33	27672.15
556.50	27756.41
556.66	28027.92
556.83	27990.47
556.99	28294.74
557.16	28166.01
557.32	28091.11
557.49	28493.68
557.65	27742.37
557.82	27716.62
557.98	28283.03
558.15	28194.09
558.32	28023.23
558.48	28210.48
558.65	28369.63
558.81	28250.27
558.98	28409.42
559.14	28067.70
559.31	28098.13
559.47	27997.49
559.64	28386.02
559.80	28577.94
559.97	28290.06
560.13	28182.39
560.30	28212.82
560.46	28521.77
560.63	28151.96
560.79	28098.13
560.96	28610.71
561.12	28636.45
561.29	28135.58
561.45	28430.49
561.61	28620.07
561.78	28481.98
561.94	28446.87
562.11	28690.29
562.27	28606.03
562.44	28540.49
562.60	28489.00
562.77	28278.35
562.93	28741.78
563.10	28893.91
563.26	28566.24
563.42	28947.75
563.59	28657.52
563.75	28659.86
563.92	28692.63
564.08	28879.87
564.24	28566.24
564.41	28655.18
564.57	28704.33
564.74	28896.25
564.90	28727.74
565.07	28606.03
565.23	28531.13
565.39	28711.35
565.56	28802.63
565.72	28540.49
565.88	29139.67
566.05	28673.90
566.21	28769.86
566.38	28945.41
566.54	28379.00
566.70	28837.74
566.87	28851.78
567.03	28793.27
567.19	29048.39
567.36	29139.67
567.52	28662.20
567.68	28875.19
567.85	28968.81
568.01	29254.36
568.17	28929.02
568.34	29259.04
568.50	28802.63
568.66	28744.12
568.83	29177.12
568.99	29247.33
569.15	28896.25
569.32	29017.96
569.48	28573.26
569.64	29008.60
569.81	29205.20
569.97	28788.59
570.13	28903.28
570.30	29184.14
570.46	29142.01
570.62	29160.73
570.78	28905.62
570.95	28912.64
571.11	28961.79
571.27	28737.10
571.43	28809.65
571.60	28917.32
571.76	29291.80
571.92	29053.07
572.09	29043.71
572.25	28877.53
572.41	29240.31
572.57	28896.25
572.74	29565.65
572.90	28879.87
573.06	29160.73
573.22	29092.86
573.38	28917.32
573.55	29268.40
573.71	29422.87
573.87	29254.36
574.03	29144.35
574.20	29184.14
574.36	29216.91
574.52	29034.35
574.68	28858.81
574.84	29069.45
575.01	28929.02
575.17	29450.96
575.33	29163.08
575.49	29319.89
575.65	29483.73
575.82	29209.89
575.98	29383.09
576.14	29759.91
576.30	29015.62
576.46	29167.76
576.62	28936.04
576.79	29312.87
576.95	29240.31
577.11	29336.27
577.27	29376.06
577.43	29268.40
577.59	29252.02
577.75	29392.45
577.92	29151.37
578.08	29132.65
578.24	29111.58
578.40	29181.80
578.56	29074.13
578.72	29291.80
578.88	29596.07
579.04	29467.34
579.21	29443.94
579.37	29207.55
579.53	29584.37
579.69	29443.94
579.85	29380.74
580.01	29446.28
580.17	29078.82
580.33	29280.10
580.49	29528.20
580.65	29418.19
580.82	29441.60
580.98	29324.57
581.14	29453.30
581.30	29404.15
581.46	29146.69
581.62	29340.96
581.78	29076.48
581.94	29567.99
582.10	29624.16
582.26	29294.14
582.42	29352.66
582.58	29144.35
582.74	29610.12
582.90	29420.53
583.06	29930.77
583.22	29539.90
583.38	29345.64
583.54	29422.87
583.70	29525.86
583.86	29472.03
584.02	29280.10
584.18	29497.77
584.34	29677.99
584.50	29443.94
584.66	29553.94
584.82	29357.34
584.98	29336.27
585.14	29453.30
585.30	29233.29
585.46	29570.33
585.62	29113.92
585.78	29523.52
585.94	29537.56
586.10	29352.66
586.26	29591.39
586.42	29516.50
586.58	29670.97
586.74	29462.66
586.90	29160.73
587.06	29252.02
587.22	29687.36
587.38	29621.82
587.54	29551.60
587.70	29902.68
587.86	29666.29
588.02	29607.78
588.18	29727.14
588.34	29841.83
588.49	29469.69
588.65	29579.69
588.81	29425.22
588.97	29670.97
589.13	29596.07
589.29	29495.43
589.45	29759.91
589.61	30202.27
589.77	29916.73
589.93	29605.44
590.08	29919.07
590.24	29989.28
590.40	30181.21
590.56	29869.92
590.72	29521.18
590.88	29436.92
591.04	29427.56
591.20	29837.15
591.35	29930.77
591.51	29989.28
591.67	30307.60
591.83	30235.04
591.99	29926.09
592.15	29738.85
592.31	29603.10
592.46	29874.60
592.62	29780.98
592.78	29701.40
592.94	29883.96
593.10	29830.13
593.26	29788.00
593.41	30017.37
593.57	30101.63
593.73	29869.92
593.89	29797.36
594.05	29717.78
594.20	29694.38
594.36	30045.46
594.52	29799.70
594.68	29933.11
594.84	30096.95
594.99	30089.93
595.15	30031.41
595.31	29965.88
595.47	29928.43
595.62	30125.04
595.78	29928.43
595.94	29766.93
596.10	29837.15
596.25	29928.43
596.41	29748.21
596.57	29551.60
596.73	29907.37
596.88	29963.54
597.04	30043.12
597.20	30199.93
597.36	29993.97
597.51	30270.15
597.67	30068.86
597.83	30080.56
597.99	29853.53
598.14	29881.62
598.30	29696.72
598.46	30136.74
598.61	30040.78
598.77	29876.94
598.93	30096.95
599.09	30045.46
599.24	29933.11
599.40	30223.34
599.56	30015.03
599.71	29935.45
599.87	29858.21
600.03	30050.14
600.18	29949.50
600.34	29984.60
600.50	29923.75
600.65	29596.07
600.81	30073.54
600.97	30316.96
601.12	30501.86
601.28	30284.19
601.44	30043.12
601.59	30340.36
601.75	29865.24
601.91	29979.92
602.06	30136.74
602.22	30455.05
602.37	29921.41
602.53	29930.77
602.69	30553.35
602.84	30155.46
603.00	30024.39
603.16	29542.24
603.31	29926.09
603.47	30338.02
603.62	29841.83
603.78	29916.73
603.94	29827.79
604.09	29755.23
604.25	29905.02
604.40	29851.19
604.56	30295.89
604.71	30108.65
604.87	30073.54
605.03	30314.62
605.18	30209.29
605.34	29858.21
605.49	29677.99
605.65	29940.13
605.80	29626.50
605.96	29944.81
606.12	29993.97
606.27	30167.16
606.43	29872.26
606.58	29795.02
606.74	29940.13
606.89	29729.48
607.05	29921.41
607.20	30181.21
607.36	29926.09
607.51	30008.01
607.67	29860.55
607.82	29872.26
607.98	29708.42
608.13	29940.13
608.29	29532.88
608.44	30000.99
608.60	29797.36
608.75	30178.87
608.91	30143.76
609.06	29731.83
609.22	29832.47
609.37	29773.95
609.53	29755.23
609.68	29661.61
609.84	29844.17
609.99	29462.66
610.15	29521.18
610.30	30000.99
610.46	29886.30
610.61	29748.21
610.76	29862.90
610.92	29757.57
611.07	29640.54
611.23	29788.00
611.38	29401.81
611.54	29336.27
611.69	29544.58
611.84	29530.54
612.00	29333.93
612.15	29345.64
612.31	29890.98
612.46	29567.99
612.62	29890.98
612.77	29729.48
612.92	29757.57
613.08	29439.26
613.23	29619.48
613.39	29518.84
613.54	29448.62
613.69	29326.91
613.85	29441.60
614.00	29553.94
614.15	29567.99
614.31	29441.60
614.46	29802.04
614.62	29511.81
614.77	29432.24
614.92	29488.41
615.08	29134.99
615.23	29289.46
615.38	29312.87
615.54	29067.11
615.69	29120.95
615.84	29165.42
616.00	29357.34
616.15	29350.32
616.30	29455.64
616.46	29191.16
616.61	29369.04
616.76	29329.25
616.92	29170.10
617.07	29170.10
617.22	28826.04
617.37	29586.71
617.53	29156.05
617.68	29326.91
617.83	29163.08
617.99	29301.17
618.14	28849.44
618.29	29172.44
618.45	29134.99
618.60	28924.34
618.75	29331.59
618.90	28968.81
619.06	28957.11
619.21	28620.07
619.36	29132.65
619.51	28725.39
619.67	28746.46
619.82	28624.75
619.97	28980.51
620.12	29001.58
620.28	28929.02
620.43	29404.15
620.58	29235.63
620.73	28868.17
620.89	29099.88
621.04	28884.55
621.19	28884.55
621.34	29006.26
621.49	28397.72
621.65	28460.91
621.80	29076.48
621.95	28655.18
622.10	28737.10
622.25	28369.63
622.41	28327.50
622.56	28849.44
622.71	28966.47
622.86	28613.05
623.01	28645.82
623.16	28552.20
623.32	28648.16
623.47	28510.07
623.62	28748.80
623.77	28320.48
623.92	28737.10
624.07	28545.17
624.23	28149.62
624.38	28786.25
624.53	28737.10
624.68	28620.07
624.83	28891.57
624.98	28669.22
625.13	28257.29
625.29	28299.42
625.44	28322.82
625.59	27812.59
625.74	28245.58
625.89	28194.09
626.04	27871.10
626.19	28386.02
626.34	27903.87
626.49	28205.80
626.65	27906.21
626.80	28126.22
626.95	28121.54
627.10	28236.22
627.25	27601.94
627.40	27885.14
627.55	27929.61
627.70	27953.02
627.85	27810.25
628.00	28072.39
628.15	28032.60
628.30	28144.94
628.45	28182.39
628.60	27840.67
628.76	28051.32
628.91	28311.12
629.06	27901.53
629.21	28187.07
629.36	27988.13
629.51	27775.14
629.66	27697.90
629.81	28058.34
629.96	27971.74
630.11	27632.36
630.26	27772.80
630.41	27639.39
630.56	27676.83
630.71	27505.98
630.86	27812.59
631.01	27632.36
631.16	27857.06
631.31	27742.37
631.46	27527.04
631.61	27599.60
631.76	27824.29
631.91	27463.85
632.06	27608.96
632.21	27711.94
632.36	27578.53
632.51	27501.29
632.66	27854.72
632.81	27192.34
632.96	27777.48
633.10	27342.14
633.25	27480.23
633.40	27449.80
633.55	27878.12
633.70	27491.93
633.85	27065.96
634.00	27356.18
634.15	27337.46
634.30	27084.68
634.45	27150.21
634.60	27101.06
634.75	27232.13
634.90	27091.70
635.05	27152.55
635.19	27105.74
635.34	27388.95
635.49	27339.80
635.64	26916.16
635.79	27227.45
635.94	27606.62
636.09	27094.04
636.24	26747.64
636.39	26749.98
636.53	26651.68
636.68	27182.98
636.83	26972.33
636.98	27302.35
637.13	27150.21
637.28	26871.69
637.43	27339.80
637.57	27281.28
637.72	26850.63
637.87	27103.40
638.02	26951.27
638.17	27056.59
638.32	26820.20
638.46	26888.07
638.61	26649.34
638.76	26565.08
638.91	26459.76
639.06	27047.23
639.20	26920.84
639.35	26719.56
639.50	26939.57
639.65	26867.01
639.80	26616.57
639.94	26848.29
640.09	26920.84
640.24	26579.12
640.39	26525.29
640.54	26724.24
640.68	26497.20
640.83	26567.42
640.98	26434.01
641.13	26160.17
641.27	26455.08
641.42	26696.15
641.57	26614.23
641.72	26607.21
641.86	26525.29
642.01	26178.89
642.16	26609.55
642.31	26410.60
642.45	26071.23
642.60	26246.77
642.75	26204.64
642.90	26157.83
643.04	26328.69
643.19	26253.79
643.34	25940.16
643.48	26197.62
643.63	26569.76
643.78	26544.02
643.93	26211.66
644.07	26162.51
644.22	25912.07
644.37	26363.79
644.51	26513.59
644.66	25991.65
644.81	25954.20
644.95	26118.04
645.10	26415.29
645.25	25902.71
645.39	25961.22
645.54	26183.57
645.69	26089.95
645.83	25970.58
645.98	26302.94
646.13	26136.76
646.27	26286.56
646.42	26047.82
646.57	26225.70
646.71	25809.09
646.86	25984.63
647.00	26068.89
647.15	25355.02
647.30	25844.20
647.44	25972.92
647.59	25738.87
647.74	25750.57
647.88	25982.29
648.03	26005.69
648.17	25804.41
648.32	25860.58
648.47	26068.89
648.61	25799.73
648.76	25963.56
648.90	26157.83
649.05	25895.69
649.20	25692.06
649.34	25532.90
649.49	25399.49
649.63	25422.90
649.78	25448.64
649.92	25460.35
650.07	25694.40
650.21	25500.14
650.36	25802.07
650.51	25340.98
650.65	25378.43
650.80	25366.73
650.94	25436.94
651.09	25467.37
651.23	25275.45
651.38	25490.77
651.52	25149.06
651.67	25399.49
651.81	25708.44
651.96	25720.15
652.10	25633.55
652.25	25303.53
652.39	25621.84
652.54	25329.28
652.68	25256.72
652.83	25137.35
652.97	25247.36
653.12	25013.31
653.26	25055.43
653.41	25518.86
653.55	25057.78
653.70	25523.54
653.84	24987.56
653.99	24875.21
654.13	25043.73
654.27	25291.83
654.42	25104.59
654.56	25280.13
654.71	25043.73
654.85	25092.88
655.00	25209.91
655.14	25034.37
655.29	25102.25
655.43	25209.91
655.57	24755.85
655.72	24828.40
655.86	25284.81
656.01	25006.28
656.15	24524.13
656.30	24666.91
656.44	24936.07
656.58	24428.17
656.73	24662.22
656.87	25032.03
657.01	24711.38
657.16	24634.14
657.30	24819.04
657.45	24945.43
657.59	24865.85
657.73	24444.56
657.88	24477.32
658.02	24608.39
658.16	24402.43
658.31	25158.42
658.45	24343.91
658.60	24233.91
658.74	24428.17
658.88	24404.77
659.03	24290.08
659.17	24606.05
659.31	24278.38
659.46	24325.19
659.60	24259.65
659.74	24189.44
659.89	24325.19
660.03	24486.68
660.17	23946.02
660.32	24074.75
660.46	23868.78
660.60	23826.65
660.74	23985.81
660.89	23992.83
661.03	23569.19
661.17	23995.17
661.32	23894.53
661.46	24231.57
661.60	23887.51
661.74	23803.25
661.89	24189.44
662.03	23742.39
662.17	23934.32
662.31	23707.29
662.46	23896.87
662.60	23927.30
662.74	23777.50
662.88	23484.94
663.03	23131.51
663.17	23360.89
663.31	23044.91
663.45	23454.51
663.60	23562.17
663.74	23470.89
663.88	23557.49
664.02	23180.67
664.17	23627.71
664.31	23063.64
664.45	23068.32
664.59	23482.59
664.73	23241.52
664.88	23145.56
665.02	22874.06
665.16	23346.84
665.30	23365.57
665.44	22899.80
665.59	22927.89
665.73	22789.80
665.87	23042.57
666.01	22986.40
666.15	22972.36
666.29	22906.82
666.44	23094.07
666.58	22719.58
666.72	22838.95
666.86	22927.89
667.00	22885.76
667.14	23047.26
667.28	22757.03
667.43	22583.83
667.57	22539.36
667.71	22335.73
667.85	22466.80
667.99	22265.52
668.13	22625.96
668.27	22588.51
668.41	22621.28
668.56	22394.25
668.70	22630.64
668.84	22588.51
668.98	22525.32
669.12	22307.65
669.26	22256.15
669.40	22047.85
669.54	22471.48
669.68	22277.22
669.82	22389.56
669.96	21951.88
670.10	21628.89
670.25	21961.25
670.39	22057.21
670.53	22012.74
670.67	21891.03
670.81	21792.73
670.95	21902.73
671.09	22080.61
671.23	21589.10
671.37	21853.58
671.51	21823.16
671.65	21886.35
671.79	21797.41
671.93	21764.64
672.07	21956.57
672.21	21556.33
672.35	21174.83
672.49	21371.43
672.63	21357.39
672.77	21163.12
672.91	21284.83
673.05	21385.47
673.19	21036.74
673.33	21116.31
673.47	21287.17
673.61	21582.08
673.75	21200.57
673.89	21109.29
674.03	21200.57
674.17	21160.78
674.31	21027.37
674.45	20847.15
674.59	20730.12
674.73	20737.15
674.87	20908.01
675.01	20788.64
675.15	20400.11
675.29	20496.07
675.43	20620.12
675.56	20346.28
675.70	20704.38
675.84	20297.13
675.98	20133.29
676.12	20872.90
676.26	20585.01
676.40	20528.84
676.54	20315.85
676.68	20105.20
676.82	20100.52
676.96	20063.07
677.10	19983.49
677.23	19880.51
677.37	19983.49
677.51	19866.47
677.65	19978.81
677.79	19541.13
677.93	19817.32
678.07	19824.34
678.21	19494.32
678.34	19349.21
678.48	19407.72
678.62	19419.42
678.76	19321.12
678.90	19480.28
679.04	19342.19
679.18	19105.79
679.31	19152.60
679.45	18853.02
679.59	19049.62
679.73	18883.44
679.87	18796.84
680.00	18754.71
680.14	18490.23
680.28	18611.94
680.42	18906.85
680.56	18611.94
680.70	18476.19
680.83	18513.64
680.97	18476.19
681.11	18572.15
681.25	18059.57
681.39	18272.56
681.52	18338.10
681.66	18284.26
681.80	18148.51
681.94	18099.36
682.07	17717.86
682.21	17865.31
682.35	17582.10
682.49	17813.82
682.62	17767.01
682.76	17862.97
682.90	17940.21
683.04	17781.05
683.17	17605.51
683.31	17720.20
683.45	18001.06
683.59	17408.90
683.72	17458.06
683.86	17397.20
684.00	17542.32
684.13	17282.52
684.27	17408.90
684.41	16950.16
684.55	17043.78
684.68	16856.54
684.82	16901.01
684.96	16805.05
685.09	16821.43
685.23	16620.14
685.37	16716.11
685.50	16912.71
685.64	16606.10
685.78	16826.11
685.91	16662.27
686.05	16723.13
686.19	16442.26
686.32	16613.12
686.46	16416.52
686.60	16304.17
686.73	16386.09
686.87	16049.05
687.01	16212.89
687.14	15896.92
687.28	16189.49
687.42	16051.39
687.55	15777.55
687.69	16137.99
687.82	15791.59
687.96	15908.62
688.10	15637.12
688.23	15852.45
688.37	15653.50
688.50	15534.14
688.64	15517.75
688.78	15538.82
688.91	15304.76
689.05	15274.34
689.18	15082.41
689.32	15087.09
689.46	15262.63
689.59	15204.12
689.73	14932.62
689.86	14918.57
690.00	15040.28
690.13	14949.00
690.27	14609.62
690.41	15014.54
690.54	15035.60
690.68	14761.76
690.81	14862.40
690.95	14785.16
691.08	14647.07
691.22	14679.84
691.35	14703.25
691.49	14644.73
691.62	14281.95
691.76	14415.36
691.89	14576.86
692.03	14270.25
692.16	13975.34
692.30	14005.77
692.43	13998.74
692.57	13907.46
692.70	14085.34
692.84	13767.03
692.97	14047.90
693.11	13935.55
693.24	13706.18
693.38	13886.40
693.51	13891.08
693.65	13495.53
693.78	13628.94
693.92	13507.23
694.05	13495.53
694.19	13500.21
694.32	13188.92
694.45	13542.34
694.59	13357.44
694.72	13205.30
694.86	13128.06
694.99	13008.70
695.13	13224.03
695.26	13076.57
695.39	12805.07
695.53	12809.75
695.66	13092.96
695.80	12922.10
695.93	12769.96
696.07	12755.92
696.20	12809.75
696.33	12980.61
696.47	12671.66
696.60	12685.70
696.73	12692.73
696.87	12482.08
697.00	12152.06
697.14	12278.45
697.27	12123.98
697.40	11913.33
697.54	12140.36
697.67	12030.35
697.80	12121.63
697.94	11981.20
698.07	11908.65
698.21	11564.59
698.34	11906.31
698.47	12030.35
698.61	11861.84
698.74	11934.39
698.87	11925.03
699.01	11819.71
699.14	11674.59
699.27	11503.73
699.40	11417.13
699.54	11609.06
699.67	11492.03
699.80	11473.31
699.94	11138.61
700.07	11328.19
700.20	11246.27
700.34	11225.21
700.47	11075.42
700.60	11115.20
700.73	11150.31
700.87	11075.42
701.00	10932.64
701.13	11047.33
701.26	10902.22
701.40	10953.71
701.53	10782.85
701.66	10970.09
701.79	10754.76
701.93	10740.72
702.06	10581.56
702.19	10373.25
702.32	10333.47
702.46	10324.10
702.59	10359.21
702.72	10272.61
702.85	10326.44
702.99	10274.95
703.12	10223.46
703.25	10029.20
703.38	10127.50
703.51	10319.42
703.65	10118.14
703.78	9877.06
703.91	10064.30
704.04	10026.86
704.17	10099.41
704.31	10155.58
704.44	9867.70
704.57	9750.67
704.70	9811.53
704.83	9554.07
704.96	9495.55
705.10	9572.79
705.23	9509.60
>>>>>End Processed Spectral Data<<<<<
