SpectraSuite Data File
++++++++++++++++++++++++++++++++++++
Date: Fri Oct 18 13:58:13 GMT-05:00 2013
User: bianchi
Dark Spectrum Present: No
Reference Spectrum Present: No
Number of Sampled Component Spectra: 1
Spectrometers: USB2+H05261
Integration Time (usec): 50000 (USB2+H05261)
Spectra Averaged: 1 (USB2+H05261)
Boxcar Smoothing: 0 (USB2+H05261)
Correct for Electrical Dark: No (USB2+H05261)
Strobe/Lamp Enabled: No (USB2+H05261)
Correct for Detector Non-linearity: No (USB2+H05261)
Correct for Stray Light: No (USB2+H05261)
Number of Pixels in Processed Spectrum: 2048
>>>>>Begin Processed Spectral Data<<<<<
365.73	0.00
365.92	0.00
366.12	0.00
366.32	0.00
366.52	0.00
366.72	0.00
366.91	0.00
367.11	0.00
367.31	0.00
367.51	0.00
367.70	0.00
367.90	0.00
368.10	0.00
368.30	0.00
368.49	0.00
368.69	0.00
368.89	0.00
369.09	0.00
369.28	0.00
369.48	0.00
369.68	0.00
369.87	0.00
370.07	0.00
370.27	0.00
370.47	16.38
370.66	72.56
370.86	93.62
371.06	107.66
371.25	168.52
371.45	163.84
371.65	135.75
371.84	138.09
372.04	110.01
372.24	135.75
372.44	215.33
372.63	184.90
372.83	187.24
373.03	173.20
373.22	173.20
373.42	220.01
373.62	250.44
373.81	170.86
374.01	266.82
374.21	255.12
374.40	236.39
374.60	245.76
374.79	294.91
374.99	255.12
375.19	273.84
375.38	241.08
375.58	205.97
375.78	285.55
375.97	290.23
376.17	322.99
376.37	252.78
376.56	217.67
376.76	280.86
376.95	222.35
377.15	257.46
377.35	313.63
377.54	301.93
377.74	278.52
377.93	276.18
378.13	320.65
378.33	273.84
378.52	290.23
378.72	276.18
378.91	351.08
379.11	358.10
379.31	344.06
379.50	297.25
379.70	276.18
379.89	257.46
380.09	306.61
380.28	402.57
380.48	262.14
380.68	297.25
380.87	337.04
381.07	273.84
381.26	294.91
381.46	322.99
381.65	365.12
381.85	266.82
382.04	404.91
382.24	311.29
382.43	252.78
382.63	318.31
382.83	311.29
383.02	362.78
383.22	355.76
383.41	362.78
383.61	411.93
383.80	353.42
384.00	416.62
384.19	337.04
384.39	416.62
384.58	304.27
384.78	402.57
384.97	376.83
385.17	325.33
385.36	435.34
385.56	344.06
385.75	365.12
385.95	428.32
386.14	447.04
386.34	390.87
386.53	393.21
386.72	390.87
386.92	447.04
387.11	409.59
387.31	381.51
387.50	486.83
387.70	318.31
387.89	437.68
388.09	447.04
388.28	444.70
388.48	433.00
388.67	463.43
388.86	510.24
389.06	484.49
389.25	477.47
389.45	411.93
389.64	524.28
389.84	531.30
390.03	521.94
390.22	550.03
390.42	486.83
390.61	475.13
390.81	449.38
391.00	526.62
391.19	561.73
391.39	472.79
391.58	538.32
391.78	505.56
391.97	531.30
392.16	578.11
392.36	550.03
392.55	624.92
392.75	543.00
392.94	468.11
393.13	503.22
393.33	575.77
393.52	582.79
393.71	528.96
393.91	521.94
394.10	636.63
394.29	512.58
394.49	636.63
394.68	617.90
394.88	554.71
395.07	664.71
395.26	568.75
395.46	596.84
395.65	699.82
395.84	573.43
396.04	758.33
396.23	704.50
396.42	674.07
396.62	692.80
396.81	615.56
397.00	592.16
397.19	606.20
397.39	620.24
397.58	695.14
397.77	624.92
397.97	699.82
398.16	720.88
398.35	770.04
398.55	751.31
398.74	695.14
398.93	711.52
399.12	734.93
399.32	587.47
399.51	709.18
399.70	751.31
399.90	835.57
400.09	774.72
400.28	718.54
400.47	805.14
400.67	866.00
400.86	835.57
401.05	744.29
401.24	849.61
401.44	788.76
401.63	809.83
401.82	800.46
402.01	781.74
402.21	823.87
402.40	802.80
402.59	863.66
402.78	788.76
402.97	840.25
403.17	866.00
403.36	812.17
403.55	887.06
403.74	837.91
403.93	933.87
404.13	931.53
404.32	908.13
404.51	940.90
404.70	973.66
404.89	854.30
405.09	882.38
405.28	882.38
405.47	964.30
405.66	1046.22
405.85	1022.81
406.05	1018.13
406.24	1020.47
406.43	1064.94
406.62	1041.54
406.81	1109.41
407.00	1050.90
407.20	931.53
407.39	1111.75
407.58	1139.84
407.77	1088.35
407.96	1097.71
408.15	1036.86
408.34	1090.69
408.54	1156.22
408.73	1128.14
408.92	1165.59
409.11	1114.10
409.30	1158.57
409.49	1158.57
409.68	1153.88
409.87	1200.69
410.07	1177.29
410.26	1219.42
410.45	1158.57
410.64	1163.25
410.83	1242.82
411.02	1266.23
411.21	1245.16
411.40	1294.32
411.59	1263.89
411.78	1240.48
411.98	1329.42
412.17	1394.96
412.36	1345.81
412.55	1357.51
412.74	1390.28
412.93	1343.47
413.12	1357.51
413.31	1423.05
413.50	1397.30
413.69	1434.75
413.88	1448.79
414.07	1441.77
414.26	1483.90
414.45	1462.83
414.64	1446.45
414.83	1509.65
415.02	1535.39
415.22	1493.26
415.41	1579.86
415.60	1687.53
415.79	1643.06
415.98	1661.78
416.17	1540.07
416.36	1638.38
416.55	1717.95
416.74	1729.66
416.93	1694.55
417.12	1741.36
417.31	1795.19
417.50	1687.53
417.69	1809.23
417.88	1692.21
418.07	1860.73
418.26	1806.89
418.45	1760.08
418.64	1872.43
418.83	1830.30
419.02	1760.08
419.21	1774.13
419.39	1811.57
419.58	1858.39
419.77	1806.89
419.96	1921.58
420.15	1867.75
420.34	1909.88
420.53	1895.83
420.72	2022.22
420.91	1935.62
421.10	1944.99
421.29	2054.99
421.48	1968.39
421.67	1998.82
421.86	1944.99
422.05	1996.48
422.24	2047.97
422.43	2066.69
422.61	2071.37
422.80	2012.86
422.99	2052.65
423.18	2106.48
423.37	2054.99
423.56	1947.33
423.75	2069.03
423.94	1893.49
424.13	1928.60
424.32	1982.43
424.50	2094.78
424.69	2064.35
424.88	2129.89
425.07	1952.01
425.26	2064.35
425.45	2127.55
425.64	2136.91
425.83	2134.57
426.01	2214.15
426.20	2071.37
426.39	2165.00
426.58	2087.76
426.77	1949.67
426.96	2129.89
427.15	2106.48
427.33	2172.02
427.52	2115.84
427.71	2193.08
427.90	2113.50
428.09	2209.47
428.28	2150.95
428.46	2328.83
428.65	2160.31
428.84	2286.70
429.03	2176.70
429.22	2181.38
429.40	2331.17
429.59	2293.72
429.78	2244.57
429.97	2115.84
430.16	2296.07
430.34	2406.07
430.53	2445.86
430.72	2321.81
430.91	2326.49
431.10	2394.37
431.28	2359.26
431.47	2560.55
431.66	2361.60
431.85	2258.62
432.03	2413.09
432.22	2457.56
432.41	2530.12
432.60	2443.52
432.79	2499.69
432.97	2553.52
433.16	2464.58
433.35	2506.71
433.54	2506.71
433.72	2630.76
433.91	2590.97
434.10	2616.72
434.28	2562.89
434.47	2609.70
434.66	2675.23
434.85	2534.80
435.03	2586.29
435.22	2616.72
435.41	2698.64
435.59	2719.70
435.78	2562.89
435.97	2691.62
436.16	2810.98
436.34	2665.87
436.53	2651.83
436.72	2808.64
436.90	2747.79
437.09	2757.15
437.28	2743.11
437.46	2663.53
437.65	2801.62
437.84	2796.94
438.02	2764.17
438.21	2871.84
438.40	2799.28
438.58	2836.73
438.77	2977.16
438.96	2909.29
439.14	3000.57
439.33	2967.80
439.52	2911.63
439.70	2960.78
439.89	3166.74
440.08	3084.83
440.26	3049.72
440.45	3068.44
440.63	3138.66
440.82	3183.13
441.01	3138.66
441.19	3112.91
441.38	3269.73
441.57	3365.69
441.75	3255.69
441.94	3403.14
442.12	3307.18
442.31	3307.18
442.50	3389.10
442.68	3260.37
442.87	3391.44
443.05	3377.39
443.24	3379.73
443.43	3496.76
443.61	3499.10
443.80	3389.10
443.98	3440.59
444.17	3407.82
444.35	3466.33
444.54	3562.30
444.73	3440.59
444.91	3492.08
445.10	3372.71
445.28	3459.31
445.47	3386.76
445.65	3522.51
445.84	3405.48
446.02	3442.93
446.21	3459.31
446.39	3543.57
446.58	3634.85
446.77	3543.57
446.95	3531.87
447.14	3431.23
447.32	3588.04
447.51	3489.74
447.69	3578.68
447.88	3660.60
448.06	3555.27
448.25	3499.10
448.43	3513.14
448.62	3503.78
448.80	3536.55
448.99	3634.85
449.17	3644.21
449.36	3524.85
449.54	3658.26
449.73	3866.56
449.91	3801.03
450.10	3705.07
450.28	3784.65
450.46	3721.45
450.65	3801.03
450.83	3817.41
451.02	3845.50
451.20	3915.72
451.39	3850.18
451.57	3847.84
451.76	3730.81
451.94	3815.07
452.13	3913.38
452.31	3772.94
452.49	3918.06
452.68	3892.31
452.86	3927.42
453.05	3866.56
453.23	4028.06
453.42	4032.74
453.60	3789.33
453.78	4014.02
453.97	3936.78
454.15	3974.23
454.34	4030.40
454.52	4180.20
454.70	4077.21
454.89	4077.21
455.07	4058.49
455.26	4004.66
455.44	3971.89
455.62	4196.58
455.81	4133.39
455.99	4266.80
456.17	4273.82
456.36	4147.43
456.54	4358.08
456.73	4238.71
456.91	4273.82
457.09	4311.27
457.28	4395.53
457.46	4264.46
457.64	4500.85
457.83	4332.33
458.01	4388.50
458.19	4535.96
458.38	4440.00
458.56	4465.74
458.74	4521.92
458.93	4442.34
459.11	4463.40
459.29	4442.34
459.48	4477.44
459.66	4587.45
459.84	4510.21
460.03	4568.73
460.21	4599.15
460.39	4580.43
460.57	4624.90
460.76	4723.20
460.94	4744.27
461.12	4669.37
461.31	4524.26
461.49	4765.33
461.67	4690.43
461.85	4931.51
462.04	4751.29
462.22	4959.60
462.40	4858.95
462.59	4943.21
462.77	4891.72
462.95	4854.27
463.13	4847.25
463.32	4840.23
463.50	4929.17
463.68	4826.18
463.86	4945.55
464.05	4880.02
464.23	4978.32
464.41	5067.26
464.59	4997.04
464.78	5006.41
464.96	4880.02
465.14	4917.47
465.32	5015.77
465.50	5025.13
465.69	5214.71
465.87	5041.51
466.05	5116.41
466.23	5184.29
466.41	5064.92
466.60	5298.97
466.78	5125.77
466.96	5118.75
467.14	5034.49
467.32	5102.37
467.51	5158.54
467.69	5057.90
467.87	5167.90
468.05	5224.08
468.23	5167.90
468.41	5296.63
468.60	5287.27
468.78	5465.15
468.96	5245.14
469.14	5338.76
469.32	5418.34
469.50	5242.80
469.69	5458.13
469.87	5584.52
470.05	5500.26
470.23	5345.78
470.41	5462.81
470.59	5451.11
470.77	5408.98
470.95	5626.65
471.14	5689.84
471.32	5565.79
471.50	5874.74
471.68	5673.46
471.86	5619.63
472.04	5636.01
472.22	5837.30
472.40	5860.70
472.58	5781.12
472.77	5832.62
472.95	5844.32
473.13	5886.45
473.31	5776.44
473.49	6045.60
473.67	5935.60
473.85	5987.09
474.03	6073.69
474.21	5937.94
474.39	6186.04
474.57	6113.48
474.75	6312.42
474.93	6193.06
475.12	6164.97
475.30	6293.70
475.48	6340.51
475.66	6310.08
475.84	6186.04
476.02	6464.56
476.20	6338.17
476.38	6523.07
476.56	6686.91
476.74	6867.13
476.92	6663.51
477.10	6612.01
477.28	6780.53
477.46	6700.95
477.64	6747.76
477.82	6888.20
478.00	7054.37
478.18	7037.99
478.36	7119.91
478.54	7206.51
478.72	7276.73
478.90	7129.27
479.08	7290.77
479.26	7391.41
479.44	7510.78
479.62	7346.94
479.80	7480.35
479.98	7365.67
480.16	7691.00
480.34	7669.94
480.52	7747.17
480.70	7861.86
480.88	7665.25
481.06	7805.69
481.24	7868.88
481.41	8016.33
481.59	8102.93
481.77	8313.58
481.95	8252.73
482.13	8348.69
482.31	8226.98
482.49	8252.73
482.67	8514.87
482.85	8407.20
483.03	8524.23
483.21	8727.86
483.39	8650.62
483.57	8573.38
483.74	8725.52
483.92	8980.64
484.10	8842.54
484.28	9041.49
484.46	9102.34
484.64	9245.12
484.82	9163.20
485.00	9259.16
485.18	9378.53
485.35	9523.64
485.53	9399.59
485.71	9593.86
485.89	9769.40
486.07	9575.13
486.25	9975.36
486.43	9825.57
486.61	9675.77
486.78	10122.82
486.96	10237.50
487.14	10326.44
487.32	10305.38
487.50	10237.50
487.68	10373.25
487.85	10420.06
488.03	10560.50
488.21	10590.92
488.39	10899.87
488.57	10855.40
488.75	10860.09
488.92	11063.71
489.10	11091.80
489.28	11117.54
489.46	11215.85
489.64	11314.15
489.81	11552.88
489.99	11445.22
490.17	11459.26
490.35	11840.77
490.53	11812.68
490.70	12044.40
490.88	11889.92
491.06	11850.13
491.24	12023.33
491.41	12002.27
491.59	11976.52
491.77	12245.68
491.95	12109.93
492.13	12262.07
492.30	12657.62
492.48	12685.70
492.66	12545.27
492.84	12629.53
493.01	12662.30
493.19	12863.58
493.37	13090.62
493.54	13107.00
493.72	13209.98
493.90	12886.99
494.08	13202.96
494.25	13247.43
494.43	13635.96
494.61	13366.80
494.79	13703.84
494.96	13874.70
495.14	13797.46
495.32	13802.14
495.49	13760.01
495.67	13572.77
495.85	13923.85
496.02	14090.02
496.20	14286.63
496.38	14134.50
496.55	14003.43
496.73	14373.23
496.91	14508.98
497.09	14707.93
497.26	14733.67
497.44	14361.53
497.62	14705.59
497.79	14850.70
497.97	14864.74
498.14	14820.27
498.32	14993.47
498.50	15080.07
498.67	15211.14
498.85	15133.90
499.03	15241.57
499.20	15349.23
499.38	15412.43
499.56	15477.96
499.73	15309.44
499.91	15775.21
500.08	15683.93
500.26	15470.94
500.44	15712.02
500.61	15850.11
500.79	15742.44
500.97	15754.15
501.14	16011.60
501.32	16449.28
501.49	16100.55
501.67	16032.67
501.84	16411.84
502.02	16315.87
502.20	16428.22
502.37	16505.46
502.55	16554.61
502.72	16606.10
502.90	16425.88
503.07	16596.74
503.25	16727.81
503.43	16723.13
503.60	16929.09
503.78	16891.65
503.95	16877.60
504.13	16893.99
504.30	16924.41
504.48	16788.66
504.65	17303.58
504.83	17191.23
505.01	17460.40
505.18	17151.45
505.36	17617.21
505.53	17357.41
505.71	17312.94
505.88	17467.42
506.06	17504.87
506.23	17364.43
506.41	17514.23
506.58	17895.74
506.76	17668.70
506.93	17743.60
507.11	17614.87
507.28	17820.84
507.46	17675.73
507.63	17996.38
507.81	18022.12
507.98	18003.40
508.16	18277.24
508.33	18181.28
508.50	18118.09
508.68	18284.26
508.85	18256.18
509.03	18469.17
509.20	18597.90
509.38	18513.64
509.55	18539.38
509.73	18520.66
509.90	18644.71
510.08	18405.97
510.25	18417.68
510.42	18738.33
510.60	19019.19
510.77	19115.16
510.95	19117.50
511.12	18836.63
511.30	18948.98
511.47	19126.86
511.64	19300.06
511.82	19255.59
511.99	19454.53
512.17	19503.68
512.34	19414.74
512.51	19515.39
512.69	19786.89
512.86	19609.01
513.04	19742.42
513.21	19833.70
513.38	19669.86
513.56	19997.54
513.73	19803.27
513.90	19920.30
514.08	20006.90
514.25	20067.75
514.43	20137.97
514.60	20079.46
514.77	20203.50
514.95	20217.55
515.12	19889.87
515.29	20180.10
515.47	20449.26
515.64	20475.01
515.81	20594.37
515.99	20737.15
516.16	20629.48
516.33	20655.23
516.51	20779.28
516.68	20580.33
516.85	20823.75
517.03	20835.45
517.20	20538.20
517.37	20924.39
517.54	21078.86
517.72	20664.59
517.89	21170.15
518.06	20842.47
518.24	21254.40
518.41	21076.52
518.58	21172.49
518.75	21333.98
518.93	21404.20
519.10	21448.67
519.27	21537.61
519.45	21551.65
519.62	21296.53
519.79	21451.01
519.96	21544.63
520.14	21654.64
520.31	21619.53
520.48	21680.38
520.65	21750.60
520.83	21680.38
521.00	21673.36
521.17	21734.21
521.34	21722.51
521.52	21888.69
521.69	22134.45
521.86	22452.76
522.03	22183.60
522.20	21968.27
522.38	22326.37
522.55	22349.78
522.72	22045.51
522.89	22258.49
523.07	22670.43
523.24	22408.29
523.41	22757.03
523.58	21996.35
523.75	22574.47
523.92	22661.07
524.10	22307.65
524.27	22904.48
524.44	22817.88
524.61	23175.98
524.78	23005.13
524.96	23112.79
525.13	22902.14
525.30	22766.39
525.47	22918.53
525.64	23157.26
525.81	23140.88
525.98	22925.55
526.16	23269.61
526.33	23094.07
526.50	23302.37
526.67	23133.86
526.84	23131.51
527.01	23463.87
527.18	23606.64
527.36	23105.77
527.53	23735.37
527.70	23679.20
527.87	24187.10
528.04	23583.24
528.21	23716.65
528.38	23667.50
528.55	23742.39
528.72	23784.52
528.89	24013.90
529.07	24243.27
529.24	23639.41
529.41	23754.10
529.58	23758.78
529.75	23852.40
529.92	24109.86
530.09	23999.85
530.26	24304.12
530.43	24013.90
530.60	24257.31
530.77	23936.66
530.94	24151.99
531.11	24023.26
531.28	24266.67
531.46	24421.15
531.63	24414.13
531.80	24212.84
531.97	24854.15
532.14	24390.72
532.31	24432.85
532.48	24657.54
532.65	24386.04
532.82	24247.95
532.99	24730.10
533.16	24613.07
533.33	25104.59
533.50	25074.16
533.67	25017.99
533.84	24779.25
534.01	24769.89
534.18	24627.12
534.35	24975.86
534.52	24610.73
534.69	25186.50
534.86	25397.15
535.03	24994.58
535.20	25106.93
535.37	24936.07
535.54	25184.16
535.71	25020.33
535.88	25160.76
536.05	25390.13
536.22	25256.72
536.38	25132.67
536.55	25631.21
536.72	25764.62
536.89	25261.40
537.06	25376.09
537.23	25312.89
537.40	25624.18
537.57	25818.45
537.74	25579.71
537.91	25975.27
538.08	25965.90
538.25	25699.08
538.42	25502.48
538.59	25593.76
538.75	25525.88
538.92	25895.69
539.09	25900.37
539.26	25766.96
539.43	25986.97
539.60	25853.56
539.77	25951.86
539.94	26342.73
540.11	26185.91
540.28	26291.24
540.44	26001.01
540.61	26040.80
540.78	26274.85
540.95	26396.56
541.12	26246.77
541.29	26529.97
541.46	26443.37
541.62	26176.55
541.79	26164.85
541.96	25893.35
542.13	25914.41
542.30	26438.69
542.47	26260.81
542.63	26668.06
542.80	26647.00
542.97	26803.82
543.14	26670.40
543.31	26773.39
543.48	26822.54
543.64	27147.87
543.81	26995.74
543.98	26979.36
544.15	27175.96
544.32	27363.20
544.48	27379.59
544.65	26979.36
544.82	27124.47
544.99	26658.70
545.16	26951.27
545.32	27318.73
545.49	27587.89
545.66	27269.58
545.83	27264.90
546.00	27314.05
546.16	27318.73
546.33	27129.15
546.50	27007.44
546.67	27585.55
546.83	27498.95
547.00	27353.84
547.17	27388.95
547.34	27541.08
547.50	27601.94
547.67	27583.21
547.84	27440.44
548.00	27634.71
548.17	27814.93
548.34	27395.97
548.51	27854.72
548.67	27730.67
548.84	27693.22
549.01	27704.92
549.18	28077.07
549.34	27644.07
549.51	27798.54
549.68	28079.41
549.84	27728.33
550.01	27824.29
550.18	27873.44
550.34	28100.47
550.51	28034.94
550.68	28259.63
550.84	27899.19
551.01	28009.19
551.18	28006.85
551.34	28144.94
551.51	28191.75
551.68	28149.62
551.84	28077.07
552.01	28067.70
552.18	28556.88
552.34	28222.18
552.51	28102.81
552.68	28276.01
552.84	28254.95
553.01	28140.26
553.18	28336.87
553.34	28582.62
553.51	28591.98
553.67	28559.22
553.84	28786.25
554.01	28634.11
554.17	28561.56
554.34	28737.10
554.51	28493.68
554.67	28339.21
554.84	28524.11
555.00	28638.80
555.17	28481.98
555.33	28697.31
555.50	28498.36
555.67	28943.06
555.83	28634.11
556.00	28989.88
556.16	28840.08
556.33	28793.27
556.50	28971.15
556.66	28893.91
556.83	28830.72
556.99	29149.03
557.16	29006.26
557.32	29214.57
557.49	29074.13
557.65	28711.35
557.82	29081.16
557.98	29067.11
558.15	28840.08
558.32	28877.53
558.48	29359.68
558.65	29319.89
558.81	29071.79
558.98	29301.17
559.14	29074.13
559.31	29139.67
559.47	29369.04
559.64	29474.37
559.80	29046.05
559.97	29642.88
560.13	29242.65
560.30	29301.17
560.46	29448.62
560.63	29282.44
560.79	29446.28
560.96	29429.90
561.12	29277.76
561.29	29127.97
561.45	29373.72
561.61	29457.98
561.78	29336.27
561.94	29603.10
562.11	29799.70
562.27	29324.57
562.44	29741.19
562.60	29696.72
562.77	29266.06
562.93	29724.80
563.10	29661.61
563.26	29666.29
563.42	30052.48
563.59	29572.67
563.75	29830.13
563.92	29766.93
564.08	29495.43
564.24	29788.00
564.41	29333.93
564.57	29675.65
564.74	29860.55
564.90	29619.48
565.07	29553.94
565.23	29666.29
565.39	29500.11
565.56	29795.02
565.72	29670.97
565.88	30071.20
566.05	29965.88
566.21	29600.76
566.38	29837.15
566.54	29778.64
566.70	29834.81
566.87	30005.67
567.03	29797.36
567.19	30167.16
567.36	30146.10
567.52	29825.45
567.68	30036.09
567.85	30110.99
568.01	30424.62
568.17	29497.77
568.34	30094.61
568.50	29862.90
568.66	30036.09
568.83	29991.62
568.99	29886.30
569.15	30134.40
569.32	29795.02
569.48	29993.97
569.64	30169.51
569.81	30012.69
569.97	30052.48
570.13	30335.68
570.30	29876.94
570.46	29748.21
570.62	29830.13
570.78	30171.85
570.95	29968.22
571.11	30288.87
571.27	29572.67
571.43	29970.56
571.60	30075.88
571.76	29942.47
571.92	29809.06
572.09	30274.83
572.25	30251.42
572.41	30316.96
572.57	30033.75
572.74	30192.91
572.90	30433.99
573.06	30508.88
573.22	29968.22
573.38	30134.40
573.55	30244.40
573.71	30424.62
573.87	30560.37
574.03	30424.62
574.20	30246.74
574.36	30169.51
574.52	30031.41
574.68	30419.94
574.84	30375.47
575.01	30579.10
575.17	30595.48
575.33	30134.40
575.49	30003.33
575.65	30419.94
575.82	30466.75
575.98	30260.79
576.14	30281.85
576.30	30520.59
576.46	30342.70
576.62	30122.69
576.79	30515.90
576.95	30389.52
577.11	30649.32
577.27	30504.20
577.43	30572.08
577.59	30338.02
577.75	30293.55
577.92	30000.99
578.08	30265.47
578.24	30492.50
578.40	30478.46
578.56	30466.75
578.72	30508.88
578.88	30771.02
579.04	30740.60
579.21	30551.01
579.37	30490.16
579.53	30548.67
579.69	30132.06
579.85	30480.80
580.01	30834.22
580.17	30316.96
580.33	30459.73
580.49	30590.80
580.65	30532.29
580.82	30338.02
580.98	30478.46
581.14	30445.69
581.30	30677.40
581.46	30211.64
581.62	30391.86
581.78	29874.60
581.94	30419.94
582.10	30345.05
582.26	30366.11
582.42	30417.60
582.58	30480.80
582.74	30426.96
582.90	30899.75
583.06	30742.94
583.22	30553.35
583.38	30869.33
583.54	30693.79
583.70	30525.27
583.86	30799.11
584.02	30597.82
584.18	30822.51
584.34	30604.84
584.50	30871.67
584.66	30719.53
584.82	30323.98
584.98	30794.43
585.14	30295.89
585.30	30309.94
585.46	30885.71
585.62	30305.26
585.78	30211.64
585.94	30478.46
586.10	30553.35
586.26	30536.97
586.42	30679.74
586.58	30646.97
586.74	30703.15
586.90	30712.51
587.06	30373.13
587.22	30689.10
587.38	30349.73
587.54	30094.61
587.70	31152.53
587.86	30829.54
588.02	31094.02
588.18	31012.10
588.34	31143.17
588.49	30733.57
588.65	30630.59
588.81	30918.48
588.97	30890.39
589.13	30576.76
589.29	30511.22
589.45	30820.17
589.61	30646.97
589.77	31133.81
589.93	31309.35
590.08	30749.96
590.24	30986.35
590.40	31002.74
590.56	30890.39
590.72	30946.56
590.88	31049.55
591.04	30775.70
591.20	30920.82
591.35	31131.47
591.51	31302.32
591.67	30965.29
591.83	31147.85
591.99	31468.50
592.15	31447.44
592.31	30892.73
592.46	30824.86
592.62	31047.21
592.78	30836.56
592.94	31058.91
593.10	30864.64
593.26	31285.94
593.41	31079.97
593.57	31510.63
593.73	31101.04
593.89	31318.71
594.05	31440.42
594.20	30476.12
594.36	30998.06
594.52	30836.56
594.68	30707.83
594.84	31307.01
594.99	31585.53
595.15	30918.48
595.31	31463.82
595.47	31349.14
595.62	31337.43
595.78	31145.51
595.94	30920.82
596.10	31002.74
596.25	31044.87
596.41	31035.50
596.57	30707.83
596.73	30974.65
596.88	31007.42
597.04	31328.07
597.20	31564.46
597.36	31679.15
597.51	31302.32
597.67	31414.67
597.83	30785.07
597.99	31576.17
598.14	31246.15
598.30	30852.94
598.46	30972.31
598.61	31398.29
598.77	30850.60
598.93	31058.91
599.09	31089.34
599.24	31681.49
599.40	31325.73
599.56	31101.04
599.71	31063.59
599.87	31456.80
600.03	31363.18
600.18	30899.75
600.34	30841.24
600.50	31215.72
600.65	31110.40
600.81	31494.25
600.97	31475.52
601.12	31274.24
601.28	31566.81
601.44	31744.69
601.59	31536.38
601.75	31269.56
601.91	31168.91
602.06	30906.77
602.22	31262.54
602.37	31058.91
602.53	31285.94
602.69	31239.13
602.84	31426.37
603.00	31676.81
603.16	31398.29
603.31	31440.42
603.47	30981.67
603.62	31023.80
603.78	31505.95
603.94	31419.35
604.09	31110.40
604.25	31395.95
604.40	31386.58
604.56	31660.43
604.71	31695.53
604.87	31367.86
605.03	31517.65
605.18	31318.71
605.34	31065.93
605.49	31211.04
605.65	31337.43
605.80	31344.45
605.96	31159.55
606.12	31452.12
606.27	31316.37
606.43	31168.91
606.58	31335.09
606.74	31166.57
606.89	31033.16
607.05	31246.15
607.20	31119.76
607.36	30953.58
607.51	31395.95
607.67	31119.76
607.82	31166.57
607.98	30930.18
608.13	31051.89
608.29	30890.39
608.44	31110.40
608.60	31283.60
608.75	31358.50
608.91	31124.44
609.06	31246.15
609.22	30965.29
609.37	30817.83
609.53	31012.10
609.68	31229.77
609.84	30782.73
609.99	31014.44
610.15	31007.42
610.30	30888.05
610.46	31000.40
610.61	31182.96
610.76	31028.48
610.92	31012.10
611.07	31168.91
611.23	30871.67
611.38	30672.72
611.54	30962.95
611.69	30822.51
611.84	30759.32
612.00	30560.37
612.15	30689.10
612.31	31030.82
612.46	30639.95
612.62	30852.94
612.77	30588.46
612.92	31068.27
613.08	30841.24
613.23	30955.93
613.39	30604.84
613.54	30410.58
613.69	30595.48
613.85	30546.33
614.00	30431.65
614.15	30675.06
614.31	30651.66
614.46	30752.30
614.62	30731.23
614.77	30874.01
614.92	30813.15
615.08	30808.47
615.23	30609.53
615.38	30852.94
615.54	30583.78
615.69	30429.30
615.84	30476.12
616.00	30796.77
616.15	30607.19
616.30	30504.20
616.46	30347.39
616.61	30242.06
616.76	30628.25
616.92	30595.48
617.07	30401.22
617.22	30480.80
617.37	30441.01
617.53	30389.52
617.68	30450.37
617.83	30410.58
617.99	30560.37
618.14	30309.94
618.29	30642.29
618.45	30431.65
618.60	30396.54
618.75	30155.46
618.90	30419.94
619.06	30178.87
619.21	29818.42
619.36	30113.33
619.51	30164.82
619.67	30022.05
619.82	30024.39
619.97	29942.47
620.12	30139.08
620.28	30108.65
620.43	30148.44
620.58	29797.36
620.73	30293.55
620.89	30246.74
621.04	30375.47
621.19	30211.64
621.34	30139.08
621.49	29741.19
621.65	29998.65
621.80	30136.74
621.95	29675.65
622.10	29825.45
622.25	29675.65
622.41	29479.05
622.56	30015.03
622.71	30221.00
622.86	30052.48
623.01	29895.66
623.16	29961.20
623.32	29699.06
623.47	30291.21
623.62	29560.97
623.77	29799.70
623.92	29729.48
624.07	29656.93
624.23	29432.24
624.38	29851.19
624.53	29649.91
624.68	29806.72
624.83	30288.87
624.98	29881.62
625.13	29401.81
625.29	29963.54
625.44	29769.27
625.59	29558.63
625.74	29490.75
625.89	29481.39
626.04	29778.64
626.19	29553.94
626.34	29780.98
626.49	29109.24
626.65	29252.02
626.80	29504.79
626.95	29280.10
627.10	29635.86
627.25	28914.98
627.40	29329.25
627.55	29329.25
627.70	28992.22
627.85	28978.17
628.00	29294.14
628.15	29191.16
628.30	29184.14
628.45	28875.19
628.60	29017.96
628.76	28957.11
628.91	29324.57
629.06	29090.52
629.21	28650.50
629.36	29156.05
629.51	29083.50
629.66	29015.62
629.81	28811.99
629.96	28666.88
630.11	28870.51
630.26	29024.98
630.41	28657.52
630.56	29041.37
630.71	29205.20
630.86	28947.75
631.01	29064.77
631.16	29118.60
631.31	28776.89
631.46	28395.38
631.61	28776.89
631.76	29151.37
631.91	28596.67
632.06	28814.34
632.21	28776.89
632.36	28783.91
632.51	28453.89
632.66	28744.12
632.81	28655.18
632.96	29001.58
633.10	28992.22
633.25	28547.51
633.40	28713.69
633.55	28692.63
633.70	28669.22
633.85	28608.37
634.00	28058.34
634.15	28329.84
634.30	28264.31
634.45	28421.13
634.60	28397.72
634.75	28503.04
634.90	28205.80
635.05	28629.43
635.19	28416.44
635.34	28662.20
635.49	28535.81
635.64	28053.66
635.79	28472.62
635.94	28573.26
636.09	28238.56
636.24	28224.52
636.39	28327.50
636.53	28063.02
636.68	28233.88
636.83	28116.86
636.98	28615.39
637.13	28276.01
637.28	28081.75
637.43	28311.12
637.57	28489.00
637.72	28379.00
637.87	28215.16
638.02	27779.82
638.17	27665.13
638.32	27887.48
638.46	28081.75
638.61	27777.48
638.76	27730.67
638.91	27665.13
639.06	27938.97
639.20	27967.06
639.35	28156.64
639.50	27885.14
639.65	28318.14
639.80	28013.87
639.94	27976.42
640.09	27880.46
640.24	27910.89
640.39	27536.40
640.54	27384.27
640.68	27733.01
640.83	27868.76
640.98	27442.78
641.13	27440.44
641.27	27538.74
641.42	27452.14
641.57	27866.42
641.72	27513.00
641.86	27576.19
642.01	27173.62
642.16	27028.51
642.31	27220.43
642.45	27651.09
642.60	27161.92
642.75	27552.79
642.90	27274.26
643.04	27569.17
643.19	27246.18
643.34	27454.48
643.48	27208.73
643.63	27941.32
643.78	27147.87
643.93	27225.11
644.07	27168.94
644.22	27393.63
644.37	27625.34
644.51	27501.29
644.66	27122.13
644.81	27344.48
644.95	27190.00
645.10	26953.61
645.25	27466.19
645.39	27260.22
645.54	27344.48
645.69	26881.05
645.83	27269.58
645.98	27274.26
646.13	27419.38
646.27	27213.41
646.42	27185.32
646.57	26937.23
646.71	26988.72
646.86	27065.96
647.00	27257.88
647.15	26700.83
647.30	26590.83
647.44	26775.73
647.59	26843.60
647.74	26848.29
647.88	26778.07
648.03	26962.97
648.17	26920.84
648.32	27302.35
648.47	26796.79
648.61	26810.84
648.76	27030.85
648.90	27061.27
649.05	26773.39
649.20	27044.89
649.34	26490.18
649.49	26487.84
649.63	26485.50
649.78	26616.57
649.92	26490.18
650.07	26923.18
650.21	26686.79
650.36	26771.05
650.51	26188.25
650.65	26785.09
650.80	26462.10
650.94	26637.64
651.09	26426.99
651.23	26328.69
651.38	26665.72
651.52	26464.44
651.67	26235.06
651.81	26752.32
651.96	26466.78
652.10	26656.36
652.25	26714.87
652.39	26548.70
652.54	26836.58
652.68	26410.60
652.83	26342.73
652.97	26553.38
653.12	26321.66
653.26	26401.24
653.41	26438.69
653.55	26164.85
653.70	25862.92
653.84	26305.28
653.99	26103.99
654.13	26033.78
654.27	25949.52
654.42	26017.40
654.56	26511.25
654.71	26071.23
654.85	26333.37
655.00	26176.55
655.14	26352.09
655.29	25954.20
655.43	26251.45
655.57	26132.08
655.72	25755.26
655.86	26094.63
656.01	25905.05
656.15	25785.68
656.30	25689.72
656.44	25883.98
656.58	25862.92
656.73	25991.65
656.87	26096.97
657.01	25745.89
657.16	26022.08
657.30	26059.52
657.45	25715.47
657.59	25743.55
657.73	25546.95
657.88	25703.76
658.02	25687.38
658.16	25598.44
658.31	25509.50
658.45	25851.22
658.60	25717.81
658.74	25481.41
658.88	25773.98
659.03	25420.56
659.17	25572.69
659.31	25706.10
659.46	25280.13
659.60	25544.61
659.74	25390.13
659.89	25322.26
660.03	25324.60
660.17	25041.39
660.32	25008.62
660.46	25291.83
660.60	24971.18
660.74	24776.91
660.89	24814.36
661.03	24809.68
661.17	25003.94
661.32	25041.39
661.46	25109.27
661.60	24957.13
661.74	24989.90
661.89	25123.31
662.03	25228.63
662.17	25163.10
662.31	24706.70
662.46	24786.27
662.60	24765.21
662.74	24879.89
662.88	24767.55
663.03	24439.87
663.17	24297.10
663.31	24367.32
663.45	24280.72
663.60	24283.06
663.74	24526.47
663.88	24388.38
664.02	24409.45
664.17	24781.59
664.31	24168.37
664.45	24166.03
664.59	24594.35
664.73	24388.38
664.88	24224.54
665.02	23880.49
665.16	23941.34
665.30	23943.68
665.44	24187.10
665.59	23887.51
665.73	24070.07
665.87	24589.67
666.01	24002.19
666.15	24252.63
666.29	24151.99
666.44	23765.80
666.58	23967.09
666.72	23906.23
666.86	23943.68
667.00	23812.61
667.14	23896.87
667.28	23634.73
667.43	23772.82
667.57	23625.37
667.71	23538.77
667.85	23744.73
667.99	23367.91
668.13	23391.31
668.27	23548.13
668.41	23796.23
668.56	23318.76
668.70	23370.25
668.84	23328.12
668.98	23241.52
669.12	23637.07
669.26	23384.29
669.40	23225.14
669.54	23480.25
669.68	23002.78
669.82	23161.94
669.96	22998.10
670.10	22892.78
670.25	23248.54
670.39	23236.84
670.53	22848.31
670.67	22970.02
670.81	22974.70
670.95	22911.50
671.09	23271.95
671.23	22918.53
671.37	22740.64
671.51	22857.67
671.65	22616.60
671.79	22590.85
671.93	22850.65
672.07	22401.27
672.21	22466.80
672.35	22019.76
672.49	22106.36
672.63	22319.35
672.77	22281.90
672.91	22398.93
673.05	22209.34
673.19	22412.97
673.33	22445.74
673.47	22073.59
673.61	22380.20
673.75	22249.13
673.89	22099.34
674.03	21909.75
674.17	21989.33
674.31	21860.60
674.45	22052.53
674.59	21919.12
674.73	21734.21
674.87	21905.07
675.01	21425.26
675.15	21776.34
675.29	21214.62
675.43	21577.40
675.56	21497.82
675.70	21481.44
675.84	21561.02
675.98	20886.94
676.12	21687.40
676.26	21479.10
676.40	21469.73
676.54	21097.59
676.68	21240.36
676.82	20470.33
676.96	20886.94
677.10	20938.43
677.23	20594.37
677.37	20704.38
677.51	20840.13
677.65	20428.20
677.79	20077.12
677.93	20386.07
678.07	20503.09
678.21	20423.51
678.34	20489.05
678.48	20311.17
678.62	20257.34
678.76	20503.09
678.90	19831.36
679.04	20063.07
679.18	20367.34
679.31	19861.79
679.45	19854.76
679.59	19658.16
679.73	19793.91
679.87	19606.67
680.00	19836.04
680.14	19496.66
680.28	19892.21
680.42	19903.92
680.56	19419.42
680.70	19491.98
680.83	19630.07
680.97	19585.60
681.11	19410.06
681.25	19414.74
681.39	19199.41
681.52	19386.66
681.66	18953.66
681.80	18628.32
681.94	18869.40
682.07	18743.01
682.21	18750.03
682.35	18810.89
682.49	18754.71
682.62	18637.69
682.76	18628.32
682.90	18593.22
683.04	18466.83
683.17	18558.11
683.31	18609.60
683.45	18590.88
683.59	18405.97
683.72	18389.59
683.86	18125.11
684.00	18125.11
684.13	18090.00
684.27	18136.81
684.41	18108.72
684.55	17844.24
684.68	17652.32
684.82	17762.33
684.96	17614.87
685.09	17715.51
685.23	17324.65
685.37	17607.85
685.50	17493.16
685.64	17607.85
685.78	17544.66
685.91	17427.63
686.05	17448.69
686.19	17219.32
686.32	17460.40
686.46	16856.54
686.60	16936.12
686.73	17181.87
686.87	16816.75
687.01	17057.82
687.14	16737.17
687.28	16596.74
687.42	16556.95
687.55	16578.01
687.69	16631.85
687.82	16400.13
687.96	16528.86
688.10	16404.81
688.23	16503.12
688.37	16538.23
688.50	16339.28
688.64	16325.24
688.78	16381.41
688.91	16112.25
689.05	16175.44
689.18	16264.38
689.32	15632.44
689.46	15604.35
689.59	15847.77
689.73	15866.49
689.86	15864.15
690.00	15868.83
690.13	15702.65
690.27	15475.62
690.41	15730.74
690.54	15527.11
690.68	15641.80
690.81	15468.60
690.95	15587.97
691.08	15358.60
691.22	15279.02
691.35	15307.10
691.49	15431.15
691.62	15066.03
691.76	15129.22
691.89	15115.18
692.03	14829.63
692.16	14604.94
692.30	14626.01
692.43	14897.51
692.57	14516.00
692.70	14511.32
692.84	14604.94
692.97	14532.39
693.11	14499.62
693.24	14445.79
693.38	14356.85
693.51	14396.64
693.65	14675.16
693.78	14169.60
693.92	14356.85
694.05	14153.22
694.19	14054.92
694.32	13930.87
694.45	13774.05
694.59	13930.87
694.72	13696.82
694.86	13626.60
694.99	13439.36
695.13	13951.93
695.26	13752.99
695.39	13561.06
695.53	13685.11
695.66	13619.58
695.80	13708.52
695.93	13542.34
696.07	13195.94
696.20	13432.33
696.33	13425.31
696.47	12987.63
696.60	13132.75
696.73	13289.56
696.87	13060.19
697.00	13022.74
697.14	12849.54
697.27	12856.56
697.40	12645.91
697.54	12828.48
697.67	12652.94
697.80	12500.80
697.94	12610.81
698.07	12568.68
698.21	12650.60
698.34	12346.33
698.47	12280.79
698.61	12556.97
698.74	12568.68
698.87	12365.05
699.01	12081.85
699.14	12465.69
699.27	12147.38
699.40	12112.27
699.54	11796.30
699.67	12084.19
699.80	12006.95
699.94	11875.88
700.07	11906.31
700.20	11651.19
700.34	11405.43
700.47	11637.14
700.60	11417.13
700.73	11808.00
700.87	11634.80
701.00	11524.80
701.13	11513.10
701.26	11566.93
701.40	11492.03
701.53	11538.84
701.66	11396.07
701.79	11318.83
701.93	11290.74
702.06	11171.38
702.19	11267.34
702.32	10902.22
702.46	10628.37
702.59	10937.32
702.72	10944.34
702.85	10745.40
702.99	10801.57
703.12	10644.76
703.25	10490.28
703.38	10703.27
703.51	10675.18
703.65	10487.94
703.78	10583.90
703.91	10410.70
704.04	10553.48
704.17	10443.47
704.31	10504.32
704.44	10375.59
704.57	10363.89
704.70	10162.61
704.83	10251.55
704.96	10052.60
705.10	9886.42
705.23	9848.97
>>>>>End Processed Spectral Data<<<<<
