SpectraSuite Data File
++++++++++++++++++++++++++++++++++++
Date: Fri Oct 18 13:58:42 GMT-05:00 2013
User: bianchi
Dark Spectrum Present: No
Reference Spectrum Present: No
Number of Sampled Component Spectra: 1
Spectrometers: USB2+H05261
Integration Time (usec): 50000 (USB2+H05261)
Spectra Averaged: 1 (USB2+H05261)
Boxcar Smoothing: 0 (USB2+H05261)
Correct for Electrical Dark: No (USB2+H05261)
Strobe/Lamp Enabled: No (USB2+H05261)
Correct for Detector Non-linearity: No (USB2+H05261)
Correct for Stray Light: No (USB2+H05261)
Number of Pixels in Processed Spectrum: 2048
>>>>>Begin Processed Spectral Data<<<<<
365.73	0.00
365.92	0.00
366.12	0.00
366.32	0.00
366.52	0.00
366.72	0.00
366.91	0.00
367.11	0.00
367.31	0.00
367.51	0.00
367.70	0.00
367.90	0.00
368.10	0.00
368.30	0.00
368.49	0.00
368.69	0.00
368.89	0.00
369.09	0.00
369.28	0.00
369.48	0.00
369.68	0.00
369.87	0.00
370.07	0.00
370.27	0.00
370.47	0.00
370.66	121.71
370.86	128.73
371.06	154.48
371.25	145.11
371.45	142.77
371.65	140.43
371.84	86.60
372.04	215.33
372.24	166.18
372.44	189.58
372.63	110.01
372.83	255.12
373.03	194.26
373.22	196.60
373.42	217.67
373.62	264.48
373.81	161.50
374.01	229.37
374.21	191.92
374.40	191.92
374.60	264.48
374.79	196.60
374.99	203.63
375.19	355.76
375.38	210.65
375.58	243.42
375.78	292.57
375.97	346.40
376.17	222.35
376.37	262.14
376.56	212.99
376.76	236.39
376.95	243.42
377.15	290.23
377.35	276.18
377.54	330.02
377.74	154.48
377.93	245.76
378.13	297.25
378.33	322.99
378.52	276.18
378.72	308.95
378.91	271.50
379.11	327.68
379.31	241.08
379.50	201.29
379.70	222.35
379.89	287.89
380.09	257.46
380.28	287.89
380.48	266.82
380.68	301.93
380.87	304.27
381.07	301.93
381.26	313.63
381.46	315.97
381.65	308.95
381.85	250.44
382.04	308.95
382.24	388.53
382.43	358.10
382.63	283.20
382.83	299.59
383.02	311.29
383.22	421.30
383.41	360.44
383.61	372.15
383.80	414.27
384.00	337.04
384.19	372.15
384.39	402.57
384.58	388.53
384.78	386.19
384.97	280.86
385.17	327.68
385.36	379.17
385.56	360.44
385.75	362.78
385.95	397.89
386.14	435.34
386.34	367.46
386.53	418.96
386.72	393.21
386.92	351.08
387.11	315.97
387.31	402.57
387.50	437.68
387.70	444.70
387.89	449.38
388.09	402.57
388.28	479.81
388.48	428.32
388.67	493.85
388.86	386.19
389.06	369.80
389.25	444.70
389.45	477.47
389.64	442.36
389.84	477.47
390.03	505.56
390.22	465.77
390.42	465.77
390.61	526.62
390.81	503.22
391.00	440.02
391.19	482.15
391.39	491.51
391.58	463.43
391.78	433.00
391.97	524.28
392.16	505.56
392.36	465.77
392.55	449.38
392.75	528.96
392.94	575.77
393.13	566.41
393.33	524.28
393.52	503.22
393.71	589.82
393.91	472.79
394.10	601.52
394.29	517.26
394.49	608.54
394.68	608.54
394.88	559.39
395.07	575.77
395.26	601.52
395.46	580.45
395.65	690.46
395.84	624.92
396.04	685.78
396.23	538.32
396.42	585.13
396.62	634.29
396.81	704.50
397.00	615.56
397.19	713.86
397.39	603.86
397.58	699.82
397.77	657.69
397.97	674.07
398.16	781.74
398.35	699.82
398.55	770.04
398.74	678.76
398.93	709.18
399.12	716.20
399.32	695.14
399.51	634.29
399.70	669.39
399.90	830.89
400.09	805.14
400.28	732.59
400.47	751.31
400.67	781.74
400.86	678.76
401.05	723.23
401.24	779.40
401.44	844.93
401.63	767.70
401.82	788.76
402.01	786.42
402.21	777.06
402.40	830.89
402.59	816.85
402.78	791.10
402.97	725.57
403.17	922.17
403.36	809.83
403.55	856.64
403.74	961.96
403.93	868.34
404.13	833.23
404.32	866.00
404.51	1020.47
404.70	936.21
404.89	791.10
405.09	964.30
405.28	858.98
405.47	1034.52
405.66	976.00
405.85	940.90
406.05	950.26
406.24	905.79
406.43	919.83
406.62	1001.75
406.81	1076.65
407.00	1097.71
407.20	1018.13
407.39	994.73
407.58	1118.78
407.77	1004.09
407.96	1090.69
408.15	1104.73
408.34	1050.90
408.54	1088.35
408.73	1055.58
408.92	1013.45
409.11	1100.05
409.30	1086.01
409.49	1130.48
409.68	1181.97
409.87	1165.59
410.07	1116.44
410.26	1165.59
410.45	1167.93
410.64	1196.01
410.83	1163.25
411.02	1263.89
411.21	1322.40
411.40	1224.10
411.59	1331.76
411.78	1212.40
411.98	1167.93
412.17	1277.93
412.36	1238.14
412.55	1313.04
412.74	1259.21
412.93	1303.68
413.12	1336.45
413.31	1364.53
413.50	1390.28
413.69	1350.49
413.88	1411.34
414.07	1462.83
414.26	1359.85
414.45	1502.62
414.64	1371.55
414.83	1540.07
415.02	1472.20
415.22	1547.09
415.41	1598.59
415.60	1446.45
415.79	1537.73
415.98	1589.22
416.17	1467.52
416.36	1544.75
416.55	1614.97
416.74	1706.25
416.93	1659.44
417.12	1701.57
417.31	1694.55
417.50	1734.34
417.69	1671.14
417.88	1783.49
418.07	1617.31
418.26	1715.61
418.45	1760.08
418.64	1743.70
418.83	1727.32
419.02	1809.23
419.21	1842.00
419.39	1788.17
419.58	1809.23
419.77	1867.75
419.96	1891.15
420.15	1884.13
420.34	1853.70
420.53	1849.02
420.72	1839.66
420.91	1853.70
421.10	1818.60
421.29	1940.30
421.48	1872.43
421.67	1989.46
421.86	1919.24
422.05	1865.41
422.24	1877.11
422.43	1874.77
422.61	2029.24
422.80	1916.90
422.99	1996.48
423.18	1937.96
423.37	1933.28
423.56	1893.49
423.75	2015.20
423.94	1987.11
424.13	1856.04
424.32	1797.53
424.50	2101.80
424.69	2092.44
424.88	2062.01
425.07	1916.90
425.26	1902.86
425.45	2057.33
425.64	2101.80
425.83	2052.65
426.01	2085.42
426.20	2033.93
426.39	2036.27
426.58	2043.29
426.77	2143.93
426.96	2066.69
427.15	2050.31
427.33	2134.57
427.52	2104.14
427.71	2029.24
427.90	2157.97
428.09	2120.53
428.28	2202.44
428.46	2157.97
428.65	2235.21
428.84	2172.02
429.03	2223.51
429.22	2155.63
429.40	2204.78
429.59	2249.25
429.78	2122.87
429.97	2143.93
430.16	2193.08
430.34	2317.13
430.53	2382.67
430.72	2310.11
430.91	2303.09
431.10	2209.47
431.28	2270.32
431.47	2436.50
431.66	2293.72
431.85	2352.24
432.03	2429.48
432.22	2438.84
432.41	2361.60
432.60	2473.95
432.79	2490.33
432.97	2476.29
433.16	2502.03
433.35	2497.35
433.54	2392.03
433.72	2513.74
433.91	2431.82
434.10	2504.37
434.28	2370.96
434.47	2492.67
434.66	2588.63
434.85	2605.02
435.03	2551.18
435.22	2504.37
435.41	2633.10
435.59	2630.76
435.78	2579.27
435.97	2569.91
436.16	2623.74
436.34	2541.82
436.53	2633.10
436.72	2738.43
436.90	2668.21
437.09	2668.21
437.28	2682.25
437.46	2609.70
437.65	2693.96
437.84	2689.28
438.02	2649.49
438.21	2656.51
438.40	2801.62
438.58	2843.75
438.77	2850.77
438.96	2700.98
439.14	2834.39
439.33	2920.99
439.52	2932.69
439.70	2986.52
439.89	2998.23
440.08	2979.50
440.26	3054.40
440.45	3075.46
440.63	3162.06
440.82	3000.57
441.01	3016.95
441.19	3129.30
441.38	3211.22
441.57	3180.79
441.75	3258.03
441.94	3229.94
442.12	3103.55
442.31	3274.41
442.50	3281.43
442.68	3178.45
442.87	3314.20
443.05	3293.13
443.24	3276.75
443.43	3361.01
443.61	3356.33
443.80	3466.33
443.98	3307.18
444.17	3155.04
444.35	3471.01
444.54	3541.23
444.73	3295.47
444.91	3218.24
445.10	3405.48
445.28	3538.89
445.47	3363.35
445.65	3384.41
445.84	3499.10
446.02	3419.52
446.21	3361.01
446.39	3456.97
446.58	3398.46
446.77	3424.20
446.95	3492.08
447.14	3377.39
447.32	3576.34
447.51	3471.01
447.69	3660.60
447.88	3344.63
448.06	3562.30
448.25	3627.83
448.43	3585.70
448.62	3431.23
448.80	3471.01
448.99	3609.11
449.17	3569.32
449.36	3541.23
449.54	3681.66
449.73	3660.60
449.91	3625.49
450.10	3581.02
450.28	3637.19
450.46	3581.02
450.65	3712.09
450.83	3695.71
451.02	3676.98
451.20	3730.81
451.39	3770.60
451.57	3585.70
451.76	3674.64
451.94	3709.75
452.13	3789.33
452.31	3868.91
452.49	3868.91
452.68	3782.31
452.86	3801.03
453.05	3803.37
453.23	4044.45
453.42	3861.88
453.60	3866.56
453.78	3826.78
453.97	3824.44
454.15	3934.44
454.34	3796.35
454.52	4002.32
454.70	4133.39
454.89	4021.04
455.07	4086.58
455.26	4093.60
455.44	4124.02
455.62	4046.79
455.81	4053.81
455.99	4035.08
456.17	3969.55
456.36	4102.96
456.54	4147.43
456.73	4170.83
456.91	4236.37
457.09	4395.53
457.28	4332.33
457.46	4191.90
457.64	4318.29
457.83	4198.92
458.01	4299.56
458.19	4334.67
458.38	4344.03
458.56	4332.33
458.74	4290.20
458.93	4440.00
459.11	4360.42
459.29	4358.08
459.48	4451.70
459.66	4442.34
459.84	4573.41
460.03	4510.21
460.21	4578.09
460.39	4498.51
460.57	4528.94
460.76	4461.06
460.94	4505.53
461.12	4512.55
461.31	4650.64
461.49	4571.07
461.67	4585.11
461.85	4624.90
462.04	4732.56
462.22	4720.86
462.40	4830.87
462.59	4762.99
462.77	4657.67
462.95	4702.14
463.13	4671.71
463.32	4746.61
463.50	4770.01
463.68	4802.78
463.86	4798.10
464.05	4713.84
464.23	4830.87
464.41	4966.62
464.59	4873.00
464.78	4994.70
464.96	5029.81
465.14	4753.63
465.32	4940.87
465.50	5074.28
465.69	4884.70
465.87	4868.31
466.05	4863.63
466.23	4968.96
466.41	5046.20
466.60	5296.63
466.78	4973.64
466.96	4931.51
467.14	5015.77
467.32	4968.96
467.51	5144.50
467.69	4985.34
467.87	4919.81
468.05	5104.71
468.23	5186.63
468.41	5195.99
468.60	5221.74
468.78	5217.05
468.96	5336.42
469.14	5254.50
469.32	5345.78
469.50	5259.18
469.69	5228.76
469.87	5284.93
470.05	5324.72
470.23	5453.45
470.41	5324.72
470.59	5373.87
470.77	5425.36
470.95	5547.07
471.14	5310.68
471.32	5327.06
471.50	5713.25
471.68	5570.48
471.86	5715.59
472.04	5453.45
472.22	5914.53
472.40	5472.17
472.58	5731.97
472.77	5708.57
472.95	5839.64
473.13	5921.56
473.31	5738.99
473.49	5673.46
473.67	5753.04
473.85	5919.21
474.03	5891.13
474.21	5937.94
474.39	5884.11
474.57	5923.90
474.75	6024.54
474.93	6190.72
475.12	6050.28
475.30	6239.87
475.48	6029.22
475.66	6204.76
475.84	6139.23
476.02	6389.66
476.20	6223.48
476.38	6382.64
476.56	6469.24
476.74	6427.11
476.92	6492.65
477.10	6541.80
477.28	6478.60
477.46	6593.29
477.64	6616.69
477.82	6710.32
478.00	6848.41
478.18	6916.28
478.36	6857.77
478.54	6890.54
478.72	6960.75
478.90	7059.06
479.08	7162.04
479.26	7246.30
479.44	7262.68
479.62	7382.05
479.80	7098.84
479.98	7218.21
480.16	7454.61
480.34	7222.89
480.52	7487.37
480.70	7672.28
480.88	7492.05
481.06	7623.12
481.24	7627.81
481.41	7543.55
481.59	7763.56
481.77	7822.07
481.95	7913.35
482.13	7985.91
482.31	8086.55
482.49	8161.45
482.67	8093.57
482.85	8241.03
483.03	8346.35
483.21	8262.09
483.39	8395.50
483.57	8479.76
483.74	8489.12
483.92	8610.83
484.10	8823.82
484.28	8795.73
484.46	8975.95
484.64	8975.95
484.82	8929.14
485.00	9092.98
485.18	9085.96
485.35	9146.81
485.53	9200.65
485.71	9193.62
485.89	9603.22
486.07	9364.48
486.25	9408.95
486.43	9533.00
486.61	9537.68
486.78	9837.27
486.96	9713.22
487.14	9984.73
487.32	9811.53
487.50	10186.01
487.68	10026.86
487.85	10045.58
488.03	10431.77
488.21	10459.85
488.39	10560.50
488.57	10415.38
488.75	10630.71
488.92	10731.36
489.10	10700.93
489.28	10803.91
489.46	10942.00
489.64	10984.13
489.81	11122.23
489.99	11197.12
490.17	11089.46
490.35	11573.95
490.53	11183.08
490.70	11522.46
490.88	11438.20
491.06	11634.80
491.24	11740.13
491.41	11658.21
491.59	11723.74
491.77	11789.28
491.95	12035.03
492.13	12004.61
492.30	12023.33
492.48	12133.34
492.66	12271.43
492.84	11964.82
493.01	12397.82
493.19	12456.33
493.37	12629.53
493.54	12561.66
493.72	12458.67
493.90	12891.67
494.08	12648.26
494.25	12905.71
494.43	13095.30
494.61	13291.90
494.79	13245.09
494.96	12985.29
495.14	13217.01
495.32	13458.08
495.49	13371.48
495.67	13458.08
495.85	13703.84
496.02	13776.39
496.20	13846.61
496.38	13706.18
496.55	13734.26
496.73	14064.28
496.91	14232.80
497.09	14085.34
497.26	14443.45
497.44	14026.83
497.62	14277.27
497.79	14586.22
497.97	14497.28
498.14	14286.63
498.32	14600.26
498.50	14640.05
498.67	14808.57
498.85	14806.23
499.03	14874.10
499.20	14679.84
499.38	15019.22
499.56	14993.47
499.73	14979.43
499.91	15049.64
500.08	15283.70
500.26	15150.29
500.44	15243.91
500.61	15426.47
500.79	15269.66
500.97	15169.01
501.14	15492.01
501.32	15604.35
501.49	15536.48
501.67	15805.64
501.84	16140.33
502.02	15639.46
502.20	16027.99
502.37	16224.59
502.55	15857.13
502.72	15578.61
502.90	16208.21
503.07	15772.87
503.25	16154.38
503.43	15983.52
503.60	16224.59
503.78	16379.07
503.95	16339.28
504.13	16264.38
504.30	16578.01
504.48	16554.61
504.65	16669.30
504.83	16608.44
505.01	16765.26
505.18	16776.96
505.36	16830.79
505.53	16978.25
505.71	16908.03
505.88	17184.21
506.06	16805.05
506.23	17132.72
506.41	17160.81
506.58	17249.75
506.76	17228.68
506.93	17345.71
507.11	17263.79
507.28	17305.92
507.46	17277.83
507.63	17132.72
507.81	17687.43
507.98	17441.67
508.16	17434.65
508.33	17612.53
508.50	17659.34
508.68	17919.14
508.85	18125.11
509.03	17832.54
509.20	18106.38
509.38	18118.09
509.55	18127.45
509.73	18223.41
509.90	18469.17
510.08	18572.15
510.25	18225.75
510.42	18136.81
510.60	18518.32
510.77	18174.26
510.95	18221.07
511.12	18295.97
511.30	18497.25
511.47	18478.53
511.64	18520.66
511.82	18794.50
511.99	18738.33
512.17	18932.59
512.34	18700.88
512.51	19030.90
512.69	19035.58
512.86	19428.79
513.04	19119.84
513.21	19349.21
513.38	19353.89
513.56	19358.57
513.73	19447.51
513.90	19187.71
514.08	19332.82
514.25	19644.12
514.43	19606.67
514.60	19630.07
514.77	19599.65
514.95	19690.93
515.12	19639.44
515.29	19594.96
515.47	20130.95
515.64	19784.55
515.81	19990.52
515.99	19882.85
516.16	20053.71
516.33	20056.05
516.51	19772.85
516.68	19981.15
516.85	20196.48
517.03	20091.16
517.20	20217.55
517.37	20233.93
517.54	20428.20
517.72	20233.93
517.89	20276.06
518.06	20311.17
518.24	20343.94
518.41	20589.69
518.58	20622.46
518.75	20503.09
518.93	20690.34
519.10	20751.19
519.27	20781.62
519.45	20533.52
519.62	20793.32
519.79	20844.81
519.96	20905.66
520.14	20947.79
520.31	20872.90
520.48	21170.15
520.65	20912.69
520.83	20966.52
521.00	21156.10
521.17	21322.28
521.34	21404.20
521.52	21448.67
521.69	21565.70
521.86	21556.33
522.03	21687.40
522.20	21579.74
522.38	21619.53
522.55	21460.37
522.72	21638.25
522.89	21893.37
523.07	22136.79
523.24	21972.95
523.41	22211.68
523.58	21750.60
523.75	21825.50
523.92	21996.35
524.10	21652.30
524.27	21699.11
524.44	22022.10
524.61	22438.72
524.78	22331.05
524.96	22630.64
525.13	22256.15
525.30	22347.44
525.47	22192.96
525.64	22356.80
525.81	22586.17
525.98	22410.63
526.16	22654.05
526.33	22427.01
526.50	23061.30
526.67	22286.58
526.84	22342.75
527.01	22860.01
527.18	22398.93
527.36	22829.59
527.53	22787.46
527.70	23009.81
527.87	22932.57
528.04	22539.36
528.21	22911.50
528.38	22923.21
528.55	23021.51
528.72	22991.08
528.89	23440.47
529.07	23094.07
529.24	23243.86
529.41	23274.29
529.58	23171.30
529.75	23164.28
529.92	23433.44
530.09	23131.51
530.26	23201.73
530.43	23346.84
530.60	23314.08
530.77	23740.05
530.94	23686.22
531.11	23442.81
531.28	23461.53
531.46	23704.95
531.63	23653.45
531.80	23906.23
531.97	24032.62
532.14	23992.83
532.31	23833.68
532.48	23882.83
532.65	23939.00
532.82	23693.24
532.99	24304.12
533.16	24023.26
533.33	24269.01
533.50	24095.82
533.67	23957.72
533.84	24025.60
534.01	24116.88
534.18	24095.82
534.35	24276.04
534.52	23894.53
534.69	24208.16
534.86	24760.53
535.03	24336.89
535.20	24004.53
535.37	24423.49
535.54	24559.24
535.71	24346.25
535.88	24524.13
536.05	24182.42
536.22	24510.09
536.38	24573.28
536.55	24568.60
536.72	24638.82
536.89	24517.11
537.06	25245.02
537.23	25067.14
537.40	24725.42
537.57	25135.01
537.74	24561.58
537.91	24957.13
538.08	25102.25
538.25	24638.82
538.42	25123.31
538.59	25081.18
538.75	24692.65
538.92	25053.09
539.09	25277.79
539.26	25179.48
539.43	25149.06
539.60	25350.34
539.77	25172.46
539.94	25287.15
540.11	25074.16
540.28	25453.33
540.44	25291.83
540.61	25228.63
540.78	25127.99
540.95	25661.63
541.12	25418.22
541.29	25137.35
541.46	25612.48
541.62	25446.30
541.79	25553.97
541.96	25326.94
542.13	25469.71
542.30	25673.34
542.47	25568.01
542.63	25766.96
542.80	25916.75
542.97	26132.08
543.14	26045.48
543.31	25771.64
543.48	25745.89
543.64	25926.11
543.81	25926.11
543.98	26157.83
544.15	26001.01
544.32	26373.16
544.48	26419.97
544.65	25764.62
544.82	26232.72
544.99	25788.02
545.16	26316.98
545.32	26232.72
545.49	26452.73
545.66	26277.19
545.83	26752.32
546.00	26574.44
546.16	26705.51
546.33	26389.54
546.50	26298.26
546.67	26518.27
546.83	26237.41
547.00	26267.83
547.17	26663.38
547.34	26574.44
547.50	26749.98
547.67	26902.12
547.84	27058.93
548.00	27143.19
548.17	26764.03
548.34	27063.61
548.51	27190.00
548.67	26979.36
548.84	26941.91
549.01	26998.08
549.18	26977.01
549.34	26974.67
549.51	26892.76
549.68	26941.91
549.84	27211.07
550.01	27229.79
550.18	27049.57
550.34	27363.20
550.51	27257.88
550.68	27285.97
550.84	26888.07
551.01	27405.33
551.18	27063.61
551.34	27178.30
551.51	27255.54
551.68	27201.71
551.84	27007.44
552.01	27590.24
552.18	27847.69
552.34	27515.34
552.51	27386.61
552.68	27377.25
552.84	27302.35
553.01	27435.76
553.18	27421.72
553.34	27611.30
553.51	27679.18
553.67	27798.54
553.84	27997.49
554.01	28156.64
554.17	27660.45
554.34	27665.13
554.51	27938.97
554.67	27653.43
554.84	27943.66
555.00	28187.07
555.17	27990.47
555.33	27768.12
555.50	27882.80
555.67	27910.89
555.83	27936.63
556.00	27695.56
556.16	28102.81
556.33	28102.81
556.50	27695.56
556.66	27840.67
556.83	27894.50
556.99	28065.36
557.16	28243.24
557.32	28177.71
557.49	28400.06
557.65	28032.60
557.82	28163.67
557.98	28119.20
558.15	28189.41
558.32	28287.71
558.48	28039.62
558.65	28428.15
558.81	28072.39
558.98	28322.82
559.14	28119.20
559.31	27997.49
559.47	28294.74
559.64	28285.37
559.80	27990.47
559.97	28259.63
560.13	28339.21
560.30	28266.65
560.46	28765.18
560.63	28404.74
560.79	28472.62
560.96	28716.03
561.12	28140.26
561.29	28491.34
561.45	28924.34
561.61	28547.51
561.78	28430.49
561.94	28500.70
562.11	28531.13
562.27	28313.46
562.44	28484.32
562.60	28587.30
562.77	28423.47
562.93	28371.97
563.10	28690.29
563.26	28491.34
563.42	28828.38
563.59	28959.45
563.75	28540.49
563.92	28552.20
564.08	28599.01
564.24	28191.75
564.41	28594.32
564.57	28521.77
564.74	28503.04
564.90	28982.85
565.07	29008.60
565.23	28748.80
565.39	28589.64
565.56	28978.17
565.72	28294.74
565.88	28989.88
566.05	28781.57
566.21	28671.56
566.38	28912.64
566.54	28879.87
566.70	28957.11
566.87	28856.46
567.03	28945.41
567.19	29270.74
567.36	29153.71
567.52	28788.59
567.68	29123.29
567.85	28489.00
568.01	28882.21
568.17	28858.81
568.34	28987.53
568.50	29338.62
568.66	29237.97
568.83	29315.21
568.99	29308.19
569.15	28952.43
569.32	29027.32
569.48	28856.46
569.64	29142.01
569.81	29013.28
569.97	29345.64
570.13	29273.08
570.30	28964.13
570.46	29198.18
570.62	29074.13
570.78	29078.82
570.95	28905.62
571.11	29214.57
571.27	29294.14
571.43	28978.17
571.60	29399.47
571.76	29310.53
571.92	29273.08
572.09	29130.31
572.25	29441.60
572.41	29589.05
572.57	29392.45
572.74	29362.02
572.90	29008.60
573.06	29235.63
573.22	29055.41
573.38	29509.47
573.55	29479.05
573.71	29457.98
573.87	29465.00
574.03	29603.10
574.20	28980.51
574.36	28919.66
574.52	29338.62
574.68	29254.36
574.84	29036.69
575.01	29401.81
575.17	29490.75
575.33	29137.33
575.49	29043.71
575.65	29310.53
575.82	29118.60
575.98	29319.89
576.14	29263.72
576.30	29345.64
576.46	29160.73
576.62	28971.15
576.79	29420.53
576.95	29401.81
577.11	29120.95
577.27	29497.77
577.43	29530.54
577.59	29675.65
577.75	29308.19
577.92	29081.16
578.08	29584.37
578.24	28929.02
578.40	29448.62
578.56	29624.16
578.72	29694.38
578.88	29668.63
579.04	29532.88
579.21	29109.24
579.37	29923.75
579.53	29612.46
579.69	29209.89
579.85	29099.88
580.01	29003.92
580.17	29280.10
580.33	29310.53
580.49	29479.05
580.65	29656.93
580.82	29483.73
580.98	29771.61
581.14	29607.78
581.30	29596.07
581.46	29631.18
581.62	29518.84
581.78	29268.40
581.94	29303.51
582.10	29715.44
582.26	29710.76
582.42	29745.87
582.58	29720.12
582.74	29401.81
582.90	29521.18
583.06	29422.87
583.22	29605.44
583.38	29535.22
583.54	29404.15
583.70	29614.80
583.86	29848.85
584.02	29816.08
584.18	29802.04
584.34	29764.59
584.50	30061.84
584.66	29731.83
584.82	29228.61
584.98	29788.00
585.14	29741.19
585.30	29453.30
585.46	29628.84
585.62	29287.12
585.78	29755.23
585.94	29336.27
586.10	29397.13
586.26	29640.54
586.42	29638.20
586.58	29830.13
586.74	29504.79
586.90	29385.43
587.06	29563.31
587.22	29535.22
587.38	29502.45
587.54	29816.08
587.70	29879.28
587.86	29851.19
588.02	30096.95
588.18	30115.67
588.34	29654.59
588.49	29366.70
588.65	29333.93
588.81	29792.68
588.97	29769.27
589.13	29626.50
589.29	29984.60
589.45	29596.07
589.61	29766.93
589.77	30162.48
589.93	29984.60
590.08	29940.13
590.24	30057.16
590.40	29970.56
590.56	30106.31
590.72	29998.65
590.88	29530.54
591.04	29467.34
591.20	30302.92
591.35	30047.80
591.51	30347.39
591.67	30043.12
591.83	29769.27
591.99	30251.42
592.15	29818.42
592.31	30059.50
592.46	29420.53
592.62	29516.50
592.78	30045.46
592.94	29963.54
593.10	29841.83
593.26	30085.25
593.41	30370.79
593.57	30033.75
593.73	29846.51
593.89	30110.99
594.05	29996.31
594.20	29813.74
594.36	30188.23
594.52	29642.88
594.68	29841.83
594.84	29577.35
594.99	30178.87
595.15	30438.67
595.31	30326.32
595.47	30352.07
595.62	30185.89
595.78	30286.53
595.94	29914.39
596.10	30024.39
596.25	30375.47
596.41	29963.54
596.57	29773.95
596.73	30054.82
596.88	30284.19
597.04	29869.92
597.20	30616.55
597.36	30312.28
597.51	30448.03
597.67	30167.16
597.83	30155.46
597.99	30242.06
598.14	29986.94
598.30	30136.74
598.46	30017.37
598.61	30134.40
598.77	30176.53
598.93	30452.71
599.09	30375.47
599.24	30499.52
599.40	30132.06
599.56	30539.31
599.71	30029.07
599.87	30015.03
600.03	30232.70
600.18	29916.73
600.34	29855.87
600.50	30148.44
600.65	30054.82
600.81	30309.94
600.97	30661.02
601.12	30110.99
601.28	30206.95
601.44	30473.78
601.59	30520.59
601.75	30146.10
601.91	30181.21
602.06	29961.20
602.22	30307.60
602.37	30029.07
602.53	30338.02
602.69	30492.50
602.84	30054.82
603.00	30352.07
603.16	30359.09
603.31	30162.48
603.47	30675.06
603.62	30354.41
603.78	30326.32
603.94	30286.53
604.09	30352.07
604.25	30054.82
604.40	29898.00
604.56	30118.01
604.71	30073.54
604.87	30387.18
605.03	29858.21
605.18	30328.66
605.34	30125.04
605.49	30178.87
605.65	30136.74
605.80	29799.70
605.96	30295.89
606.12	29970.56
606.27	29757.57
606.43	30157.80
606.58	30466.75
606.74	30263.13
606.89	30169.51
607.05	30195.25
607.20	30052.48
607.36	30127.38
607.51	30258.45
607.67	29706.08
607.82	29837.15
607.98	30237.38
608.13	29867.58
608.29	30050.14
608.44	30188.23
608.60	29933.11
608.75	30204.61
608.91	30120.35
609.06	30455.05
609.22	29975.24
609.37	29844.17
609.53	30024.39
609.68	29820.77
609.84	29902.68
609.99	29954.18
610.15	29804.38
610.30	29926.09
610.46	29603.10
610.61	29710.76
610.76	29933.11
610.92	30162.48
611.07	30195.25
611.23	29514.16
611.38	29490.75
611.54	29584.37
611.69	29387.77
611.84	29565.65
612.00	29717.78
612.15	29572.67
612.31	29762.25
612.46	29621.82
612.62	30244.40
612.77	29741.19
612.92	29680.33
613.08	29722.46
613.23	29448.62
613.39	29619.48
613.54	29420.53
613.69	29551.60
613.85	29565.65
614.00	29460.32
614.15	29549.26
614.31	29544.58
614.46	29542.24
614.62	29645.23
614.77	29369.04
614.92	29504.79
615.08	29656.93
615.23	29635.86
615.38	29467.34
615.54	29366.70
615.69	29579.69
615.84	29326.91
616.00	29752.89
616.15	29060.09
616.30	29476.71
616.46	29397.13
616.61	29345.64
616.76	29556.28
616.92	29818.42
617.07	29298.83
617.22	29280.10
617.37	29233.29
617.53	29240.31
617.68	29472.03
617.83	29371.38
617.99	29401.81
618.14	29542.24
618.29	29069.45
618.45	29333.93
618.60	29116.26
618.75	29392.45
618.90	29167.76
619.06	29408.83
619.21	29303.51
619.36	28858.81
619.51	28800.29
619.67	28879.87
619.82	28985.19
619.97	29015.62
620.12	28982.85
620.28	28926.68
620.43	28980.51
620.58	29343.30
620.73	29266.06
620.89	29502.45
621.04	29340.96
621.19	29036.69
621.34	28886.89
621.49	28978.17
621.65	29050.73
621.80	28854.12
621.95	28510.07
622.10	28811.99
622.25	28683.27
622.41	29249.67
622.56	28779.23
622.71	29165.42
622.86	29106.90
623.01	28802.63
623.16	28910.30
623.32	28318.14
623.47	28835.40
623.62	28783.91
623.77	28793.27
623.92	28964.13
624.07	28388.36
624.23	28409.42
624.38	28573.26
624.53	28774.55
624.68	28732.42
624.83	28835.40
624.98	28442.19
625.13	28652.84
625.29	28505.38
625.44	28559.22
625.59	28491.34
625.74	28547.51
625.89	28381.34
626.04	28278.35
626.19	28339.21
626.34	28250.27
626.49	28212.82
626.65	28421.13
626.80	28744.12
626.95	28121.54
627.10	28364.95
627.25	28423.47
627.40	28259.63
627.55	28512.41
627.70	28196.43
627.85	28311.12
628.00	28102.81
628.15	28194.09
628.30	28046.64
628.45	27997.49
628.60	28051.32
628.76	27976.42
628.91	28084.09
629.06	28151.96
629.21	28147.28
629.36	27875.78
629.51	28144.94
629.66	28088.77
629.81	27852.38
629.96	27955.36
630.11	27805.56
630.26	27646.41
630.41	27885.14
630.56	27922.59
630.71	28030.26
630.86	27936.63
631.01	27915.57
631.16	27784.50
631.31	28051.32
631.46	27775.14
631.61	27859.40
631.76	27639.39
631.91	27896.85
632.06	27943.66
632.21	27733.01
632.36	27484.91
632.51	27435.76
632.66	27447.46
632.81	27543.42
632.96	27838.33
633.10	27845.35
633.25	27896.85
633.40	27608.96
633.55	27770.46
633.70	27330.44
633.85	27056.59
634.00	27220.43
634.15	27700.24
634.30	27353.84
634.45	27173.62
634.60	27384.27
634.75	27332.78
634.90	27309.37
635.05	27346.82
635.19	27372.57
635.34	27503.64
635.49	27480.23
635.64	27466.19
635.79	27328.10
635.94	27599.60
636.09	27461.51
636.24	27145.53
636.39	27414.69
636.53	27496.61
636.68	27370.22
636.83	26890.41
636.98	27063.61
637.13	27297.67
637.28	27360.86
637.43	27152.55
637.57	27470.87
637.72	27103.40
637.87	26979.36
638.02	27115.11
638.17	27056.59
638.32	26995.74
638.46	26806.16
638.61	27044.89
638.76	26857.65
638.91	26836.58
639.06	26721.90
639.20	27157.24
639.35	27225.11
639.50	27136.17
639.65	27351.50
639.80	26787.43
639.94	26759.34
640.09	27023.83
640.24	26616.57
640.39	26967.65
640.54	26424.65
640.68	26789.77
640.83	26799.13
640.98	26490.18
641.13	26483.16
641.27	26740.62
641.42	26380.18
641.57	26808.50
641.72	26747.64
641.86	26483.16
642.01	26092.29
642.16	26455.08
642.31	26525.29
642.45	26534.65
642.60	26167.19
642.75	26214.00
642.90	26230.38
643.04	26118.04
643.19	26469.12
643.34	26167.19
643.48	26544.02
643.63	26195.28
643.78	26356.77
643.93	26150.81
644.07	26370.82
644.22	26359.11
644.37	26394.22
644.51	26438.69
644.66	26326.35
644.81	26026.76
644.95	26164.85
645.10	25921.43
645.25	26005.69
645.39	25996.33
645.54	26031.44
645.69	26396.56
645.83	26230.38
645.98	26010.37
646.13	26382.52
646.27	26214.00
646.42	26024.42
646.57	26143.78
646.71	25949.52
646.86	26183.57
647.00	25869.94
647.15	26017.40
647.30	26001.01
647.44	25844.20
647.59	25781.00
647.74	25881.64
647.88	25996.33
648.03	26024.42
648.17	26082.93
648.32	25961.22
648.47	26012.71
648.61	25900.37
648.76	26003.35
648.90	25963.56
649.05	26120.38
649.20	25703.76
649.34	25556.31
649.49	25542.27
649.63	25846.54
649.78	25577.37
649.92	25804.41
650.07	25628.87
650.21	25806.75
650.36	25558.65
650.51	26089.95
650.65	25696.74
650.80	25769.30
650.94	25773.98
651.09	25560.99
651.23	25509.50
651.38	25338.64
651.52	25247.36
651.67	25488.43
651.81	25448.64
651.96	25795.04
652.10	25404.17
652.25	25294.17
652.39	25486.09
652.54	25729.51
652.68	25441.62
652.83	25572.69
652.97	25832.49
653.12	25247.36
653.26	25226.29
653.41	25507.16
653.55	25355.02
653.70	25226.29
653.84	25333.96
653.99	25326.94
654.13	25326.94
654.27	24980.54
654.42	25315.23
654.56	25095.22
654.71	25539.93
654.85	25139.69
655.00	25448.64
655.14	25172.46
655.29	25170.12
655.43	25130.33
655.57	25476.73
655.72	24978.20
655.86	24842.45
656.01	25067.14
656.15	24620.10
656.30	25029.69
656.44	25029.69
656.58	24952.45
656.73	24973.52
656.87	25193.53
657.01	24690.31
657.16	24727.76
657.30	25088.20
657.45	24776.91
657.59	25039.05
657.73	24835.42
657.88	24762.87
658.02	24835.42
658.16	24886.92
658.31	24879.89
658.45	24615.41
658.60	24751.17
658.74	24847.13
658.88	24580.31
659.03	24388.38
659.17	24400.08
659.31	24840.11
659.46	25034.37
659.60	24730.10
659.74	24439.87
659.89	24388.38
660.03	24547.54
660.17	24467.96
660.32	24243.27
660.46	24308.80
660.60	24051.34
660.74	24467.96
660.89	23953.04
661.03	24006.87
661.17	23967.09
661.32	24034.96
661.46	24163.69
661.60	24224.54
661.74	24023.26
661.89	23931.98
662.03	24318.17
662.17	23777.50
662.31	23953.04
662.46	23880.49
662.60	23882.83
662.74	23697.92
662.88	23583.24
663.03	23468.55
663.17	23632.39
663.31	23220.45
663.45	23405.36
663.60	23538.77
663.74	23358.55
663.88	23410.04
664.02	23552.81
664.17	23463.87
664.31	23779.84
664.45	23714.31
664.59	23634.73
664.73	23529.41
664.88	23454.51
665.02	22820.22
665.16	23026.19
665.30	23365.57
665.44	23213.43
665.59	22974.70
665.73	23346.84
665.87	22848.31
666.01	23414.72
666.15	23143.22
666.29	22888.10
666.44	22974.70
666.58	22869.37
666.72	22691.49
666.86	23349.18
667.00	22735.96
667.14	22871.72
667.28	22745.33
667.43	22815.54
667.57	23108.11
667.71	22595.53
667.85	22675.11
667.99	22522.98
668.13	22436.38
668.27	22551.06
668.41	22712.56
668.56	22202.32
668.70	22562.76
668.84	22719.58
668.98	22712.56
669.12	22614.26
669.26	22246.79
669.40	22534.68
669.54	22272.54
669.68	22544.04
669.82	22279.56
669.96	21914.44
670.10	22235.09
670.25	22171.89
670.39	22001.04
670.53	21865.28
670.67	21937.84
670.81	21802.09
670.95	22113.38
671.09	21935.50
671.23	21799.75
671.37	21759.96
671.51	22082.95
671.65	22075.93
671.79	21605.49
671.93	21703.79
672.07	21633.57
672.21	21837.20
672.35	21174.83
672.49	21472.07
672.63	21401.86
672.77	21497.82
672.91	21111.63
673.05	21621.87
673.19	21479.10
673.33	21252.06
673.47	21228.66
673.61	21443.99
673.75	21256.75
673.89	21249.72
674.03	21535.27
674.17	21355.05
674.31	20982.90
674.45	20868.22
674.59	20950.14
674.73	21013.33
674.87	20800.34
675.01	21010.99
675.15	20416.49
675.29	21027.37
675.43	20690.34
675.56	20842.47
675.70	20706.72
675.84	20369.68
675.98	20130.95
676.12	20643.52
676.26	20521.82
676.40	20456.28
676.54	20292.44
676.68	20346.28
676.82	19859.45
676.96	20236.27
677.10	20182.44
677.23	20215.21
677.37	20163.72
677.51	19592.62
677.65	19735.40
677.79	19756.46
677.93	19744.76
678.07	19679.22
678.21	19452.19
678.34	19814.98
678.48	19573.90
678.62	19541.13
678.76	19288.35
678.90	19360.91
679.04	19639.44
679.18	18981.74
679.31	19007.49
679.45	19211.12
679.59	18860.04
679.73	18806.20
679.87	19007.49
680.00	19070.68
680.14	18703.22
680.28	19089.41
680.42	19124.52
680.56	18904.51
680.70	18972.38
680.83	19040.26
680.97	18799.18
681.11	18609.60
681.25	18513.64
681.39	18513.64
681.52	18232.77
681.66	18366.18
681.80	18204.69
681.94	18466.83
682.07	18333.42
682.21	18033.83
682.35	17844.24
682.49	17884.03
682.62	17759.98
682.76	17905.10
682.90	17713.17
683.04	17783.39
683.17	17947.23
683.31	17680.41
683.45	18153.20
683.59	17708.49
683.72	17467.42
683.86	17371.46
684.00	17781.05
684.13	17486.14
684.27	17376.14
684.41	17083.57
684.55	17170.17
684.68	17046.12
684.82	17228.68
684.96	16912.71
685.09	16823.77
685.23	16627.17
685.37	16769.94
685.50	16882.28
685.64	16961.86
685.78	16924.41
685.91	16819.09
686.05	17090.59
686.19	16472.69
686.32	16517.16
686.46	16311.19
686.60	16418.86
686.73	16315.87
686.87	16376.73
687.01	16070.12
687.14	16058.42
687.28	16020.97
687.42	15754.15
687.55	15903.94
687.69	15997.56
687.82	15735.42
687.96	15861.81
688.10	16210.55
688.23	15552.86
688.37	15807.98
688.50	15662.86
688.64	15861.81
688.78	15908.62
688.91	15590.31
689.05	15349.23
689.18	15316.47
689.32	15108.16
689.46	15318.81
689.59	15131.56
689.73	15145.61
689.86	15159.65
690.00	15178.37
690.13	15257.95
690.27	15019.22
690.41	15143.27
690.54	15047.30
690.68	14932.62
690.81	14731.33
690.95	14958.36
691.08	14981.77
691.22	14398.98
691.35	14640.05
691.49	14693.88
691.62	14717.29
691.76	14537.07
691.89	14513.66
692.03	13970.66
692.16	14347.48
692.30	14029.17
692.43	14153.22
692.57	14090.02
692.70	14120.45
692.84	13872.36
692.97	13738.94
693.11	13980.02
693.24	13853.63
693.38	13844.27
693.51	13937.89
693.65	13820.86
693.78	13469.78
693.92	13872.36
694.05	13465.10
694.19	13647.66
694.32	13392.55
694.45	13556.38
694.59	13249.77
694.72	12872.95
694.86	13446.38
694.99	13092.96
695.13	12819.11
695.26	12926.78
695.39	12875.29
695.53	12992.31
695.66	12795.71
695.80	12828.48
695.93	12755.92
696.07	12863.58
696.20	12786.35
696.33	13022.74
696.47	12685.70
696.60	12779.32
696.73	12767.62
696.87	12528.89
697.00	12650.60
697.14	12201.21
697.27	12100.57
697.40	12367.39
697.54	12222.28
697.67	12241.00
697.80	12294.83
697.94	12276.11
698.07	11843.11
698.21	11906.31
698.34	11875.88
698.47	11981.20
698.61	11873.54
698.74	12006.95
698.87	11758.85
699.01	11964.82
699.14	11815.02
699.27	11456.92
699.40	11550.54
699.54	11576.29
699.67	11393.73
699.80	11536.50
699.94	11297.77
700.07	11276.70
700.20	11122.23
700.34	11110.52
700.47	11054.35
700.60	11157.33
700.73	11330.53
700.87	10923.28
701.00	11014.56
701.13	11208.83
701.26	10750.08
701.40	11131.59
701.53	11059.03
701.66	10860.09
701.79	10752.42
701.93	10721.99
702.06	10806.25
702.19	10787.53
702.32	10686.89
702.46	10476.24
702.59	10413.04
702.72	10401.34
702.85	10188.35
702.99	10256.23
703.12	10335.81
703.25	10345.17
703.38	10167.29
703.51	10375.59
703.65	10036.22
703.78	9895.78
703.91	10097.07
704.04	10195.37
704.17	10073.67
704.31	9933.23
704.44	9900.47
704.57	9802.16
704.70	9694.50
704.83	9731.95
704.96	9612.58
705.10	9497.89
705.23	9675.77
>>>>>End Processed Spectral Data<<<<<
