SpectraSuite Data File
++++++++++++++++++++++++++++++++++++
Date: Fri Oct 18 13:58:34 GMT-05:00 2013
User: bianchi
Dark Spectrum Present: No
Reference Spectrum Present: No
Number of Sampled Component Spectra: 1
Spectrometers: USB2+H05261
Integration Time (usec): 50000 (USB2+H05261)
Spectra Averaged: 1 (USB2+H05261)
Boxcar Smoothing: 0 (USB2+H05261)
Correct for Electrical Dark: No (USB2+H05261)
Strobe/Lamp Enabled: No (USB2+H05261)
Correct for Detector Non-linearity: No (USB2+H05261)
Correct for Stray Light: No (USB2+H05261)
Number of Pixels in Processed Spectrum: 2048
>>>>>Begin Processed Spectral Data<<<<<
365.73	0.00
365.92	0.00
366.12	0.00
366.32	0.00
366.52	0.00
366.72	0.00
366.91	0.00
367.11	0.00
367.31	0.00
367.51	0.00
367.70	0.00
367.90	0.00
368.10	0.00
368.30	0.00
368.49	0.00
368.69	0.00
368.89	0.00
369.09	0.00
369.28	0.00
369.48	0.00
369.68	0.00
369.87	0.00
370.07	0.00
370.27	0.00
370.47	0.00
370.66	100.64
370.86	77.24
371.06	91.28
371.25	238.73
371.45	77.24
371.65	208.31
371.84	177.88
372.04	126.39
372.24	173.20
372.44	152.13
372.63	215.33
372.83	248.10
373.03	234.05
373.22	154.48
373.42	205.97
373.62	175.54
373.81	301.93
374.01	224.69
374.21	292.57
374.40	215.33
374.60	234.05
374.79	198.95
374.99	173.20
375.19	287.89
375.38	255.12
375.58	238.73
375.78	294.91
375.97	278.52
376.17	292.57
376.37	243.42
376.56	294.91
376.76	231.71
376.95	306.61
377.15	198.95
377.35	241.08
377.54	266.82
377.74	259.80
377.93	257.46
378.13	243.42
378.33	287.89
378.52	201.29
378.72	344.06
378.91	297.25
379.11	222.35
379.31	269.16
379.50	224.69
379.70	278.52
379.89	285.55
380.09	264.48
380.28	266.82
380.48	325.33
380.68	308.95
380.87	330.02
381.07	313.63
381.26	290.23
381.46	318.31
381.65	320.65
381.85	320.65
382.04	358.10
382.24	287.89
382.43	292.57
382.63	348.74
382.83	325.33
383.02	379.17
383.22	395.55
383.41	273.84
383.61	353.42
383.80	339.38
384.00	414.27
384.19	433.00
384.39	402.57
384.58	400.23
384.78	395.55
384.97	400.23
385.17	337.04
385.36	301.93
385.56	367.46
385.75	339.38
385.95	334.70
386.14	358.10
386.34	369.80
386.53	390.87
386.72	395.55
386.92	355.76
387.11	372.15
387.31	383.85
387.50	339.38
387.70	458.74
387.89	425.98
388.09	428.32
388.28	435.34
388.48	456.40
388.67	325.33
388.86	472.79
389.06	425.98
389.25	435.34
389.45	435.34
389.64	444.70
389.84	507.90
390.03	449.38
390.22	608.54
390.42	451.72
390.61	545.34
390.81	491.51
391.00	484.49
391.19	550.03
391.39	486.83
391.58	564.07
391.78	444.70
391.97	489.17
392.16	545.34
392.36	631.94
392.55	498.53
392.75	454.06
392.94	510.24
393.13	566.41
393.33	519.60
393.52	571.09
393.71	528.96
393.91	580.45
394.10	592.16
394.29	550.03
394.49	526.62
394.68	613.22
394.88	578.11
395.07	564.07
395.26	678.76
395.46	575.77
395.65	571.09
395.84	631.94
396.04	601.52
396.23	578.11
396.42	575.77
396.62	596.84
396.81	620.24
397.00	641.31
397.19	587.47
397.39	657.69
397.58	634.29
397.77	655.35
397.97	594.50
398.16	697.48
398.35	711.52
398.55	765.36
398.74	664.71
398.93	671.73
399.12	627.26
399.32	692.80
399.51	690.46
399.70	690.46
399.90	692.80
400.09	812.17
400.28	690.46
400.47	751.31
400.67	741.95
400.86	727.91
401.05	763.01
401.24	809.83
401.44	828.55
401.63	774.72
401.82	807.48
402.01	737.27
402.21	835.57
402.40	807.48
402.59	809.83
402.78	877.70
402.97	816.85
403.17	866.00
403.36	795.78
403.55	805.14
403.74	856.64
403.93	910.47
404.13	966.64
404.32	866.00
404.51	894.08
404.70	1001.75
404.89	1008.77
405.09	933.87
405.28	922.17
405.47	964.30
405.66	994.73
405.85	983.02
406.05	912.81
406.24	978.34
406.43	891.74
406.62	1083.67
406.81	1088.35
407.00	1074.31
407.20	971.32
407.39	964.30
407.58	1057.92
407.77	1055.58
407.96	1076.65
408.15	1067.28
408.34	1076.65
408.54	1069.62
408.73	1062.60
408.92	1060.26
409.11	1128.14
409.30	1165.59
409.49	1224.10
409.68	1083.67
409.87	1095.37
410.07	1135.16
410.26	1146.86
410.45	1217.08
410.64	1210.06
410.83	1217.08
411.02	1163.25
411.21	1247.51
411.40	1240.48
411.59	1289.64
411.78	1156.22
411.98	1266.23
412.17	1198.35
412.36	1259.21
412.55	1308.36
412.74	1331.76
412.93	1474.54
413.12	1350.49
413.31	1418.36
413.50	1355.17
413.69	1343.47
413.88	1430.07
414.07	1444.11
414.26	1345.81
414.45	1427.73
414.64	1437.09
414.83	1530.71
415.02	1668.80
415.22	1481.56
415.41	1596.25
415.60	1647.74
415.79	1633.69
415.98	1661.78
416.17	1666.46
416.36	1554.12
416.55	1692.21
416.74	1586.88
416.93	1661.78
417.12	1692.21
417.31	1710.93
417.50	1621.99
417.69	1748.38
417.88	1694.55
418.07	1844.34
418.26	1729.66
418.45	1755.40
418.64	1832.64
418.83	1827.96
419.02	1753.06
419.21	1813.92
419.39	1783.49
419.58	1870.09
419.77	1863.07
419.96	1874.77
420.15	1966.05
420.34	1806.89
420.53	1813.92
420.72	1914.56
420.91	1912.22
421.10	1935.62
421.29	1954.35
421.48	1959.03
421.67	1956.69
421.86	1914.56
422.05	1914.56
422.24	2026.90
422.43	1942.64
422.61	2076.06
422.80	2031.58
422.99	2043.29
423.18	1947.33
423.37	2045.63
423.56	2043.29
423.75	1893.49
423.94	2071.37
424.13	1774.13
424.32	1856.04
424.50	1921.58
424.69	2134.57
424.88	2024.56
425.07	2036.27
425.26	1912.22
425.45	1933.28
425.64	1984.77
425.83	1952.01
426.01	2054.99
426.20	2024.56
426.39	2094.78
426.58	2064.35
426.77	1977.75
426.96	2120.53
427.15	2111.16
427.33	2069.03
427.52	1984.77
427.71	2169.68
427.90	2183.72
428.09	2244.57
428.28	2235.21
428.46	2190.74
428.65	2078.40
428.84	2172.02
429.03	2253.94
429.22	2157.97
429.40	2286.70
429.59	2349.90
429.78	2209.47
429.97	2122.87
430.16	2139.25
430.34	2232.87
430.53	2387.35
430.72	2218.83
430.91	2200.10
431.10	2289.04
431.28	2279.68
431.47	2310.11
431.66	2441.18
431.85	2385.01
432.03	2434.16
432.22	2406.07
432.41	2438.84
432.60	2466.92
432.79	2361.60
432.97	2403.73
433.16	2415.43
433.35	2356.92
433.54	2567.57
433.72	2586.29
433.91	2462.24
434.10	2504.37
434.28	2621.40
434.47	2480.97
434.66	2614.38
434.85	2621.40
435.03	2480.97
435.22	2623.74
435.41	2661.19
435.59	2616.72
435.78	2731.41
435.97	2633.10
436.16	2654.17
436.34	2691.62
436.53	2719.70
436.72	2773.53
436.90	2675.23
437.09	2724.38
437.28	2712.68
437.46	2736.09
437.65	2724.38
437.84	2733.75
438.02	2778.22
438.21	2829.71
438.40	2696.30
438.58	2850.77
438.77	2869.50
438.96	2775.88
439.14	2923.33
439.33	2892.90
439.52	2883.54
439.70	2974.82
439.89	3007.59
440.08	3054.40
440.26	3035.67
440.45	3049.72
440.63	3087.17
440.82	3091.85
441.01	3007.59
441.19	3148.02
441.38	3243.98
441.57	3225.26
441.75	3162.06
441.94	3204.19
442.12	3229.94
442.31	3236.96
442.50	3405.48
442.68	3293.13
442.87	3316.54
443.05	3248.66
443.24	3356.33
443.43	3431.23
443.61	3503.78
443.80	3438.25
443.98	3227.60
444.17	3192.49
444.35	3428.88
444.54	3431.23
444.73	3393.78
444.91	3258.03
445.10	3513.14
445.28	3382.07
445.47	3452.29
445.65	3382.07
445.84	3506.12
446.02	3583.36
446.21	3307.18
446.39	3482.72
446.58	3463.99
446.77	3499.10
446.95	3295.47
447.14	3496.76
447.32	3473.36
447.51	3611.45
447.69	3473.36
447.88	3534.21
448.06	3489.74
448.25	3410.16
448.43	3426.54
448.62	3384.41
448.80	3473.36
448.99	3571.66
449.17	3679.32
449.36	3524.85
449.54	3669.96
449.73	3716.77
449.91	3527.19
450.10	3679.32
450.28	3840.82
450.46	3676.98
450.65	3630.17
450.83	3655.92
451.02	3749.54
451.20	3721.45
451.39	3794.01
451.57	3651.24
451.76	3782.31
451.94	3737.84
452.13	3744.86
452.31	3880.61
452.49	3756.56
452.68	3808.05
452.86	3796.35
453.05	3920.40
453.23	4084.23
453.42	3854.86
453.60	3761.24
453.78	4084.23
453.97	3801.03
454.15	3955.51
454.34	3915.72
454.52	3817.41
454.70	3864.22
454.89	4042.11
455.07	4079.55
455.26	3889.97
455.44	4072.53
455.62	4060.83
455.81	4051.47
455.99	4159.13
456.17	4098.28
456.36	4177.86
456.54	4210.62
456.73	4315.95
456.91	4271.48
457.09	4138.07
457.28	4498.51
457.46	4231.69
457.64	4299.56
457.83	4348.72
458.01	4273.82
458.19	4313.61
458.38	4194.24
458.56	4346.37
458.74	4325.31
458.93	4358.08
459.11	4428.29
459.29	4470.42
459.48	4580.43
459.66	4461.06
459.84	4587.45
460.03	4535.96
460.21	4521.92
460.39	4458.72
460.57	4348.72
460.76	4503.19
460.94	4594.47
461.12	4606.17
461.31	4484.47
461.49	4482.13
461.67	4573.41
461.85	4711.50
462.04	4631.92
462.22	4718.52
462.40	4786.40
462.59	4645.96
462.77	4753.63
462.95	4802.78
463.13	4816.82
463.32	4753.63
463.50	4765.33
463.68	4873.00
463.86	4727.88
464.05	4767.67
464.23	4657.67
464.41	4760.65
464.59	4777.03
464.78	4936.19
464.96	4793.42
465.14	4741.93
465.32	5004.07
465.50	5034.49
465.69	4994.70
465.87	4840.23
466.05	4973.64
466.23	4880.02
466.41	4961.94
466.60	5226.42
466.78	5015.77
466.96	4985.34
467.14	5069.60
467.32	5055.56
467.51	5170.24
467.69	4990.02
467.87	5088.32
468.05	5114.07
468.23	5032.15
468.41	5177.26
468.60	5116.41
468.78	5191.31
468.96	5149.18
469.14	5263.86
469.32	5151.52
469.50	4968.96
469.69	5252.16
469.87	5439.40
470.05	5406.64
470.23	5439.40
470.41	5345.78
470.59	5479.19
470.77	5460.47
470.95	5481.53
471.14	5467.49
471.32	5385.57
471.50	5586.86
471.68	5565.79
471.86	5483.88
472.04	5598.56
472.22	5795.17
472.40	5626.65
472.58	5785.80
472.77	5565.79
472.95	5760.06
473.13	5959.00
473.31	5834.96
473.49	5898.15
473.67	5837.30
473.85	5949.64
474.03	5849.00
474.21	5949.64
474.39	5912.19
474.57	6038.58
474.75	6108.80
474.93	6136.88
475.12	5980.07
475.30	5926.24
475.48	6167.31
475.66	6094.76
475.84	6083.05
476.02	6282.00
476.20	6305.40
476.38	6396.68
476.56	6333.49
476.74	6649.46
476.92	6403.71
477.10	6396.68
477.28	6551.16
477.46	6485.62
477.64	6668.19
477.82	6764.15
478.00	6846.07
478.18	6942.03
478.36	6850.75
478.54	7023.95
478.72	7052.03
478.90	7096.50
479.08	7091.82
479.26	7045.01
479.44	7138.63
479.62	7358.64
479.80	7250.98
479.98	7269.70
480.16	7524.82
480.34	7419.50
480.52	7489.71
480.70	7634.83
480.88	7590.36
481.06	7630.15
481.24	7716.75
481.41	7627.81
481.59	8102.93
481.77	7967.18
481.95	7962.50
482.13	8224.64
482.31	8035.06
482.49	8095.91
482.67	8081.87
482.85	8423.59
483.03	8491.46
483.21	8493.80
483.39	8634.24
483.57	8652.96
483.74	8725.52
483.92	8547.64
484.10	8533.59
484.28	8683.39
484.46	8943.19
484.64	9170.22
484.82	8784.03
485.00	9111.71
485.18	9067.24
485.35	9207.67
485.53	9214.69
485.71	9434.70
485.89	9689.82
486.07	9600.88
486.25	9600.88
486.43	9804.50
486.61	9720.24
486.78	9650.03
486.96	9839.61
487.14	10118.14
487.32	9926.21
487.50	10033.88
487.68	10113.45
487.85	10200.05
488.03	10429.43
488.21	10485.60
488.39	10380.28
488.57	10581.56
488.75	10424.75
488.92	10888.17
489.10	10787.53
489.28	10768.80
489.46	11075.42
489.64	10881.15
489.81	11213.51
489.99	11412.45
490.17	11033.29
490.35	11393.73
490.53	11564.59
490.70	11452.24
490.88	11447.56
491.06	11487.35
491.24	11562.25
491.41	11592.67
491.59	11669.91
491.77	11777.58
491.95	12241.00
492.13	12095.89
492.30	12100.57
492.48	12070.14
492.66	12159.08
492.84	12187.17
493.01	12512.50
493.19	12266.75
493.37	12592.08
493.54	12397.82
493.72	12566.34
493.90	12683.36
494.08	12872.95
494.25	13022.74
494.43	13114.02
494.61	13303.60
494.79	13327.01
494.96	13146.79
495.14	13376.16
495.32	13516.59
495.49	13385.52
495.67	13422.97
495.85	13537.66
496.02	13738.94
496.20	13668.73
496.38	13788.10
496.55	13877.04
496.73	14293.65
496.91	13996.40
497.09	14272.59
497.26	14176.62
497.44	14094.71
497.62	14078.32
497.79	14537.07
497.97	14546.43
498.14	14572.18
498.32	14679.84
498.50	14831.97
498.67	14693.88
498.85	14810.91
499.03	14752.40
499.20	14984.11
499.38	15033.26
499.56	14888.15
499.73	15262.63
499.91	15215.82
500.08	15208.80
500.26	15164.33
500.44	15325.83
500.61	15391.36
500.79	15314.13
500.97	15506.05
501.14	15716.70
501.32	15611.37
501.49	15882.88
501.67	15669.89
501.84	15840.75
502.02	15765.85
502.20	16119.27
502.37	15747.12
502.55	15953.09
502.72	15976.50
502.90	15927.35
503.07	16095.86
503.25	16119.27
503.43	16203.53
503.60	16482.05
503.78	16060.76
503.95	16470.35
504.13	16540.57
504.30	16638.87
504.48	16554.61
504.65	16849.52
504.83	16844.84
505.01	16868.24
505.18	17055.48
505.36	16961.86
505.53	16940.80
505.71	17039.10
505.88	17121.02
506.06	17174.85
506.23	17259.11
506.41	16889.31
506.58	17151.45
506.76	17415.93
506.93	17298.90
507.11	16936.12
507.28	17364.43
507.46	17343.37
507.63	17315.28
507.81	17675.73
507.98	17394.86
508.16	17755.30
508.33	17701.47
508.50	17558.70
508.68	17584.44
508.85	17891.06
509.03	17879.35
509.20	18106.38
509.38	18459.81
509.55	17891.06
509.73	18003.40
509.90	18038.51
510.08	18333.42
510.25	18059.57
510.42	18258.52
510.60	18122.77
510.77	18518.32
510.95	18857.70
511.12	18448.10
511.30	18581.51
511.47	18450.44
511.64	18609.60
511.82	18881.10
511.99	18717.26
512.17	18913.87
512.34	18820.25
512.51	19110.47
512.69	19332.82
512.86	19197.07
513.04	19180.69
513.21	19077.71
513.38	19253.25
513.56	19786.89
513.73	19330.48
513.90	19274.31
514.08	19475.60
514.25	19283.67
514.43	19412.40
514.60	19679.22
514.77	19564.54
514.95	19660.50
515.12	19707.31
515.29	19616.03
515.47	19623.05
515.64	19964.77
515.81	19889.87
515.99	20133.29
516.16	20084.14
516.33	20100.52
516.51	20149.67
516.68	20023.28
516.85	20053.71
517.03	20280.74
517.20	20432.88
517.37	20255.00
517.54	20629.48
517.72	20475.01
517.89	20460.96
518.06	20505.43
518.24	20430.54
518.41	20262.02
518.58	20318.19
518.75	20725.44
518.93	20788.64
519.10	20851.83
519.27	20723.10
519.45	20673.95
519.62	20868.22
519.79	20769.91
519.96	21053.12
520.14	21170.15
520.31	21216.96
520.48	21266.11
520.65	21095.25
520.83	21570.38
521.00	21289.51
521.17	21469.73
521.34	21025.03
521.52	21401.86
521.69	21486.12
521.86	21453.35
522.03	21565.70
522.20	21476.76
522.38	21851.24
522.55	21458.03
522.72	21994.01
522.89	21956.57
523.07	21928.48
523.24	21743.58
523.41	21979.97
523.58	21827.84
523.75	22082.95
523.92	21886.35
524.10	21811.45
524.27	22174.24
524.44	22080.61
524.61	22267.86
524.78	22106.36
524.96	22127.42
525.13	22099.34
525.30	22150.83
525.47	22380.20
525.64	22118.06
525.81	22256.15
525.98	22326.37
526.16	22544.04
526.33	22555.74
526.50	22871.72
526.67	22799.16
526.84	22593.19
527.01	22796.82
527.18	22607.23
527.36	22998.10
527.53	22647.02
527.70	23222.80
527.87	22941.93
528.04	22916.19
528.21	22881.08
528.38	22834.27
528.55	23288.33
528.72	23150.24
528.89	23346.84
529.07	23183.01
529.24	22927.89
529.41	23234.50
529.58	23173.64
529.75	23300.03
529.92	23503.66
530.09	23253.22
530.26	23185.35
530.43	23627.71
530.60	23232.16
530.77	23379.61
530.94	23594.94
531.11	23344.50
531.28	23447.49
531.46	23510.68
531.63	23517.70
531.80	23700.26
531.97	23641.75
532.14	24004.53
532.31	23899.21
532.48	23894.53
532.65	23868.78
532.82	23988.15
532.99	23562.17
533.16	23688.56
533.33	24397.74
533.50	24334.55
533.67	23974.11
533.84	23955.38
534.01	23838.36
534.18	24063.05
534.35	24423.49
534.52	24002.19
534.69	24367.32
534.86	24542.86
535.03	24182.42
535.20	24428.17
535.37	24889.26
535.54	24430.51
535.71	23981.13
535.88	24421.15
536.05	24458.60
536.22	24725.42
536.38	25076.50
536.55	24805.00
536.72	24982.88
536.89	24568.60
537.06	24285.40
537.23	24830.74
537.40	24411.79
537.57	25186.50
537.74	24926.71
537.91	24896.28
538.08	25186.50
538.25	25118.63
538.42	25205.23
538.59	25544.61
538.75	24652.86
538.92	25015.65
539.09	25071.82
539.26	24884.58
539.43	24903.30
539.60	25373.75
539.77	24952.45
539.94	25502.48
540.11	25151.40
540.28	25434.60
540.44	25523.54
540.61	25202.89
540.78	25301.19
540.95	25443.96
541.12	25553.97
541.29	25488.43
541.46	25539.93
541.62	25371.41
541.79	25476.73
541.96	25570.35
542.13	25659.29
542.30	25530.56
542.47	25923.77
542.63	25635.89
542.80	26108.68
542.97	26139.10
543.14	25876.96
543.31	25993.99
543.48	26356.77
543.64	26029.10
543.81	26316.98
543.98	26478.48
544.15	26043.14
544.32	26459.76
544.48	26649.34
544.65	26380.18
544.82	26260.81
544.99	26485.50
545.16	26333.37
545.32	26087.61
545.49	26361.45
545.66	26436.35
545.83	26810.84
546.00	26925.52
546.16	26473.80
546.33	26452.73
546.50	26155.49
546.67	26363.79
546.83	26228.04
547.00	26462.10
547.17	26485.50
547.34	26813.18
547.50	26668.06
547.67	27016.80
547.84	26745.30
548.00	26719.56
548.17	27138.51
548.34	26906.80
548.51	26831.90
548.67	27005.10
548.84	26738.28
549.01	26890.41
549.18	26881.05
549.34	26951.27
549.51	27094.04
549.68	26946.59
549.84	27054.25
550.01	27089.36
550.18	26778.07
550.34	27108.08
550.51	27161.92
550.68	27096.38
550.84	26785.09
551.01	27089.36
551.18	26944.25
551.34	27473.21
551.51	27393.63
551.68	27208.73
551.84	27126.81
552.01	27075.32
552.18	27330.44
552.34	27417.04
552.51	27536.40
552.68	27164.26
552.84	27047.23
553.01	27285.97
553.18	27145.53
553.34	27344.48
553.51	27613.64
553.67	27929.61
553.84	27786.84
554.01	27625.34
554.17	27777.48
554.34	27541.08
554.51	27807.90
554.67	27768.12
554.84	27765.78
555.00	27782.16
555.17	27941.32
555.33	27887.48
555.50	28306.44
555.67	27831.31
555.83	28060.68
556.00	28177.71
556.16	28154.30
556.33	27775.14
556.50	27807.90
556.66	28020.89
556.83	27768.12
556.99	28510.07
557.16	27969.40
557.32	28093.45
557.49	28226.86
557.65	27983.44
557.82	28547.51
557.98	27482.57
558.15	28339.21
558.32	28187.07
558.48	28603.69
558.65	28341.55
558.81	28404.74
558.98	28432.83
559.14	28287.71
559.31	28491.34
559.47	27948.34
559.64	28184.73
559.80	28245.58
559.97	28568.58
560.13	28039.62
560.30	28507.72
560.46	28561.56
560.63	28142.60
560.79	28650.50
560.96	28645.82
561.12	28407.08
561.29	28081.75
561.45	28444.53
561.61	28325.16
561.78	28706.67
561.94	28126.22
562.11	28634.11
562.27	28591.98
562.44	28400.06
562.60	28627.09
562.77	28620.07
562.93	28622.41
563.10	28624.75
563.26	28577.94
563.42	28847.10
563.59	28929.02
563.75	28568.58
563.92	29029.66
564.08	28687.95
564.24	28596.67
564.41	28587.30
564.57	28566.24
564.74	28868.17
564.90	29024.98
565.07	28879.87
565.23	28666.88
565.39	29078.82
565.56	29001.58
565.72	28606.03
565.88	28734.76
566.05	28978.17
566.21	29088.18
566.38	28856.46
566.54	29130.31
566.70	29142.01
566.87	29024.98
567.03	28926.68
567.19	29165.42
567.36	29146.69
567.52	28458.57
567.68	29099.88
567.85	28748.80
568.01	28989.88
568.17	28797.95
568.34	29149.03
568.50	29237.97
568.66	29102.22
568.83	28854.12
568.99	28985.19
569.15	29010.94
569.32	28992.22
569.48	28671.56
569.64	28727.74
569.81	29294.14
569.97	29324.57
570.13	29090.52
570.30	29095.20
570.46	29357.34
570.62	29329.25
570.78	28882.21
570.95	28924.34
571.11	29158.39
571.27	29048.39
571.43	28837.74
571.60	29383.09
571.76	29184.14
571.92	28933.70
572.09	29008.60
572.25	29319.89
572.41	29329.25
572.57	29457.98
572.74	29397.13
572.90	28971.15
573.06	29287.12
573.22	29099.88
573.38	29633.52
573.55	29092.86
573.71	29542.24
573.87	29680.33
574.03	29216.91
574.20	29165.42
574.36	29343.30
574.52	29439.26
574.68	29223.93
574.84	29160.73
575.01	29343.30
575.17	29600.76
575.33	29130.31
575.49	29116.26
575.65	29575.01
575.82	29654.59
575.98	29647.57
576.14	29640.54
576.30	29422.87
576.46	29060.09
576.62	29504.79
576.79	29469.69
576.95	29422.87
577.11	29369.04
577.27	29654.59
577.43	29481.39
577.59	29563.31
577.75	29553.94
577.92	29357.34
578.08	29139.67
578.24	29195.84
578.40	29324.57
578.56	29385.43
578.72	29481.39
578.88	29806.72
579.04	29544.58
579.21	29677.99
579.37	29986.94
579.53	29677.99
579.69	28912.64
579.85	29432.24
580.01	29324.57
580.17	29558.63
580.33	29558.63
580.49	29516.50
580.65	29689.70
580.82	29600.76
580.98	29347.98
581.14	29174.78
581.30	29696.72
581.46	29401.81
581.62	29490.75
581.78	29158.39
581.94	29502.45
582.10	29890.98
582.26	29638.20
582.42	29748.21
582.58	29656.93
582.74	29448.62
582.90	29404.15
583.06	29392.45
583.22	29549.26
583.38	29474.37
583.54	29769.27
583.70	29486.07
583.86	29355.00
584.02	29624.16
584.18	29839.49
584.34	29783.32
584.50	29813.74
584.66	29816.08
584.82	29266.06
584.98	29860.55
585.14	29656.93
585.30	29371.38
585.46	29490.75
585.62	29647.57
585.78	29357.34
585.94	29221.59
586.10	29717.78
586.26	29631.18
586.42	29820.77
586.58	30073.54
586.74	29235.63
586.90	29928.43
587.06	29624.16
587.22	29603.10
587.38	29703.74
587.54	30017.37
587.70	29888.64
587.86	29993.97
588.02	29944.81
588.18	30244.40
588.34	29809.06
588.49	29876.94
588.65	29696.72
588.81	29558.63
588.97	29841.83
589.13	29692.04
589.29	29706.08
589.45	29783.32
589.61	29816.08
589.77	29963.54
589.93	30387.18
590.08	29736.51
590.24	30136.74
590.40	29656.93
590.56	30202.27
590.72	29596.07
590.88	29553.94
591.04	29874.60
591.20	30125.04
591.35	30003.33
591.51	30293.55
591.67	30089.93
591.83	30085.25
591.99	30235.04
592.15	29942.47
592.31	30036.09
592.46	29799.70
592.62	29813.74
592.78	29603.10
592.94	29649.91
593.10	29769.27
593.26	30309.94
593.41	30253.76
593.57	29916.73
593.73	30178.87
593.89	30092.27
594.05	30085.25
594.20	29518.84
594.36	30010.35
594.52	29607.78
594.68	29809.06
594.84	29853.53
594.99	30082.91
595.15	29766.93
595.31	30338.02
595.47	30309.94
595.62	30101.63
595.78	30064.18
595.94	30113.33
596.10	29958.86
596.25	30120.35
596.41	30082.91
596.57	29731.83
596.73	29940.13
596.88	30281.85
597.04	30153.12
597.20	30132.06
597.36	30183.55
597.51	30202.27
597.67	30118.01
597.83	30333.34
597.99	30267.81
598.14	30139.08
598.30	29949.50
598.46	29795.02
598.61	29933.11
598.77	30019.71
598.93	30300.58
599.09	30251.42
599.24	30480.80
599.40	29991.62
599.56	30263.13
599.71	30237.38
599.87	30464.41
600.03	30162.48
600.18	29935.45
600.34	30057.16
600.50	30206.95
600.65	30429.30
600.81	30253.76
600.97	30125.04
601.12	30256.11
601.28	29905.02
601.44	30120.35
601.59	30263.13
601.75	30171.85
601.91	30249.08
602.06	30272.49
602.22	30370.79
602.37	30129.72
602.53	29914.39
602.69	30326.32
602.84	30525.27
603.00	30195.25
603.16	30040.78
603.31	30415.26
603.47	30342.70
603.62	30075.88
603.78	30206.95
603.94	29785.66
604.09	30206.95
604.25	30293.55
604.40	29940.13
604.56	30323.98
604.71	30305.26
604.87	30883.37
605.03	30258.45
605.18	30466.75
605.34	29626.50
605.49	29827.79
605.65	30253.76
605.80	29984.60
605.96	29832.47
606.12	29593.73
606.27	30181.21
606.43	29963.54
606.58	29958.86
606.74	29886.30
606.89	29844.17
607.05	30085.25
607.20	30569.74
607.36	30026.73
607.51	30089.93
607.67	30160.14
607.82	29823.11
607.98	30015.03
608.13	29905.02
608.29	29755.23
608.44	30108.65
608.60	29841.83
608.75	30237.38
608.91	30136.74
609.06	30122.69
609.22	30031.41
609.37	29584.37
609.53	29869.92
609.68	29907.37
609.84	29907.37
609.99	30054.82
610.15	29816.08
610.30	29642.88
610.46	29677.99
610.61	29898.00
610.76	29757.57
610.92	29888.64
611.07	30153.12
611.23	29659.27
611.38	30005.67
611.54	29530.54
611.69	29706.08
611.84	29759.91
612.00	29584.37
612.15	29401.81
612.31	30031.41
612.46	29717.78
612.62	29968.22
612.77	29432.24
612.92	29537.56
613.08	29738.85
613.23	29710.76
613.39	29511.81
613.54	29357.34
613.69	29860.55
613.85	29474.37
614.00	29706.08
614.15	29689.70
614.31	29486.07
614.46	29713.10
614.62	29640.54
614.77	29558.63
614.92	29411.17
615.08	29254.36
615.23	29633.52
615.38	29369.04
615.54	29233.29
615.69	29591.39
615.84	29277.76
616.00	29563.31
616.15	29495.43
616.30	29319.89
616.46	29502.45
616.61	29310.53
616.76	29771.61
616.92	29467.34
617.07	29413.51
617.22	29345.64
617.37	28847.10
617.53	29324.57
617.68	28912.64
617.83	29188.82
617.99	29347.98
618.14	29252.02
618.29	29127.97
618.45	29186.48
618.60	28964.13
618.75	29322.23
618.90	28727.74
619.06	29401.81
619.21	29071.79
619.36	28957.11
619.51	28886.89
619.67	28793.27
619.82	29053.07
619.97	28945.41
620.12	28903.28
620.28	28933.70
620.43	29205.20
620.58	28856.46
620.73	29034.35
620.89	28933.70
621.04	29259.04
621.19	29013.28
621.34	29041.37
621.49	28533.47
621.65	28863.49
621.80	28580.28
621.95	28350.91
622.10	28716.03
622.25	28556.88
622.41	28641.14
622.56	28503.04
622.71	28779.23
622.86	28709.01
623.01	28580.28
623.16	28577.94
623.32	28580.28
623.47	28416.44
623.62	28610.71
623.77	28617.73
623.92	28804.97
624.07	28596.67
624.23	28711.35
624.38	28549.85
624.53	28741.78
624.68	28907.96
624.83	29125.63
624.98	28456.23
625.13	28364.95
625.29	28521.77
625.44	28535.81
625.59	28208.14
625.74	28259.63
625.89	28053.66
626.04	28650.50
626.19	28205.80
626.34	28325.16
626.49	27826.63
626.65	28177.71
626.80	28451.55
626.95	28671.56
627.10	28322.82
627.25	28254.95
627.40	28041.96
627.55	27709.60
627.70	28322.82
627.85	27758.75
628.00	28222.18
628.15	28299.42
628.30	27882.80
628.45	28339.21
628.60	28116.86
628.76	28292.40
628.91	28034.94
629.06	27843.01
629.21	28119.20
629.36	27850.03
629.51	28009.19
629.66	27938.97
629.81	27812.59
629.96	28091.11
630.11	27688.54
630.26	27683.86
630.41	27590.24
630.56	27931.95
630.71	28173.03
630.86	27545.76
631.01	27747.05
631.16	27641.73
631.31	27648.75
631.46	27552.79
631.61	27648.75
631.76	27784.50
631.91	27660.45
632.06	27463.85
632.21	27466.19
632.36	27356.18
632.51	27550.45
632.66	27564.49
632.81	27145.53
632.96	27714.28
633.10	27943.66
633.25	27697.90
633.40	27615.98
633.55	27250.86
633.70	27494.27
633.85	26946.59
634.00	27321.07
634.15	27346.82
634.30	27384.27
634.45	27377.25
634.60	27384.27
634.75	27349.16
634.90	26906.80
635.05	27824.29
635.19	27395.97
635.34	27501.29
635.49	27182.98
635.64	27384.27
635.79	27623.00
635.94	27599.60
636.09	27386.61
636.24	26953.61
636.39	27199.37
636.53	27278.94
636.68	27044.89
636.83	27124.47
636.98	27140.85
637.13	27201.71
637.28	26998.08
637.43	27229.79
637.57	27332.78
637.72	26977.01
637.87	27154.90
638.02	27033.19
638.17	27182.98
638.32	26740.62
638.46	26686.79
638.61	26665.72
638.76	26782.75
638.91	26803.82
639.06	26948.93
639.20	26946.59
639.35	26836.58
639.50	27358.52
639.65	27257.88
639.80	27145.53
639.94	27012.12
640.09	27143.19
640.24	26766.37
640.39	26923.18
640.54	26462.10
640.68	26239.75
640.83	27026.17
640.98	26855.31
641.13	25853.56
641.27	26565.08
641.42	26534.65
641.57	26689.13
641.72	26665.72
641.86	26408.26
642.01	26230.38
642.16	26522.95
642.31	26155.49
642.45	26419.97
642.60	26520.61
642.75	26040.80
642.90	26146.12
643.04	26398.90
643.19	26223.36
643.34	26202.30
643.48	26202.30
643.63	26099.31
643.78	26639.98
643.93	26448.05
644.07	26396.56
644.22	26335.71
644.37	25984.63
644.51	26368.48
644.66	26202.30
644.81	26324.01
644.95	25933.14
645.10	25951.86
645.25	26375.50
645.39	26426.99
645.54	25982.29
645.69	26064.21
645.83	26237.41
645.98	26204.64
646.13	26178.89
646.27	26176.55
646.42	25769.30
646.57	25916.75
646.71	25750.57
646.86	26001.01
647.00	26419.97
647.15	26029.10
647.30	25928.45
647.44	25748.23
647.59	25998.67
647.74	25776.32
647.88	25883.98
648.03	25963.56
648.17	26265.49
648.32	25860.58
648.47	25944.84
648.61	25624.18
648.76	25766.96
648.90	25745.89
649.05	25865.26
649.20	25521.20
649.34	25778.66
649.49	25376.09
649.63	25441.62
649.78	25642.91
649.92	25504.82
650.07	25678.02
650.21	25553.97
650.36	25717.81
650.51	25397.15
650.65	25682.70
650.80	25699.08
650.94	25708.44
651.09	25617.16
651.23	25228.63
651.38	25446.30
651.52	25507.16
651.67	25413.54
651.81	25202.89
651.96	25364.39
652.10	25308.21
652.25	25326.94
652.39	25371.41
652.54	25811.43
652.68	25333.96
652.83	25296.51
652.97	25600.78
653.12	25455.67
653.26	25443.96
653.41	25254.38
653.55	25310.55
653.70	25256.72
653.84	25418.22
653.99	25294.17
654.13	24861.17
654.27	24769.89
654.42	24989.90
654.56	25088.20
654.71	25434.60
654.85	25060.12
655.00	25371.41
655.14	25315.23
655.29	25104.59
655.43	25235.66
655.57	24973.52
655.72	24844.79
655.86	25048.41
656.01	24617.75
656.15	24858.83
656.30	25050.75
656.44	24802.66
656.58	24664.57
656.73	24582.65
656.87	24821.38
657.01	24690.31
657.16	24898.62
657.30	25212.25
657.45	24603.71
657.59	24826.06
657.73	24924.36
657.88	24713.72
658.02	24418.81
658.16	24725.42
658.31	24631.80
658.45	24524.13
658.60	24638.82
658.74	24795.64
658.88	24624.78
659.03	24453.92
659.17	24664.57
659.31	24751.17
659.46	24498.39
659.60	24414.13
659.74	24507.75
659.89	24320.51
660.03	24437.53
660.17	24489.03
660.32	24430.51
660.46	24269.01
660.60	23857.08
660.74	24091.13
660.89	24004.53
661.03	23789.20
661.17	23850.06
661.32	24058.37
661.46	24079.43
661.60	24034.96
661.74	23896.87
661.89	23976.45
662.03	24137.94
662.17	23948.36
662.31	23803.25
662.46	24079.43
662.60	24126.24
662.74	23791.55
662.88	23782.18
663.03	23597.28
663.17	23915.59
663.31	23470.89
663.45	23761.12
663.60	23817.29
663.74	23190.03
663.88	23843.04
664.02	23515.36
664.17	23421.74
664.31	23702.61
664.45	23480.25
664.59	23447.49
664.73	23421.74
664.88	23604.30
665.02	22750.01
665.16	23021.51
665.30	23388.97
665.44	23161.94
665.59	22951.29
665.73	22750.01
665.87	23250.88
666.01	22979.38
666.15	23105.77
666.29	22918.53
666.44	23108.11
666.58	22869.37
666.72	22838.95
666.86	22911.50
667.00	23264.92
667.14	22801.50
667.28	23016.83
667.43	22941.93
667.57	22852.99
667.71	22714.90
667.85	22682.13
667.99	22590.85
668.13	22752.35
668.27	22497.23
668.41	22490.21
668.56	22368.50
668.70	22616.60
668.84	22665.75
668.98	22183.60
669.12	22525.32
669.26	22518.29
669.40	22562.76
669.54	22384.88
669.68	22497.23
669.82	22012.74
669.96	22455.10
670.10	21813.79
670.25	21825.50
670.39	21947.20
670.53	21998.70
670.67	21797.41
670.81	22066.57
670.95	21738.90
671.09	21963.59
671.23	22010.40
671.37	22059.55
671.51	21937.84
671.65	21783.37
671.79	21783.37
671.93	21792.73
672.07	21418.24
672.21	21439.31
672.35	21631.23
672.49	21268.45
672.63	21263.77
672.77	21036.74
672.91	21434.63
673.05	21177.17
673.19	21235.68
673.33	21263.77
673.47	21310.58
673.61	21357.39
673.75	21109.29
673.89	21135.04
674.03	21233.34
674.17	20973.54
674.31	21067.16
674.45	21387.82
674.59	20807.36
674.73	21071.84
674.87	21036.74
675.01	20727.78
675.15	20903.32
675.29	20924.39
675.43	20692.68
675.56	20812.04
675.70	20568.63
675.84	20496.07
675.98	19967.11
676.12	20809.70
676.26	20568.63
676.40	20266.70
676.54	20226.91
676.68	20119.24
676.82	20219.89
676.96	20144.99
677.10	20355.64
677.23	19782.21
677.37	19719.01
677.51	19885.19
677.65	19585.60
677.79	19674.54
677.93	19501.34
678.07	19571.56
678.21	19648.80
678.34	19688.59
678.48	19405.38
678.62	19562.20
678.76	19545.81
678.90	19229.84
679.04	19484.96
679.18	19405.38
679.31	18944.30
679.45	18890.46
679.59	18993.45
679.73	18965.36
679.87	19005.15
680.00	18801.52
680.14	18799.18
680.28	18806.20
680.42	18733.65
680.56	18864.72
680.70	18665.77
680.83	19063.66
680.97	18635.35
681.11	18537.04
681.25	18548.75
681.39	18476.19
681.52	18302.99
681.66	18223.41
681.80	18302.99
681.94	18169.58
682.07	18111.07
682.21	18012.76
682.35	17848.93
682.49	17891.06
682.62	17888.71
682.76	17767.01
682.90	17921.48
683.04	17944.89
683.17	17525.93
683.31	17568.06
683.45	17804.46
683.59	17628.92
683.72	17628.92
683.86	17298.90
684.00	17511.89
684.13	17535.29
684.27	17039.10
684.41	17048.46
684.55	17025.06
684.68	17074.21
684.82	16863.56
684.96	16879.94
685.09	16872.92
685.23	16802.71
685.37	16798.02
685.50	16643.55
685.64	16840.15
685.78	16739.51
685.91	16908.03
686.05	16659.93
686.19	16599.08
686.32	16542.91
686.46	16601.42
686.60	16269.06
686.73	16388.43
686.87	16514.82
687.01	16189.49
687.14	16456.31
687.28	15744.78
687.42	15925.00
687.55	15845.43
687.69	15983.52
687.82	15800.96
687.96	16107.57
688.10	15838.41
688.23	15676.91
688.37	15784.57
688.50	15761.17
688.64	15686.27
688.78	15665.21
688.91	15700.31
689.05	15489.67
689.18	15272.00
689.32	15145.61
689.46	15007.52
689.59	15328.17
689.73	15236.89
689.86	15171.35
690.00	14988.79
690.13	15019.22
690.27	14736.01
690.41	15220.50
690.54	14738.35
690.68	14778.14
690.81	14766.44
690.95	14925.60
691.08	14785.16
691.22	14733.67
691.35	14656.43
691.49	14843.68
691.62	14768.78
691.76	14501.96
691.89	14335.78
692.03	14150.88
692.16	13996.40
692.30	14443.45
692.43	14019.81
692.57	13996.40
692.70	14024.49
692.84	13919.17
692.97	14171.94
693.11	13975.34
693.24	13692.13
693.38	13830.23
693.51	13706.18
693.65	13785.76
693.78	13514.25
693.92	13715.54
694.05	13593.83
694.19	13444.04
694.32	13598.51
694.45	13364.46
694.59	13263.82
694.72	13247.43
694.86	13071.89
694.99	13048.49
695.13	13249.77
695.26	12872.95
695.39	13046.15
695.53	13081.25
695.66	13090.62
695.80	13029.76
695.93	12870.61
696.07	12943.16
696.20	12898.69
696.33	12802.73
696.47	12774.64
696.60	12704.43
696.73	12697.41
696.87	12608.47
697.00	12458.67
697.14	12133.34
697.27	12194.19
697.40	12119.29
697.54	12226.96
697.67	12046.74
697.80	12152.06
697.94	11925.03
698.07	11948.43
698.21	11882.90
698.34	11999.93
698.47	11934.39
698.61	11758.85
698.74	11878.22
698.87	12107.59
699.01	11686.29
699.14	11763.53
699.27	11571.61
699.40	11555.22
699.54	11386.71
699.67	11300.11
699.80	11342.24
699.94	11431.18
700.07	11358.62
700.20	11185.42
700.34	11339.90
700.47	11187.76
700.60	10927.96
700.73	11192.44
700.87	11021.58
701.00	10820.30
701.13	10972.43
701.26	10871.79
701.40	10892.85
701.53	10726.68
701.66	10944.34
701.79	10759.44
701.93	10619.01
702.06	10588.58
702.19	10193.03
702.32	10422.41
702.46	10359.21
702.59	10382.62
702.72	10501.98
702.85	10256.23
702.99	10221.12
703.12	10410.70
703.25	10171.97
703.38	10200.05
703.51	10216.44
703.65	10370.91
703.78	10083.03
703.91	10040.90
704.04	10146.22
704.17	10157.92
704.31	9987.07
704.44	9715.56
704.57	9792.80
704.70	9640.67
704.83	9734.29
704.96	9610.24
705.10	9502.58
705.23	9535.34
>>>>>End Processed Spectral Data<<<<<
