SpectraSuite Data File
++++++++++++++++++++++++++++++++++++
Date: Fri Oct 18 13:58:32 GMT-05:00 2013
User: bianchi
Dark Spectrum Present: No
Reference Spectrum Present: No
Number of Sampled Component Spectra: 1
Spectrometers: USB2+H05261
Integration Time (usec): 50000 (USB2+H05261)
Spectra Averaged: 1 (USB2+H05261)
Boxcar Smoothing: 0 (USB2+H05261)
Correct for Electrical Dark: No (USB2+H05261)
Strobe/Lamp Enabled: No (USB2+H05261)
Correct for Detector Non-linearity: No (USB2+H05261)
Correct for Stray Light: No (USB2+H05261)
Number of Pixels in Processed Spectrum: 2048
>>>>>Begin Processed Spectral Data<<<<<
365.73	0.00
365.92	0.00
366.12	0.00
366.32	0.00
366.52	0.00
366.72	0.00
366.91	0.00
367.11	0.00
367.31	0.00
367.51	0.00
367.70	0.00
367.90	0.00
368.10	0.00
368.30	0.00
368.49	0.00
368.69	0.00
368.89	0.00
369.09	0.00
369.28	0.00
369.48	0.00
369.68	0.00
369.87	0.00
370.07	0.00
370.27	0.00
370.47	0.00
370.66	42.13
370.86	88.94
371.06	102.98
371.25	168.52
371.45	124.05
371.65	131.07
371.84	159.16
372.04	128.73
372.24	191.92
372.44	152.13
372.63	229.37
372.83	224.69
373.03	105.32
373.22	128.73
373.42	154.48
373.62	224.69
373.81	236.39
374.01	205.97
374.21	255.12
374.40	203.63
374.60	259.80
374.79	198.95
374.99	208.31
375.19	238.73
375.38	212.99
375.58	215.33
375.78	255.12
375.97	194.26
376.17	196.60
376.37	287.89
376.56	210.65
376.76	205.97
376.95	215.33
377.15	234.05
377.35	238.73
377.54	245.76
377.74	252.78
377.93	330.02
378.13	330.02
378.33	297.25
378.52	196.60
378.72	234.05
378.91	290.23
379.11	297.25
379.31	245.76
379.50	222.35
379.70	341.72
379.89	313.63
380.09	273.84
380.28	355.76
380.48	217.67
380.68	318.31
380.87	290.23
381.07	304.27
381.26	292.57
381.46	304.27
381.65	318.31
381.85	280.86
382.04	266.82
382.24	301.93
382.43	367.46
382.63	334.70
382.83	344.06
383.02	381.51
383.22	456.40
383.41	353.42
383.61	299.59
383.80	318.31
384.00	304.27
384.19	318.31
384.39	353.42
384.58	425.98
384.78	273.84
384.97	400.23
385.17	360.44
385.36	355.76
385.56	447.04
385.75	461.09
385.95	306.61
386.14	447.04
386.34	369.80
386.53	414.27
386.72	376.83
386.92	430.66
387.11	447.04
387.31	367.46
387.50	313.63
387.70	311.29
387.89	355.76
388.09	449.38
388.28	437.68
388.48	470.45
388.67	468.11
388.86	402.57
389.06	465.77
389.25	503.22
389.45	425.98
389.64	428.32
389.84	482.15
390.03	468.11
390.22	493.85
390.42	435.34
390.61	475.13
390.81	472.79
391.00	409.59
391.19	540.66
391.39	571.09
391.58	557.05
391.78	535.98
391.97	491.51
392.16	503.22
392.36	561.73
392.55	552.37
392.75	585.13
392.94	580.45
393.13	547.69
393.33	599.18
393.52	526.62
393.71	599.18
393.91	589.82
394.10	503.22
394.29	531.30
394.49	564.07
394.68	538.32
394.88	566.41
395.07	589.82
395.26	692.80
395.46	596.84
395.65	695.14
395.84	582.79
396.04	678.76
396.23	571.09
396.42	636.63
396.62	624.92
396.81	543.00
397.00	559.39
397.19	688.12
397.39	664.71
397.58	683.44
397.77	631.94
397.97	734.93
398.16	638.97
398.35	753.65
398.55	688.12
398.74	674.07
398.93	748.97
399.12	695.14
399.32	744.29
399.51	706.84
399.70	709.18
399.90	676.41
400.09	697.48
400.28	638.97
400.47	774.72
400.67	741.95
400.86	669.39
401.05	702.16
401.24	770.04
401.44	814.51
401.63	784.08
401.82	781.74
402.01	819.19
402.21	837.91
402.40	812.17
402.59	863.66
402.78	788.76
402.97	828.55
403.17	774.72
403.36	891.74
403.55	833.23
403.74	912.81
403.93	919.83
404.13	882.38
404.32	837.91
404.51	898.77
404.70	863.66
404.89	870.68
405.09	861.32
405.28	873.02
405.47	983.02
405.66	936.21
405.85	959.62
406.05	940.90
406.24	903.45
406.43	1032.18
406.62	1060.26
406.81	1053.24
407.00	1186.65
407.20	1008.77
407.39	976.00
407.58	987.71
407.77	1107.07
407.96	987.71
408.15	1095.37
408.34	1170.27
408.54	1032.18
408.73	1067.28
408.92	1160.91
409.11	1081.33
409.30	1172.61
409.49	1083.67
409.68	1060.26
409.87	1109.41
410.07	1149.20
410.26	1259.21
410.45	1156.22
410.64	1144.52
410.83	1104.73
411.02	1149.20
411.21	1252.19
411.40	1200.69
411.59	1254.53
411.78	1186.65
411.98	1280.27
412.17	1275.59
412.36	1313.04
412.55	1245.16
412.74	1306.02
412.93	1364.53
413.12	1345.81
413.31	1308.36
413.50	1441.77
413.69	1329.42
413.88	1329.42
414.07	1598.59
414.26	1500.28
414.45	1387.94
414.64	1476.88
414.83	1542.41
415.02	1472.20
415.22	1514.33
415.41	1617.31
415.60	1549.43
415.79	1535.39
415.98	1519.01
416.17	1504.96
416.36	1511.99
416.55	1654.76
416.74	1626.67
416.93	1570.50
417.12	1619.65
417.31	1614.97
417.50	1621.99
417.69	1764.76
417.88	1746.04
418.07	1680.50
418.26	1685.19
418.45	1799.87
418.64	1762.42
418.83	1680.50
419.02	1708.59
419.21	1858.39
419.39	1851.36
419.58	1792.85
419.77	1806.89
419.96	1811.57
420.15	1919.24
420.34	1832.64
420.53	1860.73
420.72	1914.56
420.91	1919.24
421.10	1996.48
421.29	1954.35
421.48	2001.16
421.67	1930.94
421.86	1947.33
422.05	1851.36
422.24	1956.69
422.43	1844.34
422.61	2008.18
422.80	2045.63
422.99	1975.41
423.18	1987.11
423.37	2001.16
423.56	1966.05
423.75	2008.18
423.94	1930.94
424.13	1802.21
424.32	1872.43
424.50	2015.20
424.69	2005.84
424.88	2193.08
425.07	2076.06
425.26	1994.14
425.45	2062.01
425.64	1952.01
425.83	2115.84
426.01	2062.01
426.20	2019.88
426.39	2036.27
426.58	2012.86
426.77	2094.78
426.96	2113.50
427.15	1959.03
427.33	2069.03
427.52	2052.65
427.71	2141.59
427.90	2204.78
428.09	2237.55
428.28	2160.31
428.46	2244.57
428.65	2190.74
428.84	2167.34
429.03	2258.62
429.22	2165.00
429.40	2176.70
429.59	2256.28
429.78	2078.40
429.97	2113.50
430.16	2204.78
430.34	2235.21
430.53	2368.62
430.72	2249.25
430.91	2385.01
431.10	2207.13
431.28	2263.30
431.47	2413.09
431.66	2413.09
431.85	2207.13
432.03	2399.05
432.22	2492.67
432.41	2377.98
432.60	2370.96
432.79	2368.62
432.97	2331.17
433.16	2392.03
433.35	2422.45
433.54	2497.35
433.72	2485.65
433.91	2392.03
434.10	2583.95
434.28	2532.46
434.47	2534.80
434.66	2476.29
434.85	2689.28
435.03	2562.89
435.22	2576.93
435.41	2651.83
435.59	2588.63
435.78	2747.79
435.97	2679.91
436.16	2700.98
436.34	2544.16
436.53	2602.68
436.72	2614.38
436.90	2607.36
437.09	2649.49
437.28	2621.40
437.46	2661.19
437.65	2696.30
437.84	2703.32
438.02	2787.58
438.21	2820.35
438.40	2750.13
438.58	2909.29
438.77	2909.29
438.96	2949.08
439.14	2850.77
439.33	2855.45
439.52	2972.48
439.70	2953.76
439.89	2998.23
440.08	3000.57
440.26	2942.05
440.45	3049.72
440.63	3035.67
440.82	3028.65
441.01	3049.72
441.19	3030.99
441.38	3077.80
441.57	3089.51
441.75	3089.51
441.94	3229.94
442.12	3087.17
442.31	3155.04
442.50	3119.93
442.68	3215.90
442.87	3342.28
443.05	3368.03
443.24	3342.28
443.43	3307.18
443.61	3236.96
443.80	3403.14
443.98	3368.03
444.17	3236.96
444.35	3342.28
444.54	3351.65
444.73	3265.05
444.91	3274.41
445.10	3419.52
445.28	3227.60
445.47	3368.03
445.65	3370.37
445.84	3407.82
446.02	3517.83
446.21	3396.12
446.39	3391.44
446.58	3431.23
446.77	3377.39
446.95	3290.79
447.14	3363.35
447.32	3538.89
447.51	3452.29
447.69	3391.44
447.88	3426.54
448.06	3407.82
448.25	3351.65
448.43	3520.17
448.62	3550.59
448.80	3414.84
448.99	3625.49
449.17	3482.72
449.36	3527.19
449.54	3709.75
449.73	3623.15
449.91	3604.42
450.10	3604.42
450.28	3705.07
450.46	3674.64
450.65	3684.00
450.83	3777.62
451.02	3688.68
451.20	3822.09
451.39	3723.79
451.57	3772.94
451.76	3681.66
451.94	3716.77
452.13	3866.56
452.31	3948.48
452.49	3824.44
452.68	3777.62
452.86	3740.18
453.05	3826.78
453.23	3971.89
453.42	3885.29
453.60	3887.63
453.78	3904.01
453.97	3857.20
454.15	3899.33
454.34	3894.65
454.52	4058.49
454.70	3960.19
454.89	3852.52
455.07	3882.95
455.26	4018.70
455.44	4004.66
455.62	4035.08
455.81	4056.15
455.99	4007.00
456.17	4152.11
456.36	3967.21
456.54	4140.41
456.73	4198.92
456.91	4287.86
457.09	4210.62
457.28	4423.61
457.46	4166.15
457.64	4339.35
457.83	4105.30
458.01	4184.88
458.19	4322.97
458.38	4290.20
458.56	4418.93
458.74	4224.67
458.93	4135.73
459.11	4486.81
459.29	4414.25
459.48	4329.99
459.66	4470.42
459.84	4376.80
460.03	4472.76
460.21	4592.13
460.39	4545.32
460.57	4526.60
460.76	4482.13
460.94	4505.53
461.12	4535.96
461.31	4580.43
461.49	4638.94
461.67	4428.29
461.85	4697.46
462.04	4648.30
462.22	4676.39
462.40	4772.35
462.59	4734.90
462.77	4613.20
462.95	4683.41
463.13	4692.77
463.32	4784.06
463.50	4798.10
463.68	4805.12
463.86	4741.93
464.05	4746.61
464.23	4770.01
464.41	4830.87
464.59	4781.71
464.78	4926.83
464.96	4849.59
465.14	4812.14
465.32	5076.62
465.50	5008.75
465.69	4847.25
465.87	4795.76
466.05	5001.72
466.23	4847.25
466.41	5060.24
466.60	5104.71
466.78	4943.21
466.96	5048.54
467.14	4990.02
467.32	5137.48
467.51	5348.12
467.69	4901.08
467.87	5137.48
468.05	5088.32
468.23	5200.67
468.41	5100.03
468.60	5156.20
468.78	5259.18
468.96	5163.22
469.14	5078.96
469.32	5130.45
469.50	5107.05
469.69	5303.65
469.87	5231.10
470.05	5275.57
470.23	5458.13
470.41	5430.04
470.59	5490.90
470.77	5315.36
470.95	5453.45
471.14	5544.73
471.32	5444.09
471.50	5579.84
471.68	5682.82
471.86	5652.39
472.04	5626.65
472.22	5624.31
472.40	5518.98
472.58	5643.03
472.77	5652.39
472.95	5664.10
473.13	5914.53
473.31	5624.31
473.49	5717.93
473.67	5774.10
473.85	5795.17
474.03	5963.68
474.21	5963.68
474.39	5975.39
474.57	5942.62
474.75	6026.88
474.93	6029.22
475.12	5870.06
475.30	6099.44
475.48	6019.86
475.66	6282.00
475.84	6216.46
476.02	6239.87
476.20	6143.91
476.38	6356.90
476.56	6513.71
476.74	6574.56
476.92	6427.11
477.10	6487.96
477.28	6553.50
477.46	6420.09
477.64	6675.21
477.82	6787.55
478.00	6817.98
478.18	6740.74
478.36	6719.68
478.54	6986.50
478.72	6958.41
478.90	6782.87
479.08	6956.07
479.26	7239.28
479.44	7112.89
479.62	7353.96
479.80	7349.28
479.98	7307.15
480.16	7433.54
480.34	7440.56
480.52	7566.95
480.70	7478.01
480.88	7382.05
481.06	7487.37
481.24	7595.04
481.41	7801.01
481.59	7660.57
481.77	7801.01
481.95	7852.50
482.13	8016.33
482.31	8135.70
482.49	8243.37
482.67	8098.25
482.85	8332.31
483.03	8226.98
483.21	8545.30
483.39	8266.77
483.57	8528.91
483.74	8552.32
483.92	8737.22
484.10	8514.87
484.28	8805.10
484.46	8865.95
484.64	9151.49
484.82	8882.33
485.00	8961.91
485.18	9062.55
485.35	9224.05
485.53	9137.45
485.71	9352.78
485.89	9455.76
486.07	9233.41
486.25	9415.98
486.43	9591.52
486.61	9614.92
486.78	9741.31
486.96	9745.99
487.14	10022.17
487.32	9881.74
487.50	10040.90
487.68	10050.26
487.85	10111.11
488.03	10326.44
488.21	10478.58
488.39	10424.75
488.57	10621.35
488.75	10333.47
488.92	10579.22
489.10	10686.89
489.28	11007.54
489.46	10993.50
489.64	10984.13
489.81	11066.05
489.99	11194.78
490.17	11281.38
490.35	11485.01
490.53	11473.31
490.70	11463.94
490.88	11662.89
491.06	11524.80
491.24	11644.17
491.41	11431.18
491.59	11569.27
491.77	11768.21
491.95	12006.95
492.13	11840.77
492.30	12138.02
492.48	11978.86
492.66	12243.34
492.84	12353.35
493.01	12400.16
493.19	12112.27
493.37	12397.82
493.54	12650.60
493.72	12800.39
493.90	12674.00
494.08	12847.20
494.25	12919.76
494.43	13090.62
494.61	13188.92
494.79	13186.58
494.96	12924.44
495.14	13130.41
495.32	13497.87
495.49	13319.99
495.67	13366.80
495.85	13537.66
496.02	13610.22
496.20	13783.41
496.38	13708.52
496.55	13668.73
496.73	14111.09
496.91	13841.93
497.09	14160.24
497.26	13996.40
497.44	13958.96
497.62	14251.52
497.79	14448.13
497.97	14363.87
498.14	14567.49
498.32	14616.65
498.50	14459.83
498.67	14911.55
498.85	14640.05
499.03	14904.53
499.20	14691.54
499.38	15061.35
499.56	14981.77
499.73	14913.89
499.91	15222.84
500.08	15260.29
500.26	15000.49
500.44	15396.04
500.61	15082.41
500.79	15426.47
500.97	15580.95
501.14	15707.34
501.32	15580.95
501.49	15508.39
501.67	15365.62
501.84	15880.53
502.02	15744.78
502.20	15917.98
502.37	16095.86
502.55	15913.30
502.72	15913.30
502.90	16084.16
503.07	15852.45
503.25	16065.44
503.43	16030.33
503.60	16369.71
503.78	16283.11
503.95	16404.81
504.13	16409.50
504.30	16112.25
504.48	16226.93
504.65	16411.84
504.83	16739.51
505.01	16854.20
505.18	16863.56
505.36	16830.79
505.53	16545.25
505.71	16606.10
505.88	16688.02
506.06	17099.95
506.23	16938.46
506.41	17240.39
506.58	17263.79
506.76	17252.09
506.93	17343.37
507.11	17334.01
507.28	17240.39
507.46	17088.25
507.63	17483.80
507.81	17668.70
507.98	17345.71
508.16	17432.31
508.33	17710.83
508.50	17582.10
508.68	17673.39
508.85	17921.48
509.03	18033.83
509.20	18001.06
509.38	18033.83
509.55	17900.42
509.73	18207.03
509.90	18146.17
510.08	17809.14
510.25	18111.07
510.42	18277.24
510.60	18579.17
510.77	18335.76
510.95	18808.54
511.12	18260.86
511.30	18766.42
511.47	18317.03
511.64	18724.29
511.82	18511.30
511.99	18635.35
512.17	18808.54
512.34	18892.80
512.51	18944.30
512.69	18689.18
512.86	19110.47
513.04	19044.94
513.21	19136.22
513.38	18993.45
513.56	19227.50
513.73	19133.88
513.90	19332.82
514.08	19239.20
514.25	19716.67
514.43	19501.34
514.60	19332.82
514.77	19810.29
514.95	19630.07
515.12	19421.77
515.29	19452.19
515.47	19590.28
515.64	19796.25
515.81	19983.49
515.99	19946.05
516.16	20020.94
516.33	20034.99
516.51	19901.58
516.68	20161.37
516.85	20067.75
517.03	19754.12
517.20	19943.70
517.37	20264.36
517.54	20184.78
517.72	20123.93
517.89	20231.59
518.06	20149.67
518.24	20362.66
518.41	20479.69
518.58	20203.50
518.75	20463.30
518.93	20643.52
519.10	20683.31
519.27	20758.21
519.45	20388.41
519.62	21209.93
519.79	20706.72
519.96	20786.30
520.14	20933.75
520.31	20692.68
520.48	20645.87
520.65	20971.20
520.83	21001.63
521.00	20718.42
521.17	20982.90
521.34	21139.72
521.52	21226.32
521.69	21364.41
521.86	21310.58
522.03	21565.70
522.20	21741.24
522.38	21504.84
522.55	21521.23
522.72	21324.62
522.89	21668.68
523.07	22017.42
523.24	21741.24
523.41	21827.84
523.58	21511.86
523.75	21893.37
523.92	21792.73
524.10	21785.71
524.27	22108.70
524.44	21933.16
524.61	22237.43
524.78	22249.13
524.96	22043.17
525.13	22199.98
525.30	22256.15
525.47	22228.07
525.64	22525.32
525.81	22277.22
525.98	22450.42
526.16	22731.28
526.33	22160.19
526.50	22499.57
526.67	22499.57
526.84	22616.60
527.01	22462.12
527.18	22724.26
527.36	22546.38
527.53	22857.67
527.70	22663.41
527.87	22939.59
528.04	23030.87
528.21	22848.31
528.38	22883.42
528.55	22771.07
528.72	22712.56
528.89	23323.44
529.07	22867.03
529.24	23278.97
529.41	23194.71
529.58	23056.62
529.75	23073.00
529.92	23119.81
530.09	22977.04
530.26	23264.92
530.43	23094.07
530.60	22984.06
530.77	22970.02
530.94	23342.16
531.11	23412.38
531.28	23033.21
531.46	23836.02
531.63	23480.25
531.80	23604.30
531.97	23983.47
532.14	23456.85
532.31	23445.15
532.48	23836.02
532.65	23885.17
532.82	23836.02
532.99	23948.36
533.16	23470.89
533.33	24009.22
533.50	24217.52
533.67	23784.52
533.84	24081.77
534.01	23939.00
534.18	23833.68
534.35	24219.86
534.52	24149.65
534.69	24395.40
534.86	24444.56
535.03	24276.04
535.20	24400.08
535.37	24350.93
535.54	23988.15
535.71	24465.62
535.88	24271.36
536.05	24198.80
536.22	24561.58
536.38	24409.45
536.55	24301.78
536.72	24882.24
536.89	24547.54
537.06	24269.01
537.23	24732.44
537.40	24601.37
537.57	24423.49
537.74	24617.75
537.91	24973.52
538.08	25090.54
538.25	24837.76
538.42	24840.11
538.59	24947.77
538.75	24922.02
538.92	24893.94
539.09	25099.90
539.26	25352.68
539.43	25085.86
539.60	25076.50
539.77	24922.02
539.94	25123.31
540.11	25013.31
540.28	25099.90
540.44	25296.51
540.61	24964.15
540.78	25434.60
540.95	25120.97
541.12	25298.85
541.29	25158.42
541.46	25254.38
541.62	25247.36
541.79	25223.95
541.96	25025.01
542.13	25408.86
542.30	25766.96
542.47	25525.88
542.63	25535.24
542.80	25872.28
542.97	25907.39
543.14	25671.00
543.31	25809.09
543.48	25825.47
543.64	25886.32
543.81	26101.65
543.98	26178.89
544.15	25977.61
544.32	26089.95
544.48	26457.42
544.65	26015.05
544.82	26125.06
544.99	25886.32
545.16	26174.21
545.32	26096.97
545.49	26015.05
545.66	26466.78
545.83	26120.38
546.00	26408.26
546.16	26607.21
546.33	26214.00
546.50	26202.30
546.67	26375.50
546.83	25914.41
547.00	26768.71
547.17	26522.95
547.34	26492.52
547.50	26820.20
547.67	26951.27
547.84	26675.09
548.00	26565.08
548.17	26932.54
548.34	26668.06
548.51	26721.90
548.67	26888.07
548.84	26501.89
549.01	26628.27
549.18	26679.77
549.34	26878.71
549.51	26827.22
549.68	26590.83
549.84	26803.82
550.01	27260.22
550.18	26916.16
550.34	26721.90
550.51	27150.21
550.68	26768.71
550.84	26829.56
551.01	26930.20
551.18	27133.83
551.34	26899.78
551.51	26831.90
551.68	27360.86
551.84	27344.48
552.01	27065.96
552.18	27487.25
552.34	26939.57
552.51	27463.85
552.68	27461.51
552.84	27424.06
553.01	27407.67
553.18	27080.00
553.34	27510.66
553.51	27274.26
553.67	27541.08
553.84	27672.15
554.01	27871.10
554.17	27384.27
554.34	27835.99
554.51	27590.24
554.67	27623.00
554.84	27541.08
555.00	27709.60
555.17	27751.73
555.33	27681.52
555.50	27866.42
555.67	27775.14
555.83	27922.59
556.00	27379.59
556.16	27903.87
556.33	27700.24
556.50	27805.56
556.66	27835.99
556.83	27405.33
556.99	27910.89
557.16	27997.49
557.32	27953.02
557.49	27992.81
557.65	27681.52
557.82	27955.36
557.98	28009.19
558.15	28287.71
558.32	28060.68
558.48	27742.37
558.65	28414.10
558.81	28290.06
558.98	28268.99
559.14	28203.46
559.31	28114.52
559.47	28175.37
559.64	28063.02
559.80	28168.35
559.97	28285.37
560.13	28121.54
560.30	28063.02
560.46	28252.61
560.63	28224.52
560.79	28283.03
560.96	28641.14
561.12	28079.41
561.29	28009.19
561.45	27908.55
561.61	28512.41
561.78	28624.75
561.94	28638.80
562.11	28280.69
562.27	28521.77
562.44	28353.25
562.60	28301.76
562.77	28650.50
562.93	28503.04
563.10	28498.36
563.26	28449.21
563.42	29193.50
563.59	28467.94
563.75	28760.50
563.92	28966.47
564.08	28526.45
564.24	28683.27
564.41	28673.90
564.57	28322.82
564.74	28259.63
564.90	28563.90
565.07	28732.42
565.23	28926.68
565.39	28500.70
565.56	28676.24
565.72	28554.54
565.88	28568.58
566.05	28573.26
566.21	28765.18
566.38	28524.11
566.54	28631.77
566.70	28566.24
566.87	29331.59
567.03	29102.22
567.19	28727.74
567.36	28943.06
567.52	28828.38
567.68	28994.56
567.85	28692.63
568.01	28966.47
568.17	28683.27
568.34	28987.53
568.50	28800.29
568.66	28524.11
568.83	28912.64
568.99	28678.58
569.15	28854.12
569.32	28753.48
569.48	28664.54
569.64	29017.96
569.81	29071.79
569.97	29137.33
570.13	29322.23
570.30	28854.12
570.46	28879.87
570.62	28875.19
570.78	28879.87
570.95	28957.11
571.11	28828.38
571.27	28383.68
571.43	28847.10
571.60	28783.91
571.76	28760.50
571.92	29024.98
572.09	29120.95
572.25	28989.88
572.41	29095.20
572.57	29287.12
572.74	29240.31
572.90	28933.70
573.06	29158.39
573.22	29078.82
573.38	28926.68
573.55	29294.14
573.71	28905.62
573.87	28821.36
574.03	28929.02
574.20	28790.93
574.36	28573.26
574.52	29193.50
574.68	29043.71
574.84	29144.35
575.01	29345.64
575.17	29139.67
575.33	29055.41
575.49	29170.10
575.65	29465.00
575.82	29493.09
575.98	29195.84
576.14	29453.30
576.30	29261.38
576.46	29333.93
576.62	29116.26
576.79	28968.81
576.95	29352.66
577.11	29252.02
577.27	29160.73
577.43	29619.48
577.59	29284.78
577.75	29053.07
577.92	29397.13
578.08	29240.31
578.24	29263.72
578.40	29493.09
578.56	29530.54
578.72	29455.64
578.88	29785.66
579.04	29542.24
579.21	29125.63
579.37	29212.23
579.53	29256.70
579.69	29113.92
579.85	29355.00
580.01	29376.06
580.17	29006.26
580.33	29589.05
580.49	29369.04
580.65	29577.35
580.82	29219.25
580.98	29462.66
581.14	29357.34
581.30	29275.42
581.46	28842.42
581.62	29085.84
581.78	29104.56
581.94	29184.14
582.10	29462.66
582.26	29186.48
582.42	29310.53
582.58	29565.65
582.74	29167.76
582.90	29378.40
583.06	29745.87
583.22	29240.31
583.38	29050.73
583.54	29350.32
583.70	29247.33
583.86	29570.33
584.02	29453.30
584.18	29607.78
584.34	29497.77
584.50	29474.37
584.66	29289.46
584.82	29237.97
584.98	29596.07
585.14	29287.12
585.30	28924.34
585.46	29261.38
585.62	29336.27
585.78	29488.41
585.94	29156.05
586.10	29294.14
586.26	29628.84
586.42	29750.55
586.58	29427.56
586.74	29315.21
586.90	29322.23
587.06	29268.40
587.22	29472.03
587.38	29198.18
587.54	29706.08
587.70	29481.39
587.86	29776.30
588.02	29862.90
588.18	30246.74
588.34	29600.76
588.49	29530.54
588.65	29586.71
588.81	29413.51
588.97	29963.54
589.13	29879.28
589.29	29270.74
589.45	29317.55
589.61	29558.63
589.77	29572.67
589.93	29785.66
590.08	29614.80
590.24	29799.70
590.40	29893.32
590.56	29535.22
590.72	29715.44
590.88	29612.46
591.04	29432.24
591.20	29940.13
591.35	29982.26
591.51	30242.06
591.67	29989.28
591.83	30134.40
591.99	29689.70
592.15	29780.98
592.31	30141.42
592.46	29631.18
592.62	30071.20
592.78	29862.90
592.94	29233.29
593.10	29783.32
593.26	29949.50
593.41	29816.08
593.57	29766.93
593.73	29928.43
593.89	29905.02
594.05	30132.06
594.20	29750.55
594.36	29846.51
594.52	29572.67
594.68	29720.12
594.84	29675.65
594.99	30213.98
595.15	29972.90
595.31	30160.14
595.47	30101.63
595.62	30022.05
595.78	29958.86
595.94	30047.80
596.10	29963.54
596.25	30096.95
596.41	29687.36
596.57	29394.79
596.73	30078.22
596.88	29802.04
597.04	29996.31
597.20	30000.99
597.36	29795.02
597.51	30249.08
597.67	30157.80
597.83	29844.17
597.99	29977.58
598.14	29762.25
598.30	29975.24
598.46	30075.88
598.61	30073.54
598.77	29958.86
598.93	30015.03
599.09	30345.05
599.24	30085.25
599.40	30066.52
599.56	30314.62
599.71	29958.86
599.87	30284.19
600.03	30057.16
600.18	29720.12
600.34	29546.92
600.50	29621.82
600.65	30148.44
600.81	30291.21
600.97	30068.86
601.12	30291.21
601.28	30010.35
601.44	30342.70
601.59	30302.92
601.75	30103.97
601.91	29926.09
602.06	30223.34
602.22	30064.18
602.37	29638.20
602.53	29860.55
602.69	29921.41
602.84	29923.75
603.00	30209.29
603.16	29902.68
603.31	30096.95
603.47	30176.53
603.62	29900.34
603.78	30288.87
603.94	30068.86
604.09	29900.34
604.25	30038.44
604.40	29614.80
604.56	29860.55
604.71	29963.54
604.87	29720.12
605.03	29876.94
605.18	30202.27
605.34	29809.06
605.49	29776.30
605.65	30054.82
605.80	29570.33
605.96	29790.34
606.12	29528.20
606.27	30139.08
606.43	29844.17
606.58	30000.99
606.74	30012.69
606.89	29951.84
607.05	30394.20
607.20	29928.43
607.36	30078.22
607.51	30188.23
607.67	29755.23
607.82	29521.18
607.98	29734.17
608.13	30197.59
608.29	29790.34
608.44	29759.91
608.60	29907.37
608.75	30338.02
608.91	29972.90
609.06	29876.94
609.22	29977.58
609.37	29376.06
609.53	29626.50
609.68	29329.25
609.84	29656.93
609.99	29605.44
610.15	29823.11
610.30	29745.87
610.46	29778.64
610.61	29825.45
610.76	29984.60
610.92	29738.85
611.07	29720.12
611.23	29876.94
611.38	29411.17
611.54	29642.88
611.69	29305.85
611.84	29282.44
612.00	29193.50
612.15	29954.18
612.31	29476.71
612.46	29401.81
612.62	29717.78
612.77	29359.68
612.92	29584.37
613.08	29717.78
613.23	29457.98
613.39	29509.47
613.54	29345.64
613.69	29326.91
613.85	29596.07
614.00	29521.18
614.15	29610.12
614.31	29132.65
614.46	29443.94
614.62	29415.85
614.77	29427.56
614.92	29542.24
615.08	29369.04
615.23	29413.51
615.38	29462.66
615.54	29324.57
615.69	29322.23
615.84	29298.83
616.00	29160.73
616.15	28947.75
616.30	29448.62
616.46	29200.52
616.61	29268.40
616.76	29392.45
616.92	28992.22
617.07	29158.39
617.22	29134.99
617.37	28718.37
617.53	29495.43
617.68	28842.42
617.83	28851.78
617.99	28931.36
618.14	28964.13
618.29	29436.92
618.45	28952.43
618.60	29371.38
618.75	28936.04
618.90	29230.95
619.06	29003.92
619.21	28781.57
619.36	29057.75
619.51	28854.12
619.67	28362.61
619.82	28477.30
619.97	29261.38
620.12	28446.87
620.28	28479.64
620.43	28950.09
620.58	29003.92
620.73	29109.24
620.89	28989.88
621.04	28837.74
621.19	28795.61
621.34	28931.36
621.49	28491.34
621.65	28484.32
621.80	28982.85
621.95	28556.88
622.10	28608.37
622.25	28357.93
622.41	28336.87
622.56	28407.08
622.71	28996.90
622.86	28856.46
623.01	28217.50
623.16	28524.11
623.32	28283.03
623.47	28435.17
623.62	28638.80
623.77	28327.50
623.92	28531.13
624.07	28437.51
624.23	28423.47
624.38	28297.08
624.53	28629.43
624.68	28676.24
624.83	28755.82
624.98	28453.89
625.13	28194.09
625.29	28582.62
625.44	28205.80
625.59	28065.36
625.74	28236.22
625.89	27903.87
626.04	28411.76
626.19	27552.79
626.34	27899.19
626.49	27901.53
626.65	28095.79
626.80	28512.41
626.95	27983.44
627.10	27852.38
627.25	28102.81
627.40	27812.59
627.55	27538.74
627.70	27967.06
627.85	27307.03
628.00	27828.97
628.15	28081.75
628.30	27688.54
628.45	28058.34
628.60	27412.35
628.76	27718.96
628.91	27997.49
629.06	27770.46
629.21	27999.83
629.36	27840.67
629.51	27992.81
629.66	27625.34
629.81	27751.73
629.96	28203.46
630.11	27786.84
630.26	27510.66
630.41	27592.58
630.56	27786.84
630.71	27864.08
630.86	27630.02
631.01	28095.79
631.16	27941.32
631.31	27697.90
631.46	27335.12
631.61	27379.59
631.76	27494.27
631.91	27445.12
632.06	27534.06
632.21	27480.23
632.36	27480.23
632.51	27431.08
632.66	27419.38
632.81	27168.94
632.96	27234.47
633.10	27697.90
633.25	27473.21
633.40	27637.05
633.55	27297.67
633.70	26958.29
633.85	26733.60
634.00	26979.36
634.15	27569.17
634.30	27225.11
634.45	27260.22
634.60	27274.26
634.75	27222.77
634.90	27276.60
635.05	27105.74
635.19	26773.39
635.34	26967.65
635.49	27281.28
635.64	27527.04
635.79	27328.10
635.94	27133.83
636.09	27239.15
636.24	26913.82
636.39	27180.64
636.53	26857.65
636.68	26668.06
636.83	26654.02
636.98	27395.97
637.13	26911.48
637.28	27087.02
637.43	27304.69
637.57	27220.43
637.72	26764.03
637.87	26555.72
638.02	26960.63
638.17	26782.75
638.32	26848.29
638.46	26703.17
638.61	26438.69
638.76	26464.44
638.91	26675.09
639.06	26752.32
639.20	26677.43
639.35	26773.39
639.50	26766.37
639.65	26719.56
639.80	26948.93
639.94	26607.21
640.09	26576.78
640.24	26747.64
640.39	26726.58
640.54	26663.38
640.68	26555.72
640.83	26483.16
640.98	26169.53
641.13	26181.23
641.27	26422.31
641.42	26658.70
641.57	26483.16
641.72	26803.82
641.86	26565.08
642.01	26263.15
642.16	25993.99
642.31	25902.71
642.45	26558.06
642.60	26005.69
642.75	25804.41
642.90	26106.34
643.04	26216.34
643.19	26295.92
643.34	25921.43
643.48	26483.16
643.63	26129.74
643.78	26008.03
643.93	26609.55
644.07	26286.56
644.22	26352.09
644.37	26106.34
644.51	25699.08
644.66	26024.42
644.81	25755.26
644.95	25631.21
645.10	26113.36
645.25	25713.13
645.39	25823.13
645.54	26129.74
645.69	26068.89
645.83	26066.55
645.98	25860.58
646.13	25701.42
646.27	26031.44
646.42	25841.85
646.57	26125.06
646.71	25781.00
646.86	25788.02
647.00	25867.60
647.15	25614.82
647.30	25748.23
647.44	25668.66
647.59	25502.48
647.74	25626.53
647.88	25603.12
648.03	25958.88
648.17	26026.76
648.32	25411.20
648.47	25949.52
648.61	25755.26
648.76	26122.72
648.90	25806.75
649.05	25720.15
649.20	25565.67
649.34	25703.76
649.49	25420.56
649.63	25333.96
649.78	25305.87
649.92	25497.80
650.07	25270.76
650.21	25514.18
650.36	25436.94
650.51	25240.34
650.65	25434.60
650.80	25745.89
650.94	25312.89
651.09	25085.86
651.23	25280.13
651.38	25109.27
651.52	25275.45
651.67	25436.94
651.81	25355.02
651.96	25383.11
652.10	25214.59
652.25	25092.88
652.39	25387.79
652.54	25235.66
652.68	25085.86
652.83	25317.57
652.97	25692.06
653.12	25144.38
653.26	24964.15
653.41	25378.43
653.55	25446.30
653.70	25055.43
653.84	24957.13
653.99	25455.67
654.13	25252.04
654.27	24980.54
654.42	24847.13
654.56	25088.20
654.71	25326.94
654.85	25017.99
655.00	25048.41
655.14	24978.20
655.29	25163.10
655.43	24854.15
655.57	25221.61
655.72	24898.62
655.86	24776.91
656.01	24812.02
656.15	24671.59
656.30	24730.10
656.44	24421.15
656.58	24341.57
656.73	24765.21
656.87	24540.52
657.01	24517.11
657.16	24493.71
657.30	24886.92
657.45	24723.08
657.59	24790.95
657.73	24793.29
657.88	24542.86
658.02	24498.39
658.16	24627.12
658.31	24449.24
658.45	24369.66
658.60	24128.58
658.74	24566.26
658.88	24343.91
659.03	24287.74
659.17	24603.71
659.31	24390.72
659.46	24383.70
659.60	24449.24
659.74	24606.05
659.89	24081.77
660.03	24077.09
660.17	24336.89
660.32	24109.86
660.46	24156.67
660.60	23985.81
660.74	23775.16
660.89	24173.05
661.03	23821.97
661.17	24009.22
661.32	23714.31
661.46	23997.51
661.60	23950.70
661.74	23726.01
661.89	24306.46
662.03	23999.85
662.17	23716.65
662.31	23660.48
662.46	23693.24
662.60	23969.43
662.74	23590.26
662.88	23943.68
663.03	23412.38
663.17	23449.83
663.31	23220.45
663.45	23438.12
663.60	23473.23
663.74	23353.87
663.88	23742.39
664.02	23498.98
664.17	23608.98
664.31	23309.40
664.45	23534.09
664.59	23435.78
664.73	23234.50
664.88	23159.60
665.02	22658.73
665.16	23058.96
665.30	22974.70
665.44	22881.08
665.59	22654.05
665.73	22897.46
665.87	22785.12
666.01	22960.66
666.15	22794.48
666.29	22595.53
666.44	22988.74
666.58	22686.81
666.72	22803.84
666.86	22630.64
667.00	22981.72
667.14	22670.43
667.28	22759.37
667.43	22462.12
667.57	22459.78
667.71	22235.09
667.85	22452.76
667.99	22340.41
668.13	22661.07
668.27	22347.44
668.41	22469.14
668.56	22487.87
668.70	22167.21
668.84	22408.29
668.98	22199.98
669.12	22431.69
669.26	22553.40
669.40	22061.89
669.54	22455.10
669.68	22211.68
669.82	21989.33
669.96	21940.18
670.10	21706.13
670.25	21813.79
670.39	21855.92
670.53	21907.41
670.67	21661.66
670.81	21947.20
670.95	21525.91
671.09	21528.25
671.23	21977.63
671.37	21895.71
671.51	21685.06
671.65	21708.47
671.79	21778.68
671.93	21832.52
672.07	21600.80
672.21	21317.60
672.35	21504.84
672.49	20933.75
672.63	21249.72
672.77	20996.95
672.91	21362.07
673.05	21144.40
673.19	21109.29
673.33	21062.48
673.47	21036.74
673.61	21443.99
673.75	20872.90
673.89	20739.49
674.03	21120.99
674.17	20912.69
674.31	20980.56
674.45	20856.51
674.59	20552.24
674.73	20828.43
674.87	20638.84
675.01	20521.82
675.15	20472.67
675.29	20460.96
675.43	20245.63
675.56	20411.81
675.70	20606.08
675.84	20339.26
675.98	19819.66
676.12	20716.08
676.26	20517.14
676.40	20383.73
676.54	20217.55
676.68	20418.83
676.82	19817.32
676.96	19992.86
677.10	19793.91
677.23	19784.55
677.37	19564.54
677.51	19946.05
677.65	19910.94
677.79	19716.67
677.93	19697.95
678.07	19346.87
678.21	19438.15
678.34	19239.20
678.48	19454.53
678.62	19176.01
678.76	19316.44
678.90	18977.06
679.04	19061.32
679.18	18998.13
679.31	19056.64
679.45	18684.50
679.59	18813.23
679.73	18867.06
679.87	18710.24
680.00	19084.73
680.14	18625.98
680.28	18508.96
680.42	18389.59
680.56	18857.70
680.70	18668.11
680.83	18588.53
680.97	18225.75
681.11	18513.64
681.25	18494.91
681.39	18258.52
681.52	18434.06
681.66	18209.37
681.80	18136.81
681.94	17949.57
682.07	17951.91
682.21	17790.41
682.35	17659.34
682.49	17874.67
682.62	17947.23
682.76	17708.49
682.90	17774.03
683.04	17418.27
683.17	17818.50
683.31	17682.75
683.45	17275.49
683.59	17605.51
683.72	17465.08
683.86	17198.26
684.00	17352.73
684.13	17369.12
684.27	16936.12
684.41	16971.22
684.55	16975.91
684.68	17041.44
684.82	16744.19
684.96	16922.07
685.09	16716.11
685.23	16343.96
685.37	16823.77
685.50	16854.20
685.64	16931.44
685.78	16734.83
685.91	16556.95
686.05	16643.55
686.19	16484.39
686.32	16561.63
686.46	16444.60
686.60	15967.13
686.73	16201.19
686.87	16154.38
687.01	16217.57
687.14	15943.73
687.28	15817.34
687.42	16070.12
687.55	15686.27
687.69	15817.34
687.82	15899.26
687.96	16072.46
688.10	15873.51
688.23	15803.30
688.37	15492.01
688.50	15370.30
688.64	15494.35
688.78	15524.77
688.91	15112.84
689.05	15545.84
689.18	15424.13
689.32	14956.02
689.46	15318.81
689.59	15152.63
689.73	15019.22
689.86	14824.95
690.00	14958.36
690.13	15108.16
690.27	14967.73
690.41	14792.19
690.54	14759.42
690.68	14782.82
690.81	14544.09
690.95	14640.05
691.08	14621.33
691.22	14518.34
691.35	14434.08
691.49	14504.30
691.62	14310.04
691.76	14328.76
691.89	13958.96
692.03	14085.34
692.16	14101.73
692.30	14265.57
692.43	14445.79
692.57	13987.04
692.70	14005.77
692.84	13940.23
692.97	13860.65
693.11	13895.76
693.24	13579.79
693.38	13720.22
693.51	13635.96
693.65	13483.83
693.78	13722.56
693.92	13811.50
694.05	13322.33
694.19	13504.89
694.32	13184.24
694.45	13195.94
694.59	12980.61
694.72	13111.68
694.86	12975.93
694.99	12891.67
695.13	12959.55
695.26	12812.09
695.39	12842.52
695.53	12863.58
695.66	12856.56
695.80	12702.09
695.93	12692.73
696.07	12613.15
696.20	12678.68
696.33	12592.08
696.47	12578.04
696.60	12650.60
696.73	12458.67
696.87	12407.18
697.00	12432.93
697.14	12107.59
697.27	12081.85
697.40	11997.59
697.54	12065.46
697.67	12039.72
697.80	11995.25
697.94	11847.79
698.07	11765.87
698.21	11800.98
698.34	11702.68
698.47	11772.89
698.61	11815.02
698.74	11871.20
698.87	11702.68
699.01	11513.10
699.14	11524.80
699.27	11562.25
699.40	11550.54
699.54	11602.04
699.67	11295.43
699.80	11166.70
699.94	11176.06
700.07	11152.65
700.20	11119.89
700.34	11005.20
700.47	10876.47
700.60	11023.92
700.73	11108.18
700.87	11119.89
701.00	10885.83
701.13	10834.34
701.26	11014.56
701.40	10909.24
701.53	10583.90
701.66	10668.16
701.79	10808.59
701.93	10607.31
702.06	10546.45
702.19	10473.90
702.32	10665.82
702.46	10167.29
702.59	10326.44
702.72	10111.11
702.85	10286.65
702.99	10171.97
703.12	10244.52
703.25	10071.33
703.38	10071.33
703.51	10178.99
703.65	10211.76
703.78	10061.96
703.91	9902.81
704.04	10157.92
704.17	10010.47
704.31	9928.55
704.44	9942.60
704.57	9593.86
704.70	9565.77
704.83	9643.01
704.96	9699.18
705.10	9493.21
705.23	9469.81
>>>>>End Processed Spectral Data<<<<<
