SpectraSuite Data File
++++++++++++++++++++++++++++++++++++
Date: Fri Oct 18 13:58:16 GMT-05:00 2013
User: bianchi
Dark Spectrum Present: No
Reference Spectrum Present: No
Number of Sampled Component Spectra: 1
Spectrometers: USB2+H05261
Integration Time (usec): 50000 (USB2+H05261)
Spectra Averaged: 1 (USB2+H05261)
Boxcar Smoothing: 0 (USB2+H05261)
Correct for Electrical Dark: No (USB2+H05261)
Strobe/Lamp Enabled: No (USB2+H05261)
Correct for Detector Non-linearity: No (USB2+H05261)
Correct for Stray Light: No (USB2+H05261)
Number of Pixels in Processed Spectrum: 2048
>>>>>Begin Processed Spectral Data<<<<<
365.73	0.00
365.92	0.00
366.12	0.00
366.32	0.00
366.52	0.00
366.72	0.00
366.91	0.00
367.11	0.00
367.31	0.00
367.51	0.00
367.70	0.00
367.90	0.00
368.10	0.00
368.30	0.00
368.49	0.00
368.69	0.00
368.89	0.00
369.09	0.00
369.28	0.00
369.48	0.00
369.68	0.00
369.87	0.00
370.07	0.00
370.27	0.00
370.47	0.00
370.66	100.64
370.86	124.05
371.06	60.85
371.25	149.79
371.45	84.26
371.65	81.92
371.84	238.73
372.04	166.18
372.24	149.79
372.44	156.82
372.63	262.14
372.83	175.54
373.03	238.73
373.22	154.48
373.42	236.39
373.62	224.69
373.81	280.86
374.01	215.33
374.21	278.52
374.40	287.89
374.60	234.05
374.79	196.60
374.99	182.56
375.19	196.60
375.38	273.84
375.58	313.63
375.78	311.29
375.97	262.14
376.17	271.50
376.37	257.46
376.56	220.01
376.76	304.27
376.95	243.42
377.15	273.84
377.35	292.57
377.54	266.82
377.74	304.27
377.93	266.82
378.13	271.50
378.33	290.23
378.52	325.33
378.72	245.76
378.91	269.16
379.11	285.55
379.31	299.59
379.50	203.63
379.70	273.84
379.89	308.95
380.09	294.91
380.28	203.63
380.48	322.99
380.68	311.29
380.87	308.95
381.07	285.55
381.26	353.42
381.46	304.27
381.65	313.63
381.85	348.74
382.04	315.97
382.24	372.15
382.43	365.12
382.63	353.42
382.83	332.36
383.02	411.93
383.22	390.87
383.41	411.93
383.61	362.78
383.80	395.55
384.00	334.70
384.19	383.85
384.39	358.10
384.58	425.98
384.78	315.97
384.97	294.91
385.17	351.08
385.36	322.99
385.56	376.83
385.75	374.49
385.95	444.70
386.14	461.09
386.34	437.68
386.53	437.68
386.72	461.09
386.92	423.64
387.11	383.85
387.31	369.80
387.50	475.13
387.70	507.90
387.89	425.98
388.09	468.11
388.28	404.91
388.48	428.32
388.67	372.15
388.86	425.98
389.06	486.83
389.25	330.02
389.45	498.53
389.64	491.51
389.84	491.51
390.03	498.53
390.22	479.81
390.42	475.13
390.61	397.89
390.81	367.46
391.00	437.68
391.19	580.45
391.39	451.72
391.58	524.28
391.78	477.47
391.97	503.22
392.16	582.79
392.36	571.09
392.55	540.66
392.75	557.05
392.94	564.07
393.13	484.49
393.33	526.62
393.52	526.62
393.71	596.84
393.91	596.84
394.10	528.96
394.29	575.77
394.49	526.62
394.68	615.56
394.88	540.66
395.07	596.84
395.26	620.24
395.46	580.45
395.65	655.35
395.84	610.88
396.04	716.20
396.23	657.69
396.42	653.01
396.62	608.54
396.81	482.15
397.00	695.14
397.19	596.84
397.39	692.80
397.58	709.18
397.77	638.97
397.97	627.26
398.16	690.46
398.35	730.25
398.55	645.99
398.74	713.86
398.93	737.27
399.12	795.78
399.32	704.50
399.51	739.61
399.70	781.74
399.90	704.50
400.09	727.91
400.28	786.42
400.47	765.36
400.67	793.44
400.86	802.80
401.05	816.85
401.24	802.80
401.44	821.53
401.63	835.57
401.82	814.51
402.01	821.53
402.21	887.06
402.40	809.83
402.59	910.47
402.78	791.10
402.97	905.79
403.17	786.42
403.36	887.06
403.55	945.58
403.74	894.08
403.93	889.40
404.13	898.77
404.32	938.55
404.51	877.70
404.70	866.00
404.89	929.19
405.09	966.64
405.28	966.64
405.47	957.28
405.66	940.90
405.85	1001.75
406.05	957.28
406.24	971.32
406.43	936.21
406.62	992.39
406.81	1100.05
407.00	957.28
407.20	1022.81
407.39	1057.92
407.58	1081.33
407.77	1004.09
407.96	1064.94
408.15	1020.47
408.34	1043.88
408.54	1057.92
408.73	1020.47
408.92	1111.75
409.11	1200.69
409.30	1158.57
409.49	1114.10
409.68	1184.31
409.87	1207.72
410.07	1142.18
410.26	1207.72
410.45	1158.57
410.64	1203.04
410.83	1224.10
411.02	1153.88
411.21	1369.21
411.40	1179.63
411.59	1273.25
411.78	1231.12
411.98	1263.89
412.17	1238.14
412.36	1284.95
412.55	1266.23
412.74	1252.19
412.93	1418.36
413.12	1334.11
413.31	1373.89
413.50	1469.86
413.69	1362.19
413.88	1392.62
414.07	1362.19
414.26	1430.07
414.45	1366.87
414.64	1432.41
414.83	1577.52
415.02	1547.09
415.22	1514.33
415.41	1542.41
415.60	1582.20
415.79	1488.58
415.98	1577.52
416.17	1495.60
416.36	1430.07
416.55	1579.86
416.74	1502.62
416.93	1720.29
417.12	1629.01
417.31	1689.87
417.50	1715.61
417.69	1739.02
417.88	1678.16
418.07	1757.74
418.26	1612.63
418.45	1722.63
418.64	1743.70
418.83	1827.96
419.02	1757.74
419.21	1881.79
419.39	1872.43
419.58	1774.13
419.77	1806.89
419.96	1856.04
420.15	1898.17
420.34	1998.82
420.53	1961.37
420.72	1816.26
420.91	1926.26
421.10	1907.54
421.29	2010.52
421.48	1834.98
421.67	1952.01
421.86	1877.11
422.05	2022.22
422.24	1947.33
422.43	1905.20
422.61	1966.05
422.80	2033.93
422.99	2104.14
423.18	2003.50
423.37	2214.15
423.56	1991.80
423.75	1956.69
423.94	2036.27
424.13	1839.66
424.32	1849.02
424.50	2047.97
424.69	2097.12
424.88	2047.97
425.07	1891.15
425.26	2001.16
425.45	1980.09
425.64	2050.31
425.83	1980.09
426.01	2054.99
426.20	2031.58
426.39	2052.65
426.58	2066.69
426.77	2036.27
426.96	2183.72
427.15	2179.04
427.33	2076.06
427.52	2165.00
427.71	2221.17
427.90	2193.08
428.09	1996.48
428.28	2113.50
428.46	2232.87
428.65	2225.85
428.84	2202.44
429.03	2221.17
429.22	2216.49
429.40	2155.63
429.59	2228.19
429.78	2197.76
429.97	2146.27
430.16	2183.72
430.34	2406.07
430.53	2293.72
430.72	2340.54
430.91	2321.81
431.10	2298.41
431.28	2441.18
431.47	2502.03
431.66	2413.09
431.85	2361.60
432.03	2424.80
432.22	2537.14
432.41	2410.75
432.60	2368.62
432.79	2366.28
432.97	2487.99
433.16	2457.56
433.35	2464.58
433.54	2567.57
433.72	2532.46
433.91	2422.45
434.10	2544.16
434.28	2452.88
434.47	2523.10
434.66	2614.38
434.85	2588.63
435.03	2562.89
435.22	2516.08
435.41	2663.53
435.59	2506.71
435.78	2572.25
435.97	2719.70
436.16	2679.91
436.34	2586.29
436.53	2689.28
436.72	2745.45
436.90	2576.93
437.09	2665.87
437.28	2670.55
437.46	2635.44
437.65	2745.45
437.84	2698.64
438.02	2806.30
438.21	2719.70
438.40	2717.36
438.58	2899.92
438.77	2946.73
438.96	2972.48
439.14	2878.86
439.33	2876.52
439.52	2932.69
439.70	2918.65
439.89	2892.90
440.08	3166.74
440.26	3035.67
440.45	2965.46
440.63	3103.55
440.82	3234.62
441.01	3110.57
441.19	3103.55
441.38	3267.39
441.57	3094.19
441.75	3049.72
441.94	3218.24
442.12	3265.05
442.31	3286.11
442.50	3241.64
442.68	3330.58
442.87	3222.92
443.05	3253.34
443.24	3363.35
443.43	3398.46
443.61	3337.60
443.80	3386.76
443.98	3330.58
444.17	3262.71
444.35	3452.29
444.54	3424.20
444.73	3456.97
444.91	3384.41
445.10	3382.07
445.28	3358.67
445.47	3290.79
445.65	3445.27
445.84	3325.90
446.02	3595.06
446.21	3379.73
446.39	3478.04
446.58	3569.32
446.77	3506.12
446.95	3325.90
447.14	3557.61
447.32	3520.17
447.51	3529.53
447.69	3648.90
447.88	3545.91
448.06	3461.65
448.25	3473.36
448.43	3588.04
448.62	3454.63
448.80	3562.30
448.99	3658.26
449.17	3679.32
449.36	3648.90
449.54	3604.42
449.73	3665.28
449.91	3695.71
450.10	3616.13
450.28	3719.11
450.46	3768.26
450.65	3688.68
450.83	3768.26
451.02	3714.43
451.20	3763.58
451.39	3847.84
451.57	3632.51
451.76	3791.67
451.94	3679.32
452.13	3899.33
452.31	3756.56
452.49	3803.37
452.68	3854.86
452.86	3761.24
453.05	3906.35
453.23	3950.82
453.42	3847.84
453.60	3763.58
453.78	3836.14
453.97	3981.25
454.15	3866.56
454.34	3911.04
454.52	3866.56
454.70	3936.78
454.89	3971.89
455.07	4077.21
455.26	4053.81
455.44	4189.56
455.62	3990.61
455.81	4074.87
455.99	4049.13
456.17	3939.12
456.36	4077.21
456.54	4154.45
456.73	4313.61
456.91	4194.24
457.09	4381.48
457.28	4266.80
457.46	4292.54
457.64	4320.63
457.83	4285.52
458.01	4250.41
458.19	4299.56
458.38	4454.04
458.56	4416.59
458.74	4280.84
458.93	4360.42
459.11	4571.07
459.29	4322.97
459.48	4440.00
459.66	4430.63
459.84	4486.81
460.03	4486.81
460.21	4620.22
460.39	4568.73
460.57	4479.79
460.76	4601.49
460.94	4620.22
461.12	4589.79
461.31	4671.71
461.49	4395.53
461.67	4582.77
461.85	4746.61
462.04	4634.26
462.22	4975.98
462.40	4660.01
462.59	4720.86
462.77	4690.43
462.95	4723.20
463.13	4690.43
463.32	4648.30
463.50	4847.25
463.68	4868.31
463.86	4947.89
464.05	4795.76
464.23	4634.26
464.41	4713.84
464.59	4983.00
464.78	5013.43
464.96	4957.25
465.14	4926.83
465.32	4905.76
465.50	4865.97
465.69	4849.59
465.87	4926.83
466.05	4901.08
466.23	4978.32
466.41	5013.43
466.60	5078.96
466.78	5011.09
466.96	5165.56
467.14	4961.94
467.32	5064.92
467.51	5053.22
467.69	5071.94
467.87	5020.45
468.05	5132.79
468.23	4940.87
468.41	5123.43
468.60	5142.16
468.78	5217.05
468.96	5137.48
469.14	5416.00
469.32	5327.06
469.50	5167.90
469.69	5301.31
469.87	5366.85
470.05	5493.24
470.23	5308.34
470.41	5369.19
470.59	5437.06
470.77	5418.34
470.95	5568.13
471.14	5369.19
471.32	5411.32
471.50	5593.88
471.68	5633.67
471.86	5430.04
472.04	5671.12
472.22	5701.54
472.40	5617.29
472.58	5490.90
472.77	5792.83
472.95	5785.80
473.13	5959.00
473.31	5813.89
473.49	5788.14
473.67	5905.17
473.85	5832.62
474.03	5998.79
474.21	6001.13
474.39	6083.05
474.57	6066.67
474.75	6017.52
474.93	6197.74
475.12	5968.37
475.30	6195.40
475.48	6113.48
475.66	6085.39
475.84	6099.44
476.02	6118.16
476.20	6270.30
476.38	6359.24
476.56	6473.92
476.74	6644.78
476.92	6476.26
477.10	6462.22
477.28	6504.35
477.46	6642.44
477.64	6700.95
477.82	6635.42
478.00	6878.83
478.18	7007.56
478.36	6843.73
478.54	6909.26
478.72	6939.69
478.90	7145.66
479.08	7087.14
479.26	7145.66
479.44	7297.79
479.62	7323.54
479.80	7414.82
479.98	7365.67
480.16	7489.71
480.34	7506.10
480.52	7686.32
480.70	7588.02
480.88	7564.61
481.06	7646.53
481.24	7630.15
481.41	7946.12
481.59	7850.16
481.77	8135.70
481.95	7908.67
482.13	8126.34
482.31	8006.97
482.49	8266.77
482.67	8215.28
482.85	8334.65
483.03	8603.81
483.21	8613.17
483.39	8521.89
483.57	8697.43
483.74	8716.16
483.92	8542.96
484.10	8709.13
484.28	8791.05
484.46	9008.72
484.64	8926.80
484.82	9011.06
485.00	9135.11
485.18	9090.64
485.35	9298.95
485.53	9205.33
485.71	9355.12
485.89	9645.35
486.07	9689.82
486.25	9542.36
486.43	9745.99
486.61	9563.43
486.78	9809.19
486.96	9902.81
487.14	10120.48
487.32	10078.35
487.50	10066.64
487.68	10019.83
487.85	10331.12
488.03	10572.20
488.21	10651.78
488.39	10661.14
488.57	10670.50
488.75	10689.23
488.92	11007.54
489.10	10803.91
489.28	11000.52
489.46	10986.47
489.64	11173.72
489.81	11222.87
489.99	11201.80
490.17	11204.14
490.35	11421.81
490.53	11356.28
490.70	11494.37
490.88	11669.91
491.06	11550.54
491.24	11639.48
491.41	11683.95
491.59	12072.48
491.77	11885.24
491.95	12084.19
492.13	12063.12
492.30	11999.93
492.48	12159.08
492.66	12325.26
492.84	12194.19
493.01	12435.27
493.19	12741.88
493.37	12725.49
493.54	12877.63
493.72	12898.69
493.90	12784.01
494.08	13050.83
494.25	13022.74
494.43	13102.32
494.61	13102.32
494.79	13151.47
494.96	13355.10
495.14	13350.42
495.32	13511.91
495.49	13694.47
495.67	13633.62
495.85	13778.73
496.02	13834.91
496.20	14031.51
496.38	13968.32
496.55	14061.94
496.73	14356.85
496.91	14239.82
497.09	14249.18
497.26	14396.64
497.44	14314.72
497.62	14295.99
497.79	14721.97
497.97	14265.57
498.14	14497.28
498.32	14705.59
498.50	14588.56
498.67	14813.25
498.85	14817.93
499.03	15026.24
499.20	14927.94
499.38	14981.77
499.56	15335.19
499.73	15178.37
499.91	15428.81
500.08	15302.42
500.26	15178.37
500.44	15454.56
500.61	15578.61
500.79	15283.70
500.97	15712.02
501.14	15875.85
501.32	15864.15
501.49	16049.05
501.67	15522.43
501.84	15704.99
502.02	15665.21
502.20	16100.55
502.37	16243.32
502.55	15936.71
502.72	16116.93
502.90	16222.25
503.07	16084.16
503.25	16016.29
503.43	16299.49
503.60	16552.27
503.78	16697.38
503.95	16311.19
504.13	16505.46
504.30	16615.46
504.48	16762.92
504.65	16634.19
504.83	16884.62
505.01	17294.22
505.18	17130.38
505.36	17069.53
505.53	16798.02
505.71	17008.67
505.88	17043.78
506.06	16952.50
506.23	17001.65
506.41	17025.06
506.58	17315.28
506.76	17322.30
506.93	17465.08
507.11	17404.22
507.28	17647.64
507.46	17816.16
507.63	17694.45
507.81	17865.31
507.98	17404.22
508.16	17584.44
508.33	17865.31
508.50	17867.65
508.68	18045.53
508.85	17968.29
509.03	17989.36
509.20	18368.52
509.38	18342.78
509.55	18286.61
509.73	18195.32
509.90	18239.79
510.08	18361.50
510.25	18225.75
510.42	18478.53
510.60	18663.43
510.77	18642.37
510.95	18520.66
511.12	18593.22
511.30	18625.98
511.47	18541.72
511.64	18796.84
511.82	18944.30
511.99	19101.11
512.17	18916.21
512.34	18934.93
512.51	19257.93
512.69	19166.65
512.86	18995.79
513.04	19321.12
513.21	19194.73
513.38	19452.19
513.56	19438.15
513.73	19613.69
513.90	19278.99
514.08	19545.81
514.25	19627.73
514.43	19833.70
514.60	19784.55
514.77	19840.72
514.95	19887.53
515.12	19520.07
515.29	19817.32
515.47	20116.90
515.64	20098.18
515.81	19800.93
515.99	20266.70
516.16	20016.26
516.33	20482.03
516.51	19990.52
516.68	20201.16
516.85	19988.18
517.03	20311.17
517.20	20589.69
517.37	20500.75
517.54	20638.84
517.72	20592.03
517.89	20411.81
518.06	20397.77
518.24	20355.64
518.41	20510.11
518.58	20580.33
518.75	20938.43
518.93	21139.72
519.10	20790.98
519.27	21111.63
519.45	20711.40
519.62	21067.16
519.79	20908.01
519.96	21364.41
520.14	21284.83
520.31	20828.43
520.48	21252.06
520.65	21310.58
520.83	21378.45
521.00	21025.03
521.17	21333.98
521.34	21312.92
521.52	21385.47
521.69	21366.75
521.86	21710.81
522.03	21752.94
522.20	21729.53
522.38	21680.38
522.55	21654.64
522.72	21577.40
522.89	21862.94
523.07	22003.38
523.24	22127.42
523.41	22396.59
523.58	22068.91
523.75	22040.82
523.92	22015.08
524.10	22089.98
524.27	22279.56
524.44	22181.26
524.61	22473.82
524.78	22403.61
524.96	22455.10
525.13	22178.92
525.30	22410.63
525.47	22317.01
525.64	22703.20
525.81	22696.17
525.98	22342.75
526.16	22721.92
526.33	22604.89
526.50	23131.51
526.67	22647.02
526.84	22609.58
527.01	22630.64
527.18	22876.40
527.36	22757.03
527.53	23089.38
527.70	23510.68
527.87	23082.36
528.04	23098.75
528.21	23239.18
528.38	23000.44
528.55	23115.13
528.72	23618.35
528.89	23321.10
529.07	23293.01
529.24	23257.90
529.41	23515.36
529.58	23599.62
529.75	23510.68
529.92	23236.84
530.09	23737.71
530.26	23672.18
530.43	23625.37
530.60	23529.41
530.77	23702.61
530.94	23676.86
531.11	23569.19
531.28	23854.74
531.46	23618.35
531.63	24074.75
531.80	23791.55
531.97	23810.27
532.14	23707.29
532.31	23976.45
532.48	24266.67
532.65	24397.74
532.82	23964.75
532.99	24283.06
533.16	24201.14
533.33	24505.41
533.50	24629.46
533.67	24098.16
533.84	24144.97
534.01	24081.77
534.18	24105.18
534.35	24861.17
534.52	24393.06
534.69	24425.83
534.86	24816.70
535.03	24327.53
535.20	24587.33
535.37	24797.98
535.54	24662.22
535.71	24491.37
535.88	24416.47
536.05	24666.91
536.22	25238.00
536.38	24786.27
536.55	24823.72
536.72	24805.00
536.89	24687.97
537.06	25097.56
537.23	24725.42
537.40	25076.50
537.57	25050.75
537.74	24877.55
537.91	25252.04
538.08	25163.10
538.25	24931.39
538.42	25191.19
538.59	25294.17
538.75	24947.77
538.92	24917.34
539.09	25338.64
539.26	25362.04
539.43	25387.79
539.60	25303.53
539.77	25766.96
539.94	25252.04
540.11	25282.47
540.28	25226.29
540.44	25450.99
540.61	25436.94
540.78	25614.82
540.95	25741.21
541.12	25738.87
541.29	25539.93
541.46	25521.20
541.62	25703.76
541.79	25734.19
541.96	25694.40
542.13	25830.15
542.30	25869.94
542.47	25874.62
542.63	25954.20
542.80	26092.29
542.97	25958.88
543.14	26223.36
543.31	26279.54
543.48	26188.25
543.64	26752.32
543.81	26775.73
543.98	26384.86
544.15	26415.29
544.32	26621.25
544.48	26829.56
544.65	26635.30
544.82	26478.48
544.99	26382.52
545.16	26593.17
545.32	26431.67
545.49	26782.75
545.66	26906.80
545.83	26569.76
546.00	26941.91
546.16	26845.94
546.33	26679.77
546.50	26747.64
546.67	26527.63
546.83	26522.95
547.00	26511.25
547.17	27023.83
547.34	26852.97
547.50	27098.72
547.67	27365.54
547.84	26902.12
548.00	26984.04
548.17	27197.02
548.34	27276.60
548.51	27159.58
548.67	27388.95
548.84	27307.03
549.01	27080.00
549.18	26717.22
549.34	26909.14
549.51	26984.04
549.68	27257.88
549.84	27253.20
550.01	27168.94
550.18	27241.50
550.34	27346.82
550.51	27733.01
550.68	27548.11
550.84	27136.17
551.01	27330.44
551.18	27711.94
551.34	27344.48
551.51	27620.66
551.68	27428.74
551.84	27524.70
552.01	27449.80
552.18	27770.46
552.34	27676.83
552.51	27922.59
552.68	27821.95
552.84	27513.00
553.01	27571.51
553.18	27700.24
553.34	27835.99
553.51	27852.38
553.67	27976.42
553.84	28325.16
554.01	28175.37
554.17	28109.83
554.34	27786.84
554.51	27871.10
554.67	27950.68
554.84	28166.01
555.00	28496.02
555.17	28271.33
555.33	27810.25
555.50	28306.44
555.67	28114.52
555.83	27812.59
556.00	28233.88
556.16	28404.74
556.33	28112.17
556.50	28435.17
556.66	28540.49
556.83	28025.57
556.99	28247.93
557.16	28671.56
557.32	28374.31
557.49	28552.20
557.65	28154.30
557.82	28437.51
557.98	28226.86
558.15	28325.16
558.32	28449.21
558.48	28341.55
558.65	28456.23
558.81	28718.37
558.98	28254.95
559.14	28472.62
559.31	28510.07
559.47	28156.64
559.64	28376.66
559.80	28823.70
559.97	28917.32
560.13	28601.35
560.30	28627.09
560.46	28680.92
560.63	28591.98
560.79	28734.76
560.96	28617.73
561.12	28788.59
561.29	28807.31
561.45	28620.07
561.61	28776.89
561.78	29116.26
561.94	29172.44
562.11	29151.37
562.27	28669.22
562.44	29095.20
562.60	28732.42
562.77	28627.09
562.93	28795.61
563.10	28884.55
563.26	29032.00
563.42	28889.23
563.59	29186.48
563.75	28638.80
563.92	29177.12
564.08	28900.94
564.24	28952.43
564.41	29326.91
564.57	28914.98
564.74	29408.83
564.90	29123.29
565.07	29308.19
565.23	29291.80
565.39	28882.21
565.56	29338.62
565.72	29352.66
565.88	28973.49
566.05	28914.98
566.21	29160.73
566.38	29041.37
566.54	29085.84
566.70	29427.56
566.87	29170.10
567.03	29240.31
567.19	29734.17
567.36	29493.09
567.52	29142.01
567.68	29514.16
567.85	28842.42
568.01	29259.04
568.17	28971.15
568.34	29252.02
568.50	29329.25
568.66	29511.81
568.83	29647.57
568.99	29177.12
569.15	29071.79
569.32	29137.33
569.48	29174.78
569.64	29392.45
569.81	29376.06
569.97	28833.06
570.13	29841.83
570.30	29282.44
570.46	29682.67
570.62	29603.10
570.78	29170.10
570.95	29364.36
571.11	29549.26
571.27	29294.14
571.43	29266.06
571.60	29617.14
571.76	29493.09
571.92	29427.56
572.09	29383.09
572.25	29523.52
572.41	29638.20
572.57	29394.79
572.74	29617.14
572.90	29542.24
573.06	29661.61
573.22	29551.60
573.38	29596.07
573.55	29558.63
573.71	29727.14
573.87	29694.38
574.03	29673.31
574.20	29759.91
574.36	29591.39
574.52	29879.28
574.68	29497.77
574.84	29722.46
575.01	29764.59
575.17	29422.87
575.33	29635.86
575.49	29886.30
575.65	29551.60
575.82	29780.98
575.98	29692.04
576.14	29701.40
576.30	29305.85
576.46	29406.49
576.62	29406.49
576.79	29841.83
576.95	29565.65
577.11	29773.95
577.27	29647.57
577.43	29720.12
577.59	29673.31
577.75	29825.45
577.92	29193.50
578.08	29584.37
578.24	29291.80
578.40	29628.84
578.56	29673.31
578.72	29820.77
578.88	29518.84
579.04	29895.66
579.21	29663.95
579.37	29993.97
579.53	29551.60
579.69	29432.24
579.85	29560.97
580.01	29427.56
580.17	29448.62
580.33	29614.80
580.49	29778.64
580.65	30064.18
580.82	30052.48
580.98	29586.71
581.14	30033.75
581.30	29626.50
581.46	29490.75
581.62	29516.50
581.78	29776.30
581.94	29813.74
582.10	29727.14
582.26	30026.73
582.42	29453.30
582.58	29773.95
582.74	29886.30
582.90	30082.91
583.06	30064.18
583.22	29642.88
583.38	29951.84
583.54	29476.71
583.70	29956.52
583.86	29640.54
584.02	29699.06
584.18	29937.79
584.34	29750.55
584.50	30230.36
584.66	29902.68
584.82	29420.53
584.98	30246.74
585.14	29521.18
585.30	29282.44
585.46	30043.12
585.62	29715.44
585.78	30022.05
585.94	29385.43
586.10	30012.69
586.26	29806.72
586.42	29797.36
586.58	29914.39
586.74	30010.35
586.90	30054.82
587.06	29867.58
587.22	30134.40
587.38	30005.67
587.54	29879.28
587.70	30302.92
587.86	29656.93
588.02	29680.33
588.18	30038.44
588.34	29724.80
588.49	29432.24
588.65	29986.94
588.81	29813.74
588.97	30057.16
589.13	29680.33
589.29	29928.43
589.45	29900.34
589.61	30300.58
589.77	30024.39
589.93	30417.60
590.08	30665.70
590.24	30387.18
590.40	30562.72
590.56	30370.79
590.72	29879.28
590.88	30216.32
591.04	29968.22
591.20	29881.62
591.35	30118.01
591.51	30286.53
591.67	30103.97
591.83	30270.15
591.99	29900.34
592.15	30438.67
592.31	30345.05
592.46	29764.59
592.62	30141.42
592.78	30160.14
592.94	29975.24
593.10	29830.13
593.26	30415.26
593.41	30471.43
593.57	30316.96
593.73	29961.20
593.89	30347.39
594.05	30639.95
594.20	30120.35
594.36	30146.10
594.52	29977.58
594.68	30045.46
594.84	30040.78
594.99	30263.13
595.15	30185.89
595.31	30408.24
595.47	30244.40
595.62	30125.04
595.78	30513.56
595.94	30574.42
596.10	30405.90
596.25	30288.87
596.41	30139.08
596.57	30099.29
596.73	30045.46
596.88	30565.06
597.04	30700.81
597.20	30239.72
597.36	30518.25
597.51	30834.22
597.67	30593.14
597.83	30284.19
597.99	30305.26
598.14	30057.16
598.30	30429.30
598.46	30403.56
598.61	30597.82
598.77	30293.55
598.93	30387.18
599.09	30581.44
599.24	30855.28
599.40	30199.93
599.56	30925.50
599.71	30621.23
599.87	30410.58
600.03	30551.01
600.18	30607.19
600.34	30466.75
600.50	30621.23
600.65	30333.34
600.81	30801.45
600.97	30452.71
601.12	30651.66
601.28	30597.82
601.44	30504.20
601.59	30785.07
601.75	30419.94
601.91	30506.54
602.06	30841.24
602.22	30654.00
602.37	30122.69
602.53	30375.47
602.69	30728.89
602.84	30368.45
603.00	30345.05
603.16	30480.80
603.31	30293.55
603.47	30703.15
603.62	30602.50
603.78	30052.48
603.94	29930.77
604.09	30693.79
604.25	30202.27
604.40	30466.75
604.56	30459.73
604.71	30326.32
604.87	30553.35
605.03	30071.20
605.18	30375.47
605.34	30326.32
605.49	30560.37
605.65	30235.04
605.80	29907.37
605.96	30050.14
606.12	30405.90
606.27	30113.33
606.43	30239.72
606.58	30590.80
606.74	30258.45
606.89	30469.09
607.05	30581.44
607.20	30485.48
607.36	30338.02
607.51	30031.41
607.67	30471.43
607.82	30277.17
607.98	29942.47
608.13	30433.99
608.29	30059.50
608.44	30295.89
608.60	30562.72
608.75	30094.61
608.91	30494.84
609.06	30265.47
609.22	30663.36
609.37	29858.21
609.53	30106.31
609.68	30141.42
609.84	30366.11
609.99	29858.21
610.15	29411.17
610.30	30258.45
610.46	30113.33
610.61	30249.08
610.76	29979.92
610.92	30527.61
611.07	29914.39
611.23	29748.21
611.38	30218.66
611.54	30085.25
611.69	29954.18
611.84	29923.75
612.00	30122.69
612.15	29872.26
612.31	30260.79
612.46	30225.68
612.62	30115.67
612.77	29883.96
612.92	30190.57
613.08	29762.25
613.23	30087.59
613.39	29699.06
613.54	29909.71
613.69	29584.37
613.85	29663.95
614.00	30066.52
614.15	30071.20
614.31	29869.92
614.46	29809.06
614.62	29401.81
614.77	29736.51
614.92	29860.55
615.08	29614.80
615.23	30031.41
615.38	30073.54
615.54	29373.72
615.69	29963.54
615.84	29509.47
616.00	29748.21
616.15	29731.83
616.30	29645.23
616.46	29647.57
616.61	29895.66
616.76	30061.84
616.92	29788.00
617.07	29970.56
617.22	29750.55
617.37	29567.99
617.53	29575.01
617.68	29626.50
617.83	29453.30
617.99	29685.01
618.14	29745.87
618.29	29680.33
618.45	29493.09
618.60	29340.96
618.75	29322.23
618.90	29560.97
619.06	29535.22
619.21	29465.00
619.36	29469.69
619.51	29076.48
619.67	29057.75
619.82	29280.10
619.97	29371.38
620.12	29202.86
620.28	28943.06
620.43	29551.60
620.58	29502.45
620.73	29476.71
620.89	29406.49
621.04	29514.16
621.19	29408.83
621.34	29207.55
621.49	28847.10
621.65	29055.41
621.80	29493.09
621.95	29160.73
622.10	29212.23
622.25	29151.37
622.41	29055.41
622.56	28856.46
622.71	29483.73
622.86	29305.85
623.01	29324.57
623.16	29130.31
623.32	28538.15
623.47	29214.57
623.62	28980.51
623.77	28723.05
623.92	29207.55
624.07	28346.23
624.23	29184.14
624.38	28875.19
624.53	28781.57
624.68	28996.90
624.83	29376.06
624.98	29039.03
625.13	29029.66
625.29	28884.55
625.44	28905.62
625.59	29001.58
625.74	28491.34
625.89	28800.29
626.04	28959.45
626.19	28617.73
626.34	28559.22
626.49	28603.69
626.65	28402.40
626.80	28414.10
626.95	28428.15
627.10	28659.86
627.25	28582.62
627.40	28517.09
627.55	28622.41
627.70	28037.28
627.85	28114.52
628.00	28376.66
628.15	28343.89
628.30	28456.23
628.45	28180.05
628.60	28189.41
628.76	28692.63
628.91	28629.43
629.06	28149.62
629.21	28283.03
629.36	28636.45
629.51	27906.21
629.66	27857.06
629.81	28194.09
629.96	28119.20
630.11	27742.37
630.26	28123.88
630.41	28018.55
630.56	28053.66
630.71	28154.30
630.86	27835.99
631.01	28311.12
631.16	28451.55
631.31	27861.74
631.46	27508.32
631.61	28187.07
631.76	28297.08
631.91	28041.96
632.06	28144.94
632.21	27957.70
632.36	28360.27
632.51	27604.28
632.66	27936.63
632.81	27676.83
632.96	28161.33
633.10	28107.49
633.25	27733.01
633.40	28147.28
633.55	27957.70
633.70	27573.85
633.85	27646.41
634.00	27311.71
634.15	27442.78
634.30	27566.83
634.45	27737.69
634.60	27901.53
634.75	27665.13
634.90	27646.41
635.05	27674.49
635.19	27681.52
635.34	27831.31
635.49	27995.15
635.64	27559.81
635.79	27552.79
635.94	27529.38
636.09	27782.16
636.24	27611.30
636.39	27330.44
636.53	27704.92
636.68	26927.86
636.83	27672.15
636.98	27538.74
637.13	27449.80
637.28	27377.25
637.43	27241.50
637.57	27489.59
637.72	27513.00
637.87	27421.72
638.02	27534.06
638.17	27112.77
638.32	26925.52
638.46	27033.19
638.61	27391.29
638.76	27178.30
638.91	27190.00
639.06	26909.14
639.20	27016.80
639.35	27023.83
639.50	27356.18
639.65	27211.07
639.80	27456.82
639.94	27283.62
640.09	27290.65
640.24	27117.45
640.39	26953.61
640.54	26874.03
640.68	27007.44
640.83	26541.68
640.98	26394.22
641.13	26539.33
641.27	26988.72
641.42	26806.16
641.57	26864.67
641.72	26841.26
641.86	26962.97
642.01	26581.46
642.16	26824.88
642.31	26429.33
642.45	26902.12
642.60	26785.09
642.75	26630.62
642.90	26747.64
643.04	26476.14
643.19	26553.38
643.34	26555.72
643.48	26710.19
643.63	27007.44
643.78	26649.34
643.93	26759.34
644.07	26696.15
644.22	26888.07
644.37	26581.46
644.51	26520.61
644.66	26522.95
644.81	26485.50
644.95	26260.81
645.10	26438.69
645.25	26286.56
645.39	26529.97
645.54	26272.51
645.69	26181.23
645.83	26340.39
645.98	26319.32
646.13	26478.48
646.27	26501.89
646.42	26499.55
646.57	26419.97
646.71	26415.29
646.86	26625.93
647.00	26036.12
647.15	26001.01
647.30	26094.63
647.44	25930.80
647.59	26155.49
647.74	25968.24
647.88	25989.31
648.03	26008.03
648.17	26305.28
648.32	26499.55
648.47	26408.26
648.61	26185.91
648.76	26663.38
648.90	26185.91
649.05	26309.96
649.20	26017.40
649.34	25876.96
649.49	26043.14
649.63	25916.75
649.78	25853.56
649.92	25645.25
650.07	26071.23
650.21	25703.76
650.36	26054.84
650.51	26082.93
650.65	25818.45
650.80	26015.05
650.94	25678.02
651.09	25560.99
651.23	25642.91
651.38	25738.87
651.52	25813.77
651.67	25600.78
651.81	25661.63
651.96	25874.62
652.10	25720.15
652.25	25633.55
652.39	25572.69
652.54	25687.38
652.68	25415.88
652.83	25905.05
652.97	26146.12
653.12	25694.40
653.26	25392.47
653.41	25626.53
653.55	25591.42
653.70	25678.02
653.84	25680.36
653.99	25298.85
654.13	25539.93
654.27	25284.81
654.42	25348.00
654.56	25069.48
654.71	25626.53
654.85	25586.74
655.00	25596.10
655.14	25490.77
655.29	25422.90
655.43	25596.10
655.57	25376.09
655.72	25057.78
655.86	25553.97
656.01	25120.97
656.15	25130.33
656.30	24886.92
656.44	25240.34
656.58	24992.24
656.73	25006.28
656.87	25191.19
657.01	25088.20
657.16	25467.37
657.30	25289.49
657.45	25575.03
657.59	25333.96
657.73	24842.45
657.88	25348.00
658.02	24795.64
658.16	25230.98
658.31	24952.45
658.45	24989.90
658.60	24592.01
658.74	24587.33
658.88	24863.51
659.03	24783.93
659.17	24966.49
659.31	24737.12
659.46	24910.32
659.60	24975.86
659.74	24678.61
659.89	24957.13
660.03	24327.53
660.17	24091.13
660.32	24491.37
660.46	24467.96
660.60	24519.45
660.74	24601.37
660.89	24472.64
661.03	24297.10
661.17	24259.65
661.32	24512.43
661.46	24535.84
661.60	24093.47
661.74	24725.42
661.89	24725.42
662.03	24084.11
662.17	23969.43
662.31	23955.38
662.46	24446.90
662.60	24353.27
662.74	23772.82
662.88	24037.30
663.03	23660.48
663.17	23978.79
663.31	23812.61
663.45	23711.97
663.60	24056.03
663.74	23868.78
663.88	23967.09
664.02	23630.05
664.17	23812.61
664.31	23524.72
664.45	23461.53
664.59	23667.50
664.73	23676.86
664.88	23414.72
665.02	23051.94
665.16	23606.64
665.30	23503.66
665.44	23353.87
665.59	23178.33
665.73	23637.07
665.87	23211.09
666.01	23204.07
666.15	23697.92
666.29	23297.69
666.44	23445.15
666.58	23023.85
666.72	23482.59
666.86	23250.88
667.00	23304.71
667.14	22834.27
667.28	23101.09
667.43	23227.48
667.57	22864.69
667.71	22939.59
667.85	22946.61
667.99	22848.31
668.13	22750.01
668.27	22621.28
668.41	23166.62
668.56	22476.16
668.70	22869.37
668.84	22735.96
668.98	22621.28
669.12	22867.03
669.26	22600.21
669.40	22340.41
669.54	22724.26
669.68	22724.26
669.82	22260.84
669.96	22321.69
670.10	22075.93
670.25	22160.19
670.39	22576.81
670.53	22284.24
670.67	21986.99
670.81	22429.35
670.95	22452.76
671.09	22136.79
671.23	22239.77
671.37	22403.61
671.51	22209.34
671.65	22333.39
671.79	22127.42
671.93	22005.72
672.07	22115.72
672.21	21769.32
672.35	21783.37
672.49	21378.45
672.63	21713.15
672.77	21619.53
672.91	21649.96
673.05	21537.61
673.19	21766.98
673.33	21568.04
673.47	21458.03
673.61	21467.39
673.75	21750.60
673.89	21263.77
674.03	21465.05
674.17	21326.96
674.31	21783.37
674.45	21191.21
674.59	21324.62
674.73	21357.39
674.87	21404.20
675.01	21074.18
675.15	21179.51
675.29	21216.96
675.43	20769.91
675.56	20790.98
675.70	21135.04
675.84	20702.04
675.98	20606.08
676.12	21048.44
676.26	20900.98
676.40	20709.06
676.54	20599.05
676.68	20407.13
676.82	20290.10
676.96	20526.50
677.10	20198.82
677.23	20081.80
677.37	20250.32
677.51	20365.00
677.65	19974.13
677.79	19777.53
677.93	20093.50
678.07	20063.07
678.21	19957.75
678.34	19662.84
678.48	19719.01
678.62	19513.05
678.76	19524.75
678.90	19438.15
679.04	19786.89
679.18	19536.45
679.31	19232.18
679.45	19328.14
679.59	19311.76
679.73	19012.17
679.87	19021.53
680.00	18850.67
680.14	18820.25
680.28	19026.21
680.42	19014.51
680.56	19103.45
680.70	18787.48
680.83	19049.62
680.97	18621.30
681.11	18883.44
681.25	18686.84
681.39	18490.23
681.52	18740.67
681.66	18471.51
681.80	18345.12
681.94	18232.77
682.07	18185.96
682.21	18436.40
682.35	18253.84
682.49	18382.57
682.62	18410.65
682.76	17928.50
682.90	18097.02
683.04	18038.51
683.17	18033.83
683.31	18132.13
683.45	17968.29
683.59	17898.08
683.72	17975.31
683.86	17710.83
684.00	17600.83
684.13	17593.81
684.27	17322.30
684.41	17322.30
684.55	17181.87
684.68	17305.92
684.82	17371.46
684.96	17006.33
685.09	17076.55
685.23	17062.51
685.37	17160.81
685.50	17188.89
685.64	16910.37
685.78	16837.81
685.91	17053.14
686.05	16978.25
686.19	16709.08
686.32	16783.98
686.46	16545.25
686.60	16386.09
686.73	16411.84
686.87	16266.72
687.01	16594.40
687.14	16175.44
687.28	16259.70
687.42	16182.46
687.55	16023.31
687.69	16170.76
687.82	16032.67
687.96	16142.67
688.10	15950.75
688.23	16128.63
688.37	16049.05
688.50	15861.81
688.64	15723.72
688.78	15910.96
688.91	15674.57
689.05	15594.99
689.18	15508.39
689.32	15307.10
689.46	15538.82
689.59	15494.35
689.73	15365.62
689.86	15342.21
690.00	15269.66
690.13	15328.17
690.27	15215.82
690.41	15213.48
690.54	15035.60
690.68	14953.68
690.81	15227.53
690.95	15047.30
691.08	15009.86
691.22	15021.56
691.35	14635.37
691.49	14764.10
691.62	14782.82
691.76	14480.89
691.89	14637.71
692.03	14246.84
692.16	14150.88
692.30	14225.78
692.43	13989.38
692.57	14286.63
692.70	14406.00
692.84	14040.87
692.97	13940.23
693.11	14043.21
693.24	14097.05
693.38	13940.23
693.51	13909.80
693.65	13867.67
693.78	13518.93
693.92	13703.84
694.05	13862.99
694.19	13654.69
694.32	13408.93
694.45	13563.40
694.59	13397.23
694.72	13273.18
694.86	13460.42
694.99	13053.17
695.13	13413.61
695.26	13165.51
695.39	13064.87
695.53	13090.62
695.66	13217.01
695.80	13184.24
695.93	13238.07
696.07	13144.45
696.20	13032.10
696.33	12901.03
696.47	12938.48
696.60	12655.28
696.73	12730.17
696.87	12596.76
697.00	12755.92
697.14	12339.30
697.27	12446.97
697.40	12257.39
697.54	12409.52
697.67	12379.09
697.80	12339.30
697.94	11978.86
698.07	12180.15
698.21	12020.99
698.34	11978.86
698.47	11740.13
698.61	11777.58
698.74	11997.59
698.87	11985.88
699.01	11798.64
699.14	11742.47
699.27	11929.71
699.40	11552.88
699.54	11641.82
699.67	11538.84
699.80	11447.56
699.94	11513.10
700.07	11265.00
700.20	11265.00
700.34	11330.53
700.47	11239.25
700.60	11435.86
700.73	11246.27
700.87	11162.01
701.00	10862.43
701.13	11077.76
701.26	11140.95
701.40	11204.14
701.53	11190.10
701.66	10934.98
701.79	10923.28
701.93	10832.00
702.06	10923.28
702.19	10647.10
702.32	10326.44
702.46	10487.94
702.59	10490.28
702.72	10466.88
702.85	10284.31
702.99	10602.63
703.12	10352.19
703.25	10333.47
703.38	10551.14
703.51	10321.76
703.65	10338.15
703.78	10157.92
703.91	10080.69
704.04	10143.88
704.17	10265.59
704.31	9989.41
704.44	9966.00
704.57	9944.94
704.70	9738.97
704.83	9610.24
704.96	9734.29
705.10	9816.21
705.23	9687.48
>>>>>End Processed Spectral Data<<<<<
