SpectraSuite Data File
++++++++++++++++++++++++++++++++++++
Date: Fri Oct 18 13:58:22 GMT-05:00 2013
User: bianchi
Dark Spectrum Present: No
Reference Spectrum Present: No
Number of Sampled Component Spectra: 1
Spectrometers: USB2+H05261
Integration Time (usec): 50000 (USB2+H05261)
Spectra Averaged: 1 (USB2+H05261)
Boxcar Smoothing: 0 (USB2+H05261)
Correct for Electrical Dark: No (USB2+H05261)
Strobe/Lamp Enabled: No (USB2+H05261)
Correct for Detector Non-linearity: No (USB2+H05261)
Correct for Stray Light: No (USB2+H05261)
Number of Pixels in Processed Spectrum: 2048
>>>>>Begin Processed Spectral Data<<<<<
365.73	0.00
365.92	0.00
366.12	0.00
366.32	0.00
366.52	0.00
366.72	0.00
366.91	0.00
367.11	0.00
367.31	0.00
367.51	0.00
367.70	0.00
367.90	0.00
368.10	0.00
368.30	0.00
368.49	0.00
368.69	0.00
368.89	0.00
369.09	0.00
369.28	0.00
369.48	0.00
369.68	0.00
369.87	0.00
370.07	0.00
370.27	0.00
370.47	0.00
370.66	77.24
370.86	142.77
371.06	177.88
371.25	156.82
371.45	86.60
371.65	126.39
371.84	166.18
372.04	205.97
372.24	189.58
372.44	147.45
372.63	180.22
372.83	224.69
373.03	245.76
373.22	276.18
373.42	170.86
373.62	189.58
373.81	203.63
374.01	210.65
374.21	224.69
374.40	224.69
374.60	180.22
374.79	273.84
374.99	285.55
375.19	262.14
375.38	177.88
375.58	287.89
375.78	248.10
375.97	248.10
376.17	285.55
376.37	315.97
376.56	234.05
376.76	266.82
376.95	276.18
377.15	327.68
377.35	241.08
377.54	273.84
377.74	236.39
377.93	276.18
378.13	304.27
378.33	306.61
378.52	212.99
378.72	351.08
378.91	217.67
379.11	273.84
379.31	266.82
379.50	250.44
379.70	248.10
379.89	290.23
380.09	227.03
380.28	283.20
380.48	339.38
380.68	299.59
380.87	318.31
381.07	301.93
381.26	325.33
381.46	292.57
381.65	278.52
381.85	330.02
382.04	306.61
382.24	301.93
382.43	325.33
382.63	393.21
382.83	365.12
383.02	407.25
383.22	400.23
383.41	369.80
383.61	393.21
383.80	320.65
384.00	351.08
384.19	346.40
384.39	358.10
384.58	397.89
384.78	355.76
384.97	395.55
385.17	311.29
385.36	376.83
385.56	353.42
385.75	339.38
385.95	325.33
386.14	362.78
386.34	400.23
386.53	351.08
386.72	402.57
386.92	332.36
387.11	440.02
387.31	409.59
387.50	444.70
387.70	470.45
387.89	425.98
388.09	386.19
388.28	388.53
388.48	418.96
388.67	479.81
388.86	372.15
389.06	290.23
389.25	449.38
389.45	423.64
389.64	379.17
389.84	456.40
390.03	463.43
390.22	444.70
390.42	458.74
390.61	582.79
390.81	535.98
391.00	507.90
391.19	547.69
391.39	503.22
391.58	566.41
391.78	519.60
391.97	486.83
392.16	531.30
392.36	517.26
392.55	667.05
392.75	589.82
392.94	575.77
393.13	540.66
393.33	582.79
393.52	582.79
393.71	608.54
393.91	587.47
394.10	547.69
394.29	552.37
394.49	512.58
394.68	629.60
394.88	533.64
395.07	629.60
395.26	493.85
395.46	671.73
395.65	624.92
395.84	552.37
396.04	725.57
396.23	664.71
396.42	655.35
396.62	636.63
396.81	606.20
397.00	620.24
397.19	653.01
397.39	634.29
397.58	662.37
397.77	699.82
397.97	662.37
398.16	645.99
398.35	702.16
398.55	699.82
398.74	716.20
398.93	727.91
399.12	674.07
399.32	734.93
399.51	683.44
399.70	688.12
399.90	727.91
400.09	779.40
400.28	802.80
400.47	816.85
400.67	840.25
400.86	774.72
401.05	807.48
401.24	807.48
401.44	812.17
401.63	866.00
401.82	741.95
402.01	791.10
402.21	889.40
402.40	805.14
402.59	882.38
402.78	800.46
402.97	767.70
403.17	809.83
403.36	856.64
403.55	842.59
403.74	877.70
403.93	828.55
404.13	940.90
404.32	868.34
404.51	971.32
404.70	954.94
404.89	938.55
405.09	877.70
405.28	943.24
405.47	922.17
405.66	877.70
405.85	992.39
406.05	973.66
406.24	908.13
406.43	1039.20
406.62	1121.12
406.81	1025.15
407.00	1018.13
407.20	1004.09
407.39	1022.81
407.58	1069.62
407.77	1064.94
407.96	1153.88
408.15	1128.14
408.34	1057.92
408.54	1039.20
408.73	1069.62
408.92	1071.97
409.11	1214.74
409.30	1156.22
409.49	1207.72
409.68	1128.14
409.87	1177.29
410.07	1090.69
410.26	1268.57
410.45	1121.12
410.64	1245.16
410.83	1317.72
411.02	1158.57
411.21	1284.95
411.40	1205.38
411.59	1282.61
411.78	1165.59
411.98	1235.80
412.17	1181.97
412.36	1275.59
412.55	1364.53
412.74	1345.81
412.93	1352.83
413.12	1291.98
413.31	1348.15
413.50	1460.49
413.69	1329.42
413.88	1416.02
414.07	1472.20
414.26	1521.35
414.45	1486.24
414.64	1425.39
414.83	1526.03
415.02	1565.82
415.22	1504.96
415.41	1514.33
415.60	1636.03
415.79	1596.25
415.98	1598.59
416.17	1668.80
416.36	1544.75
416.55	1549.43
416.74	1643.06
416.93	1610.29
417.12	1708.59
417.31	1650.08
417.50	1680.50
417.69	1673.48
417.88	1727.32
418.07	1668.80
418.26	1729.66
418.45	1823.28
418.64	1748.38
418.83	1701.57
419.02	1806.89
419.21	1837.32
419.39	1764.76
419.58	1827.96
419.77	1956.69
419.96	1919.24
420.15	1781.15
420.34	1886.47
420.53	1823.28
420.72	2005.84
420.91	1799.87
421.10	2059.67
421.29	1989.46
421.48	1879.45
421.67	1860.73
421.86	1877.11
422.05	1933.28
422.24	2047.97
422.43	1956.69
422.61	2015.20
422.80	1935.62
422.99	1966.05
423.18	2010.52
423.37	2003.50
423.56	1952.01
423.75	1954.35
423.94	2064.35
424.13	1816.26
424.32	1942.64
424.50	1996.48
424.69	2092.44
424.88	2038.61
425.07	1994.14
425.26	1989.46
425.45	2003.50
425.64	2022.22
425.83	1991.80
426.01	2062.01
426.20	2015.20
426.39	2050.31
426.58	2087.76
426.77	2040.95
426.96	2148.61
427.15	2071.37
427.33	2218.83
427.52	2036.27
427.71	2148.61
427.90	2108.82
428.09	2150.95
428.28	2150.95
428.46	2092.44
428.65	2197.76
428.84	2279.68
429.03	2167.34
429.22	2108.82
429.40	2200.10
429.59	2347.56
429.78	2157.97
429.97	2167.34
430.16	2256.28
430.34	2359.26
430.53	2396.71
430.72	2228.19
430.91	2300.75
431.10	2307.77
431.28	2321.81
431.47	2471.61
431.66	2333.51
431.85	2298.41
432.03	2399.05
432.22	2558.21
432.41	2377.98
432.60	2413.09
432.79	2420.11
432.97	2480.97
433.16	2450.54
433.35	2476.29
433.54	2452.88
433.72	2537.14
433.91	2457.56
434.10	2612.04
434.28	2649.49
434.47	2495.01
434.66	2581.61
434.85	2513.74
435.03	2546.50
435.22	2530.12
435.41	2647.15
435.59	2750.13
435.78	2715.02
435.97	2820.35
436.16	2616.72
436.34	2651.83
436.53	2562.89
436.72	2773.53
436.90	2719.70
437.09	2768.85
437.28	2677.57
437.46	2698.64
437.65	2801.62
437.84	2768.85
438.02	2796.94
438.21	2771.19
438.40	2738.43
438.58	2841.41
438.77	2942.05
438.96	2841.41
439.14	2998.23
439.33	2965.46
439.52	3019.29
439.70	3007.59
439.89	2970.14
440.08	3080.14
440.26	3157.38
440.45	3047.38
440.63	3033.33
440.82	3059.08
441.01	2998.23
441.19	3171.43
441.38	3070.78
441.57	3138.66
441.75	3370.37
441.94	3405.48
442.12	3194.83
442.31	3417.18
442.50	3194.83
442.68	3286.11
442.87	3482.72
443.05	3293.13
443.24	3468.67
443.43	3258.03
443.61	3403.14
443.80	3456.97
443.98	3253.34
444.17	3232.28
444.35	3297.81
444.54	3431.23
444.73	3482.72
444.91	3447.61
445.10	3407.82
445.28	3419.52
445.47	3499.10
445.65	3499.10
445.84	3398.46
446.02	3391.44
446.21	3393.78
446.39	3412.50
446.58	3452.29
446.77	3468.67
446.95	3480.38
447.14	3424.20
447.32	3541.23
447.51	3447.61
447.69	3398.46
447.88	3574.00
448.06	3510.80
448.25	3510.80
448.43	3503.78
448.62	3548.25
448.80	3550.59
448.99	3627.83
449.17	3719.11
449.36	3538.89
449.54	3667.62
449.73	3705.07
449.91	3681.66
450.10	3555.27
450.28	3770.60
450.46	3702.73
450.65	3707.41
450.83	3815.07
451.02	3716.77
451.20	3716.77
451.39	3826.78
451.57	3829.12
451.76	3777.62
451.94	3829.12
452.13	3864.22
452.31	3831.46
452.49	3737.84
452.68	3868.91
452.86	3845.50
453.05	3871.25
453.23	3976.57
453.42	3777.62
453.60	3850.18
453.78	3772.94
453.97	4004.66
454.15	3756.56
454.34	3873.59
454.52	3885.29
454.70	4021.04
454.89	3985.93
455.07	3985.93
455.26	4032.74
455.44	4107.64
455.62	4159.13
455.81	4177.86
455.99	4308.93
456.17	4189.56
456.36	4196.58
456.54	4163.81
456.73	4245.73
456.91	4372.12
457.09	4191.90
457.28	4456.38
457.46	4248.07
457.64	4395.53
457.83	4358.08
458.01	4135.73
458.19	4259.78
458.38	4372.12
458.56	4531.28
458.74	4388.50
458.93	4379.14
459.11	4458.72
459.29	4404.89
459.48	4414.25
459.66	4571.07
459.84	4561.70
460.03	4507.87
460.21	4456.38
460.39	4603.83
460.57	4631.92
460.76	4374.46
460.94	4781.71
461.12	4671.71
461.31	4610.86
461.49	4643.62
461.67	4575.75
461.85	4725.54
462.04	4753.63
462.22	4699.80
462.40	4774.69
462.59	4753.63
462.77	4830.87
462.95	4854.27
463.13	4688.09
463.32	4840.23
463.50	4793.42
463.68	4950.23
463.86	4865.97
464.05	4896.40
464.23	4875.34
464.41	4961.94
464.59	4716.18
464.78	5142.16
464.96	4819.16
465.14	4915.12
465.32	4933.85
465.50	4973.64
465.69	4992.36
465.87	4978.32
466.05	4933.85
466.23	4814.48
466.41	5013.43
466.60	5172.58
466.78	5144.50
466.96	4952.57
467.14	5144.50
467.32	5107.05
467.51	5118.75
467.69	4891.72
467.87	5074.28
468.05	5217.05
468.23	5135.14
468.41	5043.85
468.60	5369.19
468.78	5380.89
468.96	5270.89
469.14	5315.36
469.32	5212.37
469.50	5128.11
469.69	5343.44
469.87	5441.75
470.05	5301.31
470.23	5533.03
470.41	5336.42
470.59	5465.15
470.77	5401.96
470.95	5504.94
471.14	5542.39
471.32	5343.44
471.50	5617.29
471.68	5771.76
471.86	5568.13
472.04	5598.56
472.22	5767.08
472.40	5544.73
472.58	5586.86
472.77	5661.76
472.95	5874.74
473.13	6012.84
473.31	5757.72
473.49	5736.65
473.67	5806.87
473.85	6010.50
474.03	5888.79
474.21	5975.39
474.39	6118.16
474.57	6223.48
474.75	6033.90
474.93	6186.04
475.12	6260.93
475.30	6246.89
475.48	6244.55
475.66	6211.78
475.84	6242.21
476.02	6384.98
476.20	6291.36
476.38	6389.66
476.56	6612.01
476.74	6415.41
476.92	6565.20
477.10	6565.20
477.28	6626.06
477.46	6616.69
477.64	6740.74
477.82	6766.49
478.00	6949.05
478.18	7075.44
478.36	6803.94
478.54	7000.54
478.72	7103.53
478.90	7197.15
479.08	7215.87
479.26	7091.82
479.44	7421.84
479.62	7307.15
479.80	7573.97
479.98	7475.67
480.16	7548.23
480.34	7543.55
480.52	7529.50
480.70	7456.95
480.88	7634.83
481.06	7508.44
481.24	7569.29
481.41	7644.19
481.59	7878.24
481.77	8109.96
481.95	7824.41
482.13	8109.96
482.31	8091.23
482.49	8362.73
482.67	8180.17
482.85	8449.33
483.03	8510.19
483.21	8643.60
483.39	8521.89
483.57	8557.00
483.74	8533.59
483.92	8760.63
484.10	8709.13
484.28	9032.13
484.46	8997.02
484.64	9139.79
484.82	9123.41
485.00	9235.75
485.18	9233.41
485.35	9413.63
485.53	9479.17
485.71	9528.32
485.89	9514.28
486.07	9745.99
486.25	9713.22
486.43	9617.26
486.61	9654.71
486.78	9951.96
486.96	9785.78
487.14	10054.94
487.32	10157.92
487.50	10197.71
487.68	10258.57
487.85	10230.48
488.03	10473.90
488.21	10525.39
488.39	10518.37
488.57	10555.82
488.75	10780.51
488.92	11044.99
489.10	11035.63
489.28	11110.52
489.46	11082.44
489.64	11073.07
489.81	11204.14
489.99	11494.37
490.17	11239.25
490.35	11272.02
490.53	11534.16
490.70	11524.80
490.88	11580.97
491.06	11857.15
491.24	11599.70
491.41	11932.05
491.59	11868.86
491.77	11903.96
491.95	11988.22
492.13	12098.23
492.30	12051.42
492.48	12292.49
492.66	12435.27
492.84	12294.83
493.01	12561.66
493.19	12407.18
493.37	12966.57
493.54	12744.22
493.72	12706.77
493.90	13015.72
494.08	12943.16
494.25	12959.55
494.43	12975.93
494.61	13390.20
494.79	13282.54
494.96	13429.99
495.14	13261.48
495.32	13373.82
495.49	13755.33
495.67	13614.90
495.85	13830.23
496.02	13963.64
496.20	13645.32
496.38	13762.35
496.55	13748.31
496.73	14211.73
496.91	14143.86
497.09	14349.82
497.26	14455.15
497.44	14366.21
497.62	14396.64
497.79	14607.28
497.97	14551.11
498.14	14813.25
498.32	14677.50
498.50	14869.42
498.67	14902.19
498.85	14867.08
499.03	14848.36
499.20	14904.53
499.38	15061.35
499.56	15396.04
499.73	15377.32
499.91	15386.68
500.08	15410.09
500.26	15243.91
500.44	15393.70
500.61	15597.33
500.79	15349.23
500.97	15737.76
501.14	15985.86
501.32	15597.33
501.49	15679.25
501.67	15679.25
501.84	15953.09
502.02	16032.67
502.20	16170.76
502.37	16032.67
502.55	16147.36
502.72	16435.24
502.90	16269.06
503.07	16224.59
503.25	16402.47
503.43	16233.96
503.60	16526.52
503.78	16568.65
503.95	16875.26
504.13	16510.14
504.30	16613.12
504.48	16273.74
504.65	16776.96
504.83	16872.92
505.01	17071.87
505.18	17088.25
505.36	16982.93
505.53	16774.62
505.71	17020.38
505.88	17226.34
506.06	16940.80
506.23	17270.81
506.41	17504.87
506.58	17465.08
506.76	17422.95
506.93	17425.29
507.11	17305.92
507.28	17607.85
507.46	17458.06
507.63	17736.58
507.81	17661.68
507.98	17806.80
508.16	17813.82
508.33	17944.89
508.50	17937.87
508.68	17832.54
508.85	17970.63
509.03	18115.75
509.20	18132.13
509.38	18125.11
509.55	18565.13
509.73	18338.10
509.90	18389.59
510.08	18333.42
510.25	18195.32
510.42	18473.85
510.60	18457.46
510.77	18717.26
510.95	19229.84
511.12	18733.65
511.30	18586.19
511.47	18637.69
511.64	19133.88
511.82	18745.35
511.99	18916.21
512.17	19068.34
512.34	19054.30
512.51	19005.15
512.69	19293.04
512.86	19328.14
513.04	19569.22
513.21	19257.93
513.38	19360.91
513.56	19639.44
513.73	19351.55
513.90	19620.71
514.08	19339.85
514.25	19557.52
514.43	19941.36
514.60	19824.34
514.77	19620.71
514.95	19976.47
515.12	19520.07
515.29	19833.70
515.47	19971.79
515.64	19749.44
515.81	20070.09
515.99	20428.20
516.16	20308.83
516.33	19943.70
516.51	20243.29
516.68	20121.59
516.85	20166.06
517.03	20170.74
517.20	20666.93
517.37	20688.00
517.54	20599.05
517.72	20592.03
517.89	20620.12
518.06	20695.02
518.24	20526.50
518.41	20577.99
518.58	20882.26
518.75	20922.05
518.93	21167.80
519.10	20781.62
519.27	21263.77
519.45	20662.25
519.62	20908.01
519.79	21085.89
519.96	20985.24
520.14	21387.82
520.31	20971.20
520.48	21048.44
520.65	21069.50
520.83	21331.64
521.00	21638.25
521.17	21600.80
521.34	21820.81
521.52	21675.70
521.69	21558.67
521.86	21872.31
522.03	21933.16
522.20	21921.46
522.38	21586.76
522.55	22169.55
522.72	21703.79
522.89	21846.56
523.07	22026.78
523.24	21804.43
523.41	22398.93
523.58	21762.30
523.75	22349.78
523.92	21916.78
524.10	22412.97
524.27	22054.87
524.44	21944.86
524.61	22401.27
524.78	22813.20
524.96	22373.18
525.13	22335.73
525.30	22300.62
525.47	22405.95
525.64	22604.89
525.81	22530.00
525.98	22434.03
526.16	22745.33
526.33	22611.92
526.50	23035.55
526.67	22583.83
526.84	22630.64
527.01	22810.86
527.18	23152.58
527.36	23187.69
527.53	23115.13
527.70	23534.09
527.87	23318.76
528.04	23260.24
528.21	23283.65
528.38	22993.42
528.55	23026.19
528.72	23323.44
528.89	23707.29
529.07	23112.79
529.24	23276.63
529.41	23129.17
529.58	23461.53
529.75	23309.40
529.92	23819.63
530.09	23447.49
530.26	23892.19
530.43	23688.56
530.60	23506.00
530.77	23983.47
530.94	23878.15
531.11	23573.88
531.28	23454.51
531.46	23824.31
531.63	23756.44
531.80	23908.57
531.97	23957.72
532.14	23927.30
532.31	24049.00
532.48	23915.59
532.65	24304.12
532.82	23960.06
532.99	24285.40
533.16	24060.71
533.33	24229.23
533.50	24528.81
533.67	24535.84
533.84	24041.98
534.01	24257.31
534.18	24060.71
534.35	24566.26
534.52	24334.55
534.69	24617.75
534.86	24556.90
535.03	24594.35
535.20	24470.30
535.37	24472.64
535.54	24856.49
535.71	24800.32
535.88	24664.57
536.05	24793.29
536.22	24702.01
536.38	24994.58
536.55	25202.89
536.72	25146.72
536.89	25376.09
537.06	24945.43
537.23	25259.06
537.40	25238.00
537.57	25064.80
537.74	25186.50
537.91	25298.85
538.08	25221.61
538.25	25177.14
538.42	25312.89
538.59	25249.70
538.75	24957.13
538.92	25205.23
539.09	25289.49
539.26	25158.42
539.43	25455.67
539.60	25579.71
539.77	25642.91
539.94	25453.33
540.11	25766.96
540.28	25837.17
540.44	25722.49
540.61	25364.39
540.78	25427.58
540.95	25551.63
541.12	25858.24
541.29	25935.48
541.46	25680.36
541.62	25879.30
541.79	25727.17
541.96	25582.06
542.13	25832.49
542.30	26246.77
542.47	26125.06
542.63	26089.95
542.80	26122.72
542.97	26010.37
543.14	26235.06
543.31	25989.31
543.48	26120.38
543.64	26700.83
543.81	26485.50
543.98	26672.74
544.15	26221.02
544.32	26593.17
544.48	27002.76
544.65	26256.13
544.82	26132.08
544.99	26139.10
545.16	26319.32
545.32	26792.11
545.49	26764.03
545.66	27133.83
545.83	26754.66
546.00	26759.34
546.16	26436.35
546.33	26497.20
546.50	26604.87
546.67	26630.62
546.83	26370.82
547.00	26923.18
547.17	26754.66
547.34	26822.54
547.50	26876.37
547.67	27318.73
547.84	27290.65
548.00	26995.74
548.17	27065.96
548.34	26801.47
548.51	27461.51
548.67	27145.53
548.84	27447.46
549.01	27475.55
549.18	27311.71
549.34	27115.11
549.51	27023.83
549.68	27428.74
549.84	27276.60
550.01	27087.02
550.18	27140.85
550.34	27688.54
550.51	27187.66
550.68	27936.63
550.84	27213.41
551.01	27674.49
551.18	27454.48
551.34	27459.16
551.51	27271.92
551.68	27655.77
551.84	27707.26
552.01	27793.86
552.18	27747.05
552.34	27407.67
552.51	28056.00
552.68	27737.69
552.84	27910.89
553.01	27936.63
553.18	27718.96
553.34	28128.56
553.51	27557.47
553.67	27992.81
553.84	28233.88
554.01	27995.15
554.17	27985.79
554.34	27960.04
554.51	27913.23
554.67	27754.07
554.84	27847.69
555.00	28128.56
555.17	28116.86
555.33	27852.38
555.50	27775.14
555.67	28474.96
555.83	28313.46
556.00	27803.22
556.16	28439.85
556.33	28264.31
556.50	27854.72
556.66	28797.95
556.83	28074.73
556.99	28315.80
557.16	28676.24
557.32	28606.03
557.49	28716.03
557.65	28194.09
557.82	28393.04
557.98	28278.35
558.15	28151.96
558.32	28453.89
558.48	28044.30
558.65	28627.09
558.81	28603.69
558.98	28706.67
559.14	28491.34
559.31	28556.88
559.47	28622.41
559.64	28643.48
559.80	28559.22
559.97	28390.70
560.13	28748.80
560.30	28755.82
560.46	28893.91
560.63	28701.99
560.79	28985.19
560.96	28900.94
561.12	28907.96
561.29	28531.13
561.45	28826.04
561.61	28692.63
561.78	28734.76
561.94	28996.90
562.11	29001.58
562.27	29237.97
562.44	28589.64
562.60	28615.39
562.77	29076.48
562.93	28617.73
563.10	29074.13
563.26	28896.25
563.42	29076.48
563.59	29085.84
563.75	28781.57
563.92	29074.13
564.08	28924.34
564.24	28680.92
564.41	28781.57
564.57	28959.45
564.74	29165.42
564.90	29434.58
565.07	29069.45
565.23	29212.23
565.39	28858.81
565.56	29329.25
565.72	29034.35
565.88	29102.22
566.05	29179.46
566.21	28701.99
566.38	29261.38
566.54	29324.57
566.70	29259.04
566.87	29450.96
567.03	29413.51
567.19	29408.83
567.36	29984.60
567.52	29422.87
567.68	29600.76
567.85	29053.07
568.01	29137.33
568.17	29275.42
568.34	29560.97
568.50	29362.02
568.66	29446.28
568.83	29371.38
568.99	29558.63
569.15	29308.19
569.32	29240.31
569.48	29347.98
569.64	29390.11
569.81	29462.66
569.97	29322.23
570.13	29209.89
570.30	29022.64
570.46	29551.60
570.62	29549.26
570.78	29153.71
570.95	29378.40
571.11	29406.49
571.27	29017.96
571.43	29127.97
571.60	29504.79
571.76	29387.77
571.92	29322.23
572.09	29635.86
572.25	29565.65
572.41	29467.34
572.57	29589.05
572.74	29560.97
572.90	29579.69
573.06	29214.57
573.22	29586.71
573.38	29575.01
573.55	29607.78
573.71	29273.08
573.87	29518.84
574.03	29584.37
574.20	29825.45
574.36	29535.22
574.52	29757.57
574.68	29392.45
574.84	29612.46
575.01	29865.24
575.17	29762.25
575.33	29390.11
575.49	29757.57
575.65	29610.12
575.82	29647.57
575.98	29724.80
576.14	29956.52
576.30	29528.20
576.46	29617.14
576.62	29663.95
576.79	29888.64
576.95	29680.33
577.11	29720.12
577.27	29701.40
577.43	29888.64
577.59	29998.65
577.75	29532.88
577.92	29450.96
578.08	29722.46
578.24	29558.63
578.40	29874.60
578.56	29954.18
578.72	29720.12
578.88	29909.71
579.04	29940.13
579.21	29682.67
579.37	29710.76
579.53	30094.61
579.69	29743.53
579.85	29701.40
580.01	29656.93
580.17	29883.96
580.33	29825.45
580.49	29596.07
580.65	29694.38
580.82	29986.94
580.98	29954.18
581.14	30108.65
581.30	29921.41
581.46	29715.44
581.62	29420.53
581.78	29848.85
581.94	30061.84
582.10	29975.24
582.26	29933.11
582.42	29715.44
582.58	29600.76
582.74	29717.78
582.90	30036.09
583.06	30085.25
583.22	29731.83
583.38	29694.38
583.54	29914.39
583.70	30080.56
583.86	29933.11
584.02	29816.08
584.18	30242.06
584.34	29986.94
584.50	29961.20
584.66	30185.89
584.82	30401.22
584.98	29743.53
585.14	29677.99
585.30	29820.77
585.46	29635.86
585.62	29757.57
585.78	30244.40
585.94	29652.25
586.10	29907.37
586.26	30073.54
586.42	30054.82
586.58	29944.81
586.74	29764.59
586.90	29647.57
587.06	29628.84
587.22	29956.52
587.38	29961.20
587.54	29998.65
587.70	30103.97
587.86	29886.30
588.02	30162.48
588.18	30209.29
588.34	30417.60
588.49	30232.70
588.65	30089.93
588.81	30195.25
588.97	30272.49
589.13	29652.25
589.29	30139.08
589.45	30199.93
589.61	30213.98
589.77	30136.74
589.93	30398.88
590.08	30249.08
590.24	30256.11
590.40	30572.08
590.56	30300.58
590.72	30136.74
590.88	29954.18
591.04	30239.72
591.20	30354.41
591.35	30213.98
591.51	30726.55
591.67	30223.34
591.83	30398.88
591.99	30094.61
592.15	30129.72
592.31	30164.82
592.46	30118.01
592.62	29944.81
592.78	30017.37
592.94	30122.69
593.10	30452.71
593.26	30380.15
593.41	30417.60
593.57	30419.94
593.73	30782.73
593.89	30644.63
594.05	30511.22
594.20	29839.49
594.36	30181.21
594.52	30082.91
594.68	30288.87
594.84	30288.87
594.99	30263.13
595.15	30328.66
595.31	30471.43
595.47	30401.22
595.62	30618.89
595.78	30551.01
595.94	30457.39
596.10	30286.53
596.25	30134.40
596.41	29776.30
596.57	30284.19
596.73	30178.87
596.88	30120.35
597.04	30511.22
597.20	30625.91
597.36	30527.61
597.51	30644.63
597.67	30300.58
597.83	30764.00
597.99	30345.05
598.14	30558.03
598.30	30338.02
598.46	30188.23
598.61	30286.53
598.77	30235.04
598.93	30668.04
599.09	30464.41
599.24	31037.84
599.40	30756.98
599.56	30658.68
599.71	30377.81
599.87	30366.11
600.03	30637.61
600.18	30375.47
600.34	30466.75
600.50	30621.23
600.65	30558.03
600.81	30487.82
600.97	30749.96
601.12	30621.23
601.28	30593.14
601.44	30799.11
601.59	30389.52
601.75	30672.72
601.91	30541.65
602.06	30506.54
602.22	30305.26
602.37	30071.20
602.53	30298.23
602.69	30871.67
602.84	30478.46
603.00	30558.03
603.16	30368.45
603.31	30836.56
603.47	30010.35
603.62	30508.88
603.78	30471.43
603.94	30272.49
604.09	30426.96
604.25	30565.06
604.40	30478.46
604.56	30710.17
604.71	30803.79
604.87	30424.62
605.03	30740.60
605.18	30733.57
605.34	30593.14
605.49	30366.11
605.65	30731.23
605.80	30242.06
605.96	30342.70
606.12	30094.61
606.27	30579.10
606.43	30326.32
606.58	30649.32
606.74	30742.94
606.89	30581.44
607.05	30752.30
607.20	30532.29
607.36	30335.68
607.51	30661.02
607.67	30562.72
607.82	29937.79
607.98	30143.76
608.13	30279.51
608.29	30134.40
608.44	30387.18
608.60	30323.98
608.75	30441.01
608.91	30518.25
609.06	30529.95
609.22	30377.81
609.37	30221.00
609.53	30108.65
609.68	30026.73
609.84	30118.01
609.99	29883.96
610.15	30354.41
610.30	30469.09
610.46	30054.82
610.61	30342.70
610.76	30146.10
610.92	30326.32
611.07	30265.47
611.23	29741.19
611.38	29811.40
611.54	30256.11
611.69	30232.70
611.84	29656.93
612.00	30237.38
612.15	29722.46
612.31	30043.12
612.46	29572.67
612.62	30225.68
612.77	30038.44
612.92	30462.07
613.08	29998.65
613.23	29682.67
613.39	30155.46
613.54	29968.22
613.69	30256.11
613.85	29771.61
614.00	29603.10
614.15	30036.09
614.31	29745.87
614.46	29661.61
614.62	30167.16
614.77	30052.48
614.92	30106.31
615.08	29633.52
615.23	29907.37
615.38	29687.36
615.54	29565.65
615.69	29647.57
615.84	29434.58
616.00	29544.58
616.15	29752.89
616.30	29855.87
616.46	29612.46
616.61	29785.66
616.76	30169.51
616.92	29825.45
617.07	29635.86
617.22	29855.87
617.37	29118.60
617.53	29720.12
617.68	29429.90
617.83	29582.03
617.99	29441.60
618.14	29149.03
618.29	29268.40
618.45	29441.60
618.60	29448.62
618.75	29757.57
618.90	29308.19
619.06	29385.43
619.21	29579.69
619.36	29909.71
619.51	29254.36
619.67	29139.67
619.82	29383.09
619.97	29406.49
620.12	29259.04
620.28	29170.10
620.43	29823.11
620.58	29385.43
620.73	29092.86
620.89	29621.82
621.04	29450.96
621.19	29378.40
621.34	29244.99
621.49	28931.36
621.65	29338.62
621.80	29067.11
621.95	29071.79
622.10	28828.38
622.25	28687.95
622.41	29216.91
622.56	29188.82
622.71	29102.22
622.86	28996.90
623.01	29195.84
623.16	29057.75
623.32	28849.44
623.47	28886.89
623.62	28800.29
623.77	28877.53
623.92	28905.62
624.07	28678.58
624.23	28711.35
624.38	29252.02
624.53	28903.28
624.68	29050.73
624.83	29153.71
624.98	29284.78
625.13	28741.78
625.29	28912.64
625.44	28650.50
625.59	28727.74
625.74	28453.89
625.89	28669.22
626.04	28746.46
626.19	28837.74
626.34	28533.47
626.49	28217.50
626.65	28900.94
626.80	28496.02
626.95	28669.22
627.10	28826.04
627.25	28638.80
627.40	28203.46
627.55	28084.09
627.70	28549.85
627.85	28381.34
628.00	28357.93
628.15	28496.02
628.30	28383.68
628.45	27915.57
628.60	28308.78
628.76	28545.17
628.91	28432.83
629.06	28456.23
629.21	28538.15
629.36	28254.95
629.51	28320.48
629.66	28322.82
629.81	28002.17
629.96	28203.46
630.11	27995.15
630.26	28203.46
630.41	28105.15
630.56	28306.44
630.71	28294.74
630.86	28517.09
631.01	28166.01
631.16	28025.57
631.31	28041.96
631.46	27889.82
631.61	28086.43
631.76	28163.67
631.91	27901.53
632.06	27826.63
632.21	27733.01
632.36	27992.81
632.51	27791.52
632.66	27995.15
632.81	27971.74
632.96	28077.07
633.10	27765.78
633.25	28060.68
633.40	27730.67
633.55	27852.38
633.70	27538.74
633.85	27524.70
634.00	27821.95
634.15	27623.00
634.30	27943.66
634.45	27419.38
634.60	27557.47
634.75	27342.14
634.90	27828.97
635.05	27835.99
635.19	27702.58
635.34	27983.44
635.49	27470.87
635.64	27632.36
635.79	27697.90
635.94	27428.74
636.09	27676.83
636.24	27222.77
636.39	27386.61
636.53	27386.61
636.68	27002.76
636.83	27112.77
636.98	27644.07
637.13	27398.31
637.28	27634.71
637.43	27398.31
637.57	27370.22
637.72	27466.19
637.87	27009.78
638.02	27241.50
638.17	27136.17
638.32	27388.95
638.46	27098.72
638.61	27211.07
638.76	27026.17
638.91	26712.53
639.06	26918.50
639.20	27398.31
639.35	27349.16
639.50	27302.35
639.65	27178.30
639.80	27520.02
639.94	27054.25
640.09	26881.05
640.24	27307.03
640.39	27164.26
640.54	26696.15
640.68	26948.93
640.83	27108.08
640.98	26618.91
641.13	26785.09
641.27	26932.54
641.42	26939.57
641.57	26874.03
641.72	26789.77
641.86	26785.09
642.01	26401.24
642.16	26775.73
642.31	26677.43
642.45	26984.04
642.60	26316.98
642.75	26469.12
642.90	26539.33
643.04	26354.43
643.19	26874.03
643.34	26441.03
643.48	26979.36
643.63	26551.04
643.78	26679.77
643.93	26499.55
644.07	26738.28
644.22	26834.24
644.37	26663.38
644.51	26499.55
644.66	26434.01
644.81	26560.40
644.95	26352.09
645.10	26146.12
645.25	26464.44
645.39	26553.38
645.54	26459.76
645.69	26356.77
645.83	26359.11
645.98	26759.34
646.13	26572.10
646.27	26632.96
646.42	26127.40
646.57	26661.04
646.71	26700.83
646.86	26405.92
647.00	25811.43
647.15	26202.30
647.30	26185.91
647.44	26321.66
647.59	26377.84
647.74	26263.15
647.88	26162.51
648.03	26665.72
648.17	26373.16
648.32	25972.92
648.47	26258.47
648.61	26228.04
648.76	26314.64
648.90	25830.15
649.05	25970.58
649.20	25816.11
649.34	25832.49
649.49	25635.89
649.63	25830.15
649.78	25830.15
649.92	25656.95
650.07	26237.41
650.21	25759.94
650.36	26092.29
650.51	25537.59
650.65	26036.12
650.80	25788.02
650.94	25832.49
651.09	25802.07
651.23	25926.11
651.38	25748.23
651.52	25579.71
651.67	25556.31
651.81	25579.71
651.96	25783.34
652.10	25703.76
652.25	25731.85
652.39	26143.78
652.54	25942.50
652.68	25773.98
652.83	25523.54
652.97	26115.70
653.12	25984.63
653.26	25668.66
653.41	25759.94
653.55	25792.70
653.70	25642.91
653.84	25476.73
653.99	25324.60
654.13	25823.13
654.27	25336.30
654.42	25563.33
654.56	25825.47
654.71	25720.15
654.85	25263.74
655.00	25652.27
655.14	25455.67
655.29	25345.66
655.43	25565.67
655.57	25333.96
655.72	25230.98
655.86	25329.28
656.01	25207.57
656.15	25287.15
656.30	24903.30
656.44	25109.27
656.58	24891.60
656.73	25008.62
656.87	25074.16
657.01	24786.27
657.16	25146.72
657.30	25029.69
657.45	25247.36
657.59	25303.53
657.73	25010.96
657.88	24957.13
658.02	24776.91
658.16	24805.00
658.31	25137.35
658.45	25039.05
658.60	24694.99
658.74	24692.65
658.88	24617.75
659.03	24652.86
659.17	24929.05
659.31	24924.36
659.46	24584.99
659.60	24858.83
659.74	24713.72
659.89	24851.81
660.03	24360.30
660.17	24563.92
660.32	24500.73
660.46	24617.75
660.60	24191.78
660.74	24451.58
660.89	24526.47
661.03	24390.72
661.17	24128.58
661.32	24577.97
661.46	24753.51
661.60	24177.73
661.74	24465.62
661.89	24746.48
662.03	23985.81
662.17	24088.79
662.31	24182.42
662.46	24650.52
662.60	23957.72
662.74	24070.07
662.88	23922.62
663.03	23843.04
663.17	23941.34
663.31	23805.59
663.45	23613.66
663.60	23910.91
663.74	23838.36
663.88	23742.39
664.02	23709.63
664.17	23960.06
664.31	23639.41
664.45	23688.56
664.59	23873.46
664.73	23805.59
664.88	23515.36
665.02	23358.55
665.16	23426.42
665.30	23669.84
665.44	23314.08
665.59	23173.64
665.73	23206.41
665.87	23030.87
666.01	23431.10
666.15	23426.42
666.29	23180.67
666.44	23147.90
666.58	23250.88
666.72	23285.99
666.86	23091.73
667.00	23283.65
667.14	22785.12
667.28	22906.82
667.43	23133.86
667.57	23126.83
667.71	22941.93
667.85	23164.28
667.99	22775.75
668.13	23030.87
668.27	22747.67
668.41	22981.72
668.56	22675.11
668.70	22843.63
668.84	22810.86
668.98	22789.80
669.12	22640.00
669.26	22625.96
669.40	22434.03
669.54	22712.56
669.68	22520.63
669.82	22459.78
669.96	21886.35
670.10	21869.97
670.25	22050.19
670.39	22380.20
670.53	22309.99
670.67	22188.28
670.81	22307.65
670.95	22087.64
671.09	22073.59
671.23	22349.78
671.37	22225.73
671.51	22122.74
671.65	22164.87
671.79	22024.44
671.93	22003.38
672.07	21682.72
672.21	21514.20
672.35	21514.20
672.49	21453.35
672.63	21528.25
672.77	21298.88
672.91	21507.18
673.05	21420.58
673.19	21486.12
673.33	21701.45
673.47	21296.53
673.61	21530.59
673.75	21305.90
673.89	21537.61
674.03	21298.88
674.17	21015.67
674.31	21490.80
674.45	21060.14
674.59	20966.52
674.73	21254.40
674.87	21071.84
675.01	20737.15
675.15	20943.11
675.29	20931.41
675.43	20790.98
675.56	20790.98
675.70	20795.66
675.84	20830.77
675.98	20086.48
676.12	20819.07
676.26	20671.61
676.40	20683.31
676.54	20758.21
676.68	20790.98
676.82	19985.83
676.96	20072.43
677.10	20013.92
677.23	20107.54
677.37	19953.07
677.51	20025.62
677.65	20020.94
677.79	20051.37
677.93	19946.05
678.07	19981.15
678.21	19566.88
678.34	19641.78
678.48	19613.69
678.62	19861.79
678.76	19531.77
678.90	19506.02
679.04	19548.15
679.18	19447.51
679.31	19183.03
679.45	19143.24
679.59	18920.89
679.73	19152.60
679.87	19152.60
680.00	19108.13
680.14	18944.30
680.28	19150.26
680.42	19103.45
680.56	18960.68
680.70	18965.36
680.83	19080.05
680.97	18810.89
681.11	18485.55
681.25	18934.93
681.39	18649.39
681.52	18827.27
681.66	18565.13
681.80	18221.07
681.94	18513.64
682.07	18127.45
682.21	18040.85
682.35	18111.07
682.49	18279.58
682.62	18008.08
682.76	18047.87
682.90	18026.81
683.04	17926.16
683.17	17909.78
683.31	18054.89
683.45	18043.19
683.59	17703.81
683.72	17432.31
683.86	17720.20
684.00	17582.10
684.13	18045.53
684.27	17490.82
684.41	17371.46
684.55	17282.52
684.68	17193.58
684.82	16886.97
684.96	16933.78
685.09	17102.29
685.23	16936.12
685.37	17011.01
685.50	17226.34
685.64	17076.55
685.78	17092.93
685.91	17025.06
686.05	16791.00
686.19	16851.86
686.32	16950.16
686.46	16842.50
686.60	16414.18
686.73	16528.86
686.87	16079.48
687.01	16360.34
687.14	16334.60
687.28	16273.74
687.42	16135.65
687.55	15957.77
687.69	16203.53
687.82	15887.56
687.96	16301.83
688.10	15840.75
688.23	15770.53
688.37	16053.73
688.50	15903.94
688.64	15721.38
688.78	15934.37
688.91	15496.69
689.05	15852.45
689.18	15541.16
689.32	15267.31
689.46	15180.71
689.59	15440.51
689.73	15152.63
689.86	15236.89
690.00	15477.96
690.13	14965.39
690.27	14925.60
690.41	15119.86
690.54	14951.34
690.68	15269.66
690.81	14860.06
690.95	15023.90
691.08	14890.49
691.22	14827.29
691.35	14754.74
691.49	14815.59
691.62	14604.94
691.76	14546.43
691.89	14441.11
692.03	14328.76
692.16	14216.41
692.30	14176.62
692.43	14483.24
692.57	14146.20
692.70	14270.25
692.84	14167.26
692.97	13987.04
693.11	14181.31
693.24	14223.44
693.38	13951.93
693.51	13977.68
693.65	14075.98
693.78	13870.01
693.92	13771.71
694.05	13593.83
694.19	13785.76
694.32	13668.73
694.45	13640.64
694.59	13380.84
694.72	13411.27
694.86	13277.86
694.99	13329.35
695.13	13144.45
695.26	13259.13
695.39	13167.85
695.53	13121.04
695.66	13163.17
695.80	13092.96
695.93	13121.04
696.07	13074.23
696.20	12966.57
696.33	13057.85
696.47	12784.01
696.60	12608.47
696.73	12809.75
696.87	12751.24
697.00	12669.32
697.14	12446.97
697.27	12191.85
697.40	12435.27
697.54	12374.41
697.67	12222.28
697.80	12243.34
697.94	12123.98
698.07	12161.42
698.21	12105.25
698.34	12016.31
698.47	12428.24
698.61	12044.40
698.74	11934.39
698.87	11997.59
699.01	11889.92
699.14	11948.43
699.27	11798.64
699.40	11721.40
699.54	11812.68
699.67	11543.52
699.80	11566.93
699.94	11328.19
700.07	11344.58
700.20	11297.77
700.34	11190.10
700.47	10993.50
700.60	11400.75
700.73	11414.79
700.87	11192.44
701.00	11061.37
701.13	11049.67
701.26	11295.43
701.40	11281.38
701.53	10864.77
701.66	10967.75
701.79	10839.02
701.93	11178.40
702.06	10696.25
702.19	10586.24
702.32	10689.23
702.46	10555.82
702.59	10485.60
702.72	10340.49
702.85	10291.34
702.99	10113.45
703.12	10188.35
703.25	10155.58
703.38	10410.70
703.51	10284.31
703.65	10204.74
703.78	10092.39
703.91	10188.35
704.04	10139.20
704.17	10162.61
704.31	10066.64
704.44	10026.86
704.57	9956.64
704.70	9884.08
704.83	9834.93
704.96	9575.13
705.10	9745.99
705.23	9619.60
>>>>>End Processed Spectral Data<<<<<
