SpectraSuite Data File
++++++++++++++++++++++++++++++++++++
Date: Fri Oct 18 13:58:36 GMT-05:00 2013
User: bianchi
Dark Spectrum Present: No
Reference Spectrum Present: No
Number of Sampled Component Spectra: 1
Spectrometers: USB2+H05261
Integration Time (usec): 50000 (USB2+H05261)
Spectra Averaged: 1 (USB2+H05261)
Boxcar Smoothing: 0 (USB2+H05261)
Correct for Electrical Dark: No (USB2+H05261)
Strobe/Lamp Enabled: No (USB2+H05261)
Correct for Detector Non-linearity: No (USB2+H05261)
Correct for Stray Light: No (USB2+H05261)
Number of Pixels in Processed Spectrum: 2048
>>>>>Begin Processed Spectral Data<<<<<
365.73	0.00
365.92	0.00
366.12	0.00
366.32	0.00
366.52	0.00
366.72	0.00
366.91	0.00
367.11	0.00
367.31	0.00
367.51	0.00
367.70	0.00
367.90	0.00
368.10	0.00
368.30	0.00
368.49	0.00
368.69	0.00
368.89	0.00
369.09	0.00
369.28	0.00
369.48	0.00
369.68	0.00
369.87	0.00
370.07	0.00
370.27	0.00
370.47	0.00
370.66	67.88
370.86	56.17
371.06	95.96
371.25	65.54
371.45	63.19
371.65	173.20
371.84	88.94
372.04	168.52
372.24	238.73
372.44	149.79
372.63	220.01
372.83	203.63
373.03	187.24
373.22	168.52
373.42	147.45
373.62	203.63
373.81	224.69
374.01	210.65
374.21	280.86
374.40	283.20
374.60	248.10
374.79	248.10
374.99	189.58
375.19	241.08
375.38	243.42
375.58	236.39
375.78	278.52
375.97	287.89
376.17	318.31
376.37	264.48
376.56	208.31
376.76	243.42
376.95	322.99
377.15	313.63
377.35	280.86
377.54	278.52
377.74	287.89
377.93	234.05
378.13	234.05
378.33	273.84
378.52	245.76
378.72	229.37
378.91	245.76
379.11	248.10
379.31	236.39
379.50	236.39
379.70	322.99
379.89	278.52
380.09	234.05
380.28	397.89
380.48	215.33
380.68	311.29
380.87	299.59
381.07	339.38
381.26	353.42
381.46	283.20
381.65	341.72
381.85	341.72
382.04	362.78
382.24	311.29
382.43	381.51
382.63	248.10
382.83	372.15
383.02	313.63
383.22	376.83
383.41	383.85
383.61	400.23
383.80	355.76
384.00	365.12
384.19	369.80
384.39	369.80
384.58	414.27
384.78	315.97
384.97	402.57
385.17	416.62
385.36	425.98
385.56	376.83
385.75	395.55
385.95	374.49
386.14	386.19
386.34	339.38
386.53	388.53
386.72	433.00
386.92	507.90
387.11	423.64
387.31	435.34
387.50	365.12
387.70	409.59
387.89	386.19
388.09	409.59
388.28	346.40
388.48	482.15
388.67	470.45
388.86	435.34
389.06	428.32
389.25	510.24
389.45	470.45
389.64	463.43
389.84	461.09
390.03	440.02
390.22	433.00
390.42	409.59
390.61	510.24
390.81	517.26
391.00	475.13
391.19	472.79
391.39	545.34
391.58	505.56
391.78	512.58
391.97	528.96
392.16	496.19
392.36	512.58
392.55	559.39
392.75	557.05
392.94	535.98
393.13	580.45
393.33	440.02
393.52	500.87
393.71	557.05
393.91	507.90
394.10	648.33
394.29	617.90
394.49	610.88
394.68	667.05
394.88	585.13
395.07	535.98
395.26	557.05
395.46	585.13
395.65	629.60
395.84	674.07
396.04	580.45
396.23	613.22
396.42	667.05
396.62	545.34
396.81	667.05
397.00	629.60
397.19	662.37
397.39	667.05
397.58	678.76
397.77	601.52
397.97	690.46
398.16	697.48
398.35	713.86
398.55	741.95
398.74	709.18
398.93	734.93
399.12	690.46
399.32	711.52
399.51	631.94
399.70	727.91
399.90	660.03
400.09	739.61
400.28	772.38
400.47	704.50
400.67	755.99
400.86	739.61
401.05	828.55
401.24	725.57
401.44	812.17
401.63	842.59
401.82	875.36
402.01	760.67
402.21	823.87
402.40	905.79
402.59	793.44
402.78	880.04
402.97	823.87
403.17	858.98
403.36	807.48
403.55	709.18
403.74	828.55
403.93	936.21
404.13	910.47
404.32	854.30
404.51	863.66
404.70	898.77
404.89	912.81
405.09	964.30
405.28	961.96
405.47	950.26
405.66	973.66
405.85	915.15
406.05	954.94
406.24	903.45
406.43	952.60
406.62	959.62
406.81	1022.81
407.00	1071.97
407.20	936.21
407.39	896.43
407.58	1011.11
407.77	1111.75
407.96	1025.15
408.15	1071.97
408.34	1050.90
408.54	1104.73
408.73	1050.90
408.92	1165.59
409.11	1116.44
409.30	1107.07
409.49	1100.05
409.68	1111.75
409.87	1167.93
410.07	1158.57
410.26	1167.93
410.45	1156.22
410.64	1156.22
410.83	1191.33
411.02	1160.91
411.21	1240.48
411.40	1284.95
411.59	1245.16
411.78	1224.10
411.98	1177.29
412.17	1116.44
412.36	1296.66
412.55	1310.70
412.74	1320.06
412.93	1390.28
413.12	1383.26
413.31	1526.03
413.50	1427.73
413.69	1345.81
413.88	1472.20
414.07	1366.87
414.26	1437.09
414.45	1481.56
414.64	1376.24
414.83	1570.50
415.02	1476.88
415.22	1446.45
415.41	1413.68
415.60	1444.11
415.79	1514.33
415.98	1465.18
416.17	1558.80
416.36	1533.05
416.55	1526.03
416.74	1706.25
416.93	1636.03
417.12	1563.48
417.31	1748.38
417.50	1675.82
417.69	1739.02
417.88	1694.55
418.07	1614.97
418.26	1750.72
418.45	1706.25
418.64	1746.04
418.83	1816.26
419.02	1661.78
419.21	1741.36
419.39	1844.34
419.58	1750.72
419.77	1811.57
419.96	1851.36
420.15	1937.96
420.34	1813.92
420.53	1956.69
420.72	1879.45
420.91	1839.66
421.10	1907.54
421.29	1961.37
421.48	1818.60
421.67	1902.86
421.86	2038.61
422.05	2050.31
422.24	1966.05
422.43	1879.45
422.61	1940.30
422.80	1933.28
422.99	1839.66
423.18	1942.64
423.37	2008.18
423.56	1973.07
423.75	1970.73
423.94	2005.84
424.13	1886.47
424.32	1937.96
424.50	2111.16
424.69	2167.34
424.88	2008.18
425.07	1975.41
425.26	2015.20
425.45	2033.93
425.64	2029.24
425.83	1975.41
426.01	2146.27
426.20	2045.63
426.39	2106.48
426.58	2125.21
426.77	2200.10
426.96	1982.43
427.15	2071.37
427.33	2136.91
427.52	2153.29
427.71	2040.95
427.90	2083.08
428.09	2165.00
428.28	2162.66
428.46	2214.15
428.65	2195.42
428.84	2260.96
429.03	2289.04
429.22	2179.04
429.40	2092.44
429.59	2244.57
429.78	2115.84
429.97	2040.95
430.16	2235.21
430.34	2270.32
430.53	2279.68
430.72	2239.89
430.91	2321.81
431.10	2340.54
431.28	2293.72
431.47	2349.90
431.66	2338.20
431.85	2305.43
432.03	2373.30
432.22	2324.15
432.41	2413.09
432.60	2415.43
432.79	2438.84
432.97	2457.56
433.16	2452.88
433.35	2396.71
433.54	2502.03
433.72	2410.75
433.91	2420.11
434.10	2548.84
434.28	2427.14
434.47	2473.95
434.66	2595.65
434.85	2485.65
435.03	2588.63
435.22	2513.74
435.41	2729.06
435.59	2504.37
435.78	2644.81
435.97	2640.12
436.16	2700.98
436.34	2567.57
436.53	2715.02
436.72	2736.09
436.90	2649.49
437.09	2761.83
437.28	2630.76
437.46	2686.94
437.65	2785.24
437.84	2740.77
438.02	2703.32
438.21	2719.70
438.40	2672.89
438.58	2867.16
438.77	2834.39
438.96	2778.22
439.14	2920.99
439.33	2853.11
439.52	2810.98
439.70	2906.95
439.89	2799.28
440.08	2839.07
440.26	3042.70
440.45	3073.12
440.63	2937.37
440.82	3126.96
441.01	3021.63
441.19	3187.81
441.38	3162.06
441.57	3159.72
441.75	3124.62
441.94	3089.51
442.12	3248.66
442.31	3379.73
442.50	3461.65
442.68	3232.28
442.87	3173.77
443.05	3255.69
443.24	3375.05
443.43	3304.84
443.61	3353.99
443.80	3508.46
443.98	3265.05
444.17	3204.19
444.35	3414.84
444.54	3503.78
444.73	3471.01
444.91	3456.97
445.10	3410.16
445.28	3351.65
445.47	3398.46
445.65	3435.91
445.84	3492.08
446.02	3461.65
446.21	3566.98
446.39	3466.33
446.58	3471.01
446.77	3559.95
446.95	3473.36
447.14	3595.06
447.32	3534.21
447.51	3361.01
447.69	3559.95
447.88	3424.20
448.06	3566.98
448.25	3447.61
448.43	3515.48
448.62	3471.01
448.80	3393.78
448.99	3562.30
449.17	3541.23
449.36	3555.27
449.54	3667.62
449.73	3634.85
449.91	3588.04
450.10	3840.82
450.28	3686.34
450.46	3763.58
450.65	3728.47
450.83	3744.86
451.02	3716.77
451.20	3721.45
451.39	3894.65
451.57	3728.47
451.76	3747.20
451.94	3845.50
452.13	3950.82
452.31	3857.20
452.49	3688.68
452.68	3878.27
452.86	3955.51
453.05	3892.31
453.23	3946.14
453.42	3742.52
453.60	3805.71
453.78	3859.54
453.97	3812.73
454.15	3927.42
454.34	3922.74
454.52	3995.29
454.70	3803.37
454.89	3925.08
455.07	4032.74
455.26	3918.06
455.44	4147.43
455.62	3934.44
455.81	4072.53
455.99	3911.04
456.17	4067.85
456.36	4105.30
456.54	4177.86
456.73	4208.28
456.91	4322.97
457.09	4229.35
457.28	4306.59
457.46	4203.60
457.64	4325.31
457.83	4175.52
458.01	4084.23
458.19	4304.25
458.38	4264.46
458.56	4400.21
458.74	4278.50
458.93	4287.86
459.11	4484.47
459.29	4374.46
459.48	4568.73
459.66	4407.23
459.84	4470.42
460.03	4456.38
460.21	4526.60
460.39	4372.12
460.57	4472.76
460.76	4475.10
460.94	4475.10
461.12	4603.83
461.31	4564.04
461.49	4662.35
461.67	4547.66
461.85	4566.39
462.04	4645.96
462.22	4641.28
462.40	4781.71
462.59	4638.94
462.77	4772.35
462.95	4744.27
463.13	4760.65
463.32	4751.29
463.50	4844.91
463.68	4730.22
463.86	4889.38
464.05	4610.86
464.23	4746.61
464.41	4880.02
464.59	4868.31
464.78	5041.51
464.96	4805.12
465.14	4894.06
465.32	4870.65
465.50	4985.34
465.69	4997.04
465.87	4990.02
466.05	4950.23
466.23	4903.42
466.41	4961.94
466.60	5186.63
466.78	4990.02
466.96	4961.94
467.14	4985.34
467.32	4931.51
467.51	5090.67
467.69	4985.34
467.87	5055.56
468.05	5006.41
468.23	5050.88
468.41	5146.84
468.60	5170.24
468.78	5156.20
468.96	5034.49
469.14	5198.33
469.32	5247.48
469.50	5055.56
469.69	5247.48
469.87	5453.45
470.05	5474.51
470.23	5331.74
470.41	5322.38
470.59	5504.94
470.77	5282.59
470.95	5397.28
471.14	5458.13
471.32	5385.57
471.50	5603.24
471.68	5397.28
471.86	5753.04
472.04	5636.01
472.22	5661.76
472.40	5638.35
472.58	5549.41
472.77	5741.33
472.95	5736.65
473.13	5921.56
473.31	5839.64
473.49	5804.53
473.67	5865.38
473.85	5827.93
474.03	5631.33
474.21	6113.48
474.39	6141.57
474.57	5980.07
474.75	6115.82
474.93	6153.27
475.12	6272.64
475.30	6134.54
475.48	6076.03
475.66	6211.78
475.84	6211.78
476.02	6298.38
476.20	6321.79
476.38	6225.82
476.56	6534.78
476.74	6422.43
476.92	6509.03
477.10	6553.50
477.28	6520.73
477.46	6696.27
477.64	6752.45
477.82	6691.59
478.00	7030.97
478.18	6927.99
478.36	6843.73
478.54	6920.96
478.72	7201.83
478.90	6993.52
479.08	7421.84
479.26	6958.41
479.44	7290.77
479.62	7197.15
479.80	7211.19
479.98	7286.09
480.16	7389.07
480.34	7328.22
480.52	7592.70
480.70	7665.25
480.88	7606.74
481.06	7599.72
481.24	7620.78
481.41	7826.75
481.59	7840.79
481.77	7915.69
481.95	7992.93
482.13	7969.52
482.31	7974.21
482.49	8070.17
482.67	8177.83
482.85	8292.52
483.03	8402.52
483.21	8451.67
483.39	8358.05
483.57	8435.29
483.74	8395.50
483.92	8540.61
484.10	8652.96
484.28	8758.28
484.46	8901.06
484.64	9109.36
484.82	8865.95
485.00	9088.30
485.18	9210.01
485.35	9221.71
485.53	9212.35
485.71	9235.75
485.89	9467.47
486.07	9390.23
486.25	9504.92
486.43	9745.99
486.61	9511.94
486.78	9769.40
486.96	9760.03
487.14	9987.07
487.32	9937.91
487.50	9956.64
487.68	10174.31
487.85	10249.21
488.03	10506.66
488.21	10590.92
488.39	10551.14
488.57	10567.52
488.75	10633.05
488.92	11014.56
489.10	10574.54
489.28	11000.52
489.46	10942.00
489.64	10916.26
489.81	11124.57
489.99	11311.81
490.17	11073.07
490.35	11389.05
490.53	11452.24
490.70	11417.13
490.88	11475.65
491.06	11688.64
491.24	11800.98
491.41	11660.55
491.59	11595.01
491.77	11969.50
491.95	12154.40
492.13	12159.08
492.30	12229.30
492.48	12081.85
492.66	11887.58
492.84	12149.72
493.01	12393.14
493.19	12306.54
493.37	12313.56
493.54	12493.78
493.72	12613.15
493.90	12994.65
494.08	13076.57
494.25	12985.29
494.43	12978.27
494.61	13387.86
494.79	13207.64
494.96	13128.06
495.14	13151.47
495.32	13352.76
495.49	13401.91
495.67	13303.60
495.85	13717.88
496.02	13731.92
496.20	13989.38
496.38	13565.74
496.55	13951.93
496.73	13809.16
496.91	13855.97
497.09	14057.26
497.26	14263.22
497.44	13783.41
497.62	14239.82
497.79	14530.05
497.97	14368.55
498.14	14565.15
498.32	14677.50
498.50	14366.21
498.67	14920.92
498.85	14417.70
499.03	14787.50
499.20	14988.79
499.38	14913.89
499.56	15201.78
499.73	15009.86
499.91	15161.99
500.08	15131.56
500.26	14782.82
500.44	15185.40
500.61	14977.09
500.79	15311.78
500.97	15597.33
501.14	15665.21
501.32	15882.88
501.49	15789.25
501.67	15545.84
501.84	15775.21
502.02	15927.35
502.20	15871.17
502.37	16154.38
502.55	16114.59
502.72	16187.14
502.90	15915.64
503.07	15833.72
503.25	16189.49
503.43	16262.04
503.60	16161.40
503.78	16259.70
503.95	16582.70
504.13	16283.11
504.30	16409.50
504.48	16442.26
504.65	16542.91
504.83	16802.71
505.01	16982.93
505.18	17027.40
505.36	17198.26
505.53	16781.64
505.71	17088.25
505.88	17165.49
506.06	16802.71
506.23	17144.42
506.41	17008.67
506.58	17308.26
506.76	17238.05
506.93	17301.24
507.11	17156.13
507.28	17252.09
507.46	17305.92
507.63	17539.97
507.81	17619.55
507.98	17600.83
508.16	17706.15
508.33	17530.61
508.50	17528.27
508.68	17647.64
508.85	18071.28
509.03	18183.62
509.20	17994.04
509.38	18066.60
509.55	18207.03
509.73	18129.79
509.90	18239.79
510.08	18310.01
510.25	18108.72
510.42	18382.57
510.60	18384.91
510.77	18497.25
510.95	18871.74
511.12	18590.88
511.30	18438.74
511.47	18487.89
511.64	18689.18
511.82	18885.78
511.99	18895.14
512.17	18916.21
512.34	18876.42
512.51	19124.52
512.69	18867.06
512.86	19171.33
513.04	19389.00
513.21	19262.61
513.38	19077.71
513.56	19080.05
513.73	19066.00
513.90	19087.07
514.08	19424.11
514.25	19545.81
514.43	19592.62
514.60	19775.19
514.77	19520.07
514.95	19807.95
515.12	19765.82
515.29	19618.37
515.47	19917.96
515.64	19920.30
515.81	19791.57
515.99	19960.09
516.16	20273.72
516.33	20266.70
516.51	20231.59
516.68	20009.24
516.85	20016.26
517.03	19936.68
517.20	20423.51
517.37	20379.04
517.54	20201.16
517.72	20194.14
517.89	20510.11
518.06	20552.24
518.24	20648.21
518.41	20629.48
518.58	20589.69
518.75	20465.64
518.93	20730.12
519.10	20807.36
519.27	20554.58
519.45	20964.18
519.62	21209.93
519.79	20774.60
519.96	20812.04
520.14	21165.46
520.31	20917.37
520.48	21308.24
520.65	21055.46
520.83	21076.52
521.00	21415.90
521.17	21245.04
521.34	21205.25
521.52	21357.39
521.69	21352.71
521.86	21317.60
522.03	21446.33
522.20	21652.30
522.38	21579.74
522.55	21118.65
522.72	21448.67
522.89	21603.14
523.07	21816.13
523.24	21741.24
523.41	22120.40
523.58	22043.17
523.75	21790.39
523.92	21994.01
524.10	21474.42
524.27	22073.59
524.44	22127.42
524.61	22398.93
524.78	22342.75
524.96	22394.25
525.13	22317.01
525.30	22244.45
525.47	22614.26
525.64	22307.65
525.81	22483.19
525.98	22630.64
526.16	22590.85
526.33	22679.79
526.50	22899.80
526.67	22712.56
526.84	22757.03
527.01	22710.22
527.18	22640.00
527.36	23164.28
527.53	23075.34
527.70	23307.05
527.87	23007.47
528.04	23285.99
528.21	23094.07
528.38	23026.19
528.55	22965.34
528.72	23168.96
528.89	23021.51
529.07	23080.02
529.24	23271.95
529.41	23346.84
529.58	23012.15
529.75	23227.48
529.92	23431.10
530.09	23417.06
530.26	23688.56
530.43	23283.65
530.60	23335.14
530.77	23379.61
530.94	23543.45
531.11	23578.56
531.28	23445.15
531.46	23658.14
531.63	23700.26
531.80	23845.38
531.97	23915.59
532.14	24039.64
532.31	23655.79
532.48	24311.14
532.65	24020.92
532.82	23983.47
532.99	23828.99
533.16	24203.48
533.33	24222.20
533.50	24301.78
533.67	24435.19
533.84	23789.20
534.01	24100.50
534.18	24166.03
534.35	24446.90
534.52	24065.39
534.69	24444.56
534.86	24278.38
535.03	24512.43
535.20	24222.20
535.37	24659.88
535.54	24580.31
535.71	24411.79
535.88	24540.52
536.05	24458.60
536.22	24716.06
536.38	24549.88
536.55	24746.48
536.72	24655.20
536.89	24554.56
537.06	24432.85
537.23	24783.93
537.40	25025.01
537.57	25032.03
537.74	24748.82
537.91	25315.23
538.08	24922.02
538.25	25076.50
538.42	25106.93
538.59	25008.62
538.75	24809.68
538.92	25104.59
539.09	25153.74
539.26	24980.54
539.43	25104.59
539.60	25284.81
539.77	25099.90
539.94	25558.65
540.11	25488.43
540.28	25184.16
540.44	25458.01
540.61	25500.14
540.78	25727.17
540.95	25607.80
541.12	25504.82
541.29	25689.72
541.46	25441.62
541.62	25399.49
541.79	25317.57
541.96	25071.82
542.13	25458.01
542.30	25525.88
542.47	25795.04
542.63	25818.45
542.80	25621.84
542.97	26377.84
543.14	25923.77
543.31	25935.48
543.48	26078.25
543.64	26171.87
543.81	26019.74
543.98	26684.45
544.15	26288.90
544.32	26595.51
544.48	26775.73
544.65	25867.60
544.82	26071.23
544.99	26115.70
545.16	26258.47
545.32	26157.83
545.49	26632.96
545.66	26459.76
545.83	26551.04
546.00	26504.23
546.16	26316.98
546.33	26494.86
546.50	26225.70
546.67	26993.40
546.83	26347.41
547.00	26581.46
547.17	26352.09
547.34	26731.26
547.50	26721.90
547.67	26752.32
547.84	26967.65
548.00	26625.93
548.17	27108.08
548.34	26656.36
548.51	26785.09
548.67	27040.21
548.84	27267.24
549.01	26930.20
549.18	26925.52
549.34	26955.95
549.51	26867.01
549.68	27168.94
549.84	27136.17
550.01	27339.80
550.18	26859.99
550.34	27138.51
550.51	27281.28
550.68	27330.44
550.84	27063.61
551.01	27220.43
551.18	27501.29
551.34	27122.13
551.51	27466.19
551.68	27239.15
551.84	27206.39
552.01	27398.31
552.18	27700.24
552.34	27178.30
552.51	27360.86
552.68	27791.52
552.84	27424.06
553.01	27276.60
553.18	27520.02
553.34	27892.16
553.51	27585.55
553.67	27606.62
553.84	27641.73
554.01	27784.50
554.17	27906.21
554.34	27648.75
554.51	27541.08
554.67	27845.35
554.84	27845.35
555.00	27899.19
555.17	27491.93
555.33	27744.71
555.50	28095.79
555.67	27840.67
555.83	27892.16
556.00	28060.68
556.16	28364.95
556.33	28168.35
556.50	27901.53
556.66	27920.25
556.83	27866.42
556.99	28065.36
557.16	28280.69
557.32	27999.83
557.49	28481.98
557.65	28123.88
557.82	27868.76
557.98	28088.77
558.15	28126.22
558.32	28107.49
558.48	28350.91
558.65	28416.44
558.81	28252.61
558.98	28360.27
559.14	28343.89
559.31	28046.64
559.47	28109.83
559.64	28325.16
559.80	28603.69
559.97	28662.20
560.13	28493.68
560.30	28451.55
560.46	28559.22
560.63	28474.96
560.79	28603.69
560.96	28655.18
561.12	28418.78
561.29	28163.67
561.45	28327.50
561.61	28779.23
561.78	28753.48
561.94	28907.96
562.11	28533.47
562.27	28393.04
562.44	28437.51
562.60	28360.27
562.77	28444.53
562.93	28453.89
563.10	28781.57
563.26	28833.06
563.42	28947.75
563.59	29102.22
563.75	28793.27
563.92	28982.85
564.08	28486.66
564.24	28783.91
564.41	28872.85
564.57	28472.62
564.74	28732.42
564.90	28720.71
565.07	28587.30
565.23	28992.22
565.39	29039.03
565.56	29099.88
565.72	28793.27
565.88	28748.80
566.05	28711.35
566.21	28811.99
566.38	29046.05
566.54	28898.59
566.70	28851.78
566.87	29249.67
567.03	29212.23
567.19	29488.41
567.36	29305.85
567.52	29083.50
567.68	29118.60
567.85	28823.70
568.01	28552.20
568.17	29024.98
568.34	29109.24
568.50	29266.06
568.66	29301.17
568.83	28828.38
568.99	29113.92
569.15	29160.73
569.32	28910.30
569.48	29219.25
569.64	29343.30
569.81	28842.42
569.97	29186.48
570.13	29010.94
570.30	29125.63
570.46	29436.92
570.62	28790.93
570.78	29106.90
570.95	29219.25
571.11	29149.03
571.27	29013.28
571.43	29165.42
571.60	28975.83
571.76	29589.05
571.92	29469.69
572.09	28929.02
572.25	29610.12
572.41	29481.39
572.57	29317.55
572.74	29336.27
572.90	29104.56
573.06	29387.77
573.22	28968.81
573.38	29193.50
573.55	28954.77
573.71	29827.79
573.87	29619.48
574.03	29965.88
574.20	29968.22
574.36	29071.79
574.52	28971.15
574.68	29223.93
574.84	29752.89
575.01	29535.22
575.17	29237.97
575.33	29186.48
575.49	28980.51
575.65	29268.40
575.82	29434.58
575.98	29521.18
576.14	29544.58
576.30	29408.83
576.46	29525.86
576.62	29509.47
576.79	29743.53
576.95	29085.84
577.11	29839.49
577.27	29724.80
577.43	29315.21
577.59	29591.39
577.75	29268.40
577.92	29387.77
578.08	29406.49
578.24	29174.78
578.40	29422.87
578.56	29240.31
578.72	29596.07
578.88	29715.44
579.04	29631.18
579.21	29413.51
579.37	29560.97
579.53	29340.96
579.69	29532.88
579.85	29378.40
580.01	29610.12
580.17	29399.47
580.33	29631.18
580.49	29385.43
580.65	29603.10
580.82	29687.36
580.98	29497.77
581.14	29514.16
581.30	29336.27
581.46	29677.99
581.62	29223.93
581.78	29514.16
581.94	29886.30
582.10	29207.55
582.26	29507.13
582.42	29476.71
582.58	29701.40
582.74	29259.04
582.90	29640.54
583.06	29844.17
583.22	29359.68
583.38	29652.25
583.54	29759.91
583.70	29542.24
583.86	29516.50
584.02	29259.04
584.18	29500.11
584.34	29518.84
584.50	29633.52
584.66	29961.20
584.82	29748.21
584.98	29553.94
585.14	29514.16
585.30	29710.76
585.46	29907.37
585.62	29476.71
585.78	29715.44
585.94	29631.18
586.10	29481.39
586.26	29677.99
586.42	30153.12
586.58	29766.93
586.74	29839.49
586.90	29558.63
587.06	29514.16
587.22	29783.32
587.38	29638.20
587.54	29418.19
587.70	29977.58
587.86	29853.53
588.02	29947.15
588.18	29991.62
588.34	30129.72
588.49	29575.01
588.65	29607.78
588.81	29766.93
588.97	29879.28
589.13	29699.06
589.29	29755.23
589.45	29823.11
589.61	29795.02
589.77	29991.62
589.93	29996.31
590.08	30082.91
590.24	30270.15
590.40	30052.48
590.56	30508.88
590.72	29827.79
590.88	29486.07
591.04	29530.54
591.20	30244.40
591.35	29865.24
591.51	30504.20
591.67	30281.85
591.83	30312.28
591.99	29825.45
592.15	30082.91
592.31	29825.45
592.46	29813.74
592.62	30061.84
592.78	30087.59
592.94	30085.25
593.10	30033.75
593.26	30347.39
593.41	30153.12
593.57	30113.33
593.73	29937.79
593.89	30279.51
594.05	30331.00
594.20	29895.66
594.36	29958.86
594.52	30033.75
594.68	30270.15
594.84	30066.52
594.99	29949.50
595.15	29968.22
595.31	30380.15
595.47	29890.98
595.62	29993.97
595.78	30302.92
595.94	29895.66
596.10	30178.87
596.25	30333.34
596.41	29905.02
596.57	29846.51
596.73	29919.07
596.88	30059.50
597.04	30089.93
597.20	30567.40
597.36	30244.40
597.51	30628.25
597.67	30113.33
597.83	30160.14
597.99	30338.02
598.14	30415.26
598.30	29919.07
598.46	30181.21
598.61	30352.07
598.77	30471.43
598.93	30171.85
599.09	30293.55
599.24	30644.63
599.40	30745.28
599.56	30686.76
599.71	30197.59
599.87	30277.17
600.03	30419.94
600.18	30387.18
600.34	29848.85
600.50	30015.03
600.65	30462.07
600.81	30562.72
600.97	30518.25
601.12	30274.83
601.28	30424.62
601.44	30286.53
601.59	30202.27
601.75	30302.92
601.91	30340.36
602.06	30270.15
602.22	30071.20
602.37	29989.28
602.53	30314.62
602.69	30419.94
602.84	30326.32
603.00	30824.86
603.16	30417.60
603.31	30256.11
603.47	30363.77
603.62	30036.09
603.78	30312.28
603.94	29905.02
604.09	30024.39
604.25	30162.48
604.40	30071.20
604.56	30609.53
604.71	30373.13
604.87	30047.80
605.03	30426.96
605.18	30125.04
605.34	30546.33
605.49	29790.34
605.65	29965.88
605.80	29898.00
605.96	29984.60
606.12	29848.85
606.27	30408.24
606.43	30293.55
606.58	30441.01
606.74	30230.36
606.89	30225.68
607.05	30204.61
607.20	30490.16
607.36	30230.36
607.51	30457.39
607.67	30010.35
607.82	30059.50
607.98	29979.92
608.13	29954.18
608.29	29677.99
608.44	30043.12
608.60	29748.21
608.75	30347.39
608.91	30286.53
609.06	29909.71
609.22	30394.20
609.37	29731.83
609.53	29841.83
609.68	30394.20
609.84	29827.79
609.99	29872.26
610.15	29935.45
610.30	29858.21
610.46	29956.52
610.61	30080.56
610.76	29795.02
610.92	30162.48
611.07	29991.62
611.23	29586.71
611.38	30061.84
611.54	29759.91
611.69	29635.86
611.84	29968.22
612.00	29682.67
612.15	29764.59
612.31	30008.01
612.46	29982.26
612.62	29692.04
612.77	30050.14
612.92	30012.69
613.08	29422.87
613.23	29827.79
613.39	29591.39
613.54	29441.60
613.69	29551.60
613.85	29465.00
614.00	29507.13
614.15	29804.38
614.31	29736.51
614.46	29589.05
614.62	29771.61
614.77	29790.34
614.92	29626.50
615.08	29567.99
615.23	29788.00
615.38	29579.69
615.54	29397.13
615.69	29535.22
615.84	29509.47
616.00	29558.63
616.15	29474.37
616.30	29656.93
616.46	29453.30
616.61	29579.69
616.76	29720.12
616.92	29357.34
617.07	29509.47
617.22	29406.49
617.37	28854.12
617.53	29441.60
617.68	29343.30
617.83	29240.31
617.99	29373.72
618.14	29071.79
618.29	29296.49
618.45	29324.57
618.60	29029.66
618.75	29230.95
618.90	29305.85
619.06	29408.83
619.21	29160.73
619.36	29310.53
619.51	29235.63
619.67	29048.39
619.82	28776.89
619.97	28889.23
620.12	28762.84
620.28	28996.90
620.43	28922.00
620.58	29060.09
620.73	29497.77
620.89	29214.57
621.04	29596.07
621.19	29244.99
621.34	29127.97
621.49	29003.92
621.65	29415.85
621.80	29060.09
621.95	29064.77
622.10	28793.27
622.25	28797.95
622.41	29064.77
622.56	28870.51
622.71	28788.59
622.86	28760.50
623.01	28905.62
623.16	28732.42
623.32	29010.94
623.47	28741.78
623.62	28533.47
623.77	29083.50
623.92	28711.35
624.07	28467.94
624.23	28982.85
624.38	28755.82
624.53	28631.77
624.68	28711.35
624.83	28982.85
624.98	28652.84
625.13	28716.03
625.29	28683.27
625.44	28533.47
625.59	28285.37
625.74	28240.90
625.89	28341.55
626.04	28524.11
626.19	28238.56
626.34	28294.74
626.49	28430.49
626.65	28507.72
626.80	28538.15
626.95	28348.57
627.10	28613.05
627.25	28273.67
627.40	28254.95
627.55	28304.10
627.70	28149.62
627.85	27981.10
628.00	28273.67
628.15	28023.23
628.30	28079.41
628.45	28334.53
628.60	27995.15
628.76	28290.06
628.91	28121.54
629.06	28107.49
629.21	28093.45
629.36	28336.87
629.51	27967.06
629.66	28056.00
629.81	27810.25
629.96	28095.79
630.11	28051.32
630.26	27821.95
630.41	27927.27
630.56	27899.19
630.71	28151.96
630.86	27768.12
631.01	27941.32
631.16	28056.00
631.31	27995.15
631.46	27627.68
631.61	27623.00
631.76	27779.82
631.91	28065.36
632.06	27637.05
632.21	27623.00
632.36	27700.24
632.51	27314.05
632.66	27688.54
632.81	27618.32
632.96	27578.53
633.10	27676.83
633.25	28102.81
633.40	27571.51
633.55	27550.45
633.70	27623.00
633.85	27550.45
634.00	27239.15
634.15	27363.20
634.30	27168.94
634.45	27234.47
634.60	27428.74
634.75	27201.71
634.90	27435.76
635.05	27655.77
635.19	27391.29
635.34	27578.53
635.49	27536.40
635.64	27122.13
635.79	27131.49
635.94	27094.04
636.09	27271.92
636.24	27475.55
636.39	27012.12
636.53	26883.39
636.68	27056.59
636.83	26747.64
636.98	27239.15
637.13	27274.26
637.28	27234.47
637.43	27229.79
637.57	27601.94
637.72	26988.72
637.87	27152.55
638.02	26764.03
638.17	27124.47
638.32	26932.54
638.46	26937.23
638.61	26855.31
638.76	26965.31
638.91	26902.12
639.06	27311.71
639.20	26930.20
639.35	26803.82
639.50	27194.68
639.65	27115.11
639.80	27215.75
639.94	26611.89
640.09	27150.21
640.24	27075.32
640.39	26628.27
640.54	26766.37
640.68	26490.18
640.83	26464.44
640.98	26499.55
641.13	26911.48
641.27	26988.72
641.42	26852.97
641.57	26859.99
641.72	26675.09
641.86	26494.86
642.01	26668.06
642.16	26923.18
642.31	26382.52
642.45	26778.07
642.60	26295.92
642.75	26457.42
642.90	26558.06
643.04	26347.41
643.19	26485.50
643.34	26387.20
643.48	26581.46
643.63	26457.42
643.78	26539.33
643.93	26338.05
644.07	26319.32
644.22	26583.80
644.37	26223.36
644.51	26597.85
644.66	26314.64
644.81	26286.56
644.95	26101.65
645.10	25710.78
645.25	26441.03
645.39	26197.62
645.54	26211.66
645.69	26419.97
645.83	26263.15
645.98	25982.29
646.13	26251.45
646.27	26125.06
646.42	25752.91
646.57	26246.77
646.71	26190.59
646.86	26068.89
647.00	25851.22
647.15	26218.68
647.30	25937.82
647.44	25598.44
647.59	25949.52
647.74	26092.29
647.88	25982.29
648.03	26148.46
648.17	26422.31
648.32	26190.59
648.47	25942.50
648.61	26113.36
648.76	25888.67
648.90	26061.87
649.05	25975.27
649.20	25874.62
649.34	25598.44
649.49	25495.46
649.63	25675.68
649.78	25628.87
649.92	25860.58
650.07	25804.41
650.21	25713.13
650.36	25905.05
650.51	25731.85
650.65	25912.07
650.80	26211.66
650.94	25631.21
651.09	25579.71
651.23	25593.76
651.38	25582.06
651.52	25678.02
651.67	25582.06
651.81	25776.32
651.96	25380.77
652.10	25467.37
652.25	25734.19
652.39	25766.96
652.54	25675.68
652.68	25497.80
652.83	25722.49
652.97	25467.37
653.12	25776.32
653.26	25542.27
653.41	25310.55
653.55	25385.45
653.70	25219.27
653.84	25296.51
653.99	25228.63
654.13	25582.06
654.27	24868.19
654.42	24959.47
654.56	25207.57
654.71	25469.71
654.85	25170.12
655.00	25446.30
655.14	25298.85
655.29	25277.79
655.43	25219.27
655.57	25053.09
655.72	25294.17
655.86	25120.97
656.01	25055.43
656.15	25043.73
656.30	24826.06
656.44	24709.04
656.58	24575.62
656.73	25369.07
656.87	24886.92
657.01	24690.31
657.16	24704.35
657.30	25280.13
657.45	25095.22
657.59	25186.50
657.73	24940.75
657.88	24828.40
658.02	24889.26
658.16	24439.87
658.31	24683.29
658.45	24861.17
658.60	24407.11
658.74	24432.85
658.88	24563.92
659.03	24783.93
659.17	24332.21
659.31	24648.18
659.46	24748.82
659.60	25060.12
659.74	24711.38
659.89	24580.31
660.03	24444.56
660.17	24491.37
660.32	24318.17
660.46	24348.59
660.60	24346.25
660.74	24231.57
660.89	24397.74
661.03	24151.99
661.17	23885.17
661.32	24245.61
661.46	24479.66
661.60	24339.23
661.74	24393.06
661.89	24168.37
662.03	23974.11
662.17	24025.60
662.31	23791.55
662.46	24044.32
662.60	24070.07
662.74	24053.69
662.88	23864.10
663.03	23590.26
663.17	23709.63
663.31	23627.71
663.45	23812.61
663.60	23798.57
663.74	23374.93
663.88	23683.88
664.02	23730.69
664.17	23637.07
664.31	23728.35
664.45	23473.23
664.59	23674.52
664.73	24081.77
664.88	23302.37
665.02	23126.83
665.16	23241.52
665.30	23108.11
665.44	23197.05
665.59	22740.64
665.73	23281.31
665.87	23070.66
666.01	23267.27
666.15	23293.01
666.29	23227.48
666.44	22916.19
666.58	22787.46
666.72	23110.45
666.86	23124.49
667.00	23236.84
667.14	22640.00
667.28	23173.64
667.43	22747.67
667.57	23056.62
667.71	22527.66
667.85	22593.19
667.99	22530.00
668.13	22647.02
668.27	22679.79
668.41	22703.20
668.56	22794.48
668.70	22466.80
668.84	23070.66
668.98	22595.53
669.12	22623.62
669.26	22431.69
669.40	22347.44
669.54	22342.75
669.68	22590.85
669.82	22015.08
669.96	22026.78
670.10	22050.19
670.25	22625.96
670.39	22293.60
670.53	22019.76
670.67	21998.70
670.81	22122.74
670.95	22185.94
671.09	21874.65
671.23	21991.67
671.37	22359.14
671.51	21862.94
671.65	21858.26
671.79	21689.74
671.93	21832.52
672.07	21759.96
672.21	21626.55
672.35	21640.59
672.49	21387.82
672.63	21436.97
672.77	21514.20
672.91	21462.71
673.05	21385.47
673.19	21584.42
673.33	21415.90
673.47	21436.97
673.61	21635.91
673.75	21315.26
673.89	21130.36
674.03	21331.64
674.17	21294.19
674.31	20924.39
674.45	20978.22
674.59	20835.45
674.73	21060.14
674.87	20905.66
675.01	20645.87
675.15	20865.88
675.29	20603.74
675.43	20975.88
675.56	20882.26
675.70	20734.81
675.84	20505.43
675.98	20140.31
676.12	20634.16
676.26	20931.41
676.40	20615.44
676.54	20479.69
676.68	20320.53
676.82	20006.90
676.96	20133.29
677.10	19962.43
677.23	20032.65
677.37	19857.10
677.51	19885.19
677.65	19969.45
677.79	19594.96
677.93	19613.69
678.07	19672.20
678.21	19711.99
678.34	19800.93
678.48	19627.73
678.62	19735.40
678.76	19271.97
678.90	19658.16
679.04	19290.70
679.18	19140.90
679.31	19257.93
679.45	19206.44
679.59	18717.26
679.73	19239.20
679.87	18817.91
680.00	19253.25
680.14	18665.77
680.28	18663.43
680.42	19007.49
680.56	18874.08
680.70	18602.58
680.83	18686.84
680.97	18745.35
681.11	18677.48
681.25	18504.28
681.39	18059.57
681.52	18532.36
681.66	18321.71
681.80	18405.97
681.94	18176.60
682.07	18045.53
682.21	17980.00
682.35	17762.33
682.49	17638.28
682.62	17954.25
682.76	17898.08
682.90	17851.27
683.04	17397.20
683.17	17841.90
683.31	17577.42
683.45	18036.17
683.59	17575.08
683.72	17390.18
683.86	17418.27
684.00	17455.72
684.13	17603.17
684.27	17350.39
684.41	17355.07
684.55	17041.44
684.68	16802.71
684.82	17191.23
684.96	17092.93
685.09	16938.46
685.23	16812.07
685.37	16720.79
685.50	17036.76
685.64	16924.41
685.78	16893.99
685.91	16987.61
686.05	16643.55
686.19	16744.19
686.32	16788.66
686.46	16823.77
686.60	16341.62
686.73	16376.73
686.87	16381.41
687.01	16175.44
687.14	16456.31
687.28	16079.48
687.42	16152.04
687.55	16070.12
687.69	15768.19
687.82	16027.99
687.96	15873.51
688.10	15981.18
688.23	15969.48
688.37	15754.15
688.50	15587.97
688.64	15552.86
688.78	15784.57
688.91	15838.41
689.05	15321.15
689.18	15304.76
689.32	15197.10
689.46	15316.47
689.59	15309.44
689.73	15115.18
689.86	15152.63
690.00	15035.60
690.13	15084.75
690.27	15208.80
690.41	15178.37
690.54	14888.15
690.68	14621.33
690.81	14941.98
690.95	14925.60
691.08	14860.06
691.22	14759.42
691.35	14757.08
691.49	14773.46
691.62	14644.73
691.76	14424.72
691.89	14398.98
692.03	14354.51
692.16	14204.71
692.30	13975.34
692.43	14279.61
692.57	14057.26
692.70	14373.23
692.84	14185.99
692.97	13832.57
693.11	13860.65
693.24	13940.23
693.38	13886.40
693.51	13844.27
693.65	13825.54
693.78	13640.64
693.92	13848.95
694.05	13652.34
694.19	13584.47
694.32	13575.11
694.45	13214.66
694.59	13355.10
694.72	12987.63
694.86	13514.25
694.99	12884.65
695.13	13357.44
695.26	13039.12
695.39	13186.58
695.53	12985.29
695.66	13107.00
695.80	12971.25
695.93	12868.27
696.07	13064.87
696.20	13095.30
696.33	12994.65
696.47	12847.20
696.60	12414.20
696.73	12837.84
696.87	12343.99
697.00	12531.23
697.14	12285.47
697.27	12313.56
697.40	12229.30
697.54	12121.63
697.67	12049.08
697.80	12198.87
697.94	11901.62
698.07	11859.49
698.21	12065.46
698.34	11906.31
698.47	12107.59
698.61	11889.92
698.74	12091.21
698.87	12044.40
699.01	11829.07
699.14	11873.54
699.27	11585.65
699.40	11637.14
699.54	11487.35
699.67	11314.15
699.80	11571.61
699.94	11428.84
700.07	11513.10
700.20	11124.57
700.34	11229.89
700.47	11384.37
700.60	11173.72
700.73	11040.31
700.87	10902.22
701.00	10813.28
701.13	11283.72
701.26	11040.31
701.40	11232.23
701.53	11206.48
701.66	10902.22
701.79	10876.47
701.93	10555.82
702.06	10583.90
702.19	10501.98
702.32	10663.48
702.46	10516.03
702.59	10401.34
702.72	10366.23
702.85	10296.02
702.99	10340.49
703.12	10150.90
703.25	10157.92
703.38	10300.70
703.51	10139.20
703.65	10019.83
703.78	10122.82
703.91	10209.42
704.04	10129.84
704.17	10106.43
704.31	10001.11
704.44	9713.22
704.57	9858.34
704.70	9729.61
704.83	9776.42
704.96	9612.58
705.10	9673.43
705.23	9645.35
>>>>>End Processed Spectral Data<<<<<
