SpectraSuite Data File
++++++++++++++++++++++++++++++++++++
Date: Fri Oct 18 13:57:54 GMT-05:00 2013
User: bianchi
Dark Spectrum Present: No
Reference Spectrum Present: No
Number of Sampled Component Spectra: 1
Spectrometers: USB2+H05261
Integration Time (usec): 50000 (USB2+H05261)
Spectra Averaged: 1 (USB2+H05261)
Boxcar Smoothing: 0 (USB2+H05261)
Correct for Electrical Dark: No (USB2+H05261)
Strobe/Lamp Enabled: No (USB2+H05261)
Correct for Detector Non-linearity: No (USB2+H05261)
Correct for Stray Light: No (USB2+H05261)
Number of Pixels in Processed Spectrum: 2048
>>>>>Begin Processed Spectral Data<<<<<
365.73	0.00
365.92	0.00
366.12	0.00
366.32	0.00
366.52	0.00
366.72	0.00
366.91	0.00
367.11	0.00
367.31	0.00
367.51	0.00
367.70	0.00
367.90	0.00
368.10	0.00
368.30	0.00
368.49	0.00
368.69	0.00
368.89	0.00
369.09	0.00
369.28	0.00
369.48	0.00
369.68	0.00
369.87	0.00
370.07	0.00
370.27	0.00
370.47	35.11
370.66	105.32
370.86	119.37
371.06	142.77
371.25	70.22
371.45	152.13
371.65	175.54
371.84	182.56
372.04	131.07
372.24	86.60
372.44	215.33
372.63	229.37
372.83	212.99
373.03	227.03
373.22	177.88
373.42	212.99
373.62	273.84
373.81	227.03
374.01	250.44
374.21	283.20
374.40	259.80
374.60	257.46
374.79	301.93
374.99	311.29
375.19	308.95
375.38	290.23
375.58	294.91
375.78	224.69
375.97	297.25
376.17	248.10
376.37	271.50
376.56	269.16
376.76	322.99
376.95	198.95
377.15	301.93
377.35	245.76
377.54	278.52
377.74	271.50
377.93	248.10
378.13	203.63
378.33	234.05
378.52	264.48
378.72	273.84
378.91	215.33
379.11	313.63
379.31	325.33
379.50	337.04
379.70	318.31
379.89	379.17
380.09	266.82
380.28	308.95
380.48	290.23
380.68	351.08
380.87	264.48
381.07	381.51
381.26	320.65
381.46	334.70
381.65	320.65
381.85	362.78
382.04	425.98
382.24	280.86
382.43	358.10
382.63	287.89
382.83	341.72
383.02	308.95
383.22	241.08
383.41	294.91
383.61	444.70
383.80	367.46
384.00	341.72
384.19	411.93
384.39	400.23
384.58	383.85
384.78	341.72
384.97	395.55
385.17	418.96
385.36	386.19
385.56	479.81
385.75	374.49
385.95	355.76
386.14	442.36
386.34	334.70
386.53	379.17
386.72	390.87
386.92	362.78
387.11	463.43
387.31	411.93
387.50	440.02
387.70	386.19
387.89	430.66
388.09	468.11
388.28	465.77
388.48	411.93
388.67	531.30
388.86	437.68
389.06	477.47
389.25	496.19
389.45	447.04
389.64	447.04
389.84	585.13
390.03	538.32
390.22	533.64
390.42	538.32
390.61	491.51
390.81	475.13
391.00	517.26
391.19	512.58
391.39	573.43
391.58	479.81
391.78	517.26
391.97	531.30
392.16	482.15
392.36	617.90
392.55	528.96
392.75	608.54
392.94	557.05
393.13	608.54
393.33	552.37
393.52	510.24
393.71	594.50
393.91	613.22
394.10	645.99
394.29	545.34
394.49	582.79
394.68	634.29
394.88	531.30
395.07	601.52
395.26	662.37
395.46	608.54
395.65	688.12
395.84	713.86
396.04	697.48
396.23	629.60
396.42	624.92
396.62	748.97
396.81	695.14
397.00	690.46
397.19	730.25
397.39	676.41
397.58	704.50
397.77	667.05
397.97	671.73
398.16	746.63
398.35	748.97
398.55	667.05
398.74	704.50
398.93	643.65
399.12	657.69
399.32	709.18
399.51	732.59
399.70	660.03
399.90	777.06
400.09	697.48
400.28	805.14
400.47	767.70
400.67	774.72
400.86	800.46
401.05	793.44
401.24	814.51
401.44	898.77
401.63	833.23
401.82	877.70
402.01	809.83
402.21	868.34
402.40	798.12
402.59	889.40
402.78	812.17
402.97	774.72
403.17	840.25
403.36	915.15
403.55	880.04
403.74	908.13
403.93	950.26
404.13	968.98
404.32	926.85
404.51	929.19
404.70	992.39
404.89	936.21
405.09	959.62
405.28	926.85
405.47	1004.09
405.66	1055.58
405.85	1074.31
406.05	1071.97
406.24	903.45
406.43	1064.94
406.62	1109.41
406.81	1046.22
407.00	1029.84
407.20	1004.09
407.39	1048.56
407.58	1123.46
407.77	1100.05
407.96	1097.71
408.15	1086.01
408.34	1130.48
408.54	1184.31
408.73	1090.69
408.92	1090.69
409.11	1170.27
409.30	1188.99
409.49	1174.95
409.68	1149.20
409.87	1100.05
410.07	1284.95
410.26	1188.99
410.45	1282.61
410.64	1207.72
410.83	1289.64
411.02	1291.98
411.21	1306.02
411.40	1322.40
411.59	1306.02
411.78	1313.04
411.98	1336.45
412.17	1299.00
412.36	1294.32
412.55	1329.42
412.74	1366.87
412.93	1345.81
413.12	1378.58
413.31	1472.20
413.50	1460.49
413.69	1479.22
413.88	1561.14
414.07	1448.79
414.26	1427.73
414.45	1537.73
414.64	1488.58
414.83	1439.43
415.02	1584.54
415.22	1621.99
415.41	1535.39
415.60	1502.62
415.79	1614.97
415.98	1586.88
416.17	1732.00
416.36	1671.14
416.55	1638.38
416.74	1703.91
416.93	1631.35
417.12	1755.40
417.31	1788.17
417.50	1715.61
417.69	1856.04
417.88	1844.34
418.07	1734.34
418.26	1664.12
418.45	1891.15
418.64	1863.07
418.83	1746.04
419.02	1849.02
419.21	1792.85
419.39	1923.92
419.58	1872.43
419.77	1839.66
419.96	1874.77
420.15	1980.09
420.34	1886.47
420.53	1980.09
420.72	1914.56
420.91	1930.94
421.10	2026.90
421.29	2038.61
421.48	1926.26
421.67	2076.06
421.86	2038.61
422.05	2024.56
422.24	2043.29
422.43	2015.20
422.61	2132.23
422.80	2080.74
422.99	2148.61
423.18	2073.71
423.37	2169.68
423.56	2080.74
423.75	2094.78
423.94	2001.16
424.13	1966.05
424.32	2120.53
424.50	2008.18
424.69	2141.59
424.88	2132.23
425.07	2001.16
425.26	2005.84
425.45	2029.24
425.64	2174.36
425.83	2036.27
426.01	2195.42
426.20	2094.78
426.39	2099.46
426.58	2010.52
426.77	2090.10
426.96	2146.27
427.15	2113.50
427.33	2148.61
427.52	2120.53
427.71	2134.57
427.90	2223.51
428.09	2157.97
428.28	2232.87
428.46	2256.28
428.65	2349.90
428.84	2305.43
429.03	2406.07
429.22	2305.43
429.40	2244.57
429.59	2256.28
429.78	2277.34
429.97	2153.29
430.16	2289.04
430.34	2272.66
430.53	2366.28
430.72	2434.16
430.91	2356.92
431.10	2232.87
431.28	2483.31
431.47	2551.18
431.66	2452.88
431.85	2389.69
432.03	2520.76
432.22	2497.35
432.41	2476.29
432.60	2520.76
432.79	2525.44
432.97	2527.78
433.16	2495.01
433.35	2605.02
433.54	2630.76
433.72	2562.89
433.91	2644.81
434.10	2644.81
434.28	2546.50
434.47	2576.93
434.66	2609.70
434.85	2588.63
435.03	2612.04
435.22	2708.00
435.41	2794.60
435.59	2597.99
435.78	2754.81
435.97	2708.00
436.16	2705.66
436.34	2693.96
436.53	2853.11
436.72	2808.64
436.90	2864.82
437.09	2775.88
437.28	2799.28
437.46	2712.68
437.65	3002.91
437.84	2860.13
438.02	2820.35
438.21	2911.63
438.40	2780.56
438.58	3038.02
438.77	3002.91
438.96	2984.18
439.14	2958.44
439.33	3126.96
439.52	3056.74
439.70	3222.92
439.89	3108.23
440.08	2988.86
440.26	3220.58
440.45	3089.51
440.63	3218.24
440.82	3190.15
441.01	3276.75
441.19	3103.55
441.38	3239.30
441.57	3110.57
441.75	3276.75
441.94	3304.84
442.12	3328.24
442.31	3494.42
442.50	3426.54
442.68	3435.91
442.87	3454.63
443.05	3478.04
443.24	3529.53
443.43	3473.36
443.61	3604.42
443.80	3508.46
443.98	3515.48
444.17	3370.37
444.35	3536.55
444.54	3475.70
444.73	3480.38
444.91	3557.61
445.10	3496.76
445.28	3473.36
445.47	3489.74
445.65	3461.65
445.84	3487.40
446.02	3499.10
446.21	3466.33
446.39	3597.40
446.58	3581.02
446.77	3571.66
446.95	3541.23
447.14	3581.02
447.32	3735.50
447.51	3522.51
447.69	3599.74
447.88	3665.28
448.06	3747.20
448.25	3662.94
448.43	3571.66
448.62	3651.24
448.80	3520.17
448.99	3578.68
449.17	3667.62
449.36	3796.35
449.54	3871.25
449.73	3772.94
449.91	3765.92
450.10	3824.44
450.28	3889.97
450.46	3864.22
450.65	3817.41
450.83	3815.07
451.02	4037.42
451.20	3899.33
451.39	3894.65
451.57	3875.93
451.76	3889.97
451.94	3936.78
452.13	4011.68
452.31	3974.23
452.49	4032.74
452.68	3969.55
452.86	3957.85
453.05	4077.21
453.23	4102.96
453.42	4032.74
453.60	4095.94
453.78	4102.96
453.97	4056.15
454.15	4084.23
454.34	3974.23
454.52	4119.34
454.70	4131.05
454.89	4212.96
455.07	4187.22
455.26	4217.65
455.44	4095.94
455.62	4063.17
455.81	4236.37
455.99	4210.62
456.17	4318.29
456.36	4259.78
456.54	4259.78
456.73	4329.99
456.91	4428.29
457.09	4334.67
457.28	4533.62
457.46	4297.22
457.64	4393.19
457.83	4421.27
458.01	4367.44
458.19	4498.51
458.38	4465.74
458.56	4727.88
458.74	4533.62
458.93	4449.36
459.11	4552.34
459.29	4596.81
459.48	4564.04
459.66	4524.26
459.84	4660.01
460.03	4931.51
460.21	4641.28
460.39	4819.16
460.57	4620.22
460.76	4631.92
460.94	4842.57
461.12	4709.16
461.31	4746.61
461.49	4648.30
461.67	4695.11
461.85	4931.51
462.04	4819.16
462.22	5104.71
462.40	4882.36
462.59	4919.81
462.77	4940.87
462.95	4992.36
463.13	5001.72
463.32	4980.66
463.50	5060.24
463.68	4870.65
463.86	5088.32
464.05	4917.47
464.23	4901.08
464.41	5100.03
464.59	4964.28
464.78	5039.17
464.96	5043.85
465.14	5093.01
465.32	5107.05
465.50	5060.24
465.69	5149.18
465.87	5165.56
466.05	5137.48
466.23	5109.39
466.41	5322.38
466.60	5392.59
466.78	5331.74
466.96	5277.91
467.14	5186.63
467.32	5252.16
467.51	5310.68
467.69	5245.14
467.87	5214.71
468.05	5355.15
468.23	5439.40
468.41	5284.93
468.60	5261.52
468.78	5392.59
468.96	5357.49
469.14	5460.47
469.32	5530.69
469.50	5404.30
469.69	5479.19
469.87	5582.18
470.05	5570.48
470.23	5563.45
470.41	5432.38
470.59	5692.18
470.77	5486.22
470.95	5626.65
471.14	5710.91
471.32	5654.73
471.50	5715.59
471.68	5781.12
471.86	5923.90
472.04	5837.30
472.22	6008.16
472.40	5724.95
472.58	5963.68
472.77	5846.66
472.95	6069.01
473.13	6207.10
473.31	6076.03
473.49	6073.69
473.67	6040.92
473.85	6160.29
474.03	6132.20
474.21	6312.42
474.39	6179.01
474.57	6310.08
474.75	6356.90
474.93	6375.62
475.12	6487.96
475.30	6464.56
475.48	6532.44
475.66	6490.31
475.84	6298.38
476.02	6415.41
476.20	6609.67
476.38	6738.40
476.56	6817.98
476.74	6619.04
476.92	6719.68
477.10	6743.08
477.28	6801.60
477.46	6745.42
477.64	6932.67
477.82	6988.84
478.00	7080.12
478.18	7246.30
478.36	7110.55
478.54	7274.38
478.72	7208.85
478.90	7562.27
479.08	7323.54
479.26	7585.68
479.44	7585.68
479.62	7494.40
479.80	7676.96
479.98	7625.47
480.16	7847.82
480.34	7882.92
480.52	7934.42
480.70	7908.67
480.88	7859.52
481.06	7932.08
481.24	7932.08
481.41	8063.15
481.59	8159.11
481.77	8086.55
481.95	8341.67
482.13	8264.43
482.31	8341.67
482.49	8444.65
482.67	8538.27
482.85	8706.79
483.03	8997.02
483.21	8919.78
483.39	8926.80
483.57	8772.33
483.74	9146.81
483.92	9004.04
484.10	9057.87
484.28	9128.09
484.46	9284.91
484.64	9266.18
484.82	9308.31
485.00	9266.18
485.18	9423.00
485.35	9863.02
485.53	9659.39
485.71	9734.29
485.89	9949.62
486.07	9966.00
486.25	9797.48
486.43	9909.83
486.61	10076.01
486.78	10389.64
486.96	10274.95
487.14	10590.92
487.32	10373.25
487.50	10619.01
487.68	10417.72
487.85	10511.35
488.03	10679.86
488.21	10897.53
488.39	11068.39
488.57	10871.79
488.75	11012.22
488.92	11169.04
489.10	11337.56
489.28	11220.53
489.46	11515.44
489.64	11513.10
489.81	11695.66
489.99	11503.73
490.17	11590.33
490.35	11967.16
490.53	12119.29
490.70	12123.98
490.88	12262.07
491.06	12126.32
491.24	12184.83
491.41	12212.92
491.59	12241.00
491.77	12280.79
491.95	12383.77
492.13	12383.77
492.30	12608.47
492.48	12725.49
492.66	12737.20
492.84	12552.29
493.01	13221.69
493.19	13107.00
493.37	13114.02
493.54	13020.40
493.72	13149.13
493.90	13242.75
494.08	13509.57
494.25	13500.21
494.43	13451.06
494.61	13727.24
494.79	13804.48
494.96	13685.11
495.14	13862.99
495.32	13984.70
495.49	14029.17
495.67	14059.60
495.85	14155.56
496.02	14181.31
496.20	14338.12
496.38	14583.88
496.55	14448.13
496.73	14794.53
496.91	14513.66
497.09	14813.25
497.26	14740.69
497.44	14597.92
497.62	14864.74
497.79	15311.78
497.97	15124.54
498.14	15070.71
498.32	15119.86
498.50	15257.95
498.67	15510.73
498.85	15566.90
499.03	15782.23
499.20	15587.97
499.38	15501.37
499.56	15868.83
499.73	15562.22
499.91	15847.77
500.08	16081.82
500.26	15826.70
500.44	15992.88
500.61	16161.40
500.79	15932.03
500.97	16329.92
501.14	16563.97
501.32	16599.08
501.49	16184.80
501.67	16482.05
501.84	16570.99
502.02	16414.18
502.20	16620.14
502.37	16996.97
502.55	16940.80
502.72	16791.00
502.90	16610.78
503.07	16629.51
503.25	16809.73
503.43	16882.28
503.60	17259.11
503.78	16926.75
503.95	17006.33
504.13	17254.43
504.30	17099.95
504.48	17109.32
504.65	17336.35
504.83	17233.36
505.01	18026.81
505.18	17577.42
505.36	17666.36
505.53	17420.61
505.71	17680.41
505.88	17867.65
506.06	17652.32
506.23	17809.14
506.41	17972.97
506.58	17958.93
506.76	18064.25
506.93	18188.30
507.11	18237.45
507.28	18129.79
507.46	18286.61
507.63	18476.19
507.81	18525.34
507.98	18176.60
508.16	18464.49
508.33	18427.04
508.50	18382.57
508.68	18546.40
508.85	18860.04
509.03	18565.13
509.20	19019.19
509.38	19030.90
509.55	19391.34
509.73	18941.96
509.90	19276.65
510.08	18689.18
510.25	19049.62
510.42	19133.88
510.60	19358.57
510.77	19461.55
510.95	19332.82
511.12	19234.52
511.30	19365.59
511.47	19386.66
511.64	19391.34
511.82	19791.57
511.99	19590.28
512.17	19899.23
512.34	19754.12
512.51	19896.89
512.69	19967.11
512.86	19983.49
513.04	20046.69
513.21	20058.39
513.38	20042.01
513.56	20247.97
513.73	20203.50
513.90	20266.70
514.08	20425.86
514.25	20238.61
514.43	20573.31
514.60	20498.41
514.77	20697.36
514.95	20732.47
515.12	20439.90
515.29	20250.32
515.47	20575.65
515.64	20748.85
515.81	20678.63
515.99	21057.80
516.16	21090.57
516.33	20856.51
516.51	21010.99
516.68	20978.22
516.85	20980.56
517.03	21092.91
517.20	21160.78
517.37	21467.39
517.54	21621.87
517.72	21214.62
517.89	21261.43
518.06	21352.71
518.24	21406.54
518.41	21113.97
518.58	21640.59
518.75	21607.83
518.93	21319.94
519.10	21633.57
519.27	21930.82
519.45	21551.65
519.62	21975.29
519.79	21935.50
519.96	21762.30
520.14	21806.77
520.31	21893.37
520.48	22139.13
520.65	22022.10
520.83	22097.00
521.00	22389.56
521.17	21909.75
521.34	22408.29
521.52	22511.27
521.69	22113.38
521.86	22401.27
522.03	22703.20
522.20	22583.83
522.38	22618.94
522.55	22593.19
522.72	22473.82
522.89	22815.54
523.07	22897.46
523.24	22761.71
523.41	23026.19
523.58	22796.82
523.75	23126.83
523.92	22855.33
524.10	22923.21
524.27	23136.20
524.44	23246.20
524.61	23274.29
524.78	23396.00
524.96	23335.14
525.13	23150.24
525.30	23215.77
525.47	23386.63
525.64	23405.36
525.81	23557.49
525.98	23555.15
526.16	23571.54
526.33	23779.84
526.50	23894.53
526.67	23152.58
526.84	23424.08
527.01	23793.89
527.18	23807.93
527.36	24004.53
527.53	23922.62
527.70	24364.98
527.87	23709.63
528.04	24238.59
528.21	23992.83
528.38	23962.40
528.55	24133.26
528.72	23992.83
528.89	24285.40
529.07	24147.31
529.24	24161.35
529.41	24482.00
529.58	24166.03
529.75	24163.69
529.92	24402.43
530.09	24142.63
530.26	24563.92
530.43	24390.72
530.60	24570.94
530.77	24673.93
530.94	24704.35
531.11	24926.71
531.28	24482.00
531.46	24683.29
531.63	24802.66
531.80	25083.52
531.97	24802.66
532.14	24922.02
532.31	24952.45
532.48	24783.93
532.65	25071.82
532.82	24673.93
532.99	25127.99
533.16	24931.39
533.33	24992.24
533.50	25671.00
533.67	25308.21
533.84	25362.04
534.01	25195.87
534.18	25027.35
534.35	25142.03
534.52	25322.26
534.69	25614.82
534.86	25568.01
535.03	25226.29
535.20	25291.83
535.37	25764.62
535.54	25472.05
535.71	25415.88
535.88	25453.33
536.05	26040.80
536.22	25696.74
536.38	26342.73
536.55	25858.24
536.72	25731.85
536.89	25818.45
537.06	25706.10
537.23	26522.95
537.40	25628.87
537.57	26073.57
537.74	25773.98
537.91	26209.32
538.08	26225.70
538.25	26167.19
538.42	25984.63
538.59	26237.41
538.75	26188.25
538.92	26211.66
539.09	26555.72
539.26	26384.86
539.43	26316.98
539.60	26316.98
539.77	26335.71
539.94	26092.29
540.11	26249.11
540.28	26410.60
540.44	26742.96
540.61	26581.46
540.78	26878.71
540.95	26848.29
541.12	26906.80
541.29	26775.73
541.46	27117.45
541.62	27061.27
541.79	26827.22
541.96	26410.60
542.13	26759.34
542.30	26881.05
542.47	27295.33
542.63	27030.85
542.80	26986.38
542.97	27122.13
543.14	27234.47
543.31	27225.11
543.48	27208.73
543.64	27538.74
543.81	27438.10
543.98	27730.67
544.15	27531.72
544.32	27466.19
544.48	27569.17
544.65	27470.87
544.82	27466.19
544.99	27559.81
545.16	27693.22
545.32	27487.25
545.49	28133.24
545.66	27953.02
545.83	27723.65
546.00	27676.83
546.16	28276.01
546.33	27623.00
546.50	27466.19
546.67	27599.60
546.83	27388.95
547.00	27812.59
547.17	27770.46
547.34	28072.39
547.50	28283.03
547.67	28290.06
547.84	28175.37
548.00	27990.47
548.17	28587.30
548.34	28327.50
548.51	28278.35
548.67	28446.87
548.84	28699.65
549.01	28222.18
549.18	27981.10
549.34	28334.53
549.51	28364.95
549.68	27887.48
549.84	28133.24
550.01	28582.62
550.18	28201.11
550.34	28629.43
550.51	28444.53
550.68	28802.63
550.84	28208.14
551.01	28694.97
551.18	28563.90
551.34	28577.94
551.51	28355.59
551.68	28510.07
551.84	28907.96
552.01	28884.55
552.18	28622.41
552.34	28664.54
552.51	28561.56
552.68	28830.72
552.84	29158.39
553.01	29252.02
553.18	28959.45
553.34	29095.20
553.51	28945.41
553.67	29134.99
553.84	29413.51
554.01	28840.08
554.17	28938.38
554.34	29125.63
554.51	29032.00
554.67	29172.44
554.84	29336.27
555.00	29415.85
555.17	29338.62
555.33	29193.50
555.50	28907.96
555.67	29362.02
555.83	28952.43
556.00	29369.04
556.16	29687.36
556.33	29102.22
556.50	29280.10
556.66	29642.88
556.83	29453.30
556.99	29762.25
557.16	29907.37
557.32	29855.87
557.49	29905.02
557.65	29254.36
557.82	29432.24
557.98	29380.74
558.15	29820.77
558.32	29483.73
558.48	29666.29
558.65	29963.54
558.81	30000.99
558.98	29563.31
559.14	29806.72
559.31	29818.42
559.47	29689.70
559.64	29916.73
559.80	30043.12
559.97	29851.19
560.13	29465.00
560.30	29764.59
560.46	30115.67
560.63	30118.01
560.79	30005.67
560.96	30043.12
561.12	29858.21
561.29	30331.00
561.45	30113.33
561.61	30106.31
561.78	29893.32
561.94	30206.95
562.11	30031.41
562.27	30382.49
562.44	30176.53
562.60	30157.80
562.77	30092.27
562.93	29986.94
563.10	29802.04
563.26	30045.46
563.42	30799.11
563.59	29862.90
563.75	30452.71
563.92	30258.45
564.08	30066.52
564.24	30455.05
564.41	30164.82
564.57	30010.35
564.74	30529.95
564.90	30543.99
565.07	30373.13
565.23	30225.68
565.39	30543.99
565.56	30412.92
565.72	30108.65
565.88	30270.15
566.05	29982.26
566.21	30050.14
566.38	30204.61
566.54	30551.01
566.70	30494.84
566.87	30843.58
567.03	30588.46
567.19	30806.13
567.36	30565.06
567.52	30543.99
567.68	30281.85
567.85	30424.62
568.01	30707.83
568.17	30387.18
568.34	30682.08
568.50	30916.14
568.66	30831.88
568.83	30756.98
568.99	30586.12
569.15	30593.14
569.32	30583.78
569.48	30377.81
569.64	30466.75
569.81	30773.36
569.97	30548.67
570.13	30597.82
570.30	30441.01
570.46	30958.27
570.62	30831.88
570.78	30654.00
570.95	30693.79
571.11	31065.93
571.27	30745.28
571.43	30586.12
571.60	30644.63
571.76	30621.23
571.92	31077.63
572.09	30995.71
572.25	30976.99
572.41	30969.97
572.57	31194.66
572.74	30852.94
572.90	30480.80
573.06	30976.99
573.22	30693.79
573.38	31108.06
573.55	30345.05
573.71	31189.98
573.87	30845.92
574.03	30644.63
574.20	30827.20
574.36	30644.63
574.52	31112.74
574.68	30616.55
574.84	30672.72
575.01	30759.32
575.17	31072.95
575.33	31159.55
575.49	30829.54
575.65	31386.58
575.82	31115.08
575.98	30878.69
576.14	31007.42
576.30	30986.35
576.46	30693.79
576.62	31122.10
576.79	30967.63
576.95	30766.34
577.11	30951.24
577.27	31047.21
577.43	30946.56
577.59	30941.88
577.75	31166.57
577.92	30817.83
578.08	30984.01
578.24	30588.46
578.40	31028.48
578.56	30946.56
578.72	31023.80
578.88	31285.94
579.04	31555.10
579.21	31309.35
579.37	30960.61
579.53	31145.51
579.69	31084.65
579.85	30801.45
580.01	30773.36
580.17	30558.03
580.33	31136.15
580.49	31002.74
580.65	30871.67
580.82	31192.32
580.98	31187.64
581.14	30923.16
581.30	31349.14
581.46	31178.28
581.62	30829.54
581.78	30810.81
581.94	31079.97
582.10	30934.86
582.26	31089.34
582.42	31131.47
582.58	31484.89
582.74	31264.88
582.90	31189.98
583.06	30981.67
583.22	31009.76
583.38	31325.73
583.54	30972.31
583.70	30993.37
583.86	31185.30
584.02	30888.05
584.18	31295.30
584.34	31461.48
584.50	31232.11
584.66	31290.62
584.82	31269.56
584.98	31594.89
585.14	31089.34
585.30	31292.96
585.46	31353.82
585.62	30976.99
585.78	31133.81
585.94	30794.43
586.10	31049.55
586.26	31243.81
586.42	31501.27
586.58	31337.43
586.74	31325.73
586.90	31208.70
587.06	31063.59
587.22	31033.16
587.38	30920.82
587.54	31328.07
587.70	31646.38
587.86	31646.38
588.02	31941.29
588.18	31896.82
588.34	31505.95
588.49	31395.95
588.65	31058.91
588.81	31531.70
588.97	31459.14
589.13	31470.84
589.29	31178.28
589.45	31548.08
589.61	31372.54
589.77	32095.77
589.93	31585.53
590.08	31775.11
590.24	31665.11
590.40	31756.39
590.56	32098.11
590.72	31552.76
590.88	31302.32
591.04	31637.02
591.20	31854.69
591.35	31658.09
591.51	31875.76
591.67	31697.88
591.83	32065.34
591.99	31608.93
592.15	31709.58
592.31	31367.86
592.46	31194.66
592.62	31084.65
592.78	31548.08
592.94	31468.50
593.10	31667.45
593.26	31819.58
593.41	32151.94
593.57	31777.45
593.73	31686.17
593.89	31751.71
594.05	31915.54
594.20	31770.43
594.36	31674.47
594.52	31756.39
594.68	31463.82
594.84	31494.25
594.99	31922.57
595.15	31541.06
595.31	32229.18
595.47	31854.69
595.62	31763.41
595.78	31938.95
595.94	31508.29
596.10	32023.21
596.25	31585.53
596.41	31604.25
596.57	31363.18
596.73	31887.46
596.88	31615.96
597.04	31622.98
597.20	32016.19
597.36	31929.59
597.51	32327.48
597.67	31686.17
597.83	31721.28
597.99	32041.93
598.14	31910.86
598.30	31503.61
598.46	31637.02
598.61	31278.92
598.77	31803.20
598.93	32009.17
599.09	31791.50
599.24	32451.53
599.40	32397.70
599.56	31725.96
599.71	32013.85
599.87	31754.05
600.03	31779.79
600.18	31924.91
600.34	31690.85
600.50	32196.41
600.65	32313.44
600.81	31929.59
600.97	32252.58
601.12	32254.92
601.28	32116.83
601.44	31630.00
601.59	32245.56
601.75	31838.31
601.91	32128.53
602.06	31964.70
602.22	31524.68
602.37	31826.60
602.53	31920.23
602.69	32093.43
602.84	32301.73
603.00	31819.58
603.16	31924.91
603.31	31587.87
603.47	32388.33
603.62	31400.63
603.78	32105.13
603.94	31805.54
604.09	31611.28
604.25	31934.27
604.40	31983.42
604.56	32151.94
604.71	32053.64
604.87	31950.65
605.03	32114.49
605.18	31857.03
605.34	31700.22
605.49	32023.21
605.65	31440.42
605.80	31915.54
605.96	31810.22
606.12	31819.58
606.27	32041.93
606.43	31527.02
606.58	32140.24
606.74	31721.28
606.89	32163.64
607.05	31875.76
607.20	31503.61
607.36	31969.38
607.51	32055.98
607.67	31461.48
607.82	31704.90
607.98	31814.90
608.13	31573.83
608.29	31473.18
608.44	31913.20
608.60	31910.86
608.75	32084.06
608.91	31784.48
609.06	31522.34
609.22	32018.53
609.37	31400.63
609.53	31229.77
609.68	31400.63
609.84	31494.25
609.99	31697.88
610.15	31943.63
610.30	31459.14
610.46	31353.82
610.61	31477.86
610.76	31583.19
610.92	31852.35
611.07	31686.17
611.23	31630.00
611.38	31842.99
611.54	31374.88
611.69	31571.49
611.84	31267.22
612.00	31119.76
612.15	31557.44
612.31	31555.10
612.46	31283.60
612.62	31658.09
612.77	31716.60
612.92	31302.32
613.08	31625.32
613.23	31709.58
613.39	31351.48
613.54	31283.60
613.69	30951.24
613.85	31213.38
614.00	31124.44
614.15	31211.04
614.31	31285.94
614.46	31414.67
614.62	31618.30
614.77	30972.31
614.92	31278.92
615.08	31419.35
615.23	31402.97
615.38	30911.46
615.54	31140.83
615.69	31206.36
615.84	31108.06
616.00	31288.28
616.15	31461.48
616.30	31260.20
616.46	31271.90
616.61	31269.56
616.76	31021.46
616.92	30878.69
617.07	31344.45
617.22	31260.20
617.37	30810.81
617.53	30646.97
617.68	31075.29
617.83	31002.74
617.99	30604.84
618.14	30719.53
618.29	31206.36
618.45	31087.00
618.60	31126.78
618.75	30958.27
618.90	30700.81
619.06	31051.89
619.21	30764.00
619.36	31042.53
619.51	30419.94
619.67	30443.35
619.82	30590.80
619.97	30892.73
620.12	30410.58
620.28	30263.13
620.43	30820.17
620.58	30909.11
620.73	30555.69
620.89	31101.04
621.04	30724.21
621.19	30548.67
621.34	30927.84
621.49	30438.67
621.65	30504.20
621.80	30782.73
621.95	30298.23
622.10	30431.65
622.25	30553.35
622.41	30735.92
622.56	30312.28
622.71	30906.77
622.86	30579.10
623.01	30450.37
623.16	30331.00
623.32	30305.26
623.47	30466.75
623.62	30267.81
623.77	30150.78
623.92	30099.29
624.07	29982.26
624.23	30431.65
624.38	30235.04
624.53	30581.44
624.68	30569.74
624.83	30265.47
624.98	30422.28
625.13	30066.52
625.29	30333.34
625.44	30490.16
625.59	30192.91
625.74	30232.70
625.89	29788.00
626.04	29874.60
626.19	30125.04
626.34	29886.30
626.49	30221.00
626.65	29790.34
626.80	30085.25
626.95	30192.91
627.10	30228.02
627.25	30080.56
627.40	29813.74
627.55	29670.97
627.70	29762.25
627.85	29785.66
628.00	29666.29
628.15	29741.19
628.30	30054.82
628.45	29514.16
628.60	29612.46
628.76	29591.39
628.91	29886.30
629.06	29659.27
629.21	30096.95
629.36	29717.78
629.51	29579.69
629.66	29692.04
629.81	29476.71
629.96	29572.67
630.11	29460.32
630.26	29390.11
630.41	29172.44
630.56	29443.94
630.71	29539.90
630.86	29336.27
631.01	29493.09
631.16	29750.55
631.31	29347.98
631.46	29139.67
631.61	29488.41
631.76	29488.41
631.91	29364.36
632.06	29184.14
632.21	29446.28
632.36	29376.06
632.51	29118.60
632.66	29132.65
632.81	28947.75
632.96	29336.27
633.10	29542.24
633.25	29205.20
633.40	29207.55
633.55	29495.43
633.70	29146.69
633.85	28734.76
634.00	29252.02
634.15	28465.60
634.30	29221.59
634.45	28833.06
634.60	29055.41
634.75	28854.12
634.90	29064.77
635.05	29123.29
635.19	29184.14
635.34	29425.22
635.49	29177.12
635.64	29441.60
635.79	29071.79
635.94	29006.26
636.09	28929.02
636.24	28659.86
636.39	28283.03
636.53	28940.72
636.68	28734.76
636.83	29088.18
636.98	28776.89
637.13	28992.22
637.28	29078.82
637.43	29109.24
637.57	28793.27
637.72	28762.84
637.87	28496.02
638.02	28507.72
638.17	28613.05
638.32	28575.60
638.46	28540.49
638.61	28369.63
638.76	28046.64
638.91	28360.27
639.06	28432.83
639.20	28847.10
639.35	28547.51
639.50	28926.68
639.65	28723.05
639.80	28390.70
639.94	28339.21
640.09	28184.73
640.24	28247.93
640.39	28472.62
640.54	28374.31
640.68	28203.46
640.83	28034.94
640.98	27969.40
641.13	27859.40
641.27	28292.40
641.42	28086.43
641.57	28280.69
641.72	28514.75
641.86	28217.50
642.01	28006.85
642.16	27953.02
642.31	28093.45
642.45	27754.07
642.60	27971.74
642.75	27812.59
642.90	28060.68
643.04	27641.73
643.19	27892.16
643.34	27988.13
643.48	28158.99
643.63	27999.83
643.78	27995.15
643.93	28168.35
644.07	27702.58
644.22	27920.25
644.37	27922.59
644.51	27559.81
644.66	28133.24
644.81	27805.56
644.95	28020.89
645.10	27686.20
645.25	27814.93
645.39	27718.96
645.54	27798.54
645.69	27833.65
645.83	27892.16
645.98	27857.06
646.13	27882.80
646.27	27917.91
646.42	27646.41
646.57	27555.13
646.71	27463.85
646.86	27414.69
647.00	27538.74
647.15	27669.81
647.30	27615.98
647.44	27168.94
647.59	27637.05
647.74	27271.92
647.88	27814.93
648.03	27999.83
648.17	27620.66
648.32	27749.39
648.47	27807.90
648.61	27676.83
648.76	27688.54
648.90	27569.17
649.05	27452.14
649.20	27323.41
649.34	27190.00
649.49	27271.92
649.63	27218.09
649.78	27424.06
649.92	27239.15
650.07	27646.41
650.21	27391.29
650.36	27417.04
650.51	27290.65
650.65	27419.38
650.80	27213.41
650.94	27012.12
651.09	27161.92
651.23	26923.18
651.38	26981.70
651.52	27122.13
651.67	27260.22
651.81	27213.41
651.96	26864.67
652.10	26967.65
652.25	26827.22
652.39	27229.79
652.54	27124.47
652.68	26780.41
652.83	26918.50
652.97	27208.73
653.12	26766.37
653.26	26871.69
653.41	26874.03
653.55	26515.93
653.70	26724.24
653.84	26988.72
653.99	26867.01
654.13	26588.49
654.27	26529.97
654.42	26518.27
654.56	26859.99
654.71	26771.05
654.85	26766.37
655.00	26831.90
655.14	26595.51
655.29	26487.84
655.43	26925.52
655.57	26644.66
655.72	26628.27
655.86	26623.59
656.01	26747.64
656.15	26333.37
656.30	26359.11
656.44	26501.89
656.58	26625.93
656.73	26532.31
656.87	26621.25
657.01	26637.64
657.16	26459.76
657.30	26492.52
657.45	26478.48
657.59	26438.69
657.73	26286.56
657.88	26111.02
658.02	26546.36
658.16	26244.43
658.31	26478.48
658.45	26398.90
658.60	25958.88
658.74	26120.38
658.88	26057.18
659.03	25905.05
659.17	26319.32
659.31	26160.17
659.46	26375.50
659.60	26658.70
659.74	26036.12
659.89	25968.24
660.03	25912.07
660.17	25675.68
660.32	25748.23
660.46	25785.68
660.60	25694.40
660.74	25769.30
660.89	25785.68
661.03	25558.65
661.17	25804.41
661.32	25472.05
661.46	25956.54
661.60	25883.98
661.74	25600.78
661.89	25914.41
662.03	25631.21
662.17	25474.39
662.31	25450.99
662.46	25811.43
662.60	25359.70
662.74	25355.02
662.88	24989.90
663.03	25291.83
663.17	25212.25
663.31	25120.97
663.45	24847.13
663.60	24931.39
663.74	25273.10
663.88	25310.55
664.02	25046.07
664.17	25238.00
664.31	25081.18
664.45	24816.70
664.59	24840.11
664.73	24989.90
664.88	24666.91
665.02	24709.04
665.16	24552.22
665.30	24692.65
665.44	24676.27
665.59	24329.87
665.73	24587.33
665.87	24474.98
666.01	24835.42
666.15	24538.18
666.29	24973.52
666.44	24833.08
666.58	24538.18
666.72	24346.25
666.86	24582.65
667.00	24615.41
667.14	24386.04
667.28	24449.24
667.43	23903.89
667.57	24283.06
667.71	23978.79
667.85	24453.92
667.99	23955.38
668.13	24109.86
668.27	24006.87
668.41	24163.69
668.56	23697.92
668.70	23655.79
668.84	24098.16
668.98	23934.32
669.12	24023.26
669.26	23950.70
669.40	23747.08
669.54	23735.37
669.68	23630.05
669.82	23506.00
669.96	23339.82
670.10	23211.09
670.25	23426.42
670.39	23487.28
670.53	23538.77
670.67	23407.70
670.81	23353.87
670.95	23543.45
671.09	23400.68
671.23	23330.46
671.37	23243.86
671.51	23321.10
671.65	23309.40
671.79	23243.86
671.93	22895.12
672.07	23477.91
672.21	22998.10
672.35	23082.36
672.49	22705.54
672.63	22904.48
672.77	22799.16
672.91	22665.75
673.05	22714.90
673.19	22677.45
673.33	22546.38
673.47	22530.00
673.61	22455.10
673.75	22534.68
673.89	22572.13
674.03	22738.30
674.17	22412.97
674.31	22513.61
674.45	22508.93
674.59	22525.32
674.73	22380.20
674.87	22272.54
675.01	22022.10
675.15	22150.83
675.29	22073.59
675.43	22333.39
675.56	22522.98
675.70	22005.72
675.84	22185.94
675.98	21432.29
676.12	22010.40
676.26	22284.24
676.40	21891.03
676.54	21874.65
676.68	21642.93
676.82	21144.40
676.96	21741.24
677.10	21195.89
677.23	21198.23
677.37	21249.72
677.51	21193.55
677.65	21249.72
677.79	21130.36
677.93	20992.26
678.07	21120.99
678.21	20882.26
678.34	20992.26
678.48	20552.24
678.62	21043.76
678.76	20952.48
678.90	20727.78
679.04	20353.30
679.18	20460.96
679.31	20154.35
679.45	20390.75
679.59	20032.65
679.73	20357.98
679.87	20034.99
680.00	20196.48
680.14	20114.56
680.28	20067.75
680.42	19625.39
680.56	20107.54
680.70	20070.09
680.83	19922.64
680.97	19971.79
681.11	19845.40
681.25	19520.07
681.39	19487.30
681.52	19564.54
681.66	19466.24
681.80	19112.81
681.94	19435.81
682.07	19510.71
682.21	19506.02
682.35	19152.60
682.49	19264.95
682.62	18869.40
682.76	19035.58
682.90	19290.70
683.04	18932.59
683.17	19014.51
683.31	18864.72
683.45	18913.87
683.59	18785.14
683.72	18740.67
683.86	18890.46
684.00	18651.73
684.13	18562.79
684.27	18312.35
684.41	17994.04
684.55	18148.51
684.68	18162.56
684.82	18054.89
684.96	17956.59
685.09	18029.15
685.23	18122.77
685.37	18207.03
685.50	17989.36
685.64	18155.54
685.78	18071.28
685.91	17968.29
686.05	17748.28
686.19	17617.21
686.32	17813.82
686.46	17352.73
686.60	17507.21
686.73	17523.59
686.87	17216.98
687.01	17256.77
687.14	17254.43
687.28	17280.18
687.42	17214.64
687.55	17083.57
687.69	17343.37
687.82	17214.64
687.96	17139.74
688.10	17027.40
688.23	16594.40
688.37	16748.87
688.50	16542.91
688.64	16783.98
688.78	16685.68
688.91	16648.23
689.05	16826.11
689.18	16379.07
689.32	16177.78
689.46	16297.15
689.59	16259.70
689.73	16252.68
689.86	15920.32
690.00	16077.14
690.13	15934.37
690.27	15992.88
690.41	16102.89
690.54	16140.33
690.68	15831.38
690.81	15716.70
690.95	15602.01
691.08	16018.63
691.22	15641.80
691.35	15494.35
691.49	15454.56
691.62	15618.39
691.76	15405.41
691.89	15349.23
692.03	15382.00
692.16	15054.33
692.30	15051.99
692.43	14977.09
692.57	15129.22
692.70	15161.99
692.84	14885.81
692.97	14782.82
693.11	14752.40
693.24	14717.29
693.38	14733.67
693.51	14841.34
693.65	14569.83
693.78	14712.61
693.92	14668.14
694.05	14628.35
694.19	14387.27
694.32	14185.99
694.45	14457.49
694.59	14335.78
694.72	14204.71
694.86	14178.97
694.99	13818.52
695.13	13930.87
695.26	13982.36
695.39	13757.67
695.53	13774.05
695.66	13809.16
695.80	13727.24
695.93	13949.59
696.07	13872.36
696.20	13867.67
696.33	13701.50
696.47	13558.72
696.60	13408.93
696.73	13664.05
696.87	13226.37
697.00	12936.14
697.14	13139.77
697.27	12802.73
697.40	13090.62
697.54	13217.01
697.67	12931.46
697.80	12919.76
697.94	12716.13
698.07	12732.51
698.21	12444.63
698.34	12765.28
698.47	12699.75
698.61	12690.38
698.74	12856.56
698.87	12662.30
699.01	12760.60
699.14	12475.06
699.27	12189.51
699.40	12208.23
699.54	12248.02
699.67	12259.73
699.80	12276.11
699.94	12257.39
700.07	12032.69
700.20	12086.53
700.34	12039.72
700.47	11941.41
700.60	11754.17
700.73	11943.75
700.87	11922.69
701.00	11922.69
701.13	11861.84
701.26	11672.25
701.40	11580.97
701.53	11665.23
701.66	11927.37
701.79	11510.75
701.93	11377.34
702.06	11377.34
702.19	11101.16
702.32	11246.27
702.46	10920.94
702.59	11082.44
702.72	11129.25
702.85	11049.67
702.99	11000.52
703.12	10918.60
703.25	10834.34
703.38	10967.75
703.51	11133.93
703.65	10778.17
703.78	10808.59
703.91	10789.87
704.04	10623.69
704.17	10979.45
704.31	10441.13
704.44	10457.51
704.57	10616.67
704.70	10464.54
704.83	10143.88
704.96	10429.43
705.10	10230.48
705.23	10300.70
>>>>>End Processed Spectral Data<<<<<
