SpectraSuite Data File
++++++++++++++++++++++++++++++++++++
Date: Fri Oct 18 13:58:40 GMT-05:00 2013
User: bianchi
Dark Spectrum Present: No
Reference Spectrum Present: No
Number of Sampled Component Spectra: 1
Spectrometers: USB2+H05261
Integration Time (usec): 50000 (USB2+H05261)
Spectra Averaged: 1 (USB2+H05261)
Boxcar Smoothing: 0 (USB2+H05261)
Correct for Electrical Dark: No (USB2+H05261)
Strobe/Lamp Enabled: No (USB2+H05261)
Correct for Detector Non-linearity: No (USB2+H05261)
Correct for Stray Light: No (USB2+H05261)
Number of Pixels in Processed Spectrum: 2048
>>>>>Begin Processed Spectral Data<<<<<
365.73	0.00
365.92	0.00
366.12	0.00
366.32	0.00
366.52	0.00
366.72	0.00
366.91	0.00
367.11	0.00
367.31	0.00
367.51	0.00
367.70	0.00
367.90	0.00
368.10	0.00
368.30	0.00
368.49	0.00
368.69	0.00
368.89	0.00
369.09	0.00
369.28	0.00
369.48	0.00
369.68	0.00
369.87	0.00
370.07	0.00
370.27	0.00
370.47	0.00
370.66	35.11
370.86	91.28
371.06	217.67
371.25	147.45
371.45	147.45
371.65	205.97
371.84	149.79
372.04	149.79
372.24	184.90
372.44	205.97
372.63	140.43
372.83	238.73
373.03	126.39
373.22	276.18
373.42	217.67
373.62	236.39
373.81	140.43
374.01	257.46
374.21	255.12
374.40	177.88
374.60	215.33
374.79	292.57
374.99	266.82
375.19	154.48
375.38	170.86
375.58	383.85
375.78	306.61
375.97	203.63
376.17	255.12
376.37	306.61
376.56	294.91
376.76	229.37
376.95	285.55
377.15	280.86
377.35	189.58
377.54	191.92
377.74	252.78
377.93	245.76
378.13	276.18
378.33	250.44
378.52	262.14
378.72	245.76
378.91	187.24
379.11	259.80
379.31	252.78
379.50	259.80
379.70	304.27
379.89	322.99
380.09	243.42
380.28	290.23
380.48	294.91
380.68	250.44
380.87	294.91
381.07	280.86
381.26	409.59
381.46	346.40
381.65	262.14
381.85	322.99
382.04	320.65
382.24	292.57
382.43	301.93
382.63	315.97
382.83	376.83
383.02	330.02
383.22	351.08
383.41	278.52
383.61	308.95
383.80	423.64
384.00	362.78
384.19	337.04
384.39	416.62
384.58	430.66
384.78	407.25
384.97	337.04
385.17	388.53
385.36	348.74
385.56	444.70
385.75	388.53
385.95	365.12
386.14	386.19
386.34	344.06
386.53	360.44
386.72	454.06
386.92	409.59
387.11	456.40
387.31	376.83
387.50	414.27
387.70	400.23
387.89	458.74
388.09	475.13
388.28	451.72
388.48	477.47
388.67	479.81
388.86	428.32
389.06	372.15
389.25	472.79
389.45	433.00
389.64	468.11
389.84	435.34
390.03	465.77
390.22	498.53
390.42	479.81
390.61	477.47
390.81	486.83
391.00	500.87
391.19	521.94
391.39	395.55
391.58	510.24
391.78	496.19
391.97	557.05
392.16	580.45
392.36	547.69
392.55	521.94
392.75	545.34
392.94	526.62
393.13	500.87
393.33	528.96
393.52	615.56
393.71	634.29
393.91	538.32
394.10	503.22
394.29	594.50
394.49	547.69
394.68	554.71
394.88	547.69
395.07	622.58
395.26	685.78
395.46	606.20
395.65	550.03
395.84	596.84
396.04	615.56
396.23	655.35
396.42	653.01
396.62	643.65
396.81	727.91
397.00	718.54
397.19	690.46
397.39	638.97
397.58	631.94
397.77	681.10
397.97	648.33
398.16	683.44
398.35	706.84
398.55	748.97
398.74	688.12
398.93	662.37
399.12	685.78
399.32	641.31
399.51	741.95
399.70	718.54
399.90	657.69
400.09	734.93
400.28	774.72
400.47	774.72
400.67	835.57
400.86	777.06
401.05	727.91
401.24	882.38
401.44	786.42
401.63	863.66
401.82	901.11
402.01	772.38
402.21	826.21
402.40	863.66
402.59	809.83
402.78	849.61
402.97	849.61
403.17	833.23
403.36	840.25
403.55	751.31
403.74	854.30
403.93	929.19
404.13	884.72
404.32	854.30
404.51	931.53
404.70	978.34
404.89	877.70
405.09	947.92
405.28	826.21
405.47	950.26
405.66	964.30
405.85	992.39
406.05	978.34
406.24	978.34
406.43	1020.47
406.62	1027.50
406.81	1011.11
407.00	945.58
407.20	880.04
407.39	1060.26
407.58	1050.90
407.77	1107.07
407.96	1086.01
408.15	1088.35
408.34	1125.80
408.54	1125.80
408.73	1067.28
408.92	1027.50
409.11	1160.91
409.30	1184.31
409.49	1130.48
409.68	1107.07
409.87	1193.67
410.07	1174.95
410.26	1184.31
410.45	1200.69
410.64	1191.33
410.83	1135.16
411.02	1242.82
411.21	1324.74
411.40	1203.04
411.59	1212.40
411.78	1242.82
411.98	1186.65
412.17	1210.06
412.36	1249.85
412.55	1289.64
412.74	1352.83
412.93	1352.83
413.12	1320.06
413.31	1387.94
413.50	1404.32
413.69	1401.98
413.88	1446.45
414.07	1453.47
414.26	1371.55
414.45	1528.37
414.64	1516.67
414.83	1411.34
415.02	1387.94
415.22	1533.05
415.41	1577.52
415.60	1549.43
415.79	1509.65
415.98	1582.20
416.17	1607.95
416.36	1589.22
416.55	1577.52
416.74	1610.29
416.93	1540.07
417.12	1600.93
417.31	1589.22
417.50	1729.66
417.69	1668.80
417.88	1699.23
418.07	1741.36
418.26	1720.29
418.45	1741.36
418.64	1849.02
418.83	1713.27
419.02	1753.06
419.21	1771.79
419.39	1750.72
419.58	1802.21
419.77	1762.42
419.96	1851.36
420.15	1907.54
420.34	1823.28
420.53	1830.30
420.72	1994.14
420.91	1830.30
421.10	1846.68
421.29	1968.39
421.48	1966.05
421.67	1914.56
421.86	2043.29
422.05	1926.26
422.24	1989.46
422.43	1935.62
422.61	2024.56
422.80	1980.09
422.99	1975.41
423.18	1987.11
423.37	2169.68
423.56	2015.20
423.75	2026.90
423.94	1846.68
424.13	1839.66
424.32	1902.86
424.50	2033.93
424.69	1975.41
424.88	2132.23
425.07	2022.22
425.26	1989.46
425.45	2022.22
425.64	1923.92
425.83	1998.82
426.01	2118.18
426.20	2038.61
426.39	2057.33
426.58	1984.77
426.77	2071.37
426.96	2087.76
427.15	2073.71
427.33	2059.67
427.52	2010.52
427.71	2111.16
427.90	2097.12
428.09	2202.44
428.28	2122.87
428.46	2153.29
428.65	2090.10
428.84	2111.16
429.03	2167.34
429.22	2265.64
429.40	2232.87
429.59	2186.06
429.78	2057.33
429.97	2064.35
430.16	2218.83
430.34	2352.24
430.53	2165.00
430.72	2424.80
430.91	2270.32
431.10	2239.89
431.28	2328.83
431.47	2298.41
431.66	2375.64
431.85	2296.07
432.03	2342.88
432.22	2462.24
432.41	2445.86
432.60	2469.27
432.79	2452.88
432.97	2448.20
433.16	2403.73
433.35	2523.10
433.54	2443.52
433.72	2525.44
433.91	2518.42
434.10	2588.63
434.28	2448.20
434.47	2520.76
434.66	2487.99
434.85	2527.78
435.03	2588.63
435.22	2499.69
435.41	2576.93
435.59	2616.72
435.78	2590.97
435.97	2581.61
436.16	2593.31
436.34	2626.08
436.53	2640.12
436.72	2698.64
436.90	2635.44
437.09	2686.94
437.28	2614.38
437.46	2740.77
437.65	2841.41
437.84	2820.35
438.02	2736.09
438.21	2843.75
438.40	2731.41
438.58	2785.24
438.77	2853.11
438.96	2932.69
439.14	2796.94
439.33	3089.51
439.52	3077.80
439.70	2967.80
439.89	2949.08
440.08	3028.65
440.26	3143.34
440.45	2991.20
440.63	3084.83
440.82	3126.96
441.01	3066.10
441.19	3159.72
441.38	3178.45
441.57	3262.71
441.75	3206.53
441.94	3204.19
442.12	3173.77
442.31	3206.53
442.50	3309.52
442.68	3353.99
442.87	3297.81
443.05	3426.54
443.24	3382.07
443.43	3215.90
443.61	3403.14
443.80	3524.85
443.98	3286.11
444.17	3379.73
444.35	3353.99
444.54	3435.91
444.73	3335.26
444.91	3442.93
445.10	3379.73
445.28	3377.39
445.47	3353.99
445.65	3351.65
445.84	3426.54
446.02	3506.12
446.21	3461.65
446.39	3332.92
446.58	3419.52
446.77	3431.23
446.95	3382.07
447.14	3489.74
447.32	3517.83
447.51	3391.44
447.69	3522.51
447.88	3499.10
448.06	3559.95
448.25	3480.38
448.43	3454.63
448.62	3379.73
448.80	3487.40
448.99	3400.80
449.17	3510.80
449.36	3501.44
449.54	3637.19
449.73	3728.47
449.91	3609.11
450.10	3576.34
450.28	3819.75
450.46	3712.09
450.65	3744.86
450.83	3735.50
451.02	3707.41
451.20	3885.29
451.39	3801.03
451.57	3700.39
451.76	3611.45
451.94	3786.99
452.13	3728.47
452.31	3786.99
452.49	3702.73
452.68	3805.71
452.86	3889.97
453.05	3929.76
453.23	3873.59
453.42	3749.54
453.60	3861.88
453.78	3845.50
453.97	3845.50
454.15	3829.12
454.34	3971.89
454.52	4014.02
454.70	3885.29
454.89	3964.87
455.07	3957.85
455.26	4032.74
455.44	4077.21
455.62	4084.23
455.81	4107.64
455.99	4163.81
456.17	4051.47
456.36	4105.30
456.54	4163.81
456.73	4180.20
456.91	4411.91
457.09	4332.33
457.28	4287.86
457.46	4114.66
457.64	4440.00
457.83	4355.74
458.01	4229.35
458.19	4283.18
458.38	4297.22
458.56	4367.44
458.74	4437.66
458.93	4252.75
459.11	4440.00
459.29	4339.35
459.48	4461.06
459.66	4447.02
459.84	4503.19
460.03	4627.24
460.21	4599.15
460.39	4596.81
460.57	4533.62
460.76	4552.34
460.94	4484.47
461.12	4428.29
461.31	4571.07
461.49	4636.60
461.67	4617.88
461.85	4622.56
462.04	4732.56
462.22	4758.31
462.40	4779.37
462.59	4854.27
462.77	4826.18
462.95	4816.82
463.13	4793.42
463.32	4823.84
463.50	4901.08
463.68	4685.75
463.86	4559.36
464.05	4844.91
464.23	4774.69
464.41	4847.25
464.59	4823.84
464.78	4870.65
464.96	4718.52
465.14	4929.17
465.32	5062.58
465.50	5032.15
465.69	4915.12
465.87	5025.13
466.05	4844.91
466.23	4837.89
466.41	5015.77
466.60	5102.37
466.78	4880.02
466.96	5046.20
467.14	5116.41
467.32	5090.67
467.51	5036.83
467.69	4940.87
467.87	5320.04
468.05	5018.11
468.23	5121.09
468.41	5151.52
468.60	5259.18
468.78	5357.49
468.96	5160.88
469.14	5259.18
469.32	5298.97
469.50	5069.60
469.69	5259.18
469.87	5303.65
470.05	5423.02
470.23	5294.29
470.41	5284.93
470.59	5490.90
470.77	5369.19
470.95	5408.98
471.14	5607.92
471.32	5441.75
471.50	5659.42
471.68	5518.98
471.86	5685.16
472.04	5661.76
472.22	5701.54
472.40	5664.10
472.58	5643.03
472.77	5753.04
472.95	5844.32
473.13	5774.10
473.31	5633.67
473.49	5736.65
473.67	5614.95
473.85	5736.65
474.03	5863.04
474.21	5994.11
474.39	6071.35
474.57	6083.05
474.75	6097.10
474.93	6216.46
475.12	6078.37
475.30	6022.20
475.48	6118.16
475.66	6171.99
475.84	6326.47
476.02	6473.92
476.20	6345.19
476.38	6387.32
476.56	6497.33
476.74	6520.73
476.92	6537.12
477.10	6579.25
477.28	6691.59
477.46	6483.28
477.64	6825.00
477.82	6834.36
478.00	6909.26
478.18	6930.33
478.36	6853.09
478.54	7000.54
478.72	7002.88
478.90	7150.34
479.08	7068.42
479.26	7211.19
479.44	7272.04
479.62	7255.66
479.80	7405.46
479.98	7360.98
480.16	7665.25
480.34	7368.01
480.52	7403.11
480.70	7295.45
480.88	7428.86
481.06	7449.93
481.24	7655.89
481.41	7726.11
481.59	7822.07
481.77	7857.18
481.95	7812.71
482.13	8060.80
482.31	7985.91
482.49	8306.56
482.67	8212.94
482.85	8400.18
483.03	8514.87
483.21	8344.01
483.39	8456.36
483.57	8615.51
483.74	8463.38
483.92	8758.28
484.10	8748.92
484.28	8856.59
484.46	8793.39
484.64	9097.66
484.82	8999.36
485.00	9083.62
485.18	9123.41
485.35	9263.84
485.53	9376.19
485.71	9371.50
485.89	9605.56
486.07	9380.87
486.25	9418.32
486.43	9432.36
486.61	9722.59
486.78	9914.51
486.96	9671.09
487.14	10059.62
487.32	9980.04
487.50	10012.81
487.68	10132.18
487.85	10162.61
488.03	10403.68
488.21	10494.96
488.39	10509.01
488.57	10583.90
488.75	10747.74
488.92	10768.80
489.10	10909.24
489.28	10890.51
489.46	10883.49
489.64	11084.78
489.81	11169.04
489.99	11255.64
490.17	11302.45
490.35	11433.52
490.53	11372.66
490.70	11559.91
490.88	11595.01
491.06	11651.19
491.24	11585.65
491.41	11735.45
491.59	11669.91
491.77	11817.36
491.95	12067.80
492.13	12058.44
492.30	12091.21
492.48	12304.20
492.66	12292.49
492.84	12063.12
493.01	12468.03
493.19	12217.60
493.37	12580.38
493.54	12645.91
493.72	12994.65
493.90	12603.78
494.08	12617.83
494.25	12971.25
494.43	12875.29
494.61	13130.41
494.79	13319.99
494.96	13071.89
495.14	13324.67
495.32	13408.93
495.49	13488.51
495.67	13383.18
495.85	13556.38
496.02	13832.57
496.20	13652.34
496.38	13717.88
496.55	14047.90
496.73	14036.19
496.91	14043.21
497.09	14340.46
497.26	14361.53
497.44	14085.34
497.62	14111.09
497.79	14576.86
497.97	14239.82
498.14	14544.09
498.32	14597.92
498.50	14658.78
498.67	14558.13
498.85	14869.42
499.03	14862.40
499.20	14717.29
499.38	15042.62
499.56	14780.48
499.73	15250.93
499.91	15147.95
500.08	15307.10
500.26	15386.68
500.44	15318.81
500.61	15662.86
500.79	15272.00
500.97	15309.44
501.14	15555.20
501.32	15585.63
501.49	15726.06
501.67	15632.44
501.84	15751.81
502.02	15922.66
502.20	15822.02
502.37	16102.89
502.55	16037.35
502.72	16159.06
502.90	15894.58
503.07	15864.15
503.25	16093.52
503.43	16004.58
503.60	16451.63
503.78	16039.69
503.95	16629.51
504.13	16519.50
504.30	16503.12
504.48	16519.50
504.65	16718.45
504.83	16912.71
505.01	16994.63
505.18	16835.47
505.36	16910.37
505.53	16664.61
505.71	16959.52
505.88	17060.16
506.06	17137.40
506.23	17085.91
506.41	17252.09
506.58	17085.91
506.76	17177.19
506.93	17404.22
507.11	17308.26
507.28	17415.93
507.46	17114.00
507.63	17523.59
507.81	17715.51
507.98	17617.21
508.16	17486.14
508.33	17671.04
508.50	17680.41
508.68	18181.28
508.85	17965.95
509.03	18052.55
509.20	17886.37
509.38	18340.44
509.55	18235.11
509.73	18155.54
509.90	18127.45
510.08	18263.20
510.25	18267.88
510.42	18691.52
510.60	18431.72
510.77	18384.91
510.95	18572.15
511.12	18602.58
511.30	18434.06
511.47	18860.04
511.64	18663.43
511.82	18693.86
511.99	18789.82
512.17	18944.30
512.34	18757.05
512.51	18888.12
512.69	19138.56
512.86	19082.39
513.04	19314.10
513.21	19227.50
513.38	19234.52
513.56	19585.60
513.73	19241.54
513.90	19480.28
514.08	19442.83
514.25	19295.38
514.43	19356.23
514.60	19728.38
514.77	19653.48
514.95	19672.20
515.12	19634.75
515.29	19548.15
515.47	19899.23
515.64	19941.36
515.81	19690.93
515.99	19606.67
516.16	19992.86
516.33	20137.97
516.51	20486.71
516.68	19932.00
516.85	19943.70
517.03	20496.07
517.20	20603.74
517.37	20088.82
517.54	20615.44
517.72	20339.26
517.89	20451.60
518.06	20161.37
518.24	20407.13
518.41	20615.44
518.58	20664.59
518.75	20592.03
518.93	20964.18
519.10	20706.72
519.27	20451.60
519.45	20645.87
519.62	20816.72
519.79	20924.39
519.96	21057.80
520.14	21006.31
520.31	20854.17
520.48	21221.64
520.65	20896.30
520.83	21336.32
521.00	21446.33
521.17	21280.15
521.34	21231.00
521.52	21336.32
521.69	21287.17
521.86	21341.00
522.03	21645.27
522.20	21617.19
522.38	21893.37
522.55	21738.90
522.72	21289.51
522.89	21874.65
523.07	22389.56
523.24	21989.33
523.41	21970.61
523.58	21729.53
523.75	22342.75
523.92	21844.22
524.10	21685.06
524.27	22150.83
524.44	22384.88
524.61	22171.89
524.78	22382.54
524.96	22354.46
525.13	22548.72
525.30	22345.09
525.47	22314.67
525.64	21994.01
525.81	22499.57
525.98	22593.19
526.16	22831.93
526.33	22515.95
526.50	22934.91
526.67	22625.96
526.84	22375.52
527.01	22412.97
527.18	22981.72
527.36	22883.42
527.53	22691.49
527.70	23007.47
527.87	23208.75
528.04	23009.81
528.21	22860.01
528.38	22918.53
528.55	23065.98
528.72	23000.44
528.89	22981.72
529.07	23227.48
529.24	22925.55
529.41	23398.34
529.58	23190.03
529.75	23019.17
529.92	23206.41
530.09	23470.89
530.26	23435.78
530.43	23484.94
530.60	23391.31
530.77	23377.27
530.94	23758.78
531.11	23335.14
531.28	23421.74
531.46	23335.14
531.63	23648.77
531.80	23960.06
531.97	23831.33
532.14	23782.18
532.31	24060.71
532.48	23847.72
532.65	23726.01
532.82	23711.97
532.99	24002.19
533.16	23978.79
533.33	24243.27
533.50	24198.80
533.67	24362.64
533.84	24109.86
534.01	24243.27
534.18	24357.96
534.35	24486.68
534.52	24524.13
534.69	24372.00
534.86	24702.01
535.03	24570.94
535.20	24381.36
535.37	24460.94
535.54	24755.85
535.71	24168.37
535.88	24713.72
536.05	24369.66
536.22	24741.80
536.38	24610.73
536.55	24519.45
536.72	24919.68
536.89	24376.68
537.06	24699.67
537.23	24807.34
537.40	24608.39
537.57	24657.54
537.74	24893.94
537.91	25450.99
538.08	25099.90
538.25	24767.55
538.42	25172.46
538.59	25177.14
538.75	24830.74
538.92	25095.22
539.09	25188.85
539.26	25106.93
539.43	25118.63
539.60	25326.94
539.77	25172.46
539.94	25256.72
540.11	25291.83
540.28	25656.95
540.44	25167.78
540.61	25247.36
540.78	25113.95
540.95	25221.61
541.12	25462.69
541.29	25479.07
541.46	25610.14
541.62	25245.02
541.79	25813.77
541.96	25734.19
542.13	25921.43
542.30	25809.09
542.47	25930.80
542.63	25876.96
542.80	25745.89
542.97	25972.92
543.14	26141.44
543.31	26256.13
543.48	26155.49
543.64	26342.73
543.81	26202.30
543.98	26347.41
544.15	26167.19
544.32	26431.67
544.48	26490.18
544.65	25907.39
544.82	26054.84
544.99	26284.22
545.16	26267.83
545.32	26251.45
545.49	26455.08
545.66	26520.61
545.83	26808.50
546.00	26864.67
546.16	26544.02
546.33	26401.24
546.50	26494.86
546.67	26417.63
546.83	26579.12
547.00	26611.89
547.17	26689.13
547.34	26789.77
547.50	27072.98
547.67	27044.89
547.84	26583.80
548.00	26932.54
548.17	26920.84
548.34	26803.82
548.51	27192.34
548.67	26902.12
548.84	27194.68
549.01	26977.01
549.18	26806.16
549.34	27037.87
549.51	26855.31
549.68	27190.00
549.84	27161.92
550.01	27290.65
550.18	27274.26
550.34	27028.51
550.51	27019.14
550.68	27379.59
550.84	27278.94
551.01	27316.39
551.18	27208.73
551.34	27119.79
551.51	27035.53
551.68	27342.14
551.84	27730.67
552.01	27314.05
552.18	27466.19
552.34	27370.22
552.51	27744.71
552.68	27527.04
552.84	27524.70
553.01	27576.19
553.18	27658.11
553.34	27585.55
553.51	27424.06
553.67	27927.27
553.84	27318.73
554.01	27459.16
554.17	27948.34
554.34	27686.20
554.51	27847.69
554.67	27810.25
554.84	27831.31
555.00	27751.73
555.17	27587.89
555.33	28320.48
555.50	27772.80
555.67	28439.85
555.83	28173.03
556.00	27854.72
556.16	28379.00
556.33	28009.19
556.50	27960.04
556.66	28549.85
556.83	28072.39
556.99	28865.83
557.16	28500.70
557.32	28348.57
557.49	28334.53
557.65	27917.91
557.82	28283.03
557.98	27938.97
558.15	28147.28
558.32	28287.71
558.48	27718.96
558.65	28481.98
558.81	28407.08
558.98	28486.66
559.14	28222.18
559.31	28301.76
559.47	28491.34
559.64	28634.11
559.80	28341.55
559.97	28622.41
560.13	28582.62
560.30	28844.76
560.46	28809.65
560.63	28559.22
560.79	28451.55
560.96	28687.95
561.12	28540.49
561.29	28706.67
561.45	28657.52
561.61	29020.30
561.78	28699.65
561.94	28570.92
562.11	28687.95
562.27	28807.31
562.44	28498.36
562.60	28594.32
562.77	28662.20
562.93	28519.43
563.10	28893.91
563.26	28526.45
563.42	28936.04
563.59	29170.10
563.75	28489.00
563.92	28863.49
564.08	28851.78
564.24	28467.94
564.41	28844.76
564.57	29104.56
564.74	28718.37
564.90	28947.75
565.07	29120.95
565.23	28821.36
565.39	28985.19
565.56	29362.02
565.72	29067.11
565.88	28943.06
566.05	29111.58
566.21	28699.65
566.38	28945.41
566.54	28882.21
566.70	29535.22
566.87	29074.13
567.03	29221.59
567.19	29359.68
567.36	29303.51
567.52	29001.58
567.68	29118.60
567.85	28793.27
568.01	28779.23
568.17	29411.17
568.34	29102.22
568.50	29160.73
568.66	29305.85
568.83	29287.12
568.99	29111.58
569.15	29097.54
569.32	28952.43
569.48	28961.79
569.64	29029.66
569.81	28947.75
569.97	29067.11
570.13	29132.65
570.30	29120.95
570.46	29006.26
570.62	28982.85
570.78	28947.75
570.95	29069.45
571.11	29223.93
571.27	29134.99
571.43	29139.67
571.60	29397.13
571.76	29509.47
571.92	29488.41
572.09	29113.92
572.25	29462.66
572.41	29291.80
572.57	29394.79
572.74	29422.87
572.90	29343.30
573.06	29766.93
573.22	29392.45
573.38	29507.13
573.55	29350.32
573.71	29647.57
573.87	29450.96
574.03	29275.42
574.20	29907.37
574.36	29228.61
574.52	29408.83
574.68	29617.14
574.84	29261.38
575.01	29488.41
575.17	29617.14
575.33	29392.45
575.49	29488.41
575.65	29633.52
575.82	29560.97
575.98	29172.44
576.14	29326.91
576.30	29446.28
576.46	29387.77
576.62	29558.63
576.79	29275.42
576.95	29504.79
577.11	29656.93
577.27	29453.30
577.43	29455.64
577.59	29441.60
577.75	29659.27
577.92	29668.63
578.08	29591.39
578.24	29553.94
578.40	29392.45
578.56	29762.25
578.72	29542.24
578.88	29567.99
579.04	29944.81
579.21	29495.43
579.37	29619.48
579.53	29818.42
579.69	29233.29
579.85	29626.50
580.01	29607.78
580.17	29565.65
580.33	29582.03
580.49	29280.10
580.65	29539.90
580.82	30125.04
580.98	29933.11
581.14	29656.93
581.30	29823.11
581.46	29958.86
581.62	29450.96
581.78	29392.45
581.94	29305.85
582.10	29668.63
582.26	29521.18
582.42	29455.64
582.58	29773.95
582.74	29689.70
582.90	29998.65
583.06	29589.05
583.22	29649.91
583.38	29322.23
583.54	29979.92
583.70	29551.60
583.86	29455.64
584.02	29734.17
584.18	29944.81
584.34	29893.32
584.50	29954.18
584.66	29371.38
584.82	29825.45
584.98	29907.37
585.14	29586.71
585.30	29783.32
585.46	29675.65
585.62	29645.23
585.78	29776.30
585.94	29734.17
586.10	29532.88
586.26	29572.67
586.42	29722.46
586.58	30101.63
586.74	30050.14
586.90	29825.45
587.06	29600.76
587.22	29839.49
587.38	29600.76
587.54	29652.25
587.70	29893.32
587.86	29701.40
588.02	29923.75
588.18	30050.14
588.34	30110.99
588.49	30181.21
588.65	29436.92
588.81	29647.57
588.97	29851.19
589.13	29783.32
589.29	29813.74
589.45	30265.47
589.61	30101.63
589.77	29853.53
589.93	30092.27
590.08	29958.86
590.24	30087.59
590.40	29998.65
590.56	29961.20
590.72	29575.01
590.88	29788.00
591.04	29881.62
591.20	30036.09
591.35	30295.89
591.51	30326.32
591.67	30342.70
591.83	30181.21
591.99	29701.40
592.15	30218.66
592.31	30120.35
592.46	29727.14
592.62	29872.26
592.78	29724.80
592.94	29975.24
593.10	30146.10
593.26	30354.41
593.41	30043.12
593.57	30284.19
593.73	30094.61
593.89	30300.58
594.05	30464.41
594.20	29687.36
594.36	30150.78
594.52	29907.37
594.68	29818.42
594.84	30075.88
594.99	30221.00
595.15	30448.03
595.31	30469.09
595.47	30052.48
595.62	30221.00
595.78	30335.68
595.94	29984.60
596.10	30548.67
596.25	29954.18
596.41	29619.48
596.57	29963.54
596.73	30258.45
596.88	30169.51
597.04	30150.78
597.20	30253.76
597.36	30565.06
597.51	30230.36
597.67	29937.79
597.83	30181.21
597.99	30015.03
598.14	30225.68
598.30	30057.16
598.46	29975.24
598.61	30335.68
598.77	30401.22
598.93	30249.08
599.09	30143.76
599.24	30546.33
599.40	30235.04
599.56	30136.74
599.71	30457.39
599.87	30127.38
600.03	30099.29
600.18	30073.54
600.34	30064.18
600.50	30246.74
600.65	30361.43
600.81	30197.59
600.97	30436.33
601.12	30139.08
601.28	30370.79
601.44	30426.96
601.59	30651.66
601.75	30464.41
601.91	30639.95
602.06	30370.79
602.22	30396.54
602.37	30405.90
602.53	30562.72
602.69	30506.54
602.84	30457.39
603.00	30438.67
603.16	30366.11
603.31	30506.54
603.47	30567.40
603.62	30349.73
603.78	30665.70
603.94	29965.88
604.09	30307.60
604.25	29872.26
604.40	29991.62
604.56	30567.40
604.71	30469.09
604.87	30375.47
605.03	30618.89
605.18	30242.06
605.34	30291.21
605.49	30075.88
605.65	30192.91
605.80	30047.80
605.96	30087.59
606.12	30373.13
606.27	30237.38
606.43	29731.83
606.58	30415.26
606.74	30295.89
606.89	30354.41
607.05	30202.27
607.20	30188.23
607.36	30235.04
607.51	30342.70
607.67	29921.41
607.82	30068.86
607.98	29813.74
608.13	29942.47
608.29	29731.83
608.44	29893.32
608.60	29951.84
608.75	30024.39
608.91	30031.41
609.06	29748.21
609.22	30377.81
609.37	29582.03
609.53	30150.78
609.68	29888.64
609.84	30129.72
609.99	29682.67
610.15	29841.83
610.30	29926.09
610.46	30237.38
610.61	30167.16
610.76	30281.85
610.92	30244.40
611.07	30057.16
611.23	29771.61
611.38	29575.01
611.54	29567.99
611.69	29436.92
611.84	29607.78
612.00	29589.05
612.15	29567.99
612.31	29881.62
612.46	29481.39
612.62	29926.09
612.77	29933.11
612.92	29865.24
613.08	29673.31
613.23	29848.85
613.39	29811.40
613.54	29509.47
613.69	29759.91
613.85	29521.18
614.00	29523.52
614.15	29596.07
614.31	29638.20
614.46	29701.40
614.62	29804.38
614.77	29958.86
614.92	29685.01
615.08	29895.66
615.23	30015.03
615.38	29743.53
615.54	29708.42
615.69	29645.23
615.84	29034.35
616.00	29785.66
616.15	29249.67
616.30	29706.08
616.46	29993.97
616.61	29685.01
616.76	29333.93
616.92	29570.33
617.07	29572.67
617.22	29275.42
617.37	29275.42
617.53	29542.24
617.68	29413.51
617.83	29104.56
617.99	29029.66
618.14	29303.51
618.29	29469.69
618.45	29347.98
618.60	29780.98
618.75	29287.12
618.90	29343.30
619.06	29184.14
619.21	29076.48
619.36	29457.98
619.51	28975.83
619.67	28559.22
619.82	29134.99
619.97	29193.50
620.12	29153.71
620.28	28577.94
620.43	28898.59
620.58	29167.76
620.73	29200.52
620.89	29301.17
621.04	29259.04
621.19	29259.04
621.34	29032.00
621.49	28933.70
621.65	28512.41
621.80	29067.11
621.95	28886.89
622.10	28528.79
622.25	28989.88
622.41	28786.25
622.56	29092.86
622.71	28985.19
622.86	28966.47
623.01	28779.23
623.16	28730.08
623.32	28613.05
623.47	28519.43
623.62	29046.05
623.77	28837.74
623.92	28875.19
624.07	28680.92
624.23	28781.57
624.38	28725.39
624.53	28421.13
624.68	28940.72
624.83	28758.16
624.98	28849.44
625.13	28613.05
625.29	28634.11
625.44	28514.75
625.59	28634.11
625.74	28425.81
625.89	28360.27
626.04	27871.10
626.19	28397.72
626.34	28437.51
626.49	28009.19
626.65	28357.93
626.80	28477.30
626.95	28301.76
627.10	28484.32
627.25	28500.70
627.40	28308.78
627.55	28360.27
627.70	28147.28
627.85	28313.46
628.00	28023.23
628.15	28273.67
628.30	28058.34
628.45	28395.38
628.60	27782.16
628.76	28191.75
628.91	28453.89
629.06	28009.19
629.21	28374.31
629.36	28163.67
629.51	28198.77
629.66	27992.81
629.81	28034.94
629.96	28009.19
630.11	27854.72
630.26	28582.62
630.41	27697.90
630.56	27882.80
630.71	28343.89
630.86	27852.38
631.01	27843.01
631.16	27913.23
631.31	27749.39
631.46	27725.99
631.61	28231.54
631.76	28177.71
631.91	27786.84
632.06	27728.33
632.21	27623.00
632.36	27487.25
632.51	27496.61
632.66	27620.66
632.81	27758.75
632.96	27615.98
633.10	28051.32
633.25	27653.43
633.40	27761.09
633.55	27618.32
633.70	27503.64
633.85	27517.68
634.00	27562.15
634.15	27585.55
634.30	27688.54
634.45	26955.95
634.60	27410.01
634.75	27339.80
634.90	27398.31
635.05	27344.48
635.19	27695.56
635.34	27838.33
635.49	27414.69
635.64	27665.13
635.79	27487.25
635.94	27639.39
636.09	27229.79
636.24	27412.35
636.39	27056.59
636.53	27351.50
636.68	27264.90
636.83	27253.20
636.98	27065.96
637.13	27295.33
637.28	27194.68
637.43	27316.39
637.57	27201.71
637.72	27283.62
637.87	27145.53
638.02	27435.76
638.17	27077.66
638.32	26871.69
638.46	26930.20
638.61	26838.92
638.76	26845.94
638.91	26672.74
639.06	26785.09
639.20	26843.60
639.35	27360.86
639.50	26923.18
639.65	27480.23
639.80	26904.46
639.94	26923.18
640.09	26764.03
640.24	27393.63
640.39	26799.13
640.54	26836.58
640.68	26869.35
640.83	26658.70
640.98	26562.74
641.13	26361.45
641.27	26888.07
641.42	26801.47
641.57	26623.59
641.72	27070.64
641.86	26527.63
642.01	26602.53
642.16	26604.87
642.31	26214.00
642.45	26616.57
642.60	26288.90
642.75	26401.24
642.90	26307.62
643.04	26324.01
643.19	26532.31
643.34	26551.04
643.48	26532.31
643.63	26342.73
643.78	26494.86
643.93	26506.57
644.07	26647.00
644.22	26824.88
644.37	26572.10
644.51	26246.77
644.66	26466.78
644.81	26265.49
644.95	26700.83
645.10	26206.98
645.25	26185.91
645.39	26452.73
645.54	26471.46
645.69	26281.88
645.83	25961.22
645.98	26206.98
646.13	26075.91
646.27	26176.55
646.42	26073.57
646.57	25993.99
646.71	25954.20
646.86	25949.52
647.00	26199.96
647.15	25762.28
647.30	26106.34
647.44	25951.86
647.59	25998.67
647.74	26536.99
647.88	25818.45
648.03	26096.97
648.17	26225.70
648.32	26057.18
648.47	26394.22
648.61	26101.65
648.76	26293.58
648.90	25743.55
649.05	25991.65
649.20	25642.91
649.34	26190.59
649.49	25607.80
649.63	25422.90
649.78	25841.85
649.92	25750.57
650.07	25759.94
650.21	26141.44
650.36	25713.13
650.51	25659.29
650.65	26012.71
650.80	25692.06
650.94	25930.80
651.09	25750.57
651.23	25612.48
651.38	25874.62
651.52	25333.96
651.67	25558.65
651.81	25649.93
651.96	25252.04
652.10	25448.64
652.25	25469.71
652.39	25743.55
652.54	25687.38
652.68	25610.14
652.83	25575.03
652.97	25528.22
653.12	25427.58
653.26	25296.51
653.41	25617.16
653.55	25202.89
653.70	25046.07
653.84	25088.20
653.99	25469.71
654.13	25223.95
654.27	25329.28
654.42	25139.69
654.56	25399.49
654.71	25326.94
654.85	25546.95
655.00	25289.49
655.14	25661.63
655.29	25521.20
655.43	25240.34
655.57	25200.55
655.72	25020.33
655.86	25130.33
656.01	24856.49
656.15	24690.31
656.30	25003.94
656.44	24893.94
656.58	25132.67
656.73	25015.65
656.87	25064.80
657.01	24971.18
657.16	25254.38
657.30	25252.04
657.45	24905.64
657.59	25240.34
657.73	25055.43
657.88	24919.68
658.02	24814.36
658.16	25130.33
658.31	24493.71
658.45	24865.85
658.60	24170.71
658.74	24149.65
658.88	24652.86
659.03	24694.99
659.17	24678.61
659.31	24664.57
659.46	24250.29
659.60	24774.57
659.74	24606.05
659.89	24325.19
660.03	24367.32
660.17	24573.28
660.32	24372.00
660.46	24381.36
660.60	24329.87
660.74	24592.01
660.89	24180.07
661.03	23983.47
661.17	24261.99
661.32	24638.82
661.46	24453.92
661.60	24444.56
661.74	24161.35
661.89	24350.93
662.03	24350.93
662.17	23992.83
662.31	23831.33
662.46	24336.89
662.60	24084.11
662.74	23908.57
662.88	23805.59
663.03	23826.65
663.17	23875.80
663.31	23538.77
663.45	23559.83
663.60	23484.94
663.74	23658.14
663.88	23653.45
664.02	23667.50
664.17	23655.79
664.31	23328.12
664.45	23498.98
664.59	23700.26
664.73	23110.45
664.88	23520.04
665.02	23138.54
665.16	23183.01
665.30	23136.20
665.44	23183.01
665.59	22911.50
665.73	23171.30
665.87	22878.74
666.01	23534.09
666.15	23412.38
666.29	23211.09
666.44	23168.96
666.58	22787.46
666.72	22981.72
666.86	23054.28
667.00	23229.82
667.14	23023.85
667.28	22813.20
667.43	23178.33
667.57	23028.53
667.71	22848.31
667.85	22745.33
667.99	22654.05
668.13	22588.51
668.27	22698.52
668.41	22890.44
668.56	22661.07
668.70	22726.60
668.84	22511.27
668.98	22370.84
669.12	22373.18
669.26	22202.32
669.40	22750.01
669.54	22462.12
669.68	22272.54
669.82	22146.15
669.96	22141.47
670.10	22094.66
670.25	22045.51
670.39	21991.67
670.53	22001.04
670.67	22143.81
670.81	22249.13
670.95	22352.12
671.09	22071.25
671.23	21858.26
671.37	22214.02
671.51	21982.31
671.65	21942.52
671.79	21830.18
671.93	21968.27
672.07	21902.73
672.21	21514.20
672.35	21418.24
672.49	21273.13
672.63	21341.00
672.77	21451.01
672.91	21273.13
673.05	21610.17
673.19	21399.52
673.33	21270.79
673.47	21364.41
673.61	21504.84
673.75	21338.66
673.89	21387.82
674.03	21149.08
674.17	21488.46
674.31	21214.62
674.45	21118.65
674.59	21139.72
674.73	21163.12
674.87	20933.75
675.01	20985.24
675.15	20809.70
675.29	20711.40
675.43	20968.86
675.56	20870.56
675.70	20861.19
675.84	20755.87
675.98	20049.03
676.12	20563.95
676.26	20699.70
676.40	20379.04
676.54	20533.52
676.68	20629.48
676.82	19992.86
676.96	20521.82
677.10	20030.30
677.23	20044.35
677.37	20027.96
677.51	19908.60
677.65	19833.70
677.79	19847.74
677.93	19679.22
678.07	19812.63
678.21	19508.37
678.34	19693.27
678.48	19487.30
678.62	19639.44
678.76	19583.26
678.90	19630.07
679.04	19349.21
679.18	19389.00
679.31	19089.41
679.45	19105.79
679.59	19056.64
679.73	18918.55
679.87	18850.67
680.00	18911.53
680.14	18995.79
680.28	18963.02
680.42	18796.84
680.56	18944.30
680.70	18764.07
680.83	18845.99
680.97	18593.22
681.11	18838.97
681.25	18541.72
681.39	18295.97
681.52	18398.95
681.66	18408.31
681.80	18291.29
681.94	18396.61
682.07	18216.39
682.21	18263.20
682.35	17893.40
682.49	18200.01
682.62	17462.74
682.76	17799.77
682.90	18010.42
683.04	18118.09
683.17	17628.92
683.31	17507.21
683.45	17600.83
683.59	17624.23
683.72	17710.83
683.86	17839.56
684.00	17905.10
684.13	17549.34
684.27	17256.77
684.41	17294.22
684.55	16999.31
684.68	17018.04
684.82	17114.00
684.96	16975.91
685.09	17137.40
685.23	16594.40
685.37	17064.85
685.50	17106.98
685.64	17249.75
685.78	16886.97
685.91	16896.33
686.05	16716.11
686.19	16650.57
686.32	16695.04
686.46	16217.57
686.60	16545.25
686.73	16290.13
686.87	16287.79
687.01	16142.67
687.14	16346.30
687.28	16156.72
687.42	16067.78
687.55	16030.33
687.69	15878.19
687.82	15950.75
687.96	16142.67
688.10	16243.32
688.23	15686.27
688.37	15733.08
688.50	15913.30
688.64	15887.56
688.78	15576.27
688.91	15508.39
689.05	15599.67
689.18	15681.59
689.32	15269.66
689.46	15356.25
689.59	15337.53
689.73	15091.77
689.86	15138.58
690.00	14981.77
690.13	14998.15
690.27	15108.16
690.41	14853.04
690.54	14813.25
690.68	15295.40
690.81	14867.08
690.95	14977.09
691.08	15094.11
691.22	14731.33
691.35	14478.55
691.49	14815.59
691.62	14497.28
691.76	14361.53
691.89	14441.11
692.03	14356.85
692.16	14136.84
692.30	14143.86
692.43	14335.78
692.57	14029.17
692.70	13989.38
692.84	13834.91
692.97	14078.32
693.11	13991.72
693.24	14080.66
693.38	13846.61
693.51	13832.57
693.65	13631.28
693.78	13748.31
693.92	13699.16
694.05	13900.44
694.19	13834.91
694.32	13572.77
694.45	13422.97
694.59	13104.66
694.72	13214.66
694.86	13132.75
694.99	13231.05
695.13	13202.96
695.26	12856.56
695.39	12931.46
695.53	13085.94
695.66	12940.82
695.80	13032.10
695.93	12933.80
696.07	12823.80
696.20	12737.20
696.33	13020.40
696.47	12638.89
696.60	12666.98
696.73	12802.73
696.87	12774.64
697.00	12388.46
697.14	12397.82
697.27	12257.39
697.40	12243.34
697.54	12018.65
697.67	12250.36
697.80	12016.31
697.94	12107.59
698.07	11829.07
698.21	12070.14
698.34	12173.13
698.47	12067.80
698.61	11915.67
698.74	11969.50
698.87	11955.46
699.01	11761.19
699.14	11875.88
699.27	11557.57
699.40	11744.81
699.54	11417.13
699.67	11590.33
699.80	11456.92
699.94	11407.77
700.07	11367.98
700.20	11187.76
700.34	11318.83
700.47	11047.33
700.60	11314.15
700.73	11157.33
700.87	11164.36
701.00	10902.22
701.13	11129.25
701.26	11091.80
701.40	10932.64
701.53	11126.91
701.66	10953.71
701.79	10775.83
701.93	10885.83
702.06	10611.99
702.19	10541.77
702.32	10513.69
702.46	10399.00
702.59	10256.23
702.72	10235.16
702.85	10377.94
702.99	10590.92
703.12	10373.25
703.25	10071.33
703.38	10193.03
703.51	10115.80
703.65	10342.83
703.78	10078.35
703.91	10068.98
704.04	10057.28
704.17	10340.49
704.31	9895.78
704.44	9898.13
704.57	9741.31
704.70	9841.95
704.83	9724.93
704.96	9497.89
705.10	9582.15
705.23	9650.03
>>>>>End Processed Spectral Data<<<<<
