SpectraSuite Data File
++++++++++++++++++++++++++++++++++++
Date: Fri Oct 18 13:58:37 GMT-05:00 2013
User: bianchi
Dark Spectrum Present: No
Reference Spectrum Present: No
Number of Sampled Component Spectra: 1
Spectrometers: USB2+H05261
Integration Time (usec): 50000 (USB2+H05261)
Spectra Averaged: 1 (USB2+H05261)
Boxcar Smoothing: 0 (USB2+H05261)
Correct for Electrical Dark: No (USB2+H05261)
Strobe/Lamp Enabled: No (USB2+H05261)
Correct for Detector Non-linearity: No (USB2+H05261)
Correct for Stray Light: No (USB2+H05261)
Number of Pixels in Processed Spectrum: 2048
>>>>>Begin Processed Spectral Data<<<<<
365.73	0.00
365.92	0.00
366.12	0.00
366.32	0.00
366.52	0.00
366.72	0.00
366.91	0.00
367.11	0.00
367.31	0.00
367.51	0.00
367.70	0.00
367.90	0.00
368.10	0.00
368.30	0.00
368.49	0.00
368.69	0.00
368.89	0.00
369.09	0.00
369.28	0.00
369.48	0.00
369.68	0.00
369.87	0.00
370.07	0.00
370.27	0.00
370.47	0.00
370.66	72.56
370.86	25.75
371.06	194.26
371.25	91.28
371.45	67.88
371.65	177.88
371.84	215.33
372.04	205.97
372.24	154.48
372.44	231.71
372.63	184.90
372.83	250.44
373.03	220.01
373.22	149.79
373.42	243.42
373.62	212.99
373.81	276.18
374.01	283.20
374.21	259.80
374.40	273.84
374.60	271.50
374.79	262.14
374.99	182.56
375.19	231.71
375.38	184.90
375.58	257.46
375.78	215.33
375.97	229.37
376.17	198.95
376.37	271.50
376.56	255.12
376.76	248.10
376.95	255.12
377.15	189.58
377.35	369.80
377.54	285.55
377.74	208.31
377.93	355.76
378.13	236.39
378.33	280.86
378.52	285.55
378.72	266.82
378.91	234.05
379.11	322.99
379.31	330.02
379.50	344.06
379.70	362.78
379.89	332.36
380.09	306.61
380.28	311.29
380.48	327.68
380.68	339.38
380.87	339.38
381.07	299.59
381.26	290.23
381.46	299.59
381.65	369.80
381.85	327.68
382.04	327.68
382.24	334.70
382.43	367.46
382.63	304.27
382.83	313.63
383.02	379.17
383.22	379.17
383.41	334.70
383.61	259.80
383.80	458.74
384.00	320.65
384.19	304.27
384.39	367.46
384.58	442.36
384.78	411.93
384.97	402.57
385.17	365.12
385.36	374.49
385.56	383.85
385.75	425.98
385.95	402.57
386.14	404.91
386.34	444.70
386.53	355.76
386.72	362.78
386.92	395.55
387.11	388.53
387.31	397.89
387.50	395.55
387.70	402.57
387.89	421.30
388.09	414.27
388.28	369.80
388.48	383.85
388.67	482.15
388.86	386.19
389.06	400.23
389.25	449.38
389.45	423.64
389.64	435.34
389.84	444.70
390.03	470.45
390.22	512.58
390.42	519.60
390.61	470.45
390.81	510.24
391.00	493.85
391.19	425.98
391.39	468.11
391.58	418.96
391.78	514.92
391.97	468.11
392.16	472.79
392.36	561.73
392.55	543.00
392.75	550.03
392.94	547.69
393.13	596.84
393.33	557.05
393.52	592.16
393.71	636.63
393.91	587.47
394.10	517.26
394.29	629.60
394.49	603.86
394.68	613.22
394.88	613.22
395.07	643.65
395.26	571.09
395.46	578.11
395.65	615.56
395.84	561.73
396.04	650.67
396.23	606.20
396.42	638.97
396.62	669.39
396.81	638.97
397.00	599.18
397.19	653.01
397.39	561.73
397.58	617.90
397.77	650.67
397.97	622.58
398.16	702.16
398.35	660.03
398.55	660.03
398.74	662.37
398.93	779.40
399.12	739.61
399.32	727.91
399.51	711.52
399.70	763.01
399.90	751.31
400.09	746.63
400.28	706.84
400.47	727.91
400.67	711.52
400.86	716.20
401.05	748.97
401.24	779.40
401.44	737.27
401.63	812.17
401.82	734.93
402.01	784.08
402.21	854.30
402.40	774.72
402.59	889.40
402.78	802.80
402.97	765.36
403.17	763.01
403.36	823.87
403.55	821.53
403.74	870.68
403.93	851.96
404.13	917.49
404.32	978.34
404.51	856.64
404.70	947.92
404.89	983.02
405.09	961.96
405.28	910.47
405.47	929.19
405.66	1039.20
405.85	915.15
406.05	987.71
406.24	936.21
406.43	1004.09
406.62	1015.79
406.81	1060.26
407.00	999.41
407.20	1011.11
407.39	992.39
407.58	1020.47
407.77	976.00
407.96	1067.28
408.15	1057.92
408.34	1060.26
408.54	1146.86
408.73	1125.80
408.92	1102.39
409.11	1217.08
409.30	1086.01
409.49	1025.15
409.68	1125.80
409.87	1137.50
410.07	1163.25
410.26	1107.07
410.45	1156.22
410.64	1160.91
410.83	1287.29
411.02	1238.14
411.21	1217.08
411.40	1205.38
411.59	1273.25
411.78	1205.38
411.98	1200.69
412.17	1221.76
412.36	1336.45
412.55	1228.78
412.74	1327.08
412.93	1336.45
413.12	1371.55
413.31	1364.53
413.50	1334.11
413.69	1378.58
413.88	1509.65
414.07	1411.34
414.26	1486.24
414.45	1437.09
414.64	1472.20
414.83	1570.50
415.02	1556.46
415.22	1551.78
415.41	1479.22
415.60	1469.86
415.79	1575.18
415.98	1589.22
416.17	1572.84
416.36	1584.54
416.55	1514.33
416.74	1668.80
416.93	1645.40
417.12	1549.43
417.31	1813.92
417.50	1638.38
417.69	1783.49
417.88	1678.16
418.07	1729.66
418.26	1617.31
418.45	1860.73
418.64	1776.47
418.83	1771.79
419.02	1788.17
419.21	1830.30
419.39	1944.99
419.58	1839.66
419.77	1907.54
419.96	1767.10
420.15	1872.43
420.34	1865.41
420.53	1916.90
420.72	1994.14
420.91	2078.40
421.10	1834.98
421.29	1954.35
421.48	1930.94
421.67	2073.71
421.86	1888.81
422.05	1961.37
422.24	1996.48
422.43	1935.62
422.61	2026.90
422.80	2012.86
422.99	1968.39
423.18	1998.82
423.37	2036.27
423.56	2054.99
423.75	2026.90
423.94	2015.20
424.13	1849.02
424.32	1921.58
424.50	2010.52
424.69	2054.99
424.88	2099.46
425.07	1942.64
425.26	1973.07
425.45	2085.42
425.64	2005.84
425.83	2015.20
426.01	2113.50
426.20	1989.46
426.39	2066.69
426.58	2073.71
426.77	2026.90
426.96	2078.40
427.15	2071.37
427.33	1977.75
427.52	2113.50
427.71	2162.66
427.90	2125.21
428.09	2172.02
428.28	2143.93
428.46	2165.00
428.65	2237.55
428.84	2307.77
429.03	2326.49
429.22	2258.62
429.40	2172.02
429.59	2300.75
429.78	2216.49
429.97	2181.38
430.16	2270.32
430.34	2230.53
430.53	2401.39
430.72	2310.11
430.91	2424.80
431.10	2335.85
431.28	2249.25
431.47	2310.11
431.66	2457.56
431.85	2354.58
432.03	2443.52
432.22	2389.69
432.41	2518.42
432.60	2436.50
432.79	2476.29
432.97	2497.35
433.16	2485.65
433.35	2373.30
433.54	2562.89
433.72	2492.67
433.91	2616.72
434.10	2595.65
434.28	2476.29
434.47	2691.62
434.66	2616.72
434.85	2612.04
435.03	2663.53
435.22	2597.99
435.41	2703.32
435.59	2597.99
435.78	2586.29
435.97	2698.64
436.16	2752.47
436.34	2719.70
436.53	2818.00
436.72	2733.75
436.90	2686.94
437.09	2808.64
437.28	2731.41
437.46	2792.26
437.65	2778.22
437.84	2761.83
438.02	2736.09
438.21	2825.03
438.40	2754.81
438.58	2953.76
438.77	2956.10
438.96	2902.26
439.14	2888.22
439.33	2965.46
439.52	3082.49
439.70	3070.78
439.89	2972.48
440.08	2995.89
440.26	2995.89
440.45	3049.72
440.63	3098.87
440.82	3021.63
441.01	3159.72
441.19	3150.36
441.38	3178.45
441.57	3166.74
441.75	3253.34
441.94	3382.07
442.12	3199.51
442.31	3316.54
442.50	3314.20
442.68	3293.13
442.87	3199.51
443.05	3328.24
443.24	3370.37
443.43	3309.52
443.61	3370.37
443.80	3578.68
443.98	3396.12
444.17	3426.54
444.35	3342.28
444.54	3536.55
444.73	3442.93
444.91	3431.23
445.10	3435.91
445.28	3295.47
445.47	3447.61
445.65	3534.21
445.84	3506.12
446.02	3421.86
446.21	3459.31
446.39	3482.72
446.58	3552.93
446.77	3456.97
446.95	3468.67
447.14	3487.40
447.32	3634.85
447.51	3536.55
447.69	3438.25
447.88	3508.46
448.06	3566.98
448.25	3770.60
448.43	3641.87
448.62	3641.87
448.80	3494.42
448.99	3637.19
449.17	3524.85
449.36	3648.90
449.54	3634.85
449.73	3712.09
449.91	3822.09
450.10	3754.22
450.28	3786.99
450.46	3733.15
450.65	3765.92
450.83	3754.22
451.02	3852.52
451.20	3744.86
451.39	3873.59
451.57	3709.75
451.76	3691.02
451.94	3852.52
452.13	3784.65
452.31	3943.80
452.49	3941.46
452.68	3882.95
452.86	4035.08
453.05	4028.06
453.23	3969.55
453.42	3817.41
453.60	3955.51
453.78	4138.07
453.97	3941.46
454.15	4035.08
454.34	3992.95
454.52	3967.21
454.70	3880.61
454.89	4105.30
455.07	4060.83
455.26	4173.18
455.44	4091.26
455.62	4238.71
455.81	3997.64
455.99	4086.58
456.17	4177.86
456.36	4070.19
456.54	4262.12
456.73	4285.52
456.91	4388.50
457.09	4285.52
457.28	4297.22
457.46	4360.42
457.64	4290.20
457.83	4369.78
458.01	4313.61
458.19	4454.04
458.38	4320.63
458.56	4475.10
458.74	4519.57
458.93	4393.19
459.11	4510.21
459.29	4435.32
459.48	4374.46
459.66	4430.63
459.84	4491.49
460.03	4592.13
460.21	4477.44
460.39	4463.40
460.57	4521.92
460.76	4432.97
460.94	4760.65
461.12	4692.77
461.31	4617.88
461.49	4641.28
461.67	4617.88
461.85	4805.12
462.04	4568.73
462.22	4678.73
462.40	4688.09
462.59	4777.03
462.77	4589.79
462.95	4739.58
463.13	4954.91
463.32	4791.08
463.50	4732.56
463.68	4922.15
463.86	4837.89
464.05	4784.06
464.23	4840.23
464.41	4889.38
464.59	4865.97
464.78	4954.91
464.96	4849.59
465.14	4905.76
465.32	4887.04
465.50	4919.81
465.69	5116.41
465.87	4952.57
466.05	4870.65
466.23	4992.36
466.41	5018.11
466.60	5135.14
466.78	5142.16
466.96	5071.94
467.14	4938.53
467.32	5203.01
467.51	5128.11
467.69	4994.70
467.87	5179.61
468.05	5181.95
468.23	5097.69
468.41	5277.91
468.60	5259.18
468.78	5404.30
468.96	5160.88
469.14	5160.88
469.32	5301.31
469.50	5179.61
469.69	5582.18
469.87	5486.22
470.05	5458.13
470.23	5462.81
470.41	5497.92
470.59	5446.43
470.77	5469.83
470.95	5558.77
471.14	5584.52
471.32	5568.13
471.50	5659.42
471.68	5678.14
471.86	5743.67
472.04	5708.57
472.22	5830.27
472.40	5729.63
472.58	5657.07
472.77	5877.09
472.95	5781.12
473.13	5959.00
473.31	5738.99
473.49	5717.93
473.67	5973.05
473.85	5832.62
474.03	6050.28
474.21	5891.13
474.39	6090.07
474.57	6242.21
474.75	6251.57
474.93	6188.38
475.12	6045.60
475.30	6214.12
475.48	6270.30
475.66	6324.13
475.84	6441.15
476.02	6382.64
476.20	6534.78
476.38	6361.58
476.56	6553.50
476.74	6726.70
476.92	6572.22
477.10	6647.12
477.28	6717.34
477.46	6794.58
477.64	6771.17
477.82	6883.52
478.00	6974.80
478.18	7096.50
478.36	6993.52
478.54	6960.75
478.72	7152.68
478.90	7269.70
479.08	7148.00
479.26	7204.17
479.44	7382.05
479.62	7398.43
479.80	7485.03
479.98	7454.61
480.16	7641.85
480.34	7407.80
480.52	7599.72
480.70	7700.36
480.88	7517.80
481.06	7749.51
481.24	7597.38
481.41	7822.07
481.59	8170.81
481.77	7871.22
481.95	8217.62
482.13	8065.49
482.31	8222.30
482.49	8372.10
482.67	8255.07
482.85	8456.36
483.03	8482.10
483.21	8564.02
483.39	8610.83
483.57	8498.49
483.74	8472.74
483.92	8751.26
484.10	8538.27
484.28	8711.47
484.46	8990.00
484.64	9160.86
484.82	9163.20
485.00	9015.74
485.18	9317.67
485.35	9406.61
485.53	9455.76
485.71	9411.29
485.89	9624.28
486.07	9432.36
486.25	9703.86
486.43	9823.23
486.61	9795.14
486.78	9900.47
486.96	10061.96
487.14	9994.09
487.32	9994.09
487.50	10260.91
487.68	10246.87
487.85	10501.98
488.03	10579.22
488.21	10750.08
488.39	10803.91
488.57	10600.29
488.75	10752.42
488.92	10764.12
489.10	11084.78
489.28	10925.62
489.46	11108.18
489.64	10890.51
489.81	11241.59
489.99	11110.52
490.17	11281.38
490.35	11552.88
490.53	11513.10
490.70	11393.73
490.88	11861.84
491.06	11915.67
491.24	12032.69
491.41	11868.86
491.59	12032.69
491.77	12037.38
491.95	12128.66
492.13	12065.46
492.30	12280.79
492.48	12465.69
492.66	12461.01
492.84	12552.29
493.01	12449.31
493.19	12879.97
493.37	12915.08
493.54	12737.20
493.72	12856.56
493.90	12889.33
494.08	13116.36
494.25	13149.13
494.43	12973.59
494.61	13373.82
494.79	13493.19
494.96	13479.15
495.14	13350.42
495.32	13366.80
495.49	13558.72
495.67	13565.74
495.85	13657.03
496.02	13778.73
496.20	13755.33
496.38	14061.94
496.55	14036.19
496.73	14310.04
496.91	14384.93
497.09	14366.21
497.26	14260.88
497.44	14190.67
497.62	14457.49
497.79	14813.25
497.97	14743.03
498.14	14703.25
498.32	14862.40
498.50	14862.40
498.67	15136.24
498.85	14944.32
499.03	14963.04
499.20	14977.09
499.38	15290.72
499.56	15236.89
499.73	15459.24
499.91	15655.84
500.08	15515.41
500.26	15229.87
500.44	15442.85
500.61	15396.04
500.79	15538.82
500.97	15688.61
501.14	16346.30
501.32	15868.83
501.49	15922.66
501.67	15709.68
501.84	16161.40
502.02	15988.20
502.20	16161.40
502.37	16301.83
502.55	16304.17
502.72	16184.80
502.90	16243.32
503.07	15964.79
503.25	16215.23
503.43	16306.51
503.60	16783.98
503.78	16587.38
503.95	16673.98
504.13	16716.11
504.30	16671.64
504.48	16673.98
504.65	16664.61
504.83	17214.64
505.01	17151.45
505.18	16828.45
505.36	17298.90
505.53	17245.07
505.71	16901.01
505.88	16985.27
506.06	17118.68
506.23	17441.67
506.41	17359.75
506.58	17259.11
506.76	17561.04
506.93	17652.32
507.11	17444.01
507.28	17385.50
507.46	17652.32
507.63	17806.80
507.81	18003.40
507.98	17855.95
508.16	17565.72
508.33	18036.17
508.50	18052.55
508.68	18104.04
508.85	18169.58
509.03	18090.00
509.20	18148.51
509.38	18569.81
509.55	18345.12
509.73	18490.23
509.90	18359.16
510.08	18717.26
510.25	18244.48
510.42	18602.58
510.60	18373.21
510.77	18661.09
510.95	18731.31
511.12	18703.22
511.30	18956.00
511.47	19126.86
511.64	19197.07
511.82	19241.54
511.99	18925.57
512.17	19218.14
512.34	19325.80
512.51	19246.23
512.69	19234.52
512.86	19103.45
513.04	19456.87
513.21	19255.59
513.38	19562.20
513.56	19473.26
513.73	19445.17
513.90	19260.27
514.08	19283.67
514.25	19770.51
514.43	19941.36
514.60	19840.72
514.77	19967.11
514.95	19950.73
515.12	19932.00
515.29	19669.86
515.47	20044.35
515.64	20308.83
515.81	20037.33
515.99	20210.53
516.16	20369.68
516.33	20208.19
516.51	20386.07
516.68	20610.76
516.85	20470.33
517.03	20269.04
517.20	20954.82
517.37	20292.44
517.54	20540.54
517.72	20821.41
517.89	20725.44
518.06	20788.64
518.24	20477.35
518.41	20655.23
518.58	20959.50
518.75	20835.45
518.93	21280.15
519.10	21109.29
519.27	21081.21
519.45	21092.91
519.62	21067.16
519.79	21106.95
519.96	21443.99
520.14	21097.59
520.31	21516.54
520.48	21659.32
520.65	21326.96
520.83	21516.54
521.00	21355.05
521.17	21490.80
521.34	21525.91
521.52	21598.46
521.69	21701.45
521.86	21984.65
522.03	21909.75
522.20	21752.94
522.38	22001.04
522.55	21961.25
522.72	22085.30
522.89	21935.50
523.07	22417.65
523.24	22155.51
523.41	22492.55
523.58	22216.36
523.75	22155.51
523.92	22302.96
524.10	22382.54
524.27	22040.82
524.44	22747.67
524.61	22597.87
524.78	22455.10
524.96	22445.74
525.13	22574.47
525.30	22569.79
525.47	22742.99
525.64	22937.25
525.81	22506.59
525.98	22738.30
526.16	22670.43
526.33	22850.65
526.50	23152.58
526.67	22738.30
526.84	22939.59
527.01	22902.14
527.18	23145.56
527.36	22958.31
527.53	23094.07
527.70	23185.35
527.87	23253.22
528.04	23410.04
528.21	23431.10
528.38	23262.58
528.55	23611.32
528.72	23388.97
528.89	23548.13
529.07	23381.95
529.24	23470.89
529.41	23583.24
529.58	23527.06
529.75	23386.63
529.92	23917.93
530.09	23494.30
530.26	23838.36
530.43	23917.93
530.60	23623.03
530.77	23847.72
530.94	23910.91
531.11	23828.99
531.28	23758.78
531.46	23683.88
531.63	24166.03
531.80	24236.25
531.97	24053.69
532.14	24140.29
532.31	24177.73
532.48	24175.39
532.65	24308.80
532.82	24416.47
532.99	24226.89
533.16	24276.04
533.33	24556.90
533.50	24664.57
533.67	24669.25
533.84	24329.87
534.01	24673.93
534.18	24329.87
534.35	24231.57
534.52	24348.59
534.69	25008.62
534.86	24678.61
535.03	24603.71
535.20	24453.92
535.37	24821.38
535.54	24936.07
535.71	24809.68
535.88	25193.53
536.05	24849.47
536.22	25008.62
536.38	25125.65
536.55	25301.19
536.72	25198.21
536.89	25064.80
537.06	25294.17
537.23	25415.88
537.40	25200.55
537.57	25015.65
537.74	25188.85
537.91	25738.87
538.08	25507.16
538.25	25305.87
538.42	25380.77
538.59	25488.43
538.75	25355.02
538.92	25397.15
539.09	25509.50
539.26	25773.98
539.43	25940.16
539.60	25905.05
539.77	25584.40
539.94	25607.80
540.11	25717.81
540.28	25759.94
540.44	25752.91
540.61	25123.31
540.78	25685.04
540.95	25783.34
541.12	26164.85
541.29	25750.57
541.46	25523.54
541.62	25825.47
541.79	25883.98
541.96	25795.04
542.13	25649.93
542.30	26059.52
542.47	26162.51
542.63	26216.34
542.80	26431.67
542.97	26604.87
543.14	26356.77
543.31	25979.95
543.48	26345.07
543.64	26434.01
543.81	26590.83
543.98	26607.21
544.15	26438.69
544.32	26632.96
544.48	27072.98
544.65	26721.90
544.82	26661.04
544.99	26335.71
545.16	26754.66
545.32	26572.10
545.49	27047.23
545.66	26415.29
545.83	27122.13
546.00	27262.56
546.16	27072.98
546.33	26693.81
546.50	26705.51
546.67	26995.74
546.83	26801.47
547.00	26984.04
547.17	27047.23
547.34	27180.64
547.50	27199.37
547.67	27042.55
547.84	27419.38
548.00	27197.02
548.17	27421.72
548.34	27594.92
548.51	27431.08
548.67	27508.32
548.84	27606.62
549.01	27536.40
549.18	27311.71
549.34	26944.25
549.51	27407.67
549.68	27768.12
549.84	27164.26
550.01	27351.50
550.18	27372.57
550.34	27433.42
550.51	27861.74
550.68	27864.08
550.84	27356.18
551.01	27569.17
551.18	27611.30
551.34	27517.68
551.51	27803.22
551.68	27545.76
551.84	27981.10
552.01	27531.72
552.18	27688.54
552.34	28137.92
552.51	27859.40
552.68	27634.71
552.84	27950.68
553.01	27704.92
553.18	27763.43
553.34	28208.14
553.51	27807.90
553.67	28250.27
553.84	28226.86
554.01	28601.35
554.17	27751.73
554.34	28355.59
554.51	28294.74
554.67	28105.15
554.84	28400.06
555.00	28098.13
555.17	28109.83
555.33	28430.49
555.50	28353.25
555.67	28505.38
555.83	28142.60
556.00	28486.66
556.16	28952.43
556.33	28744.12
556.50	28128.56
556.66	28596.67
556.83	28173.03
556.99	28627.09
557.16	28753.48
557.32	28765.18
557.49	28662.20
557.65	28348.57
557.82	28252.61
557.98	28589.64
558.15	28477.30
558.32	28795.61
558.48	28699.65
558.65	29289.46
558.81	28739.44
558.98	28680.92
559.14	28826.04
559.31	28430.49
559.47	28474.96
559.64	28788.59
559.80	28512.41
559.97	29263.72
560.13	28694.97
560.30	28900.94
560.46	29226.27
560.63	28821.36
560.79	29263.72
560.96	28989.88
561.12	28638.80
561.29	28741.78
561.45	29216.91
561.61	28968.81
561.78	28819.02
561.94	29532.88
562.11	29514.16
562.27	29106.90
562.44	29060.09
562.60	29134.99
562.77	29202.86
562.93	28781.57
563.10	29340.96
563.26	29027.32
563.42	29631.18
563.59	29186.48
563.75	29230.95
563.92	29069.45
564.08	29205.20
564.24	29165.42
564.41	28840.08
564.57	29338.62
564.74	29434.58
564.90	29486.07
565.07	29631.18
565.23	29310.53
565.39	29280.10
565.56	29188.82
565.72	29287.12
565.88	29130.31
566.05	29060.09
566.21	29186.48
566.38	29050.73
566.54	29287.12
566.70	29542.24
566.87	29773.95
567.03	29481.39
567.19	29425.22
567.36	29619.48
567.52	29216.91
567.68	29621.82
567.85	29298.83
568.01	29472.03
568.17	29422.87
568.34	29394.79
568.50	29699.06
568.66	29687.36
568.83	29879.28
568.99	29645.23
569.15	29551.60
569.32	29731.83
569.48	29156.05
569.64	29310.53
569.81	29776.30
569.97	29589.05
570.13	29755.23
570.30	29392.45
570.46	29741.19
570.62	29759.91
570.78	29546.92
570.95	29535.22
571.11	29486.07
571.27	29415.85
571.43	29200.52
571.60	29628.84
571.76	29626.50
571.92	29717.78
572.09	30108.65
572.25	29500.11
572.41	29811.40
572.57	30045.46
572.74	30080.56
572.90	29841.83
573.06	29528.20
573.22	29406.49
573.38	30052.48
573.55	29553.94
573.71	29460.32
573.87	30022.05
574.03	29867.58
574.20	29635.86
574.36	29635.86
574.52	29713.10
574.68	29603.10
574.84	29895.66
575.01	30071.20
575.17	29631.18
575.33	29944.81
575.49	29977.58
575.65	30120.35
575.82	30059.50
575.98	29577.35
576.14	29661.61
576.30	29699.06
576.46	29919.07
576.62	29649.91
576.79	29907.37
576.95	29670.97
577.11	29977.58
577.27	30260.79
577.43	29661.61
577.59	29888.64
577.75	30120.35
577.92	29680.33
578.08	29600.76
578.24	29638.20
578.40	29888.64
578.56	29734.17
578.72	29895.66
578.88	30232.70
579.04	29954.18
579.21	29848.85
579.37	29933.11
579.53	29832.47
579.69	29689.70
579.85	29923.75
580.01	29832.47
580.17	29956.52
580.33	29759.91
580.49	29944.81
580.65	29961.20
580.82	30209.29
580.98	30122.69
581.14	29914.39
581.30	30277.17
581.46	29984.60
581.62	30008.01
581.78	30225.68
581.94	29823.11
582.10	30162.48
582.26	29916.73
582.42	30298.23
582.58	30148.44
582.74	29942.47
582.90	30415.26
583.06	30022.05
583.22	30155.46
583.38	29780.98
583.54	29935.45
583.70	29935.45
583.86	29635.86
584.02	30008.01
584.18	30019.71
584.34	30101.63
584.50	30022.05
584.66	30223.34
584.82	29640.54
584.98	30022.05
585.14	30169.51
585.30	29900.34
585.46	30178.87
585.62	29865.24
585.78	30298.23
585.94	30244.40
586.10	30061.84
586.26	30309.94
586.42	30504.20
586.58	30293.55
586.74	30155.46
586.90	30300.58
587.06	29909.71
587.22	30157.80
587.38	30192.91
587.54	30197.59
587.70	30253.76
587.86	30607.19
588.02	30581.44
588.18	30586.12
588.34	30000.99
588.49	30143.76
588.65	30295.89
588.81	30307.60
588.97	30441.01
589.13	30309.94
589.29	30089.93
589.45	30302.92
589.61	30506.54
589.77	30602.50
589.93	30768.68
590.08	30480.80
590.24	30646.97
590.40	30450.37
590.56	30590.80
590.72	30525.27
590.88	30314.62
591.04	30061.84
591.20	30733.57
591.35	30490.16
591.51	30742.94
591.67	30824.86
591.83	30953.58
591.99	30534.63
592.15	30375.47
592.31	30457.39
592.46	30312.28
592.62	30113.33
592.78	30213.98
592.94	30682.08
593.10	30448.03
593.26	30824.86
593.41	30455.05
593.57	30286.53
593.73	30635.27
593.89	30920.82
594.05	30361.43
594.20	30595.48
594.36	30593.14
594.52	30499.52
594.68	30630.59
594.84	30401.22
594.99	30590.80
595.15	30078.22
595.31	30883.37
595.47	30611.87
595.62	30815.49
595.78	30480.80
595.94	30801.45
596.10	30642.29
596.25	30609.53
596.41	30906.77
596.57	30223.34
596.73	30417.60
596.88	30274.83
597.04	30787.41
597.20	30939.54
597.36	30944.22
597.51	30984.01
597.67	30822.51
597.83	30607.19
597.99	30665.70
598.14	30321.64
598.30	30766.34
598.46	30487.82
598.61	30768.68
598.77	31002.74
598.93	30691.44
599.09	30682.08
599.24	30909.11
599.40	31070.61
599.56	30925.50
599.71	30616.55
599.87	31101.04
600.03	30462.07
600.18	30679.74
600.34	30686.76
600.50	30642.29
600.65	30473.78
600.81	30827.20
600.97	30583.78
601.12	30852.94
601.28	30405.90
601.44	30986.35
601.59	30988.69
601.75	30623.57
601.91	30618.89
602.06	30314.62
602.22	30443.35
602.37	30675.06
602.53	30866.98
602.69	31101.04
602.84	30815.49
603.00	30651.66
603.16	30813.15
603.31	30551.01
603.47	30703.15
603.62	30862.30
603.78	30604.84
603.94	30450.37
604.09	30499.52
604.25	30792.09
604.40	30733.57
604.56	30398.88
604.71	30590.80
604.87	30857.62
605.03	31068.27
605.18	30895.07
605.34	30670.38
605.49	30508.88
605.65	30396.54
605.80	30487.82
605.96	30803.79
606.12	30574.42
606.27	30682.08
606.43	30405.90
606.58	30579.10
606.74	30558.03
606.89	30799.11
607.05	30726.55
607.20	31197.00
607.36	30969.97
607.51	30438.67
607.67	30298.23
607.82	30122.69
607.98	30569.74
608.13	30380.15
608.29	30506.54
608.44	30548.67
608.60	30775.70
608.75	30733.57
608.91	30646.97
609.06	30679.74
609.22	30689.10
609.37	30300.58
609.53	30157.80
609.68	30382.49
609.84	29989.28
609.99	29893.32
610.15	30342.70
610.30	30199.93
610.46	30541.65
610.61	30543.99
610.76	30441.01
610.92	30558.03
611.07	30438.67
611.23	30005.67
611.38	30492.50
611.54	30331.00
611.69	30202.27
611.84	30110.99
612.00	30466.75
612.15	29954.18
612.31	30071.20
612.46	29954.18
612.62	30529.95
612.77	29986.94
612.92	30668.04
613.08	30183.55
613.23	30286.53
613.39	30052.48
613.54	30139.08
613.69	29979.92
613.85	29958.86
614.00	30064.18
614.15	30342.70
614.31	29867.58
614.46	30441.01
614.62	30005.67
614.77	30038.44
614.92	30361.43
615.08	30019.71
615.23	30087.59
615.38	30199.93
615.54	30192.91
615.69	29802.04
615.84	29427.56
616.00	29792.68
616.15	29692.04
616.30	29998.65
616.46	29759.91
616.61	29755.23
616.76	30043.12
616.92	29773.95
617.07	30064.18
617.22	29694.38
617.37	30008.01
617.53	29853.53
617.68	30000.99
617.83	29659.27
617.99	29670.97
618.14	29881.62
618.29	29060.09
618.45	29788.00
618.60	29537.56
618.75	30057.16
618.90	29876.94
619.06	29497.77
619.21	29745.87
619.36	29270.74
619.51	29713.10
619.67	29542.24
619.82	29268.40
619.97	29523.52
620.12	29762.25
620.28	29233.29
620.43	30052.48
620.58	29392.45
620.73	29076.48
620.89	29792.68
621.04	29460.32
621.19	29991.62
621.34	29139.67
621.49	29017.96
621.65	29338.62
621.80	29172.44
621.95	28964.13
622.10	29633.52
622.25	29289.46
622.41	29153.71
622.56	29411.17
622.71	29530.54
622.86	29394.79
623.01	29008.60
623.16	29420.53
623.32	28989.88
623.47	29020.30
623.62	29207.55
623.77	29338.62
623.92	29230.95
624.07	28903.28
624.23	28833.06
624.38	29113.92
624.53	29139.67
624.68	29006.26
624.83	29055.41
624.98	29153.71
625.13	29076.48
625.29	29385.43
625.44	29177.12
625.59	28781.57
625.74	29032.00
625.89	28826.04
626.04	28535.81
626.19	28737.10
626.34	28442.19
626.49	28903.28
626.65	28940.72
626.80	28875.19
626.95	28790.93
627.10	28566.24
627.25	28816.68
627.40	28697.31
627.55	28772.21
627.70	28414.10
627.85	28479.64
628.00	28652.84
628.15	28570.92
628.30	28451.55
628.45	28432.83
628.60	28837.74
628.76	28643.48
628.91	28519.43
629.06	28793.27
629.21	28460.91
629.36	28261.97
629.51	28435.17
629.66	28247.93
629.81	28315.80
629.96	28215.16
630.11	28498.36
630.26	28568.58
630.41	28268.99
630.56	28224.52
630.71	28423.47
630.86	28503.04
631.01	28446.87
631.16	28472.62
631.31	28196.43
631.46	28353.25
631.61	28627.09
631.76	28350.91
631.91	28493.68
632.06	28130.90
632.21	28280.69
632.36	28304.10
632.51	27559.81
632.66	28364.95
632.81	28212.82
632.96	28287.71
633.10	28098.13
633.25	28245.58
633.40	28168.35
633.55	27969.40
633.70	27896.85
633.85	28011.53
634.00	27674.49
634.15	28100.47
634.30	27885.14
634.45	27702.58
634.60	27779.82
634.75	28077.07
634.90	27887.48
635.05	27520.02
635.19	27948.34
635.34	28046.64
635.49	28121.54
635.64	27779.82
635.79	27889.82
635.94	27901.53
636.09	28100.47
636.24	27941.32
636.39	27522.36
636.53	27534.06
636.68	27637.05
636.83	28149.62
636.98	27524.70
637.13	27660.45
637.28	27395.97
637.43	27938.97
637.57	27702.58
637.72	27283.62
637.87	27442.78
638.02	27414.69
638.17	27508.32
638.32	27510.66
638.46	27482.57
638.61	27276.60
638.76	27065.96
638.91	27358.52
639.06	27410.01
639.20	27442.78
639.35	27435.76
639.50	27491.93
639.65	27494.27
639.80	27522.36
639.94	27468.53
640.09	27260.22
640.24	27164.26
640.39	27161.92
640.54	26934.88
640.68	26902.12
640.83	27318.73
640.98	27030.85
641.13	26656.36
641.27	27356.18
641.42	27346.82
641.57	27016.80
641.72	26916.16
641.86	26885.73
642.01	26993.40
642.16	27030.85
642.31	27037.87
642.45	26939.57
642.60	26864.67
642.75	26867.01
642.90	26529.97
643.04	26721.90
643.19	26661.04
643.34	27241.50
643.48	27082.34
643.63	27061.27
643.78	26855.31
643.93	27290.65
644.07	27124.47
644.22	26845.94
644.37	27051.91
644.51	27072.98
644.66	26604.87
644.81	26738.28
644.95	26452.73
645.10	26991.06
645.25	26787.43
645.39	26469.12
645.54	26855.31
645.69	26483.16
645.83	26796.79
645.98	26504.23
646.13	26618.91
646.27	26888.07
646.42	26232.72
646.57	26529.97
646.71	26450.39
646.86	26654.02
647.00	26347.41
647.15	26476.14
647.30	26796.79
647.44	26405.92
647.59	26295.92
647.74	26347.41
647.88	26113.36
648.03	26541.68
648.17	26473.80
648.32	26438.69
648.47	26281.88
648.61	26473.80
648.76	26764.03
648.90	26291.24
649.05	26249.11
649.20	26302.94
649.34	25848.88
649.49	25993.99
649.63	26211.66
649.78	26267.83
649.92	26192.94
650.07	26120.38
650.21	26593.17
650.36	26202.30
650.51	26195.28
650.65	26139.10
650.80	26366.13
650.94	26089.95
651.09	26155.49
651.23	25921.43
651.38	25858.24
651.52	26015.05
651.67	25661.63
651.81	26059.52
651.96	25706.10
652.10	26274.85
652.25	26132.08
652.39	26057.18
652.54	25942.50
652.68	25975.27
652.83	26134.42
652.97	26148.46
653.12	25659.29
653.26	25439.28
653.41	25816.11
653.55	25696.74
653.70	25675.68
653.84	25408.86
653.99	25986.97
654.13	25607.80
654.27	25661.63
654.42	25738.87
654.56	25273.10
654.71	25598.44
654.85	25509.50
655.00	25933.14
655.14	25624.18
655.29	25518.86
655.43	25298.85
655.57	25495.46
655.72	25500.14
655.86	25481.41
656.01	25319.92
656.15	25216.93
656.30	25422.90
656.44	25298.85
656.58	25312.89
656.73	25544.61
656.87	25560.99
657.01	25254.38
657.16	25811.43
657.30	25628.87
657.45	25563.33
657.59	25177.14
657.73	25200.55
657.88	25214.59
658.02	25139.69
658.16	25200.55
658.31	25071.82
658.45	24994.58
658.60	24725.42
658.74	25062.46
658.88	25092.88
659.03	24999.26
659.17	25132.67
659.31	25336.30
659.46	25060.12
659.60	24987.56
659.74	25401.83
659.89	24807.34
660.03	24606.05
660.17	25001.60
660.32	24634.14
660.46	24741.80
660.60	24348.59
660.74	24624.78
660.89	24692.65
661.03	24159.01
661.17	24727.76
661.32	24732.44
661.46	24383.70
661.60	24851.81
661.74	24699.67
661.89	24912.66
662.03	24341.57
662.17	24430.51
662.31	24308.80
662.46	24676.27
662.60	24245.61
662.74	24175.39
662.88	23953.04
663.03	23805.59
663.17	23929.64
663.31	23850.06
663.45	23931.98
663.60	23733.03
663.74	24081.77
663.88	24210.50
664.02	23978.79
664.17	24290.08
664.31	23789.20
664.45	23660.48
664.59	23742.39
664.73	23775.16
664.88	24102.84
665.02	23754.10
665.16	23594.94
665.30	23522.38
665.44	23651.11
665.59	23463.87
665.73	23197.05
665.87	23353.87
666.01	23637.07
666.15	23271.95
666.29	23751.76
666.44	23695.58
666.58	23330.46
666.72	23293.01
666.86	23529.41
667.00	23346.84
667.14	23218.11
667.28	23309.40
667.43	23302.37
667.57	23410.04
667.71	22721.92
667.85	23161.94
667.99	23089.38
668.13	23047.26
668.27	22888.10
668.41	23094.07
668.56	23255.56
668.70	22979.38
668.84	23194.71
668.98	22801.50
669.12	22782.77
669.26	22742.99
669.40	22623.62
669.54	23150.24
669.68	22752.35
669.82	22747.67
669.96	22436.38
670.10	22410.63
670.25	22607.23
670.39	22284.24
670.53	22408.29
670.67	22375.52
670.81	22293.60
670.95	22349.78
671.09	22419.99
671.23	22368.50
671.37	22616.60
671.51	22649.36
671.65	22312.33
671.79	22232.75
671.93	22108.70
672.07	22293.60
672.21	22029.12
672.35	22244.45
672.49	22010.40
672.63	21869.97
672.77	21923.80
672.91	22003.38
673.05	21844.22
673.19	21956.57
673.33	21600.80
673.47	21436.97
673.61	21671.02
673.75	21781.03
673.89	21678.04
674.03	21060.14
674.17	21436.97
674.31	21666.34
674.45	21284.83
674.59	21216.96
674.73	21280.15
674.87	21249.72
675.01	21240.36
675.15	21242.70
675.29	20929.07
675.43	21102.27
675.56	20821.41
675.70	20783.96
675.84	21029.71
675.98	20493.73
676.12	20779.28
676.26	20713.74
676.40	20980.56
676.54	20844.81
676.68	20610.76
676.82	20695.02
676.96	20430.54
677.10	20278.40
677.23	20587.35
677.37	20236.27
677.51	20276.06
677.65	20201.16
677.79	20084.14
677.93	20063.07
678.07	20067.75
678.21	20095.84
678.34	20018.60
678.48	19669.86
678.62	19934.34
678.76	19772.85
678.90	19936.68
679.04	19709.65
679.18	19688.59
679.31	19377.30
679.45	19438.15
679.59	19101.11
679.73	19236.86
679.87	19468.58
680.00	19337.51
680.14	19318.78
680.28	19349.21
680.42	19126.86
680.56	19211.12
680.70	19222.82
680.83	18991.11
680.97	19026.21
681.11	18958.34
681.25	19016.85
681.39	18698.54
681.52	18864.72
681.66	18712.58
681.80	18457.46
681.94	18473.85
682.07	18508.96
682.21	18321.71
682.35	18125.11
682.49	18059.57
682.62	17975.31
682.76	18155.54
682.90	18118.09
683.04	18066.60
683.17	18216.39
683.31	18047.87
683.45	18361.50
683.59	17928.50
683.72	17961.27
683.86	17940.21
684.00	17867.65
684.13	17516.57
684.27	17862.97
684.41	17507.21
684.55	17312.94
684.68	17415.93
684.82	17013.35
684.96	17483.80
685.09	17263.79
685.23	17205.28
685.37	17071.87
685.50	16882.28
685.64	17057.82
685.78	17055.48
685.91	17137.40
686.05	17050.80
686.19	16844.84
686.32	17144.42
686.46	16343.96
686.60	16407.16
686.73	16889.31
686.87	16608.44
687.01	16423.54
687.14	16514.82
687.28	16472.69
687.42	16395.45
687.55	16334.60
687.69	16116.93
687.82	15896.92
687.96	16264.38
688.10	16133.31
688.23	16313.53
688.37	15932.03
688.50	16081.82
688.64	15901.60
688.78	15943.73
688.91	15803.30
689.05	15955.43
689.18	15728.40
689.32	15456.90
689.46	15786.91
689.59	15573.92
689.73	15653.50
689.86	15459.24
690.00	15576.27
690.13	15250.93
690.27	15290.72
690.41	15784.57
690.54	15178.37
690.68	14925.60
690.81	15098.80
690.95	14883.47
691.08	15026.24
691.22	14668.14
691.35	14675.16
691.49	14745.38
691.62	14834.32
691.76	14956.02
691.89	14464.51
692.03	14504.30
692.16	14429.40
692.30	14394.29
692.43	14520.68
692.57	14539.41
692.70	14417.70
692.84	14160.24
692.97	14284.29
693.11	14146.20
693.24	14274.93
693.38	14155.56
693.51	14017.47
693.65	13951.93
693.78	13865.33
693.92	14094.71
694.05	13982.36
694.19	13774.05
694.32	13645.32
694.45	13547.02
694.59	13228.71
694.72	13434.68
694.86	13266.16
694.99	13151.47
695.13	13383.18
695.26	13315.31
695.39	13322.33
695.53	13139.77
695.66	13181.90
695.80	13071.89
695.93	13261.48
696.07	12912.74
696.20	13270.84
696.33	12814.43
696.47	12781.67
696.60	12999.34
696.73	12793.37
696.87	12751.24
697.00	12844.86
697.14	12526.55
697.27	12313.56
697.40	12435.27
697.54	12245.68
697.67	12458.67
697.80	12423.56
697.94	12198.87
698.07	12156.74
698.21	12201.21
698.34	12271.43
698.47	12341.64
698.61	12386.12
698.74	12325.26
698.87	12044.40
699.01	11901.62
699.14	11903.96
699.27	11793.96
699.40	11964.82
699.54	11772.89
699.67	11709.70
699.80	11318.83
699.94	11639.48
700.07	11346.92
700.20	11424.15
700.34	11496.71
700.47	11311.81
700.60	11187.76
700.73	11459.26
700.87	11337.56
701.00	11199.46
701.13	11295.43
701.26	11295.43
701.40	11131.59
701.53	11248.61
701.66	11096.48
701.79	10974.77
701.93	10991.16
702.06	10810.93
702.19	10815.62
702.32	10614.33
702.46	10626.03
702.59	10654.12
702.72	10504.32
702.85	10406.02
702.99	10534.75
703.12	10406.02
703.25	10415.38
703.38	10534.75
703.51	10441.13
703.65	10108.77
703.78	10265.59
703.91	10202.40
704.04	10469.22
704.17	10267.93
704.31	10050.26
704.44	10146.22
704.57	10157.92
704.70	9703.86
704.83	9994.09
704.96	9914.51
705.10	9771.74
705.23	9827.91
>>>>>End Processed Spectral Data<<<<<
