SpectraSuite Data File
++++++++++++++++++++++++++++++++++++
Date: Fri Oct 18 13:58:21 GMT-05:00 2013
User: bianchi
Dark Spectrum Present: No
Reference Spectrum Present: No
Number of Sampled Component Spectra: 1
Spectrometers: USB2+H05261
Integration Time (usec): 50000 (USB2+H05261)
Spectra Averaged: 1 (USB2+H05261)
Boxcar Smoothing: 0 (USB2+H05261)
Correct for Electrical Dark: No (USB2+H05261)
Strobe/Lamp Enabled: No (USB2+H05261)
Correct for Detector Non-linearity: No (USB2+H05261)
Correct for Stray Light: No (USB2+H05261)
Number of Pixels in Processed Spectrum: 2048
>>>>>Begin Processed Spectral Data<<<<<
365.73	0.00
365.92	0.00
366.12	0.00
366.32	0.00
366.52	0.00
366.72	0.00
366.91	0.00
367.11	0.00
367.31	0.00
367.51	0.00
367.70	0.00
367.90	0.00
368.10	0.00
368.30	0.00
368.49	0.00
368.69	0.00
368.89	0.00
369.09	0.00
369.28	0.00
369.48	0.00
369.68	0.00
369.87	0.00
370.07	0.00
370.27	0.00
370.47	0.00
370.66	70.22
370.86	95.96
371.06	114.69
371.25	163.84
371.45	135.75
371.65	145.11
371.84	163.84
372.04	86.60
372.24	145.11
372.44	149.79
372.63	159.16
372.83	110.01
373.03	252.78
373.22	191.92
373.42	224.69
373.62	187.24
373.81	283.20
374.01	269.16
374.21	215.33
374.40	250.44
374.60	250.44
374.79	241.08
374.99	231.71
375.19	294.91
375.38	243.42
375.58	196.60
375.78	217.67
375.97	252.78
376.17	344.06
376.37	262.14
376.56	278.52
376.76	280.86
376.95	304.27
377.15	217.67
377.35	404.91
377.54	147.45
377.74	278.52
377.93	215.33
378.13	238.73
378.33	294.91
378.52	198.95
378.72	315.97
378.91	334.70
379.11	294.91
379.31	285.55
379.50	322.99
379.70	264.48
379.89	210.65
380.09	330.02
380.28	229.37
380.48	318.31
380.68	318.31
380.87	259.80
381.07	292.57
381.26	353.42
381.46	276.18
381.65	379.17
381.85	351.08
382.04	278.52
382.24	402.57
382.43	248.10
382.63	330.02
382.83	308.95
383.02	292.57
383.22	339.38
383.41	381.51
383.61	332.36
383.80	425.98
384.00	397.89
384.19	283.20
384.39	339.38
384.58	353.42
384.78	402.57
384.97	311.29
385.17	435.34
385.36	416.62
385.56	388.53
385.75	388.53
385.95	367.46
386.14	388.53
386.34	362.78
386.53	322.99
386.72	388.53
386.92	465.77
387.11	444.70
387.31	449.38
387.50	365.12
387.70	393.21
387.89	435.34
388.09	365.12
388.28	388.53
388.48	437.68
388.67	442.36
388.86	489.17
389.06	510.24
389.25	521.94
389.45	421.30
389.64	428.32
389.84	407.25
390.03	482.15
390.22	440.02
390.42	409.59
390.61	454.06
390.81	547.69
391.00	510.24
391.19	475.13
391.39	435.34
391.58	552.37
391.78	477.47
391.97	524.28
392.16	526.62
392.36	507.90
392.55	510.24
392.75	535.98
392.94	505.56
393.13	451.72
393.33	512.58
393.52	510.24
393.71	559.39
393.91	564.07
394.10	528.96
394.29	587.47
394.49	610.88
394.68	578.11
394.88	552.37
395.07	580.45
395.26	587.47
395.46	582.79
395.65	547.69
395.84	634.29
396.04	636.63
396.23	634.29
396.42	592.16
396.62	606.20
396.81	662.37
397.00	566.41
397.19	739.61
397.39	641.31
397.58	695.14
397.77	695.14
397.97	671.73
398.16	709.18
398.35	737.27
398.55	716.20
398.74	695.14
398.93	671.73
399.12	676.41
399.32	678.76
399.51	660.03
399.70	755.99
399.90	727.91
400.09	837.91
400.28	791.10
400.47	844.93
400.67	746.63
400.86	807.48
401.05	760.67
401.24	734.93
401.44	744.29
401.63	840.25
401.82	849.61
402.01	858.98
402.21	767.70
402.40	814.51
402.59	884.72
402.78	889.40
402.97	788.76
403.17	809.83
403.36	821.53
403.55	840.25
403.74	851.96
403.93	933.87
404.13	947.92
404.32	945.58
404.51	858.98
404.70	870.68
404.89	844.93
405.09	959.62
405.28	858.98
405.47	863.66
405.66	994.73
405.85	957.28
406.05	931.53
406.24	971.32
406.43	1027.50
406.62	1001.75
406.81	1001.75
407.00	947.92
407.20	966.64
407.39	912.81
407.58	973.66
407.77	1008.77
407.96	999.41
408.15	1013.45
408.34	1088.35
408.54	1078.99
408.73	1039.20
408.92	1048.56
409.11	1114.10
409.30	1081.33
409.49	1050.90
409.68	1081.33
409.87	1158.57
410.07	1214.74
410.26	1156.22
410.45	1130.48
410.64	1200.69
410.83	1205.38
411.02	1121.12
411.21	1249.85
411.40	1142.18
411.59	1160.91
411.78	1317.72
411.98	1334.11
412.17	1177.29
412.36	1254.53
412.55	1275.59
412.74	1324.74
412.93	1301.34
413.12	1299.00
413.31	1427.73
413.50	1373.89
413.69	1352.83
413.88	1472.20
414.07	1413.68
414.26	1399.64
414.45	1441.77
414.64	1472.20
414.83	1439.43
415.02	1519.01
415.22	1495.60
415.41	1519.01
415.60	1537.73
415.79	1572.84
415.98	1542.41
416.17	1544.75
416.36	1603.27
416.55	1565.82
416.74	1565.82
416.93	1621.99
417.12	1596.25
417.31	1617.31
417.50	1668.80
417.69	1846.68
417.88	1734.34
418.07	1804.55
418.26	1696.89
418.45	1703.91
418.64	1776.47
418.83	1722.63
419.02	1825.62
419.21	1797.53
419.39	1881.79
419.58	1809.23
419.77	1743.70
419.96	1790.51
420.15	1764.76
420.34	1837.32
420.53	1825.62
420.72	1898.17
420.91	1928.60
421.10	1921.58
421.29	1940.30
421.48	1870.09
421.67	1912.22
421.86	1881.79
422.05	2015.20
422.24	1905.20
422.43	1989.46
422.61	1923.92
422.80	2022.22
422.99	1970.73
423.18	1966.05
423.37	1926.26
423.56	1970.73
423.75	1954.35
423.94	1928.60
424.13	1912.22
424.32	1825.62
424.50	2008.18
424.69	2015.20
424.88	2148.61
425.07	1984.77
425.26	2031.58
425.45	1961.37
425.64	1921.58
425.83	2066.69
426.01	2122.87
426.20	2040.95
426.39	1970.73
426.58	2101.80
426.77	2045.63
426.96	2045.63
427.15	2111.16
427.33	2153.29
427.52	2132.23
427.71	2083.08
427.90	2108.82
428.09	2143.93
428.28	2129.89
428.46	2260.96
428.65	2118.18
428.84	2317.13
429.03	2260.96
429.22	2207.13
429.40	2169.68
429.59	2207.13
429.78	2160.31
429.97	2183.72
430.16	2160.31
430.34	2275.00
430.53	2415.43
430.72	2235.21
430.91	2239.89
431.10	2188.40
431.28	2335.85
431.47	2319.47
431.66	2499.69
431.85	2366.28
432.03	2436.50
432.22	2359.26
432.41	2331.17
432.60	2380.32
432.79	2399.05
432.97	2422.45
433.16	2520.76
433.35	2401.39
433.54	2565.23
433.72	2476.29
433.91	2497.35
434.10	2361.60
434.28	2478.63
434.47	2478.63
434.66	2588.63
434.85	2506.71
435.03	2600.34
435.22	2562.89
435.41	2640.12
435.59	2635.44
435.78	2534.80
435.97	2677.57
436.16	2710.34
436.34	2640.12
436.53	2738.43
436.72	2803.96
436.90	2677.57
437.09	2703.32
437.28	2616.72
437.46	2686.94
437.65	2623.74
437.84	2757.15
438.02	2703.32
438.21	2670.55
438.40	2780.56
438.58	2897.58
438.77	2850.77
438.96	2775.88
439.14	2958.44
439.33	2806.30
439.52	2977.16
439.70	2953.76
439.89	2995.89
440.08	3019.29
440.26	3028.65
440.45	3014.61
440.63	2920.99
440.82	2988.86
441.01	3145.68
441.19	3180.79
441.38	3150.36
441.57	3335.26
441.75	3059.08
441.94	3150.36
442.12	3316.54
442.31	3300.16
442.50	3349.31
442.68	3255.69
442.87	3253.34
443.05	3328.24
443.24	3384.41
443.43	3368.03
443.61	3389.10
443.80	3363.35
443.98	3232.28
444.17	3286.11
444.35	3414.84
444.54	3419.52
444.73	3492.08
444.91	3487.40
445.10	3353.99
445.28	3412.50
445.47	3344.63
445.65	3389.10
445.84	3386.76
446.02	3435.91
446.21	3407.82
446.39	3400.80
446.58	3499.10
446.77	3372.71
446.95	3356.33
447.14	3447.61
447.32	3566.98
447.51	3557.61
447.69	3447.61
447.88	3353.99
448.06	3529.53
448.25	3419.52
448.43	3564.64
448.62	3435.91
448.80	3522.51
448.99	3529.53
449.17	3639.53
449.36	3566.98
449.54	3620.81
449.73	3726.13
449.91	3702.73
450.10	3538.89
450.28	3613.79
450.46	3735.50
450.65	3824.44
450.83	3564.64
451.02	3723.79
451.20	3801.03
451.39	3655.92
451.57	3688.68
451.76	3658.26
451.94	3672.30
452.13	3882.95
452.31	3887.63
452.49	3779.97
452.68	3906.35
452.86	3831.46
453.05	3861.88
453.23	4009.34
453.42	3892.31
453.60	3866.56
453.78	3887.63
453.97	3922.74
454.15	3791.67
454.34	3878.27
454.52	3974.23
454.70	3873.59
454.89	4025.72
455.07	4046.79
455.26	3955.51
455.44	4138.07
455.62	3918.06
455.81	3948.48
455.99	4135.73
456.17	4086.58
456.36	4039.76
456.54	4292.54
456.73	4166.15
456.91	4442.34
457.09	4397.87
457.28	4196.58
457.46	4152.11
457.64	4334.67
457.83	4299.56
458.01	4269.14
458.19	4210.62
458.38	4290.20
458.56	4351.06
458.74	4341.69
458.93	4428.29
459.11	4498.51
459.29	4428.29
459.48	4339.35
459.66	4360.42
459.84	4484.47
460.03	4292.54
460.21	4503.19
460.39	4472.76
460.57	4421.27
460.76	4409.57
460.94	4627.24
461.12	4519.57
461.31	4582.77
461.49	4545.32
461.67	4524.26
461.85	4631.92
462.04	4692.77
462.22	4685.75
462.40	4833.21
462.59	4758.31
462.77	4746.61
462.95	4828.53
463.13	4835.55
463.32	4716.18
463.50	4737.24
463.68	4774.69
463.86	4699.80
464.05	4770.01
464.23	4704.48
464.41	4842.57
464.59	4709.16
464.78	5013.43
464.96	4835.55
465.14	4695.11
465.32	4966.62
465.50	4999.38
465.69	5020.45
465.87	4945.55
466.05	5025.13
466.23	4842.57
466.41	5032.15
466.60	5114.07
466.78	5093.01
466.96	4844.91
467.14	4901.08
467.32	4950.23
467.51	5142.16
467.69	4961.94
467.87	5060.24
468.05	5252.16
468.23	5212.37
468.41	5123.43
468.60	5121.09
468.78	5200.67
468.96	5097.69
469.14	5313.02
469.32	5294.29
469.50	5200.67
469.69	5207.69
469.87	5247.48
470.05	5369.19
470.23	5277.91
470.41	5359.83
470.59	5401.96
470.77	5563.45
470.95	5425.36
471.14	5401.96
471.32	5350.46
471.50	5591.54
471.68	5572.82
471.86	5500.26
472.04	5778.78
472.22	5659.42
472.40	5474.51
472.58	5863.04
472.77	5685.16
472.95	5657.07
473.13	5846.66
473.31	5764.74
473.49	5650.05
473.67	5893.47
473.85	5837.30
474.03	5778.78
474.21	5951.98
474.39	5898.15
474.57	6003.47
474.75	5973.05
474.93	6059.65
475.12	6040.92
475.30	6183.70
475.48	6111.14
475.66	6076.03
475.84	6169.65
476.02	6363.92
476.20	6321.79
476.38	6555.84
476.56	6581.59
476.74	6612.01
476.92	6317.11
477.10	6497.33
477.28	6579.25
477.46	6476.26
477.64	6604.99
477.82	6661.16
478.00	6787.55
478.18	6965.43
478.36	7030.97
478.54	6998.20
478.72	6930.33
478.90	6913.94
479.08	7290.77
479.26	7253.32
479.44	7253.32
479.62	7281.41
479.80	7349.28
479.98	7248.64
480.16	7396.09
480.34	7564.61
480.52	7576.31
480.70	7634.83
480.88	7524.82
481.06	7597.38
481.24	7515.46
481.41	7653.55
481.59	7845.48
481.77	8114.64
481.95	7815.05
482.13	7845.48
482.31	8067.83
482.49	8142.72
482.67	8243.37
482.85	8252.73
483.03	8521.89
483.21	8388.48
483.39	8685.73
483.57	8461.04
483.74	8437.63
483.92	8629.56
484.10	8528.91
484.28	8734.88
484.46	8990.00
484.64	9015.74
484.82	8896.38
485.00	9001.70
485.18	9261.50
485.35	9458.10
485.53	9245.12
485.71	9210.01
485.89	9626.62
486.07	9364.48
486.25	9593.86
486.43	9638.33
486.61	9701.52
486.78	9799.82
486.96	9870.04
487.14	9933.23
487.32	9753.01
487.50	9881.74
487.68	10061.96
487.85	10225.80
488.03	10331.12
488.21	10630.71
488.39	10548.79
488.57	10700.93
488.75	10551.14
488.92	10602.63
489.10	10771.15
489.28	10672.84
489.46	11037.97
489.64	10927.96
489.81	11220.53
489.99	11269.68
490.17	11033.29
490.35	11510.75
490.53	11396.07
490.70	11672.25
490.88	11466.28
491.06	11536.50
491.24	11611.40
491.41	11824.39
491.59	11630.12
491.77	11777.58
491.95	12006.95
492.13	11964.82
492.30	12020.99
492.48	12154.40
492.66	12175.47
492.84	12233.98
493.01	12414.20
493.19	12505.48
493.37	12535.91
493.54	12585.06
493.72	12603.78
493.90	12641.23
494.08	12716.13
494.25	12847.20
494.43	13015.72
494.61	13174.88
494.79	13069.55
494.96	13118.70
495.14	13247.43
495.32	13504.89
495.49	13294.24
495.67	13135.09
495.85	13628.94
496.02	13678.09
496.20	13661.71
496.38	13748.31
496.55	13774.05
496.73	14015.13
496.91	13994.06
497.09	13947.25
497.26	14232.80
497.44	14155.56
497.62	14045.55
497.79	14445.79
497.97	14270.25
498.14	14501.96
498.32	14614.30
498.50	14651.75
498.67	14899.85
498.85	14492.60
499.03	14831.97
499.20	14871.76
499.38	14792.19
499.56	14967.73
499.73	14960.70
499.91	15295.40
500.08	15356.25
500.26	15161.99
500.44	15316.47
500.61	15204.12
500.79	15421.79
500.97	15545.84
501.14	15583.29
501.32	15917.98
501.49	15604.35
501.67	15613.71
501.84	15733.08
502.02	15868.83
502.20	15908.62
502.37	16070.12
502.55	16011.60
502.72	15637.12
502.90	16224.59
503.07	15955.43
503.25	16269.06
503.43	16182.46
503.60	16418.86
503.78	16278.43
503.95	16358.00
504.13	16245.66
504.30	16491.41
504.48	16484.39
504.65	16475.03
504.83	16659.93
505.01	16863.56
505.18	16753.55
505.36	16816.75
505.53	17027.40
505.71	16800.37
505.88	16893.99
506.06	16727.81
506.23	17378.48
506.41	17275.49
506.58	17149.11
506.76	17458.06
506.93	17195.92
507.11	17270.81
507.28	17369.12
507.46	17343.37
507.63	17439.33
507.81	17523.59
507.98	17591.47
508.16	17645.30
508.33	17586.79
508.50	17731.90
508.68	17937.87
508.85	17799.77
509.03	17818.50
509.20	17949.57
509.38	18265.54
509.55	18548.75
509.73	18090.00
509.90	18441.08
510.08	18118.09
510.25	18192.98
510.42	18176.60
510.60	18436.40
510.77	18497.25
510.95	18679.82
511.12	18679.82
511.30	18434.06
511.47	18562.79
511.64	18743.01
511.82	18869.40
511.99	18703.22
512.17	19178.35
512.34	19257.93
512.51	19117.50
512.69	18869.40
512.86	18927.91
513.04	19442.83
513.21	18977.06
513.38	19197.07
513.56	19211.12
513.73	19250.91
513.90	19089.41
514.08	19358.57
514.25	19676.88
514.43	19580.92
514.60	19442.83
514.77	19627.73
514.95	19784.55
515.12	19426.45
515.29	19627.73
515.47	19681.56
515.64	19950.73
515.81	20039.67
515.99	20067.75
516.16	19957.75
516.33	20046.69
516.51	20196.48
516.68	19847.74
516.85	20065.41
517.03	20119.24
517.20	20311.17
517.37	20287.76
517.54	20285.42
517.72	20472.67
517.89	20290.10
518.06	20318.19
518.24	20517.14
518.41	20437.56
518.58	20482.03
518.75	20376.70
518.93	20446.92
519.10	20751.19
519.27	20627.14
519.45	20875.24
519.62	20664.59
519.79	20765.23
519.96	20671.61
520.14	21074.18
520.31	21067.16
520.48	20919.71
520.65	21174.83
520.83	21226.32
521.00	21205.25
521.17	21144.40
521.34	21165.46
521.52	21238.02
521.69	21223.98
521.86	21256.75
522.03	21703.79
522.20	21298.88
522.38	21469.73
522.55	21383.13
522.72	21305.90
522.89	21799.75
523.07	22043.17
523.24	21656.98
523.41	22054.87
523.58	21699.11
523.75	22104.02
523.92	21792.73
524.10	21729.53
524.27	22057.21
524.44	22019.76
524.61	22082.95
524.78	22380.20
524.96	22223.39
525.13	22160.19
525.30	22185.94
525.47	22225.73
525.64	22066.57
525.81	22391.91
525.98	22403.61
526.16	22478.50
526.33	22497.23
526.50	22558.08
526.67	22562.76
526.84	22551.06
527.01	22340.41
527.18	22682.13
527.36	22700.86
527.53	22960.66
527.70	22941.93
527.87	23150.24
528.04	22843.63
528.21	23049.60
528.38	22890.44
528.55	22941.93
528.72	22916.19
528.89	22913.84
529.07	23206.41
529.24	23061.30
529.41	23489.62
529.58	23068.32
529.75	23009.81
529.92	22829.59
530.09	23126.83
530.26	23400.68
530.43	23541.11
530.60	23365.57
530.77	23447.49
530.94	23541.11
531.11	23321.10
531.28	23250.88
531.46	23580.90
531.63	23655.79
531.80	23665.16
531.97	23875.80
532.14	23913.25
532.31	23875.80
532.48	23578.56
532.65	23887.51
532.82	23690.90
532.99	23496.64
533.16	23711.97
533.33	24336.89
533.50	24247.95
533.67	24051.34
533.84	23931.98
534.01	24032.62
534.18	24159.01
534.35	24212.84
534.52	24341.57
534.69	24233.91
534.86	24465.62
535.03	24224.54
535.20	24622.44
535.37	24346.25
535.54	24540.52
535.71	24608.39
535.88	24814.36
536.05	24418.81
536.22	24659.88
536.38	24823.72
536.55	24514.77
536.72	24486.68
536.89	24409.45
537.06	24638.82
537.23	24713.72
537.40	24748.82
537.57	24709.04
537.74	24840.11
537.91	25167.78
538.08	24936.07
538.25	24865.85
538.42	24910.32
538.59	25102.25
538.75	24877.55
538.92	25001.60
539.09	25017.99
539.26	25060.12
539.43	25284.81
539.60	25338.64
539.77	25142.03
539.94	25694.40
540.11	25245.02
540.28	25479.07
540.44	25111.61
540.61	25245.02
540.78	25078.84
540.95	25591.42
541.12	25142.03
541.29	25420.56
541.46	25469.71
541.62	25364.39
541.79	25715.47
541.96	25043.73
542.13	25455.67
542.30	25689.72
542.47	25851.22
542.63	25656.95
542.80	25755.26
542.97	25715.47
543.14	25933.14
543.31	25923.77
543.48	26195.28
543.64	26122.72
543.81	26419.97
543.98	26197.62
544.15	26136.76
544.32	26113.36
544.48	26412.95
544.65	26129.74
544.82	26216.34
544.99	25933.14
545.16	26546.36
545.32	26555.72
545.49	26642.32
545.66	26466.78
545.83	26359.11
546.00	26415.29
546.16	26331.03
546.33	26700.83
546.50	26202.30
546.67	26352.09
546.83	26349.75
547.00	26522.95
547.17	26700.83
547.34	26630.62
547.50	26637.64
547.67	27112.77
547.84	26710.19
548.00	26635.30
548.17	26623.59
548.34	26881.05
548.51	27166.60
548.67	27000.42
548.84	26967.65
549.01	26817.86
549.18	26890.41
549.34	26855.31
549.51	26859.99
549.68	26778.07
549.84	27091.70
550.01	27164.26
550.18	26932.54
550.34	27173.62
550.51	27318.73
550.68	26995.74
550.84	27395.97
551.01	27323.41
551.18	26759.34
551.34	26890.41
551.51	27302.35
551.68	27269.58
551.84	26960.63
552.01	27098.72
552.18	27185.32
552.34	27318.73
552.51	27538.74
552.68	27213.41
552.84	27810.25
553.01	27599.60
553.18	27454.48
553.34	27632.36
553.51	27534.06
553.67	27751.73
553.84	27821.95
554.01	27484.91
554.17	27899.19
554.34	27791.52
554.51	27531.72
554.67	27941.32
554.84	27981.10
555.00	27754.07
555.17	27826.63
555.33	27669.81
555.50	27859.40
555.67	27835.99
555.83	28187.07
556.00	27353.84
556.16	27929.61
556.33	27679.18
556.50	27683.86
556.66	27887.48
556.83	28009.19
556.99	27913.23
557.16	27826.63
557.32	28400.06
557.49	28166.01
557.65	27864.08
557.82	27843.01
557.98	27978.76
558.15	28079.41
558.32	28070.04
558.48	27859.40
558.65	28006.85
558.81	28294.74
558.98	28479.64
559.14	28201.11
559.31	28418.78
559.47	28339.21
559.64	28561.56
559.80	28533.47
559.97	28318.14
560.13	28163.67
560.30	28481.98
560.46	28388.36
560.63	28336.87
560.79	28615.39
560.96	28261.97
561.12	28411.76
561.29	28364.95
561.45	28535.81
561.61	28491.34
561.78	28636.45
561.94	28540.49
562.11	28701.99
562.27	28566.24
562.44	28599.01
562.60	28584.96
562.77	28376.66
562.93	28760.50
563.10	28489.00
563.26	28570.92
563.42	29010.94
563.59	28507.72
563.75	28432.83
563.92	29177.12
564.08	28449.21
564.24	29017.96
564.41	28465.60
564.57	28643.48
564.74	28781.57
564.90	28753.48
565.07	28922.00
565.23	28641.14
565.39	28669.22
565.56	28739.44
565.72	28381.34
565.88	29067.11
566.05	28280.69
566.21	28999.24
566.38	29184.14
566.54	28975.83
566.70	28875.19
566.87	29120.95
567.03	28882.21
567.19	28870.51
567.36	28734.76
567.52	28570.92
567.68	28994.56
567.85	29076.48
568.01	29111.58
568.17	29029.66
568.34	29219.25
568.50	29003.92
568.66	29202.86
568.83	29294.14
568.99	29036.69
569.15	29259.04
569.32	28999.24
569.48	28765.18
569.64	28685.61
569.81	29041.37
569.97	28903.28
570.13	29277.76
570.30	28971.15
570.46	28910.30
570.62	29298.83
570.78	29193.50
570.95	28599.01
571.11	28994.56
571.27	29146.69
571.43	29048.39
571.60	29099.88
571.76	28713.69
571.92	29041.37
572.09	29298.83
572.25	28968.81
572.41	29633.52
572.57	29099.88
572.74	29254.36
572.90	28966.47
573.06	29024.98
573.22	28917.32
573.38	29125.63
573.55	29067.11
573.71	29612.46
573.87	29481.39
574.03	29191.16
574.20	29113.92
574.36	29055.41
574.52	29191.16
574.68	29303.51
574.84	29694.38
575.01	29504.79
575.17	29528.20
575.33	29034.35
575.49	29771.61
575.65	29350.32
575.82	29551.60
575.98	29404.15
576.14	29771.61
576.30	29329.25
576.46	29282.44
576.62	29069.45
576.79	28819.02
576.95	29408.83
577.11	29401.81
577.27	29462.66
577.43	29731.83
577.59	29371.38
577.75	29263.72
577.92	29205.20
578.08	29319.89
578.24	29214.57
578.40	29205.20
578.56	29640.54
578.72	29355.00
578.88	29795.02
579.04	29790.34
579.21	29310.53
579.37	29120.95
579.53	29460.32
579.69	29413.51
579.85	29544.58
580.01	29429.90
580.17	29408.83
580.33	29474.37
580.49	29287.12
580.65	29399.47
580.82	29694.38
580.98	29369.04
581.14	29312.87
581.30	29558.63
581.46	29261.38
581.62	29387.77
581.78	29326.91
581.94	29621.82
582.10	29710.76
582.26	29544.58
582.42	29895.66
582.58	29448.62
582.74	29825.45
582.90	29570.33
583.06	29340.96
583.22	29397.13
583.38	29851.19
583.54	29567.99
583.70	29628.84
583.86	29378.40
584.02	29195.84
584.18	29605.44
584.34	29958.86
584.50	29979.92
584.66	29745.87
584.82	29174.78
584.98	29734.17
585.14	29624.16
585.30	29357.34
585.46	29514.16
585.62	29514.16
585.78	29790.34
585.94	29261.38
586.10	29565.65
586.26	29984.60
586.42	29493.09
586.58	29752.89
586.74	29495.43
586.90	29223.93
587.06	29598.41
587.22	29425.22
587.38	29514.16
587.54	29322.23
587.70	29413.51
587.86	29680.33
588.02	30331.00
588.18	30115.67
588.34	29902.68
588.49	29750.55
588.65	29750.55
588.81	29486.07
588.97	29832.47
589.13	29338.62
589.29	29750.55
589.45	29762.25
589.61	30199.93
589.77	30031.41
589.93	30218.66
590.08	30356.75
590.24	29914.39
590.40	29844.17
590.56	30141.42
590.72	29696.72
590.88	29525.86
591.04	29806.72
591.20	29895.66
591.35	29844.17
591.51	30293.55
591.67	29965.88
591.83	30279.51
591.99	29799.70
592.15	29902.68
592.31	30155.46
592.46	29888.64
592.62	29659.27
592.78	29905.02
592.94	29942.47
593.10	29795.02
593.26	29993.97
593.41	29942.47
593.57	29823.11
593.73	30235.04
593.89	30153.12
594.05	30075.88
594.20	29755.23
594.36	29624.16
594.52	29956.52
594.68	29773.95
594.84	29846.51
594.99	30342.70
595.15	30197.59
595.31	30359.09
595.47	30118.01
595.62	30331.00
595.78	29867.58
595.94	29902.68
596.10	29755.23
596.25	30181.21
596.41	30092.27
596.57	29701.40
596.73	29769.27
596.88	29869.92
597.04	30150.78
597.20	30071.20
597.36	30277.17
597.51	30096.95
597.67	30258.45
597.83	29818.42
597.99	30059.50
598.14	29582.03
598.30	29673.31
598.46	29968.22
598.61	30333.34
598.77	29869.92
598.93	30022.05
599.09	30129.72
599.24	30539.31
599.40	30511.22
599.56	30476.12
599.71	30253.76
599.87	30036.09
600.03	30169.51
600.18	30249.08
600.34	29867.58
600.50	30267.81
600.65	30197.59
600.81	30377.81
600.97	30656.34
601.12	30539.31
601.28	30443.35
601.44	30417.60
601.59	30419.94
601.75	30192.91
601.91	30396.54
602.06	30331.00
602.22	29923.75
602.37	30019.71
602.53	30096.95
602.69	30302.92
602.84	29949.50
603.00	30153.12
603.16	30089.93
603.31	30354.41
603.47	30078.22
603.62	29933.11
603.78	30403.56
603.94	29963.54
604.09	29694.38
604.25	29914.39
604.40	29839.49
604.56	30373.13
604.71	30419.94
604.87	30181.21
605.03	30235.04
605.18	30036.09
605.34	30118.01
605.49	29759.91
605.65	30029.07
605.80	30136.74
605.96	30366.11
606.12	29975.24
606.27	30396.54
606.43	29736.51
606.58	30431.65
606.74	30169.51
606.89	29991.62
607.05	30363.77
607.20	30134.40
607.36	29677.99
607.51	29923.75
607.67	29773.95
607.82	30050.14
607.98	29827.79
608.13	30256.11
608.29	29830.13
608.44	29888.64
608.60	29544.58
608.75	30333.34
608.91	29788.00
609.06	29806.72
609.22	30071.20
609.37	29387.77
609.53	29687.36
609.68	29638.20
609.84	30026.73
609.99	29692.04
610.15	29727.14
610.30	29881.62
610.46	29699.06
610.61	29687.36
610.76	30066.52
610.92	30157.80
611.07	29614.80
611.23	29855.87
611.38	30230.36
611.54	29624.16
611.69	29469.69
611.84	29312.87
612.00	29268.40
612.15	29598.41
612.31	29771.61
612.46	29532.88
612.62	29708.42
612.77	29685.01
612.92	29860.55
613.08	29649.91
613.23	29488.41
613.39	29984.60
613.54	29567.99
613.69	29474.37
613.85	29390.11
614.00	29469.69
614.15	29977.58
614.31	29474.37
614.46	29308.19
614.62	29390.11
614.77	29350.32
614.92	29600.76
615.08	29113.92
615.23	29179.46
615.38	29591.39
615.54	29390.11
615.69	29532.88
615.84	29270.74
616.00	29493.09
616.15	29036.69
616.30	29387.77
616.46	29244.99
616.61	29340.96
616.76	29759.91
616.92	29198.18
617.07	28842.42
617.22	28973.49
617.37	28896.25
617.53	29212.23
617.68	29041.37
617.83	29067.11
617.99	29003.92
618.14	28968.81
618.29	28828.38
618.45	29530.54
618.60	29528.20
618.75	29205.20
618.90	29474.37
619.06	29160.73
619.21	28730.08
619.36	29670.97
619.51	28716.03
619.67	28701.99
619.82	28718.37
619.97	29167.76
620.12	28800.29
620.28	28819.02
620.43	29289.46
620.58	29088.18
620.73	29010.94
620.89	29029.66
621.04	28959.45
621.19	28374.31
621.34	28943.06
621.49	28823.70
621.65	28662.20
621.80	28999.24
621.95	28734.76
622.10	28924.34
622.25	28531.13
622.41	28819.02
622.56	28947.75
622.71	28914.98
622.86	28634.11
623.01	28299.42
623.16	28659.86
623.32	28212.82
623.47	28383.68
623.62	28683.27
623.77	28552.20
623.92	28531.13
624.07	28673.90
624.23	28318.14
624.38	28648.16
624.53	28425.81
624.68	28503.04
624.83	28816.68
624.98	28629.43
625.13	28386.02
625.29	28446.87
625.44	28261.97
625.59	27967.06
625.74	28243.24
625.89	28603.69
626.04	28362.61
626.19	28046.64
626.34	27955.36
626.49	28357.93
626.65	28414.10
626.80	28325.16
626.95	28446.87
627.10	28226.86
627.25	27618.32
627.40	27927.27
627.55	27768.12
627.70	28098.13
627.85	27957.70
628.00	27955.36
628.15	27978.76
628.30	28130.90
628.45	28163.67
628.60	28311.12
628.76	27721.30
628.91	28290.06
629.06	27913.23
629.21	28121.54
629.36	28245.58
629.51	27817.27
629.66	28081.75
629.81	27772.80
629.96	27672.15
630.11	27910.89
630.26	27559.81
630.41	27716.62
630.56	27814.93
630.71	27908.55
630.86	27623.00
631.01	27658.11
631.16	27920.25
631.31	27489.59
631.46	27920.25
631.61	27538.74
631.76	27522.36
631.91	27590.24
632.06	27601.94
632.21	27508.32
632.36	27351.50
632.51	27150.21
632.66	27353.84
632.81	27513.00
632.96	27473.21
633.10	27969.40
633.25	27693.22
633.40	27489.59
633.55	27789.18
633.70	27379.59
633.85	27374.91
634.00	27278.94
634.15	27115.11
634.30	27122.13
634.45	27267.24
634.60	27393.63
634.75	27211.07
634.90	27147.87
635.05	27271.92
635.19	26885.73
635.34	27817.27
635.49	27459.16
635.64	27346.82
635.79	27253.20
635.94	27346.82
636.09	27051.91
636.24	27185.32
636.39	27182.98
636.53	27267.24
636.68	27213.41
636.83	26972.33
636.98	27152.55
637.13	27103.40
637.28	27227.45
637.43	26923.18
637.57	27487.25
637.72	27302.35
637.87	26682.11
638.02	26969.99
638.17	26965.31
638.32	26665.72
638.46	26614.23
638.61	26698.49
638.76	26742.96
638.91	26529.97
639.06	26874.03
639.20	27115.11
639.35	26614.23
639.50	27145.53
639.65	27084.68
639.80	26906.80
639.94	26969.99
640.09	26998.08
640.24	26890.41
640.39	26565.08
640.54	26630.62
640.68	26459.76
640.83	26677.43
640.98	26363.79
641.13	26466.78
641.27	26888.07
641.42	26508.91
641.57	26483.16
641.72	26328.69
641.86	26457.42
642.01	26455.08
642.16	26560.40
642.31	26513.59
642.45	26562.74
642.60	26326.35
642.75	25993.99
642.90	26328.69
643.04	26059.52
643.19	26338.05
643.34	25907.39
643.48	26609.55
643.63	26642.32
643.78	26286.56
643.93	26424.65
644.07	26251.45
644.22	26572.10
644.37	26192.94
644.51	26237.41
644.66	26216.34
644.81	26029.10
644.95	26242.09
645.10	25979.95
645.25	25984.63
645.39	26202.30
645.54	26146.12
645.69	26136.76
645.83	26033.78
645.98	26022.08
646.13	26190.59
646.27	26197.62
646.42	25937.82
646.57	25888.67
646.71	25951.86
646.86	26246.77
647.00	26122.72
647.15	26052.50
647.30	26274.85
647.44	25862.92
647.59	25914.41
647.74	25563.33
647.88	25898.03
648.03	25947.18
648.17	25708.44
648.32	26001.01
648.47	26057.18
648.61	25708.44
648.76	26017.40
648.90	26139.10
649.05	25781.00
649.20	25823.13
649.34	25731.85
649.49	25659.29
649.63	25776.32
649.78	25619.50
649.92	25486.09
650.07	25806.75
650.21	25460.35
650.36	25366.73
650.51	25406.52
650.65	25593.76
650.80	25544.61
650.94	25427.58
651.09	25399.49
651.23	25502.48
651.38	25322.26
651.52	24975.86
651.67	25329.28
651.81	25614.82
651.96	25137.35
652.10	25392.47
652.25	25366.73
652.39	25467.37
652.54	25640.57
652.68	25715.47
652.83	25516.52
652.97	25539.93
653.12	25270.76
653.26	25228.63
653.41	25415.88
653.55	25219.27
653.70	25399.49
653.84	25235.66
653.99	25062.46
654.13	25116.29
654.27	25174.80
654.42	24886.92
654.56	25090.54
654.71	25116.29
654.85	25090.54
655.00	24982.88
655.14	25329.28
655.29	24819.04
655.43	25544.61
655.57	25350.34
655.72	25221.61
655.86	24706.70
656.01	24865.85
656.15	24734.78
656.30	25013.31
656.44	25029.69
656.58	24940.75
656.73	24788.61
656.87	24954.79
657.01	25123.31
657.16	24725.42
657.30	25130.33
657.45	24826.06
657.59	24594.35
657.73	24741.80
657.88	24697.33
658.02	24795.64
658.16	24828.40
658.31	24664.57
658.45	24610.73
658.60	24327.53
658.74	24779.25
658.88	24582.65
659.03	24650.52
659.17	24575.62
659.31	24603.71
659.46	24411.79
659.60	24517.11
659.74	24833.08
659.89	24320.51
660.03	24489.03
660.17	24030.28
660.32	24364.98
660.46	24147.31
660.60	24163.69
660.74	24154.33
660.89	23887.51
661.03	23651.11
661.17	24367.32
661.32	24128.58
661.46	24339.23
661.60	23941.34
661.74	24058.37
661.89	24285.40
662.03	24203.48
662.17	23857.08
662.31	23658.14
662.46	24203.48
662.60	23793.89
662.74	23882.83
662.88	23576.22
663.03	23821.97
663.17	23667.50
663.31	23288.33
663.45	23672.18
663.60	23845.38
663.74	23496.64
663.88	23770.48
664.02	23594.94
664.17	23452.17
664.31	23255.56
664.45	23349.18
664.59	23461.53
664.73	23271.95
664.88	23346.84
665.02	22960.66
665.16	23344.50
665.30	23349.18
665.44	23262.58
665.59	22637.66
665.73	22993.42
665.87	22923.21
666.01	23208.75
666.15	23356.21
666.29	23178.33
666.44	23058.96
666.58	22649.36
666.72	22946.61
666.86	23206.41
667.00	22993.42
667.14	22801.50
667.28	22574.47
667.43	22609.58
667.57	22424.67
667.71	22780.43
667.85	22698.52
667.99	22553.40
668.13	22623.62
668.27	22595.53
668.41	22902.14
668.56	22363.82
668.70	22473.82
668.84	22256.15
668.98	22286.58
669.12	22684.47
669.26	22710.22
669.40	22469.14
669.54	22349.78
669.68	22211.68
669.82	22113.38
669.96	21914.44
670.10	21790.39
670.25	22050.19
670.39	22047.85
670.53	21872.31
670.67	22052.53
670.81	21872.31
670.95	22143.81
671.09	21823.16
671.23	21591.44
671.37	21898.05
671.51	21944.86
671.65	22040.82
671.79	21764.64
671.93	21516.54
672.07	21853.58
672.21	21451.01
672.35	21500.16
672.49	21544.63
672.63	21486.12
672.77	21010.99
672.91	21357.39
673.05	21703.79
673.19	21188.87
673.33	21008.65
673.47	21113.97
673.61	21701.45
673.75	21053.12
673.89	21287.17
674.03	21198.23
674.17	21113.97
674.31	21025.03
674.45	20872.90
674.59	20945.45
674.73	21319.94
674.87	20842.47
675.01	20812.04
675.15	20659.91
675.29	20554.58
675.43	20702.04
675.56	20592.03
675.70	20528.84
675.84	20477.35
675.98	20077.12
676.12	20603.74
676.26	20702.04
676.40	20276.06
676.54	20301.81
676.68	20203.50
676.82	20105.20
676.96	20311.17
677.10	20332.23
677.23	19789.23
677.37	20002.22
677.51	20044.35
677.65	19723.69
677.79	19782.21
677.93	19641.78
678.07	19824.34
678.21	19445.17
678.34	19667.52
678.48	19246.23
678.62	19410.06
678.76	19389.00
678.90	19594.96
679.04	19213.46
679.18	19360.91
679.31	19084.73
679.45	18871.74
679.59	18927.91
679.73	18820.25
679.87	19157.28
680.00	18801.52
680.14	18679.82
680.28	18710.24
680.42	18607.26
680.56	18515.98
680.70	18895.14
680.83	18647.05
680.97	18361.50
681.11	18298.31
681.25	18623.64
681.39	18682.16
681.52	18530.02
681.66	18015.10
681.80	18237.45
681.94	18232.77
682.07	18036.17
682.21	17858.29
682.35	17942.55
682.49	17888.71
682.62	17427.63
682.76	17963.61
682.90	17895.74
683.04	17940.21
683.17	17769.35
683.31	17350.39
683.45	17727.22
683.59	17717.86
683.72	17326.99
683.86	17128.04
684.00	17298.90
684.13	17568.06
684.27	17589.13
684.41	16980.59
684.55	16919.73
684.68	16957.18
684.82	16973.56
684.96	17027.40
685.09	16688.02
685.23	16751.21
685.37	16798.02
685.50	16889.31
685.64	16772.28
685.78	16610.78
685.91	17001.65
686.05	16767.60
686.19	16442.26
686.32	16606.10
686.46	16177.78
686.60	16343.96
686.73	16077.14
686.87	16245.66
687.01	15967.13
687.14	16264.38
687.28	15843.09
687.42	15894.58
687.55	16037.35
687.69	15974.16
687.82	15922.66
687.96	15861.81
688.10	15721.38
688.23	15709.68
688.37	15800.96
688.50	15777.55
688.64	15733.08
688.78	15712.02
688.91	15524.77
689.05	15421.79
689.18	15400.72
689.32	15211.14
689.46	15412.43
689.59	14974.75
689.73	15262.63
689.86	15122.20
690.00	15108.16
690.13	15040.28
690.27	14911.55
690.41	14953.68
690.54	15115.18
690.68	14771.12
690.81	14881.13
690.95	14789.85
691.08	14895.17
691.22	14867.08
691.35	14808.57
691.49	14593.24
691.62	14501.96
691.76	14724.31
691.89	14281.95
692.03	14328.76
692.16	14118.11
692.30	14305.35
692.43	14258.54
692.57	13830.23
692.70	13930.87
692.84	13881.72
692.97	13827.88
693.11	14239.82
693.24	13694.47
693.38	13839.59
693.51	13633.62
693.65	13657.03
693.78	13458.08
693.92	13617.24
694.05	13565.74
694.19	13373.82
694.32	13439.36
694.45	13406.59
694.59	13081.25
694.72	13170.19
694.86	13046.15
694.99	12992.31
695.13	13146.79
695.26	12837.84
695.39	13034.44
695.53	12985.29
695.66	13085.94
695.80	13097.64
695.93	12826.14
696.07	12968.91
696.20	12807.41
696.33	12711.45
696.47	12695.07
696.60	12666.98
696.73	12664.64
696.87	12294.83
697.00	12503.14
697.14	12493.78
697.27	12112.27
697.40	12402.50
697.54	12306.54
697.67	11889.92
697.80	11969.50
697.94	11892.26
698.07	12004.61
698.21	11927.37
698.34	12002.27
698.47	11943.75
698.61	11698.00
698.74	11800.98
698.87	11978.86
699.01	11817.36
699.14	11616.08
699.27	11744.81
699.40	11800.98
699.54	11403.09
699.67	11438.20
699.80	11405.43
699.94	11382.03
700.07	11410.11
700.20	11096.48
700.34	11009.88
700.47	11110.52
700.60	11330.53
700.73	11140.95
700.87	10892.85
701.00	10981.79
701.13	10871.79
701.26	10729.02
701.40	10855.40
701.53	11026.26
701.66	11080.10
701.79	10853.06
701.93	10649.44
702.06	10441.13
702.19	10436.45
702.32	10630.71
702.46	10410.70
702.59	10272.61
702.72	10209.42
702.85	10326.44
702.99	10242.18
703.12	10296.02
703.25	10218.78
703.38	10150.90
703.51	10504.32
703.65	10005.79
703.78	10218.78
703.91	10104.09
704.04	10010.47
704.17	9834.93
704.31	9970.68
704.44	9788.12
704.57	9624.28
704.70	9643.01
704.83	9509.60
704.96	9514.28
705.10	9701.52
705.23	9696.84
>>>>>End Processed Spectral Data<<<<<
