SpectraSuite Data File
++++++++++++++++++++++++++++++++++++
Date: Fri Oct 18 13:58:34 GMT-05:00 2013
User: bianchi
Dark Spectrum Present: No
Reference Spectrum Present: No
Number of Sampled Component Spectra: 1
Spectrometers: USB2+H05261
Integration Time (usec): 50000 (USB2+H05261)
Spectra Averaged: 1 (USB2+H05261)
Boxcar Smoothing: 0 (USB2+H05261)
Correct for Electrical Dark: No (USB2+H05261)
Strobe/Lamp Enabled: No (USB2+H05261)
Correct for Detector Non-linearity: No (USB2+H05261)
Correct for Stray Light: No (USB2+H05261)
Number of Pixels in Processed Spectrum: 2048
>>>>>Begin Processed Spectral Data<<<<<
365.73	4.68
365.92	4.68
366.12	4.68
366.32	0.00
366.52	0.00
366.72	0.00
366.91	0.00
367.11	0.00
367.31	0.00
367.51	0.00
367.70	0.00
367.90	0.00
368.10	0.00
368.30	0.00
368.49	0.00
368.69	0.00
368.89	0.00
369.09	0.00
369.28	0.00
369.48	0.00
369.68	0.00
369.87	0.00
370.07	0.00
370.27	0.00
370.47	0.00
370.66	107.66
370.86	112.35
371.06	131.07
371.25	173.20
371.45	222.35
371.65	149.79
371.84	224.69
372.04	147.45
372.24	220.01
372.44	154.48
372.63	205.97
372.83	201.29
373.03	250.44
373.22	149.79
373.42	243.42
373.62	114.69
373.81	203.63
374.01	290.23
374.21	318.31
374.40	210.65
374.60	224.69
374.79	182.56
374.99	292.57
375.19	243.42
375.38	259.80
375.58	264.48
375.78	236.39
375.97	299.59
376.17	273.84
376.37	318.31
376.56	311.29
376.76	313.63
376.95	299.59
377.15	257.46
377.35	262.14
377.54	407.25
377.74	248.10
377.93	294.91
378.13	203.63
378.33	292.57
378.52	227.03
378.72	227.03
378.91	287.89
379.11	283.20
379.31	344.06
379.50	299.59
379.70	252.78
379.89	266.82
380.09	320.65
380.28	234.05
380.48	299.59
380.68	301.93
380.87	269.16
381.07	346.40
381.26	301.93
381.46	292.57
381.65	299.59
381.85	252.78
382.04	374.49
382.24	362.78
382.43	325.33
382.63	341.72
382.83	369.80
383.02	351.08
383.22	379.17
383.41	358.10
383.61	379.17
383.80	330.02
384.00	353.42
384.19	388.53
384.39	334.70
384.58	353.42
384.78	330.02
384.97	414.27
385.17	353.42
385.36	313.63
385.56	358.10
385.75	400.23
385.95	395.55
386.14	372.15
386.34	503.22
386.53	451.72
386.72	393.21
386.92	400.23
387.11	456.40
387.31	468.11
387.50	409.59
387.70	514.92
387.89	442.36
388.09	435.34
388.28	463.43
388.48	369.80
388.67	470.45
388.86	362.78
389.06	444.70
389.25	470.45
389.45	550.03
389.64	435.34
389.84	477.47
390.03	468.11
390.22	491.51
390.42	524.28
390.61	482.15
390.81	454.06
391.00	479.81
391.19	517.26
391.39	447.04
391.58	486.83
391.78	526.62
391.97	524.28
392.16	505.56
392.36	507.90
392.55	493.85
392.75	571.09
392.94	585.13
393.13	521.94
393.33	538.32
393.52	634.29
393.71	561.73
393.91	533.64
394.10	517.26
394.29	580.45
394.49	550.03
394.68	683.44
394.88	566.41
395.07	589.82
395.26	648.33
395.46	592.16
395.65	599.18
395.84	526.62
396.04	732.59
396.23	638.97
396.42	641.31
396.62	683.44
396.81	662.37
397.00	603.86
397.19	746.63
397.39	683.44
397.58	772.38
397.77	667.05
397.97	662.37
398.16	622.58
398.35	704.50
398.55	702.16
398.74	706.84
398.93	755.99
399.12	774.72
399.32	718.54
399.51	758.33
399.70	709.18
399.90	681.10
400.09	690.46
400.28	861.32
400.47	798.12
400.67	809.83
400.86	835.57
401.05	784.08
401.24	777.06
401.44	725.57
401.63	919.83
401.82	816.85
402.01	795.78
402.21	788.76
402.40	737.27
402.59	844.93
402.78	875.36
402.97	798.12
403.17	849.61
403.36	875.36
403.55	856.64
403.74	823.87
403.93	894.08
404.13	915.15
404.32	917.49
404.51	854.30
404.70	936.21
404.89	847.27
405.09	968.98
405.28	959.62
405.47	985.37
405.66	959.62
405.85	983.02
406.05	1048.56
406.24	959.62
406.43	994.73
406.62	1039.20
406.81	1060.26
407.00	968.98
407.20	1015.79
407.39	1022.81
407.58	1006.43
407.77	1053.24
407.96	1177.29
408.15	1118.78
408.34	1041.54
408.54	1015.79
408.73	1125.80
408.92	1046.22
409.11	1043.88
409.30	1107.07
409.49	1128.14
409.68	1029.84
409.87	1210.06
410.07	1118.78
410.26	1111.75
410.45	1167.93
410.64	1181.97
410.83	1179.63
411.02	1242.82
411.21	1259.21
411.40	1160.91
411.59	1214.74
411.78	1196.01
411.98	1200.69
412.17	1191.33
412.36	1240.48
412.55	1343.47
412.74	1348.15
412.93	1324.74
413.12	1441.77
413.31	1383.26
413.50	1420.71
413.69	1343.47
413.88	1359.85
414.07	1469.86
414.26	1474.54
414.45	1514.33
414.64	1481.56
414.83	1446.45
415.02	1490.92
415.22	1577.52
415.41	1511.99
415.60	1523.69
415.79	1565.82
415.98	1556.46
416.17	1652.42
416.36	1598.59
416.55	1542.41
416.74	1593.90
416.93	1657.10
417.12	1673.48
417.31	1762.42
417.50	1643.06
417.69	1699.23
417.88	1734.34
418.07	1708.59
418.26	1769.44
418.45	1795.19
418.64	1860.73
418.83	1834.98
419.02	1849.02
419.21	1858.39
419.39	1863.07
419.58	1797.53
419.77	1727.32
419.96	1851.36
420.15	1907.54
420.34	1842.00
420.53	1853.70
420.72	1949.67
420.91	1874.77
421.10	1944.99
421.29	2024.56
421.48	1884.13
421.67	1952.01
421.86	1895.83
422.05	2066.69
422.24	1912.22
422.43	1881.79
422.61	1977.75
422.80	1966.05
422.99	1994.14
423.18	2008.18
423.37	2106.48
423.56	1987.11
423.75	1970.73
423.94	1916.90
424.13	1764.76
424.32	2012.86
424.50	2104.14
424.69	2078.40
424.88	2134.57
425.07	2104.14
425.26	2015.20
425.45	2017.54
425.64	2064.35
425.83	1994.14
426.01	2036.27
426.20	2050.31
426.39	1970.73
426.58	1994.14
426.77	1888.81
426.96	2019.88
427.15	2235.21
427.33	2069.03
427.52	1998.82
427.71	2186.06
427.90	2207.13
428.09	2115.84
428.28	2087.76
428.46	2073.71
428.65	2129.89
428.84	2298.41
429.03	2310.11
429.22	2228.19
429.40	2244.57
429.59	2204.78
429.78	2052.65
429.97	2113.50
430.16	2328.83
430.34	2197.76
430.53	2293.72
430.72	2335.85
430.91	2263.30
431.10	2244.57
431.28	2303.09
431.47	2438.84
431.66	2354.58
431.85	2434.16
432.03	2424.80
432.22	2553.52
432.41	2335.85
432.60	2525.44
432.79	2396.71
432.97	2382.67
433.16	2546.50
433.35	2509.05
433.54	2513.74
433.72	2537.14
433.91	2399.05
434.10	2516.08
434.28	2541.82
434.47	2560.55
434.66	2523.10
434.85	2642.46
435.03	2614.38
435.22	2677.57
435.41	2668.21
435.59	2609.70
435.78	2686.94
435.97	2693.96
436.16	2665.87
436.34	2773.53
436.53	2635.44
436.72	2703.32
436.90	2600.34
437.09	2682.25
437.28	2689.28
437.46	2764.17
437.65	2712.68
437.84	2757.15
438.02	2768.85
438.21	2752.47
438.40	2799.28
438.58	2892.90
438.77	2888.22
438.96	2801.62
439.14	2752.47
439.33	2988.86
439.52	2932.69
439.70	2923.33
439.89	3026.31
440.08	2935.03
440.26	3045.04
440.45	3070.78
440.63	3045.04
440.82	3143.34
441.01	3124.62
441.19	3150.36
441.38	3211.22
441.57	3110.57
441.75	3169.09
441.94	3138.66
442.12	3157.38
442.31	3246.32
442.50	3272.07
442.68	3358.67
442.87	3227.60
443.05	3393.78
443.24	3426.54
443.43	3379.73
443.61	3293.13
443.80	3414.84
443.98	3363.35
444.17	3243.98
444.35	3396.12
444.54	3431.23
444.73	3342.28
444.91	3550.59
445.10	3478.04
445.28	3349.31
445.47	3262.71
445.65	3419.52
445.84	3419.52
446.02	3485.06
446.21	3475.70
446.39	3499.10
446.58	3531.87
446.77	3581.02
446.95	3454.63
447.14	3623.15
447.32	3473.36
447.51	3410.16
447.69	3478.04
447.88	3382.07
448.06	3531.87
448.25	3536.55
448.43	3492.08
448.62	3456.97
448.80	3471.01
448.99	3569.32
449.17	3471.01
449.36	3632.51
449.54	3623.15
449.73	3667.62
449.91	3726.13
450.10	3618.47
450.28	3744.86
450.46	3695.71
450.65	3667.62
450.83	3709.75
451.02	3709.75
451.20	3803.37
451.39	3765.92
451.57	3700.39
451.76	3740.18
451.94	3765.92
452.13	3772.94
452.31	3908.69
452.49	3707.41
452.68	3822.09
452.86	3929.76
453.05	3880.61
453.23	3904.01
453.42	3784.65
453.60	3815.07
453.78	4028.06
453.97	3901.67
454.15	3875.93
454.34	3997.64
454.52	4004.66
454.70	4037.42
454.89	4117.00
455.07	4140.41
455.26	4016.36
455.44	4074.87
455.62	3983.59
455.81	4023.38
455.99	4177.86
456.17	4128.70
456.36	4046.79
456.54	4203.60
456.73	4154.45
456.91	4262.12
457.09	4257.43
457.28	4337.01
457.46	4219.99
457.64	4320.63
457.83	4203.60
458.01	4091.26
458.19	4409.57
458.38	4372.12
458.56	4414.25
458.74	4337.01
458.93	4334.67
459.11	4285.52
459.29	4447.02
459.48	4376.80
459.66	4519.57
459.84	4404.89
460.03	4674.05
460.21	4477.44
460.39	4575.75
460.57	4489.15
460.76	4496.17
460.94	4596.81
461.12	4634.26
461.31	4603.83
461.49	4458.72
461.67	4507.87
461.85	4748.95
462.04	4603.83
462.22	4692.77
462.40	4765.33
462.59	4685.75
462.77	4634.26
462.95	4709.16
463.13	4802.78
463.32	4915.12
463.50	4753.63
463.68	4795.76
463.86	4875.34
464.05	4943.21
464.23	4919.81
464.41	4823.84
464.59	4795.76
464.78	4945.55
464.96	4854.27
465.14	4856.61
465.32	4828.53
465.50	5036.83
465.69	4983.00
465.87	4936.19
466.05	4915.12
466.23	4975.98
466.41	5151.52
466.60	5231.10
466.78	4875.34
466.96	5018.11
467.14	5034.49
467.32	5034.49
467.51	5160.88
467.69	5060.24
467.87	5193.65
468.05	5170.24
468.23	5151.52
468.41	5107.05
468.60	5214.71
468.78	5324.72
468.96	5125.77
469.14	5298.97
469.32	5240.46
469.50	5336.42
469.69	5334.08
469.87	5320.04
470.05	5474.51
470.23	5401.96
470.41	5376.21
470.59	5467.49
470.77	5502.60
470.95	5439.40
471.14	5600.90
471.32	5518.98
471.50	5748.36
471.68	5518.98
471.86	5537.71
472.04	5710.91
472.22	5579.84
472.40	5673.46
472.58	5643.03
472.77	5626.65
472.95	5846.66
473.13	6036.24
473.31	5652.39
473.49	5687.50
473.67	5666.44
473.85	5905.17
474.03	5921.56
474.21	5980.07
474.39	5921.56
474.57	5928.58
474.75	6076.03
474.93	6066.67
475.12	5987.09
475.30	6083.05
475.48	6099.44
475.66	6195.40
475.84	6076.03
476.02	6333.49
476.20	6303.06
476.38	6345.19
476.56	6459.88
476.74	6209.44
476.92	6239.87
477.10	6679.89
477.28	6707.98
477.46	6497.33
477.64	6679.89
477.82	6916.28
478.00	7082.46
478.18	7009.90
478.36	6970.12
478.54	7033.31
478.72	7070.76
478.90	7054.37
479.08	7155.02
479.26	7232.26
479.44	7316.51
479.62	7410.14
479.80	7475.67
479.98	7424.18
480.16	7339.92
480.34	7515.46
480.52	7679.30
480.70	7658.23
480.88	7503.76
481.06	7672.28
481.24	7698.02
481.41	7686.32
481.59	7843.14
481.77	8011.65
481.95	7819.73
482.13	8067.83
482.31	7885.26
482.49	8468.06
482.67	8198.90
482.85	8430.61
483.03	8430.61
483.21	8547.64
483.39	8526.57
483.57	8458.70
483.74	8582.74
483.92	8538.27
484.10	8589.77
484.28	8924.46
484.46	9029.79
484.64	9071.92
484.82	9011.06
485.00	8898.72
485.18	9121.07
485.35	9329.38
485.53	9231.07
485.71	9401.93
485.89	9685.14
486.07	9556.41
486.25	9528.32
486.43	9664.07
486.61	9493.21
486.78	9699.18
486.96	9827.91
487.14	10190.69
487.32	9813.87
487.50	10036.22
487.68	10209.42
487.85	10176.65
488.03	10473.90
488.21	10251.55
488.39	10441.13
488.57	10487.94
488.75	10661.14
488.92	10803.91
489.10	10949.03
489.28	10775.83
489.46	11056.69
489.64	11098.82
489.81	11403.09
489.99	11150.31
490.17	11379.68
490.35	11482.67
490.53	11297.77
490.70	11508.41
490.88	11637.14
491.06	11651.19
491.24	11623.10
491.41	11894.60
491.59	11857.15
491.77	11950.78
491.95	12053.76
492.13	12093.55
492.30	12367.39
492.48	12072.48
492.66	12077.16
492.84	12395.48
493.01	12528.89
493.19	12566.34
493.37	12671.66
493.54	12828.48
493.72	12723.15
493.90	12650.60
494.08	12999.34
494.25	12980.61
494.43	13158.49
494.61	13238.07
494.79	13022.74
494.96	13429.99
495.14	13015.72
495.32	13371.48
495.49	13788.10
495.67	13500.21
495.85	13860.65
496.02	13589.15
496.20	13963.64
496.38	13771.71
496.55	13755.33
496.73	14085.34
496.91	14155.56
497.09	14363.87
497.26	14068.96
497.44	14398.98
497.62	14223.44
497.79	14377.91
497.97	14590.90
498.14	14705.59
498.32	14857.72
498.50	14988.79
498.67	14799.21
498.85	14731.33
499.03	14993.47
499.20	14878.79
499.38	15176.03
499.56	15068.37
499.73	15138.58
499.91	15199.44
500.08	15337.53
500.26	15248.59
500.44	15391.36
500.61	15339.87
500.79	15374.98
500.97	15456.90
501.14	15733.08
501.32	15709.68
501.49	15894.58
501.67	15676.91
501.84	15887.56
502.02	15660.52
502.20	15768.19
502.37	15864.15
502.55	15829.04
502.72	16243.32
502.90	16252.68
503.07	16093.52
503.25	16109.91
503.43	16084.16
503.60	16575.67
503.78	16643.55
503.95	16479.71
504.13	16582.70
504.30	16505.46
504.48	16592.06
504.65	16627.17
504.83	16814.41
505.01	16837.81
505.18	17048.46
505.36	17106.98
505.53	17090.59
505.71	17137.40
505.88	16879.94
506.06	16989.95
506.23	17128.04
506.41	17516.57
506.58	17418.27
506.76	17170.17
506.93	17212.30
507.11	17118.68
507.28	17530.61
507.46	17575.08
507.63	17645.30
507.81	17778.71
507.98	17848.93
508.16	17935.53
508.33	17649.98
508.50	17837.22
508.68	18111.07
508.85	18300.65
509.03	17642.96
509.20	18249.16
509.38	18153.20
509.55	18307.67
509.73	18333.42
509.90	18256.18
510.08	18211.71
510.25	18307.67
510.42	18274.90
510.60	18478.53
510.77	18813.23
510.95	18810.89
511.12	18391.93
511.30	18487.89
511.47	18658.75
511.64	18806.20
511.82	18888.12
511.99	18661.09
512.17	19168.99
512.34	18888.12
512.51	18958.34
512.69	19435.81
512.86	19461.55
513.04	19131.54
513.21	19215.80
513.38	19793.91
513.56	19393.68
513.73	19314.10
513.90	19414.74
514.08	19117.50
514.25	19461.55
514.43	19571.56
514.60	19627.73
514.77	19730.72
514.95	19901.58
515.12	19611.35
515.29	19531.77
515.47	19779.87
515.64	19960.09
515.81	19756.46
515.99	19817.32
516.16	20446.92
516.33	20130.95
516.51	20109.88
516.68	20009.24
516.85	20107.54
517.03	20222.23
517.20	20332.23
517.37	20475.01
517.54	20643.52
517.72	20390.75
517.89	20233.93
518.06	20643.52
518.24	20622.46
518.41	20507.77
518.58	20657.57
518.75	20765.23
518.93	20919.71
519.10	20297.13
519.27	20952.48
519.45	20636.50
519.62	20924.39
519.79	20893.96
519.96	20664.59
520.14	21273.13
520.31	21060.14
520.48	21296.53
520.65	21022.69
520.83	21263.77
521.00	21228.66
521.17	21284.83
521.34	21233.34
521.52	21233.34
521.69	21362.07
521.86	21266.11
522.03	21949.54
522.20	21661.66
522.38	21750.60
522.55	21717.83
522.72	21834.86
522.89	21696.77
523.07	22279.56
523.24	22225.73
523.41	22263.18
523.58	21546.97
523.75	22008.06
523.92	22038.48
524.10	22061.89
524.27	22434.03
524.44	22125.08
524.61	22328.71
524.78	22691.49
524.96	22520.63
525.13	22319.35
525.30	22389.56
525.47	22328.71
525.64	22583.83
525.81	22876.40
525.98	22768.73
526.16	22555.74
526.33	22806.18
526.50	22640.00
526.67	22813.20
526.84	22309.99
527.01	22644.68
527.18	22754.69
527.36	23159.60
527.53	22799.16
527.70	23122.15
527.87	23180.67
528.04	22993.42
528.21	23344.50
528.38	23126.83
528.55	23047.26
528.72	22693.83
528.89	23194.71
529.07	23131.51
529.24	23152.58
529.41	23056.62
529.58	23508.34
529.75	23424.08
529.92	23445.15
530.09	23391.31
530.26	23255.56
530.43	23468.55
530.60	23555.15
530.77	23442.81
530.94	23424.08
531.11	23328.12
531.28	23360.89
531.46	23655.79
531.63	24032.62
531.80	23939.00
531.97	23901.55
532.14	23971.77
532.31	23997.51
532.48	23946.02
532.65	23819.63
532.82	23924.96
532.99	24058.37
533.16	24212.84
533.33	24304.12
533.50	24542.86
533.67	24294.76
533.84	23859.42
534.01	24091.13
534.18	24011.56
534.35	24460.94
534.52	24451.58
534.69	24533.50
534.86	24531.15
535.03	24250.29
535.20	24683.29
535.37	24254.97
535.54	24577.97
535.71	24280.72
535.88	24711.38
536.05	24608.39
536.22	25013.31
536.38	25130.33
536.55	24865.85
536.72	24643.50
536.89	24915.00
537.06	24926.71
537.23	24706.70
537.40	25116.29
537.57	24931.39
537.74	25039.05
537.91	25221.61
538.08	25104.59
538.25	25048.41
538.42	25039.05
538.59	25282.47
538.75	24959.47
538.92	25322.26
539.09	25142.03
539.26	25469.71
539.43	25364.39
539.60	25289.49
539.77	25476.73
539.94	25638.23
540.11	25357.36
540.28	25593.76
540.44	25268.42
540.61	25319.92
540.78	25179.48
540.95	25671.00
541.12	25575.03
541.29	25462.69
541.46	25516.52
541.62	25837.17
541.79	25460.35
541.96	25504.82
542.13	25879.30
542.30	25975.27
542.47	25717.81
542.63	25930.80
542.80	25862.92
542.97	26501.89
543.14	26380.18
543.31	26382.52
543.48	26197.62
543.64	26403.58
543.81	26391.88
543.98	26225.70
544.15	26581.46
544.32	26429.33
544.48	26703.17
544.65	26017.40
544.82	26265.49
544.99	26075.91
545.16	26305.28
545.32	26611.89
545.49	26813.18
545.66	26724.24
545.83	26651.68
546.00	26740.62
546.16	26986.38
546.33	26471.46
546.50	26560.40
546.67	26352.09
546.83	26401.24
547.00	26986.38
547.17	26630.62
547.34	26649.34
547.50	27009.78
547.67	27292.99
547.84	26902.12
548.00	26852.97
548.17	26852.97
548.34	27236.81
548.51	27358.52
548.67	26845.94
548.84	27129.15
549.01	26892.76
549.18	27250.86
549.34	27215.75
549.51	27304.69
549.68	27208.73
549.84	26937.23
550.01	27496.61
550.18	27168.94
550.34	27190.00
550.51	27447.46
550.68	27585.55
550.84	27590.24
551.01	27733.01
551.18	26698.49
551.34	27080.00
551.51	27295.33
551.68	27494.27
551.84	27138.51
552.01	27248.52
552.18	27690.88
552.34	27391.29
552.51	27660.45
552.68	27285.97
552.84	27606.62
553.01	27637.05
553.18	27541.08
553.34	27915.57
553.51	27981.10
553.67	27679.18
553.84	27974.08
554.01	27948.34
554.17	28187.07
554.34	27988.13
554.51	27758.75
554.67	27915.57
554.84	27873.44
555.00	27967.06
555.17	27985.79
555.33	27941.32
555.50	27894.50
555.67	28287.71
555.83	28037.28
556.00	27711.94
556.16	28353.25
556.33	27871.10
556.50	27716.62
556.66	28404.74
556.83	28182.39
556.99	28542.83
557.16	28320.48
557.32	28470.28
557.49	28100.47
557.65	28210.48
557.82	28180.05
557.98	28287.71
558.15	28292.40
558.32	28491.34
558.48	28121.54
558.65	28666.88
558.81	28594.32
558.98	28554.54
559.14	28416.44
559.31	28072.39
559.47	28369.63
559.64	28435.17
559.80	28388.36
559.97	28603.69
560.13	28582.62
560.30	28376.66
560.46	28896.25
560.63	28531.13
560.79	28758.16
560.96	28507.72
561.12	28327.50
561.29	28716.03
561.45	28519.43
561.61	28554.54
561.78	28428.15
561.94	28978.17
562.11	29123.29
562.27	29003.92
562.44	28711.35
562.60	28524.11
562.77	28575.60
562.93	28701.99
563.10	28655.18
563.26	28725.39
563.42	28701.99
563.59	28514.75
563.75	28896.25
563.92	29006.26
564.08	28819.02
564.24	28854.12
564.41	28622.41
564.57	28851.78
564.74	28985.19
564.90	28987.53
565.07	29252.02
565.23	28762.84
565.39	29226.27
565.56	29448.62
565.72	28884.55
565.88	29053.07
566.05	29282.44
566.21	29048.39
566.38	28886.89
566.54	28725.39
566.70	29083.50
566.87	29486.07
567.03	29263.72
567.19	29319.89
567.36	28978.17
567.52	29123.29
567.68	29113.92
567.85	28854.12
568.01	29202.86
568.17	28929.02
568.34	29434.58
568.50	28945.41
568.66	29146.69
568.83	29481.39
568.99	29394.79
569.15	29273.08
569.32	29209.89
569.48	29422.87
569.64	29252.02
569.81	29338.62
569.97	28900.94
570.13	29322.23
570.30	29081.16
570.46	29436.92
570.62	29376.06
570.78	29125.63
570.95	29139.67
571.11	29366.70
571.27	29237.97
571.43	29275.42
571.60	29457.98
571.76	29340.96
571.92	29738.85
572.09	29305.85
572.25	29598.41
572.41	29579.69
572.57	29158.39
572.74	29504.79
572.90	29219.25
573.06	29216.91
573.22	29511.81
573.38	29476.71
573.55	29303.51
573.71	29598.41
573.87	29738.85
574.03	29237.97
574.20	29130.31
574.36	29200.52
574.52	29514.16
574.68	29214.57
574.84	29514.16
575.01	29811.40
575.17	29591.39
575.33	29689.70
575.49	29631.18
575.65	29490.75
575.82	30082.91
575.98	29535.22
576.14	29930.77
576.30	29675.65
576.46	29144.35
576.62	29301.17
576.79	29731.83
576.95	29802.04
577.11	29666.29
577.27	29834.81
577.43	29717.78
577.59	29418.19
577.75	29490.75
577.92	29296.49
578.08	29415.85
578.24	29465.00
578.40	29546.92
578.56	29670.97
578.72	29823.11
578.88	29825.45
579.04	30167.16
579.21	29776.30
579.37	29752.89
579.53	29844.17
579.69	29420.53
579.85	29881.62
580.01	29577.35
580.17	29177.12
580.33	29518.84
580.49	29663.95
580.65	29769.27
580.82	29638.20
580.98	29703.74
581.14	29556.28
581.30	29479.05
581.46	29598.41
581.62	29619.48
581.78	29530.54
581.94	29692.04
582.10	29628.84
582.26	29216.91
582.42	29937.79
582.58	29865.24
582.74	29448.62
582.90	29996.31
583.06	29940.13
583.22	29633.52
583.38	29633.52
583.54	29453.30
583.70	29788.00
583.86	29610.12
584.02	29710.76
584.18	30101.63
584.34	29631.18
584.50	29813.74
584.66	29926.09
584.82	29324.57
584.98	29956.52
585.14	29558.63
585.30	29357.34
585.46	29860.55
585.62	29539.90
585.78	29457.98
585.94	29694.38
586.10	29930.77
586.26	30040.78
586.42	30213.98
586.58	30099.29
586.74	29638.20
586.90	29537.56
587.06	29392.45
587.22	29958.86
587.38	29724.80
587.54	29914.39
587.70	30071.20
587.86	30031.41
588.02	30061.84
588.18	30113.33
588.34	29977.58
588.49	30015.03
588.65	29663.95
588.81	29780.98
588.97	29584.37
589.13	30052.48
589.29	29575.01
589.45	30101.63
589.61	30043.12
589.77	30382.49
589.93	30616.55
590.08	30326.32
590.24	30197.59
590.40	30085.25
590.56	30017.37
590.72	30190.57
590.88	29986.94
591.04	29841.83
591.20	30281.85
591.35	30059.50
591.51	30448.03
591.67	30281.85
591.83	30132.06
591.99	30443.35
592.15	30139.08
592.31	30244.40
592.46	29937.79
592.62	29546.92
592.78	30438.67
592.94	30181.21
593.10	30225.68
593.26	30244.40
593.41	30373.13
593.57	30438.67
593.73	30370.79
593.89	30473.78
594.05	30331.00
594.20	30244.40
594.36	30160.14
594.52	30024.39
594.68	29750.55
594.84	29762.25
594.99	29996.31
595.15	30246.74
595.31	30466.75
595.47	30251.42
595.62	30532.29
595.78	30581.44
595.94	30401.22
596.10	30167.16
596.25	30389.52
596.41	30167.16
596.57	30113.33
596.73	30338.02
596.88	30169.51
597.04	30845.92
597.20	30125.04
597.36	30300.58
597.51	30293.55
597.67	30291.21
597.83	29986.94
597.99	30338.02
598.14	30277.17
598.30	30300.58
598.46	29736.51
598.61	30260.79
598.77	30469.09
598.93	29958.86
599.09	30443.35
599.24	30492.50
599.40	30515.90
599.56	30373.13
599.71	30501.86
599.87	30536.97
600.03	30316.96
600.18	30246.74
600.34	30319.30
600.50	30209.29
600.65	29839.49
600.81	30515.90
600.97	30522.93
601.12	30492.50
601.28	30094.61
601.44	30611.87
601.59	30735.92
601.75	30169.51
601.91	30534.63
602.06	30366.11
602.22	30387.18
602.37	30103.97
602.53	30792.09
602.69	30417.60
602.84	30174.19
603.00	29996.31
603.16	30754.64
603.31	30295.89
603.47	30483.14
603.62	30134.40
603.78	30040.78
603.94	30258.45
604.09	30558.03
604.25	30307.60
604.40	30302.92
604.56	30239.72
604.71	30574.42
604.87	30312.28
605.03	30581.44
605.18	30029.07
605.34	30394.20
605.49	29970.56
605.65	30321.64
605.80	29914.39
605.96	30258.45
606.12	30600.16
606.27	30291.21
606.43	30302.92
606.58	30298.23
606.74	30295.89
606.89	30658.68
607.05	30199.93
607.20	30368.45
607.36	30033.75
607.51	30405.90
607.67	30000.99
607.82	29886.30
607.98	30005.67
608.13	30242.06
608.29	30115.67
608.44	30000.99
608.60	30459.73
608.75	30235.04
608.91	30017.37
609.06	30017.37
609.22	30274.83
609.37	30148.44
609.53	30272.49
609.68	29748.21
609.84	29673.31
609.99	30022.05
610.15	30022.05
610.30	30136.74
610.46	30164.82
610.61	29600.76
610.76	30286.53
610.92	30094.61
611.07	29977.58
611.23	30017.37
611.38	29876.94
611.54	30066.52
611.69	29677.99
611.84	29446.28
612.00	29853.53
612.15	29790.34
612.31	29930.77
612.46	29886.30
612.62	29802.04
612.77	30003.33
612.92	30249.08
613.08	29895.66
613.23	29968.22
613.39	29710.76
613.54	29401.81
613.69	29804.38
613.85	29785.66
614.00	29551.60
614.15	29785.66
614.31	29762.25
614.46	29991.62
614.62	30000.99
614.77	29949.50
614.92	30150.78
615.08	29387.77
615.23	29558.63
615.38	29331.59
615.54	29380.74
615.69	29965.88
615.84	29324.57
616.00	29338.62
616.15	29535.22
616.30	29879.28
616.46	29347.98
616.61	29750.55
616.76	29420.53
616.92	29539.90
617.07	29624.16
617.22	29397.13
617.37	29429.90
617.53	29673.31
617.68	29567.99
617.83	29429.90
617.99	29123.29
618.14	29179.46
618.29	29282.44
618.45	29682.67
618.60	29125.63
618.75	29134.99
618.90	29436.92
619.06	29640.54
619.21	29329.25
619.36	29315.21
619.51	28945.41
619.67	29230.95
619.82	28910.30
619.97	29010.94
620.12	29273.08
620.28	29502.45
620.43	29282.44
620.58	29186.48
620.73	29123.29
620.89	29160.73
621.04	29163.08
621.19	29151.37
621.34	29214.57
621.49	28779.23
621.65	29020.30
621.80	28650.50
621.95	29017.96
622.10	29116.26
622.25	28922.00
622.41	28933.70
622.56	28842.42
622.71	28786.25
622.86	29163.08
623.01	28781.57
623.16	28809.65
623.32	28697.31
623.47	28797.95
623.62	28882.21
623.77	28573.26
623.92	28849.44
624.07	28692.63
624.23	28402.40
624.38	28804.97
624.53	28893.91
624.68	28985.19
624.83	28697.31
624.98	28905.62
625.13	28704.33
625.29	28940.72
625.44	28540.49
625.59	28704.33
625.74	28563.90
625.89	28538.15
626.04	28561.56
626.19	28645.82
626.34	28386.02
626.49	28542.83
626.65	28114.52
626.80	28636.45
626.95	28524.11
627.10	28755.82
627.25	28423.47
627.40	28063.02
627.55	28187.07
627.70	28100.47
627.85	28102.81
628.00	28308.78
628.15	28041.96
628.30	27878.12
628.45	28582.62
628.60	28278.35
628.76	28041.96
628.91	28126.22
629.06	28535.81
629.21	28229.20
629.36	28231.54
629.51	28510.07
629.66	27969.40
629.81	27824.29
629.96	27777.48
630.11	27782.16
630.26	27938.97
630.41	28079.41
630.56	27779.82
630.71	28390.70
630.86	28095.79
631.01	28308.78
631.16	28341.55
631.31	28343.89
631.46	27618.32
631.61	27810.25
631.76	27651.09
631.91	27740.03
632.06	27737.69
632.21	27871.10
632.36	27630.02
632.51	27681.52
632.66	27562.15
632.81	27702.58
632.96	27742.37
633.10	27290.65
633.25	27983.44
633.40	27648.75
633.55	27878.12
633.70	27714.28
633.85	27658.11
634.00	27138.51
634.15	27435.76
634.30	27386.61
634.45	27470.87
634.60	26925.52
634.75	27381.93
634.90	26969.99
635.05	27751.73
635.19	27482.57
635.34	27807.90
635.49	27676.83
635.64	27339.80
635.79	27295.33
635.94	27150.21
636.09	27571.51
636.24	27288.31
636.39	27283.62
636.53	27447.46
636.68	27300.01
636.83	27398.31
636.98	27178.30
637.13	27260.22
637.28	27035.53
637.43	27236.81
637.57	27222.77
637.72	27122.13
637.87	27082.34
638.02	27307.03
638.17	27133.83
638.32	27115.11
638.46	27030.85
638.61	26742.96
638.76	26735.94
638.91	26824.88
639.06	27012.12
639.20	26867.01
639.35	27337.46
639.50	27042.55
639.65	27215.75
639.80	27290.65
639.94	27087.02
640.09	27009.78
640.24	26778.07
640.39	26551.04
640.54	26738.28
640.68	27016.80
640.83	26494.86
640.98	26757.00
641.13	26242.09
641.27	26808.50
641.42	26483.16
641.57	26689.13
641.72	26803.82
641.86	26607.21
642.01	26731.26
642.16	26663.38
642.31	26426.99
642.45	26536.99
642.60	26363.79
642.75	26272.51
642.90	26593.17
643.04	26485.50
643.19	26501.89
643.34	26647.00
643.48	26405.92
643.63	26391.88
643.78	26352.09
643.93	26466.78
644.07	26766.37
644.22	26759.34
644.37	26298.26
644.51	26419.97
644.66	25806.75
644.81	26450.39
644.95	26602.53
645.10	25881.64
645.25	26115.70
645.39	26162.51
645.54	25961.22
645.69	26164.85
645.83	26438.69
645.98	26363.79
646.13	26544.02
646.27	26490.18
646.42	25984.63
646.57	26436.35
646.71	26321.66
646.86	26054.84
647.00	26272.51
647.15	25830.15
647.30	25804.41
647.44	25748.23
647.59	26314.64
647.74	25886.32
647.88	25687.38
648.03	26017.40
648.17	26349.75
648.32	26150.81
648.47	25949.52
648.61	26038.46
648.76	26181.23
648.90	26033.78
649.05	26082.93
649.20	25914.41
649.34	25757.60
649.49	25427.58
649.63	25687.38
649.78	25572.69
649.92	25858.24
650.07	25783.34
650.21	25855.90
650.36	25785.68
650.51	25757.60
650.65	25930.80
650.80	25926.11
650.94	25663.97
651.09	25525.88
651.23	25717.81
651.38	25486.09
651.52	25638.23
651.67	25546.95
651.81	25528.22
651.96	25614.82
652.10	25355.02
652.25	25539.93
652.39	25453.33
652.54	25652.27
652.68	25507.16
652.83	25408.86
652.97	25862.92
653.12	25830.15
653.26	25420.56
653.41	25516.52
653.55	25181.82
653.70	25401.83
653.84	25350.34
653.99	25252.04
654.13	25198.21
654.27	25378.43
654.42	25310.55
654.56	25638.23
654.71	25472.05
654.85	25371.41
655.00	25500.14
655.14	24975.86
655.29	25575.03
655.43	25455.67
655.57	25174.80
655.72	24783.93
655.86	25177.14
656.01	25528.22
656.15	25156.08
656.30	25116.29
656.44	24905.64
656.58	25130.33
656.73	24982.88
656.87	24973.52
657.01	24877.55
657.16	25256.72
657.30	24912.66
657.45	24912.66
657.59	25001.60
657.73	25441.62
657.88	25160.76
658.02	24943.09
658.16	24978.20
658.31	24411.79
658.45	24816.70
658.60	24456.26
658.74	24489.03
658.88	24783.93
659.03	24662.22
659.17	24645.84
659.31	24650.52
659.46	24678.61
659.60	25254.38
659.74	24584.99
659.89	24442.21
660.03	24334.55
660.17	24210.50
660.32	24418.81
660.46	24465.62
660.60	24425.83
660.74	24325.19
660.89	24245.61
661.03	24341.57
661.17	24252.63
661.32	24456.26
661.46	24341.57
661.60	23840.70
661.74	24482.00
661.89	24339.23
662.03	24500.73
662.17	24149.65
662.31	23894.53
662.46	24177.73
662.60	23964.75
662.74	23576.22
662.88	23882.83
663.03	23765.80
663.17	23843.04
663.31	23314.08
663.45	24006.87
663.60	23819.63
663.74	23433.44
663.88	23756.44
664.02	23721.33
664.17	23864.10
664.31	23503.66
664.45	23454.51
664.59	23580.90
664.73	23784.52
664.88	23398.34
665.02	23328.12
665.16	23316.42
665.30	23190.03
665.44	23536.43
665.59	23370.25
665.73	23094.07
665.87	23051.94
666.01	22923.21
666.15	23550.47
666.29	23300.03
666.44	23267.27
666.58	23073.00
666.72	22895.12
666.86	23183.01
667.00	23213.43
667.14	23014.49
667.28	23337.48
667.43	22916.19
667.57	23101.09
667.71	22703.20
667.85	22354.46
667.99	22742.99
668.13	22506.59
668.27	22644.68
668.41	22668.09
668.56	22642.34
668.70	22860.01
668.84	22567.45
668.98	22607.23
669.12	22574.47
669.26	22579.15
669.40	22279.56
669.54	22541.70
669.68	22532.34
669.82	21989.33
669.96	22183.60
670.10	22375.52
670.25	22342.75
670.39	22099.34
670.53	22160.19
670.67	21954.22
670.81	22260.84
670.95	21888.69
671.09	22052.53
671.23	21647.61
671.37	22092.32
671.51	22185.94
671.65	22108.70
671.79	21893.37
671.93	21790.39
672.07	21757.62
672.21	21982.31
672.35	21626.55
672.49	21467.39
672.63	21542.29
672.77	21385.47
672.91	21582.08
673.05	21352.71
673.19	21373.77
673.33	21406.54
673.47	21284.83
673.61	21362.07
673.75	21640.59
673.89	21198.23
674.03	21385.47
674.17	21254.40
674.31	21291.85
674.45	20987.58
674.59	21137.38
674.73	20975.88
674.87	20929.07
675.01	20699.70
675.15	20711.40
675.29	20957.16
675.43	20673.95
675.56	20636.50
675.70	20592.03
675.84	20528.84
675.98	20058.39
676.12	20620.12
676.26	20599.05
676.40	20865.88
676.54	20486.71
676.68	20472.67
676.82	19880.51
676.96	20123.93
677.10	20276.06
677.23	20322.87
677.37	20074.77
677.51	19910.94
677.65	20002.22
677.79	19744.76
677.93	19585.60
678.07	19953.07
678.21	19683.91
678.34	19702.63
678.48	19765.82
678.62	19618.37
678.76	19604.33
678.90	19356.23
679.04	19548.15
679.18	19323.46
679.31	19112.81
679.45	19276.65
679.59	18988.77
679.73	19232.18
679.87	19154.94
680.00	18609.60
680.14	18679.82
680.28	18670.45
680.42	18860.04
680.56	18848.33
680.70	18752.37
680.83	18916.21
680.97	18726.63
681.11	18916.21
681.25	18752.37
681.39	18490.23
681.52	18714.92
681.66	18546.40
681.80	18092.34
681.94	18097.02
682.07	18260.86
682.21	18075.96
682.35	17937.87
682.49	17879.35
682.62	17991.70
682.76	17865.31
682.90	18073.62
683.04	17834.88
683.17	17799.77
683.31	17619.55
683.45	17914.46
683.59	17741.26
683.72	17731.90
683.86	17511.89
684.00	17596.15
684.13	17755.30
684.27	17628.92
684.41	17310.60
684.55	17315.28
684.68	17008.67
684.82	16952.50
684.96	17188.89
685.09	16570.99
685.23	16816.75
685.37	16692.70
685.50	17029.74
685.64	17041.44
685.78	17025.06
685.91	16753.55
686.05	16823.77
686.19	16613.12
686.32	16596.74
686.46	16322.90
686.60	16442.26
686.73	16547.59
686.87	16418.86
687.01	16442.26
687.14	16198.85
687.28	15934.37
687.42	16175.44
687.55	16065.44
687.69	16318.22
687.82	16044.37
687.96	15822.02
688.10	15901.60
688.23	15917.98
688.37	15667.55
688.50	15761.17
688.64	15775.21
688.78	15854.79
688.91	15414.77
689.05	15704.99
689.18	15417.11
689.32	15250.93
689.46	15110.50
689.59	15428.81
689.73	15061.35
689.86	15269.66
690.00	14988.79
690.13	15161.99
690.27	15323.49
690.41	15154.97
690.54	15021.56
690.68	15033.26
690.81	14977.09
690.95	14895.17
691.08	14850.70
691.22	14736.01
691.35	14864.74
691.49	14780.48
691.62	14754.74
691.76	14490.26
691.89	14712.61
692.03	14094.71
692.16	14216.41
692.30	13965.98
692.43	14375.57
692.57	14017.47
692.70	14193.01
692.84	14043.21
692.97	14026.83
693.11	13994.06
693.24	14012.79
693.38	13895.76
693.51	14012.79
693.65	13970.66
693.78	13881.72
693.92	13792.78
694.05	13713.20
694.19	13554.04
694.32	13530.64
694.45	13453.40
694.59	13413.61
694.72	13132.75
694.86	13156.15
694.99	13083.59
695.13	13266.16
695.26	12971.25
695.39	12816.77
695.53	12821.45
695.66	12971.25
695.80	13064.87
695.93	12835.50
696.07	12776.98
696.20	12931.46
696.33	12542.93
696.47	12994.65
696.60	12681.02
696.73	12484.42
696.87	12376.75
697.00	12608.47
697.14	12453.99
697.27	12128.66
697.40	12245.68
697.54	12257.39
697.67	12060.78
697.80	12093.55
697.94	12105.25
698.07	11899.28
698.21	12063.12
698.34	11810.34
698.47	12051.42
698.61	12100.57
698.74	11927.37
698.87	11971.84
699.01	11854.81
699.14	11583.31
699.27	11829.07
699.40	11648.85
699.54	11758.85
699.67	11386.71
699.80	11480.33
699.94	11222.87
700.07	11527.14
700.20	11358.62
700.34	11091.80
700.47	11002.86
700.60	11066.05
700.73	11061.37
700.87	11101.16
701.00	11101.16
701.13	10977.11
701.26	10934.98
701.40	11162.01
701.53	10883.49
701.66	10979.45
701.79	10616.67
701.93	10665.82
702.06	10677.52
702.19	10562.84
702.32	10630.71
702.46	10590.92
702.59	10410.70
702.72	10324.10
702.85	10321.76
702.99	10251.55
703.12	10466.88
703.25	10303.04
703.38	10244.52
703.51	10181.33
703.65	10209.42
703.78	10139.20
703.91	10104.09
704.04	9907.49
704.17	9975.36
704.31	9937.91
704.44	9844.29
704.57	9921.53
704.70	9535.34
704.83	9689.82
704.96	9582.15
705.10	9813.87
705.23	9624.28
>>>>>End Processed Spectral Data<<<<<
