SpectraSuite Data File
++++++++++++++++++++++++++++++++++++
Date: Fri Oct 18 13:58:35 GMT-05:00 2013
User: bianchi
Dark Spectrum Present: No
Reference Spectrum Present: No
Number of Sampled Component Spectra: 1
Spectrometers: USB2+H05261
Integration Time (usec): 50000 (USB2+H05261)
Spectra Averaged: 1 (USB2+H05261)
Boxcar Smoothing: 0 (USB2+H05261)
Correct for Electrical Dark: No (USB2+H05261)
Strobe/Lamp Enabled: No (USB2+H05261)
Correct for Detector Non-linearity: No (USB2+H05261)
Correct for Stray Light: No (USB2+H05261)
Number of Pixels in Processed Spectrum: 2048
>>>>>Begin Processed Spectral Data<<<<<
365.73	0.00
365.92	0.00
366.12	0.00
366.32	0.00
366.52	0.00
366.72	0.00
366.91	0.00
367.11	0.00
367.31	0.00
367.51	0.00
367.70	0.00
367.90	0.00
368.10	0.00
368.30	0.00
368.49	0.00
368.69	0.00
368.89	0.00
369.09	0.00
369.28	0.00
369.48	0.00
369.68	0.00
369.87	0.00
370.07	0.00
370.27	0.00
370.47	21.06
370.66	70.22
370.86	88.94
371.06	182.56
371.25	102.98
371.45	117.03
371.65	105.32
371.84	100.64
372.04	163.84
372.24	180.22
372.44	196.60
372.63	304.27
372.83	208.31
373.03	201.29
373.22	212.99
373.42	203.63
373.62	255.12
373.81	224.69
374.01	327.68
374.21	264.48
374.40	227.03
374.60	229.37
374.79	294.91
374.99	222.35
375.19	248.10
375.38	210.65
375.58	294.91
375.78	236.39
375.97	262.14
376.17	285.55
376.37	257.46
376.56	191.92
376.76	212.99
376.95	308.95
377.15	318.31
377.35	304.27
377.54	175.54
377.74	299.59
377.93	287.89
378.13	231.71
378.33	283.20
378.52	334.70
378.72	255.12
378.91	229.37
379.11	304.27
379.31	297.25
379.50	259.80
379.70	334.70
379.89	278.52
380.09	325.33
380.28	292.57
380.48	262.14
380.68	299.59
380.87	290.23
381.07	353.42
381.26	271.50
381.46	271.50
381.65	353.42
381.85	259.80
382.04	299.59
382.24	383.85
382.43	311.29
382.63	367.46
382.83	308.95
383.02	355.76
383.22	381.51
383.41	376.83
383.61	334.70
383.80	440.02
384.00	360.44
384.19	276.18
384.39	369.80
384.58	404.91
384.78	418.96
384.97	358.10
385.17	346.40
385.36	395.55
385.56	418.96
385.75	369.80
385.95	365.12
386.14	421.30
386.34	390.87
386.53	393.21
386.72	388.53
386.92	425.98
387.11	451.72
387.31	383.85
387.50	479.81
387.70	444.70
387.89	362.78
388.09	477.47
388.28	449.38
388.48	451.72
388.67	437.68
388.86	486.83
389.06	517.26
389.25	512.58
389.45	484.49
389.64	372.15
389.84	444.70
390.03	470.45
390.22	512.58
390.42	451.72
390.61	472.79
390.81	543.00
391.00	479.81
391.19	510.24
391.39	514.92
391.58	498.53
391.78	458.74
391.97	507.90
392.16	566.41
392.36	440.02
392.55	571.09
392.75	500.87
392.94	491.51
393.13	533.64
393.33	566.41
393.52	533.64
393.71	552.37
393.91	634.29
394.10	613.22
394.29	564.07
394.49	510.24
394.68	601.52
394.88	585.13
395.07	559.39
395.26	524.28
395.46	552.37
395.65	589.82
395.84	678.76
396.04	753.65
396.23	664.71
396.42	589.82
396.62	599.18
396.81	636.63
397.00	587.47
397.19	669.39
397.39	671.73
397.58	692.80
397.77	615.56
397.97	699.82
398.16	657.69
398.35	704.50
398.55	653.01
398.74	674.07
398.93	671.73
399.12	730.25
399.32	643.65
399.51	648.33
399.70	692.80
399.90	610.88
400.09	795.78
400.28	798.12
400.47	753.65
400.67	629.60
400.86	814.51
401.05	702.16
401.24	723.23
401.44	777.06
401.63	844.93
401.82	791.10
402.01	826.21
402.21	755.99
402.40	821.53
402.59	821.53
402.78	823.87
402.97	851.96
403.17	800.46
403.36	919.83
403.55	875.36
403.74	856.64
403.93	957.28
404.13	868.34
404.32	915.15
404.51	880.04
404.70	866.00
404.89	917.49
405.09	950.26
405.28	952.60
405.47	961.96
405.66	973.66
405.85	973.66
406.05	957.28
406.24	999.41
406.43	973.66
406.62	947.92
406.81	987.71
407.00	910.47
407.20	1029.84
407.39	936.21
407.58	1086.01
407.77	1011.11
407.96	1095.37
408.15	1039.20
408.34	992.39
408.54	1034.52
408.73	1081.33
408.92	1100.05
409.11	1128.14
409.30	1193.67
409.49	1137.50
409.68	1118.78
409.87	1172.61
410.07	1224.10
410.26	1179.63
410.45	1137.50
410.64	1184.31
410.83	1306.02
411.02	1245.16
411.21	1256.87
411.40	1235.80
411.59	1294.32
411.78	1224.10
411.98	1322.40
412.17	1369.21
412.36	1315.38
412.55	1343.47
412.74	1343.47
412.93	1341.13
413.12	1371.55
413.31	1357.51
413.50	1235.80
413.69	1380.92
413.88	1296.66
414.07	1441.77
414.26	1472.20
414.45	1519.01
414.64	1413.68
414.83	1526.03
415.02	1444.11
415.22	1507.30
415.41	1526.03
415.60	1504.96
415.79	1558.80
415.98	1600.93
416.17	1577.52
416.36	1514.33
416.55	1636.03
416.74	1568.16
416.93	1645.40
417.12	1603.27
417.31	1643.06
417.50	1652.42
417.69	1732.00
417.88	1720.29
418.07	1760.08
418.26	1706.25
418.45	1788.17
418.64	1942.64
418.83	1741.36
419.02	1736.68
419.21	1842.00
419.39	1881.79
419.58	1816.26
419.77	1863.07
419.96	1867.75
420.15	1877.11
420.34	1774.13
420.53	1898.17
420.72	1921.58
420.91	1961.37
421.10	1856.04
421.29	1959.03
421.48	1891.15
421.67	1991.80
421.86	1874.77
422.05	1956.69
422.24	1863.07
422.43	1907.54
422.61	1942.64
422.80	2040.95
422.99	2036.27
423.18	1982.43
423.37	2031.58
423.56	1907.54
423.75	1954.35
423.94	1998.82
424.13	1795.19
424.32	1926.26
424.50	2008.18
424.69	2038.61
424.88	2087.76
425.07	2026.90
425.26	1966.05
425.45	2083.08
425.64	2167.34
425.83	2101.80
426.01	2094.78
426.20	2024.56
426.39	2066.69
426.58	2012.86
426.77	2059.67
426.96	2003.50
427.15	2167.34
427.33	2143.93
427.52	2064.35
427.71	2146.27
427.90	2125.21
428.09	2172.02
428.28	2136.91
428.46	2190.74
428.65	2183.72
428.84	2249.25
429.03	2328.83
429.22	2282.02
429.40	2157.97
429.59	2253.94
429.78	2165.00
429.97	2165.00
430.16	2167.34
430.34	2298.41
430.53	2289.04
430.72	2289.04
430.91	2230.53
431.10	2265.64
431.28	2258.62
431.47	2331.17
431.66	2342.88
431.85	2193.08
432.03	2342.88
432.22	2438.84
432.41	2537.14
432.60	2480.97
432.79	2406.07
432.97	2417.77
433.16	2546.50
433.35	2473.95
433.54	2408.41
433.72	2450.54
433.91	2438.84
434.10	2516.08
434.28	2420.11
434.47	2551.18
434.66	2548.84
434.85	2630.76
435.03	2663.53
435.22	2600.34
435.41	2651.83
435.59	2682.25
435.78	2621.40
435.97	2593.31
436.16	2567.57
436.34	2747.79
436.53	2595.65
436.72	2757.15
436.90	2621.40
437.09	2761.83
437.28	2686.94
437.46	2719.70
437.65	2799.28
437.84	2843.75
438.02	2857.79
438.21	2708.00
438.40	2733.75
438.58	2890.56
438.77	2864.82
438.96	2808.64
439.14	2909.29
439.33	2986.52
439.52	2871.84
439.70	3009.93
439.89	3073.12
440.08	2967.80
440.26	2897.58
440.45	2972.48
440.63	3040.36
440.82	2956.10
441.01	3199.51
441.19	3162.06
441.38	3286.11
441.57	3183.13
441.75	3169.09
441.94	3335.26
442.12	3269.73
442.31	3314.20
442.50	3255.69
442.68	3290.79
442.87	3283.77
443.05	3382.07
443.24	3339.94
443.43	3262.71
443.61	3279.09
443.80	3494.42
443.98	3405.48
444.17	3274.41
444.35	3361.01
444.54	3428.88
444.73	3389.10
444.91	3393.78
445.10	3435.91
445.28	3332.92
445.47	3459.31
445.65	3370.37
445.84	3503.78
446.02	3372.71
446.21	3400.80
446.39	3363.35
446.58	3447.61
446.77	3466.33
446.95	3325.90
447.14	3363.35
447.32	3442.93
447.51	3459.31
447.69	3283.77
447.88	3562.30
448.06	3456.97
448.25	3414.84
448.43	3517.83
448.62	3463.99
448.80	3538.89
448.99	3529.53
449.17	3569.32
449.36	3548.25
449.54	3630.17
449.73	3688.68
449.91	3763.58
450.10	3653.58
450.28	3646.55
450.46	3822.09
450.65	3801.03
450.83	3583.36
451.02	3637.19
451.20	3810.39
451.39	3864.22
451.57	3630.17
451.76	3712.09
451.94	3775.28
452.13	3836.14
452.31	3754.22
452.49	3707.41
452.68	3955.51
452.86	3861.88
453.05	3763.58
453.23	3953.16
453.42	3801.03
453.60	3805.71
453.78	4025.72
453.97	3976.57
454.15	3936.78
454.34	3852.52
454.52	4046.79
454.70	4011.68
454.89	3925.08
455.07	3948.48
455.26	4056.15
455.44	4156.79
455.62	3953.16
455.81	4065.51
455.99	4126.36
456.17	4177.86
456.36	4187.22
456.54	4182.54
456.73	4166.15
456.91	4337.01
457.09	4311.27
457.28	4447.02
457.46	4180.20
457.64	4285.52
457.83	4264.46
458.01	4348.72
458.19	4491.49
458.38	4266.80
458.56	4510.21
458.74	4344.03
458.93	4304.25
459.11	4695.11
459.29	4418.93
459.48	4407.23
459.66	4496.17
459.84	4358.08
460.03	4514.89
460.21	4430.63
460.39	4498.51
460.57	4468.08
460.76	4622.56
460.94	4662.35
461.12	4573.41
461.31	4669.37
461.49	4601.49
461.67	4521.92
461.85	4643.62
462.04	4805.12
462.22	4840.23
462.40	4727.88
462.59	4809.80
462.77	4732.56
462.95	4861.29
463.13	4786.40
463.32	4933.85
463.50	4802.78
463.68	4877.68
463.86	4671.71
464.05	4720.86
464.23	4807.46
464.41	4828.53
464.59	4723.20
464.78	4971.30
464.96	4795.76
465.14	4828.53
465.32	4870.65
465.50	4901.08
465.69	4812.14
465.87	4774.69
466.05	4854.27
466.23	4767.67
466.41	4938.53
466.60	5266.21
466.78	4905.76
466.96	5008.75
467.14	4978.32
467.32	5100.03
467.51	5036.83
467.69	5114.07
467.87	5074.28
468.05	5277.91
468.23	5022.79
468.41	5203.01
468.60	5076.62
468.78	5224.08
468.96	5053.22
469.14	5305.99
469.32	5294.29
469.50	5097.69
469.69	5327.06
469.87	5444.09
470.05	5252.16
470.23	5310.68
470.41	5390.25
470.59	5476.85
470.77	5343.44
470.95	5441.75
471.14	5680.48
471.32	5387.91
471.50	5614.95
471.68	5621.97
471.86	5516.64
472.04	5678.14
472.22	5628.99
472.40	5647.71
472.58	5664.10
472.77	5736.65
472.95	5830.27
473.13	5963.68
473.31	5839.64
473.49	5696.86
473.67	5783.46
473.85	5790.49
474.03	5895.81
474.21	5856.02
474.39	5937.94
474.57	5991.77
474.75	6073.69
474.93	6108.80
475.12	6174.33
475.30	6052.63
475.48	6307.74
475.66	6186.04
475.84	6108.80
476.02	6186.04
476.20	6256.25
476.38	6328.81
476.56	6574.56
476.74	6389.66
476.92	6410.73
477.10	6497.33
477.28	6672.87
477.46	6574.56
477.64	6616.69
477.82	6654.14
478.00	6923.30
478.18	6825.00
478.36	6883.52
478.54	7005.22
478.72	6951.39
478.90	7164.38
479.08	7164.38
479.26	7199.49
479.44	7328.22
479.62	7201.83
479.80	7377.37
479.98	7466.31
480.16	7559.93
480.34	7581.00
480.52	7492.05
480.70	7632.49
480.88	7548.23
481.06	7620.78
481.24	7592.70
481.41	7747.17
481.59	7913.35
481.77	8006.97
481.95	8093.57
482.13	7885.26
482.31	8042.08
482.49	8159.11
482.67	8203.58
482.85	8348.69
483.03	8463.38
483.21	8484.44
483.39	8531.25
483.57	8540.61
483.74	8528.91
483.92	8709.13
484.10	8571.04
484.28	8819.14
484.46	8915.10
484.64	9132.77
484.82	8959.57
485.00	8929.14
485.18	8985.32
485.35	9329.38
485.53	9371.50
485.71	9462.79
485.89	9537.68
486.07	9516.62
486.25	9523.64
486.43	9701.52
486.61	9666.41
486.78	9816.21
486.96	9797.48
487.14	10024.51
487.32	10050.26
487.50	9966.00
487.68	10019.83
487.85	10228.14
488.03	10289.00
488.21	10534.75
488.39	10548.79
488.57	10555.82
488.75	10438.79
488.92	10583.90
489.10	10817.96
489.28	10836.68
489.46	11009.88
489.64	11005.20
489.81	11140.95
489.99	11194.78
490.17	11370.32
490.35	11522.46
490.53	11510.75
490.70	11836.09
490.88	11604.38
491.06	11737.79
491.24	11798.64
491.41	11740.13
491.59	11983.54
491.77	12013.97
491.95	11967.16
492.13	12105.25
492.30	12004.61
492.48	12072.48
492.66	12243.34
492.84	12079.50
493.01	12416.54
493.19	12505.48
493.37	12638.89
493.54	12648.26
493.72	12826.14
493.90	12601.44
494.08	12929.12
494.25	12894.01
494.43	13191.26
494.61	13088.28
494.79	13104.66
494.96	13247.43
495.14	13076.57
495.32	13411.27
495.49	13357.44
495.67	13385.52
495.85	13540.00
496.02	13666.39
496.20	13820.86
496.38	13781.07
496.55	13762.35
496.73	14052.58
496.91	13809.16
497.09	14038.53
497.26	14324.08
497.44	14349.82
497.62	14401.32
497.79	14195.35
497.97	14473.87
498.14	14553.45
498.32	14771.12
498.50	14693.88
498.67	14918.57
498.85	15105.82
499.03	15103.48
499.20	15096.46
499.38	15042.62
499.56	14974.75
499.73	15152.63
499.91	15262.63
500.08	15356.25
500.26	15206.46
500.44	15311.78
500.61	15318.81
500.79	15250.93
500.97	15508.39
501.14	15868.83
501.32	15573.92
501.49	15641.80
501.67	15365.62
501.84	16053.73
502.02	15946.07
502.20	16053.73
502.37	16112.25
502.55	16004.58
502.72	15786.91
502.90	15775.21
503.07	16105.23
503.25	16346.30
503.43	16250.34
503.60	16325.24
503.78	16673.98
503.95	16578.01
504.13	16404.81
504.30	16402.47
504.48	16320.56
504.65	16652.91
504.83	16533.54
505.01	16933.78
505.18	16999.31
505.36	17046.12
505.53	16856.54
505.71	17165.49
505.88	17310.60
506.06	17041.44
506.23	17099.95
506.41	17053.14
506.58	17308.26
506.76	17228.68
506.93	17287.20
507.11	17528.27
507.28	17303.58
507.46	17394.86
507.63	17490.82
507.81	17635.94
507.98	17493.16
508.16	17790.41
508.33	17834.88
508.50	17575.08
508.68	17907.44
508.85	18125.11
509.03	17692.11
509.20	18312.35
509.38	18354.48
509.55	17982.34
509.73	18403.63
509.90	18230.43
510.08	18099.36
510.25	18373.21
510.42	18279.58
510.60	18623.64
510.77	18787.48
510.95	18820.25
511.12	18373.21
511.30	18572.15
511.47	18696.20
511.64	18394.27
511.82	18827.27
511.99	18752.37
512.17	18981.74
512.34	19037.92
512.51	18984.09
512.69	19351.55
512.86	18951.32
513.04	19274.31
513.21	19363.25
513.38	19288.35
513.56	19363.25
513.73	19185.37
513.90	19384.32
514.08	19367.93
514.25	19536.45
514.43	19517.73
514.60	19747.10
514.77	19733.06
514.95	19800.93
515.12	19716.67
515.29	19695.61
515.47	19800.93
515.64	19789.23
515.81	19805.61
515.99	20329.89
516.16	20205.84
516.33	20224.57
516.51	20318.19
516.68	20404.79
516.85	20301.81
517.03	20147.33
517.20	20507.77
517.37	20500.75
517.54	20655.23
517.72	20608.42
517.89	20580.33
518.06	20575.65
518.24	20512.46
518.41	20727.78
518.58	20655.23
518.75	20442.24
518.93	21010.99
519.10	20463.30
519.27	21027.37
519.45	20702.04
519.62	20739.49
519.79	20767.57
519.96	21041.42
520.14	21336.32
520.31	20945.45
520.48	21170.15
520.65	21212.28
520.83	21341.00
521.00	21036.74
521.17	20947.79
521.34	21078.86
521.52	21394.84
521.69	21734.21
521.86	21802.09
522.03	21387.82
522.20	21671.02
522.38	22085.30
522.55	21563.36
522.72	21591.44
522.89	21736.56
523.07	21834.86
523.24	21944.86
523.41	21942.52
523.58	22066.57
523.75	21975.29
523.92	21759.96
524.10	21996.35
524.27	21846.56
524.44	22125.08
524.61	22448.08
524.78	22305.31
524.96	22071.25
525.13	21818.47
525.30	22293.60
525.47	22361.48
525.64	22300.62
525.81	22602.55
525.98	22621.28
526.16	22558.08
526.33	22530.00
526.50	22649.36
526.67	22232.75
526.84	22689.15
527.01	22843.63
527.18	22670.43
527.36	23096.41
527.53	22923.21
527.70	23248.54
527.87	23070.66
528.04	22881.08
528.21	23033.21
528.38	22955.97
528.55	23599.62
528.72	23087.04
528.89	23246.20
529.07	23487.28
529.24	22986.40
529.41	23379.61
529.58	23222.80
529.75	22953.63
529.92	23482.59
530.09	23562.17
530.26	23604.30
530.43	23454.51
530.60	23339.82
530.77	23569.19
530.94	23669.84
531.11	23646.43
531.28	23309.40
531.46	23688.56
531.63	23864.10
531.80	23613.66
531.97	24428.17
532.14	23882.83
532.31	24116.88
532.48	23810.27
532.65	23803.25
532.82	23765.80
532.99	23885.17
533.16	23999.85
533.33	24191.78
533.50	24397.74
533.67	24079.43
533.84	24039.64
534.01	24135.60
534.18	24276.04
534.35	24456.26
534.52	24608.39
534.69	24350.93
534.86	24622.44
535.03	24189.44
535.20	24519.45
535.37	24594.35
535.54	24341.57
535.71	24423.49
535.88	24257.31
536.05	24467.96
536.22	25062.46
536.38	24521.79
536.55	24496.05
536.72	24793.29
536.89	24357.96
537.06	24329.87
537.23	25268.42
537.40	24694.99
537.57	24938.41
537.74	24819.04
537.91	25181.82
538.08	24837.76
538.25	25092.88
538.42	25039.05
538.59	25298.85
538.75	25064.80
538.92	24982.88
539.09	25303.53
539.26	25179.48
539.43	25083.52
539.60	25301.19
539.77	25099.90
539.94	25497.80
540.11	25401.83
540.28	25282.47
540.44	25523.54
540.61	25252.04
540.78	25273.10
540.95	25500.14
541.12	25465.03
541.29	26001.01
541.46	25701.42
541.62	25612.48
541.79	25874.62
541.96	25221.61
542.13	25895.69
542.30	25546.95
542.47	25958.88
542.63	26071.23
542.80	25895.69
542.97	26302.94
543.14	26326.35
543.31	26202.30
543.48	25947.18
543.64	26312.30
543.81	26389.54
543.98	26586.15
544.15	26424.65
544.32	26532.31
544.48	26654.02
544.65	25958.88
544.82	26256.13
544.99	25935.48
545.16	26434.01
545.32	26136.76
545.49	26726.58
545.66	26742.96
545.83	26850.63
546.00	26682.11
546.16	26483.16
546.33	26281.88
546.50	26415.29
546.67	26487.84
546.83	26080.59
547.00	26298.26
547.17	26593.17
547.34	26927.86
547.50	26859.99
547.67	27229.79
547.84	26878.71
548.00	26829.56
548.17	27072.98
548.34	26686.79
548.51	27122.13
548.67	27405.33
548.84	27021.48
549.01	27040.21
549.18	26955.95
549.34	27058.93
549.51	27255.54
549.68	26930.20
549.84	26948.93
550.01	27449.80
550.18	27028.51
550.34	27545.76
550.51	27236.81
550.68	27665.13
550.84	27225.11
551.01	27363.20
551.18	27131.49
551.34	27311.71
551.51	27351.50
551.68	27697.90
551.84	27484.91
552.01	27267.24
552.18	27103.40
552.34	27498.95
552.51	27175.96
552.68	27580.87
552.84	27557.47
553.01	27522.36
553.18	27501.29
553.34	27566.83
553.51	27653.43
553.67	27761.09
553.84	28236.22
554.01	28009.19
554.17	27887.48
554.34	27915.57
554.51	27442.78
554.67	27899.19
554.84	28161.33
555.00	27938.97
555.17	27833.65
555.33	27707.26
555.50	27725.99
555.67	27878.12
555.83	28025.57
556.00	28079.41
556.16	28126.22
556.33	28301.76
556.50	27964.72
556.66	28332.18
556.83	28425.81
556.99	28276.01
557.16	28613.05
557.32	28575.60
557.49	28243.24
557.65	28170.69
557.82	28219.84
557.98	28383.68
558.15	27871.10
558.32	28465.60
558.48	28360.27
558.65	28753.48
558.81	28680.92
558.98	28477.30
559.14	28247.93
559.31	28481.98
559.47	28268.99
559.64	28339.21
559.80	28498.36
559.97	28498.36
560.13	28463.25
560.30	28835.40
560.46	28620.07
560.63	28376.66
560.79	28556.88
560.96	28634.11
561.12	28510.07
561.29	28411.76
561.45	28580.28
561.61	28416.44
561.78	28521.77
561.94	28893.91
562.11	28566.24
562.27	28830.72
562.44	29083.50
562.60	28877.53
562.77	28933.70
562.93	28390.70
563.10	29064.77
563.26	28587.30
563.42	28996.90
563.59	28968.81
563.75	29266.06
563.92	29195.84
564.08	28767.52
564.24	28765.18
564.41	28947.75
564.57	28830.72
564.74	28884.55
564.90	28947.75
565.07	29209.89
565.23	29085.84
565.39	28676.24
565.56	29001.58
565.72	29130.31
565.88	28868.17
566.05	29039.03
566.21	28821.36
566.38	29048.39
566.54	28802.63
566.70	29048.39
566.87	29469.69
567.03	29383.09
567.19	29331.59
567.36	29170.10
567.52	29039.03
567.68	29083.50
567.85	28968.81
568.01	29109.24
568.17	29273.08
568.34	29191.16
568.50	29221.59
568.66	29090.52
568.83	29497.77
568.99	29109.24
569.15	29448.62
569.32	28938.38
569.48	29022.64
569.64	29362.02
569.81	29235.63
569.97	29127.97
570.13	29165.42
570.30	29380.74
570.46	29235.63
570.62	29209.89
570.78	29324.57
570.95	29123.29
571.11	29413.51
571.27	29387.77
571.43	29116.26
571.60	29130.31
571.76	29139.67
571.92	29422.87
572.09	29347.98
572.25	29074.13
572.41	29256.70
572.57	29027.32
572.74	29446.28
572.90	29200.52
573.06	29132.65
573.22	29235.63
573.38	29497.77
573.55	28648.16
573.71	30106.31
573.87	29481.39
574.03	29518.84
574.20	29226.27
574.36	29228.61
574.52	29214.57
574.68	29502.45
574.84	29495.43
575.01	29333.93
575.17	29750.55
575.33	29132.65
575.49	29156.05
575.65	29434.58
575.82	29647.57
575.98	29493.09
576.14	29376.06
576.30	29223.93
576.46	29167.76
576.62	29495.43
576.79	29493.09
576.95	29666.29
577.11	29612.46
577.27	29476.71
577.43	29413.51
577.59	29504.79
577.75	29717.78
577.92	29027.32
578.08	29352.66
578.24	29214.57
578.40	29523.52
578.56	29633.52
578.72	29642.88
578.88	29916.73
579.04	29441.60
579.21	29490.75
579.37	29703.74
579.53	29532.88
579.69	29560.97
579.85	29626.50
580.01	29703.74
580.17	29628.84
580.33	29626.50
580.49	29565.65
580.65	29949.50
580.82	29640.54
580.98	29455.64
581.14	29685.01
581.30	29834.81
581.46	29703.74
581.62	29806.72
581.78	29149.03
581.94	29467.34
582.10	29252.02
582.26	29472.03
582.42	29495.43
582.58	30125.04
582.74	29663.95
582.90	29509.47
583.06	29502.45
583.22	29816.08
583.38	29661.61
583.54	29984.60
583.70	29673.31
583.86	29790.34
584.02	29528.20
584.18	29502.45
584.34	30087.59
584.50	29869.92
584.66	29795.02
584.82	29273.08
584.98	29692.04
585.14	29481.39
585.30	29869.92
585.46	29972.90
585.62	29682.67
585.78	29575.01
585.94	29352.66
586.10	29638.20
586.26	29710.76
586.42	29717.78
586.58	29563.31
586.74	29469.69
586.90	29514.16
587.06	29521.18
587.22	30010.35
587.38	29617.14
587.54	29680.33
587.70	30141.42
587.86	30118.01
588.02	29621.82
588.18	30316.96
588.34	30132.06
588.49	29720.12
588.65	30050.14
588.81	29198.18
588.97	29500.11
589.13	30059.50
589.29	29825.45
589.45	29642.88
589.61	29916.73
589.77	29996.31
589.93	29893.32
590.08	29802.04
590.24	30141.42
590.40	30342.70
590.56	30501.86
590.72	29902.68
590.88	29661.61
591.04	29869.92
591.20	29942.47
591.35	30192.91
591.51	30323.98
591.67	29895.66
591.83	30518.25
591.99	29996.31
592.15	30141.42
592.31	30307.60
592.46	30099.29
592.62	29975.24
592.78	29481.39
592.94	30279.51
593.10	30031.41
593.26	29963.54
593.41	30015.03
593.57	30408.24
593.73	29986.94
593.89	29975.24
594.05	30223.34
594.20	30342.70
594.36	30031.41
594.52	29771.61
594.68	29851.19
594.84	29680.33
594.99	30331.00
595.15	30228.02
595.31	30284.19
595.47	30319.30
595.62	30286.53
595.78	30628.25
595.94	30089.93
596.10	30295.89
596.25	30265.47
596.41	29890.98
596.57	29783.32
596.73	30279.51
596.88	30157.80
597.04	30122.69
597.20	30244.40
597.36	30487.82
597.51	30113.33
597.67	30089.93
597.83	30455.05
597.99	30469.09
598.14	30370.79
598.30	29858.21
598.46	29963.54
598.61	30291.21
598.77	30424.62
598.93	30312.28
599.09	30176.53
599.24	30483.14
599.40	30305.26
599.56	30281.85
599.71	30312.28
599.87	30342.70
600.03	30040.78
600.18	30356.75
600.34	30274.83
600.50	30459.73
600.65	30342.70
600.81	30293.55
600.97	30335.68
601.12	30515.90
601.28	30473.78
601.44	30284.19
601.59	30335.68
601.75	30082.91
601.91	29991.62
602.06	30307.60
602.22	30433.99
602.37	30164.82
602.53	30335.68
602.69	30132.06
602.84	30600.16
603.00	30396.54
603.16	30546.33
603.31	30464.41
603.47	30466.75
603.62	30225.68
603.78	30338.02
603.94	30101.63
604.09	30302.92
604.25	30349.73
604.40	30485.48
604.56	30663.36
604.71	30300.58
604.87	30331.00
605.03	30342.70
605.18	30314.62
605.34	30235.04
605.49	29944.81
605.65	30260.79
605.80	29862.90
605.96	30153.12
606.12	30167.16
606.27	30387.18
606.43	30012.69
606.58	30305.26
606.74	30436.33
606.89	30225.68
607.05	30167.16
607.20	30562.72
607.36	30106.31
607.51	30228.02
607.67	30426.96
607.82	29949.50
607.98	30017.37
608.13	30305.26
608.29	30192.91
608.44	30436.33
608.60	30103.97
608.75	30258.45
608.91	30101.63
609.06	29902.68
609.22	30525.27
609.37	29834.81
609.53	30096.95
609.68	30005.67
609.84	29701.40
609.99	30071.20
610.15	29926.09
610.30	29879.28
610.46	30052.48
610.61	30059.50
610.76	29965.88
610.92	30148.44
611.07	30071.20
611.23	30132.06
611.38	29940.13
611.54	29635.86
611.69	29649.91
611.84	29965.88
612.00	29663.95
612.15	29670.97
612.31	30209.29
612.46	29926.09
612.62	29972.90
612.77	29914.39
612.92	30103.97
613.08	29701.40
613.23	29947.15
613.39	29546.92
613.54	29558.63
613.69	29546.92
613.85	29638.20
614.00	29802.04
614.15	29773.95
614.31	29703.74
614.46	29748.21
614.62	29457.98
614.77	30115.67
614.92	29600.76
615.08	29645.23
615.23	29820.77
615.38	29572.67
615.54	29460.32
615.69	29282.44
615.84	29331.59
616.00	29680.33
616.15	29397.13
616.30	29352.66
616.46	29415.85
616.61	29823.11
616.76	29575.01
616.92	29521.18
617.07	29390.11
617.22	29144.35
617.37	29331.59
617.53	29216.91
617.68	28952.43
617.83	29205.20
617.99	29006.26
618.14	29310.53
618.29	29298.83
618.45	29113.92
618.60	29333.93
618.75	29170.10
618.90	29308.19
619.06	29347.98
619.21	29020.30
619.36	29277.76
619.51	29020.30
619.67	28968.81
619.82	28957.11
619.97	29158.39
620.12	28992.22
620.28	28690.29
620.43	29043.71
620.58	29233.29
620.73	28940.72
620.89	29230.95
621.04	29139.67
621.19	29357.34
621.34	29106.90
621.49	28884.55
621.65	28851.78
621.80	28952.43
621.95	28882.21
622.10	29146.69
622.25	28844.76
622.41	28973.49
622.56	28797.95
622.71	29085.84
622.86	28872.85
623.01	28886.89
623.16	28893.91
623.32	28477.30
623.47	28680.92
623.62	28737.10
623.77	28418.78
623.92	28931.36
624.07	28624.75
624.23	28720.71
624.38	28765.18
624.53	28589.64
624.68	28657.52
624.83	28821.36
624.98	29013.28
625.13	28369.63
625.29	28802.63
625.44	28676.24
625.59	28704.33
625.74	28458.57
625.89	28407.08
626.04	28348.57
626.19	28243.24
626.34	28154.30
626.49	28514.75
626.65	28577.94
626.80	28636.45
626.95	28587.30
627.10	28283.03
627.25	28144.94
627.40	28261.97
627.55	27917.91
627.70	28109.83
627.85	27992.81
628.00	28353.25
628.15	27850.03
628.30	28123.88
628.45	28451.55
628.60	28318.14
628.76	28416.44
628.91	28671.56
629.06	28203.46
629.21	28444.53
629.36	28306.44
629.51	28348.57
629.66	28252.61
629.81	27950.68
629.96	27744.71
630.11	27534.06
630.26	28278.35
630.41	27995.15
630.56	27728.33
630.71	27927.27
630.86	28290.06
631.01	28088.77
631.16	27948.34
631.31	28147.28
631.46	27576.19
631.61	27917.91
631.76	27908.55
631.91	27730.67
632.06	27711.94
632.21	27543.42
632.36	27564.49
632.51	27674.49
632.66	27917.91
632.81	27793.86
632.96	27756.41
633.10	27569.17
633.25	27817.27
633.40	27630.02
633.55	27697.90
633.70	27630.02
633.85	27161.92
634.00	27590.24
634.15	27573.85
634.30	27241.50
634.45	27648.75
634.60	27765.78
634.75	27704.92
634.90	27428.74
635.05	27623.00
635.19	27349.16
635.34	27756.41
635.49	27288.31
635.64	27332.78
635.79	27269.58
635.94	27117.45
636.09	27681.52
636.24	27316.39
636.39	26955.95
636.53	27278.94
636.68	27564.49
636.83	27424.06
636.98	27562.15
637.13	27126.81
637.28	27253.20
637.43	27510.66
637.57	27232.13
637.72	27051.91
637.87	27285.97
638.02	26969.99
638.17	27213.41
638.32	27349.16
638.46	26995.74
638.61	27115.11
638.76	27005.10
638.91	26752.32
639.06	26930.20
639.20	27257.88
639.35	27236.81
639.50	27211.07
639.65	27000.42
639.80	26948.93
639.94	27047.23
640.09	26881.05
640.24	26717.22
640.39	26703.17
640.54	26796.79
640.68	26738.28
640.83	27108.08
640.98	26628.27
641.13	26710.19
641.27	26794.45
641.42	26857.65
641.57	26979.36
641.72	26719.56
641.86	26766.37
642.01	26335.71
642.16	26490.18
642.31	26551.04
642.45	26534.65
642.60	26647.00
642.75	26157.83
642.90	26478.48
643.04	26338.05
643.19	26698.49
643.34	26485.50
643.48	26436.35
643.63	26478.48
643.78	26686.79
643.93	26572.10
644.07	26415.29
644.22	26639.98
644.37	26265.49
644.51	26354.43
644.66	26434.01
644.81	25993.99
644.95	26426.99
645.10	26284.22
645.25	26288.90
645.39	26319.32
645.54	26466.78
645.69	26064.21
645.83	26307.62
645.98	26459.76
646.13	26178.89
646.27	26192.94
646.42	26120.38
646.57	26331.03
646.71	26134.42
646.86	26122.72
647.00	26010.37
647.15	26094.63
647.30	26073.57
647.44	25717.81
647.59	26354.43
647.74	26235.06
647.88	26155.49
648.03	25776.32
648.17	26316.98
648.32	26309.96
648.47	26125.06
648.61	25865.26
648.76	25937.82
648.90	26452.73
649.05	25832.49
649.20	25881.64
649.34	26012.71
649.49	26045.48
649.63	25743.55
649.78	25638.23
649.92	25694.40
650.07	26101.65
650.21	25649.93
650.36	25802.07
650.51	25671.00
650.65	25776.32
650.80	25893.35
650.94	25902.71
651.09	25813.77
651.23	25284.81
651.38	25745.89
651.52	25294.17
651.67	25600.78
651.81	25809.09
651.96	25687.38
652.10	25752.91
652.25	25600.78
652.39	25675.68
652.54	25694.40
652.68	25476.73
652.83	25628.87
652.97	25696.74
653.12	25696.74
653.26	25486.09
653.41	25441.62
653.55	25130.33
653.70	25301.19
653.84	25553.97
653.99	25397.15
654.13	25303.53
654.27	25184.16
654.42	25149.06
654.56	25301.19
654.71	25671.00
654.85	25177.14
655.00	25163.10
655.14	25221.61
655.29	25275.45
655.43	25205.23
655.57	24847.13
655.72	24980.54
655.86	25071.82
656.01	25123.31
656.15	25118.63
656.30	25067.14
656.44	25074.16
656.58	25144.38
656.73	24968.84
656.87	25095.22
657.01	24870.53
657.16	24830.74
657.30	25195.87
657.45	25263.74
657.59	25055.43
657.73	24924.36
657.88	25118.63
658.02	24816.70
658.16	24732.44
658.31	24861.17
658.45	24629.46
658.60	24442.21
658.74	24648.18
658.88	24884.58
659.03	24779.25
659.17	24692.65
659.31	25106.93
659.46	24594.35
659.60	24947.77
659.74	24360.30
659.89	24306.46
660.03	24929.05
660.17	24299.44
660.32	24219.86
660.46	24320.51
660.60	24226.89
660.74	24039.64
660.89	24477.32
661.03	24222.20
661.17	24140.29
661.32	24236.25
661.46	24301.78
661.60	24271.36
661.74	24393.06
661.89	24409.45
662.03	24238.59
662.17	24297.10
662.31	24168.37
662.46	24489.03
662.60	23929.64
662.74	23878.15
662.88	23768.14
663.03	23714.31
663.17	23861.76
663.31	23697.92
663.45	23655.79
663.60	23793.89
663.74	23749.42
663.88	23601.96
664.02	23646.43
664.17	23723.67
664.31	23789.20
664.45	23819.63
664.59	23676.86
664.73	23665.16
664.88	23393.65
665.02	23267.27
665.16	23487.28
665.30	23208.75
665.44	23365.57
665.59	22881.08
665.73	23243.86
665.87	23061.30
666.01	23510.68
666.15	23463.87
666.29	23108.11
666.44	23328.12
666.58	22963.00
666.72	23019.17
666.86	23391.31
667.00	23183.01
667.14	22906.82
667.28	22871.72
667.43	22883.42
667.57	23084.70
667.71	22944.27
667.85	22970.02
667.99	22738.30
668.13	22654.05
668.27	22806.18
668.41	22750.01
668.56	22569.79
668.70	22544.04
668.84	22712.56
668.98	22684.47
669.12	22490.21
669.26	22803.84
669.40	22773.41
669.54	22485.53
669.68	22757.03
669.82	22157.85
669.96	22216.36
670.10	22342.75
670.25	22216.36
670.39	22527.66
670.53	22129.77
670.67	22082.95
670.81	22457.44
670.95	22176.58
671.09	22260.84
671.23	22115.72
671.37	22356.80
671.51	22155.51
671.65	22003.38
671.79	22026.78
671.93	22075.93
672.07	21762.30
672.21	21771.66
672.35	21647.61
672.49	21394.84
672.63	21291.85
672.77	21467.39
672.91	21607.83
673.05	21486.12
673.19	21619.53
673.33	21500.16
673.47	21268.45
673.61	21202.91
673.75	21476.76
673.89	21284.83
674.03	21083.55
674.17	21153.76
674.31	21404.20
674.45	21146.74
674.59	20945.45
674.73	20809.70
674.87	21046.10
675.01	20980.56
675.15	20533.52
675.29	20769.91
675.43	20840.13
675.56	20816.72
675.70	21050.78
675.84	20823.75
675.98	20198.82
676.12	20980.56
676.26	20798.00
676.40	20638.84
676.54	20783.96
676.68	20395.43
676.82	20112.22
676.96	20027.96
677.10	20219.89
677.23	20058.39
677.37	19946.05
677.51	20135.63
677.65	20114.56
677.79	19651.14
677.93	19555.18
678.07	19672.20
678.21	19826.68
678.34	19658.16
678.48	19454.53
678.62	19548.15
678.76	19405.38
678.90	19454.53
679.04	19204.10
679.18	19309.42
679.31	18988.77
679.45	18927.91
679.59	19183.03
679.73	19229.84
679.87	18927.91
680.00	18773.44
680.14	18530.02
680.28	18899.83
680.42	19058.98
680.56	19058.98
680.70	18937.27
680.83	18693.86
680.97	18743.01
681.11	18623.64
681.25	18665.77
681.39	18382.57
681.52	18511.30
681.66	18295.97
681.80	18689.18
681.94	18363.84
682.07	18370.86
682.21	18022.12
682.35	17781.05
682.49	18066.60
682.62	17834.88
682.76	17853.61
682.90	17748.28
683.04	17919.14
683.17	17502.53
683.31	17720.20
683.45	18033.83
683.59	18005.74
683.72	17642.96
683.86	17586.79
684.00	17912.12
684.13	17193.58
684.27	17366.78
684.41	17158.47
684.55	17128.04
684.68	16798.02
684.82	16950.16
684.96	16774.62
685.09	17006.33
685.23	16807.39
685.37	17172.51
685.50	17111.66
685.64	16975.91
685.78	17032.08
685.91	16851.86
686.05	17041.44
686.19	16802.71
686.32	16702.06
686.46	16716.11
686.60	16044.37
686.73	16311.19
686.87	16393.11
687.01	16285.45
687.14	16306.51
687.28	16060.76
687.42	16215.23
687.55	16086.50
687.69	16056.08
687.82	16074.80
687.96	15943.73
688.10	15939.05
688.23	15999.90
688.37	15744.78
688.50	15901.60
688.64	15721.38
688.78	16051.39
688.91	15466.26
689.05	15611.37
689.18	15742.44
689.32	15108.16
689.46	15503.71
689.59	15393.70
689.73	15225.18
689.86	15183.06
690.00	14970.07
690.13	15124.54
690.27	15419.45
690.41	15012.20
690.54	14890.49
690.68	14792.19
690.81	14799.21
690.95	14831.97
691.08	15000.49
691.22	14951.34
691.35	14569.83
691.49	14939.64
691.62	14815.59
691.76	14567.49
691.89	14569.83
692.03	14291.31
692.16	14340.46
692.30	14370.89
692.43	14064.28
692.57	14176.62
692.70	14258.54
692.84	14293.65
692.97	14169.60
693.11	14005.77
693.24	13874.70
693.38	13998.74
693.51	13699.16
693.65	13905.12
693.78	13689.79
693.92	13572.77
694.05	13706.18
694.19	13528.30
694.32	13495.53
694.45	13509.57
694.59	13263.82
694.72	13238.07
694.86	13116.36
694.99	13153.81
695.13	13277.86
695.26	13050.83
695.39	12992.31
695.53	13195.94
695.66	12891.67
695.80	13179.56
695.93	13118.70
696.07	12819.11
696.20	13163.17
696.33	12929.12
696.47	12765.28
696.60	12746.56
696.73	12669.32
696.87	12650.60
697.00	12514.84
697.14	12578.04
697.27	12358.03
697.40	12219.94
697.54	12135.68
697.67	12116.95
697.80	12264.41
697.94	12138.02
698.07	11864.18
698.21	12154.40
698.34	12044.40
698.47	12065.46
698.61	12016.31
698.74	12065.46
698.87	11992.90
699.01	11840.77
699.14	11852.47
699.27	11625.44
699.40	11672.25
699.54	11557.57
699.67	11655.87
699.80	11515.44
699.94	11417.13
700.07	11611.40
700.20	11246.27
700.34	11143.29
700.47	11131.59
700.60	11241.59
700.73	11358.62
700.87	11279.04
701.00	11063.71
701.13	11110.52
701.26	11241.59
701.40	11012.22
701.53	10892.85
701.66	10853.06
701.79	10574.54
701.93	10869.45
702.06	10672.84
702.19	10377.94
702.32	10485.60
702.46	10401.34
702.59	10134.52
702.72	10438.79
702.85	10214.10
702.99	10298.36
703.12	10436.45
703.25	9898.13
703.38	10284.31
703.51	10176.65
703.65	10190.69
703.78	10092.39
703.91	10162.61
704.04	10146.22
704.17	9994.09
704.31	10281.97
704.44	10171.97
704.57	10106.43
704.70	9860.68
704.83	9678.12
704.96	9631.30
705.10	9771.74
705.23	9652.37
>>>>>End Processed Spectral Data<<<<<
