SpectraSuite Data File
++++++++++++++++++++++++++++++++++++
Date: Fri Oct 18 13:58:21 GMT-05:00 2013
User: bianchi
Dark Spectrum Present: No
Reference Spectrum Present: No
Number of Sampled Component Spectra: 1
Spectrometers: USB2+H05261
Integration Time (usec): 50000 (USB2+H05261)
Spectra Averaged: 1 (USB2+H05261)
Boxcar Smoothing: 0 (USB2+H05261)
Correct for Electrical Dark: No (USB2+H05261)
Strobe/Lamp Enabled: No (USB2+H05261)
Correct for Detector Non-linearity: No (USB2+H05261)
Correct for Stray Light: No (USB2+H05261)
Number of Pixels in Processed Spectrum: 2048
>>>>>Begin Processed Spectral Data<<<<<
365.73	0.00
365.92	0.00
366.12	0.00
366.32	0.00
366.52	0.00
366.72	0.00
366.91	0.00
367.11	0.00
367.31	0.00
367.51	0.00
367.70	0.00
367.90	0.00
368.10	0.00
368.30	0.00
368.49	0.00
368.69	0.00
368.89	0.00
369.09	0.00
369.28	0.00
369.48	0.00
369.68	0.00
369.87	0.00
370.07	0.00
370.27	0.00
370.47	0.00
370.66	119.37
370.86	163.84
371.06	170.86
371.25	124.05
371.45	168.52
371.65	128.73
371.84	145.11
372.04	159.16
372.24	175.54
372.44	229.37
372.63	191.92
372.83	250.44
373.03	229.37
373.22	149.79
373.42	173.20
373.62	224.69
373.81	248.10
374.01	236.39
374.21	248.10
374.40	259.80
374.60	227.03
374.79	222.35
374.99	236.39
375.19	262.14
375.38	250.44
375.58	294.91
375.78	208.31
375.97	245.76
376.17	318.31
376.37	266.82
376.56	241.08
376.76	351.08
376.95	210.65
377.15	280.86
377.35	266.82
377.54	203.63
377.74	280.86
377.93	257.46
378.13	278.52
378.33	292.57
378.52	301.93
378.72	334.70
378.91	241.08
379.11	299.59
379.31	283.20
379.50	220.01
379.70	269.16
379.89	348.74
380.09	311.29
380.28	294.91
380.48	320.65
380.68	292.57
380.87	220.01
381.07	358.10
381.26	341.72
381.46	285.55
381.65	262.14
381.85	313.63
382.04	311.29
382.24	320.65
382.43	372.15
382.63	297.25
382.83	304.27
383.02	301.93
383.22	337.04
383.41	351.08
383.61	355.76
383.80	341.72
384.00	348.74
384.19	418.96
384.39	367.46
384.58	344.06
384.78	383.85
384.97	330.02
385.17	334.70
385.36	369.80
385.56	334.70
385.75	285.55
385.95	479.81
386.14	362.78
386.34	358.10
386.53	369.80
386.72	404.91
386.92	409.59
387.11	421.30
387.31	393.21
387.50	428.32
387.70	353.42
387.89	465.77
388.09	334.70
388.28	414.27
388.48	512.58
388.67	428.32
388.86	447.04
389.06	423.64
389.25	514.92
389.45	475.13
389.64	411.93
389.84	430.66
390.03	491.51
390.22	484.49
390.42	421.30
390.61	486.83
390.81	475.13
391.00	486.83
391.19	486.83
391.39	442.36
391.58	503.22
391.78	505.56
391.97	514.92
392.16	458.74
392.36	568.75
392.55	505.56
392.75	517.26
392.94	491.51
393.13	561.73
393.33	550.03
393.52	566.41
393.71	543.00
393.91	634.29
394.10	573.43
394.29	606.20
394.49	573.43
394.68	613.22
394.88	608.54
395.07	603.86
395.26	564.07
395.46	547.69
395.65	671.73
395.84	599.18
396.04	608.54
396.23	667.05
396.42	692.80
396.62	599.18
396.81	678.76
397.00	603.86
397.19	734.93
397.39	685.78
397.58	699.82
397.77	671.73
397.97	657.69
398.16	669.39
398.35	718.54
398.55	655.35
398.74	774.72
398.93	725.57
399.12	767.70
399.32	779.40
399.51	709.18
399.70	716.20
399.90	723.23
400.09	681.10
400.28	774.72
400.47	713.86
400.67	800.46
400.86	802.80
401.05	734.93
401.24	823.87
401.44	748.97
401.63	746.63
401.82	732.59
402.01	809.83
402.21	753.65
402.40	784.08
402.59	767.70
402.78	856.64
402.97	697.48
403.17	933.87
403.36	882.38
403.55	891.74
403.74	840.25
403.93	905.79
404.13	880.04
404.32	842.59
404.51	880.04
404.70	866.00
404.89	898.77
405.09	968.98
405.28	992.39
405.47	968.98
405.66	997.07
405.85	912.81
406.05	898.77
406.24	905.79
406.43	997.07
406.62	961.96
406.81	1130.48
407.00	1046.22
407.20	1022.81
407.39	1048.56
407.58	1081.33
407.77	971.32
407.96	1036.86
408.15	1060.26
408.34	1015.79
408.54	1067.28
408.73	1097.71
408.92	1088.35
409.11	1125.80
409.30	1172.61
409.49	1088.35
409.68	1125.80
409.87	1128.14
410.07	1128.14
410.26	1139.84
410.45	1149.20
410.64	1081.33
410.83	1163.25
411.02	1170.27
411.21	1210.06
411.40	1132.82
411.59	1287.29
411.78	1252.19
411.98	1327.08
412.17	1261.55
412.36	1205.38
412.55	1315.38
412.74	1364.53
412.93	1308.36
413.12	1261.55
413.31	1397.30
413.50	1357.51
413.69	1350.49
413.88	1406.66
414.07	1437.09
414.26	1467.52
414.45	1427.73
414.64	1373.89
414.83	1486.24
415.02	1474.54
415.22	1401.98
415.41	1519.01
415.60	1605.61
415.79	1577.52
415.98	1582.20
416.17	1537.73
416.36	1652.42
416.55	1600.93
416.74	1554.12
416.93	1500.28
417.12	1687.53
417.31	1706.25
417.50	1607.95
417.69	1682.85
417.88	1692.21
418.07	1703.91
418.26	1710.93
418.45	1661.78
418.64	1811.57
418.83	1739.02
419.02	1664.12
419.21	1659.44
419.39	1722.63
419.58	1734.34
419.77	1809.23
419.96	1778.81
420.15	1811.57
420.34	1825.62
420.53	1823.28
420.72	1834.98
420.91	1856.04
421.10	1914.56
421.29	1954.35
421.48	1893.49
421.67	2083.08
421.86	1977.75
422.05	1966.05
422.24	1834.98
422.43	2005.84
422.61	1961.37
422.80	1994.14
422.99	2001.16
423.18	1937.96
423.37	2090.10
423.56	1961.37
423.75	1902.86
423.94	2001.16
424.13	1956.69
424.32	1912.22
424.50	2026.90
424.69	2036.27
424.88	2092.44
425.07	2031.58
425.26	1975.41
425.45	2012.86
425.64	1947.33
425.83	2064.35
426.01	2094.78
426.20	2008.18
426.39	2052.65
426.58	1968.39
426.77	2001.16
426.96	2010.52
427.15	2083.08
427.33	2033.93
427.52	2083.08
427.71	2104.14
427.90	2207.13
428.09	2038.61
428.28	2169.68
428.46	2155.63
428.65	2193.08
428.84	2235.21
429.03	2253.94
429.22	2232.87
429.40	2169.68
429.59	2349.90
429.78	2150.95
429.97	2132.23
430.16	2162.66
430.34	2289.04
430.53	2282.02
430.72	2286.70
430.91	2232.87
431.10	2214.15
431.28	2312.45
431.47	2312.45
431.66	2319.47
431.85	2305.43
432.03	2406.07
432.22	2520.76
432.41	2382.67
432.60	2413.09
432.79	2289.04
432.97	2480.97
433.16	2324.15
433.35	2385.01
433.54	2455.22
433.72	2497.35
433.91	2459.90
434.10	2448.20
434.28	2490.33
434.47	2483.31
434.66	2689.28
434.85	2497.35
435.03	2644.81
435.22	2572.25
435.41	2628.42
435.59	2607.36
435.78	2558.21
435.97	2541.82
436.16	2537.14
436.34	2567.57
436.53	2656.51
436.72	2684.59
436.90	2621.40
437.09	2743.11
437.28	2649.49
437.46	2663.53
437.65	2647.15
437.84	2677.57
438.02	2775.88
438.21	2754.81
438.40	2686.94
438.58	2827.37
438.77	2864.82
438.96	2764.17
439.14	2888.22
439.33	3007.59
439.52	2916.31
439.70	2991.20
439.89	3063.76
440.08	2972.48
440.26	2988.86
440.45	3021.63
440.63	2930.35
440.82	3047.38
441.01	3073.12
441.19	3087.17
441.38	3082.49
441.57	3096.53
441.75	3262.71
441.94	3108.23
442.12	3370.37
442.31	3330.58
442.50	3351.65
442.68	3227.60
442.87	3194.83
443.05	3337.60
443.24	3358.67
443.43	3321.22
443.61	3293.13
443.80	3487.40
443.98	3384.41
444.17	3213.56
444.35	3351.65
444.54	3536.55
444.73	3585.70
444.91	3337.60
445.10	3431.23
445.28	3468.67
445.47	3377.39
445.65	3370.37
445.84	3396.12
446.02	3433.57
446.21	3489.74
446.39	3321.22
446.58	3398.46
446.77	3503.78
446.95	3424.20
447.14	3372.71
447.32	3372.71
447.51	3487.40
447.69	3405.48
447.88	3538.89
448.06	3410.16
448.25	3473.36
448.43	3449.95
448.62	3564.64
448.80	3454.63
448.99	3536.55
449.17	3442.93
449.36	3529.53
449.54	3592.72
449.73	3716.77
449.91	3625.49
450.10	3513.14
450.28	3641.87
450.46	3569.32
450.65	3658.26
450.83	3604.42
451.02	3669.96
451.20	3765.92
451.39	3702.73
451.57	3775.28
451.76	3590.38
451.94	3777.62
452.13	3751.88
452.31	3796.35
452.49	3887.63
452.68	3845.50
452.86	3786.99
453.05	3852.52
453.23	3852.52
453.42	3735.50
453.60	3843.16
453.78	3789.33
453.97	3817.41
454.15	3850.18
454.34	3925.08
454.52	3925.08
454.70	4014.02
454.89	3864.22
455.07	4072.53
455.26	4042.11
455.44	4093.60
455.62	3999.98
455.81	4060.83
455.99	4091.26
456.17	4030.40
456.36	4109.98
456.54	4341.69
456.73	4215.30
456.91	4337.01
457.09	4154.45
457.28	4297.22
457.46	4320.63
457.64	4351.06
457.83	4337.01
458.01	4077.21
458.19	4341.69
458.38	4231.69
458.56	4311.27
458.74	4287.86
458.93	4355.74
459.11	4404.89
459.29	4234.03
459.48	4383.82
459.66	4447.02
459.84	4505.53
460.03	4456.38
460.21	4456.38
460.39	4418.93
460.57	4376.80
460.76	4610.86
460.94	4521.92
461.12	4528.94
461.31	4713.84
461.49	4596.81
461.67	4402.55
461.85	4535.96
462.04	4603.83
462.22	4723.20
462.40	4657.67
462.59	4734.90
462.77	4802.78
462.95	4856.61
463.13	4608.51
463.32	4725.54
463.50	4847.25
463.68	4830.87
463.86	4767.67
464.05	4784.06
464.23	4868.31
464.41	4793.42
464.59	4655.33
464.78	4758.31
464.96	4905.76
465.14	4851.93
465.32	4835.55
465.50	5025.13
465.69	4816.82
465.87	4739.58
466.05	4821.50
466.23	4868.31
466.41	4849.59
466.60	5116.41
466.78	5055.56
466.96	4978.32
467.14	4943.21
467.32	5071.94
467.51	5043.85
467.69	5067.26
467.87	5107.05
468.05	5156.20
468.23	4992.36
468.41	5067.26
468.60	5153.86
468.78	5245.14
468.96	5041.51
469.14	5191.31
469.32	5320.04
469.50	4999.38
469.69	5336.42
469.87	5259.18
470.05	5310.68
470.23	5226.42
470.41	5294.29
470.59	5378.55
470.77	5427.70
470.95	5259.18
471.14	5586.86
471.32	5343.44
471.50	5544.73
471.68	5537.71
471.86	5490.90
472.04	5636.01
472.22	5738.99
472.40	5617.29
472.58	5572.82
472.77	5624.31
472.95	5760.06
473.13	5942.62
473.31	5762.40
473.49	5755.38
473.67	5865.38
473.85	5830.27
474.03	5916.87
474.21	5851.34
474.39	5923.90
474.57	6057.31
474.75	5996.45
474.93	5928.58
475.12	6155.61
475.30	6115.82
475.48	6010.50
475.66	6143.91
475.84	6111.14
476.02	6171.99
476.20	6272.64
476.38	6370.94
476.56	6410.73
476.74	6328.81
476.92	6602.65
477.10	6572.22
477.28	6733.72
477.46	6602.65
477.64	6731.38
477.82	6649.46
478.00	6825.00
478.18	6803.94
478.36	6895.22
478.54	6899.90
478.72	7084.80
478.90	6911.60
479.08	6810.96
479.26	7222.89
479.44	7279.07
479.62	7283.75
479.80	7358.64
479.98	7351.62
480.16	7592.70
480.34	7346.94
480.52	7557.59
480.70	7522.48
480.88	7576.31
481.06	7541.21
481.24	7609.08
481.41	7651.21
481.59	7978.89
481.77	7997.61
481.95	7915.69
482.13	8107.62
482.31	8152.09
482.49	8124.00
482.67	8002.29
482.85	8285.50
483.03	8273.79
483.21	8542.96
483.39	8428.27
483.57	8414.23
483.74	8489.12
483.92	8643.60
484.10	8674.03
484.28	8739.56
484.46	8994.68
484.64	9025.11
484.82	8781.69
485.00	8774.67
485.18	9095.32
485.35	9270.86
485.53	9252.14
485.71	9256.82
485.89	9692.16
486.07	9551.73
486.25	9542.36
486.43	9528.32
486.61	9462.79
486.78	9879.40
486.96	9940.26
487.14	9961.32
487.32	9837.27
487.50	10003.45
487.68	10003.45
487.85	10246.87
488.03	10466.88
488.21	10396.66
488.39	10445.81
488.57	10677.52
488.75	10644.76
488.92	10562.84
489.10	10719.65
489.28	11016.90
489.46	10927.96
489.64	10874.13
489.81	11218.19
489.99	11162.01
490.17	10960.73
490.35	11227.55
490.53	11323.51
490.70	11332.87
490.88	11407.77
491.06	11740.13
491.24	11442.88
491.41	11609.06
491.59	12013.97
491.77	11695.66
491.95	11971.84
492.13	11929.71
492.30	12086.53
492.48	12264.41
492.66	12060.78
492.84	12191.85
493.01	12484.42
493.19	12444.63
493.37	12758.26
493.54	12519.53
493.72	12648.26
493.90	12702.09
494.08	12800.39
494.25	12627.19
494.43	13048.49
494.61	13064.87
494.79	13078.91
494.96	13090.62
495.14	13392.55
495.32	13399.57
495.49	13465.10
495.67	13561.06
495.85	13507.23
496.02	13624.26
496.20	13640.64
496.38	13888.74
496.55	13790.44
496.73	14239.82
496.91	13738.94
497.09	14019.81
497.26	13947.25
497.44	14066.62
497.62	14253.86
497.79	14223.44
497.97	14101.73
498.14	14373.23
498.32	14525.36
498.50	14665.80
498.67	14579.20
498.85	14764.10
499.03	14796.87
499.20	14934.96
499.38	14831.97
499.56	15145.61
499.73	15129.22
499.91	14909.21
500.08	15330.51
500.26	14988.79
500.44	15178.37
500.61	15232.21
500.79	15307.10
500.97	15452.22
501.14	15627.76
501.32	15660.52
501.49	15672.23
501.67	15513.07
501.84	15391.36
502.02	15850.11
502.20	15807.98
502.37	15894.58
502.55	15826.70
502.72	15985.86
502.90	15988.20
503.07	16039.69
503.25	16100.55
503.43	15693.29
503.60	16315.87
503.78	16133.31
503.95	16292.47
504.13	16318.22
504.30	16428.22
504.48	16273.74
504.65	16446.94
504.83	16573.33
505.01	16886.97
505.18	16760.58
505.36	17280.18
505.53	16755.90
505.71	16992.29
505.88	16615.46
506.06	17125.70
506.23	17301.24
506.41	16999.31
506.58	17231.02
506.76	17315.28
506.93	16971.22
507.11	16992.29
507.28	17301.24
507.46	17224.00
507.63	17525.93
507.81	17729.56
507.98	17324.65
508.16	17446.35
508.33	17586.79
508.50	17657.00
508.68	17575.08
508.85	17909.78
509.03	17963.61
509.20	17909.78
509.38	17998.72
509.55	18164.90
509.73	18052.55
509.90	18094.68
510.08	18279.58
510.25	18061.91
510.42	18310.01
510.60	18450.44
510.77	18672.79
510.95	18574.49
511.12	18298.31
511.30	18307.67
511.47	18541.72
511.64	18693.86
511.82	18523.00
511.99	18867.06
512.17	18827.27
512.34	18909.19
512.51	19005.15
512.69	19042.60
512.86	19058.98
513.04	18881.10
513.21	19000.47
513.38	19122.18
513.56	18970.04
513.73	18993.45
513.90	19274.31
514.08	19426.45
514.25	19508.37
514.43	19627.73
514.60	19421.77
514.77	19449.85
514.95	19440.49
515.12	19379.64
515.29	19611.35
515.47	19580.92
515.64	19793.91
515.81	19829.02
515.99	20034.99
516.16	19936.68
516.33	20144.99
516.51	20212.87
516.68	20084.14
516.85	19995.20
517.03	19999.88
517.20	20278.40
517.37	20084.14
517.54	20271.38
517.72	20538.20
517.89	20538.20
518.06	20475.01
518.24	20329.89
518.41	20486.71
518.58	20308.83
518.75	20709.06
518.93	20910.35
519.10	20446.92
519.27	20641.18
519.45	20439.90
519.62	21071.84
519.79	20798.00
519.96	20781.62
520.14	20847.15
520.31	20716.08
520.48	20854.17
520.65	20950.14
520.83	21015.67
521.00	21200.57
521.17	20966.52
521.34	21163.12
521.52	20994.61
521.69	21284.83
521.86	21591.44
522.03	21233.34
522.20	21689.74
522.38	21544.63
522.55	21399.52
522.72	21472.07
522.89	21790.39
523.07	21989.33
523.24	21689.74
523.41	21706.13
523.58	21645.27
523.75	21853.58
523.92	21848.90
524.10	21687.40
524.27	22078.27
524.44	22089.98
524.61	22246.79
524.78	22092.32
524.96	22211.68
525.13	22066.57
525.30	22024.44
525.47	22239.77
525.64	22097.00
525.81	22338.07
525.98	22642.34
526.16	22242.11
526.33	22480.85
526.50	22778.09
526.67	22417.65
526.84	22782.77
527.01	22590.85
527.18	22588.51
527.36	22787.46
527.53	22733.62
527.70	23047.26
527.87	23014.49
528.04	22902.14
528.21	22927.89
528.38	22930.23
528.55	22768.73
528.72	23016.83
528.89	22984.06
529.07	22972.36
529.24	23054.28
529.41	23410.04
529.58	23194.71
529.75	23220.45
529.92	23365.57
530.09	22986.40
530.26	23398.34
530.43	23349.18
530.60	23199.39
530.77	23683.88
530.94	23559.83
531.11	23281.31
531.28	23377.27
531.46	23594.94
531.63	23761.12
531.80	23751.76
531.97	23896.87
532.14	23854.74
532.31	23613.66
532.48	23707.29
532.65	23941.34
532.82	23714.31
532.99	23915.59
533.16	23927.30
533.33	24159.01
533.50	24409.45
533.67	24112.20
533.84	23887.51
534.01	23899.21
534.18	23859.42
534.35	24137.94
534.52	23929.64
534.69	24290.08
534.86	24077.09
535.03	24231.57
535.20	24524.13
535.37	24084.11
535.54	24107.52
535.71	24460.94
535.88	24367.32
536.05	24156.67
536.22	24386.04
536.38	24741.80
536.55	24439.87
536.72	24826.06
536.89	24491.37
537.06	24570.94
537.23	24535.84
537.40	24498.39
537.57	24671.59
537.74	24994.58
537.91	24891.60
538.08	24968.84
538.25	24627.12
538.42	24865.85
538.59	25174.80
538.75	25043.73
538.92	24947.77
539.09	24851.81
539.26	25006.28
539.43	24898.62
539.60	25312.89
539.77	25219.27
539.94	25013.31
540.11	25371.41
540.28	25116.29
540.44	25359.70
540.61	25188.85
540.78	25216.93
540.95	25504.82
541.12	25163.10
541.29	25369.07
541.46	25406.52
541.62	25500.14
541.79	25415.88
541.96	25125.65
542.13	25429.92
542.30	25462.69
542.47	25727.17
542.63	25619.50
542.80	25860.58
542.97	26115.70
543.14	26181.23
543.31	26164.85
543.48	26003.35
543.64	26314.64
543.81	26251.45
543.98	25909.73
544.15	26312.30
544.32	26197.62
544.48	26490.18
544.65	25921.43
544.82	26115.70
544.99	26214.00
545.16	26150.81
545.32	25935.48
545.49	26686.79
545.66	26478.48
545.83	26562.74
546.00	26094.63
546.16	26300.60
546.33	26169.53
546.50	26071.23
546.67	26291.24
546.83	26499.55
547.00	26548.70
547.17	26415.29
547.34	26668.06
547.50	26642.32
547.67	26930.20
547.84	27009.78
548.00	26490.18
548.17	26675.09
548.34	26651.68
548.51	27197.02
548.67	26749.98
548.84	26794.45
549.01	26731.26
549.18	26810.84
549.34	26724.24
549.51	27119.79
549.68	26707.85
549.84	26724.24
550.01	27063.61
550.18	26909.14
550.34	26888.07
550.51	27262.56
550.68	27349.16
550.84	26539.33
551.01	27304.69
551.18	27138.51
551.34	26771.05
551.51	27087.02
551.68	27147.87
551.84	27562.15
552.01	27393.63
552.18	27349.16
552.34	27307.03
552.51	27440.44
552.68	27108.08
552.84	27187.66
553.01	27094.04
553.18	27285.97
553.34	28067.70
553.51	27892.16
553.67	27292.99
553.84	27922.59
554.01	27714.28
554.17	27414.69
554.34	27353.84
554.51	27627.68
554.67	27557.47
554.84	27742.37
555.00	27690.88
555.17	27840.67
555.33	28002.17
555.50	27332.78
555.67	27239.15
555.83	27580.87
556.00	27988.13
556.16	27899.19
556.33	28109.83
556.50	28070.04
556.66	27747.05
556.83	27976.42
556.99	28208.14
557.16	28276.01
557.32	27901.53
557.49	28027.92
557.65	27885.14
557.82	28084.09
557.98	27754.07
558.15	28084.09
558.32	27971.74
558.48	28070.04
558.65	28463.25
558.81	28154.30
558.98	28074.73
559.14	27737.69
559.31	27875.78
559.47	28250.27
559.64	28343.89
559.80	28339.21
559.97	28608.37
560.13	28236.22
560.30	28184.73
560.46	28449.21
560.63	28577.94
560.79	28107.49
560.96	28535.81
561.12	28287.71
561.29	28320.48
561.45	28116.86
561.61	28100.47
561.78	28671.56
561.94	28662.20
562.11	28570.92
562.27	28498.36
562.44	28350.91
562.60	28285.37
562.77	28470.28
562.93	28095.79
563.10	28601.35
563.26	28458.57
563.42	28889.23
563.59	28788.59
563.75	28662.20
563.92	28489.00
564.08	28723.05
564.24	28872.85
564.41	28285.37
564.57	28435.17
564.74	28566.24
564.90	28662.20
565.07	28716.03
565.23	28851.78
565.39	28460.91
565.56	28570.92
565.72	28645.82
565.88	28896.25
566.05	28624.75
566.21	28512.41
566.38	28797.95
566.54	29209.89
566.70	28856.46
566.87	29099.88
567.03	28676.24
567.19	29237.97
567.36	28975.83
567.52	28601.35
567.68	28786.25
567.85	28919.66
568.01	28737.10
568.17	28451.55
568.34	28748.80
568.50	28837.74
568.66	28889.23
568.83	29106.90
568.99	28620.07
569.15	29010.94
569.32	28912.64
569.48	28643.48
569.64	28898.59
569.81	28994.56
569.97	28961.79
570.13	28973.49
570.30	29050.73
570.46	29219.25
570.62	28992.22
570.78	29015.62
570.95	28395.38
571.11	29177.12
571.27	28947.75
571.43	28584.96
571.60	29188.82
571.76	28552.20
571.92	29181.80
572.09	29333.93
572.25	29139.67
572.41	29310.53
572.57	29259.04
572.74	29027.32
572.90	29078.82
573.06	29116.26
573.22	28648.16
573.38	29226.27
573.55	29130.31
573.71	29621.82
573.87	29493.09
574.03	29392.45
574.20	29326.91
574.36	28933.70
574.52	29244.99
574.68	29160.73
574.84	29163.08
575.01	29401.81
575.17	29317.55
575.33	29020.30
575.49	29127.97
575.65	29677.99
575.82	29434.58
575.98	29560.97
576.14	29172.44
576.30	29134.99
576.46	29167.76
576.62	29312.87
576.79	29191.16
576.95	28929.02
577.11	29460.32
577.27	29432.24
577.43	29284.78
577.59	29333.93
577.75	29294.14
577.92	28840.08
578.08	29181.80
578.24	28978.17
578.40	29488.41
578.56	29362.02
578.72	29064.77
578.88	29427.56
579.04	29661.61
579.21	28999.24
579.37	29523.52
579.53	29427.56
579.69	28959.45
579.85	29319.89
580.01	29507.13
580.17	29130.31
580.33	29734.17
580.49	29158.39
580.65	29614.80
580.82	29415.85
580.98	29219.25
581.14	29572.67
581.30	29450.96
581.46	29457.98
581.62	29186.48
581.78	28943.06
581.94	29624.16
582.10	29371.38
582.26	29228.61
582.42	29465.00
582.58	29645.23
582.74	29549.26
582.90	29376.06
583.06	29493.09
583.22	29226.27
583.38	29518.84
583.54	29825.45
583.70	29556.28
583.86	29455.64
584.02	29411.17
584.18	29816.08
584.34	29490.75
584.50	29383.09
584.66	29474.37
584.82	29582.03
584.98	29303.51
585.14	29642.88
585.30	29266.06
585.46	29715.44
585.62	29193.50
585.78	29656.93
585.94	29322.23
586.10	29572.67
586.26	29804.38
586.42	29820.77
586.58	29603.10
586.74	29125.63
586.90	29249.67
587.06	29263.72
587.22	29305.85
587.38	29488.41
587.54	29469.69
587.70	29537.56
587.86	29795.02
588.02	29610.12
588.18	29837.15
588.34	29958.86
588.49	29692.04
588.65	29329.25
588.81	29593.73
588.97	29591.39
589.13	29205.20
589.29	29362.02
589.45	29902.68
589.61	29619.48
589.77	29806.72
589.93	29816.08
590.08	30178.87
590.24	29890.98
590.40	30183.55
590.56	29837.15
590.72	29640.54
590.88	29776.30
591.04	29516.50
591.20	30024.39
591.35	29645.23
591.51	30122.69
591.67	30122.69
591.83	30185.89
591.99	29907.37
592.15	29654.59
592.31	29614.80
592.46	29670.97
592.62	29340.96
592.78	29785.66
592.94	29790.34
593.10	29902.68
593.26	29883.96
593.41	29970.56
593.57	29715.44
593.73	29762.25
593.89	30349.73
594.05	29900.34
594.20	29919.07
594.36	29804.38
594.52	29851.19
594.68	29783.32
594.84	29837.15
594.99	29954.18
595.15	29607.78
595.31	30338.02
595.47	29949.50
595.62	30010.35
595.78	29743.53
595.94	29827.79
596.10	29661.61
596.25	29956.52
596.41	29820.77
596.57	29769.27
596.73	29905.02
596.88	29549.26
597.04	30178.87
597.20	30033.75
597.36	30216.32
597.51	30108.65
597.67	29984.60
597.83	29806.72
597.99	30267.81
598.14	29832.47
598.30	30036.09
598.46	29802.04
598.61	30026.73
598.77	29729.48
598.93	29551.60
599.09	29991.62
599.24	30433.99
599.40	30448.03
599.56	30209.29
599.71	30295.89
599.87	29975.24
600.03	30075.88
600.18	29720.12
600.34	29977.58
600.50	29958.86
600.65	30312.28
600.81	30015.03
600.97	30204.61
601.12	30380.15
601.28	30221.00
601.44	30410.58
601.59	30150.78
601.75	30094.61
601.91	30099.29
602.06	30008.01
602.22	30398.88
602.37	29809.06
602.53	29886.30
602.69	30190.57
602.84	30223.34
603.00	30260.79
603.16	30010.35
603.31	29628.84
603.47	30307.60
603.62	29495.43
603.78	30174.19
603.94	29752.89
604.09	29986.94
604.25	30251.42
604.40	30092.27
604.56	30068.86
604.71	29848.85
604.87	30054.82
605.03	30160.14
605.18	30176.53
605.34	30169.51
605.49	29844.17
605.65	29750.55
605.80	29872.26
605.96	29958.86
606.12	29930.77
606.27	29778.64
606.43	29900.34
606.58	29855.87
606.74	29972.90
606.89	29804.38
607.05	30260.79
607.20	30195.25
607.36	29979.92
607.51	29827.79
607.67	29619.48
607.82	29457.98
607.98	29970.56
608.13	29809.06
608.29	29619.48
608.44	29645.23
608.60	29778.64
608.75	29713.10
608.91	29724.80
609.06	29785.66
609.22	29874.60
609.37	29476.71
609.53	29855.87
609.68	30206.95
609.84	29715.44
609.99	29879.28
610.15	29551.60
610.30	29813.74
610.46	29677.99
610.61	30015.03
610.76	29764.59
610.92	29504.79
611.07	29649.91
611.23	29448.62
611.38	29795.02
611.54	29355.00
611.69	29305.85
611.84	29209.89
612.00	29544.58
612.15	29790.34
612.31	29455.64
612.46	29757.57
612.62	29926.09
612.77	29549.26
612.92	30029.07
613.08	29748.21
613.23	29497.77
613.39	29661.61
613.54	29535.22
613.69	29647.57
613.85	28938.38
614.00	29188.82
614.15	29322.23
614.31	29654.59
614.46	29743.53
614.62	29490.75
614.77	29741.19
614.92	29965.88
615.08	29462.66
615.23	29525.86
615.38	29259.04
615.54	28568.58
615.69	29006.26
615.84	29221.59
616.00	29720.12
616.15	29460.32
616.30	29420.53
616.46	29371.38
616.61	29364.36
616.76	29593.73
616.92	29472.03
617.07	29233.29
617.22	29165.42
617.37	29116.26
617.53	29284.78
617.68	28858.81
617.83	28748.80
617.99	29369.04
618.14	28931.36
618.29	29027.32
618.45	29057.75
618.60	29120.95
618.75	29123.29
618.90	28788.59
619.06	29151.37
619.21	28716.03
619.36	29205.20
619.51	28889.23
619.67	28704.33
619.82	28603.69
619.97	28599.01
620.12	28870.51
620.28	28884.55
620.43	28931.36
620.58	28936.04
620.73	28964.13
620.89	28734.76
621.04	28858.81
621.19	28917.32
621.34	28573.26
621.49	28659.86
621.65	28542.83
621.80	28748.80
621.95	28512.41
622.10	28554.54
622.25	28547.51
622.41	28648.16
622.56	28507.72
622.71	29106.90
622.86	28542.83
623.01	28655.18
623.16	28648.16
623.32	28154.30
623.47	28292.40
623.62	28491.34
623.77	28521.77
623.92	28629.43
624.07	28306.44
624.23	28460.91
624.38	28627.09
624.53	28739.44
624.68	28599.01
624.83	28402.40
624.98	28430.49
625.13	28418.78
625.29	28512.41
625.44	28582.62
625.59	28067.70
625.74	28301.76
625.89	27854.72
626.04	28388.36
626.19	27969.40
626.34	28273.67
626.49	28105.15
626.65	28203.46
626.80	28135.58
626.95	28067.70
627.10	28044.30
627.25	28231.54
627.40	27812.59
627.55	27861.74
627.70	27894.50
627.85	27667.47
628.00	27901.53
628.15	28233.88
628.30	28037.28
628.45	27927.27
628.60	27852.38
628.76	27868.76
628.91	28107.49
629.06	28278.35
629.21	28320.48
629.36	28004.51
629.51	27393.63
629.66	27667.47
629.81	27747.05
629.96	27222.77
630.11	27728.33
630.26	28039.62
630.41	28025.57
630.56	27501.29
630.71	27667.47
630.86	27604.28
631.01	27562.15
631.16	28020.89
631.31	27735.35
631.46	27339.80
631.61	27658.11
631.76	27735.35
631.91	27508.32
632.06	27377.25
632.21	27482.57
632.36	27536.40
632.51	27096.38
632.66	27777.48
632.81	27398.31
632.96	27505.98
633.10	27393.63
633.25	27473.21
633.40	27548.11
633.55	27765.78
633.70	27267.24
633.85	27351.50
634.00	27222.77
634.15	27175.96
634.30	27253.20
634.45	27281.28
634.60	26955.95
634.75	27328.10
634.90	27276.60
635.05	27285.97
635.19	27180.64
635.34	27269.58
635.49	27075.32
635.64	27344.48
635.79	27566.83
635.94	27103.40
636.09	27585.55
636.24	26941.91
636.39	26920.84
636.53	26843.60
636.68	27241.50
636.83	27087.02
636.98	27318.73
637.13	27129.15
637.28	27147.87
637.43	26951.27
637.57	26958.29
637.72	26565.08
637.87	26941.91
638.02	26829.56
638.17	27014.46
638.32	27117.45
638.46	26579.12
638.61	26560.40
638.76	26700.83
638.91	26632.96
639.06	26719.56
639.20	26960.63
639.35	26909.14
639.50	26588.49
639.65	27037.87
639.80	26794.45
639.94	26691.47
640.09	27061.27
640.24	26782.75
640.39	26637.64
640.54	26356.77
640.68	26363.79
640.83	26635.30
640.98	26307.62
641.13	26239.75
641.27	26466.78
641.42	26415.29
641.57	26448.05
641.72	26780.41
641.86	26174.21
642.01	26249.11
642.16	26256.13
642.31	26396.56
642.45	26513.59
642.60	26316.98
642.75	25891.01
642.90	26354.43
643.04	26314.64
643.19	26068.89
643.34	26050.16
643.48	26382.52
643.63	26202.30
643.78	26118.04
643.93	26064.21
644.07	26370.82
644.22	26136.76
644.37	25937.82
644.51	26190.59
644.66	26101.65
644.81	25816.11
644.95	25968.24
645.10	25846.54
645.25	26078.25
645.39	26033.78
645.54	25898.03
645.69	25776.32
645.83	25940.16
645.98	25792.70
646.13	26405.92
646.27	26043.14
646.42	25734.19
646.57	26033.78
646.71	25811.43
646.86	26167.19
647.00	25605.46
647.15	25773.98
647.30	25600.78
647.44	25652.27
647.59	26036.12
647.74	25488.43
647.88	25855.90
648.03	25977.61
648.17	25979.95
648.32	25907.39
648.47	25572.69
648.61	25621.84
648.76	25783.34
648.90	25757.60
649.05	25762.28
649.20	25301.19
649.34	25685.04
649.49	25383.11
649.63	25694.40
649.78	25425.24
649.92	25715.47
650.07	25855.90
650.21	25301.19
650.36	25530.56
650.51	25504.82
650.65	25584.40
650.80	25682.70
650.94	25434.60
651.09	25111.61
651.23	25219.27
651.38	25280.13
651.52	25465.03
651.67	25303.53
651.81	25514.18
651.96	25785.68
652.10	25507.16
652.25	25273.10
652.39	25336.30
652.54	25394.81
652.68	25273.10
652.83	25324.60
652.97	25443.96
653.12	25266.08
653.26	25284.81
653.41	25153.74
653.55	24847.13
653.70	25291.83
653.84	25163.10
653.99	25135.01
654.13	24650.52
654.27	24758.19
654.42	25132.67
654.56	24910.32
654.71	25036.71
654.85	24900.96
655.00	24849.47
655.14	24725.42
655.29	24929.05
655.43	24725.42
655.57	24900.96
655.72	24659.88
655.86	24748.82
656.01	24903.30
656.15	24788.61
656.30	24985.22
656.44	24727.76
656.58	24584.99
656.73	24657.54
656.87	24727.76
657.01	24800.32
657.16	25048.41
657.30	25193.53
657.45	24519.45
657.59	24776.91
657.73	24833.08
657.88	24891.60
658.02	24521.79
658.16	24783.93
658.31	24641.16
658.45	24507.75
658.60	24343.91
658.74	24542.86
658.88	24746.48
659.03	24320.51
659.17	24423.49
659.31	24217.52
659.46	24299.44
659.60	24608.39
659.74	24208.16
659.89	24283.06
660.03	23946.02
660.17	24168.37
660.32	24077.09
660.46	23976.45
660.60	24095.82
660.74	24091.13
660.89	23920.28
661.03	24072.41
661.17	24039.64
661.32	23836.02
661.46	24135.60
661.60	24002.19
661.74	24105.18
661.89	24250.29
662.03	24105.18
662.17	23885.17
662.31	23901.55
662.46	23946.02
662.60	24056.03
662.74	24037.30
662.88	23307.05
663.03	23396.00
663.17	23611.32
663.31	23325.78
663.45	23435.78
663.60	23454.51
663.74	23367.91
663.88	23707.29
664.02	23620.69
664.17	23908.57
664.31	23491.96
664.45	23501.32
664.59	23459.19
664.73	23639.41
664.88	23227.48
665.02	22960.66
665.16	23239.18
665.30	22953.63
665.44	23028.53
665.59	22644.68
665.73	23098.75
665.87	22860.01
666.01	23293.01
666.15	23133.86
666.29	23164.28
666.44	22967.68
666.58	22700.86
666.72	22892.78
666.86	23002.78
667.00	22721.92
667.14	22824.90
667.28	22759.37
667.43	22689.15
667.57	22817.88
667.71	22452.76
667.85	22544.04
667.99	22466.80
668.13	22410.63
668.27	22684.47
668.41	22513.61
668.56	22223.39
668.70	22417.65
668.84	22492.55
668.98	22361.48
669.12	22396.59
669.26	22295.94
669.40	22239.77
669.54	22366.16
669.68	22115.72
669.82	21818.47
669.96	21996.35
670.10	22099.34
670.25	22190.62
670.39	22251.47
670.53	21886.35
670.67	21769.32
670.81	21933.16
670.95	21832.52
671.09	21652.30
671.23	21766.98
671.37	21586.76
671.51	21886.35
671.65	21699.11
671.79	21977.63
671.93	21563.36
672.07	21593.78
672.21	21752.94
672.35	21266.11
672.49	21441.65
672.63	21092.91
672.77	21633.57
672.91	21380.79
673.05	21240.36
673.19	21315.26
673.33	21099.93
673.47	20809.70
673.61	21448.67
673.75	20919.71
673.89	21289.51
674.03	21095.25
674.17	21263.77
674.31	20917.37
674.45	20842.47
674.59	20940.77
674.73	21018.01
674.87	20695.02
675.01	20585.01
675.15	20535.86
675.29	20327.55
675.43	20486.71
675.56	20648.21
675.70	20477.35
675.84	20390.75
675.98	20137.97
676.12	20503.09
676.26	20652.89
676.40	20264.36
676.54	20255.00
676.68	20350.96
676.82	19648.80
676.96	20212.87
677.10	19917.96
677.23	19672.20
677.37	19983.49
677.51	19672.20
677.65	19594.96
677.79	19480.28
677.93	19302.40
678.07	19508.37
678.21	19426.45
678.34	19887.53
678.48	19489.64
678.62	19218.14
678.76	19295.38
678.90	19386.66
679.04	19506.02
679.18	19159.63
679.31	18841.31
679.45	19051.96
679.59	18661.09
679.73	19082.39
679.87	18579.17
680.00	18899.83
680.14	18576.83
680.28	18628.32
680.42	18930.25
680.56	18993.45
680.70	18778.12
680.83	18394.27
680.97	18757.05
681.11	18345.12
681.25	18420.02
681.39	18347.46
681.52	18174.26
681.66	18136.81
681.80	18136.81
681.94	18143.83
682.07	18066.60
682.21	17984.68
682.35	17710.83
682.49	17790.41
682.62	17722.54
682.76	17839.56
682.90	17851.27
683.04	17762.33
683.17	17736.58
683.31	17659.34
683.45	17673.39
683.59	17341.03
683.72	17392.52
683.86	17460.40
684.00	17633.60
684.13	17266.13
684.27	17114.00
684.41	17015.69
684.55	17231.02
684.68	16938.46
684.82	16718.45
684.96	17013.35
685.09	16706.74
685.23	16610.78
685.37	16919.73
685.50	16751.21
685.64	16910.37
685.78	16776.96
685.91	16528.86
686.05	16802.71
686.19	16507.80
686.32	16570.99
686.46	16292.47
686.60	16287.79
686.73	16308.85
686.87	15985.86
687.01	16056.08
687.14	15988.20
687.28	15735.42
687.42	16156.72
687.55	15768.19
687.69	15950.75
687.82	16159.06
687.96	15559.88
688.10	15599.67
688.23	15742.44
688.37	15920.32
688.50	15857.13
688.64	15697.97
688.78	15630.10
688.91	15250.93
689.05	15328.17
689.18	15215.82
689.32	14944.32
689.46	15009.86
689.59	14946.66
689.73	15042.62
689.86	15023.90
690.00	14738.35
690.13	14754.74
690.27	15051.99
690.41	14951.34
690.54	14707.93
690.68	14981.77
690.81	14750.06
690.95	15161.99
691.08	14623.67
691.22	14663.46
691.35	14640.05
691.49	14382.59
691.62	14504.30
691.76	14331.10
691.89	14359.19
692.03	14228.12
692.16	14195.35
692.30	14024.49
692.43	14026.83
692.57	13771.71
692.70	13923.85
692.84	14200.03
692.97	13776.39
693.11	13862.99
693.24	13958.96
693.38	13673.41
693.51	13437.02
693.65	13507.23
693.78	13544.68
693.92	13645.32
694.05	13441.70
694.19	13233.39
694.32	13219.35
694.45	13312.97
694.59	13057.85
694.72	13043.81
694.86	12975.93
694.99	12835.50
695.13	13116.36
695.26	13132.75
695.39	12973.59
695.53	12624.85
695.66	13027.42
695.80	12744.22
695.93	12856.56
696.07	12840.18
696.20	12709.11
696.33	12828.48
696.47	12533.57
696.60	12601.44
696.73	12739.54
696.87	12580.38
697.00	12273.77
697.14	12187.17
697.27	12067.80
697.40	12121.63
697.54	12119.29
697.67	12051.42
697.80	12152.06
697.94	11957.80
698.07	11988.22
698.21	11894.60
698.34	11786.94
698.47	11981.20
698.61	11777.58
698.74	12180.15
698.87	11756.51
699.01	11545.86
699.14	11796.30
699.27	11719.06
699.40	11758.85
699.54	11541.18
699.67	11435.86
699.80	11330.53
699.94	11117.54
700.07	11293.08
700.20	10822.64
700.34	11026.26
700.47	11087.12
700.60	11199.46
700.73	11218.19
700.87	10911.58
701.00	10934.98
701.13	10841.36
701.26	10815.62
701.40	10841.36
701.53	10775.83
701.66	10724.33
701.79	10740.72
701.93	10860.09
702.06	10623.69
702.19	10422.41
702.32	10377.94
702.46	10347.51
702.59	10431.77
702.72	10186.01
702.85	10106.43
702.99	10209.42
703.12	10230.48
703.25	10064.30
703.38	10127.50
703.51	10113.45
703.65	10141.54
703.78	10059.62
703.91	9996.43
704.04	10108.77
704.17	10022.17
704.31	9856.00
704.44	9675.77
704.57	9589.17
704.70	9568.11
704.83	9666.41
704.96	9551.73
705.10	9610.24
705.23	9378.53
>>>>>End Processed Spectral Data<<<<<
