SpectraSuite Data File
++++++++++++++++++++++++++++++++++++
Date: Fri Oct 18 13:58:29 GMT-05:00 2013
User: bianchi
Dark Spectrum Present: No
Reference Spectrum Present: No
Number of Sampled Component Spectra: 1
Spectrometers: USB2+H05261
Integration Time (usec): 50000 (USB2+H05261)
Spectra Averaged: 1 (USB2+H05261)
Boxcar Smoothing: 0 (USB2+H05261)
Correct for Electrical Dark: No (USB2+H05261)
Strobe/Lamp Enabled: No (USB2+H05261)
Correct for Detector Non-linearity: No (USB2+H05261)
Correct for Stray Light: No (USB2+H05261)
Number of Pixels in Processed Spectrum: 2048
>>>>>Begin Processed Spectral Data<<<<<
365.73	0.00
365.92	0.00
366.12	0.00
366.32	0.00
366.52	0.00
366.72	0.00
366.91	0.00
367.11	0.00
367.31	0.00
367.51	0.00
367.70	0.00
367.90	0.00
368.10	0.00
368.30	0.00
368.49	0.00
368.69	0.00
368.89	0.00
369.09	0.00
369.28	0.00
369.48	0.00
369.68	0.00
369.87	0.00
370.07	0.00
370.27	0.00
370.47	0.00
370.66	74.90
370.86	102.98
371.06	161.50
371.25	163.84
371.45	114.69
371.65	198.95
371.84	100.64
372.04	88.94
372.24	196.60
372.44	138.09
372.63	217.67
372.83	168.52
373.03	236.39
373.22	177.88
373.42	124.05
373.62	187.24
373.81	245.76
374.01	180.22
374.21	173.20
374.40	276.18
374.60	311.29
374.79	201.29
374.99	297.25
375.19	217.67
375.38	280.86
375.58	220.01
375.78	191.92
375.97	238.73
376.17	304.27
376.37	311.29
376.56	262.14
376.76	301.93
376.95	229.37
377.15	248.10
377.35	229.37
377.54	292.57
377.74	301.93
377.93	229.37
378.13	238.73
378.33	287.89
378.52	222.35
378.72	388.53
378.91	278.52
379.11	313.63
379.31	257.46
379.50	248.10
379.70	376.83
379.89	315.97
380.09	245.76
380.28	301.93
380.48	367.46
380.68	308.95
380.87	290.23
381.07	306.61
381.26	203.63
381.46	360.44
381.65	353.42
381.85	285.55
382.04	283.20
382.24	341.72
382.43	318.31
382.63	322.99
382.83	297.25
383.02	407.25
383.22	358.10
383.41	348.74
383.61	381.51
383.80	339.38
384.00	381.51
384.19	451.72
384.39	299.59
384.58	390.87
384.78	383.85
384.97	393.21
385.17	320.65
385.36	346.40
385.56	348.74
385.75	388.53
385.95	346.40
386.14	341.72
386.34	444.70
386.53	386.19
386.72	348.74
386.92	390.87
387.11	409.59
387.31	388.53
387.50	383.85
387.70	468.11
387.89	322.99
388.09	362.78
388.28	435.34
388.48	386.19
388.67	404.91
388.86	496.19
389.06	435.34
389.25	505.56
389.45	554.71
389.64	475.13
389.84	458.74
390.03	493.85
390.22	472.79
390.42	454.06
390.61	444.70
390.81	472.79
391.00	482.15
391.19	500.87
391.39	454.06
391.58	505.56
391.78	521.94
391.97	503.22
392.16	514.92
392.36	566.41
392.55	599.18
392.75	528.96
392.94	456.40
393.13	526.62
393.33	535.98
393.52	599.18
393.71	503.22
393.91	538.32
394.10	440.02
394.29	641.31
394.49	566.41
394.68	526.62
394.88	519.60
395.07	617.90
395.26	557.05
395.46	599.18
395.65	594.50
395.84	575.77
396.04	655.35
396.23	599.18
396.42	620.24
396.62	697.48
396.81	615.56
397.00	589.82
397.19	704.50
397.39	610.88
397.58	608.54
397.77	664.71
397.97	688.12
398.16	638.97
398.35	725.57
398.55	713.86
398.74	709.18
398.93	727.91
399.12	753.65
399.32	755.99
399.51	688.12
399.70	777.06
399.90	791.10
400.09	758.33
400.28	758.33
400.47	688.12
400.67	636.63
400.86	727.91
401.05	842.59
401.24	821.53
401.44	840.25
401.63	795.78
401.82	772.38
402.01	702.16
402.21	798.12
402.40	837.91
402.59	791.10
402.78	849.61
402.97	842.59
403.17	835.57
403.36	880.04
403.55	873.02
403.74	901.11
403.93	861.32
404.13	922.17
404.32	858.98
404.51	793.44
404.70	884.72
404.89	915.15
405.09	959.62
405.28	940.90
405.47	877.70
405.66	922.17
405.85	912.81
406.05	1036.86
406.24	1027.50
406.43	933.87
406.62	938.55
406.81	1015.79
407.00	987.71
407.20	954.94
407.39	1018.13
407.58	966.64
407.77	1083.67
407.96	1153.88
408.15	1118.78
408.34	1069.62
408.54	1062.60
408.73	1135.16
408.92	1046.22
409.11	1118.78
409.30	1102.39
409.49	1163.25
409.68	1086.01
409.87	1104.73
410.07	1156.22
410.26	1142.18
410.45	1153.88
410.64	1125.80
410.83	1203.04
411.02	1121.12
411.21	1203.04
411.40	1249.85
411.59	1282.61
411.78	1219.42
411.98	1170.27
412.17	1277.93
412.36	1324.74
412.55	1303.68
412.74	1296.66
412.93	1406.66
413.12	1334.11
413.31	1401.98
413.50	1273.25
413.69	1348.15
413.88	1383.26
414.07	1430.07
414.26	1455.81
414.45	1507.30
414.64	1528.37
414.83	1444.11
415.02	1366.87
415.22	1570.50
415.41	1584.54
415.60	1507.30
415.79	1575.18
415.98	1572.84
416.17	1572.84
416.36	1621.99
416.55	1629.01
416.74	1607.95
416.93	1694.55
417.12	1647.74
417.31	1591.56
417.50	1645.40
417.69	1703.91
417.88	1717.95
418.07	1720.29
418.26	1743.70
418.45	1755.40
418.64	1741.36
418.83	1886.47
419.02	1802.21
419.21	1832.64
419.39	1888.81
419.58	1788.17
419.77	1827.96
419.96	1830.30
420.15	1909.88
420.34	1830.30
420.53	1755.40
420.72	1839.66
420.91	1865.41
421.10	1907.54
421.29	2026.90
421.48	1895.83
421.67	1928.60
421.86	2001.16
422.05	2015.20
422.24	1949.67
422.43	1973.07
422.61	1952.01
422.80	2015.20
422.99	1982.43
423.18	1942.64
423.37	1909.88
423.56	1968.39
423.75	1947.33
423.94	1980.09
424.13	1846.68
424.32	1987.11
424.50	1905.20
424.69	1937.96
424.88	2190.74
425.07	1994.14
425.26	1975.41
425.45	2043.29
425.64	1984.77
425.83	2022.22
426.01	2106.48
426.20	2012.86
426.39	1998.82
426.58	2043.29
426.77	2066.69
426.96	2064.35
427.15	2054.99
427.33	2106.48
427.52	2174.36
427.71	2132.23
427.90	2176.70
428.09	2155.63
428.28	2118.18
428.46	2256.28
428.65	2104.14
428.84	2211.81
429.03	2148.61
429.22	2162.66
429.40	2218.83
429.59	2204.78
429.78	2162.66
429.97	2143.93
430.16	2366.28
430.34	2333.51
430.53	2333.51
430.72	2296.07
430.91	2352.24
431.10	2242.23
431.28	2349.90
431.47	2385.01
431.66	2394.37
431.85	2427.14
432.03	2443.52
432.22	2406.07
432.41	2466.92
432.60	2392.03
432.79	2422.45
432.97	2392.03
433.16	2502.03
433.35	2410.75
433.54	2558.21
433.72	2562.89
433.91	2375.64
434.10	2413.09
434.28	2485.65
434.47	2457.56
434.66	2483.31
434.85	2647.15
435.03	2637.78
435.22	2600.34
435.41	2787.58
435.59	2649.49
435.78	2656.51
435.97	2565.23
436.16	2658.85
436.34	2715.02
436.53	2672.89
436.72	2698.64
436.90	2642.46
437.09	2649.49
437.28	2682.25
437.46	2761.83
437.65	2761.83
437.84	2787.58
438.02	2658.85
438.21	2771.19
438.40	2656.51
438.58	2876.52
438.77	2864.82
438.96	2855.45
439.14	3054.40
439.33	2888.22
439.52	2953.76
439.70	2839.07
439.89	2981.84
440.08	3077.80
440.26	3061.42
440.45	2986.52
440.63	3117.59
440.82	3094.19
441.01	3091.85
441.19	3098.87
441.38	3194.83
441.57	3204.19
441.75	3138.66
441.94	3066.10
442.12	3178.45
442.31	3414.84
442.50	3304.84
442.68	3293.13
442.87	3192.49
443.05	3269.73
443.24	3346.97
443.43	3353.99
443.61	3346.97
443.80	3361.01
443.98	3302.50
444.17	3148.02
444.35	3260.37
444.54	3428.88
444.73	3377.39
444.91	3440.59
445.10	3433.57
445.28	3349.31
445.47	3419.52
445.65	3447.61
445.84	3407.82
446.02	3506.12
446.21	3400.80
446.39	3405.48
446.58	3389.10
446.77	3438.25
446.95	3412.50
447.14	3459.31
447.32	3468.67
447.51	3590.38
447.69	3459.31
447.88	3487.40
448.06	3473.36
448.25	3513.14
448.43	3517.83
448.62	3541.23
448.80	3552.93
448.99	3506.12
449.17	3599.74
449.36	3595.06
449.54	3550.59
449.73	3777.62
449.91	3702.73
450.10	3707.41
450.28	3749.54
450.46	3857.20
450.65	3691.02
450.83	3700.39
451.02	3737.84
451.20	3768.26
451.39	3749.54
451.57	3810.39
451.76	3777.62
451.94	3782.31
452.13	3695.71
452.31	3779.97
452.49	3700.39
452.68	3742.52
452.86	3857.20
453.05	3768.26
453.23	4021.04
453.42	3712.09
453.60	3775.28
453.78	4014.02
453.97	3948.48
454.15	3831.46
454.34	3929.76
454.52	3969.55
454.70	3985.93
454.89	4079.55
455.07	3969.55
455.26	3943.80
455.44	4088.92
455.62	4007.00
455.81	4046.79
455.99	4219.99
456.17	4074.87
456.36	4100.62
456.54	4175.52
456.73	4320.63
456.91	4325.31
457.09	4444.68
457.28	4430.63
457.46	4194.24
457.64	4250.41
457.83	4320.63
458.01	4212.96
458.19	4337.01
458.38	4222.33
458.56	4294.88
458.74	4341.69
458.93	4388.50
459.11	4442.34
459.29	4437.66
459.48	4514.89
459.66	4411.91
459.84	4573.41
460.03	4587.45
460.21	4561.70
460.39	4416.59
460.57	4538.30
460.76	4528.94
460.94	4575.75
461.12	4559.36
461.31	4585.11
461.49	4559.36
461.67	4559.36
461.85	4711.50
462.04	4842.57
462.22	4814.48
462.40	4795.76
462.59	4580.43
462.77	4762.99
462.95	4957.25
463.13	4578.09
463.32	4741.93
463.50	4875.34
463.68	4823.84
463.86	4823.84
464.05	4791.08
464.23	4807.46
464.41	4746.61
464.59	4760.65
464.78	4931.51
464.96	4940.87
465.14	4774.69
465.32	4966.62
465.50	4926.83
465.69	4870.65
465.87	4966.62
466.05	5018.11
466.23	4957.25
466.41	4980.66
466.60	5184.29
466.78	5043.85
466.96	4912.78
467.14	4894.06
467.32	5055.56
467.51	4992.36
467.69	5008.75
467.87	4987.68
468.05	5228.76
468.23	5118.75
468.41	5172.58
468.60	5107.05
468.78	5207.69
468.96	5195.99
469.14	5221.74
469.32	5268.55
469.50	5165.56
469.69	5287.27
469.87	5277.91
470.05	5481.53
470.23	5420.68
470.41	5270.89
470.59	5444.09
470.77	5394.93
470.95	5563.45
471.14	5549.41
471.32	5547.07
471.50	5490.90
471.68	5448.77
471.86	5441.75
472.04	5720.27
472.22	5830.27
472.40	5680.48
472.58	5593.88
472.77	5750.70
472.95	5696.86
473.13	5851.34
473.31	5774.10
473.49	5776.44
473.67	5797.51
473.85	5715.59
474.03	5912.19
474.21	5820.91
474.39	6050.28
474.57	6087.73
474.75	6148.59
474.93	6218.80
475.12	6176.67
475.30	6235.19
475.48	6029.22
475.66	6073.69
475.84	6296.04
476.02	6120.50
476.20	6256.25
476.38	6307.74
476.56	6342.85
476.74	6408.39
476.92	6516.05
477.10	6373.28
477.28	6684.57
477.46	6654.14
477.64	6789.89
477.82	6750.10
478.00	6780.53
478.18	6677.55
478.36	6967.77
478.54	6843.73
478.72	7066.08
478.90	7136.29
479.08	7185.44
479.26	7080.12
479.44	7318.86
479.62	7222.89
479.80	7316.51
479.98	7243.96
480.16	7557.59
480.34	7478.01
480.52	7487.37
480.70	7691.00
480.88	7583.34
481.06	7588.02
481.24	7625.47
481.41	7833.77
481.59	8032.72
481.77	7955.48
481.95	7798.66
482.13	8116.98
482.31	8067.83
482.49	8145.06
482.67	7999.95
482.85	8416.57
483.03	8484.44
483.21	8475.08
483.39	8781.69
483.57	8446.99
483.74	8645.94
483.92	8716.16
484.10	8608.49
484.28	8603.81
484.46	8999.36
484.64	9275.54
484.82	8975.95
485.00	8849.57
485.18	9036.81
485.35	9245.12
485.53	9305.97
485.71	9289.59
485.89	9486.19
486.07	9401.93
486.25	9432.36
486.43	9699.18
486.61	9692.16
486.78	9771.74
486.96	9958.98
487.14	10010.47
487.32	9865.36
487.50	9767.06
487.68	10040.90
487.85	10377.94
488.03	10523.05
488.21	10544.11
488.39	10523.05
488.57	10609.65
488.75	10532.41
488.92	10595.61
489.10	10745.40
489.28	10843.70
489.46	11014.56
489.64	10815.62
489.81	11101.16
489.99	11234.57
490.17	11101.16
490.35	11389.05
490.53	11360.96
490.70	11595.01
490.88	11543.52
491.06	11754.17
491.24	11803.32
491.41	11761.19
491.59	11831.41
491.77	11744.81
491.95	11988.22
492.13	11950.78
492.30	12210.57
492.48	12217.60
492.66	12226.96
492.84	12311.22
493.01	12306.54
493.19	12301.86
493.37	12519.53
493.54	12336.96
493.72	12809.75
493.90	12559.31
494.08	12945.50
494.25	13062.53
494.43	13055.51
494.61	13158.49
494.79	13104.66
494.96	13350.42
495.14	13261.48
495.32	13371.48
495.49	13135.09
495.67	13626.60
495.85	13640.64
496.02	13874.70
496.20	13813.84
496.38	13888.74
496.55	14003.43
496.73	13877.04
496.91	13975.34
497.09	14244.50
497.26	14176.62
497.44	14239.82
497.62	14150.88
497.79	14551.11
497.97	14195.35
498.14	14707.93
498.32	14801.55
498.50	14649.41
498.67	14831.97
498.85	14710.27
499.03	14862.40
499.20	14731.33
499.38	14986.45
499.56	14745.38
499.73	15201.78
499.91	15475.62
500.08	15400.72
500.26	15335.19
500.44	14949.00
500.61	15218.16
500.79	15171.35
500.97	15206.46
501.14	15859.47
501.32	15538.82
501.49	15630.10
501.67	15527.11
501.84	15747.12
502.02	15735.42
502.20	15836.06
502.37	16074.80
502.55	15726.06
502.72	15999.90
502.90	16168.42
503.07	16166.08
503.25	16360.34
503.43	16156.72
503.60	16203.53
503.78	16475.03
503.95	16643.55
504.13	16393.11
504.30	16283.11
504.48	16498.44
504.65	16767.60
504.83	16809.73
505.01	16510.14
505.18	16603.76
505.36	16989.95
505.53	16961.86
505.71	16802.71
505.88	16865.90
506.06	16898.67
506.23	17205.28
506.41	17041.44
506.58	17303.58
506.76	17170.17
506.93	17153.79
507.11	17214.64
507.28	17235.70
507.46	17355.07
507.63	17348.05
507.81	17502.53
507.98	17383.16
508.16	17397.20
508.33	17930.84
508.50	17762.33
508.68	17827.86
508.85	17853.61
509.03	17909.78
509.20	17888.71
509.38	18073.62
509.55	18178.94
509.73	18232.77
509.90	18188.30
510.08	18265.54
510.25	17930.84
510.42	18485.55
510.60	18445.76
510.77	18583.85
510.95	18616.62
511.12	18480.87
511.30	18513.64
511.47	18553.43
511.64	18398.95
511.82	18911.53
511.99	18700.88
512.17	18689.18
512.34	18658.75
512.51	18984.09
512.69	18747.69
512.86	18923.23
513.04	19194.73
513.21	19138.56
513.38	19260.27
513.56	19527.09
513.73	19365.59
513.90	19426.45
514.08	19365.59
514.25	19653.48
514.43	19405.38
514.60	19208.78
514.77	19847.74
514.95	19609.01
515.12	19749.44
515.29	19716.67
515.47	19648.80
515.64	19857.10
515.81	19763.48
515.99	20098.18
516.16	19995.20
516.33	20126.27
516.51	19932.00
516.68	20112.22
516.85	19873.49
517.03	20217.55
517.20	20025.62
517.37	20119.24
517.54	20292.44
517.72	20491.39
517.89	20255.00
518.06	20435.22
518.24	20423.51
518.41	20528.84
518.58	20465.64
518.75	20713.74
518.93	20638.84
519.10	20753.53
519.27	21308.24
519.45	20739.49
519.62	20601.40
519.79	20673.95
519.96	20816.72
520.14	21060.14
520.31	21099.93
520.48	21095.25
520.65	20938.43
520.83	21172.49
521.00	21025.03
521.17	20971.20
521.34	21146.74
521.52	21357.39
521.69	21392.50
521.86	21259.09
522.03	21998.70
522.20	21523.57
522.38	21715.49
522.55	21425.26
522.72	21708.47
522.89	21500.16
523.07	21853.58
523.24	22001.04
523.41	22040.82
523.58	21886.35
523.75	21942.52
523.92	21933.16
524.10	21799.75
524.27	22066.57
524.44	22197.64
524.61	22195.30
524.78	22054.87
524.96	22230.41
525.13	22113.38
525.30	22113.38
525.47	22532.34
525.64	22066.57
525.81	22752.35
525.98	22735.96
526.16	22288.92
526.33	22497.23
526.50	22614.26
526.67	22668.09
526.84	22473.82
527.01	22324.03
527.18	22651.70
527.36	23119.81
527.53	23012.15
527.70	23211.09
527.87	23023.85
528.04	22857.67
528.21	23264.92
528.38	22874.06
528.55	23073.00
528.72	23084.70
528.89	23346.84
529.07	23274.29
529.24	23042.57
529.41	23180.67
529.58	23183.01
529.75	23075.34
529.92	23255.56
530.09	23557.49
530.26	23396.00
530.43	23463.87
530.60	23187.69
530.77	23403.02
530.94	23442.81
531.11	23407.70
531.28	23384.29
531.46	23456.85
531.63	23742.39
531.80	23735.37
531.97	23955.38
532.14	23817.29
532.31	24004.53
532.48	23894.53
532.65	23857.08
532.82	23723.67
532.99	23747.08
533.16	24236.25
533.33	24173.05
533.50	24191.78
533.67	24325.19
533.84	24229.23
534.01	23840.70
534.18	23903.89
534.35	24603.71
534.52	24173.05
534.69	24526.47
534.86	24489.03
535.03	24334.55
535.20	24584.99
535.37	24140.29
535.54	24627.12
535.71	24414.13
535.88	24453.92
536.05	24201.14
536.22	24620.10
536.38	25060.12
536.55	24858.83
536.72	24650.52
536.89	24507.75
537.06	24699.67
537.23	24851.81
537.40	24662.22
537.57	24861.17
537.74	24985.22
537.91	25109.27
538.08	24641.16
538.25	24776.91
538.42	24893.94
538.59	25102.25
538.75	24610.73
538.92	25036.71
539.09	24929.05
539.26	24926.71
539.43	25097.56
539.60	25345.66
539.77	24910.32
539.94	25125.65
540.11	25322.26
540.28	25338.64
540.44	25010.96
540.61	25322.26
540.78	25401.83
540.95	25532.90
541.12	25102.25
541.29	25359.70
541.46	25736.53
541.62	25450.99
541.79	25408.86
541.96	24938.41
542.13	25675.68
542.30	25717.81
542.47	25893.35
542.63	25914.41
542.80	25806.75
542.97	26359.11
543.14	25970.58
543.31	25876.96
543.48	25993.99
543.64	26450.39
543.81	26127.40
543.98	26122.72
544.15	26106.34
544.32	26452.73
544.48	26230.38
544.65	26235.06
544.82	26632.96
544.99	26265.49
545.16	26429.33
545.32	26218.68
545.49	26361.45
545.66	26513.59
545.83	26508.91
546.00	26551.04
546.16	26478.48
546.33	26403.58
546.50	26263.15
546.67	26499.55
546.83	26405.92
547.00	26501.89
547.17	26707.85
547.34	26583.80
547.50	26611.89
547.67	26948.93
547.84	26955.95
548.00	26749.98
548.17	26944.25
548.34	26635.30
548.51	26871.69
548.67	26981.70
548.84	26792.11
549.01	26927.86
549.18	26944.25
549.34	26967.65
549.51	26611.89
549.68	27094.04
549.84	26890.41
550.01	27269.58
550.18	26876.37
550.34	27304.69
550.51	27386.61
550.68	27056.59
550.84	27159.58
551.01	27262.56
551.18	26948.93
551.34	26883.39
551.51	27103.40
551.68	27388.95
551.84	27274.26
552.01	27222.77
552.18	27351.50
552.34	27330.44
552.51	27487.25
552.68	27510.66
552.84	27185.32
553.01	27723.65
553.18	27337.46
553.34	27133.83
553.51	27655.77
553.67	27756.41
553.84	28119.20
554.01	27861.74
554.17	27917.91
554.34	27496.61
554.51	27562.15
554.67	27826.63
554.84	27674.49
555.00	27679.18
555.17	28268.99
555.33	27887.48
555.50	27878.12
555.67	27917.91
555.83	27590.24
556.00	27714.28
556.16	28133.24
556.33	27709.60
556.50	27779.82
556.66	28369.63
556.83	27597.26
556.99	27985.79
557.16	28119.20
557.32	28236.22
557.49	28194.09
557.65	27880.46
557.82	28147.28
557.98	28276.01
558.15	28313.46
558.32	28486.66
558.48	27878.12
558.65	28215.16
558.81	28226.86
558.98	28404.74
559.14	28119.20
559.31	28226.86
559.47	28250.27
559.64	28212.82
559.80	28044.30
559.97	28723.05
560.13	27936.63
560.30	28634.11
560.46	28451.55
560.63	28208.14
560.79	28414.10
560.96	28730.08
561.12	28645.82
561.29	28034.94
561.45	28472.62
561.61	28584.96
561.78	28570.92
561.94	28842.42
562.11	28971.15
562.27	28554.54
562.44	28041.96
562.60	28526.45
562.77	28809.65
562.93	28112.17
563.10	28711.35
563.26	28685.61
563.42	28804.97
563.59	28519.43
563.75	28676.24
563.92	28950.09
564.08	28620.07
564.24	28620.07
564.41	28416.44
564.57	28638.80
564.74	28861.15
564.90	28669.22
565.07	28954.77
565.23	28746.46
565.39	28570.92
565.56	28680.92
565.72	28467.94
565.88	28732.42
566.05	28807.31
566.21	28922.00
566.38	28879.87
566.54	28797.95
566.70	29160.73
566.87	29326.91
567.03	29010.94
567.19	29280.10
567.36	29149.03
567.52	28865.83
567.68	29193.50
567.85	28765.18
568.01	29109.24
568.17	29039.03
568.34	29394.79
568.50	28676.24
568.66	29039.03
568.83	29071.79
568.99	28947.75
569.15	28863.49
569.32	28940.72
569.48	28940.72
569.64	29099.88
569.81	28900.94
569.97	28945.41
570.13	29081.16
570.30	29120.95
570.46	28765.18
570.62	29195.84
570.78	28896.25
570.95	28727.74
571.11	29273.08
571.27	28833.06
571.43	29001.58
571.60	29455.64
571.76	28741.78
571.92	29266.06
572.09	29202.86
572.25	29317.55
572.41	29553.94
572.57	29319.89
572.74	29518.84
572.90	28968.81
573.06	29137.33
573.22	29252.02
573.38	28879.87
573.55	29134.99
573.71	29600.76
573.87	29603.10
574.03	29134.99
574.20	29661.61
574.36	28926.68
574.52	29053.07
574.68	29373.72
574.84	29472.03
575.01	29432.24
575.17	29296.49
575.33	28788.59
575.49	29242.65
575.65	29521.18
575.82	29460.32
575.98	29357.34
576.14	29345.64
576.30	29163.08
576.46	29308.19
576.62	29441.60
576.79	29301.17
576.95	29450.96
577.11	29329.25
577.27	29420.53
577.43	29638.20
577.59	29584.37
577.75	29385.43
577.92	29282.44
578.08	29160.73
578.24	29212.23
578.40	29142.01
578.56	29333.93
578.72	29312.87
578.88	29766.93
579.04	29645.23
579.21	29165.42
579.37	29385.43
579.53	29701.40
579.69	29532.88
579.85	29291.80
580.01	29411.17
580.17	29046.05
580.33	29282.44
580.49	29191.16
580.65	29837.15
580.82	29722.46
580.98	29575.01
581.14	29535.22
581.30	29434.58
581.46	29453.30
581.62	29298.83
581.78	29490.75
581.94	29710.76
582.10	29170.10
582.26	29102.22
582.42	29633.52
582.58	29401.81
582.74	29242.65
582.90	29315.21
583.06	29167.76
583.22	29205.20
583.38	29479.05
583.54	29420.53
583.70	29448.62
583.86	29893.32
584.02	29357.34
584.18	29701.40
584.34	29640.54
584.50	29921.41
584.66	29392.45
584.82	29252.02
584.98	29237.97
585.14	29745.87
585.30	29357.34
585.46	29422.87
585.62	29619.48
585.78	29619.48
585.94	29565.65
586.10	29558.63
586.26	29853.53
586.42	29596.07
586.58	29383.09
586.74	29617.14
586.90	29373.72
587.06	29537.56
587.22	29689.70
587.38	29720.12
587.54	29607.78
587.70	29820.77
587.86	29722.46
588.02	29837.15
588.18	29970.56
588.34	29460.32
588.49	29406.49
588.65	29748.21
588.81	29570.33
588.97	29745.87
589.13	29462.66
589.29	29460.32
589.45	29610.12
589.61	29408.83
589.77	30211.64
589.93	29883.96
590.08	29750.55
590.24	30246.74
590.40	30050.14
590.56	29647.57
590.72	29790.34
590.88	29500.11
591.04	29727.14
591.20	29956.52
591.35	29830.13
591.51	30054.82
591.67	29942.47
591.83	30019.71
591.99	29879.28
592.15	29766.93
592.31	29701.40
592.46	29827.79
592.62	29429.90
592.78	29497.77
592.94	29694.38
593.10	29788.00
593.26	30110.99
593.41	30029.07
593.57	30005.67
593.73	29919.07
593.89	30071.20
594.05	30228.02
594.20	30300.58
594.36	29900.34
594.52	29811.40
594.68	30113.33
594.84	30129.72
594.99	30382.49
595.15	29867.58
595.31	30228.02
595.47	29898.00
595.62	30125.04
595.78	30328.66
595.94	29820.77
596.10	29919.07
596.25	30099.29
596.41	29785.66
596.57	29900.34
596.73	30211.64
596.88	30281.85
597.04	30230.36
597.20	30136.74
597.36	30197.59
597.51	30118.01
597.67	29979.92
597.83	29851.19
597.99	30143.76
598.14	30038.44
598.30	29977.58
598.46	29984.60
598.61	29675.65
598.77	30134.40
598.93	30272.49
599.09	30174.19
599.24	30532.29
599.40	30312.28
599.56	30136.74
599.71	30150.78
599.87	30302.92
600.03	29872.26
600.18	30026.73
600.34	30281.85
600.50	29640.54
600.65	30359.09
600.81	30125.04
600.97	30291.21
601.12	30209.29
601.28	30066.52
601.44	30263.13
601.59	30541.65
601.75	30094.61
601.91	30239.72
602.06	30312.28
602.22	30000.99
602.37	29748.21
602.53	29972.90
602.69	30000.99
602.84	30410.58
603.00	30387.18
603.16	30216.32
603.31	30061.84
603.47	30204.61
603.62	29895.66
603.78	30099.29
603.94	29715.44
604.09	30141.42
604.25	29958.86
604.40	29893.32
604.56	30160.14
604.71	30183.55
604.87	29853.53
605.03	30064.18
605.18	30134.40
605.34	30366.11
605.49	30204.61
605.65	29963.54
605.80	29745.87
605.96	29813.74
606.12	29893.32
606.27	30031.41
606.43	29968.22
606.58	30515.90
606.74	30031.41
606.89	30314.62
607.05	29998.65
607.20	30089.93
607.36	30005.67
607.51	30361.43
607.67	29951.84
607.82	29790.34
607.98	29750.55
608.13	30345.05
608.29	29727.14
608.44	29750.55
608.60	29893.32
608.75	30108.65
608.91	30288.87
609.06	29708.42
609.22	29942.47
609.37	29237.97
609.53	30110.99
609.68	29930.77
609.84	29710.76
609.99	30059.50
610.15	29544.58
610.30	29600.76
610.46	29663.95
610.61	29834.81
610.76	29909.71
610.92	29425.22
611.07	29802.04
611.23	29432.24
611.38	29509.47
611.54	29680.33
611.69	29685.01
611.84	29750.55
612.00	29766.93
612.15	29682.67
612.31	29509.47
612.46	29736.51
612.62	29668.63
612.77	29659.27
612.92	30075.88
613.08	29806.72
613.23	29694.38
613.39	29584.37
613.54	29675.65
613.69	29378.40
613.85	29692.04
614.00	29252.02
614.15	29514.16
614.31	29659.27
614.46	29567.99
614.62	29340.96
614.77	29806.72
614.92	29563.31
615.08	29401.81
615.23	29621.82
615.38	29647.57
615.54	29102.22
615.69	29394.79
615.84	29347.98
616.00	29270.74
616.15	29443.94
616.30	29472.03
616.46	29247.33
616.61	29490.75
616.76	29270.74
616.92	29083.50
617.07	29308.19
617.22	28992.22
617.37	29167.76
617.53	29085.84
617.68	29230.95
617.83	28978.17
617.99	28858.81
618.14	29142.01
618.29	29221.59
618.45	29017.96
618.60	29319.89
618.75	29060.09
618.90	29064.77
619.06	28966.47
619.21	29223.93
619.36	28985.19
619.51	28699.65
619.67	28744.12
619.82	28793.27
619.97	28907.96
620.12	28748.80
620.28	28526.45
620.43	28732.42
620.58	28884.55
620.73	29053.07
620.89	28922.00
621.04	29303.51
621.19	28694.97
621.34	28800.29
621.49	29081.16
621.65	29013.28
621.80	29109.24
621.95	28650.50
622.10	28409.42
622.25	28400.06
622.41	28959.45
622.56	28545.17
622.71	29095.20
622.86	28645.82
623.01	28776.89
623.16	29137.33
623.32	28594.32
623.47	28706.67
623.62	28720.71
623.77	28339.21
623.92	28549.85
624.07	28800.29
624.23	28400.06
624.38	28807.31
624.53	28730.08
624.68	28570.92
624.83	28739.44
624.98	28676.24
625.13	28606.03
625.29	28587.30
625.44	28690.29
625.59	28591.98
625.74	28114.52
625.89	28301.76
626.04	28390.70
626.19	28189.41
626.34	28486.66
626.49	27981.10
626.65	28191.75
626.80	28491.34
626.95	27948.34
627.10	28379.00
627.25	28093.45
627.40	28107.49
627.55	28142.60
627.70	27796.20
627.85	28198.77
628.00	27798.54
628.15	27887.48
628.30	27908.55
628.45	28297.08
628.60	27615.98
628.76	28067.70
628.91	28400.06
629.06	28011.53
629.21	27960.04
629.36	28283.03
629.51	28280.69
629.66	27686.20
629.81	27417.04
629.96	27637.05
630.11	27658.11
630.26	27768.12
630.41	27625.34
630.56	27665.13
630.71	27716.62
630.86	27903.87
631.01	28046.64
631.16	27938.97
631.31	27524.70
631.46	27627.68
631.61	27772.80
631.76	27789.18
631.91	27590.24
632.06	27461.51
632.21	27733.01
632.36	27648.75
632.51	27115.11
632.66	27566.83
632.81	27283.62
632.96	27620.66
633.10	27562.15
633.25	27936.63
633.40	27758.75
633.55	27318.73
633.70	27681.52
633.85	27452.14
634.00	27566.83
634.15	27201.71
634.30	27164.26
634.45	27405.33
634.60	27220.43
634.75	27398.31
634.90	27178.30
635.05	27405.33
635.19	27597.26
635.34	27501.29
635.49	27417.04
635.64	27426.40
635.79	27108.08
635.94	26941.91
636.09	27147.87
636.24	27115.11
636.39	26845.94
636.53	26878.71
636.68	26705.51
636.83	26885.73
636.98	26967.65
637.13	27023.83
637.28	27047.23
637.43	27346.82
637.57	26890.41
637.72	27199.37
637.87	27126.81
638.02	26848.29
638.17	27082.34
638.32	26771.05
638.46	26621.25
638.61	26843.60
638.76	26225.70
638.91	26686.79
639.06	26438.69
639.20	26913.82
639.35	26962.97
639.50	26806.16
639.65	27098.72
639.80	26749.98
639.94	26581.46
640.09	26972.33
640.24	26497.20
640.39	26611.89
640.54	26576.78
640.68	26588.49
640.83	26771.05
640.98	26712.53
641.13	26511.25
641.27	26663.38
641.42	26415.29
641.57	26623.59
641.72	26616.57
641.86	26480.82
642.01	26361.45
642.16	26359.11
642.31	26094.63
642.45	26010.37
642.60	26153.15
642.75	25958.88
642.90	26221.02
643.04	26551.04
643.19	26391.88
643.34	26422.31
643.48	26574.44
643.63	26464.44
643.78	26085.27
643.93	26595.51
644.07	26588.49
644.22	26394.22
644.37	26415.29
644.51	26045.48
644.66	26188.25
644.81	25893.35
644.95	25954.20
645.10	26197.62
645.25	26129.74
645.39	26033.78
645.54	25968.24
645.69	25963.56
645.83	26127.40
645.98	26118.04
646.13	26263.15
646.27	26106.34
646.42	25998.67
646.57	26206.98
646.71	25907.39
646.86	25715.47
647.00	26139.10
647.15	25961.22
647.30	25750.57
647.44	25666.31
647.59	26096.97
647.74	25748.23
647.88	25900.37
648.03	26022.08
648.17	25975.27
648.32	25940.16
648.47	26047.82
648.61	25282.47
648.76	26047.82
648.90	25516.52
649.05	25788.02
649.20	25907.39
649.34	25933.14
649.49	25759.94
649.63	25626.53
649.78	25813.77
649.92	25502.48
650.07	25755.26
650.21	25577.37
650.36	25469.71
650.51	24985.22
650.65	25308.21
650.80	25502.48
650.94	25511.84
651.09	25319.92
651.23	25303.53
651.38	25331.62
651.52	25392.47
651.67	25399.49
651.81	25160.76
651.96	25481.41
652.10	25610.14
652.25	25378.43
652.39	25703.76
652.54	25551.63
652.68	25509.50
652.83	25296.51
652.97	25411.20
653.12	25228.63
653.26	25432.26
653.41	25319.92
653.55	24793.29
653.70	24922.02
653.84	25268.42
653.99	25043.73
654.13	25165.44
654.27	24847.13
654.42	25069.48
654.56	25184.16
654.71	25017.99
654.85	25095.22
655.00	24980.54
655.14	24931.39
655.29	25088.20
655.43	24973.52
655.57	25020.33
655.72	24814.36
655.86	25067.14
656.01	24840.11
656.15	24999.26
656.30	24812.02
656.44	24781.59
656.58	24737.12
656.73	24959.47
656.87	24737.12
657.01	24783.93
657.16	24809.68
657.30	24835.42
657.45	24849.47
657.59	24781.59
657.73	24774.57
657.88	24730.10
658.02	24517.11
658.16	24456.26
658.31	24634.14
658.45	24603.71
658.60	24425.83
658.74	24144.97
658.88	24297.10
659.03	24596.69
659.17	24460.94
659.31	24245.61
659.46	24519.45
659.60	24545.20
659.74	24334.55
659.89	24467.96
660.03	24259.65
660.17	24219.86
660.32	24086.45
660.46	24247.95
660.60	23871.12
660.74	24060.71
660.89	24013.90
661.03	23850.06
661.17	24528.81
661.32	23868.78
661.46	24074.75
661.60	23936.66
661.74	24020.92
661.89	24259.65
662.03	23807.93
662.17	23995.17
662.31	23988.15
662.46	23969.43
662.60	23686.22
662.74	23679.20
662.88	23873.46
663.03	23545.79
663.17	23733.03
663.31	23136.20
663.45	23178.33
663.60	23424.08
663.74	23236.84
663.88	23140.88
664.02	23548.13
664.17	23587.92
664.31	23321.10
664.45	23587.92
664.59	23637.07
664.73	23314.08
664.88	23285.99
665.02	22986.40
665.16	23180.67
665.30	23325.78
665.44	23122.15
665.59	22803.84
665.73	23138.54
665.87	22799.16
666.01	23180.67
666.15	22572.13
666.29	23061.30
666.44	23271.95
666.58	22841.29
666.72	22988.74
666.86	22733.62
667.00	22904.48
667.14	22979.38
667.28	22661.07
667.43	22668.09
667.57	22881.08
667.71	22675.11
667.85	22621.28
667.99	22623.62
668.13	22855.33
668.27	22410.63
668.41	22363.82
668.56	22169.55
668.70	22705.54
668.84	22363.82
668.98	22232.75
669.12	22530.00
669.26	22115.72
669.40	22429.35
669.54	22274.88
669.68	22398.93
669.82	21752.94
669.96	21600.80
670.10	21891.03
670.25	22183.60
670.39	21671.02
670.53	22038.48
670.67	21879.33
670.81	21958.91
670.95	21832.52
671.09	21872.31
671.23	22101.68
671.37	21811.45
671.51	22197.64
671.65	21738.90
671.79	21387.82
671.93	21521.23
672.07	21610.17
672.21	21385.47
672.35	21542.29
672.49	21369.09
672.63	21420.58
672.77	21151.42
672.91	21460.37
673.05	21413.56
673.19	21118.65
673.33	21240.36
673.47	21221.64
673.61	21474.42
673.75	21521.23
673.89	21209.93
674.03	20657.57
674.17	20926.73
674.31	21111.63
674.45	20793.32
674.59	21130.36
674.73	20610.76
674.87	20662.25
675.01	20416.49
675.15	20613.10
675.29	20755.87
675.43	20645.87
675.56	20877.58
675.70	20702.04
675.84	20573.31
675.98	19775.19
676.12	20886.94
676.26	20355.64
676.40	20467.98
676.54	20098.18
676.68	20166.06
676.82	19609.01
676.96	20180.10
677.10	19990.52
677.23	19665.18
677.37	19623.05
677.51	20135.63
677.65	19613.69
677.79	19819.66
677.93	19513.05
678.07	19358.57
678.21	19641.78
678.34	19342.19
678.48	19330.48
678.62	19274.31
678.76	19356.23
678.90	19309.42
679.04	19007.49
679.18	19309.42
679.31	18684.50
679.45	18874.08
679.59	19000.47
679.73	18932.59
679.87	18813.23
680.00	18675.13
680.14	18618.96
680.28	18668.11
680.42	18916.21
680.56	19105.79
680.70	18616.62
680.83	18625.98
680.97	18480.87
681.11	18424.70
681.25	18373.21
681.39	18515.98
681.52	18190.64
681.66	18001.06
681.80	18204.69
681.94	18211.71
682.07	17970.63
682.21	17799.77
682.35	17886.37
682.49	17893.40
682.62	17523.59
682.76	17617.21
682.90	18010.42
683.04	18031.49
683.17	17694.45
683.31	17834.88
683.45	17671.04
683.59	17472.10
683.72	17687.43
683.86	17380.82
684.00	17132.72
684.13	17509.55
684.27	17195.92
684.41	17238.05
684.55	17149.11
684.68	16891.65
684.82	16868.24
684.96	16791.00
685.09	16776.96
685.23	16650.57
685.37	17041.44
685.50	16800.37
685.64	16578.01
685.78	16641.21
685.91	16856.54
686.05	16526.52
686.19	16418.86
686.32	16542.91
686.46	16273.74
686.60	16091.18
686.73	16306.51
686.87	16383.75
687.01	16072.46
687.14	16011.60
687.28	16173.10
687.42	16245.66
687.55	15721.38
687.69	15815.00
687.82	15995.22
687.96	15807.98
688.10	15531.80
688.23	15737.76
688.37	15604.35
688.50	15709.68
688.64	15468.60
688.78	15723.72
688.91	15204.12
689.05	15566.90
689.18	15501.37
689.32	15297.74
689.46	15194.76
689.59	15192.42
689.73	14995.81
689.86	15117.52
690.00	14869.42
690.13	14930.28
690.27	14677.50
690.41	14993.47
690.54	14979.43
690.68	14567.49
690.81	14747.72
690.95	14759.42
691.08	14686.86
691.22	14626.01
691.35	14567.49
691.49	14684.52
691.62	14466.85
691.76	14272.59
691.89	14373.23
692.03	14345.14
692.16	14031.51
692.30	14235.14
692.43	13893.42
692.57	13806.82
692.70	14099.39
692.84	13935.55
692.97	13785.76
693.11	13867.67
693.24	13699.16
693.38	13872.36
693.51	13708.52
693.65	13687.45
693.78	13692.13
693.92	13432.33
694.05	13511.91
694.19	13481.49
694.32	13324.67
694.45	13280.20
694.59	12844.86
694.72	13312.97
694.86	12985.29
694.99	12943.16
695.13	12924.44
695.26	12980.61
695.39	12978.27
695.53	13153.81
695.66	13015.72
695.80	13071.89
695.93	12842.52
696.07	12952.52
696.20	12858.90
696.33	12664.64
696.47	12526.55
696.60	12650.60
696.73	12564.00
696.87	12425.90
697.00	12313.56
697.14	12229.30
697.27	12049.08
697.40	12088.87
697.54	11913.33
697.67	11955.46
697.80	11974.18
697.94	11812.68
698.07	12020.99
698.21	11932.05
698.34	11875.88
698.47	11707.36
698.61	11885.24
698.74	11779.92
698.87	11962.48
699.01	11609.06
699.14	11674.59
699.27	11651.19
699.40	11695.66
699.54	11452.24
699.67	11489.69
699.80	11412.45
699.94	11339.90
700.07	11183.08
700.20	11084.78
700.34	11047.33
700.47	11192.44
700.60	11103.50
700.73	11115.20
700.87	11218.19
701.00	10848.38
701.13	10918.60
701.26	11012.22
701.40	10743.06
701.53	10824.98
701.66	11126.91
701.79	10721.99
701.93	10909.24
702.06	10445.81
702.19	10619.01
702.32	10399.00
702.46	10511.35
702.59	10242.18
702.72	10211.76
702.85	10155.58
702.99	10223.46
703.12	10054.94
703.25	10026.86
703.38	10087.71
703.51	10071.33
703.65	10143.88
703.78	9956.64
703.91	10090.05
704.04	9919.19
704.17	9834.93
704.31	9914.51
704.44	9853.66
704.57	9525.98
704.70	9738.97
704.83	9556.41
704.96	9476.83
705.10	9235.75
705.23	9350.44
>>>>>End Processed Spectral Data<<<<<
