SpectraSuite Data File
++++++++++++++++++++++++++++++++++++
Date: Fri Oct 18 13:58:26 GMT-05:00 2013
User: bianchi
Dark Spectrum Present: No
Reference Spectrum Present: No
Number of Sampled Component Spectra: 1
Spectrometers: USB2+H05261
Integration Time (usec): 50000 (USB2+H05261)
Spectra Averaged: 1 (USB2+H05261)
Boxcar Smoothing: 0 (USB2+H05261)
Correct for Electrical Dark: No (USB2+H05261)
Strobe/Lamp Enabled: No (USB2+H05261)
Correct for Detector Non-linearity: No (USB2+H05261)
Correct for Stray Light: No (USB2+H05261)
Number of Pixels in Processed Spectrum: 2048
>>>>>Begin Processed Spectral Data<<<<<
365.73	0.00
365.92	0.00
366.12	0.00
366.32	0.00
366.52	0.00
366.72	0.00
366.91	0.00
367.11	0.00
367.31	0.00
367.51	0.00
367.70	0.00
367.90	0.00
368.10	0.00
368.30	0.00
368.49	0.00
368.69	0.00
368.89	0.00
369.09	0.00
369.28	0.00
369.48	0.00
369.68	0.00
369.87	0.00
370.07	0.00
370.27	0.00
370.47	0.00
370.66	30.43
370.86	2.34
371.06	81.92
371.25	110.01
371.45	105.32
371.65	126.39
371.84	220.01
372.04	180.22
372.24	180.22
372.44	126.39
372.63	161.50
372.83	168.52
373.03	224.69
373.22	208.31
373.42	280.86
373.62	175.54
373.81	140.43
374.01	224.69
374.21	294.91
374.40	215.33
374.60	98.30
374.79	266.82
374.99	252.78
375.19	198.95
375.38	287.89
375.58	259.80
375.78	215.33
375.97	278.52
376.17	276.18
376.37	231.71
376.56	217.67
376.76	238.73
376.95	252.78
377.15	189.58
377.35	259.80
377.54	266.82
377.74	231.71
377.93	299.59
378.13	264.48
378.33	276.18
378.52	330.02
378.72	315.97
378.91	290.23
379.11	339.38
379.31	243.42
379.50	299.59
379.70	290.23
379.89	372.15
380.09	332.36
380.28	236.39
380.48	299.59
380.68	205.97
380.87	238.73
381.07	304.27
381.26	376.83
381.46	264.48
381.65	369.80
381.85	337.04
382.04	339.38
382.24	365.12
382.43	294.91
382.63	353.42
382.83	348.74
383.02	299.59
383.22	353.42
383.41	339.38
383.61	388.53
383.80	383.85
384.00	421.30
384.19	353.42
384.39	332.36
384.58	346.40
384.78	337.04
384.97	358.10
385.17	409.59
385.36	433.00
385.56	369.80
385.75	337.04
385.95	397.89
386.14	358.10
386.34	400.23
386.53	362.78
386.72	351.08
386.92	395.55
387.11	416.62
387.31	393.21
387.50	337.04
387.70	376.83
387.89	411.93
388.09	440.02
388.28	404.91
388.48	437.68
388.67	428.32
388.86	437.68
389.06	416.62
389.25	496.19
389.45	505.56
389.64	437.68
389.84	491.51
390.03	496.19
390.22	526.62
390.42	409.59
390.61	482.15
390.81	484.49
391.00	440.02
391.19	503.22
391.39	479.81
391.58	507.90
391.78	510.24
391.97	528.96
392.16	582.79
392.36	580.45
392.55	507.90
392.75	524.28
392.94	517.26
393.13	580.45
393.33	479.81
393.52	510.24
393.71	559.39
393.91	606.20
394.10	514.92
394.29	657.69
394.49	552.37
394.68	594.50
394.88	669.39
395.07	557.05
395.26	507.90
395.46	606.20
395.65	554.71
395.84	613.22
396.04	641.31
396.23	631.94
396.42	610.88
396.62	699.82
396.81	627.26
397.00	685.78
397.19	660.03
397.39	601.52
397.58	664.71
397.77	674.07
397.97	671.73
398.16	624.92
398.35	667.05
398.55	655.35
398.74	636.63
398.93	723.23
399.12	723.23
399.32	702.16
399.51	690.46
399.70	660.03
399.90	763.01
400.09	709.18
400.28	795.78
400.47	870.68
400.67	840.25
400.86	716.20
401.05	873.02
401.24	795.78
401.44	765.36
401.63	688.12
401.82	734.93
402.01	830.89
402.21	856.64
402.40	866.00
402.59	936.21
402.78	901.11
402.97	887.06
403.17	851.96
403.36	866.00
403.55	910.47
403.74	912.81
403.93	954.94
404.13	858.98
404.32	910.47
404.51	926.85
404.70	931.53
404.89	997.07
405.09	929.19
405.28	940.90
405.47	964.30
405.66	802.80
405.85	964.30
406.05	1025.15
406.24	990.05
406.43	957.28
406.62	1128.14
406.81	1095.37
407.00	1001.75
407.20	971.32
407.39	1064.94
407.58	1029.84
407.77	1039.20
407.96	1053.24
408.15	1090.69
408.34	1107.07
408.54	1097.71
408.73	1067.28
408.92	1093.03
409.11	1170.27
409.30	1177.29
409.49	1086.01
409.68	1121.12
409.87	1151.54
410.07	1181.97
410.26	1128.14
410.45	1186.65
410.64	1210.06
410.83	1181.97
411.02	1153.88
411.21	1191.33
411.40	1142.18
411.59	1205.38
411.78	1357.51
411.98	1331.76
412.17	1341.13
412.36	1273.25
412.55	1284.95
412.74	1270.91
412.93	1284.95
413.12	1310.70
413.31	1434.75
413.50	1329.42
413.69	1427.73
413.88	1439.43
414.07	1392.62
414.26	1434.75
414.45	1472.20
414.64	1387.94
414.83	1526.03
415.02	1523.69
415.22	1500.28
415.41	1568.16
415.60	1533.05
415.79	1636.03
415.98	1610.29
416.17	1544.75
416.36	1556.46
416.55	1624.33
416.74	1617.31
416.93	1598.59
417.12	1743.70
417.31	1661.78
417.50	1713.27
417.69	1778.81
417.88	1624.33
418.07	1792.85
418.26	1739.02
418.45	1741.36
418.64	1755.40
418.83	1769.44
419.02	1856.04
419.21	1844.34
419.39	1727.32
419.58	1874.77
419.77	1809.23
419.96	1895.83
420.15	1884.13
420.34	1816.26
420.53	1860.73
420.72	1980.09
420.91	1912.22
421.10	1902.86
421.29	1970.73
421.48	1818.60
421.67	1984.77
421.86	2115.84
422.05	1919.24
422.24	1905.20
422.43	2050.31
422.61	1914.56
422.80	1980.09
422.99	2015.20
423.18	1959.03
423.37	1994.14
423.56	1954.35
423.75	1975.41
423.94	2001.16
424.13	1825.62
424.32	1937.96
424.50	2059.67
424.69	2122.87
424.88	2073.71
425.07	1944.99
425.26	1912.22
425.45	1994.14
425.64	1961.37
425.83	1966.05
426.01	2136.91
426.20	2101.80
426.39	2101.80
426.58	1984.77
426.77	2005.84
426.96	2246.91
427.15	2108.82
427.33	2141.59
427.52	2050.31
427.71	2139.25
427.90	2237.55
428.09	2120.53
428.28	2169.68
428.46	2183.72
428.65	2090.10
428.84	2148.61
429.03	2382.67
429.22	2202.44
429.40	2235.21
429.59	2260.96
429.78	2188.40
429.97	2209.47
430.16	2265.64
430.34	2298.41
430.53	2361.60
430.72	2324.15
430.91	2284.36
431.10	2340.54
431.28	2310.11
431.47	2335.85
431.66	2450.54
431.85	2382.67
432.03	2335.85
432.22	2462.24
432.41	2289.04
432.60	2438.84
432.79	2349.90
432.97	2544.16
433.16	2469.27
433.35	2462.24
433.54	2473.95
433.72	2502.03
433.91	2427.14
434.10	2520.76
434.28	2490.33
434.47	2511.39
434.66	2497.35
434.85	2614.38
435.03	2551.18
435.22	2504.37
435.41	2679.91
435.59	2607.36
435.78	2576.93
435.97	2698.64
436.16	2583.95
436.34	2628.42
436.53	2719.70
436.72	2719.70
436.90	2590.97
437.09	2621.40
437.28	2686.94
437.46	2647.15
437.65	2619.06
437.84	2789.92
438.02	2712.68
438.21	2801.62
438.40	2738.43
438.58	2881.20
438.77	2946.73
438.96	2829.71
439.14	2846.09
439.33	2904.60
439.52	2932.69
439.70	2965.46
439.89	2953.76
440.08	2949.08
440.26	2979.50
440.45	2923.33
440.63	3089.51
440.82	3129.30
441.01	3061.42
441.19	3002.91
441.38	3152.70
441.57	3220.58
441.75	3180.79
441.94	3293.13
442.12	3253.34
442.31	3192.49
442.50	3335.26
442.68	3225.26
442.87	3346.97
443.05	3379.73
443.24	3337.60
443.43	3318.88
443.61	3375.05
443.80	3588.04
443.98	3258.03
444.17	3115.25
444.35	3346.97
444.54	3400.80
444.73	3344.63
444.91	3339.94
445.10	3447.61
445.28	3438.25
445.47	3372.71
445.65	3365.69
445.84	3461.65
446.02	3431.23
446.21	3297.81
446.39	3410.16
446.58	3646.55
446.77	3515.48
446.95	3435.91
447.14	3447.61
447.32	3592.72
447.51	3515.48
447.69	3513.14
447.88	3435.91
448.06	3421.86
448.25	3653.58
448.43	3574.00
448.62	3531.87
448.80	3508.46
448.99	3609.11
449.17	3454.63
449.36	3590.38
449.54	3662.94
449.73	3684.00
449.91	3747.20
450.10	3693.37
450.28	3712.09
450.46	3597.40
450.65	3665.28
450.83	3868.91
451.02	3735.50
451.20	3744.86
451.39	3763.58
451.57	3721.45
451.76	3674.64
451.94	3737.84
452.13	3976.57
452.31	3908.69
452.49	3709.75
452.68	3857.20
452.86	3817.41
453.05	3997.64
453.23	3922.74
453.42	3915.72
453.60	3833.80
453.78	3782.31
453.97	3803.37
454.15	3939.12
454.34	3946.14
454.52	3838.48
454.70	3864.22
454.89	4056.15
455.07	3946.14
455.26	3988.27
455.44	4276.16
455.62	4023.38
455.81	3943.80
455.99	4133.39
456.17	4109.98
456.36	4084.23
456.54	4184.88
456.73	4252.75
456.91	4353.40
457.09	4231.69
457.28	4322.97
457.46	4102.96
457.64	4388.50
457.83	4201.26
458.01	4402.55
458.19	4304.25
458.38	4351.06
458.56	4493.83
458.74	4250.41
458.93	4428.29
459.11	4327.65
459.29	4395.53
459.48	4379.14
459.66	4458.72
459.84	4491.49
460.03	4493.83
460.21	4519.57
460.39	4498.51
460.57	4535.96
460.76	4517.23
460.94	4615.54
461.12	4533.62
461.31	4533.62
461.49	4463.40
461.67	4615.54
461.85	4716.18
462.04	4753.63
462.22	4774.69
462.40	4788.74
462.59	4716.18
462.77	4809.80
462.95	4753.63
463.13	4732.56
463.32	4755.97
463.50	4957.25
463.68	4770.01
463.86	4851.93
464.05	4706.82
464.23	4781.71
464.41	4870.65
464.59	4652.98
464.78	5018.11
464.96	4894.06
465.14	4828.53
465.32	5018.11
465.50	5008.75
465.69	5053.22
465.87	4833.21
466.05	4954.91
466.23	4929.17
466.41	4933.85
466.60	5224.08
466.78	5013.43
466.96	5153.86
467.14	5174.92
467.32	5165.56
467.51	5046.20
467.69	5025.13
467.87	5207.69
468.05	5226.42
468.23	5130.45
468.41	5034.49
468.60	5298.97
468.78	5275.57
468.96	5291.95
469.14	5317.70
469.32	5233.44
469.50	5111.73
469.69	5458.13
469.87	5268.55
470.05	5474.51
470.23	5518.98
470.41	5355.15
470.59	5427.70
470.77	5401.96
470.95	5416.00
471.14	5547.07
471.32	5476.85
471.50	5614.95
471.68	5490.90
471.86	5551.75
472.04	5626.65
472.22	5680.48
472.40	5504.94
472.58	5902.83
472.77	5680.48
472.95	5914.53
473.13	5790.49
473.31	5668.78
473.49	5699.20
473.67	5898.15
473.85	6033.90
474.03	5893.47
474.21	6012.84
474.39	6057.31
474.57	6064.33
474.75	6132.20
474.93	6139.23
475.12	6179.01
475.30	6174.33
475.48	6162.63
475.66	6279.66
475.84	6258.59
476.02	6242.21
476.20	6296.04
476.38	6279.66
476.56	6719.68
476.74	6551.16
476.92	6541.80
477.10	6476.26
477.28	6581.59
477.46	6455.20
477.64	6846.07
477.82	6782.87
478.00	6794.58
478.18	7047.35
478.36	6902.24
478.54	7096.50
478.72	7101.19
478.90	7145.66
479.08	7164.38
479.26	7176.08
479.44	7204.17
479.62	7246.30
479.80	7396.09
479.98	7522.48
480.16	7623.12
480.34	7461.63
480.52	7590.36
480.70	7583.34
480.88	7564.61
481.06	7478.01
481.24	7826.75
481.41	7878.24
481.59	7925.05
481.77	7981.23
481.95	7901.65
482.13	8042.08
482.31	7978.89
482.49	8128.68
482.67	8042.08
482.85	8348.69
483.03	8287.84
483.21	8540.61
483.39	8446.99
483.57	8676.37
483.74	8468.06
483.92	8678.71
484.10	8648.28
484.28	8828.50
484.46	8908.08
484.64	9174.90
484.82	9076.60
485.00	9048.51
485.18	9493.21
485.35	9533.00
485.53	9242.78
485.71	9205.33
485.89	9820.89
486.07	9614.92
486.25	9605.56
486.43	9727.27
486.61	9614.92
486.78	9975.36
486.96	9963.66
487.14	9898.13
487.32	10017.49
487.50	10155.58
487.68	10363.89
487.85	10338.15
488.03	10354.53
488.21	10637.73
488.39	10696.25
488.57	10478.58
488.75	10710.29
488.92	10668.16
489.10	10895.19
489.28	10881.15
489.46	10937.32
489.64	11028.60
489.81	11166.70
489.99	11000.52
490.17	11201.80
490.35	11611.40
490.53	11508.41
490.70	11492.03
490.88	11520.12
491.06	11543.52
491.24	11836.09
491.41	11613.74
491.59	11932.05
491.77	12093.55
491.95	12264.41
492.13	12056.10
492.30	12276.11
492.48	12175.47
492.66	12416.54
492.84	12081.85
493.01	12428.24
493.19	12540.59
493.37	12807.41
493.54	12496.12
493.72	12734.85
493.90	12758.26
494.08	12905.71
494.25	13163.17
494.43	13224.03
494.61	13224.03
494.79	13172.54
494.96	13427.65
495.14	13341.05
495.32	13294.24
495.49	13378.50
495.67	13432.33
495.85	13881.72
496.02	13788.10
496.20	13872.36
496.38	13783.41
496.55	13907.46
496.73	14022.15
496.91	13947.25
497.09	14267.91
497.26	14569.83
497.44	14265.57
497.62	14286.63
497.79	14609.62
497.97	14438.76
498.14	14560.47
498.32	14679.84
498.50	14773.46
498.67	14927.94
498.85	14820.27
499.03	14684.52
499.20	15028.58
499.38	15023.90
499.56	15250.93
499.73	15288.38
499.91	15190.08
500.08	15351.57
500.26	15386.68
500.44	15255.61
500.61	15538.82
500.79	15424.13
500.97	15440.51
501.14	15658.18
501.32	15758.83
501.49	15786.91
501.67	15552.86
501.84	15728.40
502.02	15768.19
502.20	16173.10
502.37	16194.17
502.55	16105.23
502.72	16226.93
502.90	16058.42
503.07	15946.07
503.25	16116.93
503.43	16107.57
503.60	16081.82
503.78	16163.74
503.95	16308.85
504.13	16446.94
504.30	16608.44
504.48	16552.27
504.65	16657.59
504.83	16812.07
505.01	16840.15
505.18	16622.48
505.36	17055.48
505.53	16774.62
505.71	17039.10
505.88	17156.13
506.06	17022.72
506.23	17048.46
506.41	17083.57
506.58	17092.93
506.76	17336.35
506.93	17530.61
507.11	17198.26
507.28	17708.49
507.46	17380.82
507.63	17797.43
507.81	17694.45
507.98	17586.79
508.16	17575.08
508.33	17635.94
508.50	18029.15
508.68	18071.28
508.85	17881.69
509.03	18157.88
509.20	18244.48
509.38	18118.09
509.55	18356.82
509.73	18562.79
509.90	18043.19
510.08	18064.25
510.25	18398.95
510.42	18452.78
510.60	18363.84
510.77	18525.34
510.95	18618.96
511.12	18785.14
511.30	18630.66
511.47	18562.79
511.64	18635.35
511.82	18895.14
511.99	18904.51
512.17	19000.47
512.34	19061.32
512.51	19410.06
512.69	18923.23
512.86	19154.94
513.04	19351.55
513.21	19297.72
513.38	19417.08
513.56	19573.90
513.73	19431.13
513.90	19400.70
514.08	19494.32
514.25	19461.55
514.43	19726.04
514.60	19491.98
514.77	19812.63
514.95	19548.15
515.12	19702.63
515.29	19716.67
515.47	19955.41
515.64	19892.21
515.81	19843.06
515.99	20072.43
516.16	20100.52
516.33	20093.50
516.51	20187.12
516.68	19850.08
516.85	19901.58
517.03	20187.12
517.20	20343.94
517.37	20779.28
517.54	20559.27
517.72	20489.05
517.89	20603.74
518.06	20514.80
518.24	20615.44
518.41	20582.67
518.58	20877.58
518.75	20458.62
518.93	20664.59
519.10	20592.03
519.27	21025.03
519.45	20854.17
519.62	20702.04
519.79	20919.71
519.96	20868.22
520.14	21298.88
520.31	21015.67
520.48	21341.00
520.65	21013.33
520.83	21338.66
521.00	21207.59
521.17	21268.45
521.34	21366.75
521.52	21303.56
521.69	21521.23
521.86	21256.75
522.03	21556.33
522.20	21809.11
522.38	21696.77
522.55	21549.31
522.72	21827.84
522.89	21589.10
523.07	21986.99
523.24	22092.32
523.41	22403.61
523.58	21666.34
523.75	21825.50
523.92	22127.42
524.10	21944.86
524.27	22085.30
524.44	22246.79
524.61	22333.39
524.78	22307.65
524.96	22441.06
525.13	22328.71
525.30	22398.93
525.47	22436.38
525.64	22508.93
525.81	22679.79
525.98	22340.41
526.16	22656.39
526.33	22377.86
526.50	22803.84
526.67	22466.80
526.84	22302.96
527.01	22757.03
527.18	22970.02
527.36	22794.48
527.53	22993.42
527.70	22958.31
527.87	23365.57
528.04	23087.04
528.21	23068.32
528.38	23285.99
528.55	23241.52
528.72	23295.35
528.89	23211.09
529.07	23285.99
529.24	23426.42
529.41	23232.16
529.58	23068.32
529.75	23307.05
529.92	23576.22
530.09	23623.03
530.26	23747.08
530.43	23623.03
530.60	23440.47
530.77	23424.08
530.94	24020.92
531.11	23648.77
531.28	23541.11
531.46	23716.65
531.63	23866.44
531.80	23917.93
531.97	23864.10
532.14	23974.11
532.31	23796.23
532.48	24102.84
532.65	24100.50
532.82	23810.27
532.99	24147.31
533.16	24236.25
533.33	24409.45
533.50	24077.09
533.67	24049.00
533.84	24325.19
534.01	24425.83
534.18	24114.54
534.35	24547.54
534.52	24243.27
534.69	24318.17
534.86	24650.52
535.03	24535.84
535.20	24364.98
535.37	24929.05
535.54	24491.37
535.71	24580.31
535.88	24467.96
536.05	24746.48
536.22	24861.17
536.38	24936.07
536.55	24837.76
536.72	24961.81
536.89	24879.89
537.06	24886.92
537.23	24964.15
537.40	24594.35
537.57	24847.13
537.74	24713.72
537.91	25415.88
538.08	25102.25
538.25	25125.65
538.42	25378.43
538.59	25200.55
538.75	24905.64
538.92	25465.03
539.09	25165.44
539.26	24952.45
539.43	25434.60
539.60	25390.13
539.77	25043.73
539.94	25401.83
540.11	25305.87
540.28	25380.77
540.44	25195.87
540.61	25214.59
540.78	25256.72
540.95	25472.05
541.12	25703.76
541.29	25785.68
541.46	25844.20
541.62	25731.85
541.79	25771.64
541.96	25296.51
542.13	25577.37
542.30	26073.57
542.47	26061.87
542.63	26246.77
542.80	26178.89
542.97	26242.09
543.14	26623.59
543.31	25975.27
543.48	25811.43
543.64	25963.56
543.81	26506.57
543.98	26066.55
544.15	26391.88
544.32	26244.43
544.48	26373.16
544.65	26263.15
544.82	26415.29
544.99	26202.30
545.16	26359.11
545.32	26686.79
545.49	26464.44
545.66	26438.69
545.83	26597.85
546.00	26733.60
546.16	26609.55
546.33	26597.85
546.50	26384.86
546.67	26560.40
546.83	26279.54
547.00	26892.76
547.17	26768.71
547.34	26441.03
547.50	26834.24
547.67	27054.25
547.84	26815.52
548.00	26506.57
548.17	27103.40
548.34	27051.91
548.51	27264.90
548.67	27302.35
548.84	27260.22
549.01	27248.52
549.18	26951.27
549.34	26941.91
549.51	26888.07
549.68	27028.51
549.84	26785.09
550.01	27096.38
550.18	27096.38
550.34	27344.48
550.51	27349.16
550.68	27414.69
550.84	27105.74
551.01	27307.03
551.18	27094.04
551.34	27330.44
551.51	27248.52
551.68	27363.20
551.84	27522.36
552.01	27424.06
552.18	27370.22
552.34	27246.18
552.51	27679.18
552.68	27400.65
552.84	27447.46
553.01	27665.13
553.18	27346.82
553.34	27868.76
553.51	27709.60
553.67	27920.25
553.84	28084.09
554.01	28158.99
554.17	27615.98
554.34	27992.81
554.51	27683.86
554.67	27957.70
554.84	27754.07
555.00	28247.93
555.17	27964.72
555.33	28018.55
555.50	27733.01
555.67	27824.29
555.83	27889.82
556.00	28222.18
556.16	27864.08
556.33	28371.97
556.50	27714.28
556.66	28318.14
556.83	28044.30
556.99	28400.06
557.16	28371.97
557.32	28077.07
557.49	28493.68
557.65	28016.21
557.82	28301.76
557.98	28180.05
558.15	28397.72
558.32	28266.65
558.48	28458.57
558.65	28432.83
558.81	28669.22
558.98	28379.00
559.14	28676.24
559.31	28154.30
559.47	28463.25
559.64	28388.36
559.80	28566.24
559.97	28341.55
560.13	28465.60
560.30	28400.06
560.46	28814.34
560.63	28664.54
560.79	28779.23
560.96	28547.51
561.12	28566.24
561.29	28641.14
561.45	28582.62
561.61	28907.96
561.78	28472.62
561.94	28687.95
562.11	28800.29
562.27	28685.61
562.44	28594.32
562.60	28552.20
562.77	28549.85
562.93	28631.77
563.10	28704.33
563.26	28556.88
563.42	29048.39
563.59	28709.01
563.75	28968.81
563.92	29071.79
564.08	28711.35
564.24	28652.84
564.41	28933.70
564.57	28886.89
564.74	28996.90
564.90	28606.03
565.07	29193.50
565.23	28980.51
565.39	28800.29
565.56	28973.49
565.72	29120.95
565.88	29273.08
566.05	28463.25
566.21	29050.73
566.38	28823.70
566.54	28863.49
566.70	29347.98
566.87	29282.44
567.03	28741.78
567.19	29486.07
567.36	29092.86
567.52	28952.43
567.68	28746.46
567.85	28989.88
568.01	29457.98
568.17	29310.53
568.34	29177.12
568.50	29448.62
568.66	29439.26
568.83	29237.97
568.99	29170.10
569.15	29209.89
569.32	28994.56
569.48	29083.50
569.64	29343.30
569.81	29027.32
569.97	29469.69
570.13	29193.50
570.30	29064.77
570.46	29352.66
570.62	29383.09
570.78	29060.09
570.95	29254.36
571.11	29596.07
571.27	29043.71
571.43	29174.78
571.60	29408.83
571.76	29207.55
571.92	29488.41
572.09	29399.47
572.25	29188.82
572.41	29336.27
572.57	29275.42
572.74	29198.18
572.90	29284.78
573.06	29336.27
573.22	28889.23
573.38	28980.51
573.55	29006.26
573.71	29610.12
573.87	29530.54
574.03	29352.66
574.20	29336.27
574.36	29074.13
574.52	29706.08
574.68	29345.64
574.84	29352.66
575.01	29450.96
575.17	29305.85
575.33	29256.70
575.49	29497.77
575.65	29935.45
575.82	29776.30
575.98	29465.00
576.14	29511.81
576.30	29170.10
576.46	29635.86
576.62	29560.97
576.79	29387.77
576.95	29507.13
577.11	29586.71
577.27	29242.65
577.43	29837.15
577.59	29638.20
577.75	29511.81
577.92	29488.41
578.08	29336.27
578.24	29436.92
578.40	29345.64
578.56	29305.85
578.72	29549.26
578.88	29867.58
579.04	29965.88
579.21	29703.74
579.37	29572.67
579.53	29689.70
579.69	29788.00
579.85	29738.85
580.01	29544.58
580.17	29441.60
580.33	29457.98
580.49	29596.07
580.65	29720.12
580.82	29607.78
580.98	29748.21
581.14	29502.45
581.30	29661.61
581.46	29422.87
581.62	29172.44
581.78	29598.41
581.94	29413.51
582.10	29376.06
582.26	29584.37
582.42	29656.93
582.58	29565.65
582.74	29715.44
582.90	29647.57
583.06	29677.99
583.22	29675.65
583.38	29336.27
583.54	29844.17
583.70	29605.44
583.86	29771.61
584.02	29692.04
584.18	29963.54
584.34	29968.22
584.50	29553.94
584.66	29752.89
584.82	29359.68
584.98	29731.83
585.14	29670.97
585.30	29319.89
585.46	29411.17
585.62	29589.05
585.78	29823.11
585.94	29558.63
586.10	29741.19
586.26	29820.77
586.42	29991.62
586.58	29881.62
586.74	30036.09
586.90	29406.49
587.06	29654.59
587.22	29312.87
587.38	29879.28
587.54	30120.35
587.70	29921.41
587.86	29804.38
588.02	30094.61
588.18	30218.66
588.34	30078.22
588.49	29612.46
588.65	29457.98
588.81	29577.35
588.97	29600.76
589.13	29797.36
589.29	29663.95
589.45	29928.43
589.61	30008.01
589.77	30438.67
589.93	29682.67
590.08	30256.11
590.24	29993.97
590.40	30263.13
590.56	30197.59
590.72	29937.79
590.88	29961.20
591.04	29741.19
591.20	30281.85
591.35	30223.34
591.51	30424.62
591.67	30345.05
591.83	30567.40
591.99	30059.50
592.15	30246.74
592.31	29968.22
592.46	30075.88
592.62	29788.00
592.78	29890.98
592.94	29823.11
593.10	30110.99
593.26	29965.88
593.41	30492.50
593.57	30132.06
593.73	30469.09
593.89	30309.94
594.05	29954.18
594.20	29680.33
594.36	30352.07
594.52	30235.04
594.68	30005.67
594.84	29869.92
594.99	30284.19
595.15	30183.55
595.31	30061.84
595.47	30511.22
595.62	30286.53
595.78	30022.05
595.94	30022.05
596.10	30375.47
596.25	29893.32
596.41	30230.36
596.57	30192.91
596.73	30167.16
596.88	30139.08
597.04	30181.21
597.20	30218.66
597.36	30476.12
597.51	30689.10
597.67	30066.52
597.83	30026.73
597.99	30326.32
598.14	30059.50
598.30	30157.80
598.46	30127.38
598.61	30295.89
598.77	29888.64
598.93	30223.34
599.09	30293.55
599.24	30796.77
599.40	30417.60
599.56	30429.30
599.71	30515.90
599.87	30242.06
600.03	30415.26
600.18	30270.15
600.34	30071.20
600.50	30160.14
600.65	29970.56
600.81	30106.31
600.97	30424.62
601.12	30611.87
601.28	30176.53
601.44	30588.46
601.59	30476.12
601.75	30244.40
601.91	30553.35
602.06	30682.08
602.22	30417.60
602.37	29977.58
602.53	30118.01
602.69	30307.60
602.84	30611.87
603.00	30342.70
603.16	30728.89
603.31	30199.93
603.47	30368.45
603.62	30185.89
603.78	30251.42
603.94	30328.66
604.09	30024.39
604.25	30113.33
604.40	30637.61
604.56	30295.89
604.71	30450.37
604.87	30216.32
605.03	30553.35
605.18	30361.43
605.34	30244.40
605.49	30216.32
605.65	30099.29
605.80	30110.99
605.96	30043.12
606.12	29811.40
606.27	30169.51
606.43	30143.76
606.58	30625.91
606.74	30391.86
606.89	30326.32
607.05	30239.72
607.20	30525.27
607.36	30527.61
607.51	30096.95
607.67	29649.91
607.82	30029.07
607.98	29834.81
608.13	30331.00
608.29	30015.03
608.44	30242.06
608.60	29989.28
608.75	30429.30
608.91	30543.99
609.06	30455.05
609.22	30134.40
609.37	29518.84
609.53	30338.02
609.68	30125.04
609.84	30073.54
609.99	29879.28
610.15	30106.31
610.30	30188.23
610.46	30066.52
610.61	29748.21
610.76	30015.03
610.92	30054.82
611.07	29940.13
611.23	29495.43
611.38	29631.18
611.54	29881.62
611.69	30075.88
611.84	30132.06
612.00	29839.49
612.15	29483.73
612.31	30375.47
612.46	30129.72
612.62	30043.12
612.77	29972.90
612.92	30356.75
613.08	29462.66
613.23	30064.18
613.39	29450.96
613.54	29652.25
613.69	29614.80
613.85	29472.03
614.00	29647.57
614.15	29951.84
614.31	29776.30
614.46	29949.50
614.62	29783.32
614.77	29565.65
614.92	29783.32
615.08	29830.13
615.23	29682.67
615.38	29373.72
615.54	29397.13
615.69	29362.02
615.84	29553.94
616.00	29425.22
616.15	29830.13
616.30	29865.24
616.46	29584.37
616.61	29460.32
616.76	29668.63
616.92	29507.13
617.07	29610.12
617.22	29315.21
617.37	29373.72
617.53	29493.09
617.68	29275.42
617.83	29209.89
617.99	29099.88
618.14	29549.26
618.29	29172.44
618.45	29256.70
618.60	29032.00
618.75	29268.40
618.90	29219.25
619.06	29546.92
619.21	29352.66
619.36	29525.86
619.51	29373.72
619.67	29406.49
619.82	29022.64
619.97	29074.13
620.12	29266.06
620.28	29170.10
620.43	29134.99
620.58	29537.56
620.73	29390.11
620.89	29111.58
621.04	29275.42
621.19	29235.63
621.34	29362.02
621.49	28868.17
621.65	28992.22
621.80	29085.84
621.95	29029.66
622.10	29003.92
622.25	29020.30
622.41	28804.97
622.56	28699.65
622.71	29095.20
622.86	28797.95
623.01	28830.72
623.16	28868.17
623.32	28837.74
623.47	29074.13
623.62	28959.45
623.77	28912.64
623.92	28716.03
624.07	28856.46
624.23	28748.80
624.38	28940.72
624.53	28584.96
624.68	28685.61
624.83	28734.76
624.98	28559.22
625.13	28793.27
625.29	28903.28
625.44	28802.63
625.59	28409.42
625.74	28484.32
625.89	28514.75
626.04	28432.83
626.19	28456.23
626.34	28388.36
626.49	28198.77
626.65	28416.44
626.80	28643.48
626.95	28224.52
627.10	28098.13
627.25	28374.31
627.40	28486.66
627.55	28306.44
627.70	28119.20
627.85	28247.93
628.00	28278.35
628.15	27976.42
628.30	28456.23
628.45	27943.66
628.60	28112.17
628.76	28397.72
628.91	28161.33
629.06	28304.10
629.21	28278.35
629.36	28177.71
629.51	27697.90
629.66	27955.36
629.81	28266.65
629.96	27672.15
630.11	27718.96
630.26	27903.87
630.41	28175.37
630.56	28126.22
630.71	27779.82
630.86	27988.13
631.01	27983.44
631.16	28161.33
631.31	28212.82
631.46	27814.93
631.61	28142.60
631.76	27548.11
631.91	27651.09
632.06	27618.32
632.21	27594.92
632.36	27604.28
632.51	27573.85
632.66	27662.79
632.81	27328.10
632.96	27775.14
633.10	27903.87
633.25	28067.70
633.40	27725.99
633.55	27522.36
633.70	27236.81
633.85	27637.05
634.00	27356.18
634.15	27328.10
634.30	27435.76
634.45	27557.47
634.60	27438.10
634.75	27452.14
634.90	27789.18
635.05	27910.89
635.19	27388.95
635.34	27695.56
635.49	27414.69
635.64	27468.53
635.79	27250.86
635.94	27571.51
636.09	27536.40
636.24	27304.69
636.39	27257.88
636.53	27274.26
636.68	26965.31
636.83	27267.24
636.98	27367.88
637.13	27239.15
637.28	27449.80
637.43	27498.95
637.57	27269.58
637.72	27206.39
637.87	27421.72
638.02	27080.00
638.17	27515.34
638.32	26993.40
638.46	26925.52
638.61	26817.86
638.76	26920.84
638.91	26977.01
639.06	26721.90
639.20	27108.08
639.35	27124.47
639.50	27246.18
639.65	26998.08
639.80	27105.74
639.94	27159.58
640.09	26881.05
640.24	27089.36
640.39	26817.86
640.54	26759.34
640.68	26754.66
640.83	26719.56
640.98	26597.85
641.13	26515.93
641.27	27021.48
641.42	26941.91
641.57	26726.58
641.72	27002.76
641.86	26471.46
642.01	26211.66
642.16	26661.04
642.31	26202.30
642.45	26785.09
642.60	26733.60
642.75	26368.48
642.90	26424.65
643.04	26555.72
643.19	26143.78
643.34	26391.88
643.48	26230.38
643.63	26450.39
643.78	26504.23
643.93	26686.79
644.07	26565.08
644.22	26382.52
644.37	26572.10
644.51	26244.43
644.66	26429.33
644.81	26459.76
644.95	26214.00
645.10	26061.87
645.25	26265.49
645.39	26380.18
645.54	26080.59
645.69	25738.87
645.83	26115.70
645.98	26431.67
646.13	26501.89
646.27	26609.55
646.42	26621.25
646.57	26354.43
646.71	25986.97
646.86	26242.09
647.00	26284.22
647.15	26324.01
647.30	26155.49
647.44	25802.07
647.59	25914.41
647.74	25811.43
647.88	25975.27
648.03	26307.62
648.17	26015.05
648.32	26113.36
648.47	26047.82
648.61	25715.47
648.76	26155.49
648.90	26281.88
649.05	26078.25
649.20	25696.74
649.34	25820.79
649.49	25900.37
649.63	25572.69
649.78	25558.65
649.92	26012.71
650.07	26038.46
650.21	25663.97
650.36	25579.71
650.51	25682.70
650.65	25823.13
650.80	25963.56
650.94	25947.18
651.09	25628.87
651.23	25659.29
651.38	25687.38
651.52	25631.21
651.67	25659.29
651.81	25692.06
651.96	25923.77
652.10	25413.54
652.25	25701.42
652.39	25708.44
652.54	25738.87
652.68	25813.77
652.83	25436.94
652.97	25766.96
653.12	25441.62
653.26	25560.99
653.41	25671.00
653.55	25357.36
653.70	25172.46
653.84	25209.91
653.99	25785.68
654.13	25109.27
654.27	25415.88
654.42	25062.46
654.56	25149.06
654.71	25411.20
654.85	25254.38
655.00	25223.95
655.14	25032.03
655.29	25544.61
655.43	25275.45
655.57	25277.79
655.72	25193.53
655.86	25106.93
656.01	25586.74
656.15	24624.78
656.30	24978.20
656.44	25165.44
656.58	24854.15
656.73	25207.57
656.87	25104.59
657.01	25069.48
657.16	25230.98
657.30	25186.50
657.45	25020.33
657.59	24947.77
657.73	24772.23
657.88	24938.41
658.02	25076.50
658.16	25010.96
658.31	24774.57
658.45	24357.96
658.60	24301.78
658.74	24566.26
658.88	24823.72
659.03	24531.15
659.17	24840.11
659.31	24716.06
659.46	24823.72
659.60	24683.29
659.74	25013.31
659.89	24680.95
660.03	24566.26
660.17	24449.24
660.32	24294.76
660.46	24065.39
660.60	24056.03
660.74	24325.19
660.89	24500.73
661.03	24142.63
661.17	24187.10
661.32	23939.00
661.46	24449.24
661.60	24107.52
661.74	24269.01
661.89	24467.96
662.03	24142.63
662.17	24210.50
662.31	23618.35
662.46	24294.76
662.60	24114.54
662.74	23623.03
662.88	23679.20
663.03	23726.01
663.17	23765.80
663.31	23726.01
663.45	23587.92
663.60	23613.66
663.74	23501.32
663.88	23716.65
664.02	23477.91
664.17	23847.72
664.31	23494.30
664.45	23637.07
664.59	23587.92
664.73	23459.19
664.88	23503.66
665.02	23316.42
665.16	23175.98
665.30	23248.54
665.44	23323.44
665.59	23049.60
665.73	23056.62
665.87	23178.33
666.01	23407.70
666.15	23150.24
666.29	23180.67
666.44	23070.66
666.58	22796.82
666.72	23168.96
666.86	22998.10
667.00	23061.30
667.14	23129.17
667.28	22721.92
667.43	22906.82
667.57	22860.01
667.71	22373.18
667.85	22628.30
667.99	22712.56
668.13	22567.45
668.27	22991.08
668.41	22815.54
668.56	22569.79
668.70	22450.42
668.84	22970.02
668.98	22672.77
669.12	22838.95
669.26	22422.33
669.40	22497.23
669.54	22527.66
669.68	22293.60
669.82	22518.29
669.96	22017.42
670.10	22263.18
670.25	22314.67
670.39	21991.67
670.53	22148.49
670.67	22019.76
670.81	22064.23
670.95	21951.88
671.09	22005.72
671.23	22089.98
671.37	22054.87
671.51	22139.13
671.65	22127.42
671.79	21935.50
671.93	21624.21
672.07	21575.06
672.21	21790.39
672.35	21537.61
672.49	21399.52
672.63	21551.65
672.77	21352.71
672.91	21577.40
673.05	21282.49
673.19	21446.33
673.33	21352.71
673.47	21294.19
673.61	21589.10
673.75	21188.87
673.89	21310.58
674.03	21153.76
674.17	21013.33
674.31	21280.15
674.45	20966.52
674.59	21022.69
674.73	21020.35
674.87	21146.74
675.01	20915.03
675.15	20814.38
675.29	20725.44
675.43	20982.90
675.56	20783.96
675.70	20858.85
675.84	20631.82
675.98	20269.04
676.12	20870.56
676.26	20844.81
676.40	20858.85
676.54	20999.29
676.68	20589.69
676.82	19978.81
676.96	19950.73
677.10	20240.95
677.23	19880.51
677.37	19974.13
677.51	20133.29
677.65	19653.48
677.79	19882.85
677.93	19702.63
678.07	19707.31
678.21	19534.11
678.34	19623.05
678.48	19648.80
678.62	19587.94
678.76	19503.68
678.90	19424.11
679.04	19253.25
679.18	19374.95
679.31	19014.51
679.45	19037.92
679.59	19042.60
679.73	18974.72
679.87	19035.58
680.00	18864.72
680.14	18944.30
680.28	18785.14
680.42	18820.25
680.56	19016.85
680.70	18611.94
680.83	18799.18
680.97	18630.66
681.11	18546.40
681.25	18637.69
681.39	18752.37
681.52	18602.58
681.66	18523.00
681.80	18429.38
681.94	18097.02
682.07	18492.57
682.21	17752.96
682.35	18120.43
682.49	17839.56
682.62	18003.40
682.76	17664.02
682.90	17748.28
683.04	17893.40
683.17	17542.32
683.31	17523.59
683.45	17738.92
683.59	17605.51
683.72	17680.41
683.86	17547.00
684.00	17469.76
684.13	17605.51
684.27	17554.02
684.41	17315.28
684.55	17104.64
684.68	16938.46
684.82	16842.50
684.96	16924.41
685.09	16919.73
685.23	16882.28
685.37	16856.54
685.50	16954.84
685.64	17057.82
685.78	16727.81
685.91	17074.21
686.05	16727.81
686.19	16624.83
686.32	16805.05
686.46	16482.05
686.60	16456.31
686.73	16531.20
686.87	16451.63
687.01	16379.07
687.14	16105.23
687.28	16044.37
687.42	16278.43
687.55	15964.79
687.69	15866.49
687.82	15913.30
687.96	15950.75
688.10	15864.15
688.23	15889.90
688.37	15735.42
688.50	16020.97
688.64	15763.51
688.78	15716.70
688.91	15475.62
689.05	15304.76
689.18	15414.77
689.32	15276.68
689.46	15372.64
689.59	15414.77
689.73	15534.14
689.86	15272.00
690.00	15145.61
690.13	15180.71
690.27	15154.97
690.41	15108.16
690.54	15213.48
690.68	15122.20
690.81	14860.06
690.95	14953.68
691.08	14813.25
691.22	14930.28
691.35	14693.88
691.49	14710.27
691.62	14827.29
691.76	14415.36
691.89	14633.03
692.03	14157.90
692.16	14075.98
692.30	14118.11
692.43	14155.56
692.57	14136.84
692.70	14033.85
692.84	13884.06
692.97	13984.70
693.11	13940.23
693.24	13980.02
693.38	13958.96
693.51	13851.29
693.65	13701.50
693.78	13509.57
693.92	13617.24
694.05	13811.50
694.19	13532.98
694.32	13102.32
694.45	13329.35
694.59	13474.46
694.72	13202.96
694.86	13205.30
694.99	13135.09
695.13	13006.36
695.26	12966.57
695.39	13013.38
695.53	12966.57
695.66	12889.33
695.80	13027.42
695.93	13198.28
696.07	13121.04
696.20	12784.01
696.33	12699.75
696.47	12868.27
696.60	12711.45
696.73	12851.88
696.87	12596.76
697.00	12688.04
697.14	12461.01
697.27	12112.27
697.40	12264.41
697.54	12397.82
697.67	11969.50
697.80	12161.42
697.94	11995.25
698.07	12002.27
698.21	12018.65
698.34	11995.25
698.47	11824.39
698.61	11939.07
698.74	11995.25
698.87	11962.48
699.01	11580.97
699.14	11779.92
699.27	11447.56
699.40	11618.42
699.54	11676.93
699.67	11587.99
699.80	11435.86
699.94	11590.33
700.07	11290.74
700.20	11171.38
700.34	11103.50
700.47	10958.39
700.60	11304.79
700.73	11077.76
700.87	11033.29
701.00	11000.52
701.13	11112.86
701.26	10794.55
701.40	11164.36
701.53	10794.55
701.66	11005.20
701.79	10721.99
701.93	10689.23
702.06	10565.18
702.19	10661.14
702.32	10740.72
702.46	10289.00
702.59	10457.51
702.72	10408.36
702.85	10359.21
702.99	10434.11
703.12	10101.75
703.25	10272.61
703.38	10281.97
703.51	10181.33
703.65	10061.96
703.78	10076.01
703.91	10113.45
704.04	9984.73
704.17	10134.52
704.31	9942.60
704.44	9928.55
704.57	9785.78
704.70	9703.86
704.83	9891.10
704.96	9666.41
705.10	9518.96
705.23	9476.83
>>>>>End Processed Spectral Data<<<<<
