SpectraSuite Data File
++++++++++++++++++++++++++++++++++++
Date: Fri Oct 18 13:58:34 GMT-05:00 2013
User: bianchi
Dark Spectrum Present: No
Reference Spectrum Present: No
Number of Sampled Component Spectra: 1
Spectrometers: USB2+H05261
Integration Time (usec): 50000 (USB2+H05261)
Spectra Averaged: 1 (USB2+H05261)
Boxcar Smoothing: 0 (USB2+H05261)
Correct for Electrical Dark: No (USB2+H05261)
Strobe/Lamp Enabled: No (USB2+H05261)
Correct for Detector Non-linearity: No (USB2+H05261)
Correct for Stray Light: No (USB2+H05261)
Number of Pixels in Processed Spectrum: 2048
>>>>>Begin Processed Spectral Data<<<<<
365.73	0.00
365.92	0.00
366.12	0.00
366.32	0.00
366.52	0.00
366.72	0.00
366.91	0.00
367.11	0.00
367.31	0.00
367.51	0.00
367.70	0.00
367.90	0.00
368.10	0.00
368.30	0.00
368.49	0.00
368.69	0.00
368.89	0.00
369.09	0.00
369.28	0.00
369.48	0.00
369.68	0.00
369.87	0.00
370.07	0.00
370.27	0.00
370.47	0.00
370.66	74.90
370.86	112.35
371.06	86.60
371.25	159.16
371.45	133.41
371.65	156.82
371.84	161.50
372.04	145.11
372.24	201.29
372.44	236.39
372.63	180.22
372.83	308.95
373.03	189.58
373.22	203.63
373.42	187.24
373.62	287.89
373.81	252.78
374.01	236.39
374.21	175.54
374.40	234.05
374.60	252.78
374.79	292.57
374.99	301.93
375.19	250.44
375.38	257.46
375.58	184.90
375.78	292.57
375.97	308.95
376.17	262.14
376.37	203.63
376.56	315.97
376.76	248.10
376.95	262.14
377.15	257.46
377.35	220.01
377.54	250.44
377.74	285.55
377.93	238.73
378.13	290.23
378.33	313.63
378.52	276.18
378.72	271.50
378.91	304.27
379.11	297.25
379.31	238.73
379.50	257.46
379.70	390.87
379.89	285.55
380.09	229.37
380.28	372.15
380.48	346.40
380.68	212.99
380.87	285.55
381.07	276.18
381.26	330.02
381.46	383.85
381.65	376.83
381.85	386.19
382.04	269.16
382.24	327.68
382.43	330.02
382.63	337.04
382.83	337.04
383.02	407.25
383.22	386.19
383.41	341.72
383.61	344.06
383.80	369.80
384.00	353.42
384.19	313.63
384.39	337.04
384.58	344.06
384.78	334.70
384.97	449.38
385.17	381.51
385.36	430.66
385.56	425.98
385.75	315.97
385.95	355.76
386.14	400.23
386.34	374.49
386.53	299.59
386.72	344.06
386.92	444.70
387.11	383.85
387.31	425.98
387.50	346.40
387.70	470.45
387.89	449.38
388.09	409.59
388.28	416.62
388.48	390.87
388.67	573.43
388.86	430.66
389.06	451.72
389.25	435.34
389.45	402.57
389.64	444.70
389.84	442.36
390.03	367.46
390.22	451.72
390.42	472.79
390.61	547.69
390.81	503.22
391.00	524.28
391.19	500.87
391.39	489.17
391.58	512.58
391.78	519.60
391.97	507.90
392.16	484.49
392.36	538.32
392.55	573.43
392.75	624.92
392.94	507.90
393.13	528.96
393.33	557.05
393.52	617.90
393.71	517.26
393.91	578.11
394.10	526.62
394.29	610.88
394.49	580.45
394.68	585.13
394.88	564.07
395.07	580.45
395.26	596.84
395.46	599.18
395.65	695.14
395.84	638.97
396.04	648.33
396.23	606.20
396.42	631.94
396.62	699.82
396.81	608.54
397.00	667.05
397.19	645.99
397.39	732.59
397.58	732.59
397.77	631.94
397.97	685.78
398.16	753.65
398.35	751.31
398.55	748.97
398.74	688.12
398.93	706.84
399.12	671.73
399.32	732.59
399.51	702.16
399.70	741.95
399.90	805.14
400.09	760.67
400.28	727.91
400.47	774.72
400.67	706.84
400.86	746.63
401.05	809.83
401.24	812.17
401.44	779.40
401.63	791.10
401.82	730.25
402.01	816.85
402.21	835.57
402.40	786.42
402.59	772.38
402.78	837.91
402.97	849.61
403.17	880.04
403.36	880.04
403.55	847.27
403.74	798.12
403.93	866.00
404.13	896.43
404.32	851.96
404.51	940.90
404.70	826.21
404.89	959.62
405.09	917.49
405.28	926.85
405.47	947.92
405.66	936.21
405.85	947.92
406.05	968.98
406.24	976.00
406.43	1001.75
406.62	992.39
406.81	1081.33
407.00	1048.56
407.20	1015.79
407.39	968.98
407.58	1018.13
407.77	961.96
407.96	1034.52
408.15	1039.20
408.34	1102.39
408.54	1048.56
408.73	1062.60
408.92	1011.11
409.11	1153.88
409.30	1149.20
409.49	1053.24
409.68	1111.75
409.87	1160.91
410.07	1100.05
410.26	1217.08
410.45	1069.62
410.64	1221.76
410.83	1261.55
411.02	1184.31
411.21	1308.36
411.40	1308.36
411.59	1224.10
411.78	1240.48
411.98	1308.36
412.17	1247.51
412.36	1245.16
412.55	1247.51
412.74	1334.11
412.93	1263.89
413.12	1306.02
413.31	1420.71
413.50	1341.13
413.69	1371.55
413.88	1366.87
414.07	1526.03
414.26	1343.47
414.45	1500.28
414.64	1519.01
414.83	1570.50
415.02	1474.54
415.22	1401.98
415.41	1472.20
415.60	1591.56
415.79	1575.18
415.98	1577.52
416.17	1629.01
416.36	1568.16
416.55	1516.67
416.74	1521.35
416.93	1715.61
417.12	1664.12
417.31	1661.78
417.50	1678.16
417.69	1760.08
417.88	1713.27
418.07	1661.78
418.26	1757.74
418.45	1743.70
418.64	1708.59
418.83	1769.44
419.02	1769.44
419.21	1790.51
419.39	1727.32
419.58	1806.89
419.77	1820.94
419.96	1935.62
420.15	1909.88
420.34	1834.98
420.53	1949.67
420.72	1914.56
420.91	1942.64
421.10	1914.56
421.29	2001.16
421.48	1867.75
421.67	1839.66
421.86	1914.56
422.05	1966.05
422.24	1949.67
422.43	2050.31
422.61	2073.71
422.80	1919.24
422.99	1909.88
423.18	2050.31
423.37	1921.58
423.56	2029.24
423.75	2022.22
423.94	2111.16
424.13	1970.73
424.32	1870.09
424.50	2050.31
424.69	2104.14
424.88	1987.11
425.07	1998.82
425.26	2003.50
425.45	2026.90
425.64	2104.14
425.83	2057.33
426.01	2136.91
426.20	2085.42
426.39	2040.95
426.58	2015.20
426.77	2099.46
426.96	2036.27
427.15	2054.99
427.33	2115.84
427.52	2132.23
427.71	2115.84
427.90	2087.76
428.09	2160.31
428.28	2167.34
428.46	2104.14
428.65	2293.72
428.84	2193.08
429.03	2340.54
429.22	2200.10
429.40	2317.13
429.59	2263.30
429.78	2134.57
429.97	2200.10
430.16	2157.97
430.34	2338.20
430.53	2242.23
430.72	2291.38
430.91	2340.54
431.10	2225.85
431.28	2363.94
431.47	2385.01
431.66	2455.22
431.85	2345.22
432.03	2525.44
432.22	2525.44
432.41	2464.58
432.60	2415.43
432.79	2499.69
432.97	2450.54
433.16	2462.24
433.35	2408.41
433.54	2614.38
433.72	2443.52
433.91	2567.57
434.10	2544.16
434.28	2495.01
434.47	2459.90
434.66	2487.99
434.85	2502.03
435.03	2700.98
435.22	2738.43
435.41	2750.13
435.59	2693.96
435.78	2623.74
435.97	2696.30
436.16	2686.94
436.34	2623.74
436.53	2757.15
436.72	2684.59
436.90	2637.78
437.09	2733.75
437.28	2677.57
437.46	2698.64
437.65	2621.40
437.84	2722.04
438.02	2731.41
438.21	2818.00
438.40	2768.85
438.58	2890.56
438.77	2773.53
438.96	2986.52
439.14	3019.29
439.33	2909.29
439.52	2895.24
439.70	3112.91
439.89	3028.65
440.08	3005.25
440.26	3052.06
440.45	3052.06
440.63	3117.59
440.82	3110.57
441.01	3108.23
441.19	3141.00
441.38	3183.13
441.57	3236.96
441.75	3251.00
441.94	3332.92
442.12	3428.88
442.31	3361.01
442.50	3274.41
442.68	3353.99
442.87	3300.16
443.05	3393.78
443.24	3424.20
443.43	3431.23
443.61	3349.31
443.80	3382.07
443.98	3417.18
444.17	3220.58
444.35	3428.88
444.54	3346.97
444.73	3440.59
444.91	3492.08
445.10	3555.27
445.28	3363.35
445.47	3363.35
445.65	3323.56
445.84	3482.72
446.02	3456.97
446.21	3440.59
446.39	3543.57
446.58	3494.42
446.77	3517.83
446.95	3419.52
447.14	3480.38
447.32	3538.89
447.51	3496.76
447.69	3419.52
447.88	3637.19
448.06	3447.61
448.25	3459.31
448.43	3679.32
448.62	3499.10
448.80	3609.11
448.99	3590.38
449.17	3744.86
449.36	3646.55
449.54	3641.87
449.73	3676.98
449.91	3616.13
450.10	3541.23
450.28	3695.71
450.46	3721.45
450.65	3630.17
450.83	3602.08
451.02	3754.22
451.20	3681.66
451.39	3836.14
451.57	3758.90
451.76	3653.58
451.94	3922.74
452.13	3772.94
452.31	3875.93
452.49	3974.23
452.68	3803.37
452.86	3864.22
453.05	3761.24
453.23	3936.78
453.42	3934.44
453.60	3833.80
453.78	3857.20
453.97	3906.35
454.15	3953.16
454.34	3990.61
454.52	3932.10
454.70	3953.16
454.89	3967.21
455.07	4124.02
455.26	3992.95
455.44	4053.81
455.62	4135.73
455.81	4070.19
455.99	4100.62
456.17	4250.41
456.36	4234.03
456.54	4219.99
456.73	4308.93
456.91	4311.27
457.09	4283.18
457.28	4362.76
457.46	4184.88
457.64	4379.14
457.83	4404.89
458.01	4318.29
458.19	4409.57
458.38	4379.14
458.56	4449.36
458.74	4393.19
458.93	4477.44
459.11	4519.57
459.29	4365.10
459.48	4367.44
459.66	4344.03
459.84	4491.49
460.03	4620.22
460.21	4535.96
460.39	4526.60
460.57	4514.89
460.76	4685.75
460.94	4688.09
461.12	4674.05
461.31	4575.75
461.49	4652.98
461.67	4498.51
461.85	4718.52
462.04	4755.97
462.22	4802.78
462.40	4795.76
462.59	4690.43
462.77	4620.22
462.95	4858.95
463.13	4901.08
463.32	4739.58
463.50	4863.63
463.68	4812.14
463.86	4814.48
464.05	4837.89
464.23	4755.97
464.41	4929.17
464.59	4865.97
464.78	4926.83
464.96	5015.77
465.14	4898.74
465.32	4952.57
465.50	5001.72
465.69	5064.92
465.87	4933.85
466.05	4994.70
466.23	5036.83
466.41	5011.09
466.60	5153.86
466.78	5027.47
466.96	5006.41
467.14	5011.09
467.32	5186.63
467.51	5165.56
467.69	5006.41
467.87	5221.74
468.05	5156.20
468.23	5291.95
468.41	5100.03
468.60	5149.18
468.78	5273.23
468.96	5240.46
469.14	5207.69
469.32	5378.55
469.50	5252.16
469.69	5296.63
469.87	5465.15
470.05	5301.31
470.23	5411.32
470.41	5387.91
470.59	5526.00
470.77	5490.90
470.95	5465.15
471.14	5715.59
471.32	5413.66
471.50	5636.01
471.68	5479.19
471.86	5628.99
472.04	5643.03
472.22	5816.23
472.40	5708.57
472.58	5720.27
472.77	5640.69
472.95	5909.85
473.13	5877.09
473.31	5830.27
473.49	5820.91
473.67	5853.68
473.85	5797.51
474.03	6246.89
474.21	6038.58
474.39	6090.07
474.57	6036.24
474.75	6008.16
474.93	6300.72
475.12	6141.57
475.30	6225.82
475.48	6164.97
475.66	6274.98
475.84	6455.20
476.02	6282.00
476.20	6342.85
476.38	6380.30
476.56	6562.86
476.74	6403.71
476.92	6642.44
477.10	6633.08
477.28	6806.28
477.46	6583.93
477.64	6705.63
477.82	6684.57
478.00	7105.87
478.18	6876.49
478.36	7119.91
478.54	7091.82
478.72	7007.56
478.90	7033.31
479.08	7178.42
479.26	7318.86
479.44	7246.30
479.62	7250.98
479.80	7421.84
479.98	7459.29
480.16	7527.16
480.34	7403.11
480.52	7487.37
480.70	7520.14
480.88	7611.42
481.06	7698.02
481.24	7669.94
481.41	7641.85
481.59	7915.69
481.77	8009.31
481.95	8294.86
482.13	7995.27
482.31	8168.47
482.49	8278.47
482.67	8102.93
482.85	8334.65
483.03	8421.25
483.21	8573.38
483.39	8568.70
483.57	8564.02
483.74	8561.68
483.92	8547.64
484.10	8561.68
484.28	9109.36
484.46	9050.85
484.64	9151.49
484.82	9025.11
485.00	9074.26
485.18	9071.92
485.35	9586.83
485.53	9312.99
485.71	9432.36
485.89	9769.40
486.07	9685.14
486.25	9628.96
486.43	9706.20
486.61	9865.36
486.78	9937.91
486.96	9851.31
487.14	10113.45
487.32	10083.03
487.50	9954.30
487.68	10178.99
487.85	10251.55
488.03	10253.89
488.21	10590.92
488.39	10431.77
488.57	10656.46
488.75	10377.94
488.92	10794.55
489.10	10871.79
489.28	11178.40
489.46	10841.36
489.64	10869.45
489.81	11407.77
489.99	11300.11
490.17	11222.87
490.35	11496.71
490.53	11538.84
490.70	11634.80
490.88	11632.46
491.06	11859.49
491.24	11824.39
491.41	11964.82
491.59	11878.22
491.77	11709.70
491.95	12063.12
492.13	12233.98
492.30	12304.20
492.48	12259.73
492.66	12308.88
492.84	12271.43
493.01	12496.12
493.19	12617.83
493.37	12842.52
493.54	12889.33
493.72	12774.64
493.90	12968.91
494.08	13099.98
494.25	13160.83
494.43	13193.60
494.61	13282.54
494.79	13383.18
494.96	13282.54
495.14	13481.49
495.32	13642.98
495.49	13420.63
495.67	13561.06
495.85	13799.80
496.02	13734.26
496.20	13879.38
496.38	14092.37
496.55	13987.04
496.73	14155.56
496.91	14043.21
497.09	13937.89
497.26	14429.40
497.44	14429.40
497.62	14576.86
497.79	14494.94
497.97	14377.91
498.14	14534.73
498.32	14876.44
498.50	14878.79
498.67	15173.69
498.85	14944.32
499.03	14977.09
499.20	14904.53
499.38	15140.93
499.56	15110.50
499.73	15583.29
499.91	15288.38
500.08	15449.88
500.26	15206.46
500.44	15534.14
500.61	15328.17
500.79	15386.68
500.97	15599.67
501.14	15721.38
501.32	15681.59
501.49	15831.38
501.67	15583.29
501.84	15903.94
502.02	15747.12
502.20	15915.64
502.37	16084.16
502.55	16278.43
502.72	16053.73
502.90	16477.37
503.07	16266.72
503.25	16362.69
503.43	16297.15
503.60	16336.94
503.78	16531.20
503.95	16535.88
504.13	16470.35
504.30	16355.66
504.48	16535.88
504.65	16585.04
504.83	16875.26
505.01	16863.56
505.18	17046.12
505.36	17160.81
505.53	16854.20
505.71	17095.27
505.88	16781.64
506.06	16996.97
506.23	17153.79
506.41	17238.05
506.58	17287.20
506.76	17383.16
506.93	17647.64
507.11	17240.39
507.28	17539.97
507.46	17413.59
507.63	17781.05
507.81	17816.16
507.98	17764.67
508.16	17825.52
508.33	17898.08
508.50	18029.15
508.68	17851.27
508.85	18176.60
509.03	18157.88
509.20	18272.56
509.38	18281.92
509.55	18389.59
509.73	18504.28
509.90	18284.26
510.08	18054.89
510.25	18265.54
510.42	18373.21
510.60	18483.21
510.77	18916.21
510.95	18656.41
511.12	18366.18
511.30	18691.52
511.47	18838.97
511.64	18803.86
511.82	18888.12
511.99	19016.85
512.17	18984.09
512.34	19023.87
512.51	19241.54
512.69	19330.48
512.86	18698.54
513.04	19264.95
513.21	19342.19
513.38	19339.85
513.56	19187.71
513.73	19250.91
513.90	19653.48
514.08	19384.32
514.25	19882.85
514.43	19730.72
514.60	19536.45
514.77	19733.06
514.95	19936.68
515.12	19920.30
515.29	20034.99
515.47	19917.96
515.64	20161.37
515.81	19917.96
515.99	20212.87
516.16	20362.66
516.33	20470.33
516.51	20538.20
516.68	20283.08
516.85	20034.99
517.03	20666.93
517.20	20472.67
517.37	20666.93
517.54	20692.68
517.72	20718.42
517.89	20320.53
518.06	20526.50
518.24	20549.90
518.41	20629.48
518.58	20762.89
518.75	20779.28
518.93	21153.76
519.10	20734.81
519.27	21057.80
519.45	20959.50
519.62	20779.28
519.79	20971.20
519.96	20943.11
520.14	21163.12
520.31	20959.50
520.48	21385.47
520.65	20851.83
520.83	21376.11
521.00	21411.22
521.17	21329.30
521.34	21532.93
521.52	21343.35
521.69	21673.36
521.86	21596.12
522.03	21806.77
522.20	21881.67
522.38	21722.51
522.55	21832.52
522.72	21799.75
522.89	21846.56
523.07	22092.32
523.24	22024.44
523.41	22295.94
523.58	21900.39
523.75	22253.81
523.92	21776.34
524.10	22384.88
524.27	22607.23
524.44	22377.86
524.61	22408.29
524.78	22324.03
524.96	22569.79
525.13	22340.41
525.30	22602.55
525.47	22792.14
525.64	22754.69
525.81	22789.80
525.98	22719.58
526.16	23035.55
526.33	22731.28
526.50	22963.00
526.67	22670.43
526.84	22534.68
527.01	22703.20
527.18	22995.76
527.36	22883.42
527.53	22974.70
527.70	23473.23
527.87	23370.25
528.04	23098.75
528.21	22951.29
528.38	22773.41
528.55	23372.59
528.72	23360.89
528.89	23365.57
529.07	23318.76
529.24	23307.05
529.41	23651.11
529.58	23449.83
529.75	23681.54
529.92	23702.61
530.09	23449.83
530.26	23548.13
530.43	24060.71
530.60	23711.97
530.77	23480.25
530.94	23910.91
531.11	23606.64
531.28	23988.15
531.46	23681.54
531.63	24060.71
531.80	23723.67
531.97	24290.08
532.14	24173.05
532.31	23967.09
532.48	23992.83
532.65	24201.14
532.82	23988.15
532.99	24126.24
533.16	24018.58
533.33	24446.90
533.50	24467.96
533.67	24451.58
533.84	24463.28
534.01	24418.81
534.18	24285.40
534.35	24622.44
534.52	24432.85
534.69	24994.58
534.86	24828.40
535.03	24437.53
535.20	24683.29
535.37	24554.56
535.54	24765.21
535.71	24327.53
535.88	24844.79
536.05	24596.69
536.22	24753.51
536.38	25032.03
536.55	25113.95
536.72	24926.71
536.89	24826.06
537.06	24950.11
537.23	25067.14
537.40	24805.00
537.57	25144.38
537.74	25252.04
537.91	25490.77
538.08	25408.86
538.25	25085.86
538.42	25223.95
538.59	25266.08
538.75	25090.54
538.92	25322.26
539.09	25628.87
539.26	25666.31
539.43	24992.24
539.60	25589.08
539.77	25486.09
539.94	25596.10
540.11	25750.57
540.28	25790.36
540.44	25249.70
540.61	25619.50
540.78	25523.54
540.95	25951.86
541.12	25589.08
541.29	26019.74
541.46	25706.10
541.62	25577.37
541.79	25991.65
541.96	25570.35
542.13	25860.58
542.30	26134.42
542.47	26211.66
542.63	26031.44
542.80	26052.50
542.97	26228.04
543.14	26338.05
543.31	26401.24
543.48	26139.10
543.64	26384.86
543.81	26911.48
543.98	26602.53
544.15	26302.94
544.32	26536.99
544.48	26747.64
544.65	26288.90
544.82	26387.20
544.99	26487.84
545.16	26745.30
545.32	26466.78
545.49	26661.04
545.66	27026.17
545.83	27009.78
546.00	26742.96
546.16	26714.87
546.33	26635.30
546.50	26431.67
546.67	26806.16
546.83	26555.72
547.00	26845.94
547.17	26787.43
547.34	26974.67
547.50	26869.35
547.67	27274.26
547.84	27138.51
548.00	27124.47
548.17	27335.12
548.34	27030.85
548.51	27234.47
548.67	27662.79
548.84	27072.98
549.01	27150.21
549.18	26735.94
549.34	27150.21
549.51	27339.80
549.68	27407.67
549.84	27208.73
550.01	27566.83
550.18	27133.83
550.34	27328.10
550.51	27398.31
550.68	27566.83
550.84	27377.25
551.01	27527.04
551.18	27342.14
551.34	27091.70
551.51	27470.87
551.68	27667.47
551.84	27524.70
552.01	27307.03
552.18	28011.53
552.34	27477.89
552.51	27775.14
552.68	27461.51
552.84	27632.36
553.01	27721.30
553.18	27800.88
553.34	27915.57
553.51	27733.01
553.67	28119.20
553.84	27768.12
554.01	28233.88
554.17	28056.00
554.34	28144.94
554.51	27718.96
554.67	28093.45
554.84	28009.19
555.00	28037.28
555.17	28079.41
555.33	28180.05
555.50	28212.82
555.67	28364.95
555.83	28477.30
556.00	28278.35
556.16	28189.41
556.33	28362.61
556.50	28467.94
556.66	28580.28
556.83	27957.70
556.99	28718.37
557.16	28318.14
557.32	28374.31
557.49	28797.95
557.65	28219.84
557.82	28276.01
557.98	28470.28
558.15	28432.83
558.32	28760.50
558.48	28517.09
558.65	28666.88
558.81	28615.39
558.98	28615.39
559.14	28690.29
559.31	28355.59
559.47	28449.21
559.64	29013.28
559.80	28959.45
559.97	28645.82
560.13	28641.14
560.30	29214.57
560.46	28620.07
560.63	28500.70
560.79	28748.80
560.96	28753.48
561.12	28865.83
561.29	28587.30
561.45	28465.60
561.61	29060.09
561.78	28814.34
561.94	28840.08
562.11	29277.76
562.27	28465.60
562.44	29149.03
562.60	28968.81
562.77	28961.79
562.93	28470.28
563.10	29319.89
563.26	28790.93
563.42	29198.18
563.59	28964.13
563.75	28669.22
563.92	29043.71
564.08	28538.15
564.24	28804.97
564.41	28627.09
564.57	28870.51
564.74	29034.35
564.90	28914.98
565.07	29200.52
565.23	29656.93
565.39	28999.24
565.56	29113.92
565.72	29233.29
565.88	29457.98
566.05	29139.67
566.21	29219.25
566.38	29261.38
566.54	28947.75
566.70	29553.94
566.87	29537.56
567.03	29142.01
567.19	29268.40
567.36	29352.66
567.52	29149.03
567.68	29298.83
567.85	29261.38
568.01	29146.69
568.17	29785.66
568.34	29582.03
568.50	29123.29
568.66	29605.44
568.83	29586.71
568.99	29385.43
569.15	29233.29
569.32	29369.04
569.48	29118.60
569.64	29284.78
569.81	29619.48
569.97	29511.81
570.13	29380.74
570.30	29069.45
570.46	29401.81
570.62	29198.18
570.78	29560.97
570.95	28992.22
571.11	29310.53
571.27	29312.87
571.43	29081.16
571.60	29214.57
571.76	29429.90
571.92	29443.94
572.09	29919.07
572.25	29612.46
572.41	29399.47
572.57	29362.02
572.74	29661.61
572.90	29673.31
573.06	29649.91
573.22	29802.04
573.38	29376.06
573.55	29720.12
573.71	29663.95
573.87	29890.98
574.03	29223.93
574.20	29930.77
574.36	29322.23
574.52	29586.71
574.68	29411.17
574.84	29701.40
575.01	29476.71
575.17	29745.87
575.33	29675.65
575.49	29565.65
575.65	29673.31
575.82	29717.78
575.98	29977.58
576.14	29343.30
576.30	29322.23
576.46	29404.15
576.62	29420.53
576.79	29940.13
576.95	29500.11
577.11	30080.56
577.27	29853.53
577.43	29457.98
577.59	29785.66
577.75	29364.36
577.92	29322.23
578.08	29490.75
578.24	29619.48
578.40	29710.76
578.56	29619.48
578.72	29851.19
578.88	29682.67
579.04	29940.13
579.21	29392.45
579.37	29876.94
579.53	29722.46
579.69	29656.93
579.85	29809.06
580.01	29694.38
580.17	29937.79
580.33	29879.28
580.49	29853.53
580.65	29912.05
580.82	29472.03
580.98	29893.32
581.14	29886.30
581.30	29937.79
581.46	29783.32
581.62	29823.11
581.78	29764.59
581.94	30026.73
582.10	29874.60
582.26	29734.17
582.42	29586.71
582.58	30197.59
582.74	29720.12
582.90	29549.26
583.06	29759.91
583.22	29900.34
583.38	30122.69
583.54	29708.42
583.70	29549.26
583.86	29729.48
584.02	29677.99
584.18	29752.89
584.34	29921.41
584.50	30057.16
584.66	29825.45
584.82	29851.19
584.98	29923.75
585.14	29914.39
585.30	30045.46
585.46	29823.11
585.62	29722.46
585.78	30169.51
585.94	29589.05
586.10	30061.84
586.26	29923.75
586.42	30216.32
586.58	29685.01
586.74	29923.75
586.90	29401.81
587.06	29376.06
587.22	29692.04
587.38	30038.44
587.54	29621.82
587.70	30071.20
587.86	30089.93
588.02	30204.61
588.18	30312.28
588.34	29865.24
588.49	29766.93
588.65	29551.60
588.81	29951.84
588.97	30478.46
589.13	30024.39
589.29	29685.01
589.45	30429.30
589.61	30160.14
589.77	30595.48
589.93	30471.43
590.08	30071.20
590.24	30382.49
590.40	30450.37
590.56	30586.12
590.72	30103.97
590.88	30052.48
591.04	29773.95
591.20	30225.68
591.35	30469.09
591.51	30768.68
591.67	30483.14
591.83	30478.46
591.99	30258.45
592.15	30125.04
592.31	30455.05
592.46	30256.11
592.62	30157.80
592.78	30373.13
592.94	29958.86
593.10	30347.39
593.26	30239.72
593.41	30129.72
593.57	30188.23
593.73	30347.39
593.89	30448.03
594.05	30295.89
594.20	30368.45
594.36	30347.39
594.52	30263.13
594.68	30026.73
594.84	30433.99
594.99	30548.67
595.15	30646.97
595.31	30314.62
595.47	30497.18
595.62	30279.51
595.78	30361.43
595.94	30621.23
596.10	30707.83
596.25	29905.02
596.41	30118.01
596.57	30506.54
596.73	30604.84
596.88	30300.58
597.04	30342.70
597.20	30815.49
597.36	30934.86
597.51	30190.57
597.67	30286.53
597.83	30436.33
597.99	30536.97
598.14	30265.47
598.30	30223.34
598.46	30380.15
598.61	30239.72
598.77	30066.52
598.93	30529.95
599.09	30565.06
599.24	30845.92
599.40	30780.39
599.56	30665.70
599.71	30562.72
599.87	30749.96
600.03	30373.13
600.18	30305.26
600.34	30719.53
600.50	30225.68
600.65	30354.41
600.81	30445.69
600.97	30850.60
601.12	31037.84
601.28	30536.97
601.44	30698.47
601.59	30506.54
601.75	30466.75
601.91	30628.25
602.06	30630.59
602.22	30632.93
602.37	30689.10
602.53	30778.04
602.69	30572.08
602.84	30302.92
603.00	30799.11
603.16	30733.57
603.31	30534.63
603.47	30567.40
603.62	30323.98
603.78	30380.15
603.94	30136.74
604.09	30597.82
604.25	30326.32
604.40	30553.35
604.56	30483.14
604.71	30824.86
604.87	30471.43
605.03	30118.01
605.18	30705.49
605.34	30122.69
605.49	29900.34
605.65	30415.26
605.80	30389.52
605.96	30632.93
606.12	30387.18
606.27	30719.53
606.43	30265.47
606.58	30569.74
606.74	30157.80
606.89	30010.35
607.05	30691.44
607.20	30300.58
607.36	30272.49
607.51	30494.84
607.67	30314.62
607.82	30218.66
607.98	30075.88
608.13	29916.73
608.29	30206.95
608.44	30356.75
608.60	30459.73
608.75	30263.13
608.91	30345.05
609.06	30410.58
609.22	30490.16
609.37	29982.26
609.53	30218.66
609.68	30244.40
609.84	30183.55
609.99	30115.67
610.15	30291.21
610.30	30192.91
610.46	29741.19
610.61	30415.26
610.76	30174.19
610.92	30284.19
611.07	30155.46
611.23	30029.07
611.38	29886.30
611.54	30223.34
611.69	29991.62
611.84	29942.47
612.00	29993.97
612.15	29462.66
612.31	30206.95
612.46	29989.28
612.62	29879.28
612.77	30139.08
612.92	30539.31
613.08	30019.71
613.23	30204.61
613.39	29851.19
613.54	29855.87
613.69	29750.55
613.85	29907.37
614.00	29755.23
614.15	29841.83
614.31	29844.17
614.46	30099.29
614.62	29455.64
614.77	29977.58
614.92	29900.34
615.08	29961.20
615.23	29546.92
615.38	29448.62
615.54	29500.11
615.69	29556.28
615.84	29766.93
616.00	29727.14
616.15	29738.85
616.30	29940.13
616.46	29895.66
616.61	29701.40
616.76	29818.42
616.92	29600.76
617.07	30153.12
617.22	29567.99
617.37	29020.30
617.53	29652.25
617.68	29549.26
617.83	29607.78
617.99	29303.51
618.14	29656.93
618.29	29474.37
618.45	29443.94
618.60	29645.23
618.75	29558.63
618.90	29675.65
619.06	29584.37
619.21	29326.91
619.36	29685.01
619.51	29261.38
619.67	28779.23
619.82	29392.45
619.97	29397.13
620.12	28910.30
620.28	29153.71
620.43	29181.80
620.58	29762.25
620.73	29792.68
620.89	29336.27
621.04	29539.90
621.19	29380.74
621.34	29060.09
621.49	29413.51
621.65	29127.97
621.80	29324.57
621.95	29022.64
622.10	29172.44
622.25	29092.86
622.41	29418.19
622.56	29062.43
622.71	29280.10
622.86	29132.65
623.01	29149.03
623.16	28746.46
623.32	28844.76
623.47	29048.39
623.62	29027.32
623.77	28821.36
623.92	28884.55
624.07	28594.32
624.23	28879.87
624.38	28865.83
624.53	28926.68
624.68	28929.02
624.83	28907.96
624.98	29352.66
625.13	28865.83
625.29	29200.52
625.44	29013.28
625.59	28594.32
625.74	28591.98
625.89	28723.05
626.04	28734.76
626.19	28734.76
626.34	28627.09
626.49	28418.78
626.65	28692.63
626.80	28376.66
626.95	28610.71
627.10	28741.78
627.25	28369.63
627.40	28299.42
627.55	28467.94
627.70	28353.25
627.85	28395.38
628.00	28016.21
628.15	28381.34
628.30	28140.26
628.45	28379.00
628.60	28198.77
628.76	28498.36
628.91	28350.91
629.06	28542.83
629.21	28507.72
629.36	28390.70
629.51	28297.08
629.66	28416.44
629.81	28357.93
629.96	28034.94
630.11	28126.22
630.26	28018.55
630.41	28065.36
630.56	28189.41
630.71	28264.31
630.86	28226.86
631.01	28151.96
631.16	28374.31
631.31	27960.04
631.46	27934.29
631.61	28018.55
631.76	27964.72
631.91	28121.54
632.06	28189.41
632.21	28063.02
632.36	27976.42
632.51	27974.08
632.66	27854.72
632.81	27543.42
632.96	28409.42
633.10	27936.63
633.25	27906.21
633.40	27716.62
633.55	27985.79
633.70	27660.45
633.85	27695.56
634.00	27597.26
634.15	27496.61
634.30	27538.74
634.45	27248.52
634.60	27440.44
634.75	27405.33
634.90	27765.78
635.05	27730.67
635.19	27695.56
635.34	27667.47
635.49	27454.48
635.64	27683.86
635.79	27543.42
635.94	27627.68
636.09	27552.79
636.24	27543.42
636.39	27133.83
636.53	27599.60
636.68	27639.39
636.83	27276.60
636.98	27220.43
637.13	27489.59
637.28	27419.38
637.43	27543.42
637.57	27342.14
637.72	27723.65
637.87	27475.55
638.02	27505.98
638.17	27524.70
638.32	27229.79
638.46	27110.43
638.61	27290.65
638.76	26904.46
638.91	26974.67
639.06	27218.09
639.20	27154.90
639.35	27005.10
639.50	27044.89
639.65	27503.64
639.80	27360.86
639.94	27147.87
640.09	27220.43
640.24	27007.44
640.39	26890.41
640.54	26831.90
640.68	26806.16
640.83	27122.13
640.98	26764.03
641.13	26778.07
641.27	26871.69
641.42	26867.01
641.57	26813.18
641.72	26742.96
641.86	26700.83
642.01	26766.37
642.16	26951.27
642.31	26457.42
642.45	26637.64
642.60	26565.08
642.75	26647.00
642.90	26546.36
643.04	26663.38
643.19	26352.09
643.34	26490.18
643.48	26487.84
643.63	26586.15
643.78	26867.01
643.93	26506.57
644.07	26700.83
644.22	26565.08
644.37	26230.38
644.51	26637.64
644.66	26328.69
644.81	26602.53
644.95	26328.69
645.10	26263.15
645.25	26422.31
645.39	26043.14
645.54	26352.09
645.69	26441.03
645.83	26284.22
645.98	26188.25
646.13	26604.87
646.27	26288.90
646.42	26471.46
646.57	26274.85
646.71	26073.57
646.86	26359.11
647.00	26141.44
647.15	26239.75
647.30	25921.43
647.44	26199.96
647.59	26150.81
647.74	26244.43
647.88	26045.48
648.03	26504.23
648.17	26387.20
648.32	26253.79
648.47	25926.11
648.61	26111.02
648.76	26164.85
648.90	26136.76
649.05	25869.94
649.20	25572.69
649.34	26132.08
649.49	25797.38
649.63	25748.23
649.78	25940.16
649.92	25813.77
650.07	26106.34
650.21	25851.22
650.36	26033.78
650.51	26157.83
650.65	25907.39
650.80	25827.81
650.94	26185.91
651.09	25642.91
651.23	25525.88
651.38	25949.52
651.52	25851.22
651.67	25706.10
651.81	25488.43
651.96	25635.89
652.10	25446.30
652.25	25645.25
652.39	25663.97
652.54	25722.49
652.68	25647.59
652.83	25647.59
652.97	25778.66
653.12	25741.21
653.26	25415.88
653.41	25865.26
653.55	25490.77
653.70	25535.24
653.84	25680.36
653.99	25493.12
654.13	25277.79
654.27	25458.01
654.42	25619.50
654.56	25415.88
654.71	25369.07
654.85	25436.94
655.00	25312.89
655.14	25532.90
655.29	25081.18
655.43	25223.95
655.57	25413.54
655.72	25429.92
655.86	25062.46
656.01	24992.24
656.15	25113.95
656.30	25137.35
656.44	24989.90
656.58	24982.88
656.73	25270.76
656.87	25469.71
657.01	25025.01
657.16	25277.79
657.30	24966.49
657.45	25132.67
657.59	25469.71
657.73	24872.87
657.88	25127.99
658.02	24945.43
658.16	24872.87
658.31	24732.44
658.45	24788.61
658.60	24709.04
658.74	24690.31
658.88	24634.14
659.03	24797.98
659.17	24889.26
659.31	24861.17
659.46	24699.67
659.60	24694.99
659.74	24746.48
659.89	24723.08
660.03	24737.12
660.17	24470.30
660.32	24070.07
660.46	24753.51
660.60	24166.03
660.74	24294.76
660.89	24498.39
661.03	24147.31
661.17	24556.90
661.32	24404.77
661.46	24837.76
661.60	24474.98
661.74	24304.12
661.89	24507.75
662.03	24786.27
662.17	24294.76
662.31	23929.64
662.46	23917.93
662.60	24039.64
662.74	24149.65
662.88	24290.08
663.03	24065.39
663.17	24102.84
663.31	23910.91
663.45	23538.77
663.60	23892.19
663.74	23644.09
663.88	24063.05
664.02	23583.24
664.17	23997.51
664.31	23583.24
664.45	23754.10
664.59	23403.02
664.73	23606.64
664.88	23578.56
665.02	23222.80
665.16	23831.33
665.30	23440.47
665.44	23550.47
665.59	23346.84
665.73	23669.84
665.87	23405.36
666.01	23513.02
666.15	23311.74
666.29	23269.61
666.44	23627.71
666.58	23185.35
666.72	22991.08
666.86	23323.44
667.00	23604.30
667.14	23101.09
667.28	23435.78
667.43	23229.82
667.57	23129.17
667.71	23009.81
667.85	22691.49
667.99	22862.35
668.13	22778.09
668.27	22951.29
668.41	22707.88
668.56	22609.58
668.70	22827.24
668.84	22897.46
668.98	23019.17
669.12	22595.53
669.26	22684.47
669.40	22520.63
669.54	22555.74
669.68	22623.62
669.82	22101.68
669.96	22431.69
670.10	22281.90
670.25	22249.13
670.39	22188.28
670.53	22637.66
670.67	22230.41
670.81	22607.23
670.95	22434.03
671.09	22518.29
671.23	22082.95
671.37	22581.49
671.51	22190.62
671.65	22171.89
671.79	21853.58
671.93	22272.54
672.07	21839.54
672.21	21951.88
672.35	21563.36
672.49	21586.76
672.63	21542.29
672.77	21401.86
672.91	21429.94
673.05	21671.02
673.19	22047.85
673.33	21516.54
673.47	21362.07
673.61	21701.45
673.75	21467.39
673.89	21310.58
674.03	21570.38
674.17	21275.47
674.31	21406.54
674.45	21483.78
674.59	21153.76
674.73	21104.61
674.87	20952.48
675.01	21046.10
675.15	20973.54
675.29	20999.29
675.43	20905.66
675.56	21132.70
675.70	20854.17
675.84	21048.44
675.98	20343.94
676.12	20718.42
676.26	20809.70
676.40	20636.50
676.54	20697.36
676.68	20823.75
676.82	20208.19
676.96	20201.16
677.10	20442.24
677.23	19943.70
677.37	19983.49
677.51	20346.28
677.65	20013.92
677.79	20030.30
677.93	20006.90
678.07	19730.72
678.21	19768.16
678.34	19840.72
678.48	19868.81
678.62	19470.92
678.76	19744.76
678.90	19789.23
679.04	19494.32
679.18	19337.51
679.31	19269.63
679.45	19246.23
679.59	19021.53
679.73	19229.84
679.87	19070.68
680.00	18944.30
680.14	18874.08
680.28	19051.96
680.42	18890.46
680.56	19370.27
680.70	18853.02
680.83	18834.29
680.97	18595.56
681.11	18710.24
681.25	18572.15
681.39	18602.58
681.52	18670.45
681.66	18663.43
681.80	18352.14
681.94	18576.83
682.07	18558.11
682.21	18256.18
682.35	18017.44
682.49	18129.79
682.62	18106.38
682.76	18249.16
682.90	18038.51
683.04	17905.10
683.17	17991.70
683.31	18029.15
683.45	17987.02
683.59	17736.58
683.72	17493.16
683.86	17525.93
684.00	17771.69
684.13	17830.20
684.27	17474.44
684.41	17282.52
684.55	17149.11
684.68	17209.96
684.82	17130.38
684.96	17090.59
685.09	17345.71
685.23	17128.04
685.37	17069.53
685.50	16996.97
685.64	17247.41
685.78	17095.27
685.91	17090.59
686.05	16912.71
686.19	16877.60
686.32	16886.97
686.46	16748.87
686.60	16526.52
686.73	16664.61
686.87	16472.69
687.01	16343.96
687.14	16175.44
687.28	16252.68
687.42	16238.64
687.55	16278.43
687.69	16049.05
687.82	16023.31
687.96	16156.72
688.10	16095.86
688.23	15850.11
688.37	16088.84
688.50	16079.48
688.64	16229.27
688.78	15878.19
688.91	15723.72
689.05	15660.52
689.18	15648.82
689.32	15405.41
689.46	15440.51
689.59	15412.43
689.73	15330.51
689.86	15176.03
690.00	15396.04
690.13	15180.71
690.27	15042.62
690.41	15035.60
690.54	15267.31
690.68	15110.50
690.81	15044.96
690.95	14920.92
691.08	14864.74
691.22	14799.21
691.35	14867.08
691.49	14939.64
691.62	14757.08
691.76	14501.96
691.89	14485.58
692.03	14574.52
692.16	14338.12
692.30	14382.59
692.43	14319.40
692.57	14214.07
692.70	14260.88
692.84	14157.90
692.97	13940.23
693.11	13802.14
693.24	14071.30
693.38	14307.69
693.51	13930.87
693.65	14169.60
693.78	13912.14
693.92	13783.41
694.05	13769.37
694.19	13837.25
694.32	13563.40
694.45	13509.57
694.59	13132.75
694.72	13460.42
694.86	13394.89
694.99	13200.62
695.13	13025.08
695.26	13242.75
695.39	12840.18
695.53	12910.40
695.66	13071.89
695.80	13231.05
695.93	12828.48
696.07	13032.10
696.20	13090.62
696.33	12863.58
696.47	12753.58
696.60	12720.81
696.73	12975.93
696.87	12608.47
697.00	12594.42
697.14	12442.29
697.27	12304.20
697.40	12250.36
697.54	12271.43
697.67	12393.14
697.80	12102.91
697.94	12023.33
698.07	12109.93
698.21	12269.09
698.34	11918.01
698.47	12016.31
698.61	11974.18
698.74	12170.79
698.87	12056.10
699.01	11595.01
699.14	11875.88
699.27	11620.76
699.40	11721.40
699.54	11786.94
699.67	11513.10
699.80	11529.48
699.94	11382.03
700.07	11300.11
700.20	11281.38
700.34	11014.56
700.47	11089.46
700.60	11304.79
700.73	11426.50
700.87	11342.24
701.00	10984.13
701.13	11176.06
701.26	11091.80
701.40	11096.48
701.53	11138.61
701.66	11005.20
701.79	10960.73
701.93	10590.92
702.06	10623.69
702.19	10658.80
702.32	10595.61
702.46	10642.42
702.59	10576.88
702.72	10377.94
702.85	10361.55
702.99	10473.90
703.12	10305.38
703.25	10125.16
703.38	10160.27
703.51	10296.02
703.65	10162.61
703.78	10239.84
703.91	10193.03
704.04	10125.16
704.17	10164.95
704.31	9977.70
704.44	10031.54
704.57	10059.62
704.70	9748.33
704.83	9743.65
704.96	9694.50
705.10	9575.13
705.23	9334.06
>>>>>End Processed Spectral Data<<<<<
