SpectraSuite Data File
++++++++++++++++++++++++++++++++++++
Date: Fri Oct 18 13:58:38 GMT-05:00 2013
User: bianchi
Dark Spectrum Present: No
Reference Spectrum Present: No
Number of Sampled Component Spectra: 1
Spectrometers: USB2+H05261
Integration Time (usec): 50000 (USB2+H05261)
Spectra Averaged: 1 (USB2+H05261)
Boxcar Smoothing: 0 (USB2+H05261)
Correct for Electrical Dark: No (USB2+H05261)
Strobe/Lamp Enabled: No (USB2+H05261)
Correct for Detector Non-linearity: No (USB2+H05261)
Correct for Stray Light: No (USB2+H05261)
Number of Pixels in Processed Spectrum: 2048
>>>>>Begin Processed Spectral Data<<<<<
365.73	0.00
365.92	0.00
366.12	0.00
366.32	0.00
366.52	0.00
366.72	0.00
366.91	0.00
367.11	0.00
367.31	0.00
367.51	0.00
367.70	0.00
367.90	0.00
368.10	0.00
368.30	0.00
368.49	0.00
368.69	0.00
368.89	0.00
369.09	0.00
369.28	0.00
369.48	0.00
369.68	0.00
369.87	0.00
370.07	0.00
370.27	0.00
370.47	39.79
370.66	9.36
370.86	79.58
371.06	147.45
371.25	159.16
371.45	98.30
371.65	180.22
371.84	112.35
372.04	124.05
372.24	163.84
372.44	203.63
372.63	142.77
372.83	182.56
373.03	196.60
373.22	159.16
373.42	159.16
373.62	255.12
373.81	133.41
374.01	351.08
374.21	318.31
374.40	194.26
374.60	217.67
374.79	294.91
374.99	266.82
375.19	229.37
375.38	257.46
375.58	278.52
375.78	308.95
375.97	273.84
376.17	243.42
376.37	238.73
376.56	287.89
376.76	236.39
376.95	234.05
377.15	257.46
377.35	308.95
377.54	236.39
377.74	264.48
377.93	250.44
378.13	280.86
378.33	292.57
378.52	292.57
378.72	290.23
378.91	299.59
379.11	306.61
379.31	318.31
379.50	311.29
379.70	234.05
379.89	271.50
380.09	322.99
380.28	215.33
380.48	278.52
380.68	313.63
380.87	322.99
381.07	276.18
381.26	311.29
381.46	339.38
381.65	280.86
381.85	311.29
382.04	320.65
382.24	425.98
382.43	383.85
382.63	285.55
382.83	376.83
383.02	290.23
383.22	402.57
383.41	318.31
383.61	428.32
383.80	339.38
384.00	313.63
384.19	287.89
384.39	379.17
384.58	379.17
384.78	418.96
384.97	346.40
385.17	353.42
385.36	393.21
385.56	383.85
385.75	393.21
385.95	379.17
386.14	383.85
386.34	390.87
386.53	376.83
386.72	414.27
386.92	414.27
387.11	428.32
387.31	402.57
387.50	498.53
387.70	395.55
387.89	386.19
388.09	341.72
388.28	404.91
388.48	400.23
388.67	449.38
388.86	416.62
389.06	454.06
389.25	470.45
389.45	444.70
389.64	390.87
389.84	500.87
390.03	428.32
390.22	503.22
390.42	491.51
390.61	430.66
390.81	430.66
391.00	454.06
391.19	601.52
391.39	547.69
391.58	437.68
391.78	552.37
391.97	601.52
392.16	503.22
392.36	594.50
392.55	468.11
392.75	521.94
392.94	503.22
393.13	528.96
393.33	571.09
393.52	566.41
393.71	552.37
393.91	629.60
394.10	571.09
394.29	543.00
394.49	580.45
394.68	594.50
394.88	561.73
395.07	587.47
395.26	678.76
395.46	653.01
395.65	575.77
395.84	622.58
396.04	645.99
396.23	662.37
396.42	606.20
396.62	662.37
396.81	727.91
397.00	662.37
397.19	636.63
397.39	692.80
397.58	594.50
397.77	676.41
397.97	777.06
398.16	674.07
398.35	786.42
398.55	674.07
398.74	753.65
398.93	657.69
399.12	741.95
399.32	723.23
399.51	730.25
399.70	788.76
399.90	816.85
400.09	727.91
400.28	727.91
400.47	795.78
400.67	772.38
400.86	795.78
401.05	802.80
401.24	791.10
401.44	842.59
401.63	854.30
401.82	788.76
402.01	791.10
402.21	732.59
402.40	753.65
402.59	873.02
402.78	814.51
402.97	823.87
403.17	800.46
403.36	882.38
403.55	908.13
403.74	868.34
403.93	856.64
404.13	842.59
404.32	905.79
404.51	940.90
404.70	924.51
404.89	924.51
405.09	968.98
405.28	1027.50
405.47	938.55
405.66	910.47
405.85	964.30
406.05	940.90
406.24	1020.47
406.43	1004.09
406.62	1032.18
406.81	1055.58
407.00	938.55
407.20	1020.47
407.39	1006.43
407.58	1046.22
407.77	1029.84
407.96	1090.69
408.15	1083.67
408.34	961.96
408.54	1064.94
408.73	1083.67
408.92	1095.37
409.11	1074.31
409.30	1114.10
409.49	1121.12
409.68	1086.01
409.87	1078.99
410.07	1163.25
410.26	1184.31
410.45	1247.51
410.64	1240.48
410.83	1137.50
411.02	1188.99
411.21	1121.12
411.40	1256.87
411.59	1284.95
411.78	1170.27
411.98	1210.06
412.17	1277.93
412.36	1303.68
412.55	1334.11
412.74	1259.21
412.93	1249.85
413.12	1275.59
413.31	1416.02
413.50	1282.61
413.69	1313.04
413.88	1479.22
414.07	1488.58
414.26	1273.25
414.45	1453.47
414.64	1411.34
414.83	1495.60
415.02	1462.83
415.22	1591.56
415.41	1591.56
415.60	1439.43
415.79	1535.39
415.98	1544.75
416.17	1614.97
416.36	1547.09
416.55	1621.99
416.74	1652.42
416.93	1577.52
417.12	1694.55
417.31	1675.82
417.50	1685.19
417.69	1682.85
417.88	1659.44
418.07	1760.08
418.26	1762.42
418.45	1727.32
418.64	1870.09
418.83	1858.39
419.02	1820.94
419.21	1905.20
419.39	1907.54
419.58	1811.57
419.77	1827.96
419.96	1956.69
420.15	1837.32
420.34	1863.07
420.53	1902.86
420.72	1832.64
420.91	1820.94
421.10	1881.79
421.29	1973.07
421.48	1949.67
421.67	1994.14
421.86	1891.15
422.05	2172.02
422.24	1846.68
422.43	1921.58
422.61	1912.22
422.80	2019.88
422.99	1989.46
423.18	2029.24
423.37	2122.87
423.56	1935.62
423.75	1937.96
423.94	1893.49
424.13	1907.54
424.32	1973.07
424.50	2054.99
424.69	2059.67
424.88	2047.97
425.07	2019.88
425.26	2071.37
425.45	1994.14
425.64	2059.67
425.83	2087.76
426.01	2047.97
426.20	2024.56
426.39	2120.53
426.58	2111.16
426.77	1998.82
426.96	2136.91
427.15	2104.14
427.33	2143.93
427.52	2038.61
427.71	2176.70
427.90	2099.46
428.09	2139.25
428.28	2136.91
428.46	2104.14
428.65	2197.76
428.84	2345.22
429.03	2310.11
429.22	2225.85
429.40	2120.53
429.59	2174.36
429.78	2141.59
429.97	2064.35
430.16	2080.74
430.34	2246.91
430.53	2265.64
430.72	2258.62
430.91	2342.88
431.10	2251.60
431.28	2338.20
431.47	2389.69
431.66	2375.64
431.85	2251.60
432.03	2415.43
432.22	2410.75
432.41	2403.73
432.60	2347.56
432.79	2532.46
432.97	2422.45
433.16	2396.71
433.35	2452.88
433.54	2476.29
433.72	2492.67
433.91	2502.03
434.10	2534.80
434.28	2619.06
434.47	2436.50
434.66	2462.24
434.85	2593.31
435.03	2590.97
435.22	2480.97
435.41	2597.99
435.59	2544.16
435.78	2684.59
435.97	2675.23
436.16	2581.61
436.34	2633.10
436.53	2518.42
436.72	2710.34
436.90	2665.87
437.09	2661.19
437.28	2649.49
437.46	2693.96
437.65	2682.25
437.84	2719.70
438.02	2724.38
438.21	2778.22
438.40	2703.32
438.58	2848.43
438.77	2822.69
438.96	2885.88
439.14	2918.65
439.33	3016.95
439.52	2956.10
439.70	3035.67
439.89	3162.06
440.08	2953.76
440.26	3023.97
440.45	3026.31
440.63	3087.17
440.82	3073.12
441.01	3185.47
441.19	3145.68
441.38	3091.85
441.57	3220.58
441.75	3204.19
441.94	3269.73
442.12	3215.90
442.31	3346.97
442.50	3260.37
442.68	3176.11
442.87	3246.32
443.05	3283.77
443.24	3482.72
443.43	3442.93
443.61	3339.94
443.80	3353.99
443.98	3372.71
444.17	3314.20
444.35	3372.71
444.54	3482.72
444.73	3478.04
444.91	3393.78
445.10	3494.42
445.28	3410.16
445.47	3475.70
445.65	3344.63
445.84	3456.97
446.02	3398.46
446.21	3442.93
446.39	3517.83
446.58	3419.52
446.77	3368.03
446.95	3438.25
447.14	3398.46
447.32	3438.25
447.51	3543.57
447.69	3534.21
447.88	3480.38
448.06	3520.17
448.25	3438.25
448.43	3627.83
448.62	3438.25
448.80	3494.42
448.99	3562.30
449.17	3538.89
449.36	3499.10
449.54	3705.07
449.73	3712.09
449.91	3698.05
450.10	3653.58
450.28	3794.01
450.46	3808.05
450.65	3672.30
450.83	3749.54
451.02	3569.32
451.20	3742.52
451.39	3588.04
451.57	3833.80
451.76	3770.60
451.94	3782.31
452.13	3819.75
452.31	3871.25
452.49	3784.65
452.68	3784.65
452.86	3840.82
453.05	3932.10
453.23	3990.61
453.42	3936.78
453.60	3850.18
453.78	3892.31
453.97	3852.52
454.15	3899.33
454.34	3911.04
454.52	4018.70
454.70	4018.70
454.89	4042.11
455.07	4049.13
455.26	4166.15
455.44	4039.76
455.62	4114.66
455.81	4051.47
455.99	4208.28
456.17	4102.96
456.36	4166.15
456.54	4161.47
456.73	4140.41
456.91	4421.27
457.09	4152.11
457.28	4329.99
457.46	4236.37
457.64	4447.02
457.83	4374.46
458.01	4325.31
458.19	4388.50
458.38	4421.27
458.56	4535.96
458.74	4379.14
458.93	4407.23
459.11	4348.72
459.29	4491.49
459.48	4463.40
459.66	4456.38
459.84	4444.68
460.03	4641.28
460.21	4540.64
460.39	4568.73
460.57	4372.12
460.76	4547.66
460.94	4589.79
461.12	4545.32
461.31	4465.74
461.49	4629.58
461.67	4524.26
461.85	4641.28
462.04	4559.36
462.22	4854.27
462.40	4716.18
462.59	4762.99
462.77	4781.71
462.95	4748.95
463.13	4711.50
463.32	4856.61
463.50	4781.71
463.68	4737.24
463.86	4730.22
464.05	4695.11
464.23	4610.86
464.41	4777.03
464.59	4894.06
464.78	4936.19
464.96	4875.34
465.14	4891.72
465.32	4877.68
465.50	4973.64
465.69	5064.92
465.87	4875.34
466.05	4985.34
466.23	5039.17
466.41	4990.02
466.60	5022.79
466.78	4961.94
466.96	4983.00
467.14	5067.26
467.32	5001.72
467.51	5181.95
467.69	5081.30
467.87	5008.75
468.05	5163.22
468.23	5064.92
468.41	5167.90
468.60	5053.22
468.78	5242.80
468.96	5076.62
469.14	5212.37
469.32	5235.78
469.50	5132.79
469.69	5308.34
469.87	5322.38
470.05	5383.23
470.23	5385.57
470.41	5362.17
470.59	5313.02
470.77	5441.75
470.95	5413.66
471.14	5380.89
471.32	5547.07
471.50	5558.77
471.68	5731.97
471.86	5738.99
472.04	5685.16
472.22	5715.59
472.40	5671.12
472.58	5729.63
472.77	5689.84
472.95	5881.77
473.13	5942.62
473.31	5959.00
473.49	5856.02
473.67	5694.52
473.85	5900.49
474.03	5949.64
474.21	6005.81
474.39	5998.79
474.57	5975.39
474.75	6029.22
474.93	6197.74
475.12	6251.57
475.30	6134.54
475.48	6108.80
475.66	6244.55
475.84	6331.15
476.02	6338.17
476.20	6282.00
476.38	6424.77
476.56	6490.31
476.74	6427.11
476.92	6469.24
477.10	6651.80
477.28	6663.51
477.46	6595.63
477.64	6665.85
477.82	6700.95
478.00	6740.74
478.18	6878.83
478.36	6796.92
478.54	6867.13
478.72	6949.05
478.90	7052.03
479.08	7370.35
479.26	7225.23
479.44	7293.11
479.62	7293.11
479.80	7417.16
479.98	7447.58
480.16	7550.57
480.34	7393.75
480.52	7559.93
480.70	7531.84
480.88	7613.76
481.06	7637.17
481.24	7927.39
481.41	7782.28
481.59	7939.10
481.77	7943.78
481.95	8049.10
482.13	8217.62
482.31	8152.09
482.49	8278.47
482.67	8320.60
482.85	8454.02
483.03	8566.36
483.21	8636.58
483.39	8765.31
483.57	8552.32
483.74	8519.55
483.92	8702.11
484.10	8713.81
484.28	8566.36
484.46	8912.76
484.64	9114.05
484.82	8889.35
485.00	9184.26
485.18	9413.63
485.35	9380.87
485.53	9263.84
485.71	9287.25
485.89	9685.14
486.07	9568.11
486.25	9458.10
486.43	9647.69
486.61	9586.83
486.78	9886.42
486.96	9727.27
487.14	10083.03
487.32	10113.45
487.50	10235.16
487.68	10071.33
487.85	10424.75
488.03	10265.59
488.21	10417.72
488.39	10558.16
488.57	10719.65
488.75	10651.78
488.92	10771.15
489.10	10883.49
489.28	10785.19
489.46	11052.01
489.64	10967.75
489.81	11304.79
489.99	11227.55
490.17	11236.91
490.35	11541.18
490.53	11389.05
490.70	11440.54
490.88	11634.80
491.06	11623.10
491.24	11552.88
491.41	11798.64
491.59	12198.87
491.77	11873.54
491.95	12098.23
492.13	12278.45
492.30	12123.98
492.48	12435.27
492.66	12461.01
492.84	11971.84
493.01	12362.71
493.19	12538.25
493.37	12444.63
493.54	12571.02
493.72	12723.15
493.90	12774.64
494.08	12692.73
494.25	13104.66
494.43	13146.79
494.61	13156.15
494.79	13425.31
494.96	13029.76
495.14	13383.18
495.32	13352.76
495.49	13584.47
495.67	13401.91
495.85	13738.94
496.02	13769.37
496.20	13685.11
496.38	13565.74
496.55	13762.35
496.73	14019.81
496.91	14363.87
497.09	14246.84
497.26	14295.99
497.44	14125.13
497.62	14324.08
497.79	14679.84
497.97	14326.42
498.14	14558.13
498.32	14860.06
498.50	14689.20
498.67	14970.07
498.85	14923.26
499.03	14775.80
499.20	15082.41
499.38	15059.01
499.56	15208.80
499.73	15260.29
499.91	15241.57
500.08	15269.66
500.26	14963.04
500.44	15447.54
500.61	15545.84
500.79	15295.40
500.97	15545.84
501.14	15901.60
501.32	15800.96
501.49	15672.23
501.67	16060.76
501.84	15627.76
502.02	15985.86
502.20	15960.11
502.37	16219.91
502.55	16126.29
502.72	16264.38
502.90	16170.76
503.07	16212.89
503.25	16348.64
503.43	16395.45
503.60	16503.12
503.78	16484.39
503.95	16395.45
504.13	16917.39
504.30	16762.92
504.48	16367.37
504.65	16666.95
504.83	17055.48
505.01	17060.16
505.18	16893.99
505.36	17146.76
505.53	16903.35
505.71	16875.26
505.88	17179.53
506.06	16910.37
506.23	17191.23
506.41	17329.33
506.58	17385.50
506.76	17102.29
506.93	17231.02
507.11	17186.55
507.28	17474.44
507.46	17710.83
507.63	17535.29
507.81	17832.54
507.98	17767.01
508.16	17598.49
508.33	17933.18
508.50	17771.69
508.68	17605.51
508.85	18249.16
509.03	18155.54
509.20	18148.51
509.38	18104.04
509.55	18480.87
509.73	18099.36
509.90	18160.22
510.08	18125.11
510.25	18478.53
510.42	18607.26
510.60	18740.67
510.77	18492.57
510.95	18792.16
511.12	18761.73
511.30	18679.82
511.47	18483.21
511.64	18803.86
511.82	18946.64
511.99	18745.35
512.17	19246.23
512.34	19283.67
512.51	19023.87
512.69	19232.18
512.86	19122.18
513.04	19494.32
513.21	19278.99
513.38	19592.62
513.56	19503.68
513.73	19302.40
513.90	19332.82
514.08	19419.42
514.25	19740.08
514.43	19625.39
514.60	20086.48
514.77	19730.72
514.95	19971.79
515.12	19407.72
515.29	19573.90
515.47	19924.98
515.64	19955.41
515.81	20063.07
515.99	19800.93
516.16	20264.36
516.33	20212.87
516.51	20397.77
516.68	20128.61
516.85	20266.70
517.03	20252.66
517.20	20432.88
517.37	20650.55
517.54	20538.20
517.72	20643.52
517.89	20116.90
518.06	20500.75
518.24	20589.69
518.41	20498.41
518.58	20854.17
518.75	20706.72
518.93	20767.57
519.10	20783.96
519.27	20893.96
519.45	20952.48
519.62	20849.49
519.79	20975.88
519.96	20975.88
520.14	20992.26
520.31	20943.11
520.48	21032.05
520.65	21392.50
520.83	21408.88
521.00	21280.15
521.17	21039.08
521.34	21701.45
521.52	21724.85
521.69	21565.70
521.86	21659.32
522.03	21867.63
522.20	21532.93
522.38	21790.39
522.55	21575.06
522.72	21731.87
522.89	21984.65
523.07	21991.67
523.24	22134.45
523.41	22511.27
523.58	21696.77
523.75	22136.79
523.92	22036.14
524.10	22120.40
524.27	22045.51
524.44	22384.88
524.61	22537.02
524.78	22693.83
524.96	22490.21
525.13	22424.67
525.30	22356.80
525.47	22288.92
525.64	22291.26
525.81	22750.01
525.98	22595.53
526.16	22799.16
526.33	22787.46
526.50	22614.26
526.67	22831.93
526.84	22733.62
527.01	22527.66
527.18	23061.30
527.36	22782.77
527.53	22934.91
527.70	23115.13
527.87	23288.33
528.04	22817.88
528.21	23220.45
528.38	23108.11
528.55	23241.52
528.72	23075.34
528.89	23459.19
529.07	23634.73
529.24	23342.16
529.41	23218.11
529.58	23452.17
529.75	23236.84
529.92	23269.61
530.09	23274.29
530.26	23662.82
530.43	23903.89
530.60	23545.79
530.77	23491.96
530.94	23480.25
531.11	23363.23
531.28	23608.98
531.46	23414.72
531.63	23695.58
531.80	23950.70
531.97	23653.45
532.14	24046.66
532.31	24140.29
532.48	24133.26
532.65	23878.15
532.82	23882.83
532.99	24002.19
533.16	24016.24
533.33	24121.56
533.50	24547.54
533.67	24418.81
533.84	24191.78
534.01	24666.91
534.18	24254.97
534.35	24568.60
534.52	24280.72
534.69	24381.36
534.86	24662.22
535.03	24535.84
535.20	24819.04
535.37	24666.91
535.54	24643.50
535.71	24636.48
535.88	24673.93
536.05	24723.08
536.22	24643.50
536.38	24821.38
536.55	24671.59
536.72	25015.65
536.89	24753.51
537.06	24793.29
537.23	24961.81
537.40	25036.71
537.57	24964.15
537.74	24922.02
537.91	25385.45
538.08	25006.28
538.25	24945.43
538.42	25088.20
538.59	25120.97
538.75	24992.24
538.92	25146.72
539.09	25340.98
539.26	25558.65
539.43	25310.55
539.60	25406.52
539.77	25617.16
539.94	25713.13
540.11	25132.67
540.28	25729.51
540.44	25233.32
540.61	25406.52
540.78	25635.89
540.95	25596.10
541.12	25158.42
541.29	25678.02
541.46	25392.47
541.62	25340.98
541.79	25366.73
541.96	25497.80
542.13	25699.08
542.30	26017.40
542.47	25921.43
542.63	26012.71
542.80	25769.30
542.97	26300.60
543.14	26274.85
543.31	26122.72
543.48	26080.59
543.64	26438.69
543.81	26639.98
543.98	26438.69
544.15	26576.78
544.32	26462.10
544.48	26895.10
544.65	26686.79
544.82	26476.14
544.99	26199.96
545.16	26286.56
545.32	26787.43
545.49	26604.87
545.66	26670.40
545.83	26871.69
546.00	27028.51
546.16	26504.23
546.33	26218.68
546.50	26408.26
546.67	26867.01
546.83	27084.68
547.00	26607.21
547.17	26841.26
547.34	26759.34
547.50	26803.82
547.67	27150.21
547.84	26719.56
548.00	27220.43
548.17	27150.21
548.34	27042.55
548.51	27173.62
548.67	27248.52
548.84	27084.68
549.01	27264.90
549.18	27122.13
549.34	26735.94
549.51	26871.69
549.68	27075.32
549.84	27026.17
550.01	27227.45
550.18	26869.35
550.34	27201.71
550.51	27278.94
550.68	27552.79
550.84	27091.70
551.01	27580.87
551.18	27452.14
551.34	27178.30
551.51	27433.42
551.68	27634.71
551.84	27393.63
552.01	27414.69
552.18	27955.36
552.34	27454.48
552.51	27580.87
552.68	27571.51
552.84	27730.67
553.01	27793.86
553.18	27573.85
553.34	27644.07
553.51	27714.28
553.67	27660.45
553.84	27740.03
554.01	27913.23
554.17	27843.01
554.34	27964.72
554.51	27873.44
554.67	27915.57
554.84	27953.02
555.00	27974.08
555.17	27887.48
555.33	28004.51
555.50	27800.88
555.67	28173.03
555.83	27910.89
556.00	27772.80
556.16	28442.19
556.33	28187.07
556.50	27920.25
556.66	28526.45
556.83	28477.30
556.99	28524.11
557.16	28343.89
557.32	28318.14
557.49	28362.61
557.65	28393.04
557.82	28247.93
557.98	28292.40
558.15	28479.64
558.32	28194.09
558.48	28341.55
558.65	28716.03
558.81	28437.51
558.98	28603.69
559.14	28554.54
559.31	28538.15
559.47	28498.36
559.64	28517.09
559.80	28711.35
559.97	28856.46
560.13	28528.79
560.30	28533.47
560.46	28563.90
560.63	28765.18
560.79	28559.22
560.96	28334.53
561.12	28863.49
561.29	28467.94
561.45	28524.11
561.61	28582.62
561.78	29024.98
561.94	29170.10
562.11	28678.58
562.27	28706.67
562.44	28613.05
562.60	28788.59
562.77	29106.90
562.93	28851.78
563.10	29174.78
563.26	28701.99
563.42	29041.37
563.59	28811.99
563.75	28861.15
563.92	28854.12
564.08	28914.98
564.24	28872.85
564.41	28638.80
564.57	28713.69
564.74	28430.49
564.90	29570.33
565.07	28816.68
565.23	29048.39
565.39	29174.78
565.56	29017.96
565.72	29188.82
565.88	28933.70
566.05	28753.48
566.21	29081.16
566.38	29172.44
566.54	29223.93
566.70	29371.38
566.87	29172.44
567.03	29427.56
567.19	29209.89
567.36	29181.80
567.52	28907.96
567.68	29291.80
567.85	29076.48
568.01	29476.71
568.17	29397.13
568.34	29235.63
568.50	29792.68
568.66	29483.73
568.83	29422.87
568.99	29181.80
569.15	29333.93
569.32	28903.28
569.48	28954.77
569.64	29207.55
569.81	29326.91
569.97	29567.99
570.13	29097.54
570.30	29326.91
570.46	29514.16
570.62	29336.27
570.78	29111.58
570.95	29216.91
571.11	29408.83
571.27	28954.77
571.43	29134.99
571.60	29198.18
571.76	29457.98
571.92	29394.79
572.09	29710.76
572.25	29535.22
572.41	29191.16
572.57	29483.73
572.74	29493.09
572.90	29315.21
573.06	29240.31
573.22	29488.41
573.38	29268.40
573.55	29659.27
573.71	29961.20
573.87	29418.19
574.03	29355.00
574.20	29670.97
574.36	29483.73
574.52	29457.98
574.68	29490.75
574.84	29642.88
575.01	29544.58
575.17	29661.61
575.33	29132.65
575.49	29149.03
575.65	29338.62
575.82	29661.61
575.98	29399.47
576.14	29830.13
576.30	29530.54
576.46	29575.01
576.62	29647.57
576.79	29670.97
576.95	29261.38
577.11	29785.66
577.27	29565.65
577.43	29694.38
577.59	29551.60
577.75	29345.64
577.92	29221.59
578.08	29406.49
578.24	29656.93
578.40	29685.01
578.56	29465.00
578.72	29865.24
578.88	30052.48
579.04	29525.86
579.21	29362.02
579.37	29841.83
579.53	29638.20
579.69	29366.70
579.85	29792.68
580.01	29347.98
580.17	29263.72
580.33	29631.18
580.49	29909.71
580.65	29942.47
580.82	29699.06
580.98	29872.26
581.14	29546.92
581.30	29830.13
581.46	29586.71
581.62	29614.80
581.78	29268.40
581.94	29804.38
582.10	29858.21
582.26	29846.51
582.42	29708.42
582.58	29905.02
582.74	29558.63
582.90	29942.47
583.06	29823.11
583.22	29511.81
583.38	29675.65
583.54	29743.53
583.70	29607.78
583.86	29717.78
584.02	29659.27
584.18	29869.92
584.34	29748.21
584.50	30164.82
584.66	29832.47
584.82	29586.71
584.98	29940.13
585.14	29495.43
585.30	29481.39
585.46	29633.52
585.62	29614.80
585.78	29830.13
585.94	29446.28
586.10	30169.51
586.26	29692.04
586.42	30110.99
586.58	30057.16
586.74	29668.63
586.90	29509.47
587.06	29783.32
587.22	29560.97
587.38	29514.16
587.54	29991.62
587.70	29699.06
587.86	29986.94
588.02	30092.27
588.18	30319.30
588.34	30293.55
588.49	30216.32
588.65	30054.82
588.81	30052.48
588.97	29827.79
589.13	29956.52
589.29	30078.22
589.45	30015.03
589.61	29851.19
589.77	30471.43
589.93	30185.89
590.08	30609.53
590.24	30075.88
590.40	30047.80
590.56	30148.44
590.72	29680.33
590.88	29626.50
591.04	30485.48
591.20	30314.62
591.35	30405.90
591.51	30125.04
591.67	30335.68
591.83	30469.09
591.99	30136.74
592.15	29883.96
592.31	30433.99
592.46	29858.21
592.62	29809.06
592.78	30103.97
592.94	30052.48
593.10	29942.47
593.26	30595.48
593.41	30267.81
593.57	30141.42
593.73	30197.59
593.89	30408.24
594.05	30167.16
594.20	29998.65
594.36	30539.31
594.52	30047.80
594.68	30171.85
594.84	30113.33
594.99	30188.23
595.15	30380.15
595.31	30246.74
595.47	30300.58
595.62	30574.42
595.78	30239.72
595.94	30052.48
596.10	30237.38
596.25	30174.19
596.41	30089.93
596.57	29813.74
596.73	30169.51
596.88	30127.38
597.04	30520.59
597.20	30579.10
597.36	30202.27
597.51	30492.50
597.67	30246.74
597.83	30274.83
597.99	30331.00
598.14	30188.23
598.30	30080.56
598.46	29759.91
598.61	30518.25
598.77	30331.00
598.93	30459.73
599.09	30562.72
599.24	30815.49
599.40	30721.87
599.56	30368.45
599.71	30314.62
599.87	30305.26
600.03	30103.97
600.18	30462.07
600.34	30338.02
600.50	30373.13
600.65	30377.81
600.81	30302.92
600.97	30492.50
601.12	30504.20
601.28	30684.42
601.44	30639.95
601.59	30705.49
601.75	30567.40
601.91	30455.05
602.06	30113.33
602.22	30415.26
602.37	30373.13
602.53	30419.94
602.69	30604.84
602.84	30548.67
603.00	30345.05
603.16	30312.28
603.31	30771.02
603.47	30696.13
603.62	30478.46
603.78	30375.47
603.94	30190.57
604.09	30710.17
604.25	30176.53
604.40	30335.68
604.56	30419.94
604.71	30422.28
604.87	30525.27
605.03	30614.21
605.18	30368.45
605.34	30078.22
605.49	29947.15
605.65	30139.08
605.80	29984.60
605.96	30527.61
606.12	30469.09
606.27	30696.13
606.43	30008.01
606.58	30398.88
606.74	30436.33
606.89	30068.86
607.05	30267.81
607.20	30239.72
607.36	30094.61
607.51	30443.35
607.67	30410.58
607.82	30129.72
607.98	30405.90
608.13	30106.31
608.29	30160.14
608.44	30356.75
608.60	30164.82
608.75	30426.96
608.91	30108.65
609.06	29926.09
609.22	30160.14
609.37	30003.33
609.53	29858.21
609.68	30129.72
609.84	30160.14
609.99	30033.75
610.15	29862.90
610.30	30134.40
610.46	30157.80
610.61	30417.60
610.76	30078.22
610.92	30017.37
611.07	30057.16
611.23	30120.35
611.38	29898.00
611.54	29996.31
611.69	29694.38
611.84	29689.70
612.00	29947.15
612.15	29745.87
612.31	29907.37
612.46	30096.95
612.62	29993.97
612.77	30061.84
612.92	29963.54
613.08	29876.94
613.23	29521.18
613.39	29614.80
613.54	29614.80
613.69	30108.65
613.85	29535.22
614.00	29511.81
614.15	29642.88
614.31	30005.67
614.46	30057.16
614.62	29345.64
614.77	29914.39
614.92	30244.40
615.08	29645.23
615.23	29769.27
615.38	29612.46
615.54	29450.96
615.69	29773.95
615.84	29610.12
616.00	29677.99
616.15	29743.53
616.30	29600.76
616.46	29825.45
616.61	29853.53
616.76	29708.42
616.92	29652.25
617.07	29677.99
617.22	29743.53
617.37	29383.09
617.53	29453.30
617.68	29703.74
617.83	29198.18
617.99	29085.84
618.14	29535.22
618.29	29369.04
618.45	29453.30
618.60	29291.80
618.75	29523.52
618.90	29319.89
619.06	29249.67
619.21	29680.33
619.36	29654.59
619.51	28835.40
619.67	28971.15
619.82	29532.88
619.97	29214.57
620.12	29132.65
620.28	29252.02
620.43	29022.64
620.58	28870.51
620.73	29170.10
620.89	28950.09
621.04	29085.84
621.19	29488.41
621.34	29237.97
621.49	29024.98
621.65	29160.73
621.80	29294.14
621.95	28709.01
622.10	28994.56
622.25	28877.53
622.41	29109.24
622.56	28816.68
622.71	28999.24
622.86	28952.43
623.01	28961.79
623.16	28776.89
623.32	28678.58
623.47	29113.92
623.62	28870.51
623.77	29008.60
623.92	28627.09
624.07	28683.27
624.23	28526.45
624.38	28807.31
624.53	28699.65
624.68	28811.99
624.83	28929.02
624.98	29357.34
625.13	29001.58
625.29	28910.30
625.44	28290.06
625.59	28474.96
625.74	28596.67
625.89	28762.84
626.04	28968.81
626.19	28758.16
626.34	28261.97
626.49	28259.63
626.65	28505.38
626.80	28643.48
626.95	28280.69
627.10	28191.75
627.25	28575.60
627.40	28261.97
627.55	28093.45
627.70	28126.22
627.85	28353.25
628.00	28245.58
628.15	28182.39
628.30	28091.11
628.45	28154.30
628.60	28554.54
628.76	28357.93
628.91	28746.46
629.06	28400.06
629.21	28629.43
629.36	28395.38
629.51	27637.05
629.66	28304.10
629.81	27946.00
629.96	28065.36
630.11	28044.30
630.26	28407.08
630.41	27817.27
630.56	27754.07
630.71	28093.45
630.86	28273.67
631.01	27931.95
631.16	28425.81
631.31	27999.83
631.46	27957.70
631.61	28100.47
631.76	27843.01
631.91	27894.50
632.06	27625.34
632.21	27915.57
632.36	27990.47
632.51	27810.25
632.66	27866.42
632.81	27264.90
632.96	27292.99
633.10	27913.23
633.25	27611.30
633.40	27807.90
633.55	27573.85
633.70	27419.38
633.85	27452.14
634.00	27637.05
634.15	27725.99
634.30	27297.67
634.45	27711.94
634.60	27232.13
634.75	27496.61
634.90	27520.02
635.05	27288.31
635.19	27690.88
635.34	27761.09
635.49	27559.81
635.64	27555.13
635.79	27524.70
635.94	27489.59
636.09	27718.96
636.24	27335.12
636.39	27222.77
636.53	27175.96
636.68	27080.00
636.83	27683.86
636.98	27391.29
637.13	27379.59
637.28	27328.10
637.43	27529.38
637.57	27433.42
637.72	27040.21
637.87	27419.38
638.02	26869.35
638.17	27206.39
638.32	27161.92
638.46	27206.39
638.61	26859.99
638.76	26820.20
638.91	27175.96
639.06	26993.40
639.20	27094.04
639.35	26991.06
639.50	27365.54
639.65	27257.88
639.80	27372.57
639.94	27021.48
640.09	27187.66
640.24	27021.48
640.39	26962.97
640.54	27009.78
640.68	26728.92
640.83	27030.85
640.98	26712.53
641.13	26382.52
641.27	26796.79
641.42	27236.81
641.57	26829.56
641.72	26836.58
641.86	26518.27
642.01	26710.19
642.16	26429.33
642.31	26312.30
642.45	26927.86
642.60	26684.45
642.75	26281.88
642.90	26436.35
643.04	26682.11
643.19	26508.91
643.34	26515.93
643.48	26511.25
643.63	26597.85
643.78	26824.88
643.93	26305.28
644.07	26668.06
644.22	26515.93
644.37	26677.43
644.51	26499.55
644.66	26700.83
644.81	26199.96
644.95	26480.82
645.10	26202.30
645.25	26384.86
645.39	26216.34
645.54	26230.38
645.69	26267.83
645.83	26305.28
645.98	26164.85
646.13	26581.46
646.27	26216.34
646.42	26279.54
646.57	26302.94
646.71	26284.22
646.86	26286.56
647.00	26059.52
647.15	26141.44
647.30	26026.76
647.44	25998.67
647.59	25790.36
647.74	25619.50
647.88	25914.41
648.03	26047.82
648.17	26066.55
648.32	26265.49
648.47	26312.30
648.61	26183.57
648.76	26111.02
648.90	26167.19
649.05	26101.65
649.20	26136.76
649.34	25649.93
649.49	25968.24
649.63	25530.56
649.78	26155.49
649.92	25617.16
650.07	26139.10
650.21	25926.11
650.36	25813.77
650.51	25558.65
650.65	25661.63
650.80	25806.75
650.94	25804.41
651.09	25497.80
651.23	25781.00
651.38	25745.89
651.52	25572.69
651.67	25343.32
651.81	25673.34
651.96	25851.22
652.10	25401.83
652.25	25701.42
652.39	25565.67
652.54	25652.27
652.68	25940.16
652.83	25701.42
652.97	25647.59
653.12	25661.63
653.26	25502.48
653.41	25968.24
653.55	25450.99
653.70	25287.15
653.84	25434.60
653.99	25649.93
654.13	25441.62
654.27	25593.76
654.42	25118.63
654.56	25205.23
654.71	25179.48
654.85	25743.55
655.00	25413.54
655.14	25483.75
655.29	25418.22
655.43	25151.40
655.57	25584.40
655.72	25235.66
655.86	24847.13
656.01	25163.10
656.15	24812.02
656.30	25399.49
656.44	25362.04
656.58	25069.48
656.73	25305.87
656.87	25357.36
657.01	25120.97
657.16	25085.86
657.30	25692.06
657.45	25163.10
657.59	25277.79
657.73	25092.88
657.88	25296.51
658.02	24985.22
658.16	25039.05
658.31	25036.71
658.45	24905.64
658.60	25092.88
658.74	24673.93
658.88	24903.30
659.03	24795.64
659.17	24790.95
659.31	24889.26
659.46	24620.10
659.60	24709.04
659.74	24910.32
659.89	24390.72
660.03	24790.95
660.17	24755.85
660.32	24805.00
660.46	24823.72
660.60	24236.25
660.74	24559.24
660.89	24350.93
661.03	24093.47
661.17	24486.68
661.32	23913.25
661.46	24613.07
661.60	24367.32
661.74	24446.90
661.89	24247.95
662.03	24552.22
662.17	24180.07
662.31	24046.66
662.46	24013.90
662.60	24166.03
662.74	23840.70
662.88	23735.37
663.03	23761.12
663.17	23723.67
663.31	23489.62
663.45	23463.87
663.60	23983.47
663.74	23662.82
663.88	23779.84
664.02	23616.01
664.17	23931.98
664.31	23744.73
664.45	23531.75
664.59	23473.23
664.73	23623.03
664.88	23552.81
665.02	23325.78
665.16	23419.40
665.30	23344.50
665.44	23527.06
665.59	23447.49
665.73	23199.39
665.87	23098.75
666.01	23641.75
666.15	23110.45
666.29	23002.78
666.44	23358.55
666.58	23351.52
666.72	23309.40
666.86	23290.67
667.00	23367.91
667.14	22714.90
667.28	22885.76
667.43	22848.31
667.57	23112.79
667.71	22677.45
667.85	23033.21
667.99	22581.49
668.13	22630.64
668.27	22607.23
668.41	22911.50
668.56	22537.02
668.70	22625.96
668.84	22632.98
668.98	22661.07
669.12	23073.00
669.26	22796.82
669.40	22602.55
669.54	22576.81
669.68	22300.62
669.82	22368.50
669.96	22427.01
670.10	22174.24
670.25	22410.63
670.39	22237.43
670.53	21991.67
670.67	21977.63
670.81	22279.56
670.95	22073.59
671.09	22256.15
671.23	22347.44
671.37	22476.16
671.51	22312.33
671.65	21841.88
671.79	22104.02
671.93	21891.03
672.07	21572.72
672.21	21820.81
672.35	21940.18
672.49	21635.91
672.63	21642.93
672.77	21584.42
672.91	21495.48
673.05	21411.22
673.19	21504.84
673.33	21703.79
673.47	21371.43
673.61	21593.78
673.75	21652.30
673.89	21642.93
674.03	21425.26
674.17	20893.96
674.31	21144.40
674.45	21280.15
674.59	21289.51
674.73	21170.15
674.87	21223.98
675.01	20926.73
675.15	20655.23
675.29	20699.70
675.43	20919.71
675.56	20835.45
675.70	20858.85
675.84	20793.32
675.98	20159.03
676.12	21025.03
676.26	20772.25
676.40	20711.40
676.54	20343.94
676.68	20821.41
676.82	20247.97
676.96	20423.51
677.10	20369.68
677.23	20039.67
677.37	19803.27
677.51	19983.49
677.65	20514.80
677.79	20044.35
677.93	19772.85
678.07	19836.04
678.21	19726.04
678.34	19875.83
678.48	19328.14
678.62	19545.81
678.76	19541.13
678.90	19889.87
679.04	19426.45
679.18	19431.13
679.31	19274.31
679.45	19185.37
679.59	19222.82
679.73	19077.71
679.87	19129.20
680.00	18759.39
680.14	19183.03
680.28	18899.83
680.42	18927.91
680.56	18883.44
680.70	18703.22
680.83	18890.46
680.97	18801.52
681.11	18803.86
681.25	18642.37
681.39	18782.80
681.52	18775.78
681.66	18347.46
681.80	18511.30
681.94	18335.76
682.07	18132.13
682.21	18317.03
682.35	18162.56
682.49	17902.76
682.62	18122.77
682.76	18045.53
682.90	18104.04
683.04	17832.54
683.17	18047.87
683.31	17933.18
683.45	17921.48
683.59	17881.69
683.72	17642.96
683.86	18026.81
684.00	17556.36
684.13	17624.23
684.27	17596.15
684.41	17479.12
684.55	17369.12
684.68	17132.72
684.82	17195.92
684.96	17247.41
685.09	16926.75
685.23	16924.41
685.37	17018.04
685.50	17142.08
685.64	16933.78
685.78	16690.36
685.91	16973.56
686.05	16896.33
686.19	16638.87
686.32	16711.42
686.46	16568.65
686.60	16505.46
686.73	16617.80
686.87	16486.73
687.01	16219.91
687.14	16528.86
687.28	16095.86
687.42	16203.53
687.55	16044.37
687.69	16091.18
687.82	16194.17
687.96	15908.62
688.10	15943.73
688.23	16035.01
688.37	15927.35
688.50	15784.57
688.64	15857.13
688.78	15583.29
688.91	15456.90
689.05	15405.41
689.18	15602.01
689.32	15234.55
689.46	15360.94
689.59	15246.25
689.73	15360.94
689.86	15412.43
690.00	14883.47
690.13	15281.36
690.27	15030.92
690.41	14941.98
690.54	14867.08
690.68	15070.71
690.81	15222.84
690.95	14995.81
691.08	14829.63
691.22	14932.62
691.35	14850.70
691.49	14808.57
691.62	14827.29
691.76	14366.21
691.89	14677.50
692.03	14492.60
692.16	14188.33
692.30	14188.33
692.43	14398.98
692.57	14143.86
692.70	14071.30
692.84	14167.26
692.97	13982.36
693.11	13977.68
693.24	13813.84
693.38	13776.39
693.51	14092.37
693.65	13760.01
693.78	13994.06
693.92	13926.19
694.05	13720.22
694.19	13469.78
694.32	13589.15
694.45	13502.55
694.59	13479.15
694.72	13378.50
694.86	13043.81
694.99	12931.46
695.13	13151.47
695.26	13088.28
695.39	13245.09
695.53	13266.16
695.66	12964.23
695.80	12840.18
695.93	12968.91
696.07	13043.81
696.20	12947.84
696.33	13036.78
696.47	12894.01
696.60	12566.34
696.73	12512.50
696.87	12589.74
697.00	12559.31
697.14	12603.78
697.27	12571.02
697.40	12351.01
697.54	12397.82
697.67	12311.22
697.80	12264.41
697.94	12105.25
698.07	11988.22
698.21	11887.58
698.34	11885.24
698.47	11983.54
698.61	12002.27
698.74	11962.48
698.87	12140.36
699.01	11698.00
699.14	11779.92
699.27	11756.51
699.40	11765.87
699.54	11726.08
699.67	11524.80
699.80	11253.30
699.94	11375.00
700.07	11405.43
700.20	11307.13
700.34	11176.06
700.47	11274.36
700.60	11166.70
700.73	11281.38
700.87	11302.45
701.00	10995.84
701.13	10829.66
701.26	10888.17
701.40	11218.19
701.53	11009.88
701.66	10925.62
701.79	10764.12
701.93	10829.66
702.06	10656.46
702.19	10408.36
702.32	10621.35
702.46	10576.88
702.59	10633.05
702.72	10663.48
702.85	10328.78
702.99	10286.65
703.12	10389.64
703.25	10403.68
703.38	10256.23
703.51	10277.29
703.65	10319.42
703.78	10310.06
703.91	10097.07
704.04	10188.35
704.17	10143.88
704.31	10193.03
704.44	9933.23
704.57	9832.59
704.70	9844.29
704.83	9614.92
704.96	9724.93
705.10	9809.19
705.23	9650.03
>>>>>End Processed Spectral Data<<<<<
