SpectraSuite Data File
++++++++++++++++++++++++++++++++++++
Date: Fri Oct 18 13:58:23 GMT-05:00 2013
User: bianchi
Dark Spectrum Present: No
Reference Spectrum Present: No
Number of Sampled Component Spectra: 1
Spectrometers: USB2+H05261
Integration Time (usec): 50000 (USB2+H05261)
Spectra Averaged: 1 (USB2+H05261)
Boxcar Smoothing: 0 (USB2+H05261)
Correct for Electrical Dark: No (USB2+H05261)
Strobe/Lamp Enabled: No (USB2+H05261)
Correct for Detector Non-linearity: No (USB2+H05261)
Correct for Stray Light: No (USB2+H05261)
Number of Pixels in Processed Spectrum: 2048
>>>>>Begin Processed Spectral Data<<<<<
365.73	0.00
365.92	0.00
366.12	0.00
366.32	0.00
366.52	0.00
366.72	0.00
366.91	0.00
367.11	0.00
367.31	0.00
367.51	0.00
367.70	0.00
367.90	0.00
368.10	0.00
368.30	0.00
368.49	0.00
368.69	0.00
368.89	0.00
369.09	0.00
369.28	0.00
369.48	0.00
369.68	0.00
369.87	0.00
370.07	0.00
370.27	0.00
370.47	0.00
370.66	30.43
370.86	88.94
371.06	180.22
371.25	154.48
371.45	159.16
371.65	147.45
371.84	70.22
372.04	105.32
372.24	149.79
372.44	152.13
372.63	196.60
372.83	198.95
373.03	189.58
373.22	222.35
373.42	259.80
373.62	198.95
373.81	210.65
374.01	245.76
374.21	224.69
374.40	212.99
374.60	297.25
374.79	198.95
374.99	250.44
375.19	306.61
375.38	278.52
375.58	262.14
375.78	241.08
375.97	250.44
376.17	297.25
376.37	278.52
376.56	236.39
376.76	299.59
376.95	313.63
377.15	266.82
377.35	262.14
377.54	227.03
377.74	322.99
377.93	215.33
378.13	238.73
378.33	269.16
378.52	276.18
378.72	283.20
378.91	283.20
379.11	278.52
379.31	217.67
379.50	229.37
379.70	292.57
379.89	330.02
380.09	220.01
380.28	301.93
380.48	280.86
380.68	325.33
380.87	285.55
381.07	325.33
381.26	308.95
381.46	285.55
381.65	348.74
381.85	304.27
382.04	344.06
382.24	320.65
382.43	330.02
382.63	320.65
382.83	362.78
383.02	301.93
383.22	337.04
383.41	369.80
383.61	425.98
383.80	372.15
384.00	332.36
384.19	379.17
384.39	407.25
384.58	425.98
384.78	393.21
384.97	404.91
385.17	393.21
385.36	358.10
385.56	374.49
385.75	339.38
385.95	437.68
386.14	411.93
386.34	372.15
386.53	451.72
386.72	404.91
386.92	414.27
387.11	444.70
387.31	327.68
387.50	304.27
387.70	470.45
387.89	423.64
388.09	418.96
388.28	458.74
388.48	449.38
388.67	449.38
388.86	360.44
389.06	416.62
389.25	402.57
389.45	472.79
389.64	430.66
389.84	402.57
390.03	486.83
390.22	390.87
390.42	470.45
390.61	484.49
390.81	524.28
391.00	538.32
391.19	521.94
391.39	491.51
391.58	526.62
391.78	535.98
391.97	498.53
392.16	512.58
392.36	540.66
392.55	437.68
392.75	528.96
392.94	500.87
393.13	526.62
393.33	608.54
393.52	589.82
393.71	575.77
393.91	547.69
394.10	550.03
394.29	554.71
394.49	676.41
394.68	615.56
394.88	627.26
395.07	554.71
395.26	512.58
395.46	631.94
395.65	622.58
395.84	631.94
396.04	653.01
396.23	606.20
396.42	641.31
396.62	601.52
396.81	681.10
397.00	723.23
397.19	624.92
397.39	638.97
397.58	667.05
397.77	645.99
397.97	709.18
398.16	753.65
398.35	718.54
398.55	699.82
398.74	676.41
398.93	763.01
399.12	685.78
399.32	720.88
399.51	791.10
399.70	821.53
399.90	725.57
400.09	741.95
400.28	784.08
400.47	732.59
400.67	802.80
400.86	772.38
401.05	772.38
401.24	809.83
401.44	770.04
401.63	718.54
401.82	734.93
402.01	777.06
402.21	877.70
402.40	858.98
402.59	894.08
402.78	851.96
402.97	833.23
403.17	882.38
403.36	877.70
403.55	823.87
403.74	917.49
403.93	990.05
404.13	889.40
404.32	896.43
404.51	830.89
404.70	940.90
404.89	915.15
405.09	926.85
405.28	940.90
405.47	966.64
405.66	1008.77
405.85	1008.77
406.05	994.73
406.24	945.58
406.43	978.34
406.62	1029.84
406.81	1029.84
407.00	1018.13
407.20	1041.54
407.39	936.21
407.58	1055.58
407.77	1130.48
407.96	1107.07
408.15	1067.28
408.34	1086.01
408.54	1139.84
408.73	1132.82
408.92	1235.80
409.11	1118.78
409.30	1226.44
409.49	1107.07
409.68	1191.33
409.87	1043.88
410.07	1135.16
410.26	1174.95
410.45	1146.86
410.64	1196.01
410.83	1235.80
411.02	1282.61
411.21	1228.78
411.40	1191.33
411.59	1280.27
411.78	1238.14
411.98	1256.87
412.17	1224.10
412.36	1203.04
412.55	1369.21
412.74	1369.21
412.93	1399.64
413.12	1303.68
413.31	1472.20
413.50	1341.13
413.69	1282.61
413.88	1446.45
414.07	1406.66
414.26	1418.36
414.45	1446.45
414.64	1474.54
414.83	1579.86
415.02	1490.92
415.22	1533.05
415.41	1671.14
415.60	1621.99
415.79	1629.01
415.98	1540.07
416.17	1554.12
416.36	1582.20
416.55	1650.08
416.74	1621.99
416.93	1565.82
417.12	1689.87
417.31	1659.44
417.50	1746.04
417.69	1816.26
417.88	1806.89
418.07	1703.91
418.26	1790.51
418.45	1830.30
418.64	1783.49
418.83	1830.30
419.02	1820.94
419.21	1872.43
419.39	1902.86
419.58	1792.85
419.77	1834.98
419.96	1891.15
420.15	1870.09
420.34	1825.62
420.53	1891.15
420.72	1923.92
420.91	1891.15
421.10	1893.49
421.29	1952.01
421.48	1926.26
421.67	2043.29
421.86	1891.15
422.05	2033.93
422.24	1893.49
422.43	1942.64
422.61	2008.18
422.80	2015.20
422.99	2062.01
423.18	1928.60
423.37	2024.56
423.56	2104.14
423.75	2062.01
423.94	2003.50
424.13	1930.94
424.32	1834.98
424.50	1935.62
424.69	2036.27
424.88	1982.43
425.07	2045.63
425.26	1916.90
425.45	1930.94
425.64	1970.73
425.83	2029.24
426.01	2064.35
426.20	2057.33
426.39	1994.14
426.58	1994.14
426.77	2108.82
426.96	2054.99
427.15	2059.67
427.33	2043.29
427.52	2050.31
427.71	2169.68
427.90	2143.93
428.09	2150.95
428.28	2216.49
428.46	2235.21
428.65	2162.66
428.84	2312.45
429.03	2293.72
429.22	2214.15
429.40	2249.25
429.59	2293.72
429.78	2146.27
429.97	2122.87
430.16	2286.70
430.34	2408.41
430.53	2263.30
430.72	2356.92
430.91	2293.72
431.10	2333.51
431.28	2427.14
431.47	2307.77
431.66	2434.16
431.85	2347.56
432.03	2335.85
432.22	2476.29
432.41	2462.24
432.60	2478.63
432.79	2434.16
432.97	2532.46
433.16	2466.92
433.35	2420.11
433.54	2495.01
433.72	2445.86
433.91	2513.74
434.10	2509.05
434.28	2525.44
434.47	2626.08
434.66	2644.81
434.85	2602.68
435.03	2656.51
435.22	2511.39
435.41	2722.04
435.59	2523.10
435.78	2633.10
435.97	2640.12
436.16	2586.29
436.34	2717.36
436.53	2691.62
436.72	2764.17
436.90	2518.42
437.09	2778.22
437.28	2696.30
437.46	2747.79
437.65	2726.72
437.84	2810.98
438.02	2799.28
438.21	2839.07
438.40	2719.70
438.58	3021.63
438.77	3059.08
438.96	2951.42
439.14	2876.52
439.33	2963.12
439.52	2986.52
439.70	2923.33
439.89	2972.48
440.08	3091.85
440.26	2995.89
440.45	3052.06
440.63	2998.23
440.82	3073.12
441.01	2988.86
441.19	3253.34
441.38	3145.68
441.57	3197.17
441.75	3141.00
441.94	3227.60
442.12	3258.03
442.31	3314.20
442.50	3332.92
442.68	3265.05
442.87	3318.88
443.05	3293.13
443.24	3414.84
443.43	3375.05
443.61	3349.31
443.80	3566.98
443.98	3515.48
444.17	3325.90
444.35	3463.99
444.54	3361.01
444.73	3386.76
444.91	3531.87
445.10	3382.07
445.28	3461.65
445.47	3332.92
445.65	3433.57
445.84	3447.61
446.02	3435.91
446.21	3520.17
446.39	3543.57
446.58	3410.16
446.77	3494.42
446.95	3393.78
447.14	3433.57
447.32	3410.16
447.51	3424.20
447.69	3424.20
447.88	3501.44
448.06	3576.34
448.25	3655.92
448.43	3475.70
448.62	3541.23
448.80	3478.04
448.99	3480.38
449.17	3559.95
449.36	3569.32
449.54	3627.83
449.73	3702.73
449.91	3669.96
450.10	3625.49
450.28	3634.85
450.46	3674.64
450.65	3761.24
450.83	3679.32
451.02	3698.05
451.20	3726.13
451.39	3847.84
451.57	3723.79
451.76	3803.37
451.94	3803.37
452.13	3880.61
452.31	3765.92
452.49	3784.65
452.68	3880.61
452.86	3824.44
453.05	3826.78
453.23	3885.29
453.42	3943.80
453.60	3742.52
453.78	3946.14
453.97	3955.51
454.15	3974.23
454.34	3974.23
454.52	3946.14
454.70	3957.85
454.89	3922.74
455.07	3932.10
455.26	4021.04
455.44	4163.81
455.62	4063.17
455.81	4018.70
455.99	4194.24
456.17	4208.28
456.36	4051.47
456.54	4397.87
456.73	4138.07
456.91	4428.29
457.09	4243.39
457.28	4365.10
457.46	4304.25
457.64	4388.50
457.83	4219.99
458.01	4402.55
458.19	4404.89
458.38	4451.70
458.56	4409.57
458.74	4311.27
458.93	4552.34
459.11	4498.51
459.29	4346.37
459.48	4552.34
459.66	4568.73
459.84	4540.64
460.03	4643.62
460.21	4559.36
460.39	4552.34
460.57	4465.74
460.76	4702.14
460.94	4624.90
461.12	4650.64
461.31	4580.43
461.49	4557.02
461.67	4519.57
461.85	4795.76
462.04	4727.88
462.22	4760.65
462.40	4699.80
462.59	4798.10
462.77	4601.49
462.95	4741.93
463.13	4748.95
463.32	4898.74
463.50	4978.32
463.68	4943.21
463.86	4863.63
464.05	4791.08
464.23	4936.19
464.41	4915.12
464.59	4875.34
464.78	5071.94
464.96	4929.17
465.14	4805.12
465.32	4905.76
465.50	4943.21
465.69	4999.38
465.87	4999.38
466.05	5020.45
466.23	5027.47
466.41	4985.34
466.60	5149.18
466.78	5034.49
466.96	5076.62
467.14	5093.01
467.32	5188.97
467.51	5158.54
467.69	4903.42
467.87	5224.08
468.05	5294.29
468.23	5181.95
468.41	5057.90
468.60	5118.75
468.78	5298.97
468.96	5193.65
469.14	5282.59
469.32	5195.99
469.50	5217.05
469.69	5317.70
469.87	5364.51
470.05	5373.87
470.23	5408.98
470.41	5313.02
470.59	5315.36
470.77	5481.53
470.95	5404.30
471.14	5589.20
471.32	5423.02
471.50	5678.14
471.68	5610.26
471.86	5612.60
472.04	5811.55
472.22	5816.23
472.40	5589.20
472.58	5687.50
472.77	5621.97
472.95	5741.33
473.13	5973.05
473.31	5624.31
473.49	5846.66
473.67	5872.40
473.85	5809.21
474.03	5881.77
474.21	6064.33
474.39	6038.58
474.57	6083.05
474.75	6064.33
474.93	6090.07
475.12	6092.41
475.30	6118.16
475.48	6225.82
475.66	6207.10
475.84	6256.25
476.02	6204.76
476.20	6464.56
476.38	6504.35
476.56	6602.65
476.74	6719.68
476.92	6499.67
477.10	6537.12
477.28	6569.88
477.46	6462.22
477.64	6682.23
477.82	6895.22
478.00	6848.41
478.18	6766.49
478.36	6881.18
478.54	7007.56
478.72	7150.34
478.90	7087.14
479.08	7243.96
479.26	7232.26
479.44	7295.45
479.62	7349.28
479.80	7265.02
479.98	7581.00
480.16	7606.74
480.34	7508.44
480.52	7779.94
480.70	7674.62
480.88	7414.82
481.06	7803.35
481.24	7829.09
481.41	7770.58
481.59	7770.58
481.77	7845.48
481.95	8058.46
482.13	7934.42
482.31	8212.94
482.49	8145.06
482.67	8086.55
482.85	8432.95
483.03	8559.34
483.21	8657.64
483.39	8634.24
483.57	8624.87
483.74	8641.26
483.92	8564.02
484.10	8798.07
484.28	8786.37
484.46	8910.42
484.64	9163.20
484.82	8959.57
485.00	9057.87
485.18	9308.31
485.35	9423.00
485.53	9198.31
485.71	9394.91
485.89	9624.28
486.07	9621.94
486.25	9495.55
486.43	9598.54
486.61	9741.31
486.78	9867.70
486.96	9858.34
487.14	10143.88
487.32	10071.33
487.50	10169.63
487.68	10122.82
487.85	10321.76
488.03	10441.13
488.21	10548.79
488.39	10553.48
488.57	10714.97
488.75	10682.20
488.92	10878.81
489.10	11119.89
489.28	10876.47
489.46	11037.97
489.64	10944.34
489.81	11246.27
489.99	11314.15
490.17	11477.99
490.35	11323.51
490.53	11522.46
490.70	11576.29
490.88	11496.71
491.06	11808.00
491.24	11730.76
491.41	11824.39
491.59	11908.65
491.77	11962.48
491.95	12049.08
492.13	12161.42
492.30	12152.06
492.48	12168.45
492.66	12112.27
492.84	12411.86
493.01	12564.00
493.19	12575.70
493.37	12601.44
493.54	12697.41
493.72	13041.46
493.90	12753.58
494.08	12950.18
494.25	13083.59
494.43	13074.23
494.61	12985.29
494.79	13261.48
494.96	13390.20
495.14	13462.76
495.32	13584.47
495.49	13556.38
495.67	13724.90
495.85	13624.26
496.02	14008.11
496.20	14010.45
496.38	13666.39
496.55	13783.41
496.73	14286.63
496.91	14183.65
497.09	14178.97
497.26	14504.30
497.44	14216.41
497.62	14218.75
497.79	14497.28
497.97	14473.87
498.14	14897.51
498.32	14939.64
498.50	14876.44
498.67	15000.49
498.85	14918.57
499.03	14757.08
499.20	15339.87
499.38	15040.28
499.56	14979.43
499.73	15384.34
499.91	15377.32
500.08	15412.43
500.26	15438.17
500.44	15442.85
500.61	15529.45
500.79	15419.45
500.97	15637.12
501.14	15873.51
501.32	16002.24
501.49	15524.77
501.67	15833.72
501.84	15754.15
502.02	15925.00
502.20	15761.17
502.37	16306.51
502.55	16191.83
502.72	16250.34
502.90	16421.20
503.07	16507.80
503.25	16383.75
503.43	16360.34
503.60	16535.88
503.78	16533.54
503.95	16435.24
504.13	16753.55
504.30	16678.66
504.48	16671.64
504.65	16652.91
504.83	16840.15
505.01	16889.31
505.18	16802.71
505.36	17411.25
505.53	17191.23
505.71	17118.68
505.88	16999.31
506.06	17060.16
506.23	17186.55
506.41	17163.15
506.58	17488.48
506.76	17336.35
506.93	17591.47
507.11	17509.55
507.28	17547.00
507.46	17638.28
507.63	17762.33
507.81	17755.30
507.98	17603.17
508.16	17813.82
508.33	17745.94
508.50	17844.24
508.68	18113.41
508.85	18274.90
509.03	18064.25
509.20	18200.01
509.38	18443.42
509.55	18001.06
509.73	18391.93
509.90	18279.58
510.08	18366.18
510.25	18375.55
510.42	18853.02
510.60	18867.06
510.77	18822.59
510.95	18984.09
511.12	18752.37
511.30	18810.89
511.47	18625.98
511.64	18937.27
511.82	18906.85
511.99	18946.64
512.17	19229.84
512.34	18979.40
512.51	19234.52
512.69	19360.91
512.86	18857.70
513.04	19307.08
513.21	19421.77
513.38	19372.61
513.56	19477.94
513.73	19253.25
513.90	19517.73
514.08	19609.01
514.25	19580.92
514.43	19609.01
514.60	19906.26
514.77	19695.61
514.95	20034.99
515.12	19967.11
515.29	19826.68
515.47	20044.35
515.64	19985.83
515.81	20077.12
515.99	20383.73
516.16	20159.03
516.33	20271.38
516.51	20336.91
516.68	20446.92
516.85	20313.51
517.03	20472.67
517.20	20673.95
517.37	20458.62
517.54	20540.54
517.72	20809.70
517.89	20573.31
518.06	20477.35
518.24	20264.36
518.41	20762.89
518.58	20697.36
518.75	20659.91
518.93	21123.33
519.10	20943.11
519.27	21104.61
519.45	20786.30
519.62	21186.53
519.79	21104.61
519.96	21380.79
520.14	21291.85
520.31	21032.05
520.48	21221.64
520.65	21411.22
520.83	21488.46
521.00	21228.66
521.17	21226.32
521.34	21352.71
521.52	21507.18
521.69	21518.89
521.86	21825.50
522.03	21872.31
522.20	21647.61
522.38	21745.92
522.55	21745.92
522.72	21982.31
522.89	21860.60
523.07	22118.06
523.24	22279.56
523.41	22211.68
523.58	22101.68
523.75	22377.86
523.92	22253.81
524.10	22057.21
524.27	22518.29
524.44	22515.95
524.61	22780.43
524.78	22630.64
524.96	22721.92
525.13	22511.27
525.30	22733.62
525.47	22452.76
525.64	22616.60
525.81	22752.35
525.98	22583.83
526.16	22675.11
526.33	22773.41
526.50	22834.27
526.67	22714.90
526.84	22728.94
527.01	22441.06
527.18	22939.59
527.36	23084.70
527.53	23194.71
527.70	23417.06
527.87	23297.69
528.04	23393.65
528.21	23152.58
528.38	23157.26
528.55	23709.63
528.72	23131.51
528.89	23438.12
529.07	23236.84
529.24	23166.62
529.41	23494.30
529.58	23400.68
529.75	23690.90
529.92	23847.72
530.09	23714.31
530.26	23618.35
530.43	23770.48
530.60	24065.39
530.77	23992.83
530.94	23721.33
531.11	23836.02
531.28	23442.81
531.46	24081.77
531.63	23620.69
531.80	23831.33
531.97	24285.40
532.14	24201.14
532.31	23828.99
532.48	24407.11
532.65	23976.45
532.82	24306.46
532.99	24077.09
533.16	24006.87
533.33	24547.54
533.50	24734.78
533.67	24226.89
533.84	24194.12
534.01	24283.06
534.18	24166.03
534.35	24903.30
534.52	24521.79
534.69	24900.96
534.86	24856.49
535.03	24421.15
535.20	24760.53
535.37	24996.92
535.54	25109.27
535.71	24680.95
535.88	24973.52
536.05	24905.64
536.22	24863.51
536.38	25025.01
536.55	25078.84
536.72	25219.27
536.89	24692.65
537.06	24968.84
537.23	25149.06
537.40	25238.00
537.57	24699.67
537.74	25296.51
537.91	25720.15
538.08	25118.63
538.25	25319.92
538.42	25638.23
538.59	25242.68
538.75	25238.00
538.92	25294.17
539.09	25453.33
539.26	25474.39
539.43	25507.16
539.60	25507.16
539.77	25523.54
539.94	25518.86
540.11	25965.90
540.28	25504.82
540.44	25521.20
540.61	25874.62
540.78	25708.44
540.95	25949.52
541.12	25614.82
541.29	25340.98
541.46	25652.27
541.62	25689.72
541.79	25825.47
541.96	25811.43
542.13	25848.88
542.30	26094.63
542.47	26008.03
542.63	26153.15
542.80	26206.98
542.97	26349.75
543.14	26595.51
543.31	25851.22
543.48	26075.91
543.64	26356.77
543.81	26452.73
543.98	26551.04
544.15	26897.44
544.32	26476.14
544.48	26862.33
544.65	26555.72
544.82	26665.72
544.99	26544.02
545.16	26618.91
545.32	26546.36
545.49	26965.31
545.66	26991.06
545.83	27072.98
546.00	26993.40
546.16	26635.30
546.33	26848.29
546.50	26623.59
546.67	27068.30
546.83	26600.19
547.00	26955.95
547.17	26939.57
547.34	26752.32
547.50	27452.14
547.67	26930.20
547.84	27328.10
548.00	27190.00
548.17	27290.65
548.34	26906.80
548.51	27124.47
548.67	27435.76
548.84	27428.74
549.01	27487.25
549.18	27105.74
549.34	27285.97
549.51	27227.45
549.68	27278.94
549.84	27311.71
550.01	27480.23
550.18	27250.86
550.34	27335.12
550.51	27711.94
550.68	27601.94
550.84	27033.19
551.01	27440.44
551.18	27594.92
551.34	27194.68
551.51	27358.52
551.68	27873.44
551.84	27936.63
552.01	27974.08
552.18	28098.13
552.34	27370.22
552.51	27805.56
552.68	27765.78
552.84	27681.52
553.01	28247.93
553.18	27864.08
553.34	28072.39
553.51	28250.27
553.67	28006.85
553.84	28545.17
554.01	28006.85
554.17	28020.89
554.34	28215.16
554.51	28070.04
554.67	27756.41
554.84	28144.94
555.00	28257.29
555.17	27812.59
555.33	28091.11
555.50	28004.51
555.67	28098.13
555.83	28212.82
556.00	28175.37
556.16	28442.19
556.33	28329.84
556.50	28400.06
556.66	28278.35
556.83	28430.49
556.99	28404.74
557.16	28662.20
557.32	28318.14
557.49	28584.96
557.65	28133.24
557.82	28458.57
557.98	28472.62
558.15	28739.44
558.32	28929.02
558.48	28554.54
558.65	28795.61
558.81	28804.97
558.98	28379.00
559.14	28711.35
559.31	28613.05
559.47	28655.18
559.64	29212.23
559.80	28383.68
559.97	28767.52
560.13	28657.52
560.30	28613.05
560.46	28617.73
560.63	28753.48
560.79	28968.81
560.96	29081.16
561.12	28835.40
561.29	28891.57
561.45	28961.79
561.61	28987.53
561.78	28783.91
561.94	29181.80
562.11	29064.77
562.27	28924.34
562.44	28950.09
562.60	28903.28
562.77	28947.75
562.93	28973.49
563.10	29350.32
563.26	28968.81
563.42	29350.32
563.59	28978.17
563.75	29041.37
563.92	29294.14
564.08	28751.14
564.24	29125.63
564.41	28875.19
564.57	28929.02
564.74	29041.37
564.90	29294.14
565.07	29380.74
565.23	29298.83
565.39	29088.18
565.56	29202.86
565.72	29652.25
565.88	29460.32
566.05	28919.66
566.21	29158.39
566.38	29186.48
566.54	29263.72
566.70	29427.56
566.87	29694.38
567.03	29277.76
567.19	29383.09
567.36	29556.28
567.52	29546.92
567.68	29310.53
567.85	29469.69
568.01	29680.33
568.17	29034.35
568.34	29502.45
568.50	29226.27
568.66	29303.51
568.83	29685.01
568.99	29661.61
569.15	29495.43
569.32	29612.46
569.48	29270.74
569.64	29455.64
569.81	29591.39
569.97	29659.27
570.13	29490.75
570.30	29427.56
570.46	29502.45
570.62	29333.93
570.78	29570.33
570.95	29357.34
571.11	29507.13
571.27	29116.26
571.43	29256.70
571.60	29553.94
571.76	29647.57
571.92	29535.22
572.09	29565.65
572.25	29832.47
572.41	29680.33
572.57	29514.16
572.74	29806.72
572.90	29633.52
573.06	29511.81
573.22	29369.04
573.38	29886.30
573.55	29659.27
573.71	29881.62
573.87	29890.98
574.03	29652.25
574.20	29647.57
574.36	29647.57
574.52	29509.47
574.68	29649.91
574.84	29846.51
575.01	29797.36
575.17	29853.53
575.33	30059.50
575.49	29692.04
575.65	29802.04
575.82	29752.89
575.98	29729.48
576.14	30452.71
576.30	29883.96
576.46	29521.18
576.62	29804.38
576.79	29804.38
576.95	29537.56
577.11	30031.41
577.27	29699.06
577.43	30213.98
577.59	29708.42
577.75	29862.90
577.92	29890.98
578.08	29631.18
578.24	29647.57
578.40	29914.39
578.56	29792.68
578.72	30160.14
578.88	29722.46
579.04	29972.90
579.21	29738.85
579.37	29989.28
579.53	30258.45
579.69	29582.03
579.85	29673.31
580.01	29862.90
580.17	29582.03
580.33	29883.96
580.49	29919.07
580.65	30188.23
580.82	30288.87
580.98	29972.90
581.14	29706.08
581.30	30019.71
581.46	29898.00
581.62	29986.94
581.78	29694.38
581.94	30031.41
582.10	29874.60
582.26	29614.80
582.42	29869.92
582.58	30110.99
582.74	29914.39
582.90	29993.97
583.06	30022.05
583.22	29839.49
583.38	29858.21
583.54	30066.52
583.70	29778.64
583.86	30389.52
584.02	29923.75
584.18	29736.51
584.34	30157.80
584.50	30307.60
584.66	30277.17
584.82	30141.42
584.98	30061.84
585.14	29940.13
585.30	29825.45
585.46	30223.34
585.62	29717.78
585.78	29942.47
585.94	29757.57
586.10	30181.21
586.26	30424.62
586.42	30012.69
586.58	30017.37
586.74	30286.53
586.90	29961.20
587.06	29778.64
587.22	30038.44
587.38	29624.16
587.54	30277.17
587.70	30099.29
587.86	30068.86
588.02	30513.56
588.18	30569.74
588.34	30239.72
588.49	30251.42
588.65	29921.41
588.81	30000.99
588.97	30143.76
589.13	30019.71
589.29	30015.03
589.45	30050.14
589.61	30272.49
589.77	30380.15
589.93	30632.93
590.08	30443.35
590.24	30670.38
590.40	30511.22
590.56	30314.62
590.72	30319.30
590.88	30249.08
591.04	30092.27
591.20	30373.13
591.35	30513.56
591.51	30852.94
591.67	30543.99
591.83	30948.90
591.99	30174.19
592.15	30609.53
592.31	30417.60
592.46	30450.37
592.62	30012.69
592.78	30534.63
592.94	30267.81
593.10	29944.81
593.26	30532.29
593.41	30532.29
593.57	30431.65
593.73	30190.57
593.89	30780.39
594.05	30237.38
594.20	30345.05
594.36	30431.65
594.52	30478.46
594.68	30426.96
594.84	30361.43
594.99	30951.24
595.15	30518.25
595.31	30328.66
595.47	30305.26
595.62	30511.22
595.78	30586.12
595.94	30792.09
596.10	30595.48
596.25	30555.69
596.41	30270.15
596.57	30031.41
596.73	30487.82
596.88	30094.61
597.04	30267.81
597.20	30946.56
597.36	30307.60
597.51	30740.60
597.67	30609.53
597.83	30356.75
597.99	30677.40
598.14	30450.37
598.30	30497.18
598.46	30553.35
598.61	30607.19
598.77	30476.12
598.93	30572.08
599.09	30780.39
599.24	30920.82
599.40	30799.11
599.56	30539.31
599.71	30738.26
599.87	30712.51
600.03	30710.17
600.18	30782.73
600.34	30515.90
600.50	30902.09
600.65	30684.42
600.81	30703.15
600.97	30792.09
601.12	30710.17
601.28	30773.36
601.44	30948.90
601.59	30672.72
601.75	30368.45
601.91	30625.91
602.06	30710.17
602.22	30487.82
602.37	30441.01
602.53	30520.59
602.69	30752.30
602.84	30302.92
603.00	31117.42
603.16	30574.42
603.31	30487.82
603.47	30560.37
603.62	30216.32
603.78	30616.55
603.94	30553.35
604.09	30719.53
604.25	30323.98
604.40	30368.45
604.56	30604.84
604.71	30806.13
604.87	30347.39
605.03	30705.49
605.18	30539.31
605.34	30396.54
605.49	30188.23
605.65	30836.56
605.80	30485.48
605.96	30169.51
606.12	30501.86
606.27	30764.00
606.43	30038.44
606.58	30733.57
606.74	30541.65
606.89	30611.87
607.05	31019.12
607.20	30967.63
607.36	30644.63
607.51	30628.25
607.67	30412.92
607.82	30132.06
607.98	30274.83
608.13	30244.40
608.29	30450.37
608.44	30539.31
608.60	30370.79
608.75	30651.66
608.91	30401.22
609.06	30551.01
609.22	30389.52
609.37	30143.76
609.53	30061.84
609.68	30340.36
609.84	30476.12
609.99	30710.17
610.15	30398.88
610.30	30272.49
610.46	30419.94
610.61	30490.16
610.76	30506.54
610.92	30431.65
611.07	30478.46
611.23	30354.41
611.38	29977.58
611.54	30272.49
611.69	30146.10
611.84	30405.90
612.00	30003.33
612.15	30309.94
612.31	30394.20
612.46	30235.04
612.62	29975.24
612.77	30340.36
612.92	30712.51
613.08	30026.73
613.23	30209.29
613.39	29919.07
613.54	29706.08
613.69	29879.28
613.85	29832.47
614.00	30155.46
614.15	30455.05
614.31	30099.29
614.46	30101.63
614.62	29839.49
614.77	30260.79
614.92	30249.08
615.08	29776.30
615.23	29965.88
615.38	29841.83
615.54	29715.44
615.69	29729.48
615.84	29972.90
616.00	29720.12
616.15	29703.74
616.30	29720.12
616.46	30008.01
616.61	29748.21
616.76	29696.72
616.92	29921.41
617.07	29771.61
617.22	29834.81
617.37	29593.73
617.53	29762.25
617.68	29596.07
617.83	29654.59
617.99	29860.55
618.14	29886.30
618.29	29518.84
618.45	29785.66
618.60	29860.55
618.75	29834.81
618.90	29785.66
619.06	29720.12
619.21	29689.70
619.36	29432.24
619.51	29577.35
619.67	29472.03
619.82	29362.02
619.97	29291.80
620.12	29273.08
620.28	29074.13
620.43	29460.32
620.58	29965.88
620.73	29434.58
620.89	29394.79
621.04	29465.00
621.19	29249.67
621.34	29483.73
621.49	29120.95
621.65	29106.90
621.80	29479.05
621.95	29095.20
622.10	29392.45
622.25	29429.90
622.41	29287.12
622.56	29118.60
622.71	29450.96
622.86	29343.30
623.01	29280.10
623.16	29020.30
623.32	29184.14
623.47	29261.38
623.62	28905.62
623.77	29027.32
623.92	29041.37
624.07	29184.14
624.23	29242.65
624.38	29134.99
624.53	29057.75
624.68	29039.03
624.83	29071.79
624.98	29132.65
625.13	28811.99
625.29	29259.04
625.44	29057.75
625.59	28786.25
625.74	28917.32
625.89	28566.24
626.04	28840.08
626.19	28599.01
626.34	28615.39
626.49	29048.39
626.65	28620.07
626.80	28804.97
626.95	28357.93
627.10	28526.45
627.25	28746.46
627.40	28617.73
627.55	28479.64
627.70	28622.41
627.85	28041.96
628.00	28514.75
628.15	28404.74
628.30	28411.76
628.45	28479.64
628.60	28584.96
628.76	28610.71
628.91	28584.96
629.06	28591.98
629.21	28507.72
629.36	28945.41
629.51	28194.09
629.66	28261.97
629.81	28442.19
629.96	28149.62
630.11	28259.63
630.26	28547.51
630.41	28123.88
630.56	27995.15
630.71	28133.24
630.86	28067.70
631.01	28259.63
631.16	28268.99
631.31	28187.07
631.46	28041.96
631.61	28201.11
631.76	27978.76
631.91	28030.26
632.06	28360.27
632.21	28369.63
632.36	28348.57
632.51	27421.72
632.66	27686.20
632.81	27662.79
632.96	28231.54
633.10	28311.12
633.25	28074.73
633.40	27983.44
633.55	28086.43
633.70	27704.92
633.85	27620.66
634.00	27861.74
634.15	28041.96
634.30	27920.25
634.45	27840.67
634.60	27828.97
634.75	27730.67
634.90	27981.10
635.05	28018.55
635.19	27662.79
635.34	28105.15
635.49	28144.94
635.64	27634.71
635.79	27934.29
635.94	27995.15
636.09	27868.76
636.24	27641.73
636.39	27550.45
636.53	27524.70
636.68	27330.44
636.83	27538.74
636.98	27669.81
637.13	27552.79
637.28	27838.33
637.43	27658.11
637.57	27782.16
637.72	27618.32
637.87	27323.41
638.02	27248.52
638.17	27578.53
638.32	27367.88
638.46	27358.52
638.61	27395.97
638.76	27337.46
638.91	27154.90
639.06	27147.87
639.20	27360.86
639.35	27285.97
639.50	27178.30
639.65	27391.29
639.80	27234.47
639.94	27302.35
640.09	27192.34
640.24	27206.39
640.39	26927.86
640.54	26897.44
640.68	26803.82
640.83	26862.33
640.98	26876.37
641.13	26764.03
641.27	27206.39
641.42	27005.10
641.57	27096.38
641.72	27555.13
641.86	26934.88
642.01	26656.36
642.16	26785.09
642.31	26391.88
642.45	26897.44
642.60	26927.86
642.75	26651.68
642.90	26705.51
643.04	26452.73
643.19	26567.42
643.34	27021.48
643.48	26539.33
643.63	26757.00
643.78	26742.96
643.93	27246.18
644.07	26499.55
644.22	26803.82
644.37	26941.91
644.51	26852.97
644.66	26857.65
644.81	26462.10
644.95	26686.79
645.10	26668.06
645.25	26345.07
645.39	26396.56
645.54	26511.25
645.69	26492.52
645.83	26583.80
645.98	26778.07
646.13	26647.00
646.27	26410.60
646.42	26649.34
646.57	26202.30
646.71	26490.18
646.86	26728.92
647.00	26059.52
647.15	25914.41
647.30	26469.12
647.44	26258.47
647.59	26464.44
647.74	26551.04
647.88	26267.83
648.03	26251.45
648.17	26438.69
648.32	26562.74
648.47	26155.49
648.61	26199.96
648.76	26506.57
648.90	26108.68
649.05	26464.44
649.20	26242.09
649.34	26265.49
649.49	26052.50
649.63	26064.21
649.78	25963.56
649.92	25883.98
650.07	25993.99
650.21	25832.49
650.36	26047.82
650.51	26054.84
650.65	26134.42
650.80	26005.69
650.94	26134.42
651.09	25949.52
651.23	25692.06
651.38	25949.52
651.52	25762.28
651.67	26096.97
651.81	25675.68
651.96	25979.95
652.10	25635.89
652.25	25745.89
652.39	26094.63
652.54	25933.14
652.68	25860.58
652.83	25790.36
652.97	25968.24
653.12	25867.60
653.26	25926.11
653.41	25785.68
653.55	25687.38
653.70	25390.13
653.84	25666.31
653.99	25678.02
654.13	25673.34
654.27	24971.18
654.42	25591.42
654.56	25312.89
654.71	25773.98
654.85	25984.63
655.00	25991.65
655.14	25511.84
655.29	25340.98
655.43	25560.99
655.57	25654.61
655.72	25429.92
655.86	25446.30
656.01	25338.64
656.15	25453.33
656.30	25563.33
656.44	25149.06
656.58	25123.31
656.73	24989.90
656.87	25530.56
657.01	25263.74
657.16	25450.99
657.30	25764.62
657.45	25312.89
657.59	25191.19
657.73	25216.93
657.88	24833.08
658.02	24971.18
658.16	25249.70
658.31	24837.76
658.45	24973.52
658.60	24893.94
658.74	24826.06
658.88	24788.61
659.03	24922.02
659.17	24856.49
659.31	25102.25
659.46	24748.82
659.60	24973.52
659.74	24786.27
659.89	24704.35
660.03	24957.13
660.17	24758.19
660.32	24636.48
660.46	24650.52
660.60	24510.09
660.74	24437.53
660.89	24690.31
661.03	24573.28
661.17	24559.24
661.32	24400.08
661.46	24786.27
661.60	24456.26
661.74	24582.65
661.89	24524.13
662.03	24362.64
662.17	24493.71
662.31	24381.36
662.46	24507.75
662.60	24505.41
662.74	24556.90
662.88	24177.73
663.03	23847.72
663.17	24343.91
663.31	23885.17
663.45	23613.66
663.60	24107.52
663.74	24051.34
663.88	24318.17
664.02	23850.06
664.17	24119.22
664.31	23976.45
664.45	23817.29
664.59	24191.78
664.73	24034.96
664.88	23733.03
665.02	23309.40
665.16	23737.71
665.30	23569.19
665.44	23536.43
665.59	23384.29
665.73	23658.14
665.87	23222.80
666.01	23604.30
666.15	23400.68
666.29	23489.62
666.44	23417.06
666.58	23194.71
666.72	23264.92
666.86	23463.87
667.00	23246.20
667.14	23410.04
667.28	23475.57
667.43	23239.18
667.57	23428.76
667.71	23058.96
667.85	23166.62
667.99	22668.09
668.13	23002.78
668.27	22970.02
668.41	22897.46
668.56	22785.12
668.70	23016.83
668.84	23161.94
668.98	22979.38
669.12	22892.78
669.26	22841.29
669.40	22569.79
669.54	22909.16
669.68	22635.32
669.82	22525.32
669.96	22305.31
670.10	22356.80
670.25	22375.52
670.39	22558.08
670.53	21996.35
670.67	22167.21
670.81	22295.94
670.95	22216.36
671.09	22492.55
671.23	22333.39
671.37	22307.65
671.51	22443.40
671.65	22040.82
671.79	22398.93
671.93	21696.77
672.07	21837.20
672.21	22040.82
672.35	21827.84
672.49	21879.33
672.63	21846.56
672.77	21514.20
672.91	21781.03
673.05	21762.30
673.19	21593.78
673.33	21568.04
673.47	21385.47
673.61	21570.38
673.75	21322.28
673.89	21455.69
674.03	21219.30
674.17	21474.42
674.31	21200.57
674.45	21301.22
674.59	21057.80
674.73	21146.74
674.87	21425.26
675.01	21305.90
675.15	21025.03
675.29	20938.43
675.43	20886.94
675.56	21113.97
675.70	21041.42
675.84	21060.14
675.98	20570.97
676.12	20966.52
676.26	20627.14
676.40	20858.85
676.54	20465.64
676.68	20671.61
676.82	20561.61
676.96	20835.45
677.10	20247.97
677.23	20039.67
677.37	20545.22
677.51	19960.09
677.65	19990.52
677.79	19852.42
677.93	19957.75
678.07	20072.43
678.21	20051.37
678.34	19723.69
678.48	19840.72
678.62	19644.12
678.76	19702.63
678.90	19609.01
679.04	19414.74
679.18	19807.95
679.31	19080.05
679.45	19351.55
679.59	19110.47
679.73	19159.63
679.87	19161.97
680.00	19075.37
680.14	19150.26
680.28	19154.94
680.42	19080.05
680.56	19248.57
680.70	18956.00
680.83	19080.05
680.97	19007.49
681.11	19171.33
681.25	18597.90
681.39	18934.93
681.52	18572.15
681.66	18717.26
681.80	18394.27
681.94	18401.29
682.07	18518.32
682.21	18185.96
682.35	18054.89
682.49	18359.16
682.62	18326.39
682.76	18178.94
682.90	18181.28
683.04	18373.21
683.17	18232.77
683.31	18064.25
683.45	17706.15
683.59	18024.47
683.72	17832.54
683.86	17661.68
684.00	17881.69
684.13	17671.04
684.27	17568.06
684.41	17624.23
684.55	17118.68
684.68	16989.95
684.82	17104.64
684.96	17298.90
685.09	17270.81
685.23	17069.53
685.37	16910.37
685.50	17076.55
685.64	16919.73
685.78	17099.95
685.91	17109.32
686.05	17198.26
686.19	16739.51
686.32	17198.26
686.46	16634.19
686.60	16608.44
686.73	16753.55
686.87	16416.52
687.01	16638.87
687.14	16439.92
687.28	16173.10
687.42	16475.03
687.55	16002.24
687.69	16355.66
687.82	16299.49
687.96	16170.76
688.10	15901.60
688.23	16149.70
688.37	16042.03
688.50	16142.67
688.64	16042.03
688.78	15917.98
688.91	15784.57
689.05	15559.88
689.18	15569.24
689.32	15178.37
689.46	15433.49
689.59	15470.94
689.73	15215.82
689.86	15384.34
690.00	14986.45
690.13	15309.44
690.27	15241.57
690.41	15421.79
690.54	14916.23
690.68	15227.53
690.81	15183.06
690.95	15082.41
691.08	15201.78
691.22	14946.66
691.35	14867.08
691.49	15101.14
691.62	15232.21
691.76	14846.02
691.89	14644.73
692.03	14464.51
692.16	14530.05
692.30	14256.20
692.43	14284.29
692.57	14420.04
692.70	14064.28
692.84	14099.39
692.97	14075.98
693.11	14129.81
693.24	13998.74
693.38	13928.53
693.51	13804.48
693.65	14155.56
693.78	13947.25
693.92	13745.97
694.05	13853.63
694.19	13612.56
694.32	13572.77
694.45	13383.18
694.59	13308.29
694.72	13270.84
694.86	13350.42
694.99	13181.90
695.13	13406.59
695.26	13275.52
695.39	13121.04
695.53	13092.96
695.66	13408.93
695.80	13156.15
695.93	13041.46
696.07	13226.37
696.20	13167.85
696.33	12954.87
696.47	13057.85
696.60	12711.45
696.73	12812.09
696.87	12849.54
697.00	12769.96
697.14	12723.15
697.27	12285.47
697.40	12372.07
697.54	12402.50
697.67	12231.64
697.80	12329.94
697.94	12292.49
698.07	12030.35
698.21	12343.99
698.34	12208.23
698.47	12318.24
698.61	12362.71
698.74	12180.15
698.87	12039.72
699.01	11742.47
699.14	11831.41
699.27	11920.35
699.40	11817.36
699.54	11815.02
699.67	11733.11
699.80	11810.34
699.94	11562.25
700.07	11618.42
700.20	11365.64
700.34	11183.08
700.47	11197.12
700.60	11314.15
700.73	11403.09
700.87	11297.77
701.00	11140.95
701.13	11105.84
701.26	11152.65
701.40	11314.15
701.53	11000.52
701.66	11080.10
701.79	11014.56
701.93	10768.80
702.06	10787.53
702.19	10799.23
702.32	10771.15
702.46	10611.99
702.59	10424.75
702.72	10370.91
702.85	10600.29
702.99	10399.00
703.12	10174.31
703.25	10452.83
703.38	10483.26
703.51	10310.06
703.65	10068.98
703.78	10289.00
703.91	10218.78
704.04	10204.74
704.17	10054.94
704.31	10012.81
704.44	10031.54
704.57	10017.49
704.70	9872.38
704.83	9813.87
704.96	9832.59
705.10	9631.30
705.23	9603.22
>>>>>End Processed Spectral Data<<<<<
