SpectraSuite Data File
++++++++++++++++++++++++++++++++++++
Date: Fri Oct 18 13:57:57 GMT-05:00 2013
User: bianchi
Dark Spectrum Present: No
Reference Spectrum Present: No
Number of Sampled Component Spectra: 1
Spectrometers: USB2+H05261
Integration Time (usec): 50000 (USB2+H05261)
Spectra Averaged: 1 (USB2+H05261)
Boxcar Smoothing: 0 (USB2+H05261)
Correct for Electrical Dark: No (USB2+H05261)
Strobe/Lamp Enabled: No (USB2+H05261)
Correct for Detector Non-linearity: No (USB2+H05261)
Correct for Stray Light: No (USB2+H05261)
Number of Pixels in Processed Spectrum: 2048
>>>>>Begin Processed Spectral Data<<<<<
365.73	0.00
365.92	0.00
366.12	0.00
366.32	0.00
366.52	0.00
366.72	0.00
366.91	0.00
367.11	0.00
367.31	0.00
367.51	0.00
367.70	0.00
367.90	0.00
368.10	0.00
368.30	0.00
368.49	0.00
368.69	0.00
368.89	0.00
369.09	0.00
369.28	0.00
369.48	0.00
369.68	0.00
369.87	0.00
370.07	0.00
370.27	0.00
370.47	0.00
370.66	67.88
370.86	124.05
371.06	128.73
371.25	105.32
371.45	105.32
371.65	222.35
371.84	184.90
372.04	166.18
372.24	156.82
372.44	114.69
372.63	224.69
372.83	224.69
373.03	210.65
373.22	166.18
373.42	205.97
373.62	208.31
373.81	217.67
374.01	229.37
374.21	238.73
374.40	231.71
374.60	173.20
374.79	203.63
374.99	220.01
375.19	175.54
375.38	315.97
375.58	297.25
375.78	257.46
375.97	212.99
376.17	283.20
376.37	308.95
376.56	315.97
376.76	276.18
376.95	297.25
377.15	252.78
377.35	330.02
377.54	224.69
377.74	297.25
377.93	264.48
378.13	163.84
378.33	334.70
378.52	245.76
378.72	315.97
378.91	245.76
379.11	222.35
379.31	292.57
379.50	217.67
379.70	341.72
379.89	290.23
380.09	285.55
380.28	241.08
380.48	301.93
380.68	276.18
380.87	278.52
381.07	365.12
381.26	264.48
381.46	330.02
381.65	313.63
381.85	337.04
382.04	271.50
382.24	360.44
382.43	320.65
382.63	388.53
382.83	315.97
383.02	402.57
383.22	355.76
383.41	386.19
383.61	315.97
383.80	358.10
384.00	339.38
384.19	344.06
384.39	353.42
384.58	334.70
384.78	358.10
384.97	421.30
385.17	365.12
385.36	374.49
385.56	348.74
385.75	409.59
385.95	376.83
386.14	397.89
386.34	369.80
386.53	358.10
386.72	393.21
386.92	428.32
387.11	489.17
387.31	498.53
387.50	435.34
387.70	440.02
387.89	440.02
388.09	456.40
388.28	411.93
388.48	444.70
388.67	521.94
388.86	454.06
389.06	456.40
389.25	503.22
389.45	512.58
389.64	503.22
389.84	447.04
390.03	578.11
390.22	458.74
390.42	533.64
390.61	538.32
390.81	421.30
391.00	540.66
391.19	568.75
391.39	613.22
391.58	582.79
391.78	512.58
391.97	573.43
392.16	512.58
392.36	500.87
392.55	463.43
392.75	608.54
392.94	587.47
393.13	589.82
393.33	470.45
393.52	582.79
393.71	528.96
393.91	610.88
394.10	533.64
394.29	596.84
394.49	629.60
394.68	554.71
394.88	587.47
395.07	615.56
395.26	627.26
395.46	697.48
395.65	613.22
395.84	617.90
396.04	702.16
396.23	631.94
396.42	660.03
396.62	676.41
396.81	657.69
397.00	711.52
397.19	711.52
397.39	692.80
397.58	641.31
397.77	692.80
397.97	741.95
398.16	669.39
398.35	692.80
398.55	697.48
398.74	695.14
398.93	772.38
399.12	774.72
399.32	664.71
399.51	709.18
399.70	753.65
399.90	674.07
400.09	800.46
400.28	781.74
400.47	779.40
400.67	847.27
400.86	819.19
401.05	786.42
401.24	816.85
401.44	837.91
401.63	847.27
401.82	821.53
402.01	847.27
402.21	851.96
402.40	814.51
402.59	809.83
402.78	945.58
402.97	915.15
403.17	931.53
403.36	830.89
403.55	922.17
403.74	959.62
403.93	835.57
404.13	880.04
404.32	931.53
404.51	873.02
404.70	908.13
404.89	880.04
405.09	976.00
405.28	931.53
405.47	861.32
405.66	1055.58
405.85	1069.62
406.05	1090.69
406.24	1013.45
406.43	1006.43
406.62	992.39
406.81	1156.22
407.00	1067.28
407.20	1076.65
407.39	1057.92
407.58	1083.67
407.77	1116.44
407.96	1158.57
408.15	1090.69
408.34	1069.62
408.54	1095.37
408.73	1181.97
408.92	1128.14
409.11	1137.50
409.30	1116.44
409.49	1081.33
409.68	1114.10
409.87	1149.20
410.07	1118.78
410.26	1153.88
410.45	1146.86
410.64	1167.93
410.83	1341.13
411.02	1196.01
411.21	1277.93
411.40	1238.14
411.59	1294.32
411.78	1291.98
411.98	1212.40
412.17	1345.81
412.36	1291.98
412.55	1315.38
412.74	1458.15
412.93	1324.74
413.12	1390.28
413.31	1390.28
413.50	1427.73
413.69	1394.96
413.88	1547.09
414.07	1448.79
414.26	1533.05
414.45	1376.24
414.64	1533.05
414.83	1420.71
415.02	1563.48
415.22	1554.12
415.41	1692.21
415.60	1629.01
415.79	1629.01
415.98	1673.48
416.17	1565.82
416.36	1668.80
416.55	1703.91
416.74	1703.91
416.93	1715.61
417.12	1652.42
417.31	1638.38
417.50	1743.70
417.69	1849.02
417.88	1717.95
418.07	1727.32
418.26	1783.49
418.45	1769.44
418.64	1909.88
418.83	1863.07
419.02	1767.10
419.21	1816.26
419.39	1872.43
419.58	1900.52
419.77	1891.15
419.96	1909.88
420.15	1909.88
420.34	1881.79
420.53	1881.79
420.72	1996.48
420.91	1923.92
421.10	1949.67
421.29	2071.37
421.48	1870.09
421.67	1952.01
421.86	2012.86
422.05	1991.80
422.24	1956.69
422.43	2024.56
422.61	1952.01
422.80	2019.88
422.99	2106.48
423.18	2153.29
423.37	2120.53
423.56	1996.48
423.75	2101.80
423.94	2054.99
424.13	1909.88
424.32	1935.62
424.50	2045.63
424.69	2029.24
424.88	2090.10
425.07	2024.56
425.26	2078.40
425.45	2090.10
425.64	2047.97
425.83	2125.21
426.01	2139.25
426.20	2111.16
426.39	2052.65
426.58	2029.24
426.77	2228.19
426.96	2139.25
427.15	2232.87
427.33	2179.04
427.52	2136.91
427.71	2197.76
427.90	2136.91
428.09	2214.15
428.28	2195.42
428.46	2214.15
428.65	2263.30
428.84	2291.38
429.03	2406.07
429.22	2204.78
429.40	2237.55
429.59	2214.15
429.78	2106.48
429.97	2181.38
430.16	2286.70
430.34	2387.35
430.53	2363.94
430.72	2340.54
430.91	2263.30
431.10	2333.51
431.28	2429.48
431.47	2396.71
431.66	2370.96
431.85	2270.32
432.03	2476.29
432.22	2548.84
432.41	2464.58
432.60	2478.63
432.79	2434.16
432.97	2438.84
433.16	2450.54
433.35	2495.01
433.54	2509.05
433.72	2450.54
433.91	2532.46
434.10	2548.84
434.28	2546.50
434.47	2539.48
434.66	2672.89
434.85	2698.64
435.03	2630.76
435.22	2626.08
435.41	2686.94
435.59	2661.19
435.78	2663.53
435.97	2696.30
436.16	2792.26
436.34	2752.47
436.53	2703.32
436.72	2839.07
436.90	2726.72
437.09	2839.07
437.28	2708.00
437.46	2782.90
437.65	2670.55
437.84	2874.18
438.02	2869.50
438.21	2874.18
438.40	2913.97
438.58	2916.31
438.77	2974.82
438.96	2885.88
439.14	2925.67
439.33	3103.55
439.52	3016.95
439.70	2984.18
439.89	3054.40
440.08	3049.72
440.26	3094.19
440.45	3136.32
440.63	3150.36
440.82	3052.06
441.01	3162.06
441.19	3222.92
441.38	3206.53
441.57	3302.50
441.75	3258.03
441.94	3323.56
442.12	3421.86
442.31	3356.33
442.50	3454.63
442.68	3361.01
442.87	3349.31
443.05	3370.37
443.24	3370.37
443.43	3536.55
443.61	3309.52
443.80	3494.42
443.98	3499.10
444.17	3262.71
444.35	3368.03
444.54	3508.46
444.73	3344.63
444.91	3531.87
445.10	3473.36
445.28	3562.30
445.47	3417.18
445.65	3417.18
445.84	3506.12
446.02	3599.74
446.21	3482.72
446.39	3545.91
446.58	3531.87
446.77	3581.02
446.95	3452.29
447.14	3557.61
447.32	3655.92
447.51	3609.11
447.69	3632.51
447.88	3630.17
448.06	3742.52
448.25	3552.93
448.43	3695.71
448.62	3613.79
448.80	3646.55
448.99	3559.95
449.17	3698.05
449.36	3665.28
449.54	3836.14
449.73	3691.02
449.91	3843.16
450.10	3726.13
450.28	3772.94
450.46	3815.07
450.65	3861.88
450.83	3838.48
451.02	3831.46
451.20	3812.73
451.39	3936.78
451.57	3721.45
451.76	3782.31
451.94	3822.09
452.13	3939.12
452.31	3906.35
452.49	3880.61
452.68	3992.95
452.86	3889.97
453.05	3971.89
453.23	3985.93
453.42	3988.27
453.60	4016.36
453.78	3983.59
453.97	3824.44
454.15	3918.06
454.34	3985.93
454.52	4161.47
454.70	4030.40
454.89	4060.83
455.07	4114.66
455.26	4208.28
455.44	4128.70
455.62	4159.13
455.81	4016.36
455.99	4177.86
456.17	4273.82
456.36	4121.68
456.54	4217.65
456.73	4404.89
456.91	4409.57
457.09	4386.16
457.28	4421.27
457.46	4376.80
457.64	4428.29
457.83	4411.91
458.01	4360.42
458.19	4535.96
458.38	4395.53
458.56	4514.89
458.74	4395.53
458.93	4365.10
459.11	4498.51
459.29	4430.63
459.48	4585.11
459.66	4507.87
459.84	4484.47
460.03	4713.84
460.21	4758.31
460.39	4610.86
460.57	4545.32
460.76	4762.99
460.94	4777.03
461.12	4706.82
461.31	4755.97
461.49	4753.63
461.67	4681.07
461.85	4795.76
462.04	4709.16
462.22	5097.69
462.40	4894.06
462.59	4802.78
462.77	4851.93
462.95	4943.21
463.13	5109.39
463.32	4798.10
463.50	4990.02
463.68	4938.53
463.86	5128.11
464.05	4863.63
464.23	4933.85
464.41	5055.56
464.59	4882.36
464.78	5053.22
464.96	5046.20
465.14	5006.41
465.32	5151.52
465.50	5184.29
465.69	5172.58
465.87	5053.22
466.05	4992.36
466.23	5174.92
466.41	5294.29
466.60	5228.76
466.78	5266.21
466.96	5018.11
467.14	5088.32
467.32	5275.57
467.51	5142.16
467.69	5069.60
467.87	5221.74
468.05	5320.04
468.23	5247.48
468.41	5266.21
468.60	5329.40
468.78	5331.74
468.96	5207.69
469.14	5383.23
469.32	5626.65
469.50	5392.59
469.69	5359.83
469.87	5479.19
470.05	5640.69
470.23	5427.70
470.41	5521.32
470.59	5645.37
470.77	5591.54
470.95	5603.24
471.14	5753.04
471.32	5738.99
471.50	5764.74
471.68	5926.24
471.86	5790.49
472.04	5682.82
472.22	6059.65
472.40	5614.95
472.58	5769.42
472.77	5659.42
472.95	5874.74
473.13	6150.93
473.31	5856.02
473.49	5863.04
473.67	5827.93
473.85	5973.05
474.03	6221.14
474.21	6174.33
474.39	6134.54
474.57	6326.47
474.75	6303.06
474.93	6211.78
475.12	6265.61
475.30	6317.11
475.48	6265.61
475.66	6363.92
475.84	6438.81
476.02	6537.12
476.20	6408.39
476.38	6406.05
476.56	6733.72
476.74	6846.07
476.92	6621.38
477.10	6752.45
477.28	6857.77
477.46	6778.19
477.64	7133.95
477.82	6876.49
478.00	7197.15
478.18	7103.53
478.36	7068.42
478.54	7372.69
478.72	7283.75
478.90	7229.91
479.08	7342.26
479.26	7447.58
479.44	7447.58
479.62	7377.37
479.80	7515.46
479.98	7658.23
480.16	7688.66
480.34	7716.75
480.52	7822.07
480.70	7852.50
480.88	7793.98
481.06	7719.09
481.24	8021.02
481.41	7826.75
481.59	7868.88
481.77	8058.46
481.95	8063.15
482.13	8264.43
482.31	8294.86
482.49	8421.25
482.67	8428.27
482.85	8458.70
483.03	8713.81
483.21	8784.03
483.39	8777.01
483.57	8861.27
483.74	9034.47
483.92	8882.33
484.10	8856.59
484.28	9078.94
484.46	9263.84
484.64	9284.91
484.82	9125.75
485.00	9270.86
485.18	9238.09
485.35	9692.16
485.53	9401.93
485.71	9778.76
485.89	9769.40
486.07	9645.35
486.25	9914.51
486.43	9923.87
486.61	10012.81
486.78	10122.82
486.96	10235.16
487.14	10342.83
487.32	10249.21
487.50	10235.16
487.68	10349.85
487.85	10480.92
488.03	10576.88
488.21	10745.40
488.39	10778.17
488.57	10876.47
488.75	10820.30
488.92	10860.09
489.10	11145.63
489.28	11218.19
489.46	11360.96
489.64	11384.37
489.81	11587.99
489.99	11616.08
490.17	11712.04
490.35	11578.63
490.53	11735.45
490.70	11793.96
490.88	12152.06
491.06	12035.03
491.24	11889.92
491.41	12152.06
491.59	12173.13
491.77	12250.36
491.95	12512.50
492.13	12334.62
492.30	12479.74
492.48	12421.22
492.66	12753.58
492.84	12620.17
493.01	12681.02
493.19	12943.16
493.37	12842.52
493.54	12959.55
493.72	13200.62
493.90	13242.75
494.08	13226.37
494.25	13268.50
494.43	13383.18
494.61	13598.51
494.79	13692.13
494.96	13619.58
495.14	13479.15
495.32	13860.65
495.49	13797.46
495.67	13816.18
495.85	14125.13
496.02	14185.99
496.20	14223.44
496.38	14181.31
496.55	14190.67
496.73	14303.01
496.91	14600.26
497.09	14670.48
497.26	14689.20
497.44	14642.39
497.62	14808.57
497.79	14815.59
497.97	14780.48
498.14	15110.50
498.32	14782.82
498.50	15496.69
498.67	15204.12
498.85	15407.75
499.03	15297.74
499.20	15215.82
499.38	15468.60
499.56	15389.02
499.73	15527.11
499.91	15604.35
500.08	15786.91
500.26	15655.84
500.44	15948.41
500.61	15976.50
500.79	15688.61
500.97	16322.90
501.14	16226.93
501.32	16346.30
501.49	16252.68
501.67	16009.26
501.84	16226.93
502.02	16095.86
502.20	16472.69
502.37	16308.85
502.55	16269.06
502.72	16332.26
502.90	16484.39
503.07	16531.20
503.25	16514.82
503.43	16596.74
503.60	16961.86
503.78	16978.25
503.95	17034.42
504.13	16826.11
504.30	17249.75
504.48	17003.99
504.65	17146.76
504.83	17006.33
505.01	17696.79
505.18	17334.01
505.36	17523.59
505.53	17404.22
505.71	17516.57
505.88	17619.55
506.06	17483.80
506.23	17687.43
506.41	17525.93
506.58	17841.90
506.76	17701.47
506.93	17954.25
507.11	17685.09
507.28	17839.56
507.46	18244.48
507.63	18125.11
507.81	18155.54
507.98	18190.64
508.16	18052.55
508.33	18328.74
508.50	17987.02
508.68	18462.15
508.85	18689.18
509.03	18207.03
509.20	18532.36
509.38	18719.60
509.55	18595.56
509.73	18654.07
509.90	18810.89
510.08	18637.69
510.25	19101.11
510.42	19035.58
510.60	18906.85
510.77	19171.33
510.95	19222.82
511.12	19147.92
511.30	19091.75
511.47	19218.14
511.64	19084.73
511.82	19332.82
511.99	19555.18
512.17	19491.98
512.34	19489.64
512.51	19648.80
512.69	19627.73
512.86	19840.72
513.04	19964.77
513.21	19829.02
513.38	19824.34
513.56	19714.33
513.73	20121.59
513.90	19599.65
514.08	20327.55
514.25	20088.82
514.43	20051.37
514.60	20060.73
514.77	20079.46
514.95	20273.72
515.12	20311.17
515.29	20301.81
515.47	20395.43
515.64	20769.91
515.81	20463.30
515.99	20659.91
516.16	20790.98
516.33	20592.03
516.51	20905.66
516.68	20933.75
516.85	20631.82
517.03	21312.92
517.20	20823.75
517.37	20915.03
517.54	21067.16
517.72	21010.99
517.89	21067.16
518.06	21142.06
518.24	21380.79
518.41	21256.75
518.58	21205.25
518.75	21298.88
518.93	21329.30
519.10	21223.98
519.27	21483.78
519.45	21432.29
519.62	21612.51
519.79	21621.87
519.96	21336.32
520.14	21886.35
520.31	21851.24
520.48	21909.75
520.65	21626.55
520.83	21986.99
521.00	21717.83
521.17	21757.62
521.34	22211.68
521.52	21806.77
521.69	22188.28
521.86	22326.37
522.03	22059.55
522.20	22396.59
522.38	22394.25
522.55	22466.80
522.72	22508.93
522.89	22415.31
523.07	22480.85
523.24	22602.55
523.41	22813.20
523.58	22602.55
523.75	22527.66
523.92	22775.75
524.10	22675.11
524.27	22742.99
524.44	22700.86
524.61	23115.13
524.78	22855.33
524.96	22780.43
525.13	22761.71
525.30	23021.51
525.47	23012.15
525.64	23173.64
525.81	23220.45
525.98	23276.63
526.16	23346.84
526.33	23178.33
526.50	23503.66
526.67	23194.71
526.84	23494.30
527.01	23271.95
527.18	23295.35
527.36	23293.01
527.53	23789.20
527.70	23908.57
527.87	24119.22
528.04	23541.11
528.21	23894.53
528.38	24004.53
528.55	23810.27
528.72	23630.05
528.89	24060.71
529.07	24107.52
529.24	24032.62
529.41	24013.90
529.58	24063.05
529.75	24009.22
529.92	23939.00
530.09	24348.59
530.26	24559.24
530.43	24151.99
530.60	24119.22
530.77	24297.10
530.94	24463.28
531.11	24287.74
531.28	24247.95
531.46	24315.83
531.63	24451.58
531.80	24355.61
531.97	24531.15
532.14	24676.27
532.31	24554.56
532.48	24755.85
532.65	24790.95
532.82	24503.07
532.99	24540.52
533.16	24535.84
533.33	24926.71
533.50	25172.46
533.67	24952.45
533.84	24659.88
534.01	24699.67
534.18	24659.88
534.35	25053.09
534.52	24783.93
534.69	24889.26
534.86	25221.61
535.03	25160.76
535.20	25029.69
535.37	25516.52
535.54	25125.65
535.71	24961.81
535.88	25383.11
536.05	25151.40
536.22	25830.15
536.38	25542.27
536.55	25551.63
536.72	25453.33
536.89	25584.40
537.06	25450.99
537.23	25607.80
537.40	25727.17
537.57	25717.81
537.74	25891.01
537.91	25944.84
538.08	25560.99
538.25	25563.33
538.42	25986.97
538.59	26188.25
538.75	25750.57
538.92	26017.40
539.09	25692.06
539.26	26419.97
539.43	25993.99
539.60	26054.84
539.77	26085.27
539.94	26415.29
540.11	26075.91
540.28	26026.76
540.44	26164.85
540.61	26253.79
540.78	26096.97
540.95	26508.91
541.12	26326.35
541.29	26082.93
541.46	26569.76
541.62	26429.33
541.79	26391.88
541.96	26256.13
542.13	26267.83
542.30	26663.38
542.47	27110.43
542.63	26625.93
542.80	26981.70
542.97	27136.17
543.14	26544.02
543.31	26742.96
543.48	26899.78
543.64	26939.57
543.81	27070.64
543.98	26785.09
544.15	27040.21
544.32	27140.85
544.48	27487.25
544.65	27115.11
544.82	26885.73
544.99	27194.68
545.16	27426.40
545.32	27180.64
545.49	27428.74
545.66	27417.04
545.83	27325.75
546.00	27976.42
546.16	27550.45
546.33	27398.31
546.50	27185.32
546.67	27536.40
546.83	27000.42
547.00	27578.53
547.17	27681.52
547.34	27391.29
547.50	27803.22
547.67	28009.19
547.84	27536.40
548.00	27805.56
548.17	28079.41
548.34	27929.61
548.51	28046.64
548.67	28130.90
548.84	28236.22
549.01	28006.85
549.18	27824.29
549.34	27704.92
549.51	27772.80
549.68	27936.63
549.84	27623.00
550.01	28182.39
550.18	27985.79
550.34	28325.16
550.51	28173.03
550.68	28231.54
550.84	28011.53
551.01	28400.06
551.18	27948.34
551.34	28339.21
551.51	28009.19
551.68	28130.90
551.84	28638.80
552.01	28240.90
552.18	28320.48
552.34	28313.46
552.51	28751.14
552.68	28149.62
552.84	28320.48
553.01	28423.47
553.18	28409.42
553.34	28432.83
553.51	28631.77
553.67	28622.41
553.84	28606.03
554.01	28854.12
554.17	29174.78
554.34	28709.01
554.51	28755.82
554.67	29060.09
554.84	28938.38
555.00	28606.03
555.17	28893.91
555.33	29017.96
555.50	28826.04
555.67	28676.24
555.83	28716.03
556.00	28950.09
556.16	29156.05
556.33	29209.89
556.50	28936.04
556.66	29013.28
556.83	29226.27
556.99	29340.96
557.16	29319.89
557.32	29490.75
557.49	29130.31
557.65	29181.80
557.82	29195.84
557.98	28978.17
558.15	29296.49
558.32	29170.10
558.48	28982.85
558.65	29291.80
558.81	29385.43
558.98	29570.33
559.14	29483.73
559.31	29240.31
559.47	29200.52
559.64	29273.08
559.80	29303.51
559.97	29345.64
560.13	29350.32
560.30	29638.20
560.46	29476.71
560.63	29661.61
560.79	29589.05
560.96	29638.20
561.12	29483.73
561.29	29457.98
561.45	29170.10
561.61	29607.78
561.78	29586.71
561.94	29766.93
562.11	29579.69
562.27	29795.02
562.44	29799.70
562.60	29446.28
562.77	29624.16
562.93	29476.71
563.10	29813.74
563.26	29404.15
563.42	29755.23
563.59	30022.05
563.75	29324.57
563.92	29926.09
564.08	29729.48
564.24	29919.07
564.41	29481.39
564.57	29509.47
564.74	30171.85
564.90	30033.75
565.07	29717.78
565.23	30284.19
565.39	29989.28
565.56	30387.18
565.72	29591.39
565.88	29546.92
566.05	30000.99
566.21	29663.95
566.38	29788.00
566.54	29844.17
566.70	30019.71
566.87	30190.57
567.03	30157.80
567.19	30314.62
567.36	30101.63
567.52	29558.63
567.68	30064.18
567.85	30057.16
568.01	30410.58
568.17	29912.05
568.34	29759.91
568.50	30057.16
568.66	30204.61
568.83	30288.87
568.99	29968.22
569.15	30277.17
569.32	29977.58
569.48	29881.62
569.64	30103.97
569.81	29876.94
569.97	29996.31
570.13	30445.69
570.30	30122.69
570.46	30408.24
570.62	30307.60
570.78	30354.41
570.95	30277.17
571.11	30146.10
571.27	29977.58
571.43	29809.06
571.60	30246.74
571.76	30206.95
571.92	30192.91
572.09	30422.28
572.25	30632.93
572.41	30469.09
572.57	30366.11
572.74	30288.87
572.90	29977.58
573.06	30169.51
573.22	30197.59
573.38	30572.08
573.55	30455.05
573.71	30644.63
573.87	30565.06
574.03	30267.81
574.20	30387.18
574.36	30202.27
574.52	30333.34
574.68	30237.38
574.84	30382.49
575.01	30326.32
575.17	30279.51
575.33	30096.95
575.49	30335.68
575.65	30452.71
575.82	30876.35
575.98	30527.61
576.14	30511.22
576.30	30277.17
576.46	30040.78
576.62	30553.35
576.79	30462.07
576.95	30134.40
577.11	30803.79
577.27	30520.59
577.43	30665.70
577.59	30579.10
577.75	30792.09
577.92	30331.00
578.08	30204.61
578.24	30174.19
578.40	30235.04
578.56	30543.99
578.72	30593.14
578.88	30579.10
579.04	31122.10
579.21	30728.89
579.37	30712.51
579.53	30478.46
579.69	30347.39
579.85	30459.73
580.01	30284.19
580.17	30508.88
580.33	30787.41
580.49	30331.00
580.65	30450.37
580.82	31077.63
580.98	30787.41
581.14	30436.33
581.30	30600.16
581.46	30553.35
581.62	30724.21
581.78	30698.47
581.94	30899.75
582.10	30616.55
582.26	30562.72
582.42	30960.61
582.58	30892.73
582.74	30834.22
582.90	30817.83
583.06	30829.54
583.22	30309.94
583.38	30618.89
583.54	30583.78
583.70	30668.04
583.86	30658.68
584.02	30504.20
584.18	30581.44
584.34	30864.64
584.50	30558.03
584.66	30876.35
584.82	30370.79
584.98	30312.28
585.14	30756.98
585.30	30689.10
585.46	30583.78
585.62	30656.34
585.78	31159.55
585.94	30609.53
586.10	30967.63
586.26	30801.45
586.42	31087.00
586.58	30955.93
586.74	30885.71
586.90	30419.94
587.06	30773.36
587.22	30764.00
587.38	30265.47
587.54	30665.70
587.70	31175.94
587.86	30937.20
588.02	31264.88
588.18	31278.92
588.34	31070.61
588.49	30934.86
588.65	30955.93
588.81	31363.18
588.97	30972.31
589.13	31009.76
589.29	30918.48
589.45	30953.58
589.61	31311.69
589.77	31477.86
589.93	31262.54
590.08	31491.91
590.24	31016.78
590.40	31353.82
590.56	30995.71
590.72	30581.44
590.88	31133.81
591.04	31140.83
591.20	31260.20
591.35	31246.15
591.51	31220.41
591.67	31108.06
591.83	31655.75
591.99	31304.67
592.15	30946.56
592.31	31328.07
592.46	31040.18
592.62	31012.10
592.78	30892.73
592.94	30998.06
593.10	30897.41
593.26	31084.65
593.41	31262.54
593.57	31438.08
593.73	31426.37
593.89	31639.36
594.05	31253.17
594.20	31049.55
594.36	31147.85
594.52	31164.23
594.68	31281.26
594.84	31105.72
594.99	31082.31
595.15	31122.10
595.31	31213.38
595.47	31426.37
595.62	31468.50
595.78	31344.45
595.94	31314.03
596.10	31489.57
596.25	31360.84
596.41	30724.21
596.57	30920.82
596.73	31103.38
596.88	31353.82
597.04	31709.58
597.20	31349.14
597.36	31311.69
597.51	31398.29
597.67	31250.83
597.83	31419.35
597.99	31622.98
598.14	30939.54
598.30	31023.80
598.46	31555.10
598.61	31374.88
598.77	30803.79
598.93	31562.12
599.09	31379.56
599.24	31842.99
599.40	31861.71
599.56	31782.13
599.71	31459.14
599.87	31356.16
600.03	30967.63
600.18	31068.27
600.34	31082.31
600.50	31262.54
600.65	31475.52
600.81	31452.12
600.97	31480.21
601.12	31812.56
601.28	31534.04
601.44	31489.57
601.59	31498.93
601.75	31459.14
601.91	31534.04
602.06	30991.03
602.22	31449.78
602.37	31571.49
602.53	31159.55
602.69	31374.88
602.84	31201.68
603.00	31445.10
603.16	31571.49
603.31	31468.50
603.47	31236.79
603.62	31433.39
603.78	31211.04
603.94	31248.49
604.09	31054.23
604.25	31384.24
604.40	30965.29
604.56	31110.40
604.71	31438.08
604.87	31447.44
605.03	31552.76
605.18	31440.42
605.34	31225.09
605.49	31276.58
605.65	31328.07
605.80	31023.80
605.96	31417.01
606.12	31014.44
606.27	31360.84
606.43	31211.04
606.58	31468.50
606.74	31353.82
606.89	31456.80
607.05	31501.27
607.20	31545.74
607.36	30976.99
607.51	31384.24
607.67	30700.81
607.82	31016.78
607.98	31166.57
608.13	31248.49
608.29	31084.65
608.44	31115.08
608.60	31494.25
608.75	31274.24
608.91	31299.98
609.06	31005.08
609.22	31241.47
609.37	31119.76
609.53	30630.59
609.68	31028.48
609.84	31365.52
609.99	31126.78
610.15	31108.06
610.30	31234.45
610.46	31255.51
610.61	31087.00
610.76	31314.03
610.92	31061.25
611.07	31276.58
611.23	31094.02
611.38	31030.82
611.54	31145.51
611.69	30792.09
611.84	31063.59
612.00	30806.13
612.15	30768.68
612.31	30761.66
612.46	31367.86
612.62	30780.39
612.77	30862.30
612.92	31112.74
613.08	31002.74
613.23	30909.11
613.39	31035.50
613.54	30476.12
613.69	30972.31
613.85	30984.01
614.00	30930.18
614.15	31077.63
614.31	30843.58
614.46	31044.87
614.62	30630.59
614.77	31044.87
614.92	30895.07
615.08	30874.01
615.23	31014.44
615.38	30824.86
615.54	30492.50
615.69	30506.54
615.84	30675.06
616.00	30754.64
616.15	30909.11
616.30	30855.28
616.46	30703.15
616.61	30522.93
616.76	31019.12
616.92	30565.06
617.07	30644.63
617.22	30258.45
617.37	30478.46
617.53	30581.44
617.68	30436.33
617.83	30604.84
617.99	30333.34
618.14	30361.43
618.29	30391.86
618.45	30696.13
618.60	30295.89
618.75	30342.70
618.90	30438.67
619.06	30649.32
619.21	30188.23
619.36	30637.61
619.51	30188.23
619.67	30164.82
619.82	29944.81
619.97	30345.05
620.12	30029.07
620.28	29680.33
620.43	30504.20
620.58	30520.59
620.73	30366.11
620.89	30246.74
621.04	30457.39
621.19	29993.97
621.34	30338.02
621.49	30066.52
621.65	29696.72
621.80	30319.30
621.95	30050.14
622.10	30157.80
622.25	29687.36
622.41	29982.26
622.56	29834.81
622.71	30204.61
622.86	30237.38
623.01	30033.75
623.16	29687.36
623.32	29977.58
623.47	29893.32
623.62	29792.68
623.77	29785.66
623.92	30209.29
624.07	29460.32
624.23	29628.84
624.38	30293.55
624.53	29780.98
624.68	29942.47
624.83	29621.82
624.98	29993.97
625.13	29773.95
625.29	29949.50
625.44	29776.30
625.59	29689.70
625.74	29500.11
625.89	29677.99
626.04	29448.62
626.19	29546.92
626.34	29607.78
626.49	29422.87
626.65	29610.12
626.80	29582.03
626.95	29319.89
627.10	29233.29
627.25	29385.43
627.40	29432.24
627.55	29434.58
627.70	29488.41
627.85	29020.30
628.00	28985.19
628.15	29331.59
628.30	29298.83
628.45	29254.36
628.60	29195.84
628.76	29558.63
628.91	29556.28
629.06	29109.24
629.21	29366.70
629.36	29043.71
629.51	28905.62
629.66	29043.71
629.81	29015.62
629.96	28844.76
630.11	29209.89
630.26	28807.31
630.41	28584.96
630.56	29032.00
630.71	29067.11
630.86	28835.40
631.01	29200.52
631.16	28996.90
631.31	29357.34
631.46	29024.98
631.61	28870.51
631.76	28748.80
631.91	29123.29
632.06	28439.85
632.21	28816.68
632.36	28786.25
632.51	28627.09
632.66	28940.72
632.81	28748.80
632.96	28720.71
633.10	28861.15
633.25	28837.74
633.40	29343.30
633.55	28676.24
633.70	28648.16
633.85	28521.77
634.00	28804.97
634.15	28041.96
634.30	28397.72
634.45	28299.42
634.60	28067.70
634.75	28503.04
634.90	28343.89
635.05	28594.32
635.19	28575.60
635.34	29017.96
635.49	28444.53
635.64	28407.08
635.79	28268.99
635.94	28596.67
636.09	28531.13
636.24	28498.36
636.39	28154.30
636.53	28297.08
636.68	28119.20
636.83	28336.87
636.98	28528.79
637.13	28283.03
637.28	28311.12
637.43	28465.60
637.57	28437.51
637.72	27985.79
637.87	28226.86
638.02	28325.16
638.17	28395.38
638.32	27899.19
638.46	28027.92
638.61	28240.90
638.76	27885.14
638.91	27894.50
639.06	27857.06
639.20	27988.13
639.35	28390.70
639.50	27651.09
639.65	27798.54
639.80	28100.47
639.94	27700.24
640.09	27934.29
640.24	28182.39
640.39	27768.12
640.54	27828.97
640.68	27693.22
640.83	28002.17
640.98	27548.11
641.13	27538.74
641.27	27718.96
641.42	27779.82
641.57	27573.85
641.72	27957.70
641.86	27967.06
642.01	27644.07
642.16	27639.39
642.31	27487.25
642.45	27424.06
642.60	27461.51
642.75	27405.33
642.90	27531.72
643.04	27601.94
643.19	27243.84
643.34	27255.54
643.48	27768.12
643.63	27782.16
643.78	27330.44
643.93	27407.67
644.07	27475.55
644.22	27440.44
644.37	27384.27
644.51	27714.28
644.66	27103.40
644.81	27063.61
644.95	27197.02
645.10	27239.15
645.25	27147.87
645.39	27335.12
645.54	27337.46
645.69	27047.23
645.83	27323.41
645.98	27236.81
646.13	27878.12
646.27	27571.51
646.42	27405.33
646.57	27604.28
646.71	27159.58
646.86	27206.39
647.00	27262.56
647.15	27232.13
647.30	26787.43
647.44	26948.93
647.59	26939.57
647.74	27009.78
647.88	27133.83
648.03	27072.98
648.17	27040.21
648.32	27491.93
648.47	26913.82
648.61	26885.73
648.76	27087.02
648.90	26993.40
649.05	27248.52
649.20	26918.50
649.34	26693.81
649.49	26806.16
649.63	26436.35
649.78	26401.24
649.92	26838.92
650.07	26923.18
650.21	26773.39
650.36	26654.02
650.51	26361.45
650.65	26712.53
650.80	26672.74
650.94	26593.17
651.09	26644.66
651.23	26506.57
651.38	26476.14
651.52	26431.67
651.67	26724.24
651.81	26590.83
651.96	26412.95
652.10	26761.69
652.25	26527.63
652.39	26726.58
652.54	26757.00
652.68	26504.23
652.83	26534.65
652.97	26675.09
653.12	26401.24
653.26	26785.09
653.41	26724.24
653.55	25956.54
653.70	26094.63
653.84	26593.17
653.99	26214.00
654.13	26448.05
654.27	26223.36
654.42	26501.89
654.56	26394.22
654.71	26436.35
654.85	25998.67
655.00	26490.18
655.14	26754.66
655.29	26555.72
655.43	26230.38
655.57	26230.38
655.72	25944.84
655.86	26045.48
656.01	26064.21
656.15	26129.74
656.30	25923.77
656.44	26045.48
656.58	25788.02
656.73	26043.14
656.87	25535.24
657.01	26075.91
657.16	25989.31
657.30	25975.27
657.45	26305.28
657.59	26146.12
657.73	26024.42
657.88	25879.30
658.02	25666.31
658.16	25940.16
658.31	25867.60
658.45	25883.98
658.60	25575.03
658.74	25813.77
658.88	25621.84
659.03	25446.30
659.17	25406.52
659.31	25741.21
659.46	25397.15
659.60	25659.29
659.74	25436.94
659.89	25303.53
660.03	25329.28
660.17	25404.17
660.32	25209.91
660.46	25317.57
660.60	25202.89
660.74	25195.87
660.89	25181.82
661.03	24877.55
661.17	25708.44
661.32	25333.96
661.46	25296.51
661.60	25177.14
661.74	25308.21
661.89	25614.82
662.03	25340.98
662.17	25446.30
662.31	25118.63
662.46	24994.58
662.60	24762.87
662.74	24936.07
662.88	24823.72
663.03	24528.81
663.17	24496.05
663.31	24491.37
663.45	24596.69
663.60	24561.58
663.74	24484.34
663.88	24379.02
664.02	24423.49
664.17	25099.90
664.31	24353.27
664.45	24540.52
664.59	24577.97
664.73	24428.17
664.88	24130.92
665.02	24261.99
665.16	24159.01
665.30	24472.64
665.44	24350.93
665.59	24196.46
665.73	24074.75
665.87	24142.63
666.01	24166.03
666.15	24121.56
666.29	24294.76
666.44	24184.76
666.58	23749.42
666.72	23751.76
666.86	24400.08
667.00	24479.66
667.14	23864.10
667.28	23953.04
667.43	24189.44
667.57	24191.78
667.71	23669.84
667.85	23555.15
667.99	23442.81
668.13	23599.62
668.27	23510.68
668.41	23931.98
668.56	23534.09
668.70	23882.83
668.84	23559.83
668.98	23662.82
669.12	23838.36
669.26	23772.82
669.40	23278.97
669.54	23370.25
669.68	23215.77
669.82	23239.18
669.96	22771.07
670.10	23009.81
670.25	23271.95
670.39	23241.52
670.53	22757.03
670.67	22733.62
670.81	22906.82
670.95	22712.56
671.09	23000.44
671.23	22988.74
671.37	22883.42
671.51	22993.42
671.65	22691.49
671.79	23014.49
671.93	22630.64
672.07	22436.38
672.21	22553.40
672.35	22169.55
672.49	22469.14
672.63	22153.17
672.77	22527.66
672.91	22031.46
673.05	22518.29
673.19	22441.06
673.33	22305.31
673.47	22087.64
673.61	22527.66
673.75	22525.32
673.89	22181.26
674.03	22026.78
674.17	21909.75
674.31	21986.99
674.45	22134.45
674.59	22080.61
674.73	21769.32
674.87	21507.18
675.01	21521.23
675.15	21687.40
675.29	21455.69
675.43	21488.46
675.56	21752.94
675.70	21820.81
675.84	21511.86
675.98	21163.12
676.12	21652.30
676.26	21530.59
676.40	21607.83
676.54	21174.83
676.68	21270.79
676.82	20814.38
676.96	20879.92
677.10	20959.50
677.23	20912.69
677.37	20610.76
677.51	20697.36
677.65	21053.12
677.79	20716.08
677.93	20435.22
678.07	20404.79
678.21	20362.66
678.34	20159.03
678.48	20472.67
678.62	19920.30
678.76	20262.02
678.90	20184.78
679.04	20393.09
679.18	20325.21
679.31	19999.88
679.45	20259.68
679.59	19868.81
679.73	19681.56
679.87	19721.35
680.00	19756.46
680.14	19475.60
680.28	19550.49
680.42	19403.04
680.56	19999.88
680.70	19697.95
680.83	19697.95
680.97	19592.62
681.11	19566.88
681.25	19073.03
681.39	19417.08
681.52	19140.90
681.66	19117.50
681.80	19281.33
681.94	18679.82
682.07	19007.49
682.21	18815.57
682.35	18904.51
682.49	18771.10
682.62	18808.54
682.76	18616.62
682.90	18941.96
683.04	18932.59
683.17	18405.97
683.31	18607.26
683.45	18560.45
683.59	18539.38
683.72	18347.46
683.86	18457.46
684.00	18574.49
684.13	18225.75
684.27	17958.93
684.41	17759.98
684.55	17802.11
684.68	17652.32
684.82	17661.68
684.96	17586.79
685.09	17846.58
685.23	17364.43
685.37	17582.10
685.50	17832.54
685.64	17759.98
685.78	17479.12
685.91	17748.28
686.05	17549.34
686.19	17273.15
686.32	17359.75
686.46	17060.16
686.60	17245.07
686.73	17266.13
686.87	17001.65
687.01	16891.65
687.14	16800.37
687.28	16865.90
687.42	16713.77
687.55	16697.38
687.69	16491.41
687.82	16617.80
687.96	16772.28
688.10	16430.56
688.23	16793.34
688.37	16517.16
688.50	16512.48
688.64	16365.03
688.78	16311.19
688.91	16135.65
689.05	16112.25
689.18	16037.35
689.32	15749.46
689.46	15992.88
689.59	15854.79
689.73	15901.60
689.86	15798.62
690.00	15796.28
690.13	15536.48
690.27	15704.99
690.41	15981.18
690.54	15777.55
690.68	15379.66
690.81	15611.37
690.95	15789.25
691.08	15447.54
691.22	15693.29
691.35	15541.16
691.49	15194.76
691.62	15393.70
691.76	15145.61
691.89	15119.86
692.03	15012.20
692.16	14700.90
692.30	14956.02
692.43	14792.19
692.57	14616.65
692.70	14553.45
692.84	14705.59
692.97	14661.12
693.11	14656.43
693.24	14410.68
693.38	14576.86
693.51	14340.46
693.65	14499.62
693.78	14160.24
693.92	14368.55
694.05	14359.19
694.19	14197.69
694.32	14256.20
694.45	14017.47
694.59	13926.19
694.72	13727.24
694.86	13671.07
694.99	13544.68
695.13	13891.08
695.26	13528.30
695.39	13383.18
695.53	13682.77
695.66	13558.72
695.80	13708.52
695.93	13427.65
696.07	13734.26
696.20	13455.74
696.33	13469.78
696.47	13390.20
696.60	13350.42
696.73	13334.03
696.87	13249.77
697.00	13245.09
697.14	12896.35
697.27	12786.35
697.40	12751.24
697.54	12774.64
697.67	12847.20
697.80	12718.47
697.94	12585.06
698.07	12339.30
698.21	12416.54
698.34	12468.03
698.47	12585.06
698.61	12397.82
698.74	12423.56
698.87	12524.21
699.01	12325.26
699.14	12030.35
699.27	12456.33
699.40	12229.30
699.54	11992.90
699.67	11985.88
699.80	11665.23
699.94	11852.47
700.07	11812.68
700.20	11686.29
700.34	11882.90
700.47	11723.74
700.60	11515.44
700.73	11688.64
700.87	11618.42
701.00	11452.24
701.13	11410.11
701.26	11290.74
701.40	11407.77
701.53	11419.47
701.66	11417.13
701.79	11208.83
701.93	11290.74
702.06	11044.99
702.19	10953.71
702.32	10988.82
702.46	10916.26
702.59	10902.22
702.72	10817.96
702.85	10832.00
702.99	10656.46
703.12	10595.61
703.25	10572.20
703.38	10895.19
703.51	10801.57
703.65	10445.81
703.78	10668.16
703.91	10520.71
704.04	10593.26
704.17	10452.83
704.31	10225.80
704.44	10204.74
704.57	10176.65
704.70	10111.11
704.83	10097.07
704.96	10270.27
705.10	10005.79
705.23	9872.38
>>>>>End Processed Spectral Data<<<<<
