SpectraSuite Data File
++++++++++++++++++++++++++++++++++++
Date: Fri Oct 18 13:58:24 GMT-05:00 2013
User: bianchi
Dark Spectrum Present: No
Reference Spectrum Present: No
Number of Sampled Component Spectra: 1
Spectrometers: USB2+H05261
Integration Time (usec): 50000 (USB2+H05261)
Spectra Averaged: 1 (USB2+H05261)
Boxcar Smoothing: 0 (USB2+H05261)
Correct for Electrical Dark: No (USB2+H05261)
Strobe/Lamp Enabled: No (USB2+H05261)
Correct for Detector Non-linearity: No (USB2+H05261)
Correct for Stray Light: No (USB2+H05261)
Number of Pixels in Processed Spectrum: 2048
>>>>>Begin Processed Spectral Data<<<<<
365.73	0.00
365.92	0.00
366.12	0.00
366.32	0.00
366.52	0.00
366.72	0.00
366.91	0.00
367.11	0.00
367.31	0.00
367.51	0.00
367.70	0.00
367.90	0.00
368.10	0.00
368.30	0.00
368.49	0.00
368.69	0.00
368.89	0.00
369.09	0.00
369.28	0.00
369.48	0.00
369.68	0.00
369.87	0.00
370.07	0.00
370.27	0.00
370.47	21.06
370.66	112.35
370.86	107.66
371.06	126.39
371.25	135.75
371.45	93.62
371.65	105.32
371.84	88.94
372.04	98.30
372.24	128.73
372.44	182.56
372.63	217.67
372.83	208.31
373.03	187.24
373.22	166.18
373.42	259.80
373.62	201.29
373.81	189.58
374.01	154.48
374.21	252.78
374.40	210.65
374.60	229.37
374.79	278.52
374.99	229.37
375.19	241.08
375.38	271.50
375.58	252.78
375.78	238.73
375.97	250.44
376.17	346.40
376.37	182.56
376.56	201.29
376.76	290.23
376.95	276.18
377.15	248.10
377.35	320.65
377.54	285.55
377.74	234.05
377.93	301.93
378.13	337.04
378.33	327.68
378.52	238.73
378.72	283.20
378.91	304.27
379.11	234.05
379.31	269.16
379.50	292.57
379.70	255.12
379.89	341.72
380.09	229.37
380.28	215.33
380.48	346.40
380.68	276.18
380.87	334.70
381.07	294.91
381.26	313.63
381.46	372.15
381.65	369.80
381.85	372.15
382.04	341.72
382.24	327.68
382.43	320.65
382.63	332.36
382.83	283.20
383.02	318.31
383.22	435.34
383.41	369.80
383.61	334.70
383.80	341.72
384.00	348.74
384.19	355.76
384.39	416.62
384.58	400.23
384.78	355.76
384.97	369.80
385.17	346.40
385.36	386.19
385.56	388.53
385.75	404.91
385.95	360.44
386.14	397.89
386.34	386.19
386.53	381.51
386.72	463.43
386.92	423.64
387.11	423.64
387.31	472.79
387.50	400.23
387.70	416.62
387.89	437.68
388.09	428.32
388.28	475.13
388.48	454.06
388.67	447.04
388.86	404.91
389.06	517.26
389.25	465.77
389.45	418.96
389.64	449.38
389.84	437.68
390.03	543.00
390.22	447.04
390.42	528.96
390.61	395.55
390.81	477.47
391.00	580.45
391.19	416.62
391.39	575.77
391.58	482.15
391.78	531.30
391.97	592.16
392.16	503.22
392.36	535.98
392.55	575.77
392.75	535.98
392.94	533.64
393.13	519.60
393.33	592.16
393.52	521.94
393.71	610.88
393.91	573.43
394.10	479.81
394.29	585.13
394.49	641.31
394.68	608.54
394.88	638.97
395.07	648.33
395.26	638.97
395.46	603.86
395.65	589.82
395.84	620.24
396.04	634.29
396.23	620.24
396.42	613.22
396.62	688.12
396.81	601.52
397.00	624.92
397.19	678.76
397.39	631.94
397.58	725.57
397.77	641.31
397.97	645.99
398.16	777.06
398.35	734.93
398.55	674.07
398.74	664.71
398.93	720.88
399.12	758.33
399.32	748.97
399.51	716.20
399.70	748.97
399.90	709.18
400.09	723.23
400.28	706.84
400.47	767.70
400.67	788.76
400.86	800.46
401.05	734.93
401.24	814.51
401.44	884.72
401.63	723.23
401.82	823.87
402.01	697.48
402.21	896.43
402.40	798.12
402.59	866.00
402.78	767.70
402.97	866.00
403.17	833.23
403.36	971.32
403.55	938.55
403.74	821.53
403.93	964.30
404.13	950.26
404.32	898.77
404.51	992.39
404.70	929.19
404.89	994.73
405.09	954.94
405.28	931.53
405.47	959.62
405.66	1025.15
405.85	990.05
406.05	866.00
406.24	1053.24
406.43	931.53
406.62	1008.77
406.81	1212.40
407.00	912.81
407.20	983.02
407.39	1029.84
407.58	1074.31
407.77	1055.58
407.96	1193.67
408.15	1081.33
408.34	1088.35
408.54	1188.99
408.73	1144.52
408.92	1186.65
409.11	1151.54
409.30	1067.28
409.49	1153.88
409.68	1048.56
409.87	1146.86
410.07	1205.38
410.26	1128.14
410.45	1153.88
410.64	1170.27
410.83	1156.22
411.02	1256.87
411.21	1294.32
411.40	1177.29
411.59	1291.98
411.78	1254.53
411.98	1259.21
412.17	1341.13
412.36	1268.57
412.55	1299.00
412.74	1348.15
412.93	1371.55
413.12	1294.32
413.31	1308.36
413.50	1394.96
413.69	1420.71
413.88	1511.99
414.07	1390.28
414.26	1411.34
414.45	1465.18
414.64	1441.77
414.83	1586.88
415.02	1537.73
415.22	1535.39
415.41	1593.90
415.60	1551.78
415.79	1610.29
415.98	1636.03
416.17	1771.79
416.36	1643.06
416.55	1624.33
416.74	1692.21
416.93	1729.66
417.12	1739.02
417.31	1842.00
417.50	1708.59
417.69	1776.47
417.88	1696.89
418.07	1713.27
418.26	1687.53
418.45	1666.46
418.64	1877.11
418.83	1881.79
419.02	1825.62
419.21	1823.28
419.39	1799.87
419.58	1827.96
419.77	1877.11
419.96	1797.53
420.15	1895.83
420.34	1881.79
420.53	1898.17
420.72	1987.11
420.91	1926.26
421.10	1881.79
421.29	1930.94
421.48	1907.54
421.67	2015.20
421.86	1996.48
422.05	1923.92
422.24	1940.30
422.43	1849.02
422.61	1930.94
422.80	2076.06
422.99	2078.40
423.18	2078.40
423.37	2047.97
423.56	2052.65
423.75	1977.75
423.94	2024.56
424.13	1912.22
424.32	1942.64
424.50	2097.12
424.69	2052.65
424.88	2176.70
425.07	2024.56
425.26	2015.20
425.45	2054.99
425.64	2078.40
425.83	2101.80
426.01	2085.42
426.20	2155.63
426.39	2001.16
426.58	2057.33
426.77	2024.56
426.96	2139.25
427.15	2010.52
427.33	2071.37
427.52	2136.91
427.71	2106.48
427.90	2204.78
428.09	2167.34
428.28	2160.31
428.46	2162.66
428.65	2277.34
428.84	2275.00
429.03	2317.13
429.22	2207.13
429.40	2200.10
429.59	2335.85
429.78	2132.23
429.97	2097.12
430.16	2256.28
430.34	2335.85
430.53	2422.45
430.72	2373.30
430.91	2366.28
431.10	2335.85
431.28	2385.01
431.47	2396.71
431.66	2422.45
431.85	2520.76
432.03	2319.47
432.22	2499.69
432.41	2389.69
432.60	2450.54
432.79	2387.35
432.97	2471.61
433.16	2534.80
433.35	2497.35
433.54	2473.95
433.72	2553.52
433.91	2436.50
434.10	2567.57
434.28	2396.71
434.47	2605.02
434.66	2562.89
434.85	2640.12
435.03	2612.04
435.22	2541.82
435.41	2654.17
435.59	2597.99
435.78	2560.55
435.97	2684.59
436.16	2558.21
436.34	2733.75
436.53	2644.81
436.72	2696.30
436.90	2764.17
437.09	2672.89
437.28	2722.04
437.46	2722.04
437.65	2813.32
437.84	2754.81
438.02	2935.03
438.21	2841.41
438.40	2696.30
438.58	2785.24
438.77	2925.67
438.96	2906.95
439.14	3019.29
439.33	3023.97
439.52	2984.18
439.70	2977.16
439.89	3089.51
440.08	3047.38
440.26	3073.12
440.45	3045.04
440.63	3098.87
440.82	3225.26
441.01	3131.64
441.19	3262.71
441.38	3234.62
441.57	3068.44
441.75	3316.54
441.94	3253.34
442.12	3234.62
442.31	3141.00
442.50	3417.18
442.68	3424.20
442.87	3267.39
443.05	3290.79
443.24	3487.40
443.43	3318.88
443.61	3435.91
443.80	3503.78
443.98	3316.54
444.17	3328.24
444.35	3417.18
444.54	3595.06
444.73	3552.93
444.91	3494.42
445.10	3440.59
445.28	3492.08
445.47	3485.06
445.65	3513.14
445.84	3442.93
446.02	3492.08
446.21	3501.44
446.39	3431.23
446.58	3524.85
446.77	3597.40
446.95	3461.65
447.14	3496.76
447.32	3569.32
447.51	3508.46
447.69	3552.93
447.88	3529.53
448.06	3541.23
448.25	3459.31
448.43	3541.23
448.62	3473.36
448.80	3496.76
448.99	3632.51
449.17	3679.32
449.36	3513.14
449.54	3665.28
449.73	3716.77
449.91	3894.65
450.10	3824.44
450.28	3681.66
450.46	3726.13
450.65	3805.71
450.83	3770.60
451.02	3801.03
451.20	3824.44
451.39	3712.09
451.57	3934.44
451.76	3812.73
451.94	3791.67
452.13	3943.80
452.31	3761.24
452.49	3744.86
452.68	3899.33
452.86	3840.82
453.05	3920.40
453.23	4093.60
453.42	3896.99
453.60	3915.72
453.78	4117.00
453.97	3887.63
454.15	3815.07
454.34	3929.76
454.52	4107.64
454.70	3981.25
454.89	3995.29
455.07	4004.66
455.26	3978.91
455.44	4100.62
455.62	4079.55
455.81	4051.47
455.99	3999.98
456.17	4198.92
456.36	4215.30
456.54	4177.86
456.73	4154.45
456.91	4430.63
457.09	4273.82
457.28	4411.91
457.46	4383.82
457.64	4278.50
457.83	4505.53
458.01	4365.10
458.19	4337.01
458.38	4390.84
458.56	4575.75
458.74	4423.61
458.93	4437.66
459.11	4491.49
459.29	4489.15
459.48	4557.02
459.66	4479.79
459.84	4468.08
460.03	4650.64
460.21	4568.73
460.39	4550.00
460.57	4496.17
460.76	4699.80
460.94	4664.69
461.12	4678.73
461.31	4720.86
461.49	4512.55
461.67	4617.88
461.85	4870.65
462.04	4662.35
462.22	4645.96
462.40	4947.89
462.59	4856.61
462.77	4800.44
462.95	4732.56
463.13	4781.71
463.32	4718.52
463.50	4851.93
463.68	4798.10
463.86	4781.71
464.05	4826.18
464.23	4798.10
464.41	4931.51
464.59	4791.08
464.78	4954.91
464.96	4919.81
465.14	4945.55
465.32	4933.85
465.50	5109.39
465.69	5025.13
465.87	4964.28
466.05	4957.25
466.23	5090.67
466.41	5111.73
466.60	5207.69
466.78	5149.18
466.96	4985.34
467.14	5238.12
467.32	5254.50
467.51	5284.93
467.69	4999.38
467.87	5167.90
468.05	5242.80
468.23	5322.38
468.41	5181.95
468.60	5235.78
468.78	5327.06
468.96	5195.99
469.14	5376.21
469.32	5289.61
469.50	5203.01
469.69	5357.49
469.87	5373.87
470.05	5425.36
470.23	5521.32
470.41	5523.66
470.59	5561.11
470.77	5568.13
470.95	5359.83
471.14	5570.48
471.32	5502.60
471.50	5572.82
471.68	5558.77
471.86	5631.33
472.04	5614.95
472.22	5863.04
472.40	5699.20
472.58	5879.43
472.77	5797.51
472.95	5926.24
473.13	6003.47
473.31	5748.36
473.49	5750.70
473.67	5966.03
473.85	5980.07
474.03	6078.37
474.21	5956.66
474.39	6057.31
474.57	5834.96
474.75	6099.44
474.93	6136.88
475.12	6176.67
475.30	6272.64
475.48	6270.30
475.66	6230.51
475.84	6392.00
476.02	6497.33
476.20	6459.88
476.38	6436.47
476.56	6595.63
476.74	6272.64
476.92	6668.19
477.10	6497.33
477.28	6778.19
477.46	6731.38
477.64	6836.70
477.82	6761.81
478.00	6878.83
478.18	7080.12
478.36	6740.74
478.54	6885.86
478.72	7054.37
478.90	7190.13
479.08	7145.66
479.26	7316.51
479.44	7368.01
479.62	7379.71
479.80	7466.31
479.98	7606.74
480.16	7599.72
480.34	7599.72
480.52	7665.25
480.70	7716.75
480.88	7630.15
481.06	7695.68
481.24	7747.17
481.41	7737.81
481.59	8051.44
481.77	8285.50
481.95	7960.16
482.13	8161.45
482.31	8241.03
482.49	8210.60
482.67	8219.96
482.85	8430.61
483.03	8704.45
483.21	8542.96
483.39	8449.33
483.57	8489.12
483.74	8690.41
483.92	8952.55
484.10	8613.17
484.28	9041.49
484.46	9261.50
484.64	9366.82
484.82	9018.08
485.00	9268.52
485.18	9177.24
485.35	9415.98
485.53	9270.86
485.71	9565.77
485.89	9720.24
486.07	9703.86
486.25	9535.34
486.43	9738.97
486.61	9778.76
486.78	10078.35
486.96	9935.57
487.14	10148.56
487.32	10076.01
487.50	10389.64
487.68	10396.66
487.85	10635.39
488.03	10530.07
488.21	10752.42
488.39	10644.76
488.57	10691.57
488.75	10789.87
488.92	10883.49
489.10	10967.75
489.28	10855.40
489.46	11206.48
489.64	11201.80
489.81	11398.41
489.99	11206.48
490.17	11309.47
490.35	11510.75
490.53	11531.82
490.70	11545.86
490.88	11445.22
491.06	11903.96
491.24	11920.35
491.41	12023.33
491.59	12327.60
491.77	12168.45
491.95	12217.60
492.13	12294.83
492.30	12343.99
492.48	12271.43
492.66	12444.63
492.84	12500.80
493.01	12641.23
493.19	12774.64
493.37	12879.97
493.54	12776.98
493.72	12915.08
493.90	13048.49
494.08	13092.96
494.25	13387.86
494.43	13226.37
494.61	13525.96
494.79	13193.60
494.96	13490.85
495.14	13488.51
495.32	13467.44
495.49	13614.90
495.67	13685.11
495.85	13851.29
496.02	14033.85
496.20	14047.90
496.38	14153.22
496.55	14075.98
496.73	14441.11
496.91	14279.61
497.09	14263.22
497.26	14628.35
497.44	14525.36
497.62	14501.96
497.79	14579.20
497.97	14593.24
498.14	14871.76
498.32	15126.88
498.50	15082.41
498.67	15243.91
498.85	15194.76
499.03	15295.40
499.20	14888.15
499.38	14831.97
499.56	15482.64
499.73	15529.45
499.91	15531.80
500.08	15566.90
500.26	15536.48
500.44	15587.97
500.61	15501.37
500.79	15829.04
500.97	15555.20
501.14	16262.04
501.32	16074.80
501.49	15957.77
501.67	16018.63
501.84	15925.00
502.02	16035.01
502.20	16177.78
502.37	16123.95
502.55	16442.26
502.72	16329.92
502.90	16215.23
503.07	16170.76
503.25	16137.99
503.43	16355.66
503.60	16741.85
503.78	16631.85
503.95	16690.36
504.13	16697.38
504.30	16652.91
504.48	16849.52
504.65	16793.34
504.83	16968.88
505.01	17298.90
505.18	17266.13
505.36	17366.78
505.53	17083.57
505.71	17287.20
505.88	17315.28
506.06	17027.40
506.23	17427.63
506.41	17664.02
506.58	17603.17
506.76	17699.13
506.93	17717.86
507.11	17575.08
507.28	17518.91
507.46	17809.14
507.63	17900.42
507.81	17855.95
507.98	17769.35
508.16	17717.86
508.33	17834.88
508.50	18155.54
508.68	18202.35
508.85	18363.84
509.03	18242.14
509.20	18338.10
509.38	18349.80
509.55	18562.79
509.73	18658.75
509.90	18455.12
510.08	18508.96
510.25	18300.65
510.42	18735.99
510.60	18576.83
510.77	18881.10
510.95	19019.19
511.12	18838.97
511.30	18740.67
511.47	19073.03
511.64	18789.82
511.82	19391.34
511.99	19131.54
512.17	19063.66
512.34	19185.37
512.51	19424.11
512.69	19234.52
512.86	19325.80
513.04	19398.36
513.21	19510.71
513.38	19585.60
513.56	19726.04
513.73	19470.92
513.90	19398.36
514.08	19662.84
514.25	19777.53
514.43	19822.00
514.60	20046.69
514.77	19957.75
514.95	19903.92
515.12	19941.36
515.29	19836.04
515.47	19943.70
515.64	20556.93
515.81	20187.12
515.99	20374.36
516.16	20636.50
516.33	20341.60
516.51	20800.34
516.68	20645.87
516.85	20596.71
517.03	20615.44
517.20	20685.65
517.37	20865.88
517.54	20706.72
517.72	20713.74
517.89	20673.95
518.06	20706.72
518.24	20638.84
518.41	20922.05
518.58	21069.50
518.75	20758.21
518.93	21214.62
519.10	21109.29
519.27	21317.60
519.45	21036.74
519.62	21298.88
519.79	21312.92
519.96	21439.31
520.14	21577.40
520.31	21266.11
520.48	21497.82
520.65	21614.85
520.83	21605.49
521.00	21596.12
521.17	21532.93
521.34	21659.32
521.52	21605.49
521.69	21893.37
521.86	22022.10
522.03	21919.12
522.20	22251.47
522.38	21799.75
522.55	21984.65
522.72	22230.41
522.89	22148.49
523.07	22242.11
523.24	22340.41
523.41	21975.29
523.58	22202.32
523.75	22480.85
523.92	22239.77
524.10	22359.14
524.27	22401.27
524.44	22735.96
524.61	22663.41
524.78	22607.23
524.96	22815.54
525.13	22160.19
525.30	22455.10
525.47	22815.54
525.64	22700.86
525.81	22799.16
525.98	22668.09
526.16	22740.64
526.33	22710.22
526.50	22986.40
526.67	22862.35
526.84	23035.55
527.01	22799.16
527.18	23344.50
527.36	23271.95
527.53	23349.18
527.70	23386.63
527.87	23206.41
528.04	23363.23
528.21	23370.25
528.38	23403.02
528.55	23580.90
528.72	23475.57
528.89	23529.41
529.07	23543.45
529.24	23590.26
529.41	23578.56
529.58	23571.54
529.75	23477.91
529.92	23768.14
530.09	24053.69
530.26	23887.51
530.43	23800.91
530.60	23604.30
530.77	23824.31
530.94	23988.15
531.11	23644.09
531.28	23889.85
531.46	23697.92
531.63	24177.73
531.80	24159.01
531.97	24116.88
532.14	24343.91
532.31	24470.30
532.48	23929.64
532.65	24463.28
532.82	24121.56
532.99	24404.77
533.16	24142.63
533.33	24542.86
533.50	24453.92
533.67	24781.59
533.84	24301.78
534.01	24788.61
534.18	24250.29
534.35	25027.35
534.52	24496.05
534.69	24769.89
534.86	25015.65
535.03	24858.83
535.20	24884.58
535.37	24687.97
535.54	25200.55
535.71	24856.49
535.88	24884.58
536.05	25226.29
536.22	25247.36
536.38	25273.10
536.55	25282.47
536.72	25235.66
536.89	25153.74
537.06	25179.48
537.23	25336.30
537.40	25441.62
537.57	25212.25
537.74	25282.47
537.91	25376.09
538.08	25483.75
538.25	25277.79
538.42	25570.35
538.59	25572.69
538.75	25046.07
538.92	25408.86
539.09	25612.48
539.26	25537.59
539.43	25415.88
539.60	25951.86
539.77	25778.66
539.94	25708.44
540.11	26022.08
540.28	25792.70
540.44	25886.32
540.61	25750.57
540.78	25715.47
540.95	25607.80
541.12	25530.56
541.29	25893.35
541.46	26199.96
541.62	26263.15
541.79	25991.65
541.96	25596.10
542.13	25968.24
542.30	26218.68
542.47	26199.96
542.63	26494.86
542.80	26396.56
542.97	26527.63
543.14	26558.06
543.31	26490.18
543.48	26504.23
543.64	26742.96
543.81	26679.77
543.98	26789.77
544.15	26785.09
544.32	26909.14
544.48	26918.50
544.65	27009.78
544.82	26829.56
544.99	26981.70
545.16	26366.13
545.32	26918.50
545.49	26815.52
545.66	27049.57
545.83	27047.23
546.00	26951.27
546.16	26871.69
546.33	26728.92
546.50	26642.32
546.67	27208.73
546.83	26366.13
547.00	27070.64
547.17	27288.31
547.34	27194.68
547.50	27349.16
547.67	27260.22
547.84	27466.19
548.00	27213.41
548.17	27831.31
548.34	27484.91
548.51	27402.99
548.67	27669.81
548.84	27637.05
549.01	27402.99
549.18	27248.52
549.34	27424.06
549.51	27573.85
549.68	27302.35
549.84	27407.67
550.01	27679.18
550.18	27475.55
550.34	27843.01
550.51	27758.75
550.68	27700.24
550.84	27379.59
551.01	27875.78
551.18	27934.29
551.34	27601.94
551.51	27718.96
551.68	27807.90
551.84	27999.83
552.01	27981.10
552.18	27997.49
552.34	27592.58
552.51	28151.96
552.68	27667.47
552.84	28095.79
553.01	28079.41
553.18	28112.17
553.34	28348.57
553.51	28219.84
553.67	28208.14
553.84	28404.74
554.01	28196.43
554.17	28304.10
554.34	28332.18
554.51	27807.90
554.67	28198.77
554.84	28514.75
555.00	28376.66
555.17	28100.47
555.33	28556.88
555.50	28177.71
555.67	28528.79
555.83	28196.43
556.00	28753.48
556.16	28760.50
556.33	28369.63
556.50	28624.75
556.66	28465.60
556.83	28421.13
556.99	28479.64
557.16	28713.69
557.32	28980.51
557.49	28882.21
557.65	28603.69
557.82	28861.15
557.98	28713.69
558.15	28926.68
558.32	28959.45
558.48	28830.72
558.65	28685.61
558.81	28900.94
558.98	29036.69
559.14	28386.02
559.31	28697.31
559.47	28432.83
559.64	28526.45
559.80	28657.52
559.97	29181.80
560.13	28655.18
560.30	28861.15
560.46	29441.60
560.63	29125.63
560.79	29537.56
560.96	29134.99
561.12	29041.37
561.29	29095.20
561.45	29137.33
561.61	28940.72
561.78	29472.03
561.94	29567.99
562.11	29291.80
562.27	29284.78
562.44	28800.29
562.60	29390.11
562.77	28877.53
562.93	29305.85
563.10	29420.53
563.26	29329.25
563.42	29467.34
563.59	29352.66
563.75	29289.46
563.92	29364.36
564.08	29027.32
564.24	29277.76
564.41	29170.10
564.57	29577.35
564.74	29434.58
564.90	28833.06
565.07	29532.88
565.23	29502.45
565.39	29280.10
565.56	29383.09
565.72	29579.69
565.88	29457.98
566.05	29174.78
566.21	29387.77
566.38	29628.84
566.54	29205.20
566.70	29685.01
566.87	29628.84
567.03	29582.03
567.19	29869.92
567.36	29757.57
567.52	29404.15
567.68	29170.10
567.85	29345.64
568.01	29802.04
568.17	29600.76
568.34	29706.08
568.50	29893.32
568.66	29902.68
568.83	29912.05
568.99	29556.28
569.15	29607.78
569.32	29509.47
569.48	29748.21
569.64	29954.18
569.81	29579.69
569.97	29579.69
570.13	29654.59
570.30	29675.65
570.46	29806.72
570.62	29586.71
570.78	29373.72
570.95	29509.47
571.11	29844.17
571.27	29551.60
571.43	29509.47
571.60	29699.06
571.76	29497.77
571.92	29645.23
572.09	29741.19
572.25	29773.95
572.41	30031.41
572.57	29626.50
572.74	29907.37
572.90	29916.73
573.06	29813.74
573.22	29832.47
573.38	30052.48
573.55	29961.20
573.71	29984.60
573.87	30082.91
574.03	30150.78
574.20	30136.74
574.36	29933.11
574.52	29809.06
574.68	29809.06
574.84	29898.00
575.01	29837.15
575.17	30075.88
575.33	29963.54
575.49	29633.52
575.65	30293.55
575.82	30101.63
575.98	30143.76
576.14	30052.48
576.30	29895.66
576.46	30012.69
576.62	29916.73
576.79	30115.67
576.95	29731.83
577.11	29989.28
577.27	30113.33
577.43	29806.72
577.59	29993.97
577.75	29940.13
577.92	29846.51
578.08	29881.62
578.24	29825.45
578.40	29919.07
578.56	30522.93
578.72	29977.58
578.88	30511.22
579.04	30087.59
579.21	29834.81
579.37	30218.66
579.53	30141.42
579.69	29853.53
579.85	29778.64
580.01	30059.50
580.17	29783.32
580.33	29745.87
580.49	29890.98
580.65	29841.83
580.82	30068.86
580.98	29958.86
581.14	30052.48
581.30	30328.66
581.46	30270.15
581.62	30167.16
581.78	29841.83
581.94	30366.11
582.10	30024.39
582.26	30005.67
582.42	30003.33
582.58	30632.93
582.74	30230.36
582.90	30045.46
583.06	30061.84
583.22	30171.85
583.38	30244.40
583.54	30281.85
583.70	30017.37
583.86	29865.24
584.02	30073.54
584.18	30469.09
584.34	30127.38
584.50	30197.59
584.66	30139.08
584.82	29926.09
584.98	29795.02
585.14	29855.87
585.30	30569.74
585.46	30307.60
585.62	30295.89
585.78	30036.09
585.94	30422.28
586.10	30094.61
586.26	30199.93
586.42	30412.92
586.58	30675.06
586.74	30331.00
586.90	30286.53
587.06	30132.06
587.22	30267.81
587.38	30221.00
587.54	30174.19
587.70	30127.38
587.86	30338.02
588.02	30326.32
588.18	30668.04
588.34	30127.38
588.49	30178.87
588.65	30012.69
588.81	30326.32
588.97	30548.67
589.13	30279.51
589.29	30539.31
589.45	30150.78
589.61	30707.83
589.77	30539.31
589.93	30445.69
590.08	30572.08
590.24	30401.22
590.40	30583.78
590.56	30487.82
590.72	30291.21
590.88	30225.68
591.04	30328.66
591.20	30356.75
591.35	30838.90
591.51	31002.74
591.67	30728.89
591.83	30925.50
591.99	30679.74
592.15	30581.44
592.31	30614.21
592.46	30581.44
592.62	30356.75
592.78	30312.28
592.94	30639.95
593.10	30717.19
593.26	30904.43
593.41	30448.03
593.57	30611.87
593.73	30834.22
593.89	31091.68
594.05	30464.41
594.20	30445.69
594.36	30441.01
594.52	30476.12
594.68	30508.88
594.84	30352.07
594.99	30256.11
595.15	30684.42
595.31	30642.29
595.47	30749.96
595.62	30955.93
595.78	30600.16
595.94	30490.16
596.10	30623.57
596.25	30756.98
596.41	30581.44
596.57	30424.62
596.73	30565.06
596.88	30462.07
597.04	30817.83
597.20	30827.20
597.36	31147.85
597.51	30822.51
597.67	30794.43
597.83	30792.09
597.99	30876.35
598.14	30831.88
598.30	30621.23
598.46	30866.98
598.61	30904.43
598.77	30405.90
598.93	30726.55
599.09	30986.35
599.24	30937.20
599.40	30820.17
599.56	31129.12
599.71	31075.29
599.87	30693.79
600.03	30583.78
600.18	30623.57
600.34	30698.47
600.50	30888.05
600.65	30490.16
600.81	31065.93
600.97	30848.26
601.12	31115.08
601.28	31014.44
601.44	30642.29
601.59	30815.49
601.75	31012.10
601.91	30850.60
602.06	30866.98
602.22	30700.81
602.37	30590.80
602.53	30944.22
602.69	30876.35
602.84	30799.11
603.00	30969.97
603.16	31079.97
603.31	30881.03
603.47	30808.47
603.62	31040.18
603.78	30677.40
603.94	30717.19
604.09	30506.54
604.25	30717.19
604.40	30223.34
604.56	30719.53
604.71	31051.89
604.87	30558.03
605.03	30958.27
605.18	31065.93
605.34	31049.55
605.49	30668.04
605.65	30494.84
605.80	30497.18
605.96	30752.30
606.12	30752.30
606.27	30628.25
606.43	30628.25
606.58	30700.81
606.74	30897.41
606.89	30670.38
607.05	30618.89
607.20	30742.94
607.36	30696.13
607.51	30787.41
607.67	30775.70
607.82	31028.48
607.98	30560.37
608.13	30529.95
608.29	30892.73
608.44	30864.64
608.60	30904.43
608.75	30628.25
608.91	30864.64
609.06	30366.11
609.22	30534.63
609.37	30082.91
609.53	30323.98
609.68	30249.08
609.84	30668.04
609.99	30595.48
610.15	30375.47
610.30	30008.01
610.46	30347.39
610.61	31026.14
610.76	30480.80
610.92	30740.60
611.07	30483.14
611.23	30431.65
611.38	30490.16
611.54	30038.44
611.69	30024.39
611.84	30176.53
612.00	30197.59
612.15	30031.41
612.31	30277.17
612.46	30490.16
612.62	30221.00
612.77	30387.18
612.92	30742.94
613.08	30422.28
613.23	30445.69
613.39	30199.93
613.54	29773.95
613.69	30384.83
613.85	30160.14
614.00	30139.08
614.15	30199.93
614.31	30298.23
614.46	30609.53
614.62	30380.15
614.77	30593.14
614.92	30132.06
615.08	29977.58
615.23	30218.66
615.38	30047.80
615.54	29942.47
615.69	30054.82
615.84	30160.14
616.00	29951.84
616.15	29780.98
616.30	30251.42
616.46	29933.11
616.61	30394.20
616.76	29949.50
616.92	29921.41
617.07	30174.19
617.22	29670.97
617.37	29879.28
617.53	30216.32
617.68	29656.93
617.83	29670.97
617.99	29750.55
618.14	29893.32
618.29	29788.00
618.45	30237.38
618.60	29968.22
618.75	29858.21
618.90	29710.76
619.06	29605.44
619.21	29881.62
619.36	29813.74
619.51	29605.44
619.67	29266.06
619.82	29179.46
619.97	29577.35
620.12	29448.62
620.28	29298.83
620.43	29418.19
620.58	29862.90
620.73	29818.42
620.89	29844.17
621.04	30047.80
621.19	29642.88
621.34	29425.22
621.49	29315.21
621.65	29397.13
621.80	29453.30
621.95	29357.34
622.10	29411.17
622.25	29134.99
622.41	29163.08
622.56	29266.06
622.71	29582.03
622.86	29233.29
623.01	29509.47
623.16	29298.83
623.32	29404.15
623.47	29589.05
623.62	29261.38
623.77	29221.59
623.92	29160.73
624.07	29102.22
624.23	29289.46
624.38	29071.79
624.53	29139.67
624.68	29474.37
624.83	29357.34
624.98	29488.41
625.13	29240.31
625.29	29453.30
625.44	29024.98
625.59	28973.49
625.74	28940.72
625.89	28992.22
626.04	28816.68
626.19	28793.27
626.34	28987.53
626.49	28648.16
626.65	29041.37
626.80	29022.64
626.95	29116.26
627.10	28608.37
627.25	28788.59
627.40	28538.15
627.55	28624.75
627.70	28741.78
627.85	28795.61
628.00	28311.12
628.15	28629.43
628.30	28549.85
628.45	28634.11
628.60	28943.06
628.76	28851.78
628.91	28744.12
629.06	28503.04
629.21	28510.07
629.36	28762.84
629.51	28606.03
629.66	28730.08
629.81	28128.56
629.96	28161.33
630.11	28491.34
630.26	28140.26
630.41	28311.12
630.56	28376.66
630.71	28421.13
630.86	28720.71
631.01	28802.63
631.16	28535.81
631.31	27927.27
631.46	28400.06
631.61	28755.82
631.76	28428.15
631.91	27917.91
632.06	28311.12
632.21	27988.13
632.36	28229.20
632.51	27896.85
632.66	28149.62
632.81	28283.03
632.96	28538.15
633.10	28037.28
633.25	28360.27
633.40	28297.08
633.55	28056.00
633.70	27508.32
633.85	27899.19
634.00	27716.62
634.15	28109.83
634.30	27859.40
634.45	27962.38
634.60	27878.12
634.75	28109.83
634.90	27882.80
635.05	28240.90
635.19	27868.76
635.34	28013.87
635.49	27873.44
635.64	28158.99
635.79	28079.41
635.94	27948.34
636.09	27899.19
636.24	27819.61
636.39	27391.29
636.53	27571.51
636.68	27569.17
636.83	27374.91
636.98	28006.85
637.13	27931.95
637.28	27995.15
637.43	27449.80
637.57	27768.12
637.72	27400.65
637.87	27625.34
638.02	27480.23
638.17	27601.94
638.32	27517.68
638.46	27473.21
638.61	27295.33
638.76	27370.22
638.91	27414.69
639.06	27611.30
639.20	27393.63
639.35	27431.08
639.50	27454.48
639.65	27618.32
639.80	27571.51
639.94	27285.97
640.09	27527.04
640.24	27056.59
640.39	27129.15
640.54	27175.96
640.68	26988.72
640.83	26930.20
640.98	27005.10
641.13	27138.51
641.27	27391.29
641.42	26923.18
641.57	27012.12
641.72	27077.66
641.86	27175.96
642.01	27105.74
642.16	27009.78
642.31	26794.45
642.45	26639.98
642.60	26944.25
642.75	26904.46
642.90	27103.40
643.04	26984.04
643.19	26745.30
643.34	26920.84
643.48	26602.53
643.63	26869.35
643.78	27178.30
643.93	27009.78
644.07	26986.38
644.22	26948.93
644.37	27278.94
644.51	26930.20
644.66	26841.26
644.81	26871.69
644.95	26600.19
645.10	26597.85
645.25	26820.20
645.39	26544.02
645.54	26883.39
645.69	26838.92
645.83	26731.26
645.98	26359.11
646.13	26939.57
646.27	26969.99
646.42	26703.17
646.57	26672.74
646.71	26520.61
646.86	26520.61
647.00	26609.55
647.15	26277.19
647.30	26822.54
647.44	26403.58
647.59	26551.04
647.74	26679.77
647.88	26396.56
648.03	26295.92
648.17	26541.68
648.32	26260.81
648.47	26742.96
648.61	26747.64
648.76	26738.28
648.90	26064.21
649.05	26405.92
649.20	26462.10
649.34	26274.85
649.49	26242.09
649.63	26106.34
649.78	26192.94
649.92	26169.53
650.07	26455.08
650.21	26033.78
650.36	26111.02
650.51	25872.28
650.65	26146.12
650.80	25872.28
650.94	26122.72
651.09	25972.92
651.23	25773.98
651.38	25965.90
651.52	25876.96
651.67	25972.92
651.81	25853.56
651.96	25783.34
652.10	26398.90
652.25	26005.69
652.39	26057.18
652.54	26026.76
652.68	26127.40
652.83	25937.82
652.97	26155.49
653.12	26012.71
653.26	25916.75
653.41	25830.15
653.55	25509.50
653.70	25851.22
653.84	25603.12
653.99	26038.46
654.13	25544.61
654.27	25907.39
654.42	25883.98
654.56	25589.08
654.71	25951.86
654.85	25640.57
655.00	25935.48
655.14	25820.79
655.29	25724.83
655.43	25577.37
655.57	25928.45
655.72	25259.06
655.86	25556.31
656.01	25701.42
656.15	25228.63
656.30	25348.00
656.44	25465.03
656.58	25074.16
656.73	25392.47
656.87	25357.36
657.01	25654.61
657.16	25439.28
657.30	25390.13
657.45	25195.87
657.59	25202.89
657.73	25439.28
657.88	25497.80
658.02	25628.87
658.16	25387.79
658.31	25610.14
658.45	25200.55
658.60	24767.55
658.74	24940.75
658.88	25001.60
659.03	25053.09
659.17	25184.16
659.31	25202.89
659.46	24849.47
659.60	25259.06
659.74	25099.90
659.89	25027.35
660.03	24730.10
660.17	24748.82
660.32	24823.72
660.46	24634.14
660.60	24575.62
660.74	24634.14
660.89	24510.09
661.03	24535.84
661.17	24472.64
661.32	24814.36
661.46	24793.29
661.60	24446.90
661.74	24725.42
661.89	25067.14
662.03	24589.67
662.17	24650.52
662.31	24517.11
662.46	24673.93
662.60	24613.07
662.74	24393.06
662.88	23985.81
663.03	24023.26
663.17	24046.66
663.31	24049.00
663.45	23964.75
663.60	24034.96
663.74	24273.70
663.88	23964.75
664.02	24034.96
664.17	24032.62
664.31	24046.66
664.45	23578.56
664.59	24163.69
664.73	24060.71
664.88	23721.33
665.02	23489.62
665.16	23690.90
665.30	23513.02
665.44	23971.77
665.59	23634.73
665.73	23653.45
665.87	23456.85
666.01	23658.14
666.15	23772.82
666.29	23363.23
666.44	23718.99
666.58	23435.78
666.72	23468.55
666.86	23538.77
667.00	23606.64
667.14	23419.40
667.28	23110.45
667.43	23456.85
667.57	23580.90
667.71	23115.13
667.85	23070.66
667.99	23007.47
668.13	23398.34
668.27	23173.64
668.41	23065.98
668.56	23073.00
668.70	23197.05
668.84	22941.93
668.98	23190.03
669.12	23068.32
669.26	22993.42
669.40	23213.43
669.54	22874.06
669.68	23171.30
669.82	22855.33
669.96	22775.75
670.10	22448.08
670.25	22661.07
670.39	22391.91
670.53	22422.33
670.67	22321.69
670.81	22581.49
670.95	22464.46
671.09	22382.54
671.23	22501.91
671.37	22490.21
671.51	22333.39
671.65	22387.22
671.79	22747.67
671.93	22235.09
672.07	22321.69
672.21	21804.43
672.35	21893.37
672.49	21628.89
672.63	22258.49
672.77	22008.06
672.91	21841.88
673.05	21944.86
673.19	21603.14
673.33	22008.06
673.47	21741.24
673.61	21722.51
673.75	21977.63
673.89	21736.56
674.03	21474.42
674.17	21642.93
674.31	21352.71
674.45	21399.52
674.59	21572.72
674.73	21319.94
674.87	21420.58
675.01	21158.44
675.15	21301.22
675.29	21270.79
675.43	21273.13
675.56	20973.54
675.70	21116.31
675.84	21010.99
675.98	20704.38
676.12	21191.21
676.26	21282.49
676.40	20957.16
676.54	20961.84
676.68	21057.80
676.82	20283.08
676.96	20414.15
677.10	20458.62
677.23	20294.79
677.37	20105.20
677.51	20231.59
677.65	20318.19
677.79	20322.87
677.93	20105.20
678.07	19964.77
678.21	20152.01
678.34	19868.81
678.48	20056.05
678.62	19957.75
678.76	19892.21
678.90	19749.44
679.04	19625.39
679.18	19772.85
679.31	19173.67
679.45	19389.00
679.59	19714.33
679.73	19356.23
679.87	19173.67
680.00	19199.41
680.14	19412.40
680.28	19379.64
680.42	19110.47
680.56	19314.10
680.70	19112.81
680.83	19339.85
680.97	19023.87
681.11	19068.34
681.25	18820.25
681.39	18927.91
681.52	18888.12
681.66	18881.10
681.80	18733.65
681.94	18546.40
682.07	18497.25
682.21	18387.25
682.35	18277.24
682.49	18504.28
682.62	17982.34
682.76	18181.28
682.90	17912.12
683.04	18052.55
683.17	17963.61
683.31	18326.39
683.45	18024.47
683.59	17900.42
683.72	18073.62
683.86	18251.50
684.00	17928.50
684.13	17874.67
684.27	17759.98
684.41	17451.03
684.55	17446.35
684.68	17373.80
684.82	17254.43
684.96	17303.58
685.09	17102.29
685.23	17046.12
685.37	17242.73
685.50	17266.13
685.64	17301.24
685.78	17207.62
685.91	17303.58
686.05	17184.21
686.19	17050.80
686.32	17191.23
686.46	16449.28
686.60	16580.36
686.73	16664.61
686.87	16739.51
687.01	16666.95
687.14	16629.51
687.28	16292.47
687.42	16453.97
687.55	16217.57
687.69	16404.81
687.82	16152.04
687.96	16299.49
688.10	16168.42
688.23	16147.36
688.37	16292.47
688.50	15981.18
688.64	15882.88
688.78	15925.00
688.91	15737.76
689.05	15655.84
689.18	15899.26
689.32	15386.68
689.46	15613.71
689.59	15531.80
689.73	15667.55
689.86	15346.89
690.00	15421.79
690.13	15447.54
690.27	15215.82
690.41	15234.55
690.54	15143.27
690.68	15318.81
690.81	15154.97
690.95	15051.99
691.08	15009.86
691.22	14972.41
691.35	14944.32
691.49	15101.14
691.62	15066.03
691.76	14794.53
691.89	14846.02
692.03	14684.52
692.16	14675.16
692.30	14462.17
692.43	14438.76
692.57	14214.07
692.70	14532.39
692.84	14277.27
692.97	14108.75
693.11	14295.99
693.24	14338.12
693.38	14045.55
693.51	14024.49
693.65	14005.77
693.78	13797.46
693.92	14260.88
694.05	13668.73
694.19	14005.77
694.32	13607.87
694.45	13631.28
694.59	13570.43
694.72	13650.00
694.86	13528.30
694.99	13399.57
695.13	13263.82
695.26	13624.26
695.39	13572.77
695.53	13509.57
695.66	13331.69
695.80	13188.92
695.93	13217.01
696.07	13090.62
696.20	13338.71
696.33	13099.98
696.47	13039.12
696.60	13001.68
696.73	12737.20
696.87	12919.76
697.00	12741.88
697.14	12528.89
697.27	12294.83
697.40	12519.53
697.54	12446.97
697.67	12273.77
697.80	12514.84
697.94	12161.42
698.07	12173.13
698.21	12379.09
698.34	12257.39
698.47	12002.27
698.61	11936.73
698.74	12278.45
698.87	12304.20
699.01	12039.72
699.14	11953.12
699.27	11889.92
699.40	11894.60
699.54	11864.18
699.67	11716.72
699.80	11829.07
699.94	11763.53
700.07	11705.02
700.20	11543.52
700.34	11438.20
700.47	11412.45
700.60	11463.94
700.73	11459.26
700.87	11091.80
701.00	11176.06
701.13	11145.63
701.26	10988.82
701.40	11206.48
701.53	11260.32
701.66	11166.70
701.79	10857.75
701.93	10988.82
702.06	10785.19
702.19	10930.30
702.32	10684.55
702.46	10583.90
702.59	10490.28
702.72	10778.17
702.85	10506.66
702.99	10579.22
703.12	10307.72
703.25	10326.44
703.38	10621.35
703.51	10583.90
703.65	10480.92
703.78	10384.96
703.91	10251.55
704.04	10513.69
704.17	10415.38
704.31	10223.46
704.44	10174.31
704.57	10101.75
704.70	9949.62
704.83	9963.66
704.96	9900.47
705.10	9760.03
705.23	9692.16
>>>>>End Processed Spectral Data<<<<<
