SpectraSuite Data File
++++++++++++++++++++++++++++++++++++
Date: Fri Oct 18 13:58:40 GMT-05:00 2013
User: bianchi
Dark Spectrum Present: No
Reference Spectrum Present: No
Number of Sampled Component Spectra: 1
Spectrometers: USB2+H05261
Integration Time (usec): 50000 (USB2+H05261)
Spectra Averaged: 1 (USB2+H05261)
Boxcar Smoothing: 0 (USB2+H05261)
Correct for Electrical Dark: No (USB2+H05261)
Strobe/Lamp Enabled: No (USB2+H05261)
Correct for Detector Non-linearity: No (USB2+H05261)
Correct for Stray Light: No (USB2+H05261)
Number of Pixels in Processed Spectrum: 2048
>>>>>Begin Processed Spectral Data<<<<<
365.73	0.00
365.92	0.00
366.12	0.00
366.32	0.00
366.52	0.00
366.72	0.00
366.91	0.00
367.11	0.00
367.31	0.00
367.51	0.00
367.70	0.00
367.90	0.00
368.10	0.00
368.30	0.00
368.49	0.00
368.69	0.00
368.89	0.00
369.09	0.00
369.28	0.00
369.48	0.00
369.68	0.00
369.87	0.00
370.07	0.00
370.27	0.00
370.47	0.00
370.66	63.19
370.86	81.92
371.06	84.26
371.25	142.77
371.45	142.77
371.65	138.09
371.84	149.79
372.04	149.79
372.24	173.20
372.44	189.58
372.63	248.10
372.83	198.95
373.03	269.16
373.22	222.35
373.42	255.12
373.62	238.73
373.81	280.86
374.01	250.44
374.21	292.57
374.40	201.29
374.60	224.69
374.79	241.08
374.99	304.27
375.19	227.03
375.38	243.42
375.58	278.52
375.78	257.46
375.97	266.82
376.17	313.63
376.37	278.52
376.56	264.48
376.76	297.25
376.95	287.89
377.15	271.50
377.35	306.61
377.54	315.97
377.74	292.57
377.93	257.46
378.13	238.73
378.33	236.39
378.52	271.50
378.72	294.91
378.91	313.63
379.11	306.61
379.31	220.01
379.50	322.99
379.70	299.59
379.89	269.16
380.09	236.39
380.28	320.65
380.48	327.68
380.68	339.38
380.87	257.46
381.07	297.25
381.26	341.72
381.46	351.08
381.65	353.42
381.85	227.03
382.04	245.76
382.24	346.40
382.43	297.25
382.63	341.72
382.83	379.17
383.02	428.32
383.22	351.08
383.41	393.21
383.61	297.25
383.80	308.95
384.00	294.91
384.19	411.93
384.39	416.62
384.58	372.15
384.78	393.21
384.97	353.42
385.17	304.27
385.36	353.42
385.56	395.55
385.75	339.38
385.95	386.19
386.14	367.46
386.34	383.85
386.53	437.68
386.72	381.51
386.92	437.68
387.11	440.02
387.31	383.85
387.50	428.32
387.70	454.06
387.89	458.74
388.09	447.04
388.28	500.87
388.48	475.13
388.67	390.87
388.86	407.25
389.06	440.02
389.25	507.90
389.45	423.64
389.64	451.72
389.84	454.06
390.03	409.59
390.22	524.28
390.42	416.62
390.61	411.93
390.81	468.11
391.00	472.79
391.19	421.30
391.39	550.03
391.58	582.79
391.78	512.58
391.97	456.40
392.16	477.47
392.36	587.47
392.55	543.00
392.75	571.09
392.94	449.38
393.13	519.60
393.33	543.00
393.52	596.84
393.71	552.37
393.91	535.98
394.10	507.90
394.29	519.60
394.49	507.90
394.68	585.13
394.88	552.37
395.07	709.18
395.26	596.84
395.46	531.30
395.65	540.66
395.84	596.84
396.04	650.67
396.23	592.16
396.42	615.56
396.62	610.88
396.81	620.24
397.00	603.86
397.19	660.03
397.39	622.58
397.58	641.31
397.77	653.01
397.97	653.01
398.16	599.18
398.35	711.52
398.55	683.44
398.74	711.52
398.93	697.48
399.12	723.23
399.32	718.54
399.51	692.80
399.70	777.06
399.90	737.27
400.09	744.29
400.28	774.72
400.47	744.29
400.67	779.40
400.86	777.06
401.05	835.57
401.24	760.67
401.44	851.96
401.63	777.06
401.82	854.30
402.01	748.97
402.21	807.48
402.40	814.51
402.59	819.19
402.78	936.21
402.97	816.85
403.17	851.96
403.36	786.42
403.55	875.36
403.74	837.91
403.93	837.91
404.13	863.66
404.32	912.81
404.51	830.89
404.70	1029.84
404.89	903.45
405.09	966.64
405.28	936.21
405.47	968.98
405.66	936.21
405.85	966.64
406.05	903.45
406.24	968.98
406.43	1020.47
406.62	1039.20
406.81	1046.22
407.00	976.00
407.20	1001.75
407.39	1100.05
407.58	1043.88
407.77	1083.67
407.96	1022.81
408.15	1137.50
408.34	1015.79
408.54	1088.35
408.73	1062.60
408.92	1088.35
409.11	1036.86
409.30	1165.59
409.49	1139.84
409.68	1057.92
409.87	1146.86
410.07	1100.05
410.26	1097.71
410.45	1174.95
410.64	1198.35
410.83	1275.59
411.02	1142.18
411.21	1217.08
411.40	1275.59
411.59	1247.51
411.78	1254.53
411.98	1256.87
412.17	1247.51
412.36	1259.21
412.55	1338.79
412.74	1373.89
412.93	1338.79
413.12	1416.02
413.31	1439.43
413.50	1355.17
413.69	1315.38
413.88	1338.79
414.07	1376.24
414.26	1448.79
414.45	1420.71
414.64	1554.12
414.83	1511.99
415.02	1521.35
415.22	1490.92
415.41	1549.43
415.60	1561.14
415.79	1558.80
415.98	1563.48
416.17	1549.43
416.36	1614.97
416.55	1654.76
416.74	1561.14
416.93	1586.88
417.12	1607.95
417.31	1694.55
417.50	1659.44
417.69	1710.93
417.88	1680.50
418.07	1839.66
418.26	1783.49
418.45	1729.66
418.64	1879.45
418.83	1753.06
419.02	1720.29
419.21	1687.53
419.39	1846.68
419.58	1715.61
419.77	1732.00
419.96	1753.06
420.15	1921.58
420.34	1827.96
420.53	1919.24
420.72	1994.14
420.91	1895.83
421.10	1959.03
421.29	2008.18
421.48	1839.66
421.67	1914.56
421.86	1874.77
422.05	2120.53
422.24	1959.03
422.43	1968.39
422.61	1987.11
422.80	2087.76
422.99	1879.45
423.18	2001.16
423.37	1944.99
423.56	2033.93
423.75	1989.46
423.94	2012.86
424.13	1806.89
424.32	1907.54
424.50	1996.48
424.69	2036.27
424.88	2146.27
425.07	1977.75
425.26	2059.67
425.45	2069.03
425.64	1959.03
425.83	1968.39
426.01	2008.18
426.20	1987.11
426.39	2179.04
426.58	2094.78
426.77	2012.86
426.96	2036.27
427.15	2064.35
427.33	2195.42
427.52	2139.25
427.71	2197.76
427.90	2122.87
428.09	2132.23
428.28	2132.23
428.46	2188.40
428.65	2160.31
428.84	2263.30
429.03	2293.72
429.22	2118.18
429.40	2211.81
429.59	2291.38
429.78	2129.89
429.97	2115.84
430.16	2291.38
430.34	2153.29
430.53	2342.88
430.72	2277.34
430.91	2218.83
431.10	2324.15
431.28	2328.83
431.47	2431.82
431.66	2380.32
431.85	2434.16
432.03	2282.02
432.22	2406.07
432.41	2340.54
432.60	2523.10
432.79	2490.33
432.97	2480.97
433.16	2464.58
433.35	2471.61
433.54	2525.44
433.72	2518.42
433.91	2462.24
434.10	2562.89
434.28	2495.01
434.47	2527.78
434.66	2621.40
434.85	2483.31
435.03	2509.05
435.22	2626.08
435.41	2581.61
435.59	2588.63
435.78	2743.11
435.97	2576.93
436.16	2572.25
436.34	2630.76
436.53	2609.70
436.72	2560.55
436.90	2635.44
437.09	2658.85
437.28	2726.72
437.46	2565.23
437.65	2684.59
437.84	2775.88
438.02	2960.78
438.21	2782.90
438.40	2789.92
438.58	2778.22
438.77	2684.59
438.96	2708.00
439.14	2998.23
439.33	2951.42
439.52	2918.65
439.70	3005.25
439.89	3082.49
440.08	2998.23
440.26	3042.70
440.45	2937.37
440.63	3054.40
440.82	3176.11
441.01	3197.17
441.19	3056.74
441.38	3176.11
441.57	3117.59
441.75	3110.57
441.94	3321.22
442.12	3232.28
442.31	3190.15
442.50	3314.20
442.68	3342.28
442.87	3316.54
443.05	3295.47
443.24	3339.94
443.43	3403.14
443.61	3478.04
443.80	3496.76
443.98	3241.64
444.17	3173.77
444.35	3330.58
444.54	3578.68
444.73	3349.31
444.91	3370.37
445.10	3403.14
445.28	3396.12
445.47	3396.12
445.65	3370.37
445.84	3426.54
446.02	3489.74
446.21	3358.67
446.39	3466.33
446.58	3588.04
446.77	3611.45
446.95	3421.86
447.14	3510.80
447.32	3445.27
447.51	3534.21
447.69	3400.80
447.88	3576.34
448.06	3520.17
448.25	3466.33
448.43	3618.47
448.62	3377.39
448.80	3531.87
448.99	3513.14
449.17	3550.59
449.36	3524.85
449.54	3829.12
449.73	3744.86
449.91	3634.85
450.10	3702.73
450.28	3754.22
450.46	3838.48
450.65	3815.07
450.83	3723.79
451.02	3733.15
451.20	3815.07
451.39	3686.34
451.57	3847.84
451.76	3700.39
451.94	3794.01
452.13	3908.69
452.31	3889.97
452.49	3850.18
452.68	3880.61
452.86	3829.12
453.05	3913.38
453.23	3964.87
453.42	3840.82
453.60	3758.90
453.78	3852.52
453.97	3770.60
454.15	3964.87
454.34	3925.08
454.52	3922.74
454.70	4156.79
454.89	4086.58
455.07	4007.00
455.26	4074.87
455.44	4124.02
455.62	4088.92
455.81	4100.62
455.99	4142.75
456.17	4273.82
456.36	4217.65
456.54	4098.28
456.73	4168.49
456.91	4348.72
457.09	4301.90
457.28	4386.16
457.46	4154.45
457.64	4360.42
457.83	4390.84
458.01	4292.54
458.19	4376.80
458.38	4325.31
458.56	4454.04
458.74	4475.10
458.93	4222.33
459.11	4482.13
459.29	4479.79
459.48	4505.53
459.66	4418.93
459.84	4423.61
460.03	4631.92
460.21	4587.45
460.39	4587.45
460.57	4472.76
460.76	4568.73
460.94	4575.75
461.12	4571.07
461.31	4472.76
461.49	4428.29
461.67	4517.23
461.85	4805.12
462.04	4746.61
462.22	4821.50
462.40	4770.01
462.59	4821.50
462.77	4730.22
462.95	4744.27
463.13	4610.86
463.32	4606.17
463.50	4868.31
463.68	4706.82
463.86	4837.89
464.05	4746.61
464.23	4744.27
464.41	4755.97
464.59	4781.71
464.78	4936.19
464.96	4887.04
465.14	4873.00
465.32	4849.59
465.50	4856.61
465.69	5125.77
465.87	4980.66
466.05	5032.15
466.23	4870.65
466.41	5069.60
466.60	5203.01
466.78	4947.89
466.96	5050.88
467.14	4992.36
467.32	4975.98
467.51	5256.84
467.69	5046.20
467.87	5071.94
468.05	5259.18
468.23	4990.02
468.41	5107.05
468.60	5156.20
468.78	5282.59
468.96	5067.26
469.14	5303.65
469.32	5432.38
469.50	5195.99
469.69	5315.36
469.87	5488.56
470.05	5427.70
470.23	5425.36
470.41	5383.23
470.59	5387.91
470.77	5331.74
470.95	5526.00
471.14	5549.41
471.32	5507.28
471.50	5554.09
471.68	5514.30
471.86	5561.11
472.04	5493.24
472.22	5682.82
472.40	5537.71
472.58	5521.32
472.77	5795.17
472.95	5872.40
473.13	6029.22
473.31	5837.30
473.49	5837.30
473.67	5874.74
473.85	5884.11
474.03	6087.73
474.21	6174.33
474.39	6008.16
474.57	5816.23
474.75	6181.35
474.93	6083.05
475.12	5970.71
475.30	6071.35
475.48	6057.31
475.66	6150.93
475.84	6221.14
476.02	6228.17
476.20	6204.76
476.38	6413.07
476.56	6548.82
476.74	6583.93
476.92	6506.69
477.10	6459.88
477.28	6719.68
477.46	6604.99
477.64	6703.29
477.82	6593.29
478.00	6988.84
478.18	6958.41
478.36	6911.60
478.54	7047.35
478.72	7302.47
478.90	7040.33
479.08	7307.15
479.26	7262.68
479.44	7070.76
479.62	7262.68
479.80	7267.36
479.98	7318.86
480.16	7466.31
480.34	7393.75
480.52	7454.61
480.70	7742.49
480.88	7674.62
481.06	7829.09
481.24	7620.78
481.41	7911.01
481.59	7934.42
481.77	7948.46
481.95	7950.80
482.13	8234.00
482.31	8191.88
482.49	8224.64
482.67	8294.86
482.85	8198.90
483.03	8479.76
483.21	8561.68
483.39	8573.38
483.57	8425.93
483.74	8486.78
483.92	8791.05
484.10	8814.46
484.28	8933.82
484.46	9114.05
484.64	9329.38
484.82	8980.64
485.00	9085.96
485.18	9287.25
485.35	9399.59
485.53	9364.48
485.71	9535.34
485.89	9572.79
486.07	9607.90
486.25	9514.28
486.43	9551.73
486.61	9598.54
486.78	9874.72
486.96	9804.50
487.14	10017.49
487.32	9966.00
487.50	10083.03
487.68	10010.47
487.85	10253.89
488.03	10342.83
488.21	10581.56
488.39	10443.47
488.57	10714.97
488.75	10766.46
488.92	10677.52
489.10	11026.26
489.28	10712.63
489.46	10984.13
489.64	11030.94
489.81	11129.25
489.99	11222.87
490.17	11389.05
490.35	11375.00
490.53	11468.62
490.70	11456.92
490.88	11536.50
491.06	11616.08
491.24	11683.95
491.41	11625.44
491.59	11744.81
491.77	11808.00
491.95	11953.12
492.13	12187.17
492.30	12278.45
492.48	12477.40
492.66	12170.79
492.84	12339.30
493.01	12606.13
493.19	12556.97
493.37	12599.10
493.54	12681.02
493.72	12739.54
493.90	12826.14
494.08	12886.99
494.25	12894.01
494.43	13085.94
494.61	13238.07
494.79	13371.48
494.96	13069.55
495.14	13624.26
495.32	13579.79
495.49	13600.85
495.67	13561.06
495.85	13762.35
496.02	13699.16
496.20	13848.95
496.38	13900.44
496.55	13790.44
496.73	14038.53
496.91	14036.19
497.09	14064.28
497.26	14134.50
497.44	14258.54
497.62	14249.18
497.79	14675.16
497.97	14036.19
498.14	14724.31
498.32	14668.14
498.50	14675.16
498.67	14930.28
498.85	14799.21
499.03	14766.44
499.20	14963.04
499.38	14991.13
499.56	14869.42
499.73	15197.10
499.91	15161.99
500.08	15421.79
500.26	15033.26
500.44	15250.93
500.61	15522.43
500.79	15463.92
500.97	15356.25
501.14	15847.77
501.32	15585.63
501.49	15761.17
501.67	15686.27
501.84	15892.24
502.02	15969.48
502.20	16156.72
502.37	16142.67
502.55	15786.91
502.72	16177.78
502.90	16210.55
503.07	16203.53
503.25	16276.09
503.43	16170.76
503.60	16407.16
503.78	16652.91
503.95	16332.26
504.13	16414.18
504.30	16358.00
504.48	16489.07
504.65	16545.25
504.83	16889.31
505.01	16851.86
505.18	16814.41
505.36	17142.08
505.53	16886.97
505.71	17109.32
505.88	16999.31
506.06	17132.72
506.23	17294.22
506.41	17174.85
506.58	17364.43
506.76	17326.99
506.93	17284.86
507.11	17233.36
507.28	17479.12
507.46	17436.99
507.63	17706.15
507.81	17809.14
507.98	17832.54
508.16	17626.57
508.33	17671.04
508.50	17806.80
508.68	17790.41
508.85	17958.93
509.03	17963.61
509.20	18104.04
509.38	18223.41
509.55	18253.84
509.73	18338.10
509.90	18312.35
510.08	18391.93
510.25	17984.68
510.42	18207.03
510.60	18707.90
510.77	18696.20
510.95	18508.96
511.12	18178.94
511.30	18712.58
511.47	18445.76
511.64	18899.83
511.82	18883.44
511.99	18836.63
512.17	18808.54
512.34	19171.33
512.51	19133.88
512.69	19281.33
512.86	19136.22
513.04	19374.95
513.21	19384.32
513.38	19061.32
513.56	19295.38
513.73	19335.17
513.90	19321.12
514.08	19267.29
514.25	19695.61
514.43	19630.07
514.60	19847.74
514.77	19576.24
514.95	19662.84
515.12	19508.37
515.29	19393.68
515.47	19817.32
515.64	19910.94
515.81	20290.10
515.99	19843.06
516.16	20168.40
516.33	20123.93
516.51	20262.02
516.68	20072.43
516.85	20313.51
517.03	20655.23
517.20	20215.21
517.37	20540.54
517.54	20500.75
517.72	20231.59
517.89	20489.05
518.06	20369.68
518.24	20360.32
518.41	20467.98
518.58	20772.25
518.75	20444.58
518.93	20905.66
519.10	20601.40
519.27	21170.15
519.45	20711.40
519.62	20863.54
519.79	20746.51
519.96	20589.69
520.14	21362.07
520.31	21139.72
520.48	21429.94
520.65	21336.32
520.83	20919.71
521.00	21273.13
521.17	20875.24
521.34	21055.46
521.52	21490.80
521.69	21532.93
521.86	21680.38
522.03	21668.68
522.20	21659.32
522.38	21476.76
522.55	22003.38
522.72	21729.53
522.89	21748.26
523.07	21860.60
523.24	21855.92
523.41	21851.24
523.58	21764.64
523.75	22586.17
523.92	21972.95
524.10	21802.09
524.27	22211.68
524.44	22022.10
524.61	22398.93
524.78	22153.17
524.96	22225.73
525.13	22405.95
525.30	22735.96
525.47	22579.15
525.64	22427.01
525.81	22504.25
525.98	22553.40
526.16	22672.77
526.33	22188.28
526.50	22569.79
526.67	22644.68
526.84	22820.22
527.01	22876.40
527.18	22785.12
527.36	22934.91
527.53	22862.35
527.70	23110.45
527.87	23302.37
528.04	22871.72
528.21	23126.83
528.38	22885.76
528.55	23239.18
528.72	23019.17
528.89	23330.46
529.07	23396.00
529.24	23154.92
529.41	23274.29
529.58	23110.45
529.75	23365.57
529.92	23262.58
530.09	23241.52
530.26	23552.81
530.43	23669.84
530.60	23634.73
530.77	23403.02
530.94	23571.54
531.11	23583.24
531.28	23410.04
531.46	23831.33
531.63	23658.14
531.80	23718.99
531.97	23807.93
532.14	23597.28
532.31	24116.88
532.48	23850.06
532.65	23885.17
532.82	23976.45
532.99	24070.07
533.16	24063.05
533.33	24264.33
533.50	24247.95
533.67	24531.15
533.84	24053.69
534.01	24325.19
534.18	24198.80
534.35	24542.86
534.52	24418.81
534.69	24896.28
534.86	24329.87
535.03	24332.21
535.20	24563.92
535.37	24395.40
535.54	24575.62
535.71	24428.17
535.88	24489.03
536.05	24821.38
536.22	24753.51
536.38	25238.00
536.55	24924.36
536.72	24926.71
536.89	24865.85
537.06	24727.76
537.23	25055.43
537.40	24704.35
537.57	24821.38
537.74	25017.99
537.91	24994.58
538.08	25254.38
538.25	25221.61
538.42	24907.98
538.59	25418.22
538.75	25046.07
538.92	24793.29
539.09	25490.77
539.26	25287.15
539.43	25345.66
539.60	25411.20
539.77	25287.15
539.94	25394.81
540.11	25731.85
540.28	25521.20
540.44	25338.64
540.61	25518.86
540.78	25614.82
540.95	25748.23
541.12	25539.93
541.29	25530.56
541.46	25542.27
541.62	25654.61
541.79	25781.00
541.96	25738.87
542.13	25582.06
542.30	25673.34
542.47	26118.04
542.63	26008.03
542.80	26031.44
542.97	26352.09
543.14	26670.40
543.31	26003.35
543.48	25731.85
543.64	26391.88
543.81	26431.67
543.98	26551.04
544.15	25986.97
544.32	26342.73
544.48	26916.16
544.65	26665.72
544.82	26361.45
544.99	26068.89
545.16	26417.63
545.32	26256.13
545.49	26759.34
545.66	26817.86
545.83	26508.91
546.00	26621.25
546.16	26710.19
546.33	26265.49
546.50	26251.45
546.67	26808.50
546.83	26448.05
547.00	26913.82
547.17	26995.74
547.34	26764.03
547.50	26995.74
547.67	26939.57
547.84	26939.57
548.00	27058.93
548.17	27087.02
548.34	26731.26
548.51	27208.73
548.67	26953.61
548.84	26937.23
549.01	27253.20
549.18	26993.40
549.34	27150.21
549.51	26679.77
549.68	27150.21
549.84	27239.15
550.01	27395.97
550.18	27192.34
550.34	27417.04
550.51	27545.76
550.68	27559.81
550.84	26958.29
551.01	27686.20
551.18	27351.50
551.34	27136.17
551.51	27487.25
551.68	27101.06
551.84	27707.26
552.01	27344.48
552.18	27660.45
552.34	27807.90
552.51	27576.19
552.68	27630.02
552.84	27679.18
553.01	27789.18
553.18	28030.26
553.34	28074.73
553.51	27391.29
553.67	27412.35
553.84	27931.95
554.01	27964.72
554.17	28011.53
554.34	28025.57
554.51	27852.38
554.67	28013.87
554.84	27520.02
555.00	28020.89
555.17	27828.97
555.33	27997.49
555.50	27988.13
555.67	27763.43
555.83	27999.83
556.00	28144.94
556.16	28538.15
556.33	28243.24
556.50	27835.99
556.66	28589.64
556.83	28276.01
556.99	28510.07
557.16	28533.47
557.32	28308.78
557.49	28339.21
557.65	28297.08
557.82	28545.17
557.98	28149.62
558.15	28465.60
558.32	28470.28
558.48	28299.42
558.65	28271.33
558.81	28383.68
558.98	28821.36
559.14	28126.22
559.31	28346.23
559.47	28304.10
559.64	28491.34
559.80	28865.83
559.97	28748.80
560.13	28458.57
560.30	28559.22
560.46	28673.90
560.63	28840.08
560.79	28566.24
560.96	28966.47
561.12	28711.35
561.29	28671.56
561.45	28507.72
561.61	28493.68
561.78	28781.57
561.94	28683.27
562.11	29010.94
562.27	28577.94
562.44	28966.47
562.60	28701.99
562.77	29102.22
562.93	28407.08
563.10	29006.26
563.26	28929.02
563.42	28973.49
563.59	28547.51
563.75	28811.99
563.92	29261.38
564.08	29125.63
564.24	29064.77
564.41	28467.94
564.57	28830.72
564.74	29046.05
564.90	29055.41
565.07	29256.70
565.23	29046.05
565.39	29055.41
565.56	29163.08
565.72	28865.83
565.88	29022.64
566.05	28954.77
566.21	28524.11
566.38	28765.18
566.54	29071.79
566.70	29453.30
566.87	29472.03
567.03	29212.23
567.19	29144.35
567.36	29355.00
567.52	28868.17
567.68	29467.34
567.85	29172.44
568.01	29556.28
568.17	29071.79
568.34	29256.70
568.50	29041.37
568.66	29074.13
568.83	29369.04
568.99	29230.95
569.15	29425.22
569.32	28884.55
569.48	28992.22
569.64	29617.14
569.81	29237.97
569.97	29645.23
570.13	29439.26
570.30	29305.85
570.46	29406.49
570.62	28929.02
570.78	29415.85
570.95	29134.99
571.11	29177.12
571.27	29090.52
571.43	29137.33
571.60	29242.65
571.76	29364.36
571.92	28973.49
572.09	29565.65
572.25	29481.39
572.41	29617.14
572.57	29172.44
572.74	29539.90
572.90	29064.77
573.06	29549.26
573.22	29563.31
573.38	29261.38
573.55	29532.88
573.71	29460.32
573.87	29483.73
574.03	29338.62
574.20	29184.14
574.36	29163.08
574.52	29240.31
574.68	29247.33
574.84	29280.10
575.01	29584.37
575.17	29748.21
575.33	29048.39
575.49	29280.10
575.65	29436.92
575.82	29804.38
575.98	29586.71
576.14	29823.11
576.30	29043.71
576.46	29422.87
576.62	29315.21
576.79	29244.99
576.95	29441.60
577.11	29788.00
577.27	29450.96
577.43	29537.56
577.59	29394.79
577.75	29418.19
577.92	29511.81
578.08	29221.59
578.24	29118.60
578.40	29579.69
578.56	29956.52
578.72	29947.15
578.88	29479.05
579.04	29762.25
579.21	29563.31
579.37	29425.22
579.53	29500.11
579.69	29378.40
579.85	29436.92
580.01	29724.80
580.17	29425.22
580.33	29659.27
580.49	29385.43
580.65	29352.66
580.82	29668.63
580.98	29556.28
581.14	29598.41
581.30	29682.67
581.46	29692.04
581.62	29469.69
581.78	29647.57
581.94	29685.01
582.10	29731.83
582.26	29343.30
582.42	29544.58
582.58	29792.68
582.74	29427.56
582.90	29998.65
583.06	29923.75
583.22	29600.76
583.38	29862.90
583.54	29837.15
583.70	29949.50
583.86	29706.08
584.02	29556.28
584.18	29837.15
584.34	29851.19
584.50	30225.68
584.66	29898.00
584.82	29362.02
584.98	29860.55
585.14	29500.11
585.30	29387.77
585.46	29366.70
585.62	29532.88
585.78	29736.51
585.94	29577.35
586.10	30110.99
586.26	29762.25
586.42	29965.88
586.58	30115.67
586.74	29717.78
586.90	29734.17
587.06	29343.30
587.22	29532.88
587.38	30005.67
587.54	30075.88
587.70	29874.60
587.86	29593.73
588.02	30094.61
588.18	30150.78
588.34	29839.49
588.49	29958.86
588.65	30080.56
588.81	29713.10
588.97	29989.28
589.13	29799.70
589.29	30036.09
589.45	29860.55
589.61	29921.41
589.77	30267.81
589.93	29905.02
590.08	30115.67
590.24	30122.69
590.40	30232.70
590.56	30412.92
590.72	30125.04
590.88	29919.07
591.04	29820.77
591.20	29893.32
591.35	30221.00
591.51	30338.02
591.67	30288.87
591.83	30326.32
591.99	30026.73
592.15	30169.51
592.31	29979.92
592.46	30522.93
592.62	29724.80
592.78	30019.71
592.94	30326.32
593.10	30204.61
593.26	30293.55
593.41	30316.96
593.57	30022.05
593.73	29860.55
593.89	30143.76
594.05	30000.99
594.20	30052.48
594.36	30373.13
594.52	29890.98
594.68	30029.07
594.84	29748.21
594.99	30270.15
595.15	30267.81
595.31	30181.21
595.47	30206.95
595.62	30410.58
595.78	30115.67
595.94	30202.27
596.10	30459.73
596.25	30352.07
596.41	29591.39
596.57	29659.27
596.73	30010.35
596.88	30300.58
597.04	30345.05
597.20	30450.37
597.36	30520.59
597.51	30785.07
597.67	30178.87
597.83	30253.76
597.99	30448.03
598.14	30181.21
598.30	30370.79
598.46	30164.82
598.61	30190.57
598.77	29834.81
598.93	30242.06
599.09	30335.68
599.24	30731.23
599.40	30719.53
599.56	30600.16
599.71	30567.40
599.87	30162.48
600.03	30335.68
600.18	29886.30
600.34	30506.54
600.50	30230.36
600.65	30316.96
600.81	30881.03
600.97	30305.26
601.12	30375.47
601.28	30525.27
601.44	30497.18
601.59	30621.23
601.75	30169.51
601.91	30724.21
602.06	30008.01
602.22	30356.75
602.37	30286.53
602.53	30494.84
602.69	30609.53
602.84	30712.51
603.00	30684.42
603.16	30792.09
603.31	30223.34
603.47	30478.46
603.62	30026.73
603.78	29951.84
603.94	30190.57
604.09	30134.40
604.25	30305.26
604.40	30314.62
604.56	30567.40
604.71	30691.44
604.87	30223.34
605.03	30480.80
605.18	30485.48
605.34	30436.33
605.49	29869.92
605.65	30146.10
605.80	30120.35
605.96	30087.59
606.12	30178.87
606.27	30742.94
606.43	30370.79
606.58	30438.67
606.74	30565.06
606.89	30087.59
607.05	30106.31
607.20	30492.50
607.36	30082.91
607.51	30338.02
607.67	30265.47
607.82	29970.56
607.98	30419.94
608.13	29795.02
608.29	30101.63
608.44	30494.84
608.60	30326.32
608.75	30398.88
608.91	30492.50
609.06	30134.40
609.22	30319.30
609.37	29741.19
609.53	30249.08
609.68	29804.38
609.84	30244.40
609.99	30015.03
610.15	29902.68
610.30	30326.32
610.46	29947.15
610.61	29680.33
610.76	30349.73
610.92	30277.17
611.07	30508.88
611.23	29942.47
611.38	29806.72
611.54	29830.13
611.69	29844.17
611.84	29921.41
612.00	29893.32
612.15	29783.32
612.31	30134.40
612.46	29919.07
612.62	29762.25
612.77	30057.16
612.92	30066.52
613.08	29708.42
613.23	30103.97
613.39	29813.74
613.54	29720.12
613.69	29427.56
613.85	29890.98
614.00	29642.88
614.15	29633.52
614.31	29525.86
614.46	29741.19
614.62	29881.62
614.77	30010.35
614.92	29603.10
615.08	29649.91
615.23	30171.85
615.38	29792.68
615.54	29507.13
615.69	29694.38
615.84	29525.86
616.00	29912.05
616.15	29476.71
616.30	30068.86
616.46	29441.60
616.61	29797.36
616.76	29490.75
616.92	29610.12
617.07	29680.33
617.22	29167.76
617.37	29261.38
617.53	29677.99
617.68	29214.57
617.83	29567.99
617.99	29539.90
618.14	29495.43
618.29	29259.04
618.45	29572.67
618.60	29289.46
618.75	29319.89
618.90	29134.99
619.06	29453.30
619.21	29472.03
619.36	29277.76
619.51	29132.65
619.67	29160.73
619.82	28868.17
619.97	29130.31
620.12	29095.20
620.28	29195.84
620.43	29116.26
620.58	29420.53
620.73	29530.54
620.89	29055.41
621.04	29333.93
621.19	28797.95
621.34	29216.91
621.49	29092.86
621.65	29273.08
621.80	29252.02
621.95	28692.63
622.10	28987.53
622.25	28472.62
622.41	28861.15
622.56	28964.13
622.71	29385.43
622.86	29081.16
623.01	28931.36
623.16	28889.23
623.32	28964.13
623.47	28879.87
623.62	28704.33
623.77	28802.63
623.92	29134.99
624.07	28943.06
624.23	28652.84
624.38	28847.10
624.53	28620.07
624.68	29067.11
624.83	28891.57
624.98	28870.51
625.13	28634.11
625.29	29046.05
625.44	28758.16
625.59	28814.34
625.74	28381.34
625.89	28224.52
626.04	28364.95
626.19	28287.71
626.34	28360.27
626.49	28304.10
626.65	28456.23
626.80	28601.35
626.95	28388.36
627.10	28379.00
627.25	28170.69
627.40	28280.69
627.55	28346.23
627.70	28100.47
627.85	28095.79
628.00	28056.00
628.15	27995.15
628.30	28163.67
628.45	28198.77
628.60	28065.36
628.76	28343.89
628.91	28528.79
629.06	28070.04
629.21	27796.20
629.36	28161.33
629.51	27882.80
629.66	28044.30
629.81	27828.97
629.96	28205.80
630.11	28149.62
630.26	28105.15
630.41	27927.27
630.56	28311.12
630.71	27843.01
630.86	27786.84
631.01	28046.64
631.16	27798.54
631.31	28060.68
631.46	27775.14
631.61	28100.47
631.76	27964.72
631.91	27843.01
632.06	27810.25
632.21	27683.86
632.36	27583.21
632.51	27543.42
632.66	27714.28
632.81	27927.27
632.96	27777.48
633.10	27971.74
633.25	27704.92
633.40	27922.59
633.55	27864.08
633.70	27777.48
633.85	27445.12
634.00	27702.58
634.15	27405.33
634.30	27407.67
634.45	27637.05
634.60	27510.66
634.75	27470.87
634.90	27564.49
635.05	27761.09
635.19	27770.46
635.34	27644.07
635.49	27573.85
635.64	27524.70
635.79	27192.34
635.94	27573.85
636.09	27358.52
636.24	27229.79
636.39	27131.49
636.53	27559.81
636.68	27344.48
636.83	26827.22
636.98	27250.86
637.13	27190.00
637.28	27276.60
637.43	27611.30
637.57	27281.28
637.72	27236.81
637.87	27072.98
638.02	26768.71
638.17	27108.08
638.32	27208.73
638.46	27271.92
638.61	27182.98
638.76	26955.95
638.91	26939.57
639.06	27222.77
639.20	27014.46
639.35	27187.66
639.50	26836.58
639.65	26998.08
639.80	27096.38
639.94	27040.21
640.09	26951.27
640.24	26906.80
640.39	26731.26
640.54	26724.24
640.68	26637.64
640.83	26639.98
640.98	26583.80
641.13	26445.71
641.27	26834.24
641.42	26555.72
641.57	26785.09
641.72	26892.76
641.86	26817.86
642.01	26597.85
642.16	26604.87
642.31	26396.56
642.45	26801.47
642.60	26609.55
642.75	26202.30
642.90	26424.65
643.04	26321.66
643.19	26473.80
643.34	26321.66
643.48	26450.39
643.63	26576.78
643.78	26473.80
643.93	26455.08
644.07	26567.42
644.22	26813.18
644.37	26485.50
644.51	26349.75
644.66	26441.03
644.81	26031.44
644.95	26160.17
645.10	26345.07
645.25	26490.18
645.39	26462.10
645.54	26529.97
645.69	26223.36
645.83	26279.54
645.98	26324.01
646.13	26050.16
646.27	26354.43
646.42	26251.45
646.57	26497.20
646.71	25888.67
646.86	26279.54
647.00	26089.95
647.15	26548.70
647.30	26419.97
647.44	25713.13
647.59	26288.90
647.74	26001.01
647.88	26389.54
648.03	25816.11
648.17	26148.46
648.32	25926.11
648.47	26328.69
648.61	26232.72
648.76	26169.53
648.90	26408.26
649.05	25865.26
649.20	25811.43
649.34	25944.84
649.49	25462.69
649.63	25862.92
649.78	25713.13
649.92	25649.93
650.07	26057.18
650.21	25816.11
650.36	25951.86
650.51	25673.34
650.65	25816.11
650.80	25778.66
650.94	25699.08
651.09	25818.45
651.23	25298.85
651.38	26073.57
651.52	25420.56
651.67	25479.07
651.81	25539.93
651.96	25869.94
652.10	25322.26
652.25	25855.90
652.39	25804.41
652.54	25460.35
652.68	25530.56
652.83	25727.17
652.97	25940.16
653.12	25378.43
653.26	25408.86
653.41	25600.78
653.55	25710.78
653.70	25074.16
653.84	25652.27
653.99	25228.63
654.13	25280.13
654.27	25216.93
654.42	25055.43
654.56	25050.75
654.71	25514.18
654.85	25607.80
655.00	25610.14
655.14	25446.30
655.29	25340.98
655.43	25390.13
655.57	24968.84
655.72	24931.39
655.86	25200.55
656.01	25331.62
656.15	24812.02
656.30	25078.84
656.44	25003.94
656.58	24870.53
656.73	25156.08
656.87	25216.93
657.01	25036.71
657.16	24755.85
657.30	24964.15
657.45	25252.04
657.59	25081.18
657.73	24676.27
657.88	24893.94
658.02	24952.45
658.16	25001.60
658.31	24645.84
658.45	24786.27
658.60	24210.50
658.74	24517.11
658.88	24727.76
659.03	24407.11
659.17	24819.04
659.31	25092.88
659.46	24783.93
659.60	24739.46
659.74	24774.57
659.89	24669.25
660.03	24648.18
660.17	24929.05
660.32	24238.59
660.46	24283.06
660.60	24379.02
660.74	24294.76
660.89	24367.32
661.03	24271.36
661.17	24297.10
661.32	24144.97
661.46	24386.04
661.60	24231.57
661.74	24135.60
661.89	24341.57
662.03	24151.99
662.17	24292.42
662.31	23995.17
662.46	24173.05
662.60	23793.89
662.74	23693.24
662.88	23756.44
663.03	23442.81
663.17	23711.97
663.31	23723.67
663.45	23695.58
663.60	23782.18
663.74	23775.16
663.88	23997.51
664.02	23662.82
664.17	24063.05
664.31	23711.97
664.45	23597.28
664.59	23300.03
664.73	23676.86
664.88	23384.29
665.02	23440.47
665.16	23548.13
665.30	23555.15
665.44	23166.62
665.59	23091.73
665.73	22993.42
665.87	22932.57
666.01	23349.18
666.15	23449.83
666.29	23166.62
666.44	23227.48
666.58	23190.03
666.72	23037.89
666.86	23103.43
667.00	23096.41
667.14	22927.89
667.28	23232.16
667.43	22808.52
667.57	22677.45
667.71	22647.02
667.85	23030.87
667.99	23075.34
668.13	22415.31
668.27	22855.33
668.41	23241.52
668.56	22522.98
668.70	22911.50
668.84	22740.64
668.98	22824.90
669.12	22778.09
669.26	22682.13
669.40	22389.56
669.54	22239.77
669.68	22469.14
669.82	22443.40
669.96	22363.82
670.10	22408.29
670.25	22136.79
670.39	22466.80
670.53	22207.00
670.67	21795.07
670.81	21944.86
670.95	22342.75
671.09	22347.44
671.23	22157.85
671.37	22118.06
671.51	21661.66
671.65	21972.95
671.79	21659.32
671.93	21717.83
672.07	22045.51
672.21	21750.60
672.35	21563.36
672.49	21614.85
672.63	21474.42
672.77	21497.82
672.91	21509.52
673.05	21383.13
673.19	21509.52
673.33	21249.72
673.47	21240.36
673.61	21331.64
673.75	21336.32
673.89	21497.82
674.03	21284.83
674.17	21226.32
674.31	21228.66
674.45	21128.02
674.59	21088.23
674.73	21060.14
674.87	21158.44
675.01	20854.17
675.15	20884.60
675.29	20599.05
675.43	20868.22
675.56	20748.85
675.70	20805.02
675.84	20662.25
675.98	20203.50
676.12	20617.78
676.26	20760.55
676.40	20589.69
676.54	20489.05
676.68	20790.98
676.82	20030.30
676.96	20400.11
677.10	20016.26
677.23	19992.86
677.37	19948.39
677.51	20013.92
677.65	20144.99
677.79	19985.83
677.93	20025.62
678.07	19620.71
678.21	19688.59
678.34	19644.12
678.48	19861.79
678.62	19630.07
678.76	19295.38
678.90	19559.86
679.04	19634.75
679.18	19379.64
679.31	19028.56
679.45	19007.49
679.59	18963.02
679.73	19040.26
679.87	18939.62
680.00	18672.79
680.14	18972.38
680.28	19159.63
680.42	18956.00
680.56	18993.45
680.70	18714.92
680.83	18953.66
680.97	18562.79
681.11	18984.09
681.25	18478.53
681.39	18635.35
681.52	18637.69
681.66	18558.11
681.80	18286.61
681.94	18214.05
682.07	18207.03
682.21	18492.57
682.35	17893.40
682.49	17816.16
682.62	17951.91
682.76	18118.09
682.90	17996.38
683.04	17912.12
683.17	17839.56
683.31	17556.36
683.45	17572.74
683.59	17781.05
683.72	17511.89
683.86	17717.86
684.00	17495.50
684.13	17542.32
684.27	17364.43
684.41	17132.72
684.55	17408.90
684.68	17095.27
684.82	17209.96
684.96	16954.84
685.09	17029.74
685.23	16924.41
685.37	17142.08
685.50	17050.80
685.64	17329.33
685.78	16875.26
685.91	16863.56
686.05	16835.47
686.19	16772.28
686.32	16741.85
686.46	16484.39
686.60	16336.94
686.73	16439.92
686.87	16416.52
687.01	16423.54
687.14	16297.15
687.28	16037.35
687.42	15941.39
687.55	16023.31
687.69	16367.37
687.82	15948.41
687.96	16091.18
688.10	16011.60
688.23	16016.29
688.37	15901.60
688.50	15728.40
688.64	15747.12
688.78	15889.90
688.91	15667.55
689.05	15648.82
689.18	15227.53
689.32	15243.91
689.46	15047.30
689.59	15264.97
689.73	15208.80
689.86	15227.53
690.00	15241.57
690.13	15117.52
690.27	15117.52
690.41	15143.27
690.54	14988.79
690.68	14918.57
690.81	15140.93
690.95	14944.32
691.08	14640.05
691.22	14913.89
691.35	15026.24
691.49	14567.49
691.62	14647.07
691.76	14368.55
691.89	14693.88
692.03	14277.27
692.16	14298.33
692.30	14352.16
692.43	14380.25
692.57	14066.62
692.70	14279.61
692.84	13848.95
692.97	14024.49
693.11	13727.24
693.24	14024.49
693.38	14174.28
693.51	13825.54
693.65	13818.52
693.78	13923.85
693.92	13919.17
694.05	14008.11
694.19	13703.84
694.32	13413.61
694.45	13427.65
694.59	13282.54
694.72	13301.26
694.86	13266.16
694.99	12975.93
695.13	13322.33
695.26	13118.70
695.39	12870.61
695.53	13153.81
695.66	13118.70
695.80	13102.32
695.93	13083.59
696.07	12917.42
696.20	12978.27
696.33	12943.16
696.47	12781.67
696.60	12837.84
696.73	12564.00
696.87	12823.80
697.00	12470.37
697.14	12299.52
697.27	12245.68
697.40	12212.92
697.54	12133.34
697.67	12226.96
697.80	11880.56
697.94	11796.30
698.07	12184.83
698.21	11800.98
698.34	11988.22
698.47	12025.67
698.61	11845.45
698.74	12145.04
698.87	11889.92
699.01	11712.04
699.14	11726.08
699.27	11686.29
699.40	11712.04
699.54	11637.14
699.67	11730.76
699.80	11407.77
699.94	11438.20
700.07	11377.34
700.20	11183.08
700.34	11236.91
700.47	11140.95
700.60	11243.93
700.73	11339.90
700.87	10960.73
701.00	11082.44
701.13	11138.61
701.26	11063.71
701.40	11162.01
701.53	10902.22
701.66	10998.18
701.79	10813.28
701.93	10885.83
702.06	10839.02
702.19	10714.97
702.32	10609.65
702.46	10623.69
702.59	10450.49
702.72	10321.76
702.85	10579.22
702.99	10183.67
703.12	10417.72
703.25	10286.65
703.38	10235.16
703.51	10310.06
703.65	10174.31
703.78	10111.11
703.91	10003.45
704.04	10157.92
704.17	10176.65
704.31	10136.86
704.44	10036.22
704.57	10029.20
704.70	9893.44
704.83	9795.14
704.96	9834.93
705.10	9598.54
705.23	9586.83
>>>>>End Processed Spectral Data<<<<<
