SpectraSuite Data File
++++++++++++++++++++++++++++++++++++
Date: Fri Oct 18 13:58:23 GMT-05:00 2013
User: bianchi
Dark Spectrum Present: No
Reference Spectrum Present: No
Number of Sampled Component Spectra: 1
Spectrometers: USB2+H05261
Integration Time (usec): 50000 (USB2+H05261)
Spectra Averaged: 1 (USB2+H05261)
Boxcar Smoothing: 0 (USB2+H05261)
Correct for Electrical Dark: No (USB2+H05261)
Strobe/Lamp Enabled: No (USB2+H05261)
Correct for Detector Non-linearity: No (USB2+H05261)
Correct for Stray Light: No (USB2+H05261)
Number of Pixels in Processed Spectrum: 2048
>>>>>Begin Processed Spectral Data<<<<<
365.73	4.68
365.92	4.68
366.12	4.68
366.32	0.00
366.52	0.00
366.72	0.00
366.91	0.00
367.11	0.00
367.31	0.00
367.51	0.00
367.70	0.00
367.90	0.00
368.10	0.00
368.30	0.00
368.49	0.00
368.69	0.00
368.89	0.00
369.09	0.00
369.28	0.00
369.48	0.00
369.68	0.00
369.87	0.00
370.07	0.00
370.27	0.00
370.47	0.00
370.66	91.28
370.86	194.26
371.06	133.41
371.25	156.82
371.45	102.98
371.65	135.75
371.84	88.94
372.04	37.45
372.24	252.78
372.44	222.35
372.63	215.33
372.83	184.90
373.03	215.33
373.22	212.99
373.42	196.60
373.62	222.35
373.81	227.03
374.01	313.63
374.21	212.99
374.40	241.08
374.60	262.14
374.79	215.33
374.99	269.16
375.19	215.33
375.38	234.05
375.58	273.84
375.78	301.93
375.97	320.65
376.17	346.40
376.37	266.82
376.56	278.52
376.76	264.48
376.95	194.26
377.15	315.97
377.35	262.14
377.54	273.84
377.74	238.73
377.93	304.27
378.13	255.12
378.33	297.25
378.52	257.46
378.72	266.82
378.91	334.70
379.11	259.80
379.31	264.48
379.50	184.90
379.70	276.18
379.89	304.27
380.09	252.78
380.28	285.55
380.48	304.27
380.68	325.33
380.87	229.37
381.07	308.95
381.26	301.93
381.46	311.29
381.65	348.74
381.85	339.38
382.04	348.74
382.24	407.25
382.43	262.14
382.63	430.66
382.83	381.51
383.02	358.10
383.22	379.17
383.41	381.51
383.61	346.40
383.80	433.00
384.00	404.91
384.19	297.25
384.39	332.36
384.58	355.76
384.78	428.32
384.97	315.97
385.17	372.15
385.36	397.89
385.56	435.34
385.75	339.38
385.95	402.57
386.14	461.09
386.34	517.26
386.53	393.21
386.72	325.33
386.92	461.09
387.11	353.42
387.31	404.91
387.50	409.59
387.70	355.76
387.89	456.40
388.09	365.12
388.28	519.60
388.48	491.51
388.67	400.23
388.86	421.30
389.06	449.38
389.25	400.23
389.45	444.70
389.64	463.43
389.84	507.90
390.03	470.45
390.22	463.43
390.42	447.04
390.61	423.64
390.81	566.41
391.00	540.66
391.19	638.97
391.39	507.90
391.58	477.47
391.78	491.51
391.97	531.30
392.16	514.92
392.36	547.69
392.55	524.28
392.75	503.22
392.94	484.49
393.13	484.49
393.33	638.97
393.52	601.52
393.71	601.52
393.91	587.47
394.10	582.79
394.29	578.11
394.49	587.47
394.68	594.50
394.88	608.54
395.07	599.18
395.26	507.90
395.46	606.20
395.65	638.97
395.84	603.86
396.04	638.97
396.23	641.31
396.42	561.73
396.62	688.12
396.81	704.50
397.00	631.94
397.19	760.67
397.39	730.25
397.58	634.29
397.77	580.45
397.97	627.26
398.16	674.07
398.35	599.18
398.55	641.31
398.74	648.33
398.93	809.83
399.12	772.38
399.32	734.93
399.51	683.44
399.70	788.76
399.90	751.31
400.09	753.65
400.28	798.12
400.47	751.31
400.67	774.72
400.86	760.67
401.05	809.83
401.24	737.27
401.44	814.51
401.63	758.33
401.82	821.53
402.01	770.04
402.21	866.00
402.40	772.38
402.59	718.54
402.78	819.19
402.97	826.21
403.17	863.66
403.36	847.27
403.55	870.68
403.74	884.72
403.93	849.61
404.13	896.43
404.32	866.00
404.51	844.93
404.70	983.02
404.89	943.24
405.09	1041.54
405.28	968.98
405.47	947.92
405.66	983.02
405.85	1001.75
406.05	992.39
406.24	971.32
406.43	961.96
406.62	1039.20
406.81	1067.28
407.00	985.37
407.20	1062.60
407.39	1020.47
407.58	964.30
407.77	1034.52
407.96	1118.78
408.15	1097.71
408.34	1118.78
408.54	1036.86
408.73	1034.52
408.92	1055.58
409.11	1130.48
409.30	1210.06
409.49	1118.78
409.68	1156.22
409.87	1252.19
410.07	1170.27
410.26	1226.44
410.45	1289.64
410.64	1235.80
410.83	1200.69
411.02	1158.57
411.21	1205.38
411.40	1224.10
411.59	1420.71
411.78	1238.14
411.98	1256.87
412.17	1207.72
412.36	1221.76
412.55	1294.32
412.74	1392.62
412.93	1418.36
413.12	1385.60
413.31	1401.98
413.50	1399.64
413.69	1411.34
413.88	1359.85
414.07	1479.22
414.26	1427.73
414.45	1511.99
414.64	1385.60
414.83	1458.15
415.02	1540.07
415.22	1537.73
415.41	1638.38
415.60	1647.74
415.79	1554.12
415.98	1626.67
416.17	1598.59
416.36	1575.18
416.55	1575.18
416.74	1659.44
416.93	1645.40
417.12	1659.44
417.31	1673.48
417.50	1610.29
417.69	1753.06
417.88	1732.00
418.07	1764.76
418.26	1795.19
418.45	1795.19
418.64	1741.36
418.83	1722.63
419.02	1778.81
419.21	1811.57
419.39	1802.21
419.58	1802.21
419.77	1741.36
419.96	1830.30
420.15	1877.11
420.34	1914.56
420.53	1912.22
420.72	1916.90
420.91	1895.83
421.10	1888.81
421.29	2012.86
421.48	1834.98
421.67	1930.94
421.86	1977.75
422.05	1959.03
422.24	1919.24
422.43	1970.73
422.61	1921.58
422.80	2026.90
422.99	1994.14
423.18	1952.01
423.37	1973.07
423.56	2001.16
423.75	1923.92
423.94	1998.82
424.13	1865.41
424.32	1940.30
424.50	2050.31
424.69	2169.68
424.88	2040.95
425.07	2005.84
425.26	2043.29
425.45	1949.67
425.64	1984.77
425.83	2073.71
426.01	1989.46
426.20	2005.84
426.39	1975.41
426.58	2087.76
426.77	2150.95
426.96	2122.87
427.15	2190.74
427.33	2165.00
427.52	2097.12
427.71	2087.76
427.90	2101.80
428.09	2193.08
428.28	2136.91
428.46	2246.91
428.65	2216.49
428.84	2211.81
429.03	2289.04
429.22	2132.23
429.40	2228.19
429.59	2319.47
429.78	2141.59
429.97	2143.93
430.16	2263.30
430.34	2340.54
430.53	2310.11
430.72	2361.60
430.91	2473.95
431.10	2319.47
431.28	2335.85
431.47	2347.56
431.66	2490.33
431.85	2370.96
432.03	2310.11
432.22	2466.92
432.41	2436.50
432.60	2455.22
432.79	2485.65
432.97	2527.78
433.16	2434.16
433.35	2518.42
433.54	2520.76
433.72	2487.99
433.91	2483.31
434.10	2586.29
434.28	2422.45
434.47	2459.90
434.66	2612.04
434.85	2506.71
435.03	2497.35
435.22	2455.22
435.41	2813.32
435.59	2626.08
435.78	2649.49
435.97	2689.28
436.16	2663.53
436.34	2665.87
436.53	2675.23
436.72	2782.90
436.90	2640.12
437.09	2754.81
437.28	2698.64
437.46	2642.46
437.65	2651.83
437.84	2864.82
438.02	2700.98
438.21	2738.43
438.40	2705.66
438.58	2878.86
438.77	2991.20
438.96	2754.81
439.14	2857.79
439.33	3047.38
439.52	3063.76
439.70	2899.92
439.89	2991.20
440.08	3012.27
440.26	3019.29
440.45	3136.32
440.63	3119.93
440.82	3126.96
441.01	3124.62
441.19	3229.94
441.38	3213.56
441.57	3253.34
441.75	3265.05
441.94	3169.09
442.12	3234.62
442.31	3260.37
442.50	3328.24
442.68	3328.24
442.87	3393.78
443.05	3286.11
443.24	3353.99
443.43	3368.03
443.61	3276.75
443.80	3431.23
443.98	3229.94
444.17	3375.05
444.35	3590.38
444.54	3480.38
444.73	3328.24
444.91	3398.46
445.10	3353.99
445.28	3389.10
445.47	3407.82
445.65	3365.69
445.84	3382.07
446.02	3529.53
446.21	3403.14
446.39	3499.10
446.58	3499.10
446.77	3396.12
446.95	3351.65
447.14	3363.35
447.32	3639.53
447.51	3421.86
447.69	3536.55
447.88	3508.46
448.06	3588.04
448.25	3550.59
448.43	3576.34
448.62	3660.60
448.80	3531.87
448.99	3695.71
449.17	3574.00
449.36	3581.02
449.54	3604.42
449.73	3641.87
449.91	3730.81
450.10	3658.26
450.28	3726.13
450.46	3625.49
450.65	3826.78
450.83	3861.88
451.02	3747.20
451.20	3843.16
451.39	3810.39
451.57	3801.03
451.76	3859.54
451.94	3779.97
452.13	3754.22
452.31	3845.50
452.49	3868.91
452.68	3904.01
452.86	3904.01
453.05	3871.25
453.23	3934.44
453.42	3950.82
453.60	3889.97
453.78	3819.75
453.97	3964.87
454.15	3962.53
454.34	3990.61
454.52	4046.79
454.70	4114.66
454.89	4091.26
455.07	4180.20
455.26	4067.85
455.44	4014.02
455.62	4229.35
455.81	4140.41
455.99	4168.49
456.17	4107.64
456.36	4154.45
456.54	4208.28
456.73	4203.60
456.91	4294.88
457.09	4222.33
457.28	4290.20
457.46	4086.58
457.64	4337.01
457.83	4332.33
458.01	4334.67
458.19	4498.51
458.38	4325.31
458.56	4423.61
458.74	4479.79
458.93	4372.12
459.11	4472.76
459.29	4428.29
459.48	4440.00
459.66	4365.10
459.84	4447.02
460.03	4620.22
460.21	4599.15
460.39	4594.47
460.57	4440.00
460.76	4688.09
460.94	4610.86
461.12	4596.81
461.31	4503.19
461.49	4592.13
461.67	4531.28
461.85	4655.33
462.04	4561.70
462.22	4779.37
462.40	4863.63
462.59	4882.36
462.77	4720.86
462.95	4784.06
463.13	4784.06
463.32	4774.69
463.50	4957.25
463.68	4816.82
463.86	4891.72
464.05	4772.35
464.23	4840.23
464.41	4865.97
464.59	4826.18
464.78	4880.02
464.96	4978.32
465.14	4938.53
465.32	5027.47
465.50	5109.39
465.69	5027.47
465.87	4961.94
466.05	4915.12
466.23	5088.32
466.41	5039.17
466.60	5207.69
466.78	4968.96
466.96	5043.85
467.14	5043.85
467.32	5142.16
467.51	5104.71
467.69	5165.56
467.87	5205.35
468.05	5085.98
468.23	5132.79
468.41	5146.84
468.60	5303.65
468.78	5336.42
468.96	5174.92
469.14	5380.89
469.32	5486.22
469.50	5118.75
469.69	5261.52
469.87	5441.75
470.05	5252.16
470.23	5327.06
470.41	5338.76
470.59	5584.52
470.77	5500.26
470.95	5472.17
471.14	5526.00
471.32	5453.45
471.50	5444.09
471.68	5682.82
471.86	5397.28
472.04	5692.18
472.22	5696.86
472.40	5617.29
472.58	5640.69
472.77	5628.99
472.95	5870.06
473.13	6033.90
473.31	5708.57
473.49	5816.23
473.67	5827.93
473.85	5902.83
474.03	5937.94
474.21	5902.83
474.39	6052.63
474.57	6085.39
474.75	6209.44
474.93	6328.81
475.12	6099.44
475.30	6218.80
475.48	6104.12
475.66	6174.33
475.84	6232.85
476.02	6340.51
476.20	6368.60
476.38	6382.64
476.56	6342.85
476.74	6513.71
476.92	6455.20
477.10	6670.53
477.28	6616.69
477.46	6651.80
477.64	6759.47
477.82	6787.55
478.00	6846.07
478.18	6883.52
478.36	6970.12
478.54	6984.16
478.72	7218.21
478.90	7169.06
479.08	7140.97
479.26	7126.93
479.44	7152.68
479.62	7253.32
479.80	7250.98
479.98	7410.14
480.16	7618.44
480.34	7559.93
480.52	7683.98
480.70	7805.69
480.88	7470.99
481.06	7831.43
481.24	7672.28
481.41	7815.05
481.59	7962.50
481.77	8142.72
481.95	8060.80
482.13	8278.47
482.31	8100.59
482.49	8072.51
482.67	8091.23
482.85	8484.44
483.03	8552.32
483.21	8582.74
483.39	8404.86
483.57	8482.10
483.74	8601.47
483.92	8718.50
484.10	8594.45
484.28	8854.25
484.46	9029.79
484.64	9050.85
484.82	9020.42
485.00	9238.09
485.18	9380.87
485.35	9362.14
485.53	9427.68
485.71	9439.38
485.89	9373.85
486.07	9565.77
486.25	9579.81
486.43	9605.56
486.61	9734.29
486.78	9778.76
486.96	10052.60
487.14	10052.60
487.32	10277.29
487.50	10237.50
487.68	10120.48
487.85	10319.42
488.03	10480.92
488.21	10518.37
488.39	10560.50
488.57	10785.19
488.75	10696.25
488.92	10719.65
489.10	10832.00
489.28	10960.73
489.46	11089.46
489.64	11073.07
489.81	11438.20
489.99	11391.39
490.17	11262.66
490.35	11496.71
490.53	11595.01
490.70	11463.94
490.88	11454.58
491.06	11735.45
491.24	11714.38
491.41	11840.77
491.59	11964.82
491.77	11815.02
491.95	12142.70
492.13	12095.89
492.30	12215.26
492.48	12250.36
492.66	12226.96
492.84	12343.99
493.01	12334.62
493.19	12540.59
493.37	12737.20
493.54	12795.71
493.72	12933.80
493.90	12596.76
494.08	12975.93
494.25	12996.99
494.43	13090.62
494.61	13486.17
494.79	13198.28
494.96	13535.32
495.14	13408.93
495.32	13408.93
495.49	13757.67
495.67	13589.15
495.85	13804.48
496.02	13638.30
496.20	13886.40
496.38	14043.21
496.55	14033.85
496.73	13968.32
496.91	14113.43
497.09	14143.86
497.26	14155.56
497.44	14396.64
497.62	14347.48
497.79	14569.83
497.97	14284.29
498.14	14670.48
498.32	15101.14
498.50	14696.22
498.67	14785.16
498.85	14963.04
499.03	15110.50
499.20	15026.24
499.38	14899.85
499.56	15201.78
499.73	15215.82
499.91	15424.13
500.08	15697.97
500.26	15339.87
500.44	15496.69
500.61	15573.92
500.79	15714.36
500.97	15693.29
501.14	15864.15
501.32	16018.63
501.49	15831.38
501.67	15484.98
501.84	15829.04
502.02	15960.11
502.20	16030.33
502.37	15950.75
502.55	16252.68
502.72	16280.77
502.90	16294.81
503.07	16093.52
503.25	16257.36
503.43	16367.37
503.60	16257.36
503.78	16521.84
503.95	16648.23
504.13	16760.58
504.30	16362.69
504.48	16673.98
504.65	16741.85
504.83	16926.75
505.01	17076.55
505.18	17118.68
505.36	17022.72
505.53	17174.85
505.71	16542.91
505.88	17170.17
506.06	16980.59
506.23	17071.87
506.41	17364.43
506.58	17703.81
506.76	17085.91
506.93	17617.21
507.11	17415.93
507.28	17448.69
507.46	17701.47
507.63	17703.81
507.81	17884.03
507.98	17619.55
508.16	17930.84
508.33	17841.90
508.50	17921.48
508.68	17888.71
508.85	18143.83
509.03	18157.88
509.20	18298.31
509.38	18207.03
509.55	18438.74
509.73	18504.28
509.90	18274.90
510.08	18398.95
510.25	18684.50
510.42	18689.18
510.60	18745.35
510.77	18625.98
510.95	18579.17
511.12	18892.80
511.30	18803.86
511.47	18700.88
511.64	18878.76
511.82	19075.37
511.99	18988.77
512.17	19105.79
512.34	18995.79
512.51	18941.96
512.69	18998.13
512.86	19239.20
513.04	19538.79
513.21	19463.90
513.38	19236.86
513.56	19555.18
513.73	19442.83
513.90	19508.37
514.08	19576.24
514.25	19648.80
514.43	19800.93
514.60	19730.72
514.77	20081.80
514.95	20072.43
515.12	19784.55
515.29	19768.16
515.47	20100.52
515.64	19964.77
515.81	20060.73
515.99	20329.89
516.16	20250.32
516.33	20318.19
516.51	20149.67
516.68	20505.43
516.85	20350.96
517.03	20465.64
517.20	20512.46
517.37	20449.26
517.54	20765.23
517.72	20453.94
517.89	20823.75
518.06	20793.32
518.24	20482.03
518.41	20568.63
518.58	20762.89
518.75	20702.04
518.93	21062.48
519.10	20741.83
519.27	20987.58
519.45	20718.42
519.62	21060.14
519.79	21235.68
519.96	21025.03
520.14	21191.21
520.31	21174.83
520.48	21493.14
520.65	21401.86
520.83	21266.11
521.00	21846.56
521.17	21273.13
521.34	21645.27
521.52	21490.80
521.69	21687.40
521.86	21544.63
522.03	21736.56
522.20	21708.47
522.38	21766.98
522.55	21563.36
522.72	21696.77
522.89	22078.27
523.07	21970.61
523.24	21949.54
523.41	22129.77
523.58	21846.56
523.75	22373.18
523.92	22047.85
524.10	22164.87
524.27	22277.22
524.44	22132.11
524.61	22738.30
524.78	22593.19
524.96	22450.42
525.13	22471.48
525.30	22647.02
525.47	22848.31
525.64	22981.72
525.81	22614.26
525.98	23091.73
526.16	22794.48
526.33	22895.12
526.50	23005.13
526.67	22513.61
526.84	22789.80
527.01	22909.16
527.18	22991.08
527.36	23222.80
527.53	23119.81
527.70	23206.41
527.87	23089.38
528.04	22806.18
528.21	23388.97
528.38	23300.03
528.55	23325.78
528.72	23150.24
528.89	23442.81
529.07	23676.86
529.24	23192.37
529.41	23531.75
529.58	23597.28
529.75	23550.47
529.92	23496.64
530.09	24020.92
530.26	23396.00
530.43	23843.04
530.60	23253.22
530.77	24034.96
530.94	23901.55
531.11	23576.22
531.28	23864.10
531.46	24027.94
531.63	23882.83
531.80	24191.78
531.97	23777.50
532.14	24219.86
532.31	23960.06
532.48	24217.52
532.65	24058.37
532.82	24203.48
532.99	23943.68
533.16	24374.34
533.33	24400.08
533.50	24582.65
533.67	24877.55
533.84	24388.38
534.01	24540.52
534.18	24381.36
534.35	24376.68
534.52	24276.04
534.69	24893.94
534.86	24739.46
535.03	24467.96
535.20	24823.72
535.37	24411.79
535.54	24545.20
535.71	24638.82
535.88	24797.98
536.05	24727.76
536.22	24940.75
536.38	25167.78
536.55	25001.60
536.72	24725.42
536.89	24865.85
537.06	25118.63
537.23	25071.82
537.40	25017.99
537.57	25142.03
537.74	25160.76
537.91	25530.56
538.08	25179.48
538.25	25268.42
538.42	25544.61
538.59	25488.43
538.75	25315.23
538.92	25362.04
539.09	25539.93
539.26	25301.19
539.43	25315.23
539.60	25706.10
539.77	25434.60
539.94	25465.03
540.11	25584.40
540.28	25469.71
540.44	25682.70
540.61	25706.10
540.78	25439.28
540.95	25458.01
541.12	25195.87
541.29	25752.91
541.46	26204.64
541.62	25591.42
541.79	26071.23
541.96	25465.03
542.13	25696.74
542.30	26012.71
542.47	26214.00
542.63	25993.99
542.80	26059.52
542.97	26181.23
543.14	26520.61
543.31	26132.08
543.48	26132.08
543.64	26632.96
543.81	26459.76
543.98	26082.93
544.15	26757.00
544.32	26499.55
544.48	26604.87
544.65	26366.13
544.82	26302.94
544.99	26567.42
545.16	26600.19
545.32	26403.58
545.49	26682.11
545.66	26902.12
545.83	26895.10
546.00	27016.80
546.16	26670.40
546.33	26359.11
546.50	26726.58
546.67	26904.46
546.83	26527.63
547.00	27030.85
547.17	26892.76
547.34	26937.23
547.50	27115.11
547.67	27496.61
547.84	27089.36
548.00	26614.23
548.17	27592.58
548.34	27353.84
548.51	26937.23
548.67	27122.13
548.84	27243.84
549.01	27257.88
549.18	27035.53
549.34	27204.05
549.51	27164.26
549.68	27585.55
549.84	27407.67
550.01	27461.51
550.18	27534.06
550.34	27630.02
550.51	27597.26
550.68	27770.46
550.84	27288.31
551.01	27936.63
551.18	27360.86
551.34	27213.41
551.51	27412.35
551.68	27929.61
551.84	27513.00
552.01	27793.86
552.18	27541.08
552.34	27704.92
552.51	27903.87
552.68	28123.88
552.84	27798.54
553.01	27828.97
553.18	27810.25
553.34	27896.85
553.51	27955.36
553.67	28224.52
553.84	27662.79
554.01	27929.61
554.17	28100.47
554.34	27775.14
554.51	27943.66
554.67	28173.03
554.84	28044.30
555.00	28077.07
555.17	27938.97
555.33	28383.68
555.50	28371.97
555.67	27810.25
555.83	28121.54
556.00	28212.82
556.16	28453.89
556.33	28084.09
556.50	28535.81
556.66	28091.11
556.83	28030.26
556.99	28811.99
557.16	28669.22
557.32	28552.20
557.49	29008.60
557.65	28343.89
557.82	28650.50
557.98	28086.43
558.15	28236.22
558.32	28629.43
558.48	28552.20
558.65	28697.31
558.81	28591.98
558.98	28542.83
559.14	28659.86
559.31	28716.03
559.47	28091.11
559.64	28652.84
559.80	28582.62
559.97	28367.29
560.13	28819.02
560.30	28599.01
560.46	28636.45
560.63	28713.69
560.79	28886.89
560.96	28816.68
561.12	28388.36
561.29	28542.83
561.45	28725.39
561.61	28924.34
561.78	29024.98
561.94	28823.70
562.11	29057.75
562.27	28826.04
562.44	28938.38
562.60	28793.27
562.77	28996.90
562.93	28804.97
563.10	28751.14
563.26	29156.05
563.42	29289.46
563.59	29125.63
563.75	28989.88
563.92	29130.31
564.08	28732.42
564.24	29369.04
564.41	28891.57
564.57	29027.32
564.74	29174.78
564.90	29212.23
565.07	29170.10
565.23	29167.76
565.39	29034.35
565.56	28912.64
565.72	29359.68
565.88	29099.88
566.05	29039.03
566.21	29200.52
566.38	28938.38
566.54	29184.14
566.70	29411.17
566.87	29504.79
567.03	29249.67
567.19	29633.52
567.36	29558.63
567.52	29436.92
567.68	29149.03
567.85	29383.09
568.01	29425.22
568.17	29457.98
568.34	29460.32
568.50	29413.51
568.66	29347.98
568.83	29773.95
568.99	29088.18
569.15	29598.41
569.32	29275.42
569.48	29106.90
569.64	29537.56
569.81	29621.82
569.97	29383.09
570.13	29699.06
570.30	29326.91
570.46	29495.43
570.62	29249.67
570.78	29273.08
570.95	29167.76
571.11	29532.88
571.27	29881.62
571.43	29596.07
571.60	29284.78
571.76	29385.43
571.92	29914.39
572.09	29544.58
572.25	29687.36
572.41	29593.73
572.57	29436.92
572.74	29670.97
572.90	29347.98
573.06	29633.52
573.22	29312.87
573.38	29937.79
573.55	29876.94
573.71	29703.74
573.87	29858.21
574.03	29799.70
574.20	29750.55
574.36	29378.40
574.52	29284.78
574.68	29628.84
574.84	29759.91
575.01	29589.05
575.17	29727.14
575.33	29575.01
575.49	29614.80
575.65	29670.97
575.82	29729.48
575.98	29706.08
576.14	29855.87
576.30	30068.86
576.46	29703.74
576.62	29366.70
576.79	29699.06
576.95	29692.04
577.11	29511.81
577.27	29816.08
577.43	30099.29
577.59	29720.12
577.75	29837.15
577.92	29687.36
578.08	29315.21
578.24	29806.72
578.40	29961.20
578.56	29788.00
578.72	29933.11
578.88	29930.77
579.04	29926.09
579.21	29465.00
579.37	29750.55
579.53	29497.77
579.69	29703.74
579.85	29589.05
580.01	29853.53
580.17	29631.18
580.33	29743.53
580.49	29724.80
580.65	30185.89
580.82	30094.61
580.98	29685.01
581.14	29977.58
581.30	30054.82
581.46	29961.20
581.62	29640.54
581.78	29909.71
581.94	29914.39
582.10	29769.27
582.26	29926.09
582.42	29944.81
582.58	30008.01
582.74	29790.34
582.90	29909.71
583.06	29858.21
583.22	29954.18
583.38	29937.79
583.54	30216.32
583.70	29923.75
583.86	29773.95
584.02	29708.42
584.18	29935.45
584.34	30026.73
584.50	29893.32
584.66	30080.56
584.82	29766.93
584.98	30183.55
585.14	30162.48
585.30	29703.74
585.46	29757.57
585.62	29603.10
585.78	30265.47
585.94	29996.31
586.10	30480.80
586.26	30054.82
586.42	30033.75
586.58	29928.43
586.74	29914.39
586.90	29656.93
587.06	29626.50
587.22	30045.46
587.38	29935.45
587.54	30005.67
587.70	29989.28
587.86	29596.07
588.02	30167.16
588.18	30272.49
588.34	30260.79
588.49	29858.21
588.65	30022.05
588.81	30103.97
588.97	30125.04
589.13	29998.65
589.29	29811.40
589.45	30216.32
589.61	30359.09
589.77	30419.94
589.93	30422.28
590.08	30504.20
590.24	30232.70
590.40	30698.47
590.56	30532.29
590.72	30354.41
590.88	29968.22
591.04	29790.34
591.20	30188.23
591.35	30426.96
591.51	30635.27
591.67	30202.27
591.83	30590.80
591.99	30387.18
592.15	30607.19
592.31	29933.11
592.46	30242.06
592.62	29940.13
592.78	30181.21
592.94	30583.78
593.10	30087.59
593.26	30726.55
593.41	30141.42
593.57	30492.50
593.73	30590.80
593.89	30368.45
594.05	30452.71
594.20	30375.47
594.36	30279.51
594.52	30691.44
594.68	30122.69
594.84	30143.76
594.99	30326.32
595.15	30008.01
595.31	30656.34
595.47	30373.13
595.62	30588.46
595.78	30462.07
595.94	30401.22
596.10	30277.17
596.25	30389.52
596.41	30251.42
596.57	29778.64
596.73	30684.42
596.88	30560.37
597.04	30260.79
597.20	30529.95
597.36	30504.20
597.51	30459.73
597.67	30302.92
597.83	30738.26
597.99	30728.89
598.14	30249.08
598.30	30448.03
598.46	30888.05
598.61	30871.67
598.77	30073.54
598.93	30515.90
599.09	30300.58
599.24	30906.77
599.40	30899.75
599.56	30452.71
599.71	30546.33
599.87	30576.76
600.03	30513.56
600.18	30230.36
600.34	30768.68
600.50	30426.96
600.65	30181.21
600.81	30335.68
600.97	30672.72
601.12	30738.26
601.28	30927.84
601.44	30787.41
601.59	30457.39
601.75	30441.01
601.91	31276.58
602.06	30335.68
602.22	30426.96
602.37	30506.54
602.53	30504.20
602.69	30352.07
602.84	30714.85
603.00	30913.80
603.16	30607.19
603.31	30398.88
603.47	30991.03
603.62	30543.99
603.78	30691.44
603.94	30118.01
604.09	30078.22
604.25	30691.44
604.40	30256.11
604.56	30412.92
604.71	30815.49
604.87	30293.55
605.03	30405.90
605.18	30412.92
605.34	30274.83
605.49	30302.92
605.65	30342.70
605.80	30328.66
605.96	30349.73
606.12	30188.23
606.27	30829.54
606.43	30476.12
606.58	30433.99
606.74	30487.82
606.89	30693.79
607.05	30513.56
607.20	30752.30
607.36	30595.48
607.51	30183.55
607.67	30059.50
607.82	30258.45
607.98	30239.72
608.13	30433.99
608.29	30302.92
608.44	30419.94
608.60	30237.38
608.75	30340.36
608.91	30373.13
609.06	30405.90
609.22	30312.28
609.37	30136.74
609.53	30162.48
609.68	30136.74
609.84	30246.74
609.99	30176.53
610.15	29975.24
610.30	30347.39
610.46	29982.26
610.61	30445.69
610.76	30153.12
610.92	29764.59
611.07	30150.78
611.23	29954.18
611.38	30197.59
611.54	30176.53
611.69	29869.92
611.84	30103.97
612.00	30122.69
612.15	30071.20
612.31	30321.64
612.46	29963.54
612.62	30300.58
612.77	30506.54
612.92	29846.51
613.08	29879.28
613.23	30136.74
613.39	30174.19
613.54	29734.17
613.69	30071.20
613.85	29701.40
614.00	30323.98
614.15	30125.04
614.31	29682.67
614.46	30092.27
614.62	29912.05
614.77	29631.18
614.92	30305.26
615.08	30008.01
615.23	30110.99
615.38	29355.00
615.54	29703.74
615.69	29626.50
615.84	29837.15
616.00	29619.48
616.15	29645.23
616.30	29666.29
616.46	29710.76
616.61	29958.86
616.76	30000.99
616.92	29638.20
617.07	29853.53
617.22	29933.11
617.37	29713.10
617.53	29895.66
617.68	29752.89
617.83	29474.37
617.99	28912.64
618.14	30003.33
618.29	29469.69
618.45	29514.16
618.60	29418.19
618.75	29373.72
618.90	29549.26
619.06	29294.14
619.21	29605.44
619.36	29350.32
619.51	29263.72
619.67	29120.95
619.82	29270.74
619.97	29109.24
620.12	29247.33
620.28	29186.48
620.43	29598.41
620.58	29584.37
620.73	29598.41
620.89	29584.37
621.04	29362.02
621.19	29584.37
621.34	28980.51
621.49	29317.55
621.65	29064.77
621.80	29022.64
621.95	29315.21
622.10	29301.17
622.25	29179.46
622.41	29298.83
622.56	28725.39
622.71	29439.26
622.86	29074.13
623.01	28634.11
623.16	29200.52
623.32	28903.28
623.47	29104.56
623.62	28865.83
623.77	28849.44
623.92	28858.81
624.07	28758.16
624.23	28807.31
624.38	28868.17
624.53	29081.16
624.68	28896.25
624.83	29177.12
624.98	29001.58
625.13	28851.78
625.29	28716.03
625.44	29130.31
625.59	28781.57
625.74	28664.54
625.89	29006.26
626.04	28664.54
626.19	28582.62
626.34	28514.75
626.49	28678.58
626.65	28489.00
626.80	28826.04
626.95	28746.46
627.10	28505.38
627.25	28751.14
627.40	28776.89
627.55	28346.23
627.70	28369.63
627.85	28175.37
628.00	28524.11
628.15	28285.37
628.30	28039.62
628.45	28477.30
628.60	28137.92
628.76	28283.03
628.91	28587.30
629.06	28271.33
629.21	28266.65
629.36	28219.84
629.51	28379.00
629.66	28175.37
629.81	27946.00
629.96	28140.26
630.11	28144.94
630.26	27920.25
630.41	28011.53
630.56	27826.63
630.71	27864.08
630.86	28095.79
631.01	28203.46
631.16	28290.06
631.31	28191.75
631.46	28379.00
631.61	28016.21
631.76	28243.24
631.91	28023.23
632.06	28065.36
632.21	27585.55
632.36	28180.05
632.51	27634.71
632.66	27934.29
632.81	27971.74
632.96	27910.89
633.10	27934.29
633.25	28261.97
633.40	27854.72
633.55	28102.81
633.70	27674.49
633.85	27990.47
634.00	27527.04
634.15	27693.22
634.30	27658.11
634.45	27587.89
634.60	27393.63
634.75	27920.25
634.90	27995.15
635.05	27826.63
635.19	27606.62
635.34	27620.66
635.49	27597.26
635.64	27749.39
635.79	27859.40
635.94	27754.07
636.09	27733.01
636.24	27798.54
636.39	27225.11
636.53	27473.21
636.68	27625.34
636.83	27330.44
636.98	27873.44
637.13	27206.39
637.28	27562.15
637.43	27381.93
637.57	27606.62
637.72	27489.59
637.87	27009.78
638.02	27517.68
638.17	27688.54
638.32	27386.61
638.46	27058.93
638.61	27143.19
638.76	26810.84
638.91	27288.31
639.06	27171.28
639.20	27246.18
639.35	27314.05
639.50	27159.58
639.65	27475.55
639.80	27564.49
639.94	27248.52
640.09	27370.22
640.24	27000.42
640.39	27222.77
640.54	26733.60
640.68	26925.52
640.83	26862.33
640.98	26892.76
641.13	26857.65
641.27	27026.17
641.42	26881.05
641.57	27175.96
641.72	27234.47
641.86	26382.52
642.01	26609.55
642.16	26991.06
642.31	26948.93
642.45	26874.03
642.60	26487.84
642.75	26579.12
642.90	26483.16
643.04	26852.97
643.19	26883.39
643.34	26586.15
643.48	26712.53
643.63	26548.70
643.78	26471.46
643.93	26719.56
644.07	26679.77
644.22	26665.72
644.37	26810.84
644.51	26672.74
644.66	26518.27
644.81	26473.80
644.95	26169.53
645.10	26515.93
645.25	26221.02
645.39	26459.76
645.54	26628.27
645.69	26717.22
645.83	26382.52
645.98	26707.85
646.13	26698.49
646.27	26326.35
646.42	26518.27
646.57	26345.07
646.71	26363.79
646.86	26277.19
647.00	26775.73
647.15	26438.69
647.30	26375.50
647.44	25984.63
647.59	26424.65
647.74	26064.21
647.88	26246.77
648.03	26286.56
648.17	26094.63
648.32	26586.15
648.47	26398.90
648.61	26129.74
648.76	26155.49
648.90	26452.73
649.05	26164.85
649.20	26312.30
649.34	26082.93
649.49	25715.47
649.63	26270.17
649.78	25975.27
649.92	25982.29
650.07	25792.70
650.21	25680.36
650.36	25762.28
650.51	25591.42
650.65	25972.92
650.80	25970.58
650.94	26022.08
651.09	25546.95
651.23	25462.69
651.38	25748.23
651.52	26026.76
651.67	25886.32
651.81	25865.26
651.96	25935.48
652.10	25998.67
652.25	25717.81
652.39	25640.57
652.54	26118.04
652.68	25752.91
652.83	25874.62
652.97	25839.51
653.12	25795.04
653.26	25736.53
653.41	25568.01
653.55	25544.61
653.70	25558.65
653.84	25645.25
653.99	25392.47
654.13	25362.04
654.27	25385.45
654.42	25596.10
654.56	25598.44
654.71	25319.92
654.85	25392.47
655.00	25809.09
655.14	25692.06
655.29	25846.54
655.43	25263.74
655.57	25158.42
655.72	25095.22
655.86	25256.72
656.01	25544.61
656.15	25422.90
656.30	25120.97
656.44	25352.68
656.58	24919.68
656.73	25156.08
656.87	25060.12
657.01	25415.88
657.16	25245.02
657.30	25064.80
657.45	25221.61
657.59	25282.47
657.73	25146.72
657.88	25034.37
658.02	25095.22
658.16	24882.24
658.31	24753.51
658.45	24800.32
658.60	24830.74
658.74	24786.27
658.88	24734.78
659.03	24716.06
659.17	24737.12
659.31	24959.47
659.46	24992.24
659.60	25132.67
659.74	24952.45
659.89	24610.73
660.03	24730.10
660.17	24573.28
660.32	24636.48
660.46	24369.66
660.60	24276.04
660.74	24507.75
660.89	24395.40
661.03	24409.45
661.17	24271.36
661.32	24339.23
661.46	24584.99
661.60	24418.81
661.74	24114.54
661.89	24568.60
662.03	24423.49
662.17	24432.85
662.31	24177.73
662.46	24098.16
662.60	24196.46
662.74	24217.52
662.88	24025.60
663.03	23742.39
663.17	23845.38
663.31	24116.88
663.45	23749.42
663.60	23669.84
663.74	23873.46
663.88	23995.17
664.02	23796.23
664.17	24177.73
664.31	23934.32
664.45	23735.37
664.59	23826.65
664.73	23784.52
664.88	23625.37
665.02	23522.38
665.16	23447.49
665.30	23702.61
665.44	23419.40
665.59	23180.67
665.73	23587.92
665.87	23454.51
666.01	23339.82
666.15	23353.87
666.29	23356.21
666.44	23697.92
666.58	23044.91
666.72	23543.45
666.86	23522.38
667.00	23484.94
667.14	23316.42
667.28	23150.24
667.43	23133.86
667.57	23220.45
667.71	22698.52
667.85	23173.64
667.99	22918.53
668.13	22944.27
668.27	22937.25
668.41	22742.99
668.56	22820.22
668.70	22799.16
668.84	22869.37
668.98	23051.94
669.12	22801.50
669.26	22916.19
669.40	22731.28
669.54	22876.40
669.68	22785.12
669.82	22366.16
669.96	22225.73
670.10	22099.34
670.25	22600.21
670.39	22167.21
670.53	22246.79
670.67	22026.78
670.81	22417.65
670.95	22267.86
671.09	22270.20
671.23	22333.39
671.37	22443.40
671.51	22225.73
671.65	22164.87
671.79	22050.19
671.93	21996.35
672.07	21963.59
672.21	21785.71
672.35	21493.14
672.49	21668.68
672.63	21867.63
672.77	21296.53
672.91	21689.74
673.05	21696.77
673.19	21692.08
673.33	21673.36
673.47	21549.31
673.61	21582.08
673.75	21500.16
673.89	21488.46
674.03	21422.92
674.17	21380.79
674.31	21266.11
674.45	21111.63
674.59	21420.58
674.73	21231.00
674.87	21083.55
675.01	21029.71
675.15	21191.21
675.29	21064.82
675.43	21179.51
675.56	20940.77
675.70	20748.85
675.84	20856.51
675.98	20278.40
676.12	21240.36
676.26	21324.62
676.40	20844.81
676.54	20280.74
676.68	20662.25
676.82	19957.75
676.96	20425.86
677.10	20479.69
677.23	20247.97
677.37	20196.48
677.51	19964.77
677.65	20161.37
677.79	20191.80
677.93	20002.22
678.07	19786.89
678.21	19847.74
678.34	19901.58
678.48	19826.68
678.62	19728.38
678.76	19651.14
678.90	19438.15
679.04	19601.99
679.18	19723.69
679.31	19278.99
679.45	19075.37
679.59	19185.37
679.73	19040.26
679.87	19281.33
680.00	19241.54
680.14	19021.53
680.28	19005.15
680.42	18801.52
680.56	19253.25
680.70	19007.49
680.83	19131.54
680.97	18853.02
681.11	18808.54
681.25	18649.39
681.39	18527.68
681.52	18834.29
681.66	18438.74
681.80	18703.22
681.94	18445.76
682.07	18286.61
682.21	18274.90
682.35	18192.98
682.49	18085.32
682.62	18090.00
682.76	17956.59
682.90	18164.90
683.04	18113.41
683.17	18029.15
683.31	18059.57
683.45	17902.76
683.59	18085.32
683.72	17741.26
683.86	17551.68
684.00	17685.09
684.13	17626.57
684.27	17589.13
684.41	17729.56
684.55	17078.89
684.68	17228.68
684.82	17195.92
684.96	17343.37
685.09	16989.95
685.23	16826.11
685.37	17287.20
685.50	16947.82
685.64	17018.04
685.78	17083.57
685.91	17228.68
686.05	17205.28
686.19	16774.62
686.32	16758.24
686.46	16449.28
686.60	16460.99
686.73	16538.23
686.87	16533.54
687.01	16269.06
687.14	16266.72
687.28	15985.86
687.42	16079.48
687.55	16154.38
687.69	16182.46
687.82	16224.59
687.96	16009.26
688.10	16035.01
688.23	16301.83
688.37	15669.89
688.50	15955.43
688.64	15634.78
688.78	15796.28
688.91	15662.86
689.05	15520.09
689.18	15440.51
689.32	15105.82
689.46	15609.03
689.59	15344.55
689.73	15257.95
689.86	15056.67
690.00	15328.17
690.13	15087.09
690.27	15061.35
690.41	15264.97
690.54	15293.06
690.68	15066.03
690.81	15042.62
690.95	15068.37
691.08	15171.35
691.22	14796.87
691.35	14911.55
691.49	14897.51
691.62	14848.36
691.76	14450.47
691.89	14644.73
692.03	14401.32
692.16	14146.20
692.30	14146.20
692.43	14284.29
692.57	14197.69
692.70	14258.54
692.84	14183.65
692.97	14040.87
693.11	14298.33
693.24	14050.24
693.38	14129.81
693.51	13923.85
693.65	13970.66
693.78	13776.39
693.92	14104.07
694.05	13909.80
694.19	13696.82
694.32	13554.04
694.45	13404.25
694.59	13514.25
694.72	13479.15
694.86	13209.98
694.99	13202.96
695.13	13142.11
695.26	13163.17
695.39	12884.65
695.53	13394.89
695.66	12982.95
695.80	12996.99
695.93	12952.52
696.07	13102.32
696.20	12886.99
696.33	12798.05
696.47	13046.15
696.60	12882.31
696.73	12812.09
696.87	12514.84
697.00	12435.27
697.14	12425.90
697.27	12475.06
697.40	12521.87
697.54	12503.14
697.67	12339.30
697.80	12135.68
697.94	12322.92
698.07	12116.95
698.21	12175.47
698.34	12070.14
698.47	12222.28
698.61	11997.59
698.74	11971.84
698.87	11913.33
699.01	11758.85
699.14	11831.41
699.27	11641.82
699.40	11707.36
699.54	11634.80
699.67	11595.01
699.80	11468.62
699.94	11555.22
700.07	11520.12
700.20	11524.80
700.34	11358.62
700.47	11173.72
700.60	11250.96
700.73	11159.67
700.87	11218.19
701.00	11243.93
701.13	11040.31
701.26	11211.17
701.40	11040.31
701.53	10881.15
701.66	11021.58
701.79	10937.32
701.93	10766.46
702.06	10581.56
702.19	10787.53
702.32	10494.96
702.46	10415.38
702.59	10623.69
702.72	10382.62
702.85	10450.49
702.99	10431.77
703.12	10391.98
703.25	10230.48
703.38	10410.70
703.51	10347.51
703.65	10277.29
703.78	10277.29
703.91	10164.95
704.04	10139.20
704.17	10335.81
704.31	10078.35
704.44	10050.26
704.57	9841.95
704.70	9834.93
704.83	9973.02
704.96	9699.18
705.10	9689.82
705.23	9593.86
>>>>>End Processed Spectral Data<<<<<
