SpectraSuite Data File
++++++++++++++++++++++++++++++++++++
Date: Fri Oct 18 13:58:41 GMT-05:00 2013
User: bianchi
Dark Spectrum Present: No
Reference Spectrum Present: No
Number of Sampled Component Spectra: 1
Spectrometers: USB2+H05261
Integration Time (usec): 50000 (USB2+H05261)
Spectra Averaged: 1 (USB2+H05261)
Boxcar Smoothing: 0 (USB2+H05261)
Correct for Electrical Dark: No (USB2+H05261)
Strobe/Lamp Enabled: No (USB2+H05261)
Correct for Detector Non-linearity: No (USB2+H05261)
Correct for Stray Light: No (USB2+H05261)
Number of Pixels in Processed Spectrum: 2048
>>>>>Begin Processed Spectral Data<<<<<
365.73	0.00
365.92	0.00
366.12	0.00
366.32	0.00
366.52	0.00
366.72	0.00
366.91	0.00
367.11	0.00
367.31	0.00
367.51	0.00
367.70	0.00
367.90	0.00
368.10	0.00
368.30	0.00
368.49	0.00
368.69	0.00
368.89	0.00
369.09	0.00
369.28	0.00
369.48	0.00
369.68	0.00
369.87	0.00
370.07	0.00
370.27	0.00
370.47	0.00
370.66	53.83
370.86	37.45
371.06	161.50
371.25	133.41
371.45	145.11
371.65	159.16
371.84	70.22
372.04	147.45
372.24	154.48
372.44	205.97
372.63	170.86
372.83	154.48
373.03	168.52
373.22	220.01
373.42	177.88
373.62	152.13
373.81	203.63
374.01	170.86
374.21	229.37
374.40	212.99
374.60	285.55
374.79	198.95
374.99	276.18
375.19	346.40
375.38	313.63
375.58	205.97
375.78	283.20
375.97	280.86
376.17	287.89
376.37	238.73
376.56	292.57
376.76	191.92
376.95	287.89
377.15	348.74
377.35	283.20
377.54	187.24
377.74	290.23
377.93	238.73
378.13	257.46
378.33	280.86
378.52	332.36
378.72	278.52
378.91	327.68
379.11	264.48
379.31	294.91
379.50	271.50
379.70	334.70
379.89	297.25
380.09	358.10
380.28	365.12
380.48	280.86
380.68	320.65
380.87	271.50
381.07	308.95
381.26	287.89
381.46	360.44
381.65	283.20
381.85	315.97
382.04	287.89
382.24	315.97
382.43	367.46
382.63	283.20
382.83	409.59
383.02	276.18
383.22	411.93
383.41	374.49
383.61	390.87
383.80	374.49
384.00	264.48
384.19	383.85
384.39	393.21
384.58	360.44
384.78	320.65
384.97	358.10
385.17	358.10
385.36	351.08
385.56	482.15
385.75	372.15
385.95	425.98
386.14	355.76
386.34	374.49
386.53	383.85
386.72	449.38
386.92	379.17
387.11	468.11
387.31	400.23
387.50	440.02
387.70	400.23
387.89	365.12
388.09	423.64
388.28	409.59
388.48	339.38
388.67	402.57
388.86	528.96
389.06	444.70
389.25	458.74
389.45	465.77
389.64	404.91
389.84	578.11
390.03	486.83
390.22	543.00
390.42	498.53
390.61	486.83
390.81	470.45
391.00	514.92
391.19	540.66
391.39	498.53
391.58	496.19
391.78	503.22
391.97	547.69
392.16	507.90
392.36	528.96
392.55	547.69
392.75	517.26
392.94	482.15
393.13	566.41
393.33	575.77
393.52	472.79
393.71	557.05
393.91	585.13
394.10	552.37
394.29	589.82
394.49	580.45
394.68	552.37
394.88	622.58
395.07	636.63
395.26	655.35
395.46	655.35
395.65	606.20
395.84	655.35
396.04	711.52
396.23	606.20
396.42	727.91
396.62	636.63
396.81	664.71
397.00	657.69
397.19	674.07
397.39	585.13
397.58	702.16
397.77	641.31
397.97	660.03
398.16	669.39
398.35	727.91
398.55	699.82
398.74	760.67
398.93	720.88
399.12	650.67
399.32	704.50
399.51	697.48
399.70	674.07
399.90	793.44
400.09	863.66
400.28	641.31
400.47	741.95
400.67	753.65
400.86	744.29
401.05	807.48
401.24	844.93
401.44	763.01
401.63	814.51
401.82	866.00
402.01	770.04
402.21	854.30
402.40	798.12
402.59	828.55
402.78	868.34
402.97	837.91
403.17	805.14
403.36	912.81
403.55	929.19
403.74	910.47
403.93	837.91
404.13	1029.84
404.32	926.85
404.51	896.43
404.70	851.96
404.89	866.00
405.09	908.13
405.28	1020.47
405.47	985.37
405.66	983.02
405.85	945.58
406.05	905.79
406.24	978.34
406.43	1029.84
406.62	1046.22
406.81	1104.73
407.00	961.96
407.20	1032.18
407.39	1032.18
407.58	1078.99
407.77	1086.01
407.96	1088.35
408.15	1022.81
408.34	1015.79
408.54	1144.52
408.73	1029.84
408.92	1062.60
409.11	1121.12
409.30	1156.22
409.49	1163.25
409.68	1107.07
409.87	1170.27
410.07	1184.31
410.26	1153.88
410.45	1135.16
410.64	1214.74
410.83	1214.74
411.02	1111.75
411.21	1334.11
411.40	1252.19
411.59	1254.53
411.78	1174.95
411.98	1284.95
412.17	1210.06
412.36	1245.16
412.55	1376.24
412.74	1355.17
412.93	1390.28
413.12	1334.11
413.31	1348.15
413.50	1406.66
413.69	1352.83
413.88	1441.77
414.07	1432.41
414.26	1413.68
414.45	1542.41
414.64	1533.05
414.83	1584.54
415.02	1486.24
415.22	1469.86
415.41	1614.97
415.60	1535.39
415.79	1589.22
415.98	1614.97
416.17	1596.25
416.36	1563.48
416.55	1605.61
416.74	1586.88
416.93	1610.29
417.12	1657.10
417.31	1762.42
417.50	1612.63
417.69	1736.68
417.88	1727.32
418.07	1741.36
418.26	1722.63
418.45	1647.74
418.64	1755.40
418.83	1795.19
419.02	1760.08
419.21	1701.57
419.39	1858.39
419.58	1755.40
419.77	1797.53
419.96	1823.28
420.15	1954.35
420.34	1802.21
420.53	1771.79
420.72	1923.92
420.91	1921.58
421.10	1907.54
421.29	2003.50
421.48	1949.67
421.67	1970.73
421.86	1856.04
422.05	1905.20
422.24	1961.37
422.43	1926.26
422.61	1926.26
422.80	2010.52
422.99	2045.63
423.18	1963.71
423.37	1998.82
423.56	1937.96
423.75	1998.82
423.94	1996.48
424.13	1937.96
424.32	1895.83
424.50	2012.86
424.69	2026.90
424.88	2080.74
425.07	2001.16
425.26	2019.88
425.45	1987.11
425.64	2015.20
425.83	2045.63
426.01	2036.27
426.20	2099.46
426.39	2050.31
426.58	1989.46
426.77	1947.33
426.96	2106.48
427.15	2073.71
427.33	2040.95
427.52	2069.03
427.71	2127.55
427.90	2204.78
428.09	2050.31
428.28	2214.15
428.46	2260.96
428.65	2242.23
428.84	2307.77
429.03	2289.04
429.22	2162.66
429.40	2331.17
429.59	2251.60
429.78	2076.06
429.97	2122.87
430.16	2221.17
430.34	2370.96
430.53	2326.49
430.72	2375.64
430.91	2232.87
431.10	2368.62
431.28	2387.35
431.47	2319.47
431.66	2410.75
431.85	2267.98
432.03	2459.90
432.22	2431.82
432.41	2363.94
432.60	2427.14
432.79	2441.18
432.97	2387.35
433.16	2504.37
433.35	2389.69
433.54	2452.88
433.72	2466.92
433.91	2471.61
434.10	2429.48
434.28	2509.05
434.47	2609.70
434.66	2445.86
434.85	2633.10
435.03	2523.10
435.22	2576.93
435.41	2724.38
435.59	2586.29
435.78	2630.76
435.97	2647.15
436.16	2752.47
436.34	2668.21
436.53	2640.12
436.72	2759.49
436.90	2635.44
437.09	2705.66
437.28	2656.51
437.46	2661.19
437.65	2731.41
437.84	2822.69
438.02	2825.03
438.21	2654.17
438.40	2712.68
438.58	2871.84
438.77	2740.77
438.96	2942.05
439.14	2836.73
439.33	2939.71
439.52	3030.99
439.70	3014.61
439.89	2970.14
440.08	3056.74
440.26	2956.10
440.45	3148.02
440.63	3012.27
440.82	3258.03
441.01	3019.29
441.19	3183.13
441.38	3229.94
441.57	3253.34
441.75	3232.28
441.94	3377.39
442.12	3218.24
442.31	3365.69
442.50	3159.72
442.68	3279.09
442.87	3286.11
443.05	3253.34
443.24	3300.16
443.43	3438.25
443.61	3286.11
443.80	3445.27
443.98	3375.05
444.17	3204.19
444.35	3349.31
444.54	3440.59
444.73	3335.26
444.91	3393.78
445.10	3449.95
445.28	3478.04
445.47	3398.46
445.65	3307.18
445.84	3403.14
446.02	3398.46
446.21	3487.40
446.39	3332.92
446.58	3606.77
446.77	3475.70
446.95	3335.26
447.14	3487.40
447.32	3646.55
447.51	3510.80
447.69	3559.95
447.88	3471.01
448.06	3475.70
448.25	3597.40
448.43	3597.40
448.62	3602.08
448.80	3564.64
448.99	3632.51
449.17	3618.47
449.36	3550.59
449.54	3620.81
449.73	3693.37
449.91	3805.71
450.10	3810.39
450.28	3658.26
450.46	3698.05
450.65	3695.71
450.83	3740.18
451.02	3536.55
451.20	3702.73
451.39	3765.92
451.57	3669.96
451.76	3796.35
451.94	3810.39
452.13	3915.72
452.31	3887.63
452.49	3730.81
452.68	3803.37
452.86	3857.20
453.05	3852.52
453.23	3798.69
453.42	3801.03
453.60	3868.91
453.78	3875.93
453.97	3976.57
454.15	3920.40
454.34	3976.57
454.52	4060.83
454.70	3896.99
454.89	3941.46
455.07	3992.95
455.26	3934.44
455.44	4175.52
455.62	4140.41
455.81	4121.68
455.99	4060.83
456.17	4163.81
456.36	4086.58
456.54	4184.88
456.73	4081.89
456.91	4311.27
457.09	4341.69
457.28	4379.14
457.46	4243.39
457.64	4491.49
457.83	4365.10
458.01	4297.22
458.19	4390.84
458.38	4191.90
458.56	4374.46
458.74	4531.28
458.93	4432.97
459.11	4327.65
459.29	4383.82
459.48	4440.00
459.66	4514.89
459.84	4676.39
460.03	4578.09
460.21	4521.92
460.39	4449.36
460.57	4470.42
460.76	4697.46
460.94	4477.44
461.12	4489.15
461.31	4557.02
461.49	4730.22
461.67	4564.04
461.85	4748.95
462.04	4695.11
462.22	4709.16
462.40	4617.88
462.59	4676.39
462.77	4772.35
462.95	4861.29
463.13	4772.35
463.32	4816.82
463.50	4774.69
463.68	4730.22
463.86	4931.51
464.05	4746.61
464.23	4865.97
464.41	4997.04
464.59	4861.29
464.78	5158.54
464.96	4952.57
465.14	4938.53
465.32	4938.53
465.50	4856.61
465.69	5004.07
465.87	4929.17
466.05	4971.30
466.23	5109.39
466.41	4973.64
466.60	5137.48
466.78	5188.97
466.96	5064.92
467.14	5170.24
467.32	5111.73
467.51	5135.14
467.69	4973.64
467.87	5132.79
468.05	5111.73
468.23	5235.78
468.41	5254.50
468.60	5151.52
468.78	5188.97
468.96	5137.48
469.14	5198.33
469.32	5430.04
469.50	5245.14
469.69	5217.05
469.87	5420.68
470.05	5355.15
470.23	5373.87
470.41	5289.61
470.59	5549.41
470.77	5233.44
470.95	5451.11
471.14	5523.66
471.32	5392.59
471.50	5650.05
471.68	5636.01
471.86	5523.66
472.04	5640.69
472.22	5638.35
472.40	5678.14
472.58	5626.65
472.77	5937.94
472.95	5570.48
473.13	5881.77
473.31	5640.69
473.49	5834.96
473.67	5736.65
473.85	5748.36
474.03	5987.09
474.21	6015.18
474.39	5898.15
474.57	6289.02
474.75	6083.05
474.93	6335.83
475.12	6171.99
475.30	6061.99
475.48	6260.93
475.66	6113.48
475.84	6054.97
476.02	6532.44
476.20	6338.17
476.38	6478.60
476.56	6499.67
476.74	6527.75
476.92	6525.41
477.10	6396.68
477.28	6654.14
477.46	6551.16
477.64	6717.34
477.82	6813.30
478.00	6897.56
478.18	6949.05
478.36	6834.36
478.54	7012.24
478.72	7098.84
478.90	7122.25
479.08	7014.59
479.26	7192.47
479.44	7267.36
479.62	7468.65
479.80	7447.58
479.98	7496.74
480.16	7552.91
480.34	7475.67
480.52	7503.76
480.70	7454.61
480.88	7644.19
481.06	7653.55
481.24	7744.83
481.41	7756.54
481.59	7915.69
481.77	7974.21
481.95	8182.51
482.13	8121.66
482.31	7859.52
482.49	8074.85
482.67	8266.77
482.85	8243.37
483.03	8390.82
483.21	8538.27
483.39	8615.51
483.57	8390.82
483.74	8606.15
483.92	8664.66
484.10	8580.40
484.28	8933.82
484.46	8872.97
484.64	9249.80
484.82	8877.65
485.00	9022.77
485.18	9163.20
485.35	9486.19
485.53	9310.65
485.71	9181.92
485.89	9650.03
486.07	9467.47
486.25	9600.88
486.43	9537.68
486.61	9516.62
486.78	9898.13
486.96	9731.95
487.14	10181.33
487.32	10066.64
487.50	10143.88
487.68	10141.54
487.85	10197.71
488.03	10408.36
488.21	10438.79
488.39	10513.69
488.57	10738.38
488.75	10602.63
488.92	10743.06
489.10	10876.47
489.28	10808.59
489.46	10792.21
489.64	11077.76
489.81	11248.61
489.99	11339.90
490.17	11246.27
490.35	11382.03
490.53	11445.22
490.70	11775.24
490.88	11599.70
491.06	11728.42
491.24	11805.66
491.41	11719.06
491.59	11831.41
491.77	11882.90
491.95	12224.62
492.13	12060.78
492.30	12325.26
492.48	12191.85
492.66	12287.81
492.84	12343.99
493.01	12559.31
493.19	12535.91
493.37	12699.75
493.54	12702.09
493.72	12912.74
493.90	12723.15
494.08	12919.76
494.25	13050.83
494.43	12933.80
494.61	13284.88
494.79	13448.72
494.96	13422.97
495.14	13373.82
495.32	13551.70
495.49	13586.81
495.67	13633.62
495.85	13706.18
496.02	13792.78
496.20	13685.11
496.38	13872.36
496.55	13949.59
496.73	14008.11
496.91	13837.25
497.09	14244.50
497.26	14164.92
497.44	14555.79
497.62	14181.31
497.79	14544.09
497.97	14410.68
498.14	14555.79
498.32	14714.95
498.50	14560.47
498.67	15009.86
498.85	14839.00
499.03	15005.17
499.20	15089.43
499.38	15087.09
499.56	15239.23
499.73	15356.25
499.91	15405.41
500.08	15243.91
500.26	15176.03
500.44	15330.51
500.61	15445.20
500.79	15487.32
500.97	15503.71
501.14	15749.46
501.32	15653.50
501.49	15833.72
501.67	15459.24
501.84	15974.16
502.02	15838.41
502.20	16044.37
502.37	15999.90
502.55	15969.48
502.72	15878.19
502.90	16250.34
503.07	16152.04
503.25	16287.79
503.43	16212.89
503.60	16603.76
503.78	16475.03
503.95	16709.08
504.13	16570.99
504.30	16629.51
504.48	16585.04
504.65	16458.65
504.83	16926.75
505.01	17013.35
505.18	17006.33
505.36	17097.61
505.53	16847.18
505.71	17277.83
505.88	17053.14
506.06	16957.18
506.23	17369.12
506.41	17174.85
506.58	17238.05
506.76	17305.92
506.93	17371.46
507.11	17371.46
507.28	17483.80
507.46	17556.36
507.63	17757.64
507.81	17703.81
507.98	17860.63
508.16	17628.92
508.33	17514.23
508.50	17783.39
508.68	17785.73
508.85	17905.10
509.03	18036.17
509.20	18038.51
509.38	18111.07
509.55	18501.93
509.73	18389.59
509.90	18221.07
510.08	18003.40
510.25	18473.85
510.42	18396.61
510.60	18340.44
510.77	18923.23
510.95	18780.46
511.12	18630.66
511.30	18696.20
511.47	18759.39
511.64	18565.13
511.82	19042.60
511.99	18993.45
512.17	19213.46
512.34	18871.74
512.51	19374.95
512.69	18897.49
512.86	19178.35
513.04	19321.12
513.21	19555.18
513.38	19403.04
513.56	19740.08
513.73	19250.91
513.90	19264.95
514.08	19391.34
514.25	19662.84
514.43	19625.39
514.60	19927.32
514.77	19852.42
514.95	20006.90
515.12	19576.24
515.29	19695.61
515.47	19896.89
515.64	20100.52
515.81	19939.02
515.99	20594.37
516.16	20362.66
516.33	20290.10
516.51	20226.91
516.68	20060.73
516.85	20299.47
517.03	20137.97
517.20	20362.66
517.37	20252.66
517.54	20549.90
517.72	20517.14
517.89	20622.46
518.06	20442.24
518.24	20702.04
518.41	20503.09
518.58	20386.07
518.75	20900.98
518.93	20741.83
519.10	21170.15
519.27	20912.69
519.45	20889.28
519.62	20992.26
519.79	20755.87
519.96	21057.80
520.14	20882.26
520.31	20900.98
520.48	21184.19
520.65	21097.59
520.83	21296.53
521.00	21399.52
521.17	21385.47
521.34	21436.97
521.52	21310.58
521.69	21404.20
521.86	21666.34
522.03	21561.02
522.20	21778.68
522.38	21865.28
522.55	21549.31
522.72	21617.19
522.89	21696.77
523.07	21710.81
523.24	21965.93
523.41	21841.88
523.58	21727.19
523.75	21830.18
523.92	21680.38
524.10	21715.49
524.27	21996.35
524.44	22314.67
524.61	22373.18
524.78	22441.06
524.96	22237.43
525.13	22073.59
525.30	22106.36
525.47	22497.23
525.64	22609.58
525.81	22789.80
525.98	23110.45
526.16	22836.61
526.33	22647.02
526.50	22558.08
526.67	22057.21
526.84	22827.24
527.01	22731.28
527.18	22806.18
527.36	23157.26
527.53	22860.01
527.70	23494.30
527.87	23421.74
528.04	22862.35
528.21	23131.51
528.38	23000.44
528.55	23494.30
528.72	23398.34
528.89	23372.59
529.07	23274.29
529.24	23255.56
529.41	23723.67
529.58	23564.51
529.75	23215.77
529.92	23379.61
530.09	23335.14
530.26	23756.44
530.43	23718.99
530.60	23468.55
530.77	23807.93
530.94	23836.02
531.11	23580.90
531.28	23704.95
531.46	23716.65
531.63	23927.30
531.80	24273.70
531.97	24180.07
532.14	23845.38
532.31	23917.93
532.48	24018.58
532.65	24156.67
532.82	23716.65
532.99	24217.52
533.16	24184.76
533.33	24093.47
533.50	24376.68
533.67	24173.05
533.84	24020.92
534.01	24250.29
534.18	24444.56
534.35	24425.83
534.52	24079.43
534.69	24517.11
534.86	24519.45
535.03	24325.19
535.20	24500.73
535.37	24659.88
535.54	24594.35
535.71	24833.08
535.88	24968.84
536.05	24676.27
536.22	25127.99
536.38	25099.90
536.55	24950.11
536.72	25111.61
536.89	24648.18
537.06	24947.77
537.23	24982.88
537.40	24840.11
537.57	25046.07
537.74	24879.89
537.91	25357.36
538.08	24868.19
538.25	25048.41
538.42	25015.65
538.59	25310.55
538.75	25221.61
538.92	25298.85
539.09	25481.41
539.26	25490.77
539.43	25207.57
539.60	25256.72
539.77	25366.73
539.94	25331.62
540.11	25565.67
540.28	25467.37
540.44	25493.12
540.61	25378.43
540.78	25418.22
540.95	25493.12
541.12	25446.30
541.29	25858.24
541.46	25710.78
541.62	25748.23
541.79	25757.60
541.96	25404.17
542.13	25773.98
542.30	25717.81
542.47	26120.38
542.63	25757.60
542.80	26026.76
542.97	26134.42
543.14	26534.65
543.31	25935.48
543.48	26001.01
543.64	26050.16
543.81	26103.99
543.98	26380.18
544.15	26316.98
544.32	26499.55
544.48	26771.05
544.65	26441.03
544.82	26132.08
544.99	26551.04
545.16	26536.99
545.32	26417.63
545.49	26536.99
545.66	27147.87
545.83	26628.27
546.00	26712.53
546.16	26635.30
546.33	26560.40
546.50	26408.26
546.67	26761.69
546.83	26529.97
547.00	26401.24
547.17	27175.96
547.34	26590.83
547.50	27218.09
547.67	27028.51
547.84	26850.63
548.00	27110.43
548.17	27236.81
548.34	27154.90
548.51	27513.00
548.67	27337.46
548.84	27358.52
549.01	26995.74
549.18	26852.97
549.34	27370.22
549.51	26988.72
549.68	27009.78
549.84	26981.70
550.01	27623.00
550.18	27180.64
550.34	27630.02
550.51	27241.50
550.68	27393.63
550.84	27346.82
551.01	27269.58
551.18	27285.97
551.34	26984.04
551.51	27395.97
551.68	27278.94
551.84	27580.87
552.01	27758.75
552.18	27775.14
552.34	27388.95
552.51	27707.26
552.68	27498.95
552.84	27817.27
553.01	27887.48
553.18	27768.12
553.34	27992.81
553.51	27550.45
553.67	27892.16
553.84	28189.41
554.01	27770.46
554.17	28046.64
554.34	27892.16
554.51	27824.29
554.67	27803.22
554.84	27826.63
555.00	27845.35
555.17	27835.99
555.33	28060.68
555.50	27946.00
555.67	27669.81
555.83	28250.27
556.00	28016.21
556.16	28266.65
556.33	28025.57
556.50	28416.44
556.66	28168.35
556.83	27957.70
556.99	28566.24
557.16	28533.47
557.32	28393.04
557.49	28243.24
557.65	27950.68
557.82	28231.54
557.98	27915.57
558.15	28306.44
558.32	28203.46
558.48	28388.36
558.65	28793.27
558.81	28577.94
558.98	28781.57
559.14	28694.97
559.31	28566.24
559.47	28306.44
559.64	28474.96
559.80	28533.47
559.97	28751.14
560.13	28386.02
560.30	28620.07
560.46	28414.10
560.63	28531.13
560.79	28751.14
560.96	28966.47
561.12	28596.67
561.29	28486.66
561.45	28409.42
561.61	28709.01
561.78	28872.85
561.94	28627.09
562.11	28772.21
562.27	28978.17
562.44	28905.62
562.60	28929.02
562.77	28835.40
562.93	28652.84
563.10	28910.30
563.26	28746.46
563.42	29303.51
563.59	28802.63
563.75	29160.73
563.92	29165.42
564.08	28716.03
564.24	28580.28
564.41	28814.34
564.57	28713.69
564.74	28877.53
564.90	28891.57
565.07	29134.99
565.23	28795.61
565.39	29156.05
565.56	29453.30
565.72	29237.97
565.88	28978.17
566.05	28954.77
566.21	28898.59
566.38	28872.85
566.54	28596.67
566.70	29390.11
566.87	29488.41
567.03	28961.79
567.19	29448.62
567.36	29134.99
567.52	29046.05
567.68	29235.63
567.85	28896.25
568.01	29287.12
568.17	28917.32
568.34	29202.86
568.50	29160.73
568.66	29085.84
568.83	29682.67
568.99	29156.05
569.15	29256.70
569.32	29268.40
569.48	29259.04
569.64	29252.02
569.81	29242.65
569.97	29207.55
570.13	29420.53
570.30	29324.57
570.46	29188.82
570.62	29333.93
570.78	29336.27
570.95	28936.04
571.11	29198.18
571.27	29376.06
571.43	28767.52
571.60	29483.73
571.76	29565.65
571.92	29560.97
572.09	29441.60
572.25	29752.89
572.41	29130.31
572.57	29418.19
572.74	29591.39
572.90	29610.12
573.06	29556.28
573.22	29493.09
573.38	29472.03
573.55	29298.83
573.71	29546.92
573.87	29869.92
574.03	29495.43
574.20	29350.32
574.36	29329.25
574.52	29621.82
574.68	29242.65
574.84	29525.86
575.01	29633.52
575.17	29603.10
575.33	29518.84
575.49	29385.43
575.65	29266.06
575.82	29542.24
575.98	29860.55
576.14	29663.95
576.30	29898.00
576.46	29504.79
576.62	29476.71
576.79	29628.84
576.95	29509.47
577.11	29617.14
577.27	29443.94
577.43	29666.29
577.59	29935.45
577.75	29958.86
577.92	29462.66
578.08	29455.64
578.24	29549.26
578.40	29689.70
578.56	29572.67
578.72	29982.26
578.88	29998.65
579.04	29998.65
579.21	30015.03
579.37	30010.35
579.53	29331.59
579.69	29425.22
579.85	29439.26
580.01	29443.94
580.17	29790.34
580.33	29731.83
580.49	29706.08
580.65	30031.41
580.82	29542.24
580.98	29556.28
581.14	30040.78
581.30	29706.08
581.46	29778.64
581.62	29406.49
581.78	29575.01
581.94	29600.76
582.10	29366.70
582.26	29820.77
582.42	29530.54
582.58	29565.65
582.74	29762.25
582.90	29825.45
583.06	29914.39
583.22	29191.16
583.38	29818.42
583.54	29401.81
583.70	29605.44
583.86	29933.11
584.02	30017.37
584.18	29635.86
584.34	30110.99
584.50	30139.08
584.66	29488.41
584.82	29378.40
584.98	29846.51
585.14	29656.93
585.30	29617.14
585.46	29673.31
585.62	29469.69
585.78	29909.71
585.94	29762.25
586.10	29984.60
586.26	29993.97
586.42	29816.08
586.58	29909.71
586.74	29624.16
586.90	29539.90
587.06	29542.24
587.22	29666.29
587.38	29881.62
587.54	30115.67
587.70	30209.29
587.86	29738.85
588.02	30047.80
588.18	30139.08
588.34	30171.85
588.49	29944.81
588.65	29539.90
588.81	29710.76
588.97	30129.72
589.13	29811.40
589.29	29710.76
589.45	29998.65
589.61	30120.35
589.77	30103.97
589.93	30150.78
590.08	30148.44
590.24	30403.56
590.40	30148.44
590.56	30309.94
590.72	29724.80
590.88	29902.68
591.04	30031.41
591.20	30354.41
591.35	30094.61
591.51	30569.74
591.67	30202.27
591.83	30291.21
591.99	30061.84
592.15	30333.34
592.31	30064.18
592.46	29944.81
592.62	30017.37
592.78	29727.14
592.94	30000.99
593.10	30087.59
593.26	30356.75
593.41	30225.68
593.57	30038.44
593.73	30148.44
593.89	30579.10
594.05	30279.51
594.20	29748.21
594.36	30391.86
594.52	30164.82
594.68	30057.16
594.84	30155.46
594.99	30277.17
595.15	30410.58
595.31	30426.96
595.47	30408.24
595.62	30686.76
595.78	29890.98
595.94	30354.41
596.10	30352.07
596.25	30263.13
596.41	29860.55
596.57	29853.53
596.73	30031.41
596.88	30499.52
597.04	30555.69
597.20	30246.74
597.36	30597.82
597.51	30394.20
597.67	30218.66
597.83	30192.91
597.99	30279.51
598.14	30115.67
598.30	29912.05
598.46	30305.26
598.61	30967.63
598.77	30326.32
598.93	30611.87
599.09	30614.21
599.24	30644.63
599.40	30773.36
599.56	30476.12
599.71	30972.31
599.87	30522.93
600.03	30452.71
600.18	30349.73
600.34	30487.82
600.50	30169.51
600.65	30361.43
600.81	30164.82
600.97	30419.94
601.12	30822.51
601.28	30574.42
601.44	30569.74
601.59	30384.83
601.75	30459.73
601.91	30569.74
602.06	30314.62
602.22	30354.41
602.37	30281.85
602.53	30476.12
602.69	30843.58
602.84	30286.53
603.00	30607.19
603.16	30593.14
603.31	30417.60
603.47	30546.33
603.62	30258.45
603.78	30319.30
603.94	30022.05
604.09	30426.96
604.25	30401.22
604.40	30403.56
604.56	30366.11
604.71	30597.82
604.87	30391.86
605.03	30338.02
605.18	30527.61
605.34	30576.76
605.49	29876.94
605.65	30291.21
605.80	29961.20
605.96	30480.80
606.12	30197.59
606.27	30515.90
606.43	30354.41
606.58	30590.80
606.74	30087.59
606.89	30319.30
607.05	30637.61
607.20	30082.91
607.36	30382.49
607.51	30408.24
607.67	30066.52
607.82	30092.27
607.98	30052.48
608.13	30326.32
608.29	30136.74
608.44	30106.31
608.60	30377.81
608.75	30635.27
608.91	30204.61
609.06	30019.71
609.22	30340.36
609.37	30125.04
609.53	30632.93
609.68	30244.40
609.84	30174.19
609.99	30448.03
610.15	30075.88
610.30	29886.30
610.46	29965.88
610.61	29970.56
610.76	30071.20
610.92	30064.18
611.07	30134.40
611.23	30286.53
611.38	29778.64
611.54	30242.06
611.69	29635.86
611.84	30031.41
612.00	29607.78
612.15	30286.53
612.31	30134.40
612.46	29998.65
612.62	30389.52
612.77	29975.24
612.92	30148.44
613.08	29855.87
613.23	30141.42
613.39	30005.67
613.54	29928.43
613.69	29769.27
613.85	29392.45
614.00	29596.07
614.15	30052.48
614.31	29722.46
614.46	29809.06
614.62	29841.83
614.77	30085.25
614.92	29752.89
615.08	29715.44
615.23	29811.40
615.38	29926.09
615.54	29567.99
615.69	29493.09
615.84	29528.20
616.00	29493.09
616.15	29596.07
616.30	30169.51
616.46	29661.61
616.61	29614.80
616.76	29750.55
616.92	29345.64
617.07	29759.91
617.22	29413.51
617.37	29235.63
617.53	29820.77
617.68	29362.02
617.83	29333.93
617.99	29703.74
618.14	29338.62
618.29	29462.66
618.45	29469.69
618.60	29174.78
618.75	29736.51
618.90	29465.00
619.06	29071.79
619.21	29268.40
619.36	29439.26
619.51	29736.51
619.67	28914.98
619.82	29263.72
619.97	28893.91
620.12	29120.95
620.28	29333.93
620.43	29310.53
620.58	29219.25
620.73	29378.40
620.89	29736.51
621.04	29483.73
621.19	29647.57
621.34	29282.44
621.49	29074.13
621.65	29027.32
621.80	29366.70
621.95	29057.75
622.10	28912.64
622.25	28968.81
622.41	28830.72
622.56	29015.62
622.71	28940.72
622.86	28929.02
623.01	29223.93
623.16	28929.02
623.32	28610.71
623.47	28774.55
623.62	28856.46
623.77	28910.30
623.92	28678.58
624.07	28912.64
624.23	28826.04
624.38	29233.29
624.53	28734.76
624.68	28929.02
624.83	28645.82
624.98	29071.79
625.13	28648.16
625.29	29020.30
625.44	28709.01
625.59	28645.82
625.74	28498.36
625.89	28584.96
626.04	28278.35
626.19	28507.72
626.34	28364.95
626.49	28388.36
626.65	28561.56
626.80	28765.18
626.95	28844.76
627.10	28346.23
627.25	28566.24
627.40	28252.61
627.55	28465.60
627.70	27852.38
627.85	28315.80
628.00	28238.56
628.15	28407.08
628.30	28067.70
628.45	28503.04
628.60	28369.63
628.76	28458.57
628.91	28320.48
629.06	28058.34
629.21	28081.75
629.36	28322.82
629.51	28224.52
629.66	28198.77
629.81	28231.54
629.96	28151.96
630.11	28067.70
630.26	28360.27
630.41	28006.85
630.56	28037.28
630.71	28081.75
630.86	27929.61
631.01	27960.04
631.16	28364.95
631.31	27953.02
631.46	27835.99
631.61	27852.38
631.76	28112.17
631.91	27765.78
632.06	27585.55
632.21	27798.54
632.36	27592.58
632.51	27564.49
632.66	27882.80
632.81	27597.26
632.96	27828.97
633.10	27845.35
633.25	28002.17
633.40	28013.87
633.55	27676.83
633.70	27459.16
633.85	27648.75
634.00	27803.22
634.15	27487.25
634.30	27573.85
634.45	27510.66
634.60	27335.12
634.75	27344.48
634.90	27285.97
635.05	27786.84
635.19	27543.42
635.34	27903.87
635.49	27615.98
635.64	27660.45
635.79	27522.36
635.94	27388.95
636.09	27789.18
636.24	27140.85
636.39	27138.51
636.53	27166.60
636.68	27239.15
636.83	27255.54
636.98	27545.76
637.13	27173.62
637.28	27332.78
637.43	27344.48
637.57	27648.75
637.72	27428.74
637.87	27386.61
638.02	27358.52
638.17	27384.27
638.32	26937.23
638.46	27082.34
638.61	27295.33
638.76	27084.68
638.91	27129.15
639.06	27105.74
639.20	27150.21
639.35	27349.16
639.50	27147.87
639.65	27580.87
639.80	27152.55
639.94	27206.39
640.09	26899.78
640.24	27037.87
640.39	26909.14
640.54	27016.80
640.68	27171.28
640.83	26955.95
640.98	26600.19
641.13	26558.06
641.27	26707.85
641.42	27002.76
641.57	27042.55
641.72	26834.24
641.86	26857.65
642.01	26937.23
642.16	26827.22
642.31	26820.20
642.45	27105.74
642.60	26377.84
642.75	26331.03
642.90	26532.31
643.04	26415.29
643.19	26593.17
643.34	26532.31
643.48	26422.31
643.63	26567.42
643.78	26480.82
643.93	26480.82
644.07	26789.77
644.22	26778.07
644.37	26469.12
644.51	26649.34
644.66	26382.52
644.81	26277.19
644.95	26274.85
645.10	26366.13
645.25	26698.49
645.39	25979.95
645.54	26167.19
645.69	26169.53
645.83	26628.27
645.98	26342.73
646.13	26441.03
646.27	26195.28
646.42	26108.68
646.57	26426.99
646.71	26490.18
646.86	26225.70
647.00	26001.01
647.15	26214.00
647.30	26050.16
647.44	26150.81
647.59	26197.62
647.74	25928.45
647.88	25891.01
648.03	26286.56
648.17	26181.23
648.32	26309.96
648.47	26281.88
648.61	26005.69
648.76	26064.21
648.90	26043.14
649.05	26410.60
649.20	25916.75
649.34	25984.63
649.49	25596.10
649.63	25771.64
649.78	25504.82
649.92	25394.81
650.07	25961.22
650.21	25998.67
650.36	26017.40
650.51	25825.47
650.65	25972.92
650.80	25696.74
650.94	25963.56
651.09	25568.01
651.23	25633.55
651.38	25553.97
651.52	25593.76
651.67	25825.47
651.81	25713.13
651.96	25659.29
652.10	25586.74
652.25	25844.20
652.39	25970.58
652.54	25675.68
652.68	25556.31
652.83	25839.51
652.97	25865.26
653.12	25869.94
653.26	25371.41
653.41	25439.28
653.55	25366.73
653.70	25120.97
653.84	25434.60
653.99	25556.31
654.13	25221.61
654.27	25542.27
654.42	25535.24
654.56	25481.41
654.71	25551.63
654.85	25565.67
655.00	25635.89
655.14	25172.46
655.29	25315.23
655.43	25675.68
655.57	25221.61
655.72	25165.44
655.86	25350.34
656.01	25139.69
656.15	25039.05
656.30	25085.86
656.44	25090.54
656.58	24952.45
656.73	25195.87
656.87	25120.97
657.01	24868.19
657.16	24940.75
657.30	25139.69
657.45	25443.96
657.59	25078.84
657.73	24680.95
657.88	25092.88
658.02	25083.52
658.16	24922.02
658.31	24858.83
658.45	24945.43
658.60	24680.95
658.74	24746.48
658.88	24531.15
659.03	24826.06
659.17	24769.89
659.31	24650.52
659.46	24788.61
659.60	24933.73
659.74	24479.66
659.89	24704.35
660.03	24690.31
660.17	24348.59
660.32	24329.87
660.46	24261.99
660.60	24372.00
660.74	24224.54
660.89	24049.00
661.03	23999.85
661.17	24484.34
661.32	24465.62
661.46	24294.76
661.60	24472.64
661.74	24271.36
661.89	24229.23
662.03	24189.44
662.17	24388.38
662.31	23550.47
662.46	24027.94
662.60	23854.74
662.74	24130.92
662.88	24084.11
663.03	23873.46
663.17	24154.33
663.31	23475.57
663.45	23768.14
663.60	23840.70
663.74	23796.23
663.88	23913.25
664.02	23894.53
664.17	24088.79
664.31	23557.49
664.45	23435.78
664.59	23686.22
664.73	23363.23
664.88	23711.97
665.02	23501.32
665.16	23339.82
665.30	23311.74
665.44	23311.74
665.59	23056.62
665.73	23552.81
665.87	23161.94
666.01	23398.34
666.15	23356.21
666.29	23321.10
666.44	23260.24
666.58	23108.11
666.72	22881.08
666.86	23157.26
667.00	23145.56
667.14	22897.46
667.28	22988.74
667.43	22815.54
667.57	22927.89
667.71	22913.84
667.85	22876.40
667.99	22965.34
668.13	23033.21
668.27	22944.27
668.41	22986.40
668.56	22700.86
668.70	22728.94
668.84	22864.69
668.98	22785.12
669.12	22719.58
669.26	22728.94
669.40	22686.81
669.54	22731.28
669.68	22494.89
669.82	22171.89
669.96	22537.02
670.10	22352.12
670.25	22181.26
670.39	22113.38
670.53	22228.07
670.67	21986.99
670.81	22181.26
670.95	21928.48
671.09	22146.15
671.23	22169.55
671.37	22277.22
671.51	22115.72
671.65	22202.32
671.79	22143.81
671.93	21914.44
672.07	21994.01
672.21	21661.66
672.35	21619.53
672.49	21621.87
672.63	21666.34
672.77	21731.87
672.91	21703.79
673.05	21420.58
673.19	21394.84
673.33	21385.47
673.47	21329.30
673.61	21436.97
673.75	21486.12
673.89	21467.39
674.03	21385.47
674.17	21366.75
674.31	21186.53
674.45	21352.71
674.59	21362.07
674.73	21043.76
674.87	20943.11
675.01	20704.38
675.15	20964.18
675.29	20585.01
675.43	20734.81
675.56	20886.94
675.70	20900.98
675.84	20624.80
675.98	20528.84
676.12	20961.84
676.26	20699.70
676.40	20865.88
676.54	20292.44
676.68	20456.28
676.82	20011.58
676.96	20236.27
677.10	20166.06
677.23	20081.80
677.37	20142.65
677.51	20308.83
677.65	20177.76
677.79	20002.22
677.93	19782.21
678.07	19829.02
678.21	19786.89
678.34	19793.91
678.48	19702.63
678.62	19562.20
678.76	19611.35
678.90	19513.05
679.04	19339.85
679.18	19585.60
679.31	19295.38
679.45	19297.72
679.59	18813.23
679.73	19131.54
679.87	19066.00
680.00	19051.96
680.14	18780.46
680.28	19119.84
680.42	18881.10
680.56	19007.49
680.70	18897.49
680.83	18871.74
680.97	18558.11
681.11	18771.10
681.25	18560.45
681.39	18441.08
681.52	18370.86
681.66	18476.19
681.80	18366.18
681.94	18200.01
682.07	18370.86
682.21	17998.72
682.35	17977.65
682.49	18064.25
682.62	18038.51
682.76	18045.53
682.90	18040.85
683.04	17893.40
683.17	17980.00
683.31	17909.78
683.45	17444.01
683.59	17797.43
683.72	17469.76
683.86	17645.30
684.00	17355.07
684.13	17432.31
684.27	17420.61
684.41	17348.05
684.55	17312.94
684.68	17036.76
684.82	16737.17
684.96	16727.81
685.09	17071.87
685.23	16870.58
685.37	17170.17
685.50	17158.47
685.64	16952.50
685.78	16903.35
685.91	17015.69
686.05	16624.83
686.19	16652.91
686.32	16709.08
686.46	16446.94
686.60	16594.40
686.73	16629.51
686.87	16496.10
687.01	16486.73
687.14	16128.63
687.28	16166.08
687.42	15992.88
687.55	16053.73
687.69	16046.71
687.82	16262.04
687.96	15838.41
688.10	15843.09
688.23	15761.17
688.37	15840.75
688.50	16042.03
688.64	15770.53
688.78	15812.66
688.91	15658.18
689.05	15403.07
689.18	15487.32
689.32	15255.61
689.46	15318.81
689.59	15241.57
689.73	15314.13
689.86	15140.93
690.00	15087.09
690.13	15206.46
690.27	15232.21
690.41	15241.57
690.54	14941.98
690.68	15115.18
690.81	15023.90
690.95	14824.95
691.08	14951.34
691.22	14864.74
691.35	14885.81
691.49	14750.06
691.62	14747.72
691.76	14342.80
691.89	14569.83
692.03	14537.07
692.16	14176.62
692.30	14342.80
692.43	14410.68
692.57	14370.89
692.70	14129.81
692.84	14155.56
692.97	13973.00
693.11	13900.44
693.24	14092.37
693.38	13783.41
693.51	13806.82
693.65	14050.24
693.78	13692.13
693.92	13680.43
694.05	13673.41
694.19	13376.16
694.32	13596.17
694.45	13404.25
694.59	13329.35
694.72	13083.59
694.86	13322.33
694.99	13067.21
695.13	13001.68
695.26	12886.99
695.39	12994.65
695.53	13303.60
695.66	12915.08
695.80	12940.82
695.93	13060.19
696.07	13071.89
696.20	12889.33
696.33	13128.06
696.47	12671.66
696.60	12650.60
696.73	12659.96
696.87	12573.36
697.00	12727.83
697.14	12290.15
697.27	12306.54
697.40	12430.59
697.54	12313.56
697.67	12271.43
697.80	12039.72
697.94	12147.38
698.07	11946.09
698.21	12093.55
698.34	12224.62
698.47	12147.38
698.61	11976.52
698.74	11957.80
698.87	12060.78
699.01	11719.06
699.14	11496.71
699.27	11800.98
699.40	11793.96
699.54	11758.85
699.67	11435.86
699.80	11587.99
699.94	11215.85
700.07	11325.85
700.20	11154.99
700.34	11150.31
700.47	10897.53
700.60	11400.75
700.73	11599.70
700.87	11412.45
701.00	10956.05
701.13	11066.05
701.26	11068.39
701.40	11276.70
701.53	10843.70
701.66	11014.56
701.79	10817.96
701.93	10832.00
702.06	10656.46
702.19	10665.82
702.32	10647.10
702.46	10565.18
702.59	10438.79
702.72	10424.75
702.85	10307.72
702.99	10370.91
703.12	10221.12
703.25	10267.93
703.38	10223.46
703.51	10270.27
703.65	10298.36
703.78	10052.60
703.91	10120.48
704.04	10101.75
704.17	10031.54
704.31	10153.24
704.44	9975.36
704.57	9813.87
704.70	9984.73
704.83	9757.69
704.96	9509.60
705.10	9603.22
705.23	9757.69
>>>>>End Processed Spectral Data<<<<<
