SpectraSuite Data File
++++++++++++++++++++++++++++++++++++
Date: Fri Oct 18 13:58:05 GMT-05:00 2013
User: bianchi
Dark Spectrum Present: No
Reference Spectrum Present: No
Number of Sampled Component Spectra: 1
Spectrometers: USB2+H05261
Integration Time (usec): 50000 (USB2+H05261)
Spectra Averaged: 1 (USB2+H05261)
Boxcar Smoothing: 0 (USB2+H05261)
Correct for Electrical Dark: No (USB2+H05261)
Strobe/Lamp Enabled: No (USB2+H05261)
Correct for Detector Non-linearity: No (USB2+H05261)
Correct for Stray Light: No (USB2+H05261)
Number of Pixels in Processed Spectrum: 2048
>>>>>Begin Processed Spectral Data<<<<<
365.73	0.00
365.92	0.00
366.12	0.00
366.32	0.00
366.52	0.00
366.72	0.00
366.91	0.00
367.11	0.00
367.31	0.00
367.51	0.00
367.70	0.00
367.90	0.00
368.10	0.00
368.30	0.00
368.49	0.00
368.69	0.00
368.89	0.00
369.09	0.00
369.28	0.00
369.48	0.00
369.68	0.00
369.87	0.00
370.07	0.00
370.27	0.00
370.47	0.00
370.66	42.13
370.86	100.64
371.06	105.32
371.25	180.22
371.45	121.71
371.65	180.22
371.84	166.18
372.04	159.16
372.24	161.50
372.44	173.20
372.63	236.39
372.83	215.33
373.03	229.37
373.22	238.73
373.42	269.16
373.62	276.18
373.81	191.92
374.01	245.76
374.21	189.58
374.40	224.69
374.60	278.52
374.79	292.57
374.99	243.42
375.19	276.18
375.38	294.91
375.58	280.86
375.78	250.44
375.97	269.16
376.17	259.80
376.37	290.23
376.56	301.93
376.76	229.37
376.95	297.25
377.15	290.23
377.35	330.02
377.54	337.04
377.74	320.65
377.93	337.04
378.13	299.59
378.33	222.35
378.52	283.20
378.72	339.38
378.91	330.02
379.11	299.59
379.31	304.27
379.50	304.27
379.70	315.97
379.89	322.99
380.09	280.86
380.28	262.14
380.48	297.25
380.68	367.46
380.87	280.86
381.07	287.89
381.26	367.46
381.46	308.95
381.65	273.84
381.85	390.87
382.04	400.23
382.24	374.49
382.43	311.29
382.63	311.29
382.83	304.27
383.02	348.74
383.22	341.72
383.41	472.79
383.61	388.53
383.80	362.78
384.00	358.10
384.19	390.87
384.39	411.93
384.58	330.02
384.78	351.08
384.97	360.44
385.17	341.72
385.36	421.30
385.56	444.70
385.75	334.70
385.95	456.40
386.14	346.40
386.34	447.04
386.53	407.25
386.72	428.32
386.92	374.49
387.11	411.93
387.31	315.97
387.50	411.93
387.70	507.90
387.89	489.17
388.09	449.38
388.28	482.15
388.48	421.30
388.67	435.34
388.86	442.36
389.06	461.09
389.25	442.36
389.45	458.74
389.64	437.68
389.84	545.34
390.03	575.77
390.22	482.15
390.42	484.49
390.61	454.06
390.81	437.68
391.00	475.13
391.19	475.13
391.39	507.90
391.58	477.47
391.78	547.69
391.97	543.00
392.16	578.11
392.36	587.47
392.55	521.94
392.75	545.34
392.94	617.90
393.13	561.73
393.33	514.92
393.52	578.11
393.71	627.26
393.91	615.56
394.10	587.47
394.29	676.41
394.49	578.11
394.68	594.50
394.88	617.90
395.07	681.10
395.26	662.37
395.46	697.48
395.65	528.96
395.84	645.99
396.04	777.06
396.23	636.63
396.42	606.20
396.62	842.59
396.81	716.20
397.00	683.44
397.19	737.27
397.39	690.46
397.58	739.61
397.77	660.03
397.97	650.67
398.16	699.82
398.35	709.18
398.55	767.70
398.74	812.17
398.93	741.95
399.12	716.20
399.32	730.25
399.51	720.88
399.70	753.65
399.90	830.89
400.09	788.76
400.28	786.42
400.47	699.82
400.67	781.74
400.86	837.91
401.05	823.87
401.24	753.65
401.44	791.10
401.63	866.00
401.82	795.78
402.01	840.25
402.21	826.21
402.40	823.87
402.59	873.02
402.78	929.19
402.97	866.00
403.17	945.58
403.36	805.14
403.55	922.17
403.74	973.66
403.93	912.81
404.13	973.66
404.32	961.96
404.51	915.15
404.70	957.28
404.89	950.26
405.09	992.39
405.28	987.71
405.47	1041.54
405.66	905.79
405.85	1071.97
406.05	985.37
406.24	1060.26
406.43	978.34
406.62	1071.97
406.81	1139.84
407.00	1036.86
407.20	1034.52
407.39	1144.52
407.58	1118.78
407.77	1069.62
407.96	1123.46
408.15	1118.78
408.34	1144.52
408.54	1074.31
408.73	1109.41
408.92	1149.20
409.11	1001.75
409.30	1170.27
409.49	1130.48
409.68	1259.21
409.87	1156.22
410.07	1184.31
410.26	1233.46
410.45	1186.65
410.64	1144.52
410.83	1306.02
411.02	1198.35
411.21	1249.85
411.40	1226.44
411.59	1198.35
411.78	1308.36
411.98	1315.38
412.17	1362.19
412.36	1362.19
412.55	1334.11
412.74	1406.66
412.93	1371.55
413.12	1371.55
413.31	1390.28
413.50	1511.99
413.69	1387.94
413.88	1434.75
414.07	1516.67
414.26	1521.35
414.45	1483.90
414.64	1511.99
414.83	1507.30
415.02	1551.78
415.22	1596.25
415.41	1598.59
415.60	1582.20
415.79	1561.14
415.98	1577.52
416.17	1687.53
416.36	1694.55
416.55	1706.25
416.74	1732.00
416.93	1694.55
417.12	1804.55
417.31	1668.80
417.50	1732.00
417.69	1860.73
417.88	1694.55
418.07	1858.39
418.26	1778.81
418.45	1724.97
418.64	1844.34
418.83	1909.88
419.02	1909.88
419.21	1961.37
419.39	1860.73
419.58	1830.30
419.77	1898.17
419.96	1947.33
420.15	1865.41
420.34	1823.28
420.53	1900.52
420.72	1970.73
420.91	1994.14
421.10	1973.07
421.29	2076.06
421.48	2076.06
421.67	2092.44
421.86	1940.30
422.05	1977.75
422.24	2015.20
422.43	2024.56
422.61	2076.06
422.80	2085.42
422.99	2062.01
423.18	2045.63
423.37	2118.18
423.56	1987.11
423.75	2064.35
423.94	1973.07
424.13	1970.73
424.32	2010.52
424.50	2012.86
424.69	2160.31
424.88	2125.21
425.07	1961.37
425.26	2019.88
425.45	2132.23
425.64	2045.63
425.83	2033.93
426.01	2160.31
426.20	2043.29
426.39	2085.42
426.58	2099.46
426.77	2087.76
426.96	2076.06
427.15	2090.10
427.33	2160.31
427.52	2162.66
427.71	2263.30
427.90	2167.34
428.09	2211.81
428.28	2134.57
428.46	2293.72
428.65	2221.17
428.84	2392.03
429.03	2347.56
429.22	2237.55
429.40	2267.98
429.59	2385.01
429.78	2162.66
429.97	2279.68
430.16	2258.62
430.34	2368.62
430.53	2356.92
430.72	2345.22
430.91	2399.05
431.10	2438.84
431.28	2399.05
431.47	2406.07
431.66	2450.54
431.85	2506.71
432.03	2427.14
432.22	2612.04
432.41	2469.27
432.60	2380.32
432.79	2523.10
432.97	2548.84
433.16	2459.90
433.35	2572.25
433.54	2579.27
433.72	2665.87
433.91	2555.86
434.10	2579.27
434.28	2586.29
434.47	2605.02
434.66	2558.21
434.85	2555.86
435.03	2581.61
435.22	2642.46
435.41	2679.91
435.59	2745.45
435.78	2719.70
435.97	2691.62
436.16	2712.68
436.34	2801.62
436.53	2799.28
436.72	2794.60
436.90	2853.11
437.09	2813.32
437.28	2785.24
437.46	2885.88
437.65	2855.45
437.84	2869.50
438.02	2932.69
438.21	2787.58
438.40	2803.96
438.58	2979.50
438.77	2963.12
438.96	2958.44
439.14	3009.93
439.33	2984.18
439.52	3052.06
439.70	3094.19
439.89	3194.83
440.08	3066.10
440.26	3101.21
440.45	3171.43
440.63	3119.93
440.82	3234.62
441.01	3176.11
441.19	3229.94
441.38	3356.33
441.57	3215.90
441.75	3361.01
441.94	3461.65
442.12	3346.97
442.31	3414.84
442.50	3449.95
442.68	3323.56
442.87	3353.99
443.05	3311.86
443.24	3442.93
443.43	3487.40
443.61	3428.88
443.80	3510.80
443.98	3412.50
444.17	3410.16
444.35	3480.38
444.54	3569.32
444.73	3578.68
444.91	3531.87
445.10	3508.46
445.28	3461.65
445.47	3552.93
445.65	3463.99
445.84	3574.00
446.02	3571.66
446.21	3513.14
446.39	3473.36
446.58	3592.72
446.77	3534.21
446.95	3559.95
447.14	3487.40
447.32	3641.87
447.51	3662.94
447.69	3719.11
447.88	3672.30
448.06	3702.73
448.25	3536.55
448.43	3592.72
448.62	3571.66
448.80	3707.41
448.99	3557.61
449.17	3719.11
449.36	3592.72
449.54	3831.46
449.73	3868.91
449.91	3840.82
450.10	3763.58
450.28	3882.95
450.46	3901.67
450.65	3836.14
450.83	3913.38
451.02	3831.46
451.20	3871.25
451.39	3880.61
451.57	3861.88
451.76	3896.99
451.94	3939.12
452.13	3957.85
452.31	3936.78
452.49	3929.76
452.68	4058.49
452.86	4002.32
453.05	3967.21
453.23	4030.40
453.42	3992.95
453.60	3974.23
453.78	4133.39
453.97	4056.15
454.15	4105.30
454.34	3978.91
454.52	4145.09
454.70	4042.11
454.89	4196.58
455.07	4215.30
455.26	4128.70
455.44	4292.54
455.62	4152.11
455.81	4170.83
455.99	4203.60
456.17	4264.46
456.36	4294.88
456.54	4294.88
456.73	4348.72
456.91	4447.02
457.09	4390.84
457.28	4550.00
457.46	4250.41
457.64	4486.81
457.83	4428.29
458.01	4395.53
458.19	4479.79
458.38	4318.29
458.56	4594.47
458.74	4519.57
458.93	4400.21
459.11	4643.62
459.29	4681.07
459.48	4493.83
459.66	4465.74
459.84	4580.43
460.03	4578.09
460.21	4814.48
460.39	4699.80
460.57	4711.50
460.76	4732.56
460.94	4652.98
461.12	4798.10
461.31	4791.08
461.49	4863.63
461.67	4709.16
461.85	5125.77
462.04	4795.76
462.22	5160.88
462.40	4966.62
462.59	4812.14
462.77	4880.02
462.95	4947.89
463.13	4847.25
463.32	4919.81
463.50	5015.77
463.68	4985.34
463.86	4889.38
464.05	5001.72
464.23	4926.83
464.41	4961.94
464.59	4957.25
464.78	5219.39
464.96	5036.83
465.14	5041.51
465.32	5142.16
465.50	5277.91
465.69	5298.97
465.87	5071.94
466.05	5057.90
466.23	5301.31
466.41	5177.26
466.60	5331.74
466.78	5200.67
466.96	5240.46
467.14	5331.74
467.32	5151.52
467.51	5411.32
467.69	5020.45
467.87	5242.80
468.05	5387.91
468.23	5392.59
468.41	5336.42
468.60	5362.17
468.78	5411.32
468.96	5275.57
469.14	5385.57
469.32	5628.99
469.50	5268.55
469.69	5469.83
469.87	5544.73
470.05	5605.58
470.23	5610.26
470.41	5713.25
470.59	5640.69
470.77	5675.80
470.95	5558.77
471.14	5776.44
471.32	5577.50
471.50	5647.71
471.68	5762.40
471.86	5774.10
472.04	5734.31
472.22	5863.04
472.40	5937.94
472.58	5907.51
472.77	5942.62
472.95	5996.45
473.13	6148.59
473.31	5895.81
473.49	6043.26
473.67	5949.64
473.85	6017.52
474.03	6054.97
474.21	5984.75
474.39	6211.78
474.57	6183.70
474.75	6340.51
474.93	6544.14
475.12	6289.02
475.30	6375.62
475.48	6392.00
475.66	6375.62
475.84	6359.24
476.02	6441.15
476.20	6537.12
476.38	6654.14
476.56	6644.78
476.74	6794.58
476.92	6609.67
477.10	6778.19
477.28	6862.45
477.46	6876.49
477.64	7059.06
477.82	6965.43
478.00	7101.19
478.18	7098.84
478.36	7190.13
478.54	7236.94
478.72	7314.17
478.90	7206.51
479.08	7412.48
479.26	7279.07
479.44	7529.50
479.62	7576.31
479.80	7557.59
479.98	7712.07
480.16	7817.39
480.34	7700.36
480.52	7662.91
480.70	7805.69
480.88	7812.71
481.06	7936.76
481.24	8035.06
481.41	8060.80
481.59	8163.79
481.77	8128.68
481.95	8198.90
482.13	8369.76
482.31	8400.18
482.49	8535.93
482.67	8400.18
482.85	8568.70
483.03	8674.03
483.21	8926.80
483.39	8777.01
483.57	8863.61
483.74	8720.84
483.92	9207.67
484.10	8999.36
484.28	9090.64
484.46	9324.69
484.64	9603.22
484.82	9343.42
485.00	9315.33
485.18	9729.61
485.35	9561.09
485.53	9713.22
485.71	9795.14
485.89	9745.99
486.07	9771.74
486.25	10003.45
486.43	9900.47
486.61	10216.44
486.78	10202.40
486.96	10139.20
487.14	10431.77
487.32	10209.42
487.50	10410.70
487.68	10473.90
487.85	10663.48
488.03	10553.48
488.21	10848.38
488.39	10820.30
488.57	10949.03
488.75	10761.78
488.92	11049.67
489.10	11276.70
489.28	11243.93
489.46	11836.09
489.64	11461.60
489.81	11637.14
489.99	11758.85
490.17	11964.82
490.35	11871.20
490.53	12023.33
490.70	11915.67
490.88	12135.68
491.06	12224.62
491.24	11943.75
491.41	12276.11
491.59	12306.54
491.77	12138.02
491.95	12390.80
492.13	12507.82
492.30	12655.28
492.48	12606.13
492.66	12802.73
492.84	12774.64
493.01	12762.94
493.19	13055.51
493.37	13137.43
493.54	13261.48
493.72	13270.84
493.90	13266.16
494.08	13238.07
494.25	13666.39
494.43	13589.15
494.61	13415.95
494.79	13813.84
494.96	13832.57
495.14	13694.47
495.32	13970.66
495.49	14125.13
495.67	14155.56
495.85	14246.84
496.02	14214.07
496.20	14235.14
496.38	14572.18
496.55	14616.65
496.73	14569.83
496.91	14572.18
497.09	14609.62
497.26	15014.54
497.44	14895.17
497.62	14672.82
497.79	14885.81
497.97	14899.85
498.14	15260.29
498.32	15232.21
498.50	15365.62
498.67	15496.69
498.85	15199.44
499.03	15625.42
499.20	15391.36
499.38	15477.96
499.56	15644.14
499.73	15410.09
499.91	15775.21
500.08	15875.85
500.26	15882.88
500.44	15882.88
500.61	15761.17
500.79	15903.94
500.97	15967.13
501.14	16208.21
501.32	16091.18
501.49	16184.80
501.67	16367.37
501.84	16566.31
502.02	16215.23
502.20	16479.71
502.37	16917.39
502.55	16783.98
502.72	16858.88
502.90	16842.50
503.07	16641.21
503.25	16690.36
503.43	17039.10
503.60	16772.28
503.78	16952.50
503.95	17048.46
504.13	17209.96
504.30	17245.07
504.48	16943.14
504.65	17493.16
504.83	17504.87
505.01	17832.54
505.18	17488.48
505.36	17561.04
505.53	17504.87
505.71	17710.83
505.88	17858.29
506.06	17584.44
506.23	17572.74
506.41	17837.22
506.58	18015.10
506.76	18054.89
506.93	18214.05
507.11	18061.91
507.28	18221.07
507.46	17928.50
507.63	18462.15
507.81	18492.57
507.98	18258.52
508.16	18225.75
508.33	18569.81
508.50	18590.88
508.68	18965.36
508.85	18820.25
509.03	18665.77
509.20	18616.62
509.38	19049.62
509.55	18937.27
509.73	18895.14
509.90	18888.12
510.08	18937.27
510.25	18679.82
510.42	19016.85
510.60	19199.41
510.77	19215.80
510.95	19204.10
511.12	19311.76
511.30	19447.51
511.47	19531.77
511.64	19421.77
511.82	19246.23
511.99	19517.73
512.17	19616.03
512.34	19587.94
512.51	19819.66
512.69	19850.08
512.86	19658.16
513.04	20091.16
513.21	20301.81
513.38	20210.53
513.56	20166.06
513.73	20189.46
513.90	20563.95
514.08	20189.46
514.25	20219.89
514.43	20453.94
514.60	20439.90
514.77	20376.70
514.95	20554.58
515.12	20294.79
515.29	20594.37
515.47	20648.21
515.64	20662.25
515.81	21020.35
515.99	21076.52
516.16	20954.82
516.33	20987.58
516.51	20856.51
516.68	20673.95
516.85	20947.79
517.03	21296.53
517.20	21371.43
517.37	21369.09
517.54	21167.80
517.72	21408.88
517.89	21078.86
518.06	21392.50
518.24	21612.51
518.41	21238.02
518.58	21429.94
518.75	21638.25
518.93	21614.85
519.10	21631.23
519.27	21900.39
519.45	21715.49
519.62	21961.25
519.79	21680.38
519.96	21736.56
520.14	22188.28
520.31	21771.66
520.48	22249.13
520.65	21984.65
520.83	21745.92
521.00	22347.44
521.17	22207.00
521.34	22068.91
521.52	22279.56
521.69	22700.86
521.86	22611.92
522.03	22450.42
522.20	22518.29
522.38	22452.76
522.55	22436.38
522.72	22319.35
522.89	22469.14
523.07	22785.12
523.24	22925.55
523.41	22761.71
523.58	22424.67
523.75	22848.31
523.92	22862.35
524.10	23035.55
524.27	22740.64
524.44	22937.25
524.61	23136.20
524.78	23236.84
524.96	23152.58
525.13	23339.82
525.30	23868.78
525.47	23262.58
525.64	23393.65
525.81	23447.49
525.98	23426.42
526.16	23508.34
526.33	23637.07
526.50	23866.44
526.67	23630.05
526.84	23683.88
527.01	23697.92
527.18	23566.85
527.36	23817.29
527.53	24023.26
527.70	24180.07
527.87	24210.50
528.04	23601.96
528.21	23906.23
528.38	24137.94
528.55	24458.60
528.72	24301.78
528.89	24315.83
529.07	24142.63
529.24	24374.34
529.41	24261.99
529.58	24528.81
529.75	24198.80
529.92	24280.72
530.09	24489.03
530.26	24364.98
530.43	24638.82
530.60	24683.29
530.77	24580.31
530.94	24535.84
531.11	24442.21
531.28	24470.30
531.46	24500.73
531.63	24760.53
531.80	24863.51
531.97	25242.68
532.14	25039.05
532.31	24716.06
532.48	25041.39
532.65	24870.53
532.82	24636.48
532.99	24973.52
533.16	25149.06
533.33	25069.48
533.50	25591.42
533.67	25151.40
533.84	24917.34
534.01	24989.90
534.18	25184.16
534.35	25500.14
534.52	25177.14
534.69	25539.93
534.86	25429.92
535.03	25427.58
535.20	25986.97
535.37	25481.41
535.54	25514.18
535.71	25291.83
535.88	25591.42
536.05	25394.81
536.22	25685.04
536.38	25621.84
536.55	25696.74
536.72	26237.41
536.89	25418.22
537.06	25605.46
537.23	26281.88
537.40	25991.65
537.57	26029.10
537.74	25921.43
537.91	26281.88
538.08	25968.24
538.25	26237.41
538.42	25738.87
538.59	26417.63
538.75	26211.66
538.92	26288.90
539.09	26211.66
539.26	26761.69
539.43	26567.42
539.60	26127.40
539.77	26546.36
539.94	26728.92
540.11	26331.03
540.28	26431.67
540.44	26412.95
540.61	26597.85
540.78	26277.19
540.95	26698.49
541.12	26490.18
541.29	26639.98
541.46	26775.73
541.62	26862.33
541.79	26867.01
541.96	26876.37
542.13	26801.47
542.30	26855.31
542.47	27178.30
542.63	27197.02
542.80	27388.95
542.97	27250.86
543.14	27140.85
543.31	27234.47
543.48	27405.33
543.64	27632.36
543.81	27367.88
543.98	27630.02
544.15	27374.91
544.32	27686.20
544.48	27517.68
544.65	27770.46
544.82	27463.85
544.99	27047.23
545.16	27630.02
545.32	27707.26
545.49	27934.29
545.66	27538.74
545.83	27934.29
546.00	27866.42
546.16	27824.29
546.33	27604.28
546.50	27803.22
546.67	27894.50
546.83	27534.06
547.00	27756.41
547.17	27590.24
547.34	27960.04
547.50	28027.92
547.67	28418.78
547.84	28058.34
548.00	28187.07
548.17	28154.30
548.34	27962.38
548.51	27962.38
548.67	28060.68
548.84	27920.25
549.01	28013.87
549.18	28297.08
549.34	28393.04
549.51	28631.77
549.68	27999.83
549.84	28510.07
550.01	28528.79
550.18	28247.93
550.34	28243.24
550.51	28954.77
550.68	28641.14
550.84	28465.60
551.01	28512.41
551.18	28407.08
551.34	28346.23
551.51	28573.26
551.68	28472.62
551.84	28690.29
552.01	28833.06
552.18	28561.56
552.34	28711.35
552.51	29202.86
552.68	28865.83
552.84	28718.37
553.01	28905.62
553.18	29017.96
553.34	29069.45
553.51	28776.89
553.67	29247.33
553.84	29277.76
554.01	29198.18
554.17	29144.35
554.34	29165.42
554.51	29139.67
554.67	29310.53
554.84	29127.97
555.00	29041.37
555.17	28875.19
555.33	28737.10
555.50	29242.65
555.67	29259.04
555.83	28957.11
556.00	29677.99
556.16	29322.23
556.33	29240.31
556.50	29209.89
556.66	29504.79
556.83	29205.20
556.99	29474.37
557.16	29797.36
557.32	29357.34
557.49	29322.23
557.65	29198.18
557.82	29462.66
557.98	28985.19
558.15	29355.00
558.32	29738.85
558.48	29462.66
558.65	29846.51
558.81	29254.36
558.98	29495.43
559.14	29481.39
559.31	29963.54
559.47	29694.38
559.64	30148.44
559.80	30197.59
559.97	30134.40
560.13	29619.48
560.30	29610.12
560.46	30146.10
560.63	29823.11
560.79	29759.91
560.96	30012.69
561.12	29806.72
561.29	29846.51
561.45	29933.11
561.61	29982.26
561.78	29713.10
561.94	30160.14
562.11	30340.36
562.27	30228.02
562.44	29968.22
562.60	30050.14
562.77	30377.81
562.93	30073.54
563.10	29780.98
563.26	30595.48
563.42	30265.47
563.59	30043.12
563.75	30160.14
563.92	30558.03
564.08	30389.52
564.24	30136.74
564.41	30314.62
564.57	30040.78
564.74	29940.13
564.90	30239.72
565.07	30199.93
565.23	30157.80
565.39	30270.15
565.56	30595.48
565.72	30242.06
565.88	30129.72
566.05	29715.44
566.21	30103.97
566.38	30574.42
566.54	30239.72
566.70	30408.24
566.87	30480.80
567.03	30295.89
567.19	30789.75
567.36	30302.92
567.52	30534.63
567.68	30672.72
567.85	30221.00
568.01	30675.06
568.17	30670.38
568.34	30888.05
568.50	30501.86
568.66	30822.51
568.83	30462.07
568.99	30836.56
569.15	30787.41
569.32	30618.89
569.48	30466.75
569.64	30426.96
569.81	30506.54
569.97	30946.56
570.13	30527.61
570.30	30696.13
570.46	31056.57
570.62	30501.86
570.78	30342.70
570.95	30424.62
571.11	30611.87
571.27	30396.54
571.43	30553.35
571.60	30611.87
571.76	30609.53
571.92	30756.98
572.09	30902.09
572.25	30675.06
572.41	30726.55
572.57	30441.01
572.74	31325.73
572.90	30686.76
573.06	30696.13
573.22	30583.78
573.38	30595.48
573.55	30651.66
573.71	31253.17
573.87	31028.48
574.03	30780.39
574.20	30857.62
574.36	30579.10
574.52	31192.32
574.68	30543.99
574.84	30759.32
575.01	30518.25
575.17	31002.74
575.33	30609.53
575.49	30998.06
575.65	31110.40
575.82	31136.15
575.98	31346.79
576.14	31030.82
576.30	30824.86
576.46	30532.29
576.62	30974.65
576.79	30974.65
576.95	30948.90
577.11	31332.75
577.27	31056.57
577.43	31117.42
577.59	31344.45
577.75	30895.07
577.92	30314.62
578.08	30703.15
578.24	30981.67
578.40	30918.48
578.56	30845.92
578.72	31007.42
578.88	31253.17
579.04	31166.57
579.21	31220.41
579.37	31051.89
579.53	30890.39
579.69	31091.68
579.85	31129.12
580.01	30682.08
580.17	31260.20
580.33	30930.18
580.49	31290.62
580.65	31360.84
580.82	30927.84
580.98	31288.28
581.14	31079.97
581.30	31243.81
581.46	31227.43
581.62	31257.85
581.78	31061.25
581.94	31164.23
582.10	31037.84
582.26	30911.46
582.42	30827.20
582.58	31461.48
582.74	31012.10
582.90	31342.11
583.06	30923.16
583.22	31175.94
583.38	31428.71
583.54	30904.43
583.70	31285.94
583.86	31150.19
584.02	30960.61
584.18	31276.58
584.34	31019.12
584.50	31419.35
584.66	31236.79
584.82	30813.15
584.98	31276.58
585.14	31112.74
585.30	30895.07
585.46	31000.40
585.62	31302.32
585.78	31281.26
585.94	31049.55
586.10	31150.19
586.26	31157.21
586.42	31424.03
586.58	31077.63
586.74	31009.76
586.90	31040.18
587.06	30897.41
587.22	31147.85
587.38	31068.27
587.54	31768.09
587.70	31227.43
587.86	31503.61
588.02	31482.55
588.18	31756.39
588.34	31337.43
588.49	31452.12
588.65	30969.97
588.81	31103.38
588.97	30937.20
589.13	31101.04
589.29	31339.77
589.45	31433.39
589.61	31274.24
589.77	31402.97
589.93	31756.39
590.08	31393.61
590.24	31669.79
590.40	31587.87
590.56	31468.50
590.72	31531.70
590.88	31161.89
591.04	31686.17
591.20	31580.85
591.35	31608.93
591.51	31737.66
591.67	31875.76
591.83	31894.48
591.99	31709.58
592.15	31555.10
592.31	31791.50
592.46	31232.11
592.62	31597.23
592.78	31405.31
592.94	31599.57
593.10	31407.65
593.26	31840.65
593.41	31634.68
593.57	31356.16
593.73	31503.61
593.89	31613.62
594.05	31646.38
594.20	31716.60
594.36	31676.81
594.52	31648.72
594.68	31686.17
594.84	31253.17
594.99	31658.09
595.15	31414.67
595.31	31934.27
595.47	32297.05
595.62	31967.04
595.78	31742.35
595.94	31744.69
596.10	31599.57
596.25	31648.72
596.41	31213.38
596.57	31604.25
596.73	31538.72
596.88	31358.50
597.04	31878.10
597.20	32004.49
597.36	31892.14
597.51	32524.08
597.67	31732.98
597.83	31655.75
597.99	31758.73
598.14	31562.12
598.30	31552.76
598.46	31906.18
598.61	31833.63
598.77	31487.23
598.93	31810.22
599.09	31517.65
599.24	31934.27
599.40	31835.97
599.56	31873.42
599.71	31688.51
599.87	31587.87
600.03	31868.73
600.18	31852.35
600.34	31693.19
600.50	31627.66
600.65	31667.45
600.81	32299.39
600.97	32177.68
601.12	32453.87
601.28	31639.36
601.44	32004.49
601.59	32095.77
601.75	31688.51
601.91	31775.11
602.06	32037.25
602.22	31948.31
602.37	31852.35
602.53	31969.38
602.69	31878.10
602.84	31660.43
603.00	32205.77
603.16	31988.10
603.31	31847.67
603.47	31681.49
603.62	32259.60
603.78	31695.53
603.94	31831.29
604.09	31913.20
604.25	31875.76
604.40	31868.73
604.56	31831.29
604.71	31826.60
604.87	31740.00
605.03	31924.91
605.18	32306.41
605.34	31889.80
605.49	31665.11
605.65	31723.62
605.80	31651.06
605.96	31756.39
606.12	32266.63
606.27	31950.65
606.43	31604.25
606.58	31868.73
606.74	32020.87
606.89	31901.50
607.05	31971.72
607.20	32154.28
607.36	31828.95
607.51	32081.72
607.67	31407.65
607.82	32070.02
607.98	31559.78
608.13	31604.25
608.29	31290.62
608.44	31307.01
608.60	32027.89
608.75	32004.49
608.91	32100.45
609.06	31761.07
609.22	31866.39
609.37	31374.88
609.53	31501.27
609.68	31534.04
609.84	31852.35
609.99	31271.90
610.15	31747.03
610.30	31463.82
610.46	31768.09
610.61	31641.70
610.76	31835.97
610.92	31571.49
611.07	31548.08
611.23	31754.05
611.38	31288.28
611.54	31536.38
611.69	31428.71
611.84	31349.14
612.00	31447.44
612.15	31440.42
612.31	31725.96
612.46	31814.90
612.62	31601.91
612.77	31407.65
612.92	31384.24
613.08	31164.23
613.23	31491.91
613.39	31189.98
613.54	30948.90
613.69	31388.92
613.85	31360.84
614.00	31201.68
614.15	31468.50
614.31	31402.97
614.46	31470.84
614.62	31110.40
614.77	31402.97
614.92	31250.83
615.08	31276.58
615.23	31592.55
615.38	31103.38
615.54	30955.93
615.69	31253.17
615.84	31143.17
616.00	31304.67
616.15	31054.23
616.30	30913.80
616.46	30939.54
616.61	31307.01
616.76	31129.12
616.92	31257.85
617.07	31087.00
617.22	31166.57
617.37	31030.82
617.53	30902.09
617.68	30939.54
617.83	31044.87
617.99	30759.32
618.14	30874.01
618.29	31145.51
618.45	31206.36
618.60	31152.53
618.75	31065.93
618.90	30817.83
619.06	30892.73
619.21	30574.42
619.36	30939.54
619.51	30508.88
619.67	30726.55
619.82	30377.81
619.97	30487.82
620.12	30494.84
620.28	30450.37
620.43	30450.37
620.58	30941.88
620.73	30906.77
620.89	30529.95
621.04	30888.05
621.19	30712.51
621.34	30911.46
621.49	30644.63
621.65	30333.34
621.80	31005.08
621.95	30469.09
622.10	30707.83
622.25	30590.80
622.41	30235.04
622.56	30452.71
622.71	30384.83
622.86	30518.25
623.01	30768.68
623.16	30464.41
623.32	30405.90
623.47	30190.57
623.62	30429.30
623.77	30345.05
623.92	30003.33
624.07	30202.27
624.23	30476.12
624.38	30277.17
624.53	30010.35
624.68	30532.29
624.83	30478.46
624.98	29982.26
625.13	30026.73
625.29	30127.38
625.44	30391.86
625.59	29839.49
625.74	30209.29
625.89	29720.12
626.04	29860.55
626.19	30052.48
626.34	30096.95
626.49	29802.04
626.65	29558.63
626.80	30375.47
626.95	29706.08
627.10	29706.08
627.25	30085.25
627.40	29600.76
627.55	29837.15
627.70	30068.86
627.85	29848.85
628.00	29682.67
628.15	29621.82
628.30	30038.44
628.45	29832.47
628.60	29144.35
628.76	29570.33
628.91	29701.40
629.06	29883.96
629.21	29944.81
629.36	29869.92
629.51	29986.94
629.66	29497.77
629.81	29563.31
629.96	29642.88
630.11	29757.57
630.26	29722.46
630.41	29305.85
630.56	29186.48
630.71	29647.57
630.86	29420.53
631.01	29621.82
631.16	29551.60
631.31	29305.85
631.46	29406.49
631.61	29631.18
631.76	29509.47
631.91	29495.43
632.06	29008.60
632.21	29511.81
632.36	29226.27
632.51	29259.04
632.66	29036.69
632.81	29289.46
632.96	29053.07
633.10	29544.58
633.25	29163.08
633.40	29366.70
633.55	29521.18
633.70	29034.35
633.85	28521.77
634.00	29177.12
634.15	28900.94
634.30	29193.50
634.45	29022.64
634.60	28863.49
634.75	28933.70
634.90	28659.86
635.05	28683.27
635.19	29134.99
635.34	29097.54
635.49	29216.91
635.64	28877.53
635.79	28907.96
635.94	28503.04
636.09	29078.82
636.24	28840.08
636.39	28491.34
636.53	28608.37
636.68	28816.68
636.83	29287.12
636.98	29048.39
637.13	28842.42
637.28	28903.28
637.43	28940.72
637.57	29022.64
637.72	28678.58
637.87	28755.82
638.02	28741.78
638.17	28596.67
638.32	28608.37
638.46	28500.70
638.61	28538.15
638.76	28353.25
638.91	28673.90
639.06	28320.48
639.20	28547.51
639.35	28666.88
639.50	28491.34
639.65	28776.89
639.80	28748.80
639.94	28442.19
640.09	28191.75
640.24	28638.80
640.39	28652.84
640.54	28072.39
640.68	28442.19
640.83	28407.08
640.98	28446.87
641.13	27981.10
641.27	28535.81
641.42	27761.09
641.57	28285.37
641.72	28655.18
641.86	28481.98
642.01	28156.64
642.16	27978.76
642.31	27903.87
642.45	28224.52
642.60	28126.22
642.75	28151.96
642.90	28084.09
643.04	27978.76
643.19	27768.12
643.34	28402.40
643.48	27702.58
643.63	28229.20
643.78	28198.77
643.93	28034.94
644.07	27852.38
644.22	28161.33
644.37	27723.65
644.51	28325.16
644.66	27452.14
644.81	27871.10
644.95	27793.86
645.10	27868.76
645.25	27725.99
645.39	27442.78
645.54	27414.69
645.69	27679.18
645.83	27438.10
645.98	27934.29
646.13	27737.69
646.27	27833.65
646.42	28048.98
646.57	27857.06
646.71	27796.20
646.86	27442.78
647.00	27297.67
647.15	27321.07
647.30	27140.85
647.44	27449.80
647.59	27529.38
647.74	27435.76
647.88	27662.79
648.03	27498.95
648.17	27700.24
648.32	27845.35
648.47	27534.06
648.61	27634.71
648.76	27840.67
648.90	27227.45
649.05	27566.83
649.20	27040.21
649.34	27056.59
649.49	27314.05
649.63	27129.15
649.78	26757.00
649.92	27222.77
650.07	27346.82
650.21	27402.99
650.36	27264.90
650.51	26979.36
650.65	27285.97
650.80	27456.82
650.94	27295.33
651.09	27070.64
651.23	27007.44
651.38	27051.91
651.52	27190.00
651.67	27103.40
651.81	26838.92
651.96	26637.64
652.10	27009.78
652.25	26831.90
652.39	27267.24
652.54	27353.84
652.68	26937.23
652.83	26944.25
652.97	27143.19
653.12	27515.34
653.26	26909.14
653.41	26923.18
653.55	27384.27
653.70	27014.46
653.84	26628.27
653.99	26663.38
654.13	26948.93
654.27	26867.01
654.42	26642.32
654.56	26780.41
654.71	26787.43
654.85	26834.24
655.00	26799.13
655.14	26834.24
655.29	26712.53
655.43	26740.62
655.57	26338.05
655.72	26597.85
655.86	26513.59
656.01	26380.18
656.15	26436.35
656.30	26043.14
656.44	26518.27
656.58	26295.92
656.73	26450.39
656.87	26190.59
657.01	26263.15
657.16	26209.32
657.30	26277.19
657.45	26265.49
657.59	26305.28
657.73	26361.45
657.88	26352.09
658.02	26218.68
658.16	26583.80
658.31	26338.05
658.45	26136.76
658.60	26099.31
658.74	25947.18
658.88	26078.25
659.03	26253.79
659.17	26092.29
659.31	26307.62
659.46	25949.52
659.60	26237.41
659.74	26066.55
659.89	26176.55
660.03	25766.96
660.17	26132.08
660.32	25551.63
660.46	25832.49
660.60	25689.72
660.74	25654.61
660.89	25701.42
661.03	25469.71
661.17	25504.82
661.32	25860.58
661.46	25532.90
661.60	25797.38
661.74	25621.84
661.89	25500.14
662.03	25439.28
662.17	25427.58
662.31	25649.93
662.46	25692.06
662.60	25156.08
662.74	25338.64
662.88	25139.69
663.03	25436.94
663.17	25245.02
663.31	24917.34
663.45	24975.86
663.60	25207.57
663.74	25125.65
663.88	25291.83
664.02	24966.49
664.17	25245.02
664.31	25039.05
664.45	25046.07
664.59	25067.14
664.73	24812.02
664.88	25067.14
665.02	24687.97
665.16	24634.14
665.30	24568.60
665.44	24856.49
665.59	24528.81
665.73	24692.65
665.87	24184.76
666.01	24510.09
666.15	24769.89
666.29	24512.43
666.44	24442.21
666.58	24556.90
666.72	24423.49
666.86	24063.05
667.00	24517.11
667.14	24409.45
667.28	24538.18
667.43	24631.80
667.57	24112.20
667.71	24203.48
667.85	24173.05
667.99	24088.79
668.13	24215.18
668.27	23786.86
668.41	23871.12
668.56	24023.26
668.70	23840.70
668.84	23969.43
668.98	23751.76
669.12	23632.39
669.26	24034.96
669.40	24018.58
669.54	23962.40
669.68	23721.33
669.82	23328.12
669.96	23360.89
670.10	23421.74
670.25	23522.38
670.39	23407.70
670.53	23648.77
670.67	23442.81
670.81	23225.14
670.95	23257.90
671.09	23246.20
671.23	23398.34
671.37	23508.34
671.51	23426.42
671.65	23398.34
671.79	23232.16
671.93	23129.17
672.07	23260.24
672.21	22960.66
672.35	22567.45
672.49	22836.61
672.63	22677.45
672.77	22445.74
672.91	22780.43
673.05	22696.17
673.19	22778.09
673.33	22986.40
673.47	22600.21
673.61	22726.60
673.75	22661.07
673.89	22731.28
674.03	22572.13
674.17	22576.81
674.31	22317.01
674.45	22256.15
674.59	22452.76
674.73	22188.28
674.87	22111.04
675.01	21926.14
675.15	21778.68
675.29	21853.58
675.43	22195.30
675.56	21750.60
675.70	21961.25
675.84	22218.71
675.98	21799.75
676.12	22223.39
676.26	22288.92
676.40	21795.07
676.54	21462.71
676.68	21741.24
676.82	21053.12
676.96	21317.60
677.10	21434.63
677.23	21259.09
677.37	21387.82
677.51	21050.78
677.65	21177.17
677.79	21097.59
677.93	21111.63
678.07	20755.87
678.21	20908.01
678.34	20617.78
678.48	20800.34
678.62	20788.64
678.76	20615.44
678.90	20627.14
679.04	20744.17
679.18	20524.16
679.31	20379.04
679.45	20149.67
679.59	20189.46
679.73	20093.50
679.87	20112.22
680.00	19894.55
680.14	20215.21
680.28	19922.64
680.42	20020.94
680.56	20182.44
680.70	20201.16
680.83	19740.08
680.97	19960.09
681.11	19679.22
681.25	19782.21
681.39	19318.78
681.52	19613.69
681.66	19482.62
681.80	19475.60
681.94	19311.76
682.07	19173.67
682.21	19126.86
682.35	19225.16
682.49	19164.31
682.62	19112.81
682.76	19047.28
682.90	19016.85
683.04	19021.53
683.17	18738.33
683.31	18939.62
683.45	18890.46
683.59	18733.65
683.72	18689.18
683.86	18876.42
684.00	18602.58
684.13	18478.53
684.27	18436.40
684.41	18567.47
684.55	18317.03
684.68	18162.56
684.82	18148.51
684.96	17996.38
685.09	18150.85
685.23	17839.56
685.37	18136.81
685.50	18059.57
685.64	18094.68
685.78	17734.24
685.91	18190.64
686.05	17867.65
686.19	17958.93
686.32	17687.43
686.46	17511.89
686.60	17453.37
686.73	17364.43
686.87	17233.36
687.01	17586.79
687.14	17261.45
687.28	16924.41
687.42	16954.84
687.55	17177.19
687.69	17111.66
687.82	17128.04
687.96	16992.29
688.10	16917.39
688.23	16807.39
688.37	16758.24
688.50	16872.92
688.64	16776.96
688.78	16774.62
688.91	16554.61
689.05	16437.58
689.18	16437.58
689.32	16147.36
689.46	15967.13
689.59	16145.02
689.73	16358.00
689.86	16145.02
690.00	16091.18
690.13	16215.23
690.27	15665.21
690.41	16093.52
690.54	15812.66
690.68	15964.79
690.81	15889.90
690.95	15826.70
691.08	15592.65
691.22	15751.81
691.35	15681.59
691.49	15494.35
691.62	15737.76
691.76	15550.52
691.89	15239.23
692.03	15379.66
692.16	14904.53
692.30	15215.82
692.43	15272.00
692.57	14881.13
692.70	14902.19
692.84	15016.88
692.97	14731.33
693.11	14731.33
693.24	14878.79
693.38	14665.80
693.51	14689.20
693.65	14855.38
693.78	14698.56
693.92	14651.75
694.05	14506.64
694.19	14473.87
694.32	14434.08
694.45	14155.56
694.59	14111.09
694.72	14106.41
694.86	14090.02
694.99	13816.18
695.13	14171.94
695.26	13841.93
695.39	13699.16
695.53	13685.11
695.66	13895.76
695.80	13956.61
695.93	13813.84
696.07	13858.31
696.20	13860.65
696.33	13565.74
696.47	13507.23
696.60	13584.47
696.73	13607.87
696.87	13565.74
697.00	13284.88
697.14	13209.98
697.27	13032.10
697.40	13156.15
697.54	12978.27
697.67	12886.99
697.80	12849.54
697.94	12908.05
698.07	12723.15
698.21	12627.19
698.34	12849.54
698.47	12994.65
698.61	12833.16
698.74	12648.26
698.87	12444.63
699.01	12346.33
699.14	12498.46
699.27	12671.66
699.40	12416.54
699.54	12421.22
699.67	12329.94
699.80	12224.62
699.94	11910.99
700.07	12233.98
700.20	11988.22
700.34	12166.10
700.47	12011.63
700.60	11995.25
700.73	11906.31
700.87	11992.90
701.00	11569.27
701.13	11655.87
701.26	11517.78
701.40	11698.00
701.53	11660.55
701.66	11686.29
701.79	11431.18
701.93	11290.74
702.06	11412.45
702.19	11119.89
702.32	11283.72
702.46	11190.10
702.59	11028.60
702.72	10967.75
702.85	10920.94
702.99	10869.45
703.12	10803.91
703.25	10871.79
703.38	10878.81
703.51	10752.42
703.65	10747.74
703.78	10736.04
703.91	10611.99
704.04	10827.32
704.17	10775.83
704.31	10560.50
704.44	10527.73
704.57	10649.44
704.70	10452.83
704.83	10387.30
704.96	10090.05
705.10	10120.48
705.23	10076.01
>>>>>End Processed Spectral Data<<<<<
