SpectraSuite Data File
++++++++++++++++++++++++++++++++++++
Date: Fri Oct 18 13:58:24 GMT-05:00 2013
User: bianchi
Dark Spectrum Present: No
Reference Spectrum Present: No
Number of Sampled Component Spectra: 1
Spectrometers: USB2+H05261
Integration Time (usec): 50000 (USB2+H05261)
Spectra Averaged: 1 (USB2+H05261)
Boxcar Smoothing: 0 (USB2+H05261)
Correct for Electrical Dark: No (USB2+H05261)
Strobe/Lamp Enabled: No (USB2+H05261)
Correct for Detector Non-linearity: No (USB2+H05261)
Correct for Stray Light: No (USB2+H05261)
Number of Pixels in Processed Spectrum: 2048
>>>>>Begin Processed Spectral Data<<<<<
365.73	0.00
365.92	0.00
366.12	0.00
366.32	0.00
366.52	0.00
366.72	0.00
366.91	0.00
367.11	0.00
367.31	0.00
367.51	0.00
367.70	0.00
367.90	0.00
368.10	0.00
368.30	0.00
368.49	0.00
368.69	0.00
368.89	0.00
369.09	0.00
369.28	0.00
369.48	0.00
369.68	0.00
369.87	0.00
370.07	0.00
370.27	0.00
370.47	0.00
370.66	77.24
370.86	121.71
371.06	112.35
371.25	168.52
371.45	110.01
371.65	107.66
371.84	170.86
372.04	154.48
372.24	231.71
372.44	145.11
372.63	229.37
372.83	266.82
373.03	285.55
373.22	248.10
373.42	205.97
373.62	154.48
373.81	217.67
374.01	252.78
374.21	231.71
374.40	196.60
374.60	215.33
374.79	191.92
374.99	210.65
375.19	212.99
375.38	262.14
375.58	222.35
375.78	255.12
375.97	227.03
376.17	330.02
376.37	250.44
376.56	287.89
376.76	313.63
376.95	280.86
377.15	262.14
377.35	330.02
377.54	170.86
377.74	245.76
377.93	243.42
378.13	257.46
378.33	365.12
378.52	245.76
378.72	252.78
378.91	217.67
379.11	266.82
379.31	292.57
379.50	259.80
379.70	330.02
379.89	360.44
380.09	229.37
380.28	341.72
380.48	227.03
380.68	273.84
380.87	280.86
381.07	266.82
381.26	334.70
381.46	416.62
381.65	360.44
381.85	222.35
382.04	257.46
382.24	315.97
382.43	341.72
382.63	334.70
382.83	325.33
383.02	327.68
383.22	383.85
383.41	266.82
383.61	325.33
383.80	332.36
384.00	374.49
384.19	360.44
384.39	383.85
384.58	315.97
384.78	315.97
384.97	411.93
385.17	351.08
385.36	472.79
385.56	421.30
385.75	411.93
385.95	386.19
386.14	404.91
386.34	386.19
386.53	461.09
386.72	301.93
386.92	388.53
387.11	372.15
387.31	409.59
387.50	374.49
387.70	430.66
387.89	430.66
388.09	390.87
388.28	458.74
388.48	451.72
388.67	390.87
388.86	498.53
389.06	458.74
389.25	463.43
389.45	496.19
389.64	416.62
389.84	428.32
390.03	440.02
390.22	423.64
390.42	425.98
390.61	461.09
390.81	505.56
391.00	512.58
391.19	482.15
391.39	472.79
391.58	566.41
391.78	554.71
391.97	468.11
392.16	475.13
392.36	554.71
392.55	524.28
392.75	545.34
392.94	592.16
393.13	557.05
393.33	561.73
393.52	496.19
393.71	552.37
393.91	610.88
394.10	559.39
394.29	580.45
394.49	617.90
394.68	681.10
394.88	634.29
395.07	622.58
395.26	561.73
395.46	582.79
395.65	592.16
395.84	554.71
396.04	655.35
396.23	695.14
396.42	697.48
396.62	636.63
396.81	610.88
397.00	615.56
397.19	596.84
397.39	662.37
397.58	692.80
397.77	709.18
397.97	692.80
398.16	713.86
398.35	723.23
398.55	610.88
398.74	697.48
398.93	770.04
399.12	676.41
399.32	711.52
399.51	709.18
399.70	713.86
399.90	725.57
400.09	833.23
400.28	772.38
400.47	830.89
400.67	826.21
400.86	891.74
401.05	788.76
401.24	727.91
401.44	744.29
401.63	772.38
401.82	798.12
402.01	809.83
402.21	798.12
402.40	854.30
402.59	840.25
402.78	802.80
402.97	833.23
403.17	793.44
403.36	903.45
403.55	854.30
403.74	915.15
403.93	842.59
404.13	887.06
404.32	950.26
404.51	849.61
404.70	992.39
404.89	926.85
405.09	950.26
405.28	861.32
405.47	964.30
405.66	978.34
405.85	933.87
406.05	922.17
406.24	940.90
406.43	1008.77
406.62	985.37
406.81	1048.56
407.00	971.32
407.20	894.08
407.39	985.37
407.58	1022.81
407.77	971.32
407.96	1102.39
408.15	1146.86
408.34	990.05
408.54	1118.78
408.73	1064.94
408.92	1069.62
409.11	1011.11
409.30	1043.88
409.49	1015.79
409.68	1057.92
409.87	1188.99
410.07	1198.35
410.26	1231.12
410.45	1289.64
410.64	1179.63
410.83	1107.07
411.02	1174.95
411.21	1270.91
411.40	1299.00
411.59	1198.35
411.78	1252.19
411.98	1242.82
412.17	1277.93
412.36	1249.85
412.55	1341.13
412.74	1282.61
412.93	1315.38
413.12	1352.83
413.31	1329.42
413.50	1392.62
413.69	1392.62
413.88	1451.13
414.07	1418.36
414.26	1479.22
414.45	1549.43
414.64	1493.26
414.83	1434.75
415.02	1561.14
415.22	1467.52
415.41	1521.35
415.60	1589.22
415.79	1549.43
415.98	1554.12
416.17	1621.99
416.36	1610.29
416.55	1624.33
416.74	1610.29
416.93	1678.16
417.12	1687.53
417.31	1720.29
417.50	1654.76
417.69	1699.23
417.88	1830.30
418.07	1701.57
418.26	1720.29
418.45	1811.57
418.64	1764.76
418.83	1736.68
419.02	1724.97
419.21	1806.89
419.39	1834.98
419.58	1732.00
419.77	1816.26
419.96	1827.96
420.15	1769.44
420.34	1818.60
420.53	1858.39
420.72	1851.36
420.91	1942.64
421.10	1970.73
421.29	1980.09
421.48	1961.37
421.67	1970.73
421.86	1930.94
422.05	1860.73
422.24	2054.99
422.43	1994.14
422.61	2059.67
422.80	1909.88
422.99	2026.90
423.18	2005.84
423.37	2094.78
423.56	1867.75
423.75	2083.08
423.94	1944.99
424.13	1811.57
424.32	1970.73
424.50	2136.91
424.69	2057.33
424.88	2066.69
425.07	2069.03
425.26	2071.37
425.45	2064.35
425.64	2071.37
425.83	2010.52
426.01	2090.10
426.20	2050.31
426.39	2108.82
426.58	1907.54
426.77	2132.23
426.96	2062.01
427.15	2054.99
427.33	2043.29
427.52	2099.46
427.71	2211.81
427.90	2162.66
428.09	2136.91
428.28	2125.21
428.46	2106.48
428.65	2155.63
428.84	2200.10
429.03	2251.60
429.22	2223.51
429.40	2155.63
429.59	2246.91
429.78	2146.27
429.97	2113.50
430.16	2307.77
430.34	2338.20
430.53	2387.35
430.72	2354.58
430.91	2366.28
431.10	2328.83
431.28	2242.23
431.47	2326.49
431.66	2448.20
431.85	2298.41
432.03	2328.83
432.22	2415.43
432.41	2385.01
432.60	2356.92
432.79	2359.26
432.97	2417.77
433.16	2314.79
433.35	2429.48
433.54	2539.48
433.72	2406.07
433.91	2544.16
434.10	2473.95
434.28	2457.56
434.47	2427.14
434.66	2551.18
434.85	2473.95
435.03	2567.57
435.22	2539.48
435.41	2595.65
435.59	2623.74
435.78	2633.10
435.97	2553.52
436.16	2628.42
436.34	2689.28
436.53	2806.30
436.72	2766.51
436.90	2635.44
437.09	2649.49
437.28	2682.25
437.46	2717.36
437.65	2726.72
437.84	2832.05
438.02	2663.53
438.21	2764.17
438.40	2621.40
438.58	2796.94
438.77	2796.94
438.96	2864.82
439.14	2937.37
439.33	2862.48
439.52	2843.75
439.70	2930.35
439.89	3117.59
440.08	2991.20
440.26	3063.76
440.45	2988.86
440.63	3014.61
440.82	3089.51
441.01	3014.61
441.19	3148.02
441.38	3169.09
441.57	3194.83
441.75	3101.21
441.94	3342.28
442.12	3178.45
442.31	3274.41
442.50	3353.99
442.68	3045.04
442.87	3342.28
443.05	3307.18
443.24	3405.48
443.43	3424.20
443.61	3391.44
443.80	3431.23
443.98	3323.56
444.17	3297.81
444.35	3342.28
444.54	3405.48
444.73	3356.33
444.91	3382.07
445.10	3536.55
445.28	3513.14
445.47	3407.82
445.65	3393.78
445.84	3520.17
446.02	3405.48
446.21	3461.65
446.39	3358.67
446.58	3501.44
446.77	3377.39
446.95	3449.95
447.14	3480.38
447.32	3405.48
447.51	3386.76
447.69	3438.25
447.88	3496.76
448.06	3403.14
448.25	3555.27
448.43	3618.47
448.62	3541.23
448.80	3562.30
448.99	3557.61
449.17	3576.34
449.36	3510.80
449.54	3552.93
449.73	3765.92
449.91	3716.77
450.10	3611.45
450.28	3595.06
450.46	3815.07
450.65	3686.34
450.83	3810.39
451.02	3744.86
451.20	3789.33
451.39	3705.07
451.57	3751.88
451.76	3693.37
451.94	3885.29
452.13	3918.06
452.31	3733.15
452.49	3742.52
452.68	3852.52
452.86	3691.02
453.05	3873.59
453.23	3911.04
453.42	3871.25
453.60	3892.31
453.78	3836.14
453.97	3976.57
454.15	3882.95
454.34	3756.56
454.52	4016.36
454.70	3920.40
454.89	4198.92
455.07	3946.14
455.26	3943.80
455.44	4191.90
455.62	4107.64
455.81	4098.28
455.99	3960.19
456.17	4049.13
456.36	4131.05
456.54	4149.77
456.73	4348.72
456.91	4212.96
457.09	4367.44
457.28	4442.34
457.46	4128.70
457.64	4334.67
457.83	4425.95
458.01	4318.29
458.19	4341.69
458.38	4351.06
458.56	4327.65
458.74	4299.56
458.93	4320.63
459.11	4344.03
459.29	4418.93
459.48	4409.57
459.66	4486.81
459.84	4489.15
460.03	4390.84
460.21	4442.34
460.39	4641.28
460.57	4601.49
460.76	4615.54
460.94	4596.81
461.12	4608.51
461.31	4566.39
461.49	4538.30
461.67	4620.22
461.85	4814.48
462.04	4608.51
462.22	4751.29
462.40	4678.73
462.59	4648.30
462.77	4777.03
462.95	4889.38
463.13	4765.33
463.32	4823.84
463.50	4695.11
463.68	4851.93
463.86	4730.22
464.05	4903.42
464.23	4741.93
464.41	4978.32
464.59	4716.18
464.78	4917.47
464.96	4762.99
465.14	4833.21
465.32	4901.08
465.50	4865.97
465.69	4945.55
465.87	4924.49
466.05	4931.51
466.23	5034.49
466.41	4992.36
466.60	5200.67
466.78	5153.86
466.96	5055.56
467.14	5135.14
467.32	5125.77
467.51	5315.36
467.69	5116.41
467.87	5245.14
468.05	5102.37
468.23	5179.61
468.41	5093.01
468.60	5062.58
468.78	5205.35
468.96	5320.04
469.14	5245.14
469.32	5167.90
469.50	5055.56
469.69	5296.63
469.87	5399.62
470.05	5364.51
470.23	5350.46
470.41	5348.12
470.59	5313.02
470.77	5331.74
470.95	5439.40
471.14	5535.37
471.32	5476.85
471.50	5575.16
471.68	5495.58
471.86	5570.48
472.04	5586.86
472.22	5755.38
472.40	5465.15
472.58	5584.52
472.77	5628.99
472.95	5715.59
473.13	5881.77
473.31	5661.76
473.49	5638.35
473.67	5769.42
473.85	5902.83
474.03	5942.62
474.21	5947.30
474.39	5919.21
474.57	6017.52
474.75	5956.66
474.93	6080.71
475.12	6216.46
475.30	6054.97
475.48	6099.44
475.66	6153.27
475.84	6218.80
476.02	6303.06
476.20	6155.61
476.38	6462.22
476.56	6527.75
476.74	6541.80
476.92	6518.39
477.10	6509.03
477.28	6649.46
477.46	6513.71
477.64	6761.81
477.82	6902.24
478.00	6855.43
478.18	6794.58
478.36	6918.62
478.54	7110.55
478.72	6956.07
478.90	6972.46
479.08	6960.75
479.26	7140.97
479.44	7302.47
479.62	7157.36
479.80	7260.34
479.98	7424.18
480.16	7620.78
480.34	7510.78
480.52	7529.50
480.70	7559.93
480.88	7623.12
481.06	7707.38
481.24	7588.02
481.41	7775.26
481.59	8063.15
481.77	7957.82
481.95	8119.32
482.13	8046.76
482.31	8100.59
482.49	8056.12
482.67	8091.23
482.85	8152.09
483.03	8332.31
483.21	8264.43
483.39	8451.67
483.57	8449.33
483.74	8528.91
483.92	8547.64
484.10	8510.19
484.28	8901.06
484.46	8985.32
484.64	8999.36
484.82	8861.27
485.00	9018.08
485.18	9434.70
485.35	9390.23
485.53	9217.03
485.71	9174.90
485.89	9530.66
486.07	9385.55
486.25	9530.66
486.43	9420.66
486.61	9745.99
486.78	9799.82
486.96	9820.89
487.14	10178.99
487.32	10029.20
487.50	9954.30
487.68	10204.74
487.85	10228.14
488.03	10300.70
488.21	10384.96
488.39	10476.24
488.57	10441.13
488.75	10569.86
488.92	10750.08
489.10	10867.11
489.28	10927.96
489.46	10965.41
489.64	11094.14
489.81	11403.09
489.99	11152.65
490.17	11180.74
490.35	11485.01
490.53	11496.71
490.70	11604.38
490.88	11513.10
491.06	11587.99
491.24	11585.65
491.41	11550.54
491.59	11815.02
491.77	11925.03
491.95	12065.46
492.13	12236.32
492.30	12084.19
492.48	12285.47
492.66	12177.81
492.84	12205.89
493.01	12587.40
493.19	12451.65
493.37	12655.28
493.54	12699.75
493.72	12781.67
493.90	12725.49
494.08	12814.43
494.25	12889.33
494.43	13006.36
494.61	12924.44
494.79	13013.38
494.96	13146.79
495.14	13252.11
495.32	13343.39
495.49	13397.23
495.67	13465.10
495.85	13762.35
496.02	13614.90
496.20	13617.24
496.38	13902.78
496.55	13699.16
496.73	14384.93
496.91	14195.35
497.09	14113.43
497.26	14164.92
497.44	13891.08
497.62	14272.59
497.79	14623.67
497.97	14401.32
498.14	14712.61
498.32	14934.96
498.50	14609.62
498.67	14881.13
498.85	14658.78
499.03	14974.75
499.20	14930.28
499.38	15061.35
499.56	14960.70
499.73	15225.18
499.91	15290.72
500.08	15220.50
500.26	15555.20
500.44	15389.02
500.61	15550.52
500.79	15468.60
500.97	15494.35
501.14	15665.21
501.32	15969.48
501.49	15597.33
501.67	15714.36
501.84	15995.22
502.02	15744.78
502.20	16037.35
502.37	16098.20
502.55	16130.97
502.72	15948.41
502.90	15929.69
503.07	16107.57
503.25	16327.58
503.43	15894.58
503.60	16318.22
503.78	16325.24
503.95	16276.09
504.13	16589.72
504.30	16531.20
504.48	16409.50
504.65	16886.97
504.83	16863.56
505.01	17135.06
505.18	16713.77
505.36	17123.36
505.53	16856.54
505.71	16868.24
505.88	16886.97
506.06	17060.16
506.23	17158.47
506.41	17242.73
506.58	17275.49
506.76	17163.15
506.93	17249.75
507.11	17231.02
507.28	17291.88
507.46	17713.17
507.63	17497.84
507.81	17671.04
507.98	17476.78
508.16	17678.07
508.33	17762.33
508.50	17673.39
508.68	17673.39
508.85	17774.03
509.03	17767.01
509.20	18040.85
509.38	18185.96
509.55	18251.50
509.73	18029.15
509.90	18045.53
510.08	18396.61
510.25	18265.54
510.42	18686.84
510.60	18541.72
510.77	18499.59
510.95	18792.16
511.12	18593.22
511.30	18494.91
511.47	18565.13
511.64	18923.23
511.82	18944.30
511.99	18789.82
512.17	18794.50
512.34	18848.33
512.51	19157.28
512.69	19019.19
512.86	19124.52
513.04	19405.38
513.21	19206.44
513.38	19513.05
513.56	19651.14
513.73	19365.59
513.90	19356.23
514.08	19019.19
514.25	19309.42
514.43	19672.20
514.60	19484.96
514.77	19391.34
514.95	19817.32
515.12	19669.86
515.29	19777.53
515.47	19625.39
515.64	19847.74
515.81	19709.65
515.99	19962.43
516.16	20247.97
516.33	19934.34
516.51	20013.92
516.68	20065.41
516.85	20105.20
517.03	20435.22
517.20	20320.53
517.37	20472.67
517.54	20432.88
517.72	20393.09
517.89	20561.61
518.06	20540.54
518.24	20475.01
518.41	20016.26
518.58	20926.73
518.75	20915.03
518.93	20807.36
519.10	20849.49
519.27	20695.02
519.45	20795.66
519.62	20615.44
519.79	21172.49
519.96	20924.39
520.14	21083.55
520.31	21118.65
520.48	20994.61
520.65	21128.02
520.83	21139.72
521.00	21198.23
521.17	21212.28
521.34	21333.98
521.52	21666.34
521.69	21282.49
521.86	21542.29
522.03	21530.59
522.20	21404.20
522.38	21455.69
522.55	21507.18
522.72	21799.75
522.89	21696.77
523.07	21743.58
523.24	21586.76
523.41	22143.81
523.58	21656.98
523.75	22134.45
523.92	21666.34
524.10	22050.19
524.27	22120.40
524.44	22590.85
524.61	22448.08
524.78	22199.98
524.96	22272.54
525.13	22108.70
525.30	22405.95
525.47	22544.04
525.64	22590.85
525.81	22265.52
525.98	22384.88
526.16	22595.53
526.33	22539.36
526.50	22963.00
526.67	22848.31
526.84	23063.64
527.01	22621.28
527.18	22714.90
527.36	23026.19
527.53	22845.97
527.70	23122.15
527.87	23232.16
528.04	22939.59
528.21	23112.79
528.38	23108.11
528.55	23356.21
528.72	23342.16
528.89	23410.04
529.07	23089.38
529.24	23215.77
529.41	23328.12
529.58	23260.24
529.75	23786.86
529.92	23192.37
530.09	23250.88
530.26	23426.42
530.43	23440.47
530.60	23660.48
530.77	23658.14
530.94	23901.55
531.11	23473.23
531.28	23388.97
531.46	23309.40
531.63	23821.97
531.80	23742.39
531.97	24037.30
532.14	23931.98
532.31	23931.98
532.48	23957.72
532.65	23868.78
532.82	23754.10
532.99	23796.23
533.16	23679.20
533.33	24177.73
533.50	24418.81
533.67	24308.80
533.84	24173.05
534.01	24465.62
534.18	24100.50
534.35	24816.70
534.52	23833.68
534.69	24444.56
534.86	24559.24
535.03	24065.39
535.20	24418.81
535.37	24685.63
535.54	24341.57
535.71	24453.92
535.88	24599.03
536.05	24521.79
536.22	24713.72
536.38	24940.75
536.55	24734.78
536.72	24725.42
536.89	24685.63
537.06	24737.12
537.23	24898.62
537.40	24931.39
537.57	25226.29
537.74	24872.87
537.91	25528.22
538.08	24994.58
538.25	24776.91
538.42	25319.92
538.59	25230.98
538.75	24868.19
538.92	24929.05
539.09	25394.81
539.26	25469.71
539.43	25188.85
539.60	25252.04
539.77	24929.05
539.94	25511.84
540.11	25663.97
540.28	25034.37
540.44	25287.15
540.61	25202.89
540.78	25406.52
540.95	25621.84
541.12	25387.79
541.29	25715.47
541.46	25268.42
541.62	25497.80
541.79	25455.67
541.96	25270.76
542.13	25348.00
542.30	25961.22
542.47	25713.13
542.63	25797.38
542.80	26008.03
542.97	26148.46
543.14	26333.37
543.31	26071.23
543.48	25970.58
543.64	26377.84
543.81	26347.41
543.98	26487.84
544.15	26384.86
544.32	26513.59
544.48	26466.78
544.65	26504.23
544.82	26316.98
544.99	26218.68
545.16	26419.97
545.32	26492.52
545.49	26632.96
545.66	26764.03
545.83	26595.51
546.00	26712.53
546.16	26405.92
546.33	26852.97
546.50	26075.91
546.67	26534.65
546.83	26579.12
547.00	26700.83
547.17	26703.17
547.34	26874.03
547.50	26848.29
547.67	27213.41
547.84	27023.83
548.00	26731.26
548.17	26801.47
548.34	26824.88
548.51	26728.92
548.67	27042.55
548.84	27101.06
549.01	26808.50
549.18	27030.85
549.34	27000.42
549.51	26888.07
549.68	27080.00
549.84	27147.87
550.01	27267.24
550.18	27087.02
550.34	27384.27
550.51	27541.08
550.68	27398.31
550.84	26822.54
551.01	27379.59
551.18	27285.97
551.34	26813.18
551.51	27426.40
551.68	27585.55
551.84	27599.60
552.01	27250.86
552.18	27620.66
552.34	27484.91
552.51	27505.98
552.68	27220.43
552.84	27527.04
553.01	28105.15
553.18	27648.75
553.34	28070.04
553.51	27740.03
553.67	27669.81
553.84	27931.95
554.01	27786.84
554.17	27686.20
554.34	27798.54
554.51	27412.35
554.67	27772.80
554.84	27611.30
555.00	27892.16
555.17	27805.56
555.33	28067.70
555.50	27676.83
555.67	28081.75
555.83	27672.15
556.00	27946.00
556.16	27803.22
556.33	27632.36
556.50	27917.91
556.66	28411.76
556.83	28208.14
556.99	28348.57
557.16	28322.82
557.32	28594.32
557.49	28437.51
557.65	28025.57
557.82	27559.81
557.98	27938.97
558.15	28252.61
558.32	28119.20
558.48	28304.10
558.65	28177.71
558.81	28116.86
558.98	28264.31
559.14	28453.89
559.31	27990.47
559.47	28486.66
559.64	28655.18
559.80	28458.57
559.97	28563.90
560.13	28315.80
560.30	28514.75
560.46	28615.39
560.63	28526.45
560.79	28491.34
560.96	28271.33
561.12	28643.48
561.29	28540.49
561.45	28648.16
561.61	28458.57
561.78	28875.19
561.94	28311.12
562.11	28746.46
562.27	28584.96
562.44	28781.57
562.60	28786.25
562.77	28765.18
562.93	28512.41
563.10	28697.31
563.26	28620.07
563.42	29181.80
563.59	28769.86
563.75	28655.18
563.92	29137.33
564.08	28875.19
564.24	28779.23
564.41	28975.83
564.57	28842.42
564.74	28828.38
564.90	29270.74
565.07	29088.18
565.23	28765.18
565.39	28856.46
565.56	29041.37
565.72	28451.55
565.88	28823.70
566.05	28788.59
566.21	28620.07
566.38	28746.46
566.54	28692.63
566.70	28950.09
566.87	29149.03
567.03	29207.55
567.19	29298.83
567.36	29252.02
567.52	29022.64
567.68	29500.11
567.85	28980.51
568.01	29151.37
568.17	29247.33
568.34	29303.51
568.50	29427.56
568.66	29273.08
568.83	29500.11
568.99	29340.96
569.15	29207.55
569.32	29450.96
569.48	28980.51
569.64	29252.02
569.81	29362.02
569.97	28795.61
570.13	29282.44
570.30	28884.55
570.46	29277.76
570.62	29247.33
570.78	29125.63
570.95	29041.37
571.11	29404.15
571.27	28900.94
571.43	29277.76
571.60	29350.32
571.76	29158.39
571.92	29474.37
572.09	29565.65
572.25	29649.91
572.41	29460.32
572.57	29626.50
572.74	29165.42
572.90	29216.91
573.06	29125.63
573.22	29017.96
573.38	29233.29
573.55	29584.37
573.71	29872.26
573.87	29303.51
574.03	29745.87
574.20	29338.62
574.36	29275.42
574.52	29099.88
574.68	29600.76
574.84	29331.59
575.01	29259.04
575.17	29453.30
575.33	29188.82
575.49	29390.11
575.65	29369.04
575.82	29347.98
575.98	29441.60
576.14	29418.19
576.30	29560.97
576.46	29149.03
576.62	29411.17
576.79	29219.25
576.95	29668.63
577.11	29670.97
577.27	29205.20
577.43	29827.79
577.59	29582.03
577.75	29521.18
577.92	29216.91
578.08	29390.11
578.24	29282.44
578.40	29521.18
578.56	29420.53
578.72	29797.36
578.88	29788.00
579.04	29652.25
579.21	29600.76
579.37	29553.94
579.53	29956.52
579.69	29722.46
579.85	29635.86
580.01	29383.09
580.17	29240.31
580.33	29205.20
580.49	29680.33
580.65	29617.14
580.82	29347.98
580.98	29369.04
581.14	29696.72
581.30	29883.96
581.46	29523.52
581.62	29504.79
581.78	29663.95
581.94	29254.36
582.10	29455.64
582.26	29364.36
582.42	29483.73
582.58	29788.00
582.74	29429.90
582.90	29221.59
583.06	29537.56
583.22	29626.50
583.38	29488.41
583.54	29259.04
583.70	29500.11
583.86	29799.70
584.02	29563.31
584.18	29802.04
584.34	29867.58
584.50	29984.60
584.66	29708.42
584.82	29560.97
584.98	29371.38
585.14	29607.78
585.30	29486.07
585.46	29820.77
585.62	29427.56
585.78	29378.40
585.94	29521.18
586.10	29851.19
586.26	29673.31
586.42	30199.93
586.58	29685.01
586.74	29397.13
586.90	29600.76
587.06	29036.69
587.22	29455.64
587.38	29411.17
587.54	29914.39
587.70	29958.86
587.86	29841.83
588.02	30005.67
588.18	30043.12
588.34	30108.65
588.49	29883.96
588.65	29912.05
588.81	29390.11
588.97	29441.60
589.13	29893.32
589.29	29682.67
589.45	30183.55
589.61	29942.47
589.77	29933.11
589.93	30230.36
590.08	30267.81
590.24	30057.16
590.40	29881.62
590.56	30183.55
590.72	29968.22
590.88	29551.60
591.04	30045.46
591.20	30417.60
591.35	29954.18
591.51	30960.61
591.67	30155.46
591.83	29944.81
591.99	30017.37
592.15	30000.99
592.31	30082.91
592.46	29881.62
592.62	30302.92
592.78	29610.12
592.94	29963.54
593.10	30010.35
593.26	30331.00
593.41	30218.66
593.57	30284.19
593.73	30096.95
593.89	30546.33
594.05	29928.43
594.20	30295.89
594.36	30052.48
594.52	30284.19
594.68	29890.98
594.84	30057.16
594.99	29907.37
595.15	30314.62
595.31	30101.63
595.47	30356.75
595.62	30129.72
595.78	30185.89
595.94	29984.60
596.10	30155.46
596.25	30045.46
596.41	30153.12
596.57	29717.78
596.73	30199.93
596.88	29780.98
597.04	30033.75
597.20	30469.09
597.36	30462.07
597.51	30359.09
597.67	30417.60
597.83	30366.11
597.99	30859.96
598.14	29851.19
598.30	30050.14
598.46	29905.02
598.61	30216.32
598.77	30213.98
598.93	30281.85
599.09	30218.66
599.24	31021.46
599.40	30235.04
599.56	30548.67
599.71	30412.92
599.87	30295.89
600.03	30054.82
600.18	30195.25
600.34	29949.50
600.50	30349.73
600.65	30057.16
600.81	30307.60
600.97	30178.87
601.12	30422.28
601.28	30398.88
601.44	30340.36
601.59	30108.65
601.75	30305.26
601.91	30408.24
602.06	30029.07
602.22	30438.67
602.37	30054.82
602.53	30340.36
602.69	30150.78
602.84	30342.70
603.00	30342.70
603.16	30426.96
603.31	30232.70
603.47	29893.32
603.62	30567.40
603.78	30185.89
603.94	30192.91
604.09	30263.13
604.25	29937.79
604.40	30251.42
604.56	30623.57
604.71	30604.84
604.87	30206.95
605.03	30228.02
605.18	30473.78
605.34	30197.59
605.49	29743.53
605.65	30125.04
605.80	29621.82
605.96	30387.18
606.12	30384.83
606.27	30228.02
606.43	30326.32
606.58	30059.50
606.74	30260.79
606.89	30373.13
607.05	30110.99
607.20	30103.97
607.36	30316.96
607.51	30195.25
607.67	30195.25
607.82	30108.65
607.98	29982.26
608.13	29923.75
608.29	30305.26
608.44	30277.17
608.60	29832.47
608.75	30380.15
608.91	30452.71
609.06	29727.14
609.22	30174.19
609.37	29886.30
609.53	29933.11
609.68	29993.97
609.84	30043.12
609.99	29979.92
610.15	30342.70
610.30	29907.37
610.46	29975.24
610.61	30307.60
610.76	30178.87
610.92	29689.70
611.07	30047.80
611.23	29818.42
611.38	29717.78
611.54	29633.52
611.69	29687.36
611.84	29699.06
612.00	29525.86
612.15	29457.98
612.31	30106.31
612.46	29631.18
612.62	29858.21
612.77	29923.75
612.92	29909.71
613.08	29937.79
613.23	30008.01
613.39	29912.05
613.54	29511.81
613.69	29769.27
613.85	29579.69
614.00	29734.17
614.15	30221.00
614.31	29652.25
614.46	29670.97
614.62	29879.28
614.77	29713.10
614.92	29848.85
615.08	29418.19
615.23	29825.45
615.38	29958.86
615.54	29090.52
615.69	29696.72
615.84	29457.98
616.00	29315.21
616.15	29436.92
616.30	29542.24
616.46	29621.82
616.61	29549.26
616.76	29846.51
616.92	29041.37
617.07	29710.76
617.22	29214.57
617.37	29254.36
617.53	29413.51
617.68	29474.37
617.83	29352.66
617.99	29069.45
618.14	29137.33
618.29	29455.64
618.45	29165.42
618.60	29226.27
618.75	29413.51
618.90	29455.64
619.06	29788.00
619.21	28737.10
619.36	29376.06
619.51	29041.37
619.67	28755.82
619.82	29046.05
619.97	29476.71
620.12	28652.84
620.28	28863.49
620.43	29209.89
620.58	29060.09
620.73	29371.38
620.89	29390.11
621.04	29289.46
621.19	29465.00
621.34	29017.96
621.49	29027.32
621.65	28779.23
621.80	28952.43
621.95	29088.18
622.10	28610.71
622.25	28575.60
622.41	29113.92
622.56	28945.41
622.71	28641.14
622.86	28781.57
623.01	29104.56
623.16	28664.54
623.32	28811.99
623.47	28793.27
623.62	28711.35
623.77	28620.07
623.92	28723.05
624.07	28886.89
624.23	28912.64
624.38	28737.10
624.53	28919.66
624.68	29034.35
624.83	28809.65
624.98	28947.75
625.13	28545.17
625.29	28650.50
625.44	28418.78
625.59	28573.26
625.74	28470.28
625.89	27981.10
626.04	28023.23
626.19	28439.85
626.34	28477.30
626.49	28105.15
626.65	28620.07
626.80	28627.09
626.95	28519.43
627.10	28224.52
627.25	28322.82
627.40	28002.17
627.55	28030.26
627.70	27873.44
627.85	28243.24
628.00	28123.88
628.15	27971.74
628.30	27658.11
628.45	28116.86
628.60	28264.31
628.76	28177.71
628.91	28386.02
629.06	27992.81
629.21	27936.63
629.36	28142.60
629.51	27838.33
629.66	28114.52
629.81	27728.33
629.96	27938.97
630.11	27693.22
630.26	27800.88
630.41	27761.09
630.56	27824.29
630.71	28044.30
630.86	27976.42
631.01	27742.37
631.16	27878.12
631.31	27803.22
631.46	27590.24
631.61	27791.52
631.76	27716.62
631.91	28018.55
632.06	27803.22
632.21	27555.13
632.36	27482.57
632.51	27569.17
632.66	27562.15
632.81	27470.87
632.96	27459.16
633.10	27852.38
633.25	27920.25
633.40	27278.94
633.55	27594.92
633.70	27386.61
633.85	27225.11
634.00	27489.59
634.15	27091.70
634.30	27503.64
634.45	27227.45
634.60	27550.45
634.75	27557.47
634.90	27276.60
635.05	27475.55
635.19	27566.83
635.34	27637.05
635.49	27840.67
635.64	27543.42
635.79	27431.08
635.94	27318.73
636.09	27241.50
636.24	27236.81
636.39	27552.79
636.53	27393.63
636.68	27274.26
636.83	27065.96
636.98	27297.67
637.13	27105.74
637.28	27379.59
637.43	27229.79
637.57	27402.99
637.72	26883.39
637.87	27353.84
638.02	27014.46
638.17	27068.30
638.32	27129.15
638.46	27000.42
638.61	26600.19
638.76	26932.54
638.91	26637.64
639.06	26696.15
639.20	27264.90
639.35	27143.19
639.50	26614.23
639.65	27166.60
639.80	27005.10
639.94	26874.03
640.09	26934.88
640.24	26534.65
640.39	26705.51
640.54	26785.09
640.68	26443.37
640.83	26623.59
640.98	26656.36
641.13	26501.89
641.27	26869.35
641.42	26366.13
641.57	26597.85
641.72	26899.78
641.86	26691.47
642.01	26426.99
642.16	26504.23
642.31	26490.18
642.45	26555.72
642.60	26569.76
642.75	26181.23
642.90	26424.65
643.04	26202.30
643.19	26670.40
643.34	26281.88
643.48	26572.10
643.63	26562.74
643.78	26373.16
643.93	26522.95
644.07	26679.77
644.22	26534.65
644.37	26443.37
644.51	26321.66
644.66	26679.77
644.81	26232.72
644.95	26183.57
645.10	26001.01
645.25	26082.93
645.39	25982.29
645.54	26125.06
645.69	26284.22
645.83	26232.72
645.98	26209.32
646.13	26541.68
646.27	26354.43
646.42	26148.46
646.57	26277.19
646.71	25993.99
646.86	25881.64
647.00	26010.37
647.15	26118.04
647.30	26033.78
647.44	25996.33
647.59	26267.83
647.74	25867.60
647.88	25993.99
648.03	26073.57
648.17	26089.95
648.32	25928.45
648.47	26288.90
648.61	26075.91
648.76	26141.44
648.90	26040.80
649.05	25902.71
649.20	26040.80
649.34	25809.09
649.49	25741.21
649.63	25715.47
649.78	26071.23
649.92	25443.96
650.07	25610.14
650.21	25811.43
650.36	25469.71
650.51	25493.12
650.65	25844.20
650.80	25771.64
650.94	25834.83
651.09	25511.84
651.23	25584.40
651.38	25544.61
651.52	25514.18
651.67	25673.34
651.81	25635.89
651.96	25495.46
652.10	25528.22
652.25	25722.49
652.39	25624.18
652.54	25584.40
652.68	25413.54
652.83	25399.49
652.97	25837.17
653.12	26071.23
653.26	25598.44
653.41	25551.63
653.55	25495.46
653.70	25275.45
653.84	25247.36
653.99	25263.74
654.13	25469.71
654.27	25221.61
654.42	25326.94
654.56	25458.01
654.71	25191.19
654.85	25472.05
655.00	25326.94
655.14	25392.47
655.29	25303.53
655.43	25326.94
655.57	25387.79
655.72	25245.02
655.86	25270.76
656.01	24716.06
656.15	24947.77
656.30	25130.33
656.44	24994.58
656.58	25228.63
656.73	24987.56
656.87	24702.01
657.01	25158.42
657.16	25319.92
657.30	25156.08
657.45	24720.74
657.59	24776.91
657.73	24943.09
657.88	24568.60
658.02	24669.25
658.16	24903.30
658.31	24343.91
658.45	24858.83
658.60	24510.09
658.74	24484.34
658.88	24526.47
659.03	24521.79
659.17	24826.06
659.31	24594.35
659.46	24692.65
659.60	24788.61
659.74	24664.57
659.89	24641.16
660.03	24458.60
660.17	24229.23
660.32	24313.48
660.46	24224.54
660.60	24276.04
660.74	24442.21
660.89	24287.74
661.03	24243.27
661.17	24306.46
661.32	24030.28
661.46	24615.41
661.60	24367.32
661.74	24294.76
661.89	24526.47
662.03	24088.79
662.17	23882.83
662.31	23882.83
662.46	24142.63
662.60	24070.07
662.74	23826.65
662.88	23704.95
663.03	23513.02
663.17	23854.74
663.31	23784.52
663.45	23604.30
663.60	23714.31
663.74	23674.52
663.88	23569.19
664.02	23847.72
664.17	23819.63
664.31	23480.25
664.45	23789.20
664.59	23789.20
664.73	23330.46
664.88	23536.43
665.02	23344.50
665.16	23321.10
665.30	22883.42
665.44	22977.04
665.59	23269.61
665.73	23222.80
665.87	23054.28
666.01	23321.10
666.15	23433.44
666.29	23414.72
666.44	22876.40
666.58	22948.95
666.72	22916.19
666.86	23051.94
667.00	23246.20
667.14	23108.11
667.28	23035.55
667.43	22885.76
667.57	23192.37
667.71	22405.95
667.85	22899.80
667.99	22485.53
668.13	22871.72
668.27	22979.38
668.41	22548.72
668.56	22506.59
668.70	22625.96
668.84	22869.37
668.98	22661.07
669.12	22534.68
669.26	22803.84
669.40	22572.13
669.54	22314.67
669.68	22279.56
669.82	22118.06
669.96	22242.11
670.10	21970.61
670.25	22448.08
670.39	22415.31
670.53	22008.06
670.67	22235.09
670.81	22199.98
670.95	22047.85
671.09	21958.91
671.23	21989.33
671.37	22267.86
671.51	22108.70
671.65	22199.98
671.79	21783.37
671.93	21802.09
672.07	21694.43
672.21	21834.86
672.35	21654.64
672.49	21341.00
672.63	21462.71
672.77	21200.57
672.91	21509.52
673.05	21371.43
673.19	21624.21
673.33	21525.91
673.47	21301.22
673.61	21446.33
673.75	21296.53
673.89	21130.36
674.03	21380.79
674.17	21338.66
674.31	21348.03
674.45	21191.21
674.59	21097.59
674.73	20823.75
674.87	21006.31
675.01	20669.27
675.15	20900.98
675.29	20467.98
675.43	20671.61
675.56	20996.95
675.70	20725.44
675.84	20575.65
675.98	19988.18
676.12	20685.65
676.26	20978.22
676.40	20521.82
676.54	20383.73
676.68	20365.00
676.82	19838.38
676.96	20018.60
677.10	20039.67
677.23	19864.13
677.37	19962.43
677.51	20116.90
677.65	20018.60
677.79	19868.81
677.93	19669.86
678.07	19573.90
678.21	19426.45
678.34	19777.53
678.48	19452.19
678.62	19370.27
678.76	19555.18
678.90	19438.15
679.04	19494.32
679.18	19442.83
679.31	19161.97
679.45	19187.71
679.59	19030.90
679.73	19016.85
679.87	18925.57
680.00	19159.63
680.14	18787.48
680.28	18726.63
680.42	18789.82
680.56	19115.16
680.70	18773.44
680.83	18941.96
680.97	18513.64
681.11	18567.47
681.25	18537.04
681.39	18625.98
681.52	18614.28
681.66	18237.45
681.80	18244.48
681.94	18473.85
682.07	18338.10
682.21	18214.05
682.35	18075.96
682.49	17972.97
682.62	17839.56
682.76	17759.98
682.90	17830.20
683.04	17818.50
683.17	17605.51
683.31	17809.14
683.45	18246.82
683.59	17727.22
683.72	17575.08
683.86	17673.39
684.00	17652.32
684.13	17507.21
684.27	17429.97
684.41	17104.64
684.55	16919.73
684.68	17252.09
684.82	16931.44
684.96	16844.84
685.09	16929.09
685.23	16727.81
685.37	16758.24
685.50	17172.51
685.64	17102.29
685.78	16641.21
685.91	16828.45
686.05	16896.33
686.19	16659.93
686.32	16718.45
686.46	16573.33
686.60	16341.62
686.73	16566.31
686.87	16233.96
687.01	16198.85
687.14	16327.58
687.28	16016.29
687.42	16191.83
687.55	15997.56
687.69	16315.87
687.82	16145.02
687.96	16142.67
688.10	15913.30
688.23	16091.18
688.37	15545.84
688.50	15908.62
688.64	15859.47
688.78	15784.57
688.91	15559.88
689.05	15459.24
689.18	15508.39
689.32	15133.90
689.46	15073.05
689.59	15246.25
689.73	15410.09
689.86	15220.50
690.00	14892.83
690.13	14876.44
690.27	14998.15
690.41	15042.62
690.54	14981.77
690.68	14909.21
690.81	15007.52
690.95	15150.29
691.08	14930.28
691.22	14738.35
691.35	14789.85
691.49	14450.47
691.62	14443.45
691.76	14698.56
691.89	14317.06
692.03	14190.67
692.16	14071.30
692.30	14242.16
692.43	13909.80
692.57	14038.53
692.70	13792.78
692.84	14242.16
692.97	13994.06
693.11	13998.74
693.24	13947.25
693.38	13991.72
693.51	14125.13
693.65	13881.72
693.78	13657.03
693.92	13902.78
694.05	13579.79
694.19	13181.90
694.32	13537.66
694.45	13252.11
694.59	13207.64
694.72	13476.80
694.86	13219.35
694.99	13032.10
695.13	13097.64
695.26	13158.49
695.39	12734.85
695.53	13046.15
695.66	13238.07
695.80	12964.23
695.93	12856.56
696.07	12919.76
696.20	13111.68
696.33	12917.42
696.47	12936.14
696.60	12734.85
696.73	12610.81
696.87	12638.89
697.00	12631.87
697.14	12465.69
697.27	12105.25
697.40	12217.60
697.54	12182.49
697.67	12236.32
697.80	12114.61
697.94	12046.74
698.07	11960.14
698.21	11817.36
698.34	11918.01
698.47	12187.17
698.61	12116.95
698.74	12128.66
698.87	11913.33
699.01	11775.24
699.14	11716.72
699.27	11735.45
699.40	11796.30
699.54	11627.78
699.67	11578.63
699.80	11559.91
699.94	11609.06
700.07	11262.66
700.20	11325.85
700.34	11028.60
700.47	10991.16
700.60	11342.24
700.73	11314.15
700.87	10839.02
701.00	10995.84
701.13	10934.98
701.26	11124.57
701.40	11187.76
701.53	11000.52
701.66	10927.96
701.79	10960.73
701.93	10848.38
702.06	10745.40
702.19	10511.35
702.32	10754.76
702.46	10429.43
702.59	10200.05
702.72	10246.87
702.85	10342.83
702.99	10251.55
703.12	10366.23
703.25	10246.87
703.38	10312.40
703.51	10113.45
703.65	10253.89
703.78	10026.86
703.91	9947.28
704.04	10111.11
704.17	10052.60
704.31	9973.02
704.44	10073.67
704.57	9792.80
704.70	9736.63
704.83	9635.99
704.96	9760.03
705.10	9518.96
705.23	9554.07
>>>>>End Processed Spectral Data<<<<<
