SpectraSuite Data File
++++++++++++++++++++++++++++++++++++
Date: Fri Oct 18 13:58:32 GMT-05:00 2013
User: bianchi
Dark Spectrum Present: No
Reference Spectrum Present: No
Number of Sampled Component Spectra: 1
Spectrometers: USB2+H05261
Integration Time (usec): 50000 (USB2+H05261)
Spectra Averaged: 1 (USB2+H05261)
Boxcar Smoothing: 0 (USB2+H05261)
Correct for Electrical Dark: No (USB2+H05261)
Strobe/Lamp Enabled: No (USB2+H05261)
Correct for Detector Non-linearity: No (USB2+H05261)
Correct for Stray Light: No (USB2+H05261)
Number of Pixels in Processed Spectrum: 2048
>>>>>Begin Processed Spectral Data<<<<<
365.73	0.00
365.92	0.00
366.12	0.00
366.32	0.00
366.52	0.00
366.72	0.00
366.91	0.00
367.11	0.00
367.31	0.00
367.51	0.00
367.70	0.00
367.90	0.00
368.10	0.00
368.30	0.00
368.49	0.00
368.69	0.00
368.89	0.00
369.09	0.00
369.28	0.00
369.48	0.00
369.68	0.00
369.87	0.00
370.07	0.00
370.27	0.00
370.47	0.00
370.66	126.39
370.86	79.58
371.06	140.43
371.25	119.37
371.45	168.52
371.65	175.54
371.84	145.11
372.04	119.37
372.24	154.48
372.44	177.88
372.63	238.73
372.83	229.37
373.03	238.73
373.22	138.09
373.42	194.26
373.62	210.65
373.81	234.05
374.01	248.10
374.21	224.69
374.40	252.78
374.60	334.70
374.79	212.99
374.99	196.60
375.19	259.80
375.38	252.78
375.58	236.39
375.78	231.71
375.97	257.46
376.17	365.12
376.37	243.42
376.56	208.31
376.76	243.42
376.95	205.97
377.15	212.99
377.35	224.69
377.54	325.33
377.74	315.97
377.93	234.05
378.13	257.46
378.33	252.78
378.52	238.73
378.72	245.76
378.91	334.70
379.11	217.67
379.31	243.42
379.50	269.16
379.70	306.61
379.89	294.91
380.09	287.89
380.28	297.25
380.48	287.89
380.68	280.86
380.87	285.55
381.07	360.44
381.26	369.80
381.46	318.31
381.65	313.63
381.85	365.12
382.04	271.50
382.24	210.65
382.43	250.44
382.63	292.57
382.83	360.44
383.02	369.80
383.22	372.15
383.41	369.80
383.61	381.51
383.80	353.42
384.00	297.25
384.19	421.30
384.39	390.87
384.58	301.93
384.78	393.21
384.97	379.17
385.17	367.46
385.36	400.23
385.56	341.72
385.75	365.12
385.95	388.53
386.14	425.98
386.34	411.93
386.53	386.19
386.72	337.04
386.92	376.83
387.11	379.17
387.31	470.45
387.50	365.12
387.70	475.13
387.89	449.38
388.09	383.85
388.28	374.49
388.48	409.59
388.67	573.43
388.86	435.34
389.06	489.17
389.25	472.79
389.45	472.79
389.64	423.64
389.84	528.96
390.03	454.06
390.22	470.45
390.42	451.72
390.61	454.06
390.81	491.51
391.00	543.00
391.19	519.60
391.39	407.25
391.58	521.94
391.78	568.75
391.97	589.82
392.16	493.85
392.36	514.92
392.55	519.60
392.75	557.05
392.94	528.96
393.13	521.94
393.33	512.58
393.52	461.09
393.71	566.41
393.91	571.09
394.10	599.18
394.29	589.82
394.49	550.03
394.68	622.58
394.88	594.50
395.07	617.90
395.26	514.92
395.46	617.90
395.65	723.23
395.84	587.47
396.04	671.73
396.23	620.24
396.42	650.67
396.62	629.60
396.81	603.86
397.00	510.24
397.19	641.31
397.39	643.65
397.58	671.73
397.77	695.14
397.97	737.27
398.16	713.86
398.35	608.54
398.55	655.35
398.74	643.65
398.93	727.91
399.12	643.65
399.32	662.37
399.51	723.23
399.70	660.03
399.90	737.27
400.09	793.44
400.28	690.46
400.47	725.57
400.67	730.25
400.86	798.12
401.05	770.04
401.24	758.33
401.44	791.10
401.63	814.51
401.82	844.93
402.01	814.51
402.21	786.42
402.40	851.96
402.59	854.30
402.78	863.66
402.97	849.61
403.17	786.42
403.36	919.83
403.55	851.96
403.74	863.66
403.93	908.13
404.13	821.53
404.32	816.85
404.51	912.81
404.70	938.55
404.89	868.34
405.09	926.85
405.28	919.83
405.47	777.06
405.66	1001.75
405.85	910.47
406.05	961.96
406.24	936.21
406.43	891.74
406.62	1057.92
406.81	971.32
407.00	940.90
407.20	1015.79
407.39	1036.86
407.58	973.66
407.77	1067.28
407.96	1151.54
408.15	1013.45
408.34	1093.03
408.54	1062.60
408.73	1095.37
408.92	1090.69
409.11	1029.84
409.30	1221.76
409.49	1149.20
409.68	1196.01
409.87	1090.69
410.07	1116.44
410.26	1224.10
410.45	1057.92
410.64	1231.12
410.83	1212.40
411.02	1205.38
411.21	1280.27
411.40	1174.95
411.59	1167.93
411.78	1280.27
411.98	1228.78
412.17	1228.78
412.36	1355.17
412.55	1350.49
412.74	1289.64
412.93	1350.49
413.12	1338.79
413.31	1369.21
413.50	1352.83
413.69	1418.36
413.88	1439.43
414.07	1378.58
414.26	1387.94
414.45	1427.73
414.64	1404.32
414.83	1514.33
415.02	1521.35
415.22	1493.26
415.41	1514.33
415.60	1542.41
415.79	1621.99
415.98	1535.39
416.17	1600.93
416.36	1619.65
416.55	1643.06
416.74	1605.61
416.93	1547.09
417.12	1638.38
417.31	1607.95
417.50	1596.25
417.69	1743.70
417.88	1778.81
418.07	1692.21
418.26	1739.02
418.45	1572.84
418.64	1785.83
418.83	1783.49
419.02	1682.85
419.21	1748.38
419.39	1839.66
419.58	1736.68
419.77	1732.00
419.96	1769.44
420.15	1813.92
420.34	1834.98
420.53	1827.96
420.72	1933.28
420.91	1802.21
421.10	1884.13
421.29	1907.54
421.48	1863.07
421.67	2045.63
421.86	1956.69
422.05	1907.54
422.24	1944.99
422.43	2052.65
422.61	1865.41
422.80	2092.44
422.99	2017.54
423.18	2015.20
423.37	1987.11
423.56	1961.37
423.75	2001.16
423.94	1935.62
424.13	1832.64
424.32	1909.88
424.50	1975.41
424.69	1991.80
424.88	2073.71
425.07	1937.96
425.26	1947.33
425.45	1928.60
425.64	2080.74
425.83	2026.90
426.01	2029.24
426.20	2052.65
426.39	2083.08
426.58	2033.93
426.77	2076.06
426.96	2129.89
427.15	2029.24
427.33	2005.84
427.52	2092.44
427.71	2078.40
427.90	2150.95
428.09	2160.31
428.28	2097.12
428.46	2293.72
428.65	2195.42
428.84	2223.51
429.03	2253.94
429.22	2092.44
429.40	2331.17
429.59	2099.46
429.78	2197.76
429.97	2146.27
430.16	2099.46
430.34	2120.53
430.53	2282.02
430.72	2326.49
430.91	2338.20
431.10	2228.19
431.28	2197.76
431.47	2352.24
431.66	2422.45
431.85	2347.56
432.03	2480.97
432.22	2520.76
432.41	2420.11
432.60	2375.64
432.79	2392.03
432.97	2387.35
433.16	2328.83
433.35	2317.13
433.54	2483.31
433.72	2502.03
433.91	2434.16
434.10	2466.92
434.28	2572.25
434.47	2562.89
434.66	2541.82
434.85	2560.55
435.03	2499.69
435.22	2434.16
435.41	2614.38
435.59	2693.96
435.78	2661.19
435.97	2612.04
436.16	2644.81
436.34	2602.68
436.53	2693.96
436.72	2736.09
436.90	2609.70
437.09	2675.23
437.28	2593.31
437.46	2775.88
437.65	2677.57
437.84	2773.53
438.02	2644.81
438.21	2820.35
438.40	2764.17
438.58	2799.28
438.77	2913.97
438.96	2918.65
439.14	2902.26
439.33	2981.84
439.52	2993.55
439.70	2984.18
439.89	3047.38
440.08	2981.84
440.26	3108.23
440.45	3084.83
440.63	3019.29
440.82	3089.51
441.01	3066.10
441.19	3241.64
441.38	3089.51
441.57	3201.85
441.75	3112.91
441.94	3267.39
442.12	3279.09
442.31	3274.41
442.50	3180.79
442.68	3211.22
442.87	3295.47
443.05	3274.41
443.24	3297.81
443.43	3356.33
443.61	3407.82
443.80	3438.25
443.98	3276.75
444.17	3178.45
444.35	3398.46
444.54	3471.01
444.73	3412.50
444.91	3283.77
445.10	3375.05
445.28	3342.28
445.47	3454.63
445.65	3468.67
445.84	3382.07
446.02	3375.05
446.21	3372.71
446.39	3370.37
446.58	3473.36
446.77	3618.47
446.95	3555.27
447.14	3452.29
447.32	3487.40
447.51	3384.41
447.69	3459.31
447.88	3552.93
448.06	3529.53
448.25	3419.52
448.43	3494.42
448.62	3325.90
448.80	3365.69
448.99	3552.93
449.17	3541.23
449.36	3527.19
449.54	3569.32
449.73	3529.53
449.91	3569.32
450.10	3686.34
450.28	3749.54
450.46	3681.66
450.65	3597.40
450.83	3618.47
451.02	3765.92
451.20	3854.86
451.39	3709.75
451.57	3641.87
451.76	3684.00
451.94	3840.82
452.13	3873.59
452.31	3868.91
452.49	3847.84
452.68	3775.28
452.86	3826.78
453.05	3754.22
453.23	3779.97
453.42	3815.07
453.60	3920.40
453.78	3735.50
453.97	3726.13
454.15	3826.78
454.34	3829.12
454.52	3836.14
454.70	3950.82
454.89	3892.31
455.07	4109.98
455.26	4117.00
455.44	3957.85
455.62	4028.06
455.81	3976.57
455.99	4004.66
456.17	4121.68
456.36	3934.44
456.54	4093.60
456.73	4241.05
456.91	4222.33
457.09	4334.67
457.28	4262.12
457.46	4112.32
457.64	4315.95
457.83	4287.86
458.01	4311.27
458.19	4353.40
458.38	4393.19
458.56	4393.19
458.74	4344.03
458.93	4304.25
459.11	4404.89
459.29	4393.19
459.48	4461.06
459.66	4397.87
459.84	4463.40
460.03	4554.68
460.21	4550.00
460.39	4479.79
460.57	4400.21
460.76	4561.70
460.94	4484.47
461.12	4491.49
461.31	4482.13
461.49	4533.62
461.67	4437.66
461.85	4681.07
462.04	4505.53
462.22	4709.16
462.40	4674.05
462.59	4671.71
462.77	4711.50
462.95	4753.63
463.13	4828.53
463.32	4858.95
463.50	4870.65
463.68	4622.56
463.86	4807.46
464.05	4856.61
464.23	4683.41
464.41	4788.74
464.59	4847.25
464.78	4924.49
464.96	4830.87
465.14	4765.33
465.32	5032.15
465.50	4912.78
465.69	4894.06
465.87	4772.35
466.05	4833.21
466.23	4765.33
466.41	5076.62
466.60	5207.69
466.78	4994.70
466.96	5011.09
467.14	5104.71
467.32	5064.92
467.51	5041.51
467.69	4987.68
467.87	5273.23
468.05	5109.39
468.23	5193.65
468.41	5085.98
468.60	5069.60
468.78	5125.77
468.96	5041.51
469.14	5090.67
469.32	5217.05
469.50	5165.56
469.69	5268.55
469.87	5380.89
470.05	5397.28
470.23	5448.77
470.41	5359.83
470.59	5397.28
470.77	5362.17
470.95	5224.08
471.14	5579.84
471.32	5296.63
471.50	5633.67
471.68	5441.75
471.86	5575.16
472.04	5472.17
472.22	5715.59
472.40	5591.54
472.58	5692.18
472.77	5687.50
472.95	5832.62
473.13	5823.25
473.31	5654.73
473.49	5666.44
473.67	5783.46
473.85	5795.17
474.03	5916.87
474.21	5888.79
474.39	5837.30
474.57	6120.50
474.75	6040.92
474.93	5991.77
475.12	6038.58
475.30	6106.46
475.48	6090.07
475.66	6132.20
475.84	6118.16
476.02	6347.53
476.20	6160.29
476.38	6314.77
476.56	6471.58
476.74	6576.91
476.92	6401.37
477.10	6633.08
477.28	6726.70
477.46	6420.09
477.64	6628.40
477.82	6750.10
478.00	6841.39
478.18	6984.16
478.36	6949.05
478.54	7110.55
478.72	6967.77
478.90	6981.82
479.08	7103.53
479.26	7187.79
479.44	7178.42
479.62	7229.91
479.80	7377.37
479.98	7445.24
480.16	7396.09
480.34	7382.05
480.52	7419.50
480.70	7648.87
480.88	7419.50
481.06	7590.36
481.24	7822.07
481.41	7569.29
481.59	7864.20
481.77	7810.37
481.95	8065.49
482.13	8189.53
482.31	8109.96
482.49	7999.95
482.67	8203.58
482.85	8243.37
483.03	8482.10
483.21	8315.92
483.39	8638.92
483.57	8393.16
483.74	8720.84
483.92	8821.48
484.10	8596.79
484.28	8896.38
484.46	8826.16
484.64	9163.20
484.82	8793.39
485.00	9090.64
485.18	9207.67
485.35	9207.67
485.53	9210.01
485.71	9123.41
485.89	9542.36
486.07	9657.05
486.25	9643.01
486.43	9217.03
486.61	9750.67
486.78	9830.25
486.96	9706.20
487.14	9928.55
487.32	10076.01
487.50	9982.38
487.68	9944.94
487.85	10225.80
488.03	10518.37
488.21	10293.68
488.39	10457.51
488.57	10560.50
488.75	10530.07
488.92	10970.09
489.10	10780.51
489.28	10956.05
489.46	10869.45
489.64	11133.93
489.81	10965.41
489.99	11300.11
490.17	11187.76
490.35	11309.47
490.53	11185.42
490.70	11531.82
490.88	11414.79
491.06	11573.95
491.24	11438.20
491.41	11829.07
491.59	11845.45
491.77	11789.28
491.95	12187.17
492.13	11906.31
492.30	11939.07
492.48	11971.84
492.66	12011.63
492.84	12231.64
493.01	12325.26
493.19	12479.74
493.37	12786.35
493.54	12402.50
493.72	12683.36
493.90	12744.22
494.08	12886.99
494.25	12999.34
494.43	12929.12
494.61	13303.60
494.79	13231.05
494.96	12924.44
495.14	13280.20
495.32	13273.18
495.49	13305.95
495.67	13556.38
495.85	13752.99
496.02	13673.41
496.20	13582.13
496.38	13682.77
496.55	13745.97
496.73	14061.94
496.91	13851.29
497.09	14204.71
497.26	14092.37
497.44	13893.42
497.62	14237.48
497.79	14459.83
497.97	14239.82
498.14	14565.15
498.32	14492.60
498.50	14726.65
498.67	14834.32
498.85	14731.33
499.03	14714.95
499.20	14831.97
499.38	14841.34
499.56	14822.61
499.73	15009.86
499.91	15094.11
500.08	15147.95
500.26	15131.56
500.44	15206.46
500.61	15508.39
500.79	15442.85
500.97	15236.89
501.14	15555.20
501.32	15630.10
501.49	15927.35
501.67	15360.94
501.84	15866.49
502.02	15894.58
502.20	15606.69
502.37	15878.19
502.55	15822.02
502.72	16023.31
502.90	16086.50
503.07	15770.53
503.25	16245.66
503.43	16203.53
503.60	16226.93
503.78	16011.60
503.95	16152.04
504.13	16372.05
504.30	16549.93
504.48	16580.36
504.65	16332.26
504.83	16486.73
505.01	16840.15
505.18	16608.44
505.36	16732.49
505.53	17011.01
505.71	16947.82
505.88	16835.47
506.06	16671.64
506.23	17301.24
506.41	16903.35
506.58	17214.64
506.76	17275.49
506.93	17408.90
507.11	17252.09
507.28	17315.28
507.46	17429.97
507.63	17401.88
507.81	17528.27
507.98	17404.22
508.16	17305.92
508.33	17465.08
508.50	17516.57
508.68	17345.71
508.85	17928.50
509.03	17944.89
509.20	17900.42
509.38	18080.64
509.55	17965.95
509.73	18228.09
509.90	17853.61
510.08	18148.51
510.25	18244.48
510.42	18298.31
510.60	18221.07
510.77	18523.00
510.95	18368.52
511.12	18530.02
511.30	18473.85
511.47	18420.02
511.64	18822.59
511.82	19035.58
511.99	18906.85
512.17	18834.29
512.34	18764.07
512.51	19042.60
512.69	18925.57
512.86	18986.43
513.04	19035.58
513.21	18827.27
513.38	18979.40
513.56	19248.57
513.73	18979.40
513.90	19098.77
514.08	19215.80
514.25	19545.81
514.43	19501.34
514.60	19782.21
514.77	19447.51
514.95	19648.80
515.12	19625.39
515.29	19466.24
515.47	19538.79
515.64	20009.24
515.81	19524.75
515.99	19992.86
516.16	19878.17
516.33	20100.52
516.51	20166.06
516.68	19822.00
516.85	19990.52
517.03	19978.81
517.20	20182.44
517.37	20318.19
517.54	20018.60
517.72	20353.30
517.89	20397.77
518.06	20217.55
518.24	20650.55
518.41	20414.15
518.58	20418.83
518.75	20453.94
518.93	20868.22
519.10	20573.31
519.27	20858.85
519.45	20573.31
519.62	20826.09
519.79	20746.51
519.96	20877.58
520.14	20943.11
520.31	20755.87
520.48	21132.70
520.65	21095.25
520.83	21223.98
521.00	21013.33
521.17	21010.99
521.34	21186.53
521.52	21123.33
521.69	21422.92
521.86	21312.92
522.03	21188.87
522.20	21544.63
522.38	21731.87
522.55	21839.54
522.72	21659.32
522.89	21385.47
523.07	21965.93
523.24	21729.53
523.41	21841.88
523.58	21626.55
523.75	21776.34
523.92	21734.21
524.10	21338.66
524.27	22036.14
524.44	22178.92
524.61	22061.89
524.78	22153.17
524.96	22272.54
525.13	22029.12
525.30	22235.09
525.47	22141.47
525.64	22253.81
525.81	22312.33
525.98	22515.95
526.16	22696.17
526.33	22672.77
526.50	22192.96
526.67	22321.69
526.84	22040.82
527.01	22625.96
527.18	22691.49
527.36	22679.79
527.53	22621.28
527.70	23051.94
527.87	23211.09
528.04	23026.19
528.21	22867.03
528.38	22937.25
528.55	23009.81
528.72	23194.71
528.89	23173.64
529.07	22878.74
529.24	23014.49
529.41	23178.33
529.58	23433.44
529.75	23248.54
529.92	23204.07
530.09	23178.33
530.26	23126.83
530.43	23515.36
530.60	23201.73
530.77	23365.57
530.94	23613.66
531.11	23339.82
531.28	23442.81
531.46	23803.25
531.63	23475.57
531.80	23793.89
531.97	23707.29
532.14	23941.34
532.31	23740.05
532.48	23969.43
532.65	23733.03
532.82	23810.27
532.99	24231.57
533.16	23515.36
533.33	23908.57
533.50	24170.71
533.67	24065.39
533.84	23910.91
534.01	24020.92
534.18	23889.85
534.35	24077.09
534.52	24311.14
534.69	24247.95
534.86	24514.77
535.03	24294.76
535.20	24194.12
535.37	24273.70
535.54	24332.21
535.71	24051.34
535.88	24121.56
536.05	24173.05
536.22	24786.27
536.38	24549.88
536.55	24645.84
536.72	24842.45
536.89	24364.98
537.06	24762.87
537.23	24741.80
537.40	24952.45
537.57	24800.32
537.74	24748.82
537.91	25303.53
538.08	25118.63
538.25	24547.54
538.42	24905.64
538.59	24699.67
538.75	24793.29
538.92	24929.05
539.09	25195.87
539.26	25219.27
539.43	25104.59
539.60	25252.04
539.77	25315.23
539.94	25017.99
540.11	25472.05
540.28	24985.22
540.44	25071.82
540.61	24884.58
540.78	25027.35
540.95	25427.58
541.12	25518.86
541.29	25521.20
541.46	25256.72
541.62	25476.73
541.79	25523.54
541.96	25284.81
542.13	25408.86
542.30	25678.02
542.47	26038.46
542.63	25694.40
542.80	25898.03
542.97	26078.25
543.14	25942.50
543.31	26101.65
543.48	25820.79
543.64	26160.17
543.81	26366.13
543.98	26342.73
544.15	26375.50
544.32	26157.83
544.48	26153.15
544.65	26398.90
544.82	26094.63
544.99	25706.10
545.16	26038.46
545.32	25816.11
545.49	26773.39
545.66	26120.38
545.83	26106.34
546.00	26508.91
546.16	26160.17
546.33	26331.03
546.50	26012.71
546.67	26434.01
546.83	26513.59
547.00	26529.97
547.17	26941.91
547.34	26333.37
547.50	26551.04
547.67	26719.56
547.84	26775.73
548.00	26700.83
548.17	26803.82
548.34	26611.89
548.51	26656.36
548.67	27143.19
548.84	26965.31
549.01	26859.99
549.18	26761.69
549.34	26857.65
549.51	27037.87
549.68	27075.32
549.84	26937.23
550.01	26859.99
550.18	26885.73
550.34	26859.99
550.51	26913.82
550.68	27185.32
550.84	26941.91
551.01	27049.57
551.18	27028.51
551.34	27068.30
551.51	26995.74
551.68	27463.85
551.84	27281.28
552.01	27175.96
552.18	27424.06
552.34	27101.06
552.51	27527.04
552.68	27005.10
552.84	26885.73
553.01	27276.60
553.18	27388.95
553.34	27648.75
553.51	27353.84
553.67	27496.61
553.84	27604.28
554.01	28058.34
554.17	27786.84
554.34	27592.58
554.51	27934.29
554.67	27796.20
554.84	27861.74
555.00	28006.85
555.17	27597.26
555.33	27679.18
555.50	27676.83
555.67	27721.30
555.83	27882.80
556.00	27920.25
556.16	28030.26
556.33	27840.67
556.50	28341.55
556.66	27906.21
556.83	27920.25
556.99	28252.61
557.16	28025.57
557.32	28105.15
557.49	28273.67
557.65	28175.37
557.82	28046.64
557.98	28163.67
558.15	28086.43
558.32	28158.99
558.48	27924.93
558.65	28519.43
558.81	28039.62
558.98	28294.74
559.14	28056.00
559.31	28109.83
559.47	28224.52
559.64	28261.97
559.80	28538.15
559.97	28599.01
560.13	28383.68
560.30	28451.55
560.46	28381.34
560.63	28182.39
560.79	28210.48
560.96	28690.29
561.12	28278.35
561.29	28137.92
561.45	28238.56
561.61	28575.60
561.78	28294.74
561.94	28360.27
562.11	28421.13
562.27	28622.41
562.44	28350.91
562.60	28374.31
562.77	28460.91
562.93	28404.74
563.10	28769.86
563.26	28573.26
563.42	28802.63
563.59	28914.98
563.75	28533.47
563.92	28540.49
564.08	28599.01
564.24	28664.54
564.41	28531.13
564.57	28907.96
564.74	28947.75
564.90	28868.17
565.07	28800.29
565.23	28460.91
565.39	28599.01
565.56	28624.75
565.72	28900.94
565.88	28390.70
566.05	28666.88
566.21	28648.16
566.38	28828.38
566.54	28996.90
566.70	29113.92
566.87	28767.52
567.03	28889.23
567.19	28936.04
567.36	29046.05
567.52	28893.91
567.68	29256.70
567.85	28769.86
568.01	29071.79
568.17	28837.74
568.34	28929.02
568.50	29214.57
568.66	29209.89
568.83	29188.82
568.99	28758.16
569.15	29092.86
569.32	28929.02
569.48	28575.60
569.64	28940.72
569.81	28868.17
569.97	28947.75
570.13	29305.85
570.30	28760.50
570.46	28980.51
570.62	28568.58
570.78	28776.89
570.95	28875.19
571.11	29053.07
571.27	28844.76
571.43	28837.74
571.60	29256.70
571.76	28554.54
571.92	28842.42
572.09	29244.99
572.25	28964.13
572.41	29570.33
572.57	28858.81
572.74	29392.45
572.90	29046.05
573.06	28854.12
573.22	29127.97
573.38	29003.92
573.55	29032.00
573.71	29411.17
573.87	29474.37
574.03	29137.33
574.20	28898.59
574.36	29200.52
574.52	29153.71
574.68	29312.87
574.84	29244.99
575.01	28903.28
575.17	29191.16
575.33	29097.54
575.49	28987.53
575.65	29153.71
575.82	29350.32
575.98	29132.65
576.14	29158.39
576.30	29099.88
576.46	28840.08
576.62	29235.63
576.79	29310.53
576.95	28877.53
577.11	29099.88
577.27	29259.04
577.43	29261.38
577.59	29331.59
577.75	29249.67
577.92	28821.36
578.08	29387.77
578.24	29352.66
578.40	28980.51
578.56	29369.04
578.72	29572.67
578.88	29460.32
579.04	29324.57
579.21	29539.90
579.37	29589.05
579.53	29252.02
579.69	29582.03
579.85	29158.39
580.01	28994.56
580.17	29474.37
580.33	29123.29
580.49	29172.44
580.65	29771.61
580.82	29575.01
580.98	29652.25
581.14	29446.28
581.30	29497.77
581.46	29195.84
581.62	29879.28
581.78	29015.62
581.94	29303.51
582.10	28999.24
582.26	29455.64
582.42	29397.13
582.58	29397.13
582.74	29305.85
582.90	29209.89
583.06	29406.49
583.22	29331.59
583.38	29305.85
583.54	29158.39
583.70	29415.85
583.86	29364.36
584.02	29301.17
584.18	29727.14
584.34	29586.71
584.50	29722.46
584.66	29460.32
584.82	29305.85
584.98	29895.66
585.14	29846.51
585.30	29186.48
585.46	29090.52
585.62	29474.37
585.78	29247.33
585.94	29589.05
586.10	29486.07
586.26	29336.27
586.42	29680.33
586.58	29701.40
586.74	29212.23
586.90	29329.25
587.06	29518.84
587.22	29738.85
587.38	29188.82
587.54	29816.08
587.70	30134.40
587.86	29757.57
588.02	29802.04
588.18	29846.51
588.34	29635.86
588.49	29762.25
588.65	29364.36
588.81	29457.98
588.97	29507.13
589.13	29802.04
589.29	29420.53
589.45	29607.78
589.61	29715.44
589.77	29984.60
589.93	30139.08
590.08	30033.75
590.24	29757.57
590.40	29633.52
590.56	29961.20
590.72	29429.90
590.88	29535.22
591.04	29930.77
591.20	29982.26
591.35	29916.73
591.51	29860.55
591.67	30211.64
591.83	30307.60
591.99	30162.48
592.15	29455.64
592.31	29731.83
592.46	29722.46
592.62	29392.45
592.78	29436.92
592.94	29839.49
593.10	29928.43
593.26	30120.35
593.41	30132.06
593.57	29502.45
593.73	29993.97
593.89	29954.18
594.05	29762.25
594.20	29869.92
594.36	29666.29
594.52	29404.15
594.68	29729.48
594.84	29598.41
594.99	29741.19
595.15	29963.54
595.31	29876.94
595.47	30052.48
595.62	30054.82
595.78	29942.47
595.94	30019.71
596.10	29923.75
596.25	29661.61
596.41	29656.93
596.57	29565.65
596.73	29921.41
596.88	29926.09
597.04	30036.09
597.20	30103.97
597.36	30155.46
597.51	30029.07
597.67	30162.48
597.83	29944.81
597.99	29867.58
598.14	29656.93
598.30	29851.19
598.46	30136.74
598.61	29748.21
598.77	29757.57
598.93	29996.31
599.09	29979.92
599.24	30286.53
599.40	30529.95
599.56	30239.72
599.71	30213.98
599.87	29792.68
600.03	29900.34
600.18	29706.08
600.34	29954.18
600.50	30223.34
600.65	30176.53
600.81	29785.66
600.97	30265.47
601.12	30576.76
601.28	30171.85
601.44	30047.80
601.59	30078.22
601.75	30298.23
601.91	30223.34
602.06	29584.37
602.22	30221.00
602.37	29724.80
602.53	29898.00
602.69	30120.35
602.84	30206.95
603.00	29956.52
603.16	30204.61
603.31	30206.95
603.47	30176.53
603.62	30160.14
603.78	29923.75
603.94	29825.45
604.09	29900.34
604.25	29923.75
604.40	30008.01
604.56	30228.02
604.71	30232.70
604.87	29544.58
605.03	29923.75
605.18	30228.02
605.34	30213.98
605.49	29628.84
605.65	29809.06
605.80	29937.79
605.96	29919.07
606.12	29799.70
606.27	29986.94
606.43	29780.98
606.58	30181.21
606.74	30141.42
606.89	29881.62
607.05	30192.91
607.20	30015.03
607.36	29699.06
607.51	29635.86
607.67	29837.15
607.82	29853.53
607.98	30008.01
608.13	30003.33
608.29	29617.14
608.44	29890.98
608.60	29954.18
608.75	30047.80
608.91	29998.65
609.06	29855.87
609.22	30068.86
609.37	29511.81
609.53	29537.56
609.68	29619.48
609.84	29802.04
609.99	29764.59
610.15	29855.87
610.30	29441.60
610.46	29652.25
610.61	30080.56
610.76	29858.21
610.92	29720.12
611.07	29720.12
611.23	29593.73
611.38	29593.73
611.54	29659.27
611.69	29535.22
611.84	29181.80
612.00	29488.41
612.15	29385.43
612.31	29490.75
612.46	29465.00
612.62	29937.79
612.77	29303.51
612.92	30010.35
613.08	29750.55
613.23	29785.66
613.39	29303.51
613.54	29387.77
613.69	29516.50
613.85	29598.41
614.00	29752.89
614.15	29617.14
614.31	29259.04
614.46	29647.57
614.62	29645.23
614.77	29645.23
614.92	29448.62
615.08	29390.11
615.23	29223.93
615.38	29357.34
615.54	29280.10
615.69	29511.81
615.84	28821.36
616.00	28837.74
616.15	29256.70
616.30	29359.68
616.46	29352.66
616.61	29165.42
616.76	29319.89
616.92	29511.81
617.07	29312.87
617.22	29596.07
617.37	29336.27
617.53	29116.26
617.68	29120.95
617.83	28851.78
617.99	28952.43
618.14	28865.83
618.29	29039.03
618.45	29060.09
618.60	29170.10
618.75	29174.78
618.90	29188.82
619.06	29296.49
619.21	28863.49
619.36	29092.86
619.51	28540.49
619.67	28706.67
619.82	28524.11
619.97	28610.71
620.12	28755.82
620.28	28914.98
620.43	29022.64
620.58	28741.78
620.73	29369.04
620.89	29078.82
621.04	29043.71
621.19	28821.36
621.34	28811.99
621.49	28498.36
621.65	28898.59
621.80	28830.72
621.95	28723.05
622.10	28472.62
622.25	28624.75
622.41	28393.04
622.56	28603.69
622.71	28900.94
622.86	28608.37
623.01	28456.23
623.16	28599.01
623.32	28556.88
623.47	28608.37
623.62	28320.48
623.77	28795.61
623.92	28322.82
624.07	28655.18
624.23	28451.55
624.38	28645.82
624.53	28346.23
624.68	28596.67
624.83	28367.29
624.98	28463.25
625.13	28493.68
625.29	28346.23
625.44	28074.73
625.59	28201.11
625.74	27990.47
625.89	28348.57
626.04	28135.58
626.19	28245.58
626.34	28158.99
626.49	27903.87
626.65	28142.60
626.80	28301.76
626.95	28175.37
627.10	28231.54
627.25	28456.23
627.40	28166.01
627.55	28229.20
627.70	28067.70
627.85	28025.57
628.00	28128.56
628.15	28053.66
628.30	27906.21
628.45	27974.08
628.60	27796.20
628.76	27784.50
628.91	27721.30
629.06	28133.24
629.21	28116.86
629.36	28039.62
629.51	27751.73
629.66	28051.32
629.81	27864.08
629.96	27662.79
630.11	27571.51
630.26	27531.72
630.41	27683.86
630.56	27814.93
630.71	27529.38
630.86	27510.66
631.01	27634.71
631.16	27541.08
631.31	27454.48
631.46	27367.88
631.61	27424.06
631.76	27962.38
631.91	27587.89
632.06	27653.43
632.21	27623.00
632.36	27417.04
632.51	26984.04
632.66	27545.76
632.81	27644.07
632.96	27548.11
633.10	27351.50
633.25	27044.89
633.40	27580.87
633.55	27438.10
633.70	27356.18
633.85	27150.21
634.00	27152.55
634.15	27580.87
634.30	27482.57
634.45	27021.48
634.60	26871.69
634.75	27363.20
634.90	27180.64
635.05	27143.19
635.19	27220.43
635.34	27285.97
635.49	27281.28
635.64	27136.17
635.79	27269.58
635.94	27131.49
636.09	27037.87
636.24	26705.51
636.39	27124.47
636.53	26904.46
636.68	26930.20
636.83	27002.76
636.98	26941.91
637.13	26991.06
637.28	27065.96
637.43	27234.47
637.57	27285.97
637.72	27288.31
637.87	26984.04
638.02	26841.26
638.17	26848.29
638.32	26471.46
638.46	26469.12
638.61	26560.40
638.76	26553.38
638.91	26672.74
639.06	26670.40
639.20	26859.99
639.35	26616.57
639.50	26838.92
639.65	26991.06
639.80	26852.97
639.94	26691.47
640.09	26815.52
640.24	26614.23
640.39	26555.72
640.54	26464.44
640.68	26218.68
640.83	26630.62
640.98	26555.72
641.13	26412.95
641.27	26368.48
641.42	26228.04
641.57	26553.38
641.72	26291.24
641.86	26115.70
642.01	26426.99
642.16	26239.75
642.31	26176.55
642.45	26370.82
642.60	26019.74
642.75	26274.85
642.90	25773.98
643.04	26267.83
643.19	26394.22
643.34	26595.51
643.48	26169.53
643.63	26206.98
643.78	26031.44
643.93	26726.58
644.07	26506.57
644.22	25898.03
644.37	26204.64
644.51	26274.85
644.66	25956.54
644.81	26099.31
644.95	26089.95
645.10	25965.90
645.25	26221.02
645.39	25624.18
645.54	26312.30
645.69	26111.02
645.83	25916.75
645.98	26043.14
646.13	26164.85
646.27	26015.05
646.42	25919.09
646.57	26010.37
646.71	25713.13
646.86	25956.54
647.00	25853.56
647.15	25736.53
647.30	25961.22
647.44	25766.96
647.59	25659.29
647.74	25731.85
647.88	25624.18
648.03	25848.88
648.17	26026.76
648.32	25858.24
648.47	26078.25
648.61	25472.05
648.76	26279.54
648.90	25799.73
649.05	25680.36
649.20	25766.96
649.34	25727.17
649.49	25120.97
649.63	25771.64
649.78	25340.98
649.92	25593.76
650.07	25362.04
650.21	25369.07
650.36	25078.84
650.51	25333.96
650.65	25675.68
650.80	25446.30
650.94	25401.83
651.09	25261.40
651.23	25535.24
651.38	25350.34
651.52	25259.06
651.67	25362.04
651.81	25699.08
651.96	25214.59
652.10	25376.09
652.25	25355.02
652.39	25249.70
652.54	25701.42
652.68	25319.92
652.83	25773.98
652.97	25055.43
653.12	25289.49
653.26	25106.93
653.41	25284.81
653.55	25120.97
653.70	25060.12
653.84	25060.12
653.99	24879.89
654.13	25041.39
654.27	25261.40
654.42	25095.22
654.56	25062.46
654.71	25287.15
654.85	25212.25
655.00	25181.82
655.14	25181.82
655.29	24856.49
655.43	25013.31
655.57	24996.92
655.72	24954.79
655.86	24812.02
656.01	25212.25
656.15	24692.65
656.30	24641.16
656.44	24849.47
656.58	24877.55
656.73	25008.62
656.87	24699.67
657.01	24545.20
657.16	24779.25
657.30	24685.63
657.45	24739.46
657.59	24947.77
657.73	24613.07
657.88	24601.37
658.02	24528.81
658.16	24449.24
658.31	24432.85
658.45	24379.02
658.60	24182.42
658.74	24114.54
658.88	24500.73
659.03	24435.19
659.17	24423.49
659.31	24732.44
659.46	24421.15
659.60	24098.16
659.74	24519.45
659.89	24285.40
660.03	24250.29
660.17	24128.58
660.32	24009.22
660.46	23960.06
660.60	24041.98
660.74	24259.65
660.89	24081.77
661.03	23765.80
661.17	24283.06
661.32	23943.68
661.46	23859.42
661.60	23999.85
661.74	23906.23
661.89	23999.85
662.03	24144.97
662.17	23873.46
662.31	23723.67
662.46	23847.72
662.60	23728.35
662.74	24018.58
662.88	23686.22
663.03	23564.51
663.17	23386.63
663.31	23264.92
663.45	23442.81
663.60	23332.80
663.74	23063.64
663.88	23550.47
664.02	23393.65
664.17	23412.38
664.31	23498.98
664.45	23365.57
664.59	23307.05
664.73	23009.81
664.88	23304.71
665.02	23094.07
665.16	23178.33
665.30	23080.02
665.44	23253.22
665.59	23131.51
665.73	23056.62
665.87	22806.18
666.01	22888.10
666.15	23108.11
666.29	22955.97
666.44	22965.34
666.58	22871.72
666.72	22838.95
666.86	22806.18
667.00	23012.15
667.14	22845.97
667.28	22754.69
667.43	22602.55
667.57	22888.10
667.71	22780.43
667.85	22476.16
667.99	22892.78
668.13	22368.50
668.27	22401.27
668.41	22314.67
668.56	22235.09
668.70	22295.94
668.84	22628.30
668.98	22419.99
669.12	22113.38
669.26	22452.76
669.40	22391.91
669.54	22380.20
669.68	22427.01
669.82	21841.88
669.96	21909.75
670.10	21916.78
670.25	22164.87
670.39	21965.93
670.53	21909.75
670.67	21717.83
670.81	22169.55
670.95	21656.98
671.09	21916.78
671.23	22183.60
671.37	21991.67
671.51	21537.61
671.65	22228.07
671.79	21860.60
671.93	21743.58
672.07	21701.45
672.21	21420.58
672.35	21083.55
672.49	21556.33
672.63	21135.04
672.77	21181.85
672.91	21380.79
673.05	21135.04
673.19	21366.75
673.33	21163.12
673.47	21088.23
673.61	21380.79
673.75	21167.80
673.89	21268.45
674.03	21057.80
674.17	21029.71
674.31	20879.92
674.45	20919.71
674.59	20828.43
674.73	20938.43
674.87	20580.33
675.01	20753.53
675.15	20641.18
675.29	20365.00
675.43	20563.95
675.56	20575.65
675.70	20444.58
675.84	20882.26
675.98	19967.11
676.12	20524.16
676.26	20510.11
676.40	20713.74
676.54	20332.23
676.68	20334.57
676.82	19852.42
676.96	20386.07
677.10	20025.62
677.23	19669.86
677.37	20023.28
677.51	19616.03
677.65	19807.95
677.79	19576.24
677.93	19679.22
678.07	19737.74
678.21	19314.10
678.34	19332.82
678.48	19637.09
678.62	19300.06
678.76	19007.49
678.90	19239.20
679.04	19164.31
679.18	19154.94
679.31	19035.58
679.45	18864.72
679.59	18906.85
679.73	18808.54
679.87	19056.64
680.00	18944.30
680.14	18616.62
680.28	18883.44
680.42	18696.20
680.56	18625.98
680.70	18436.40
680.83	18740.67
680.97	18520.66
681.11	18558.11
681.25	18438.74
681.39	18080.64
681.52	18253.84
681.66	18122.77
681.80	18310.01
681.94	18022.12
682.07	18207.03
682.21	18026.81
682.35	17776.37
682.49	17736.58
682.62	17792.75
682.76	17638.28
682.90	17795.09
683.04	17898.08
683.17	17764.67
683.31	18085.32
683.45	17771.69
683.59	17539.97
683.72	17722.54
683.86	17151.45
684.00	17371.46
684.13	17336.35
684.27	17214.64
684.41	17259.11
684.55	16926.75
684.68	16901.01
684.82	16816.75
684.96	17069.53
685.09	16669.30
685.23	16966.54
685.37	16800.37
685.50	16886.97
685.64	16786.32
685.78	16489.07
685.91	16973.56
686.05	16908.03
686.19	16559.29
686.32	16458.65
686.46	16362.69
686.60	16273.74
686.73	16217.57
686.87	16130.97
687.01	16009.26
687.14	16088.84
687.28	15922.66
687.42	16077.14
687.55	15976.50
687.69	15812.66
687.82	16177.78
687.96	16180.12
688.10	15686.27
688.23	15873.51
688.37	15262.63
688.50	15644.14
688.64	15470.94
688.78	15283.70
688.91	15653.50
689.05	15522.43
689.18	15417.11
689.32	14883.47
689.46	14974.75
689.59	14911.55
689.73	15035.60
689.86	15201.78
690.00	14944.32
690.13	15091.77
690.27	15082.41
690.41	15190.08
690.54	14904.53
690.68	14836.66
690.81	14949.00
690.95	14799.21
691.08	14771.12
691.22	14686.86
691.35	14609.62
691.49	14520.68
691.62	14490.26
691.76	14328.76
691.89	14352.16
692.03	14157.90
692.16	14260.88
692.30	14310.04
692.43	14022.15
692.57	14090.02
692.70	13907.46
692.84	14052.58
692.97	13844.27
693.11	13951.93
693.24	13844.27
693.38	13785.76
693.51	13781.07
693.65	13748.31
693.78	13542.34
693.92	13483.83
694.05	13708.52
694.19	13437.02
694.32	13495.53
694.45	13329.35
694.59	12894.01
694.72	13200.62
694.86	12830.82
694.99	13170.19
695.13	13050.83
695.26	13046.15
695.39	12912.74
695.53	13226.37
695.66	12769.96
695.80	12809.75
695.93	12765.28
696.07	12917.42
696.20	12772.30
696.33	12599.10
696.47	12559.31
696.60	12704.43
696.73	12463.35
696.87	12395.48
697.00	12325.26
697.14	12290.15
697.27	12086.53
697.40	12107.59
697.54	12194.19
697.67	12119.29
697.80	11976.52
697.94	11864.18
698.07	11873.54
698.21	11999.93
698.34	12074.82
698.47	12002.27
698.61	11864.18
698.74	11929.71
698.87	11953.12
699.01	11536.50
699.14	11618.42
699.27	11555.22
699.40	11852.47
699.54	11396.07
699.67	11412.45
699.80	11201.80
699.94	11159.67
700.07	11183.08
700.20	11173.72
700.34	11005.20
700.47	10970.09
700.60	10841.36
700.73	11028.60
700.87	10867.11
701.00	10827.32
701.13	11187.76
701.26	11098.82
701.40	10977.11
701.53	10974.77
701.66	10705.61
701.79	10635.39
701.93	10516.03
702.06	10579.22
702.19	10719.65
702.32	10427.09
702.46	10132.18
702.59	10202.40
702.72	10354.53
702.85	10263.25
702.99	10296.02
703.12	10113.45
703.25	10286.65
703.38	10083.03
703.51	10195.37
703.65	9893.44
703.78	9963.66
703.91	10211.76
704.04	9951.96
704.17	10033.88
704.31	9980.04
704.44	9776.42
704.57	9654.71
704.70	9685.14
704.83	9474.49
704.96	9542.36
705.10	9453.42
705.23	9612.58
>>>>>End Processed Spectral Data<<<<<
