SpectraSuite Data File
++++++++++++++++++++++++++++++++++++
Date: Fri Oct 18 13:58:20 GMT-05:00 2013
User: bianchi
Dark Spectrum Present: No
Reference Spectrum Present: No
Number of Sampled Component Spectra: 1
Spectrometers: USB2+H05261
Integration Time (usec): 50000 (USB2+H05261)
Spectra Averaged: 1 (USB2+H05261)
Boxcar Smoothing: 0 (USB2+H05261)
Correct for Electrical Dark: No (USB2+H05261)
Strobe/Lamp Enabled: No (USB2+H05261)
Correct for Detector Non-linearity: No (USB2+H05261)
Correct for Stray Light: No (USB2+H05261)
Number of Pixels in Processed Spectrum: 2048
>>>>>Begin Processed Spectral Data<<<<<
365.73	0.00
365.92	0.00
366.12	0.00
366.32	0.00
366.52	0.00
366.72	0.00
366.91	0.00
367.11	0.00
367.31	0.00
367.51	0.00
367.70	0.00
367.90	0.00
368.10	0.00
368.30	0.00
368.49	0.00
368.69	0.00
368.89	0.00
369.09	0.00
369.28	0.00
369.48	0.00
369.68	0.00
369.87	0.00
370.07	0.00
370.27	0.00
370.47	0.00
370.66	53.83
370.86	102.98
371.06	95.96
371.25	112.35
371.45	112.35
371.65	114.69
371.84	128.73
372.04	182.56
372.24	161.50
372.44	149.79
372.63	173.20
372.83	276.18
373.03	149.79
373.22	217.67
373.42	166.18
373.62	198.95
373.81	175.54
374.01	308.95
374.21	217.67
374.40	241.08
374.60	220.01
374.79	187.24
374.99	215.33
375.19	222.35
375.38	229.37
375.58	236.39
375.78	243.42
375.97	245.76
376.17	337.04
376.37	304.27
376.56	283.20
376.76	278.52
376.95	243.42
377.15	297.25
377.35	269.16
377.54	250.44
377.74	217.67
377.93	355.76
378.13	264.48
378.33	266.82
378.52	257.46
378.72	245.76
378.91	257.46
379.11	245.76
379.31	339.38
379.50	299.59
379.70	327.68
379.89	355.76
380.09	301.93
380.28	301.93
380.48	269.16
380.68	262.14
380.87	369.80
381.07	266.82
381.26	376.83
381.46	325.33
381.65	306.61
381.85	325.33
382.04	297.25
382.24	346.40
382.43	330.02
382.63	285.55
382.83	330.02
383.02	351.08
383.22	407.25
383.41	339.38
383.61	379.17
383.80	351.08
384.00	339.38
384.19	376.83
384.39	292.57
384.58	348.74
384.78	332.36
384.97	397.89
385.17	374.49
385.36	365.12
385.56	437.68
385.75	430.66
385.95	430.66
386.14	423.64
386.34	362.78
386.53	442.36
386.72	390.87
386.92	428.32
387.11	393.21
387.31	407.25
387.50	393.21
387.70	404.91
387.89	421.30
388.09	400.23
388.28	416.62
388.48	411.93
388.67	451.72
388.86	472.79
389.06	510.24
389.25	409.59
389.45	491.51
389.64	475.13
389.84	505.56
390.03	491.51
390.22	447.04
390.42	425.98
390.61	463.43
390.81	472.79
391.00	463.43
391.19	486.83
391.39	449.38
391.58	519.60
391.78	500.87
391.97	514.92
392.16	603.86
392.36	545.34
392.55	482.15
392.75	512.58
392.94	493.85
393.13	559.39
393.33	587.47
393.52	575.77
393.71	587.47
393.91	615.56
394.10	585.13
394.29	594.50
394.49	557.05
394.68	566.41
394.88	587.47
395.07	634.29
395.26	615.56
395.46	615.56
395.65	664.71
395.84	575.77
396.04	561.73
396.23	613.22
396.42	636.63
396.62	629.60
396.81	613.22
397.00	669.39
397.19	629.60
397.39	674.07
397.58	648.33
397.77	716.20
397.97	711.52
398.16	734.93
398.35	727.91
398.55	641.31
398.74	667.05
398.93	702.16
399.12	709.18
399.32	758.33
399.51	655.35
399.70	809.83
399.90	662.37
400.09	723.23
400.28	819.19
400.47	713.86
400.67	833.23
400.86	706.84
401.05	844.93
401.24	781.74
401.44	828.55
401.63	760.67
401.82	835.57
402.01	819.19
402.21	858.98
402.40	826.21
402.59	858.98
402.78	896.43
402.97	840.25
403.17	882.38
403.36	842.59
403.55	840.25
403.74	945.58
403.93	873.02
404.13	800.46
404.32	842.59
404.51	933.87
404.70	910.47
404.89	896.43
405.09	926.85
405.28	950.26
405.47	908.13
405.66	1048.56
405.85	994.73
406.05	933.87
406.24	957.28
406.43	1004.09
406.62	1053.24
406.81	1088.35
407.00	945.58
407.20	936.21
407.39	957.28
407.58	973.66
407.77	1078.99
407.96	1060.26
408.15	1011.11
408.34	1095.37
408.54	1048.56
408.73	987.71
408.92	1074.31
409.11	1158.57
409.30	1179.63
409.49	1043.88
409.68	1174.95
409.87	1095.37
410.07	1177.29
410.26	1158.57
410.45	1254.53
410.64	1174.95
410.83	1287.29
411.02	1254.53
411.21	1188.99
411.40	1219.42
411.59	1266.23
411.78	1275.59
411.98	1270.91
412.17	1320.06
412.36	1280.27
412.55	1259.21
412.74	1348.15
412.93	1341.13
413.12	1254.53
413.31	1380.92
413.50	1453.47
413.69	1472.20
413.88	1432.41
414.07	1460.49
414.26	1502.62
414.45	1301.34
414.64	1476.88
414.83	1357.51
415.02	1568.16
415.22	1486.24
415.41	1596.25
415.60	1479.22
415.79	1572.84
415.98	1629.01
416.17	1519.01
416.36	1584.54
416.55	1603.27
416.74	1689.87
416.93	1579.86
417.12	1692.21
417.31	1668.80
417.50	1834.98
417.69	1736.68
417.88	1703.91
418.07	1736.68
418.26	1715.61
418.45	1722.63
418.64	1813.92
418.83	1781.15
419.02	1764.76
419.21	1797.53
419.39	1846.68
419.58	1732.00
419.77	1778.81
419.96	1954.35
420.15	1825.62
420.34	1832.64
420.53	1820.94
420.72	1956.69
420.91	1863.07
421.10	1912.22
421.29	2015.20
421.48	1909.88
421.67	1926.26
421.86	2031.58
422.05	1942.64
422.24	1952.01
422.43	1954.35
422.61	2099.46
422.80	2015.20
422.99	1907.54
423.18	2019.88
423.37	2139.25
423.56	2001.16
423.75	2008.18
423.94	1891.15
424.13	1952.01
424.32	1886.47
424.50	1944.99
424.69	2083.08
424.88	2033.93
425.07	1849.02
425.26	2005.84
425.45	1937.96
425.64	2033.93
425.83	1921.58
426.01	2099.46
426.20	2134.57
426.39	2155.63
426.58	2031.58
426.77	2010.52
426.96	2080.74
427.15	2040.95
427.33	2150.95
427.52	2033.93
427.71	2179.04
427.90	2162.66
428.09	2134.57
428.28	2186.06
428.46	2253.94
428.65	2078.40
428.84	2230.53
429.03	2303.09
429.22	2193.08
429.40	2333.51
429.59	2331.17
429.78	2214.15
429.97	2066.69
430.16	2172.02
430.34	2230.53
430.53	2370.96
430.72	2368.62
430.91	2267.98
431.10	2267.98
431.28	2286.70
431.47	2333.51
431.66	2267.98
431.85	2328.83
432.03	2448.20
432.22	2441.18
432.41	2338.20
432.60	2483.31
432.79	2438.84
432.97	2452.88
433.16	2438.84
433.35	2478.63
433.54	2420.11
433.72	2583.95
433.91	2607.36
434.10	2464.58
434.28	2403.73
434.47	2527.78
434.66	2642.46
434.85	2576.93
435.03	2635.44
435.22	2719.70
435.41	2672.89
435.59	2588.63
435.78	2626.08
435.97	2605.02
436.16	2679.91
436.34	2663.53
436.53	2677.57
436.72	2693.96
436.90	2686.94
437.09	2867.16
437.28	2803.96
437.46	2677.57
437.65	2719.70
437.84	2726.72
438.02	2848.43
438.21	2757.15
438.40	2766.51
438.58	2843.75
438.77	2792.26
438.96	2871.84
439.14	2935.03
439.33	3002.91
439.52	2923.33
439.70	2972.48
439.89	3094.19
440.08	2916.31
440.26	2963.12
440.45	3066.10
440.63	3110.57
440.82	3084.83
441.01	2970.14
441.19	3260.37
441.38	3314.20
441.57	3126.96
441.75	3173.77
441.94	3269.73
442.12	3290.79
442.31	3304.84
442.50	3178.45
442.68	3201.85
442.87	3325.90
443.05	3304.84
443.24	3433.57
443.43	3407.82
443.61	3339.94
443.80	3433.57
443.98	3361.01
444.17	3274.41
444.35	3330.58
444.54	3377.39
444.73	3543.57
444.91	3307.18
445.10	3471.01
445.28	3370.37
445.47	3379.73
445.65	3454.63
445.84	3599.74
446.02	3637.19
446.21	3487.40
446.39	3421.86
446.58	3417.18
446.77	3480.38
446.95	3398.46
447.14	3620.81
447.32	3562.30
447.51	3513.14
447.69	3428.88
447.88	3447.61
448.06	3426.54
448.25	3501.44
448.43	3595.06
448.62	3506.12
448.80	3564.64
448.99	3407.82
449.17	3609.11
449.36	3569.32
449.54	3754.22
449.73	3674.64
449.91	3709.75
450.10	3634.85
450.28	3599.74
450.46	3695.71
450.65	3829.12
450.83	3779.97
451.02	3672.30
451.20	3784.65
451.39	3812.73
451.57	3794.01
451.76	3765.92
451.94	3723.79
452.13	3803.37
452.31	3880.61
452.49	3754.22
452.68	3953.16
452.86	3878.27
453.05	3882.95
453.23	3875.93
453.42	3922.74
453.60	3730.81
453.78	3896.99
453.97	3985.93
454.15	3852.52
454.34	4039.76
454.52	4051.47
454.70	3871.25
454.89	4007.00
455.07	4065.51
455.26	4028.06
455.44	4159.13
455.62	4166.15
455.81	4117.00
455.99	4070.19
456.17	4088.92
456.36	4140.41
456.54	4306.59
456.73	4140.41
456.91	4411.91
457.09	4379.14
457.28	4292.54
457.46	4339.35
457.64	4334.67
457.83	4339.35
458.01	4184.88
458.19	4346.37
458.38	4491.49
458.56	4421.27
458.74	4561.70
458.93	4493.83
459.11	4348.72
459.29	4552.34
459.48	4421.27
459.66	4496.17
459.84	4568.73
460.03	4542.98
460.21	4535.96
460.39	4662.35
460.57	4477.44
460.76	4514.89
460.94	4580.43
461.12	4662.35
461.31	4645.96
461.49	4615.54
461.67	4472.76
461.85	4800.44
462.04	4723.20
462.22	4954.91
462.40	4697.46
462.59	4676.39
462.77	4734.90
462.95	4746.61
463.13	4812.14
463.32	4952.57
463.50	4732.56
463.68	4758.31
463.86	4896.40
464.05	4671.71
464.23	4849.59
464.41	5039.17
464.59	4840.23
464.78	4791.08
464.96	4784.06
465.14	4833.21
465.32	5013.43
465.50	4959.60
465.69	4943.21
465.87	4922.15
466.05	4873.00
466.23	4994.70
466.41	5074.28
466.60	5125.77
466.78	4896.40
466.96	4964.28
467.14	5046.20
467.32	5062.58
467.51	5210.03
467.69	4964.28
467.87	5043.85
468.05	5247.48
468.23	5128.11
468.41	5032.15
468.60	5036.83
468.78	5123.43
468.96	5235.78
469.14	5343.44
469.32	5343.44
469.50	5153.86
469.69	5210.03
469.87	5472.17
470.05	5324.72
470.23	5352.81
470.41	5357.49
470.59	5521.32
470.77	5383.23
470.95	5432.38
471.14	5640.69
471.32	5423.02
471.50	5547.07
471.68	5568.13
471.86	5668.78
472.04	5675.80
472.22	5809.21
472.40	5572.82
472.58	5750.70
472.77	5734.31
472.95	5919.21
473.13	5987.09
473.31	5937.94
473.49	5818.57
473.67	5949.64
473.85	5926.24
474.03	6073.69
474.21	5998.79
474.39	5902.83
474.57	6101.78
474.75	6106.46
474.93	6200.08
475.12	6115.82
475.30	6073.69
475.48	6251.57
475.66	6244.55
475.84	6073.69
476.02	6459.88
476.20	6256.25
476.38	6408.39
476.56	6452.86
476.74	6410.73
476.92	6478.60
477.10	6560.52
477.28	6623.72
477.46	6794.58
477.64	6759.47
477.82	6665.85
478.00	6939.69
478.18	7077.78
478.36	6888.20
478.54	7030.97
478.72	6977.14
478.90	7119.91
479.08	7344.60
479.26	7157.36
479.44	7307.15
479.62	7382.05
479.80	7421.84
479.98	7473.33
480.16	7576.31
480.34	7552.91
480.52	7641.85
480.70	7847.82
480.88	7606.74
481.06	7548.23
481.24	7705.04
481.41	7754.19
481.59	7936.76
481.77	8060.80
481.95	8030.38
482.13	8182.51
482.31	8191.88
482.49	8173.15
482.67	8147.40
482.85	8351.03
483.03	8531.25
483.21	8461.04
483.39	8643.60
483.57	8631.90
483.74	8744.24
483.92	8650.62
484.10	8641.26
484.28	8957.23
484.46	9062.55
484.64	9315.33
484.82	8968.93
485.00	9027.45
485.18	9317.67
485.35	9469.81
485.53	9249.80
485.71	9434.70
485.89	9745.99
486.07	9448.74
486.25	9549.39
486.43	9652.37
486.61	9591.52
486.78	9748.33
486.96	9879.40
487.14	10118.14
487.32	10064.30
487.50	10052.60
487.68	10127.50
487.85	10303.04
488.03	10509.01
488.21	10366.23
488.39	10534.75
488.57	10551.14
488.75	10417.72
488.92	10897.53
489.10	10956.05
489.28	11066.05
489.46	11180.74
489.64	11035.63
489.81	11463.94
489.99	11133.93
490.17	11248.61
490.35	11433.52
490.53	11344.58
490.70	11751.83
490.88	11719.06
491.06	11613.74
491.24	11775.24
491.41	11765.87
491.59	11709.70
491.77	11875.88
491.95	12042.06
492.13	12182.49
492.30	12423.56
492.48	12074.82
492.66	12201.21
492.84	12428.24
493.01	12463.35
493.19	12779.32
493.37	12556.97
493.54	12636.55
493.72	12816.77
493.90	12641.23
494.08	12753.58
494.25	12915.08
494.43	13193.60
494.61	13167.85
494.79	13135.09
494.96	13174.88
495.14	13163.17
495.32	13479.15
495.49	13254.45
495.67	13774.05
495.85	13818.52
496.02	14003.43
496.20	14090.02
496.38	13987.04
496.55	13923.85
496.73	14230.46
496.91	14155.56
497.09	14078.32
497.26	14132.15
497.44	14361.53
497.62	14434.08
497.79	14630.69
497.97	14380.25
498.14	14707.93
498.32	15147.95
498.50	14750.06
498.67	14829.63
498.85	14904.53
499.03	15201.78
499.20	14815.59
499.38	14820.27
499.56	15169.01
499.73	15316.47
499.91	15344.55
500.08	15358.60
500.26	15344.55
500.44	15634.78
500.61	15379.66
500.79	15185.40
500.97	15721.38
501.14	15587.97
501.32	15929.69
501.49	15793.94
501.67	15742.44
501.84	15915.64
502.02	15833.72
502.20	15800.96
502.37	16004.58
502.55	16100.55
502.72	16105.23
502.90	16376.73
503.07	16355.66
503.25	16051.39
503.43	16271.40
503.60	16472.69
503.78	16482.05
503.95	16393.11
504.13	16355.66
504.30	16641.21
504.48	16627.17
504.65	16751.21
504.83	16482.05
505.01	17081.23
505.18	17048.46
505.36	16912.71
505.53	17195.92
505.71	17280.18
505.88	17036.76
506.06	17359.75
506.23	17348.05
506.41	17224.00
506.58	17277.83
506.76	17123.36
506.93	17408.90
507.11	17392.52
507.28	17626.57
507.46	17268.47
507.63	17647.64
507.81	17664.02
507.98	17537.63
508.16	17792.75
508.33	17902.76
508.50	17881.69
508.68	17671.04
508.85	18085.32
509.03	18223.41
509.20	18279.58
509.38	18459.81
509.55	17958.93
509.73	18183.62
509.90	18244.48
510.08	18066.60
510.25	18146.17
510.42	18553.43
510.60	18462.15
510.77	18614.28
510.95	18359.16
511.12	18595.56
511.30	18813.23
511.47	18665.77
511.64	18801.52
511.82	18848.33
511.99	18754.71
512.17	18916.21
512.34	18953.66
512.51	19145.58
512.69	19094.09
512.86	19232.18
513.04	19307.08
513.21	19417.08
513.38	19644.12
513.56	19562.20
513.73	19131.54
513.90	19314.10
514.08	19274.31
514.25	19784.55
514.43	19814.98
514.60	20168.40
514.77	19803.27
514.95	19838.38
515.12	19779.87
515.29	19683.91
515.47	19871.15
515.64	19999.88
515.81	19845.40
515.99	20020.94
516.16	20056.05
516.33	20313.51
516.51	20318.19
516.68	20325.21
516.85	20058.39
517.03	20304.15
517.20	20573.31
517.37	20247.97
517.54	20662.25
517.72	20439.90
517.89	20556.93
518.06	20615.44
518.24	20428.20
518.41	20631.82
518.58	20844.81
518.75	20596.71
518.93	20929.07
519.10	20919.71
519.27	21015.67
519.45	20908.01
519.62	21078.86
519.79	21088.23
519.96	20800.34
520.14	21172.49
520.31	21247.38
520.48	21092.91
520.65	21228.66
520.83	21188.87
521.00	21329.30
521.17	21291.85
521.34	21123.33
521.52	21294.19
521.69	21467.39
521.86	21535.27
522.03	21694.43
522.20	22075.93
522.38	21685.06
522.55	22047.85
522.72	21898.05
522.89	21729.53
523.07	22209.34
523.24	21954.22
523.41	22178.92
523.58	21998.70
523.75	22183.60
523.92	22207.00
524.10	22108.70
524.27	22441.06
524.44	22534.68
524.61	22319.35
524.78	22394.25
524.96	22314.67
525.13	22115.72
525.30	22373.18
525.47	22471.48
525.64	22775.75
525.81	22899.80
525.98	22703.20
526.16	22881.08
526.33	22852.99
526.50	22518.29
526.67	22637.66
526.84	22789.80
527.01	22586.17
527.18	22801.50
527.36	22970.02
527.53	23012.15
527.70	23311.74
527.87	23295.35
528.04	23126.83
528.21	23283.65
528.38	23126.83
528.55	23147.90
528.72	23033.21
528.89	23419.40
529.07	23255.56
529.24	23330.46
529.41	23496.64
529.58	23168.96
529.75	23311.74
529.92	23639.41
530.09	23557.49
530.26	23761.12
530.43	23513.02
530.60	23538.77
530.77	23763.46
530.94	23981.13
531.11	23700.26
531.28	23634.73
531.46	23538.77
531.63	24037.30
531.80	24266.67
531.97	24222.20
532.14	24332.21
532.31	23981.13
532.48	24238.59
532.65	23906.23
532.82	24168.37
532.99	24261.99
533.16	23978.79
533.33	24149.65
533.50	24762.87
533.67	24692.65
533.84	24519.45
534.01	24421.15
534.18	24175.39
534.35	24657.54
534.52	24180.07
534.69	24570.94
534.86	24383.70
535.03	24449.24
535.20	24601.37
535.37	24622.44
535.54	24821.38
535.71	24666.91
535.88	24723.08
536.05	24905.64
536.22	24907.98
536.38	24896.28
536.55	24842.45
536.72	25027.35
536.89	24884.58
537.06	24954.79
537.23	25027.35
537.40	24709.04
537.57	25362.04
537.74	25193.53
537.91	25343.32
538.08	25071.82
538.25	25120.97
538.42	25172.46
538.59	25219.27
538.75	25245.02
538.92	25462.69
539.09	25469.71
539.26	25273.10
539.43	25209.91
539.60	25743.55
539.77	25006.28
539.94	25479.07
540.11	25254.38
540.28	25596.10
540.44	25923.77
540.61	25577.37
540.78	25348.00
540.95	25816.11
541.12	25551.63
541.29	25680.36
541.46	26199.96
541.62	25942.50
541.79	25898.03
541.96	25493.12
542.13	25450.99
542.30	26099.31
542.47	26094.63
542.63	25933.14
542.80	25869.94
542.97	26103.99
543.14	25991.65
543.31	26391.88
543.48	26167.19
543.64	26368.48
543.81	26532.31
543.98	26305.28
544.15	26450.39
544.32	26015.05
544.48	26735.94
544.65	26436.35
544.82	26272.51
544.99	26160.17
545.16	26792.11
545.32	26726.58
545.49	26567.42
545.66	26532.31
545.83	27037.87
546.00	26862.33
546.16	26733.60
546.33	26740.62
546.50	26553.38
546.67	26518.27
546.83	26661.04
547.00	27012.12
547.17	26752.32
547.34	26806.16
547.50	27014.46
547.67	26932.54
547.84	27084.68
548.00	27089.36
548.17	27138.51
548.34	27243.84
548.51	27377.25
548.67	26899.78
548.84	27281.28
549.01	27243.84
549.18	27346.82
549.34	27192.34
549.51	27328.10
549.68	26691.47
549.84	27316.39
550.01	27559.81
550.18	27618.32
550.34	27330.44
550.51	27524.70
550.68	27557.47
550.84	26932.54
551.01	27538.74
551.18	27288.31
551.34	27428.74
551.51	27358.52
551.68	27632.36
551.84	27660.45
552.01	27548.11
552.18	27716.62
552.34	27620.66
552.51	27665.13
552.68	27644.07
552.84	27498.95
553.01	27758.75
553.18	27770.46
553.34	27833.65
553.51	27798.54
553.67	28079.41
553.84	28474.96
554.01	28170.69
554.17	27810.25
554.34	27903.87
554.51	27971.74
554.67	28011.53
554.84	28056.00
555.00	27901.53
555.17	27990.47
555.33	27901.53
555.50	28257.29
555.67	28102.81
555.83	28128.56
556.00	27737.69
556.16	28184.73
556.33	28266.65
556.50	28397.72
556.66	28189.41
556.83	28259.63
556.99	28678.58
557.16	28393.04
557.32	28376.66
557.49	28226.86
557.65	28180.05
557.82	28067.70
557.98	28680.92
558.15	28496.02
558.32	28556.88
558.48	28250.27
558.65	28624.75
558.81	28629.43
558.98	28474.96
559.14	28379.00
559.31	28556.88
559.47	28870.51
559.64	28404.74
559.80	28362.61
559.97	28643.48
560.13	28563.90
560.30	28685.61
560.46	28353.25
560.63	29085.84
560.79	28634.11
560.96	28353.25
561.12	28287.71
561.29	28662.20
561.45	28631.77
561.61	28793.27
561.78	28723.05
561.94	29069.45
562.11	29074.13
562.27	28863.49
562.44	29003.92
562.60	28765.18
562.77	28762.84
562.93	28701.99
563.10	28828.38
563.26	28631.77
563.42	29181.80
563.59	29280.10
563.75	29060.09
563.92	29057.75
564.08	28727.74
564.24	28804.97
564.41	28938.38
564.57	28907.96
564.74	29008.60
564.90	29034.35
565.07	29167.76
565.23	29249.67
565.39	28982.85
565.56	29301.17
565.72	28992.22
565.88	29191.16
566.05	28844.76
566.21	29240.31
566.38	29249.67
566.54	29556.28
566.70	29170.10
566.87	29352.66
567.03	29237.97
567.19	29392.45
567.36	29158.39
567.52	29139.67
567.68	29507.13
567.85	29296.49
568.01	29134.99
568.17	29268.40
568.34	29834.81
568.50	29113.92
568.66	29324.57
568.83	29266.06
568.99	29343.30
569.15	29060.09
569.32	29235.63
569.48	29027.32
569.64	29308.19
569.81	28985.19
569.97	29436.92
570.13	29465.00
570.30	29069.45
570.46	29710.76
570.62	29802.04
570.78	29083.50
570.95	29134.99
571.11	29345.64
571.27	28854.12
571.43	29134.99
571.60	29083.50
571.76	29390.11
571.92	29247.33
572.09	29998.65
572.25	29694.38
572.41	29631.18
572.57	29420.53
572.74	29591.39
572.90	29448.62
573.06	29130.31
573.22	29376.06
573.38	29385.43
573.55	29472.03
573.71	29549.26
573.87	29610.12
574.03	29436.92
574.20	29951.84
574.36	29357.34
574.52	29467.34
574.68	29640.54
574.84	29502.45
575.01	29598.41
575.17	29614.80
575.33	29701.40
575.49	29640.54
575.65	29996.31
575.82	29518.84
575.98	29415.85
576.14	29619.48
576.30	29898.00
576.46	29598.41
576.62	29455.64
576.79	29827.79
576.95	29757.57
577.11	29596.07
577.27	29652.25
577.43	29954.18
577.59	29621.82
577.75	29556.28
577.92	29521.18
578.08	29930.77
578.24	29783.32
578.40	29443.94
578.56	29872.26
578.72	29450.96
578.88	29780.98
579.04	29905.02
579.21	29785.66
579.37	29837.15
579.53	29977.58
579.69	29806.72
579.85	29766.93
580.01	29682.67
580.17	29600.76
580.33	30026.73
580.49	29951.84
580.65	29619.48
580.82	29642.88
580.98	29858.21
581.14	30052.48
581.30	29883.96
581.46	29820.77
581.62	29443.94
581.78	29420.53
581.94	29933.11
582.10	29411.17
582.26	29654.59
582.42	29846.51
582.58	30068.86
582.74	29979.92
582.90	29853.53
583.06	29762.25
583.22	29848.85
583.38	29851.19
583.54	29743.53
583.70	29727.14
583.86	30328.66
584.02	29820.77
584.18	29827.79
584.34	29701.40
584.50	29853.53
584.66	30174.19
584.82	29507.13
584.98	29785.66
585.14	29907.37
585.30	29530.54
585.46	29963.54
585.62	29837.15
585.78	30010.35
585.94	29837.15
586.10	29926.09
586.26	30033.75
586.42	30043.12
586.58	29900.34
586.74	29696.72
586.90	29633.52
587.06	29570.33
587.22	29666.29
587.38	29647.57
587.54	29816.08
587.70	30206.95
587.86	30050.14
588.02	30029.07
588.18	30263.13
588.34	30115.67
588.49	29935.45
588.65	29874.60
588.81	29802.04
588.97	29832.47
589.13	29961.20
589.29	29895.66
589.45	29979.92
589.61	29883.96
589.77	30305.26
589.93	30333.34
590.08	30164.82
590.24	30579.10
590.40	29968.22
590.56	30328.66
590.72	29654.59
590.88	30213.98
591.04	30382.49
591.20	30216.32
591.35	30389.52
591.51	30270.15
591.67	30183.55
591.83	30347.39
591.99	30340.36
592.15	30501.86
592.31	30405.90
592.46	30197.59
592.62	30251.42
592.78	29998.65
592.94	30321.64
593.10	30085.25
593.26	30164.82
593.41	30204.61
593.57	30464.41
593.73	30174.19
593.89	30302.92
594.05	30216.32
594.20	30181.21
594.36	30366.11
594.52	30410.58
594.68	30050.14
594.84	29996.31
594.99	30335.68
595.15	30602.50
595.31	30436.33
595.47	30302.92
595.62	30700.81
595.78	30258.45
595.94	30281.85
596.10	30321.64
596.25	30211.64
596.41	30286.53
596.57	30057.16
596.73	30213.98
596.88	30284.19
597.04	30766.34
597.20	30405.90
597.36	30532.29
597.51	30380.15
597.67	30352.07
597.83	30064.18
597.99	30810.81
598.14	30314.62
598.30	30459.73
598.46	30260.79
598.61	30431.65
598.77	30347.39
598.93	30396.54
599.09	30684.42
599.24	30827.20
599.40	30380.15
599.56	30448.03
599.71	30213.98
599.87	30412.92
600.03	30366.11
600.18	30579.10
600.34	30508.88
600.50	30366.11
600.65	30508.88
600.81	30909.11
600.97	30455.05
601.12	30944.22
601.28	30504.20
601.44	30759.32
601.59	30616.55
601.75	30462.07
601.91	30869.33
602.06	30621.23
602.22	30192.91
602.37	30464.41
602.53	30539.31
602.69	30682.08
602.84	30457.39
603.00	30333.34
603.16	30258.45
603.31	30586.12
603.47	30286.53
603.62	30228.02
603.78	30895.07
603.94	30309.94
604.09	30373.13
604.25	30300.58
604.40	30476.12
604.56	30176.53
604.71	30412.92
604.87	30536.97
605.03	30441.01
605.18	30057.16
605.34	30377.81
605.49	30284.19
605.65	30415.26
605.80	30110.99
605.96	30099.29
606.12	30363.77
606.27	30602.50
606.43	30171.85
606.58	30808.47
606.74	30515.90
606.89	30455.05
607.05	30375.47
607.20	30499.52
607.36	30438.67
607.51	30235.04
607.67	30394.20
607.82	29867.58
607.98	30099.29
608.13	30148.44
608.29	30391.86
608.44	30579.10
608.60	30302.92
608.75	30508.88
608.91	30279.51
609.06	30005.67
609.22	30309.94
609.37	30064.18
609.53	29862.90
609.68	29986.94
609.84	30162.48
609.99	30424.62
610.15	30213.98
610.30	30211.64
610.46	30342.70
610.61	30141.42
610.76	30106.31
610.92	30155.46
611.07	30433.99
611.23	30239.72
611.38	30188.23
611.54	30103.97
611.69	29893.32
611.84	30052.48
612.00	30000.99
612.15	29825.45
612.31	30160.14
612.46	29635.86
612.62	30363.77
612.77	29825.45
612.92	30064.18
613.08	29776.30
613.23	30134.40
613.39	30071.20
613.54	29809.06
613.69	29696.72
613.85	29425.22
614.00	29497.77
614.15	29699.06
614.31	29696.72
614.46	29818.42
614.62	29546.92
614.77	29834.81
614.92	30188.23
615.08	29886.30
615.23	29977.58
615.38	29521.18
615.54	29626.50
615.69	29490.75
615.84	29610.12
616.00	29706.08
616.15	29507.13
616.30	29989.28
616.46	29888.64
616.61	29343.30
616.76	29771.61
616.92	29212.23
617.07	29867.58
617.22	29720.12
617.37	29315.21
617.53	29764.59
617.68	29469.69
617.83	29137.33
617.99	29373.72
618.14	29364.36
618.29	29219.25
618.45	29560.97
618.60	29355.00
618.75	29156.05
618.90	29252.02
619.06	29476.71
619.21	29443.94
619.36	29420.53
619.51	29006.26
619.67	29294.14
619.82	29259.04
619.97	29116.26
620.12	29008.60
620.28	29249.67
620.43	29230.95
620.58	29263.72
620.73	29390.11
620.89	29249.67
621.04	28936.04
621.19	29343.30
621.34	29134.99
621.49	28966.47
621.65	29153.71
621.80	29542.24
621.95	28886.89
622.10	29404.15
622.25	28671.56
622.41	28938.38
622.56	28919.66
622.71	29139.67
622.86	28980.51
623.01	29170.10
623.16	29083.50
623.32	28671.56
623.47	29060.09
623.62	28882.21
623.77	28795.61
623.92	28790.93
624.07	29064.77
624.23	28769.86
624.38	29022.64
624.53	28868.17
624.68	29294.14
624.83	29142.01
624.98	28919.66
625.13	28802.63
625.29	28762.84
625.44	28968.81
625.59	28765.18
625.74	28531.13
625.89	28465.60
626.04	28407.08
626.19	28210.48
626.34	28568.58
626.49	28538.15
626.65	28510.07
626.80	28779.23
626.95	28788.59
627.10	28231.54
627.25	28449.21
627.40	28364.95
627.55	28346.23
627.70	28318.14
627.85	28229.20
628.00	28287.71
628.15	28421.13
628.30	28444.53
628.45	28563.90
628.60	28390.70
628.76	28510.07
628.91	28395.38
629.06	28039.62
629.21	28505.38
629.36	27957.70
629.51	28388.36
629.66	28751.14
629.81	28100.47
629.96	28051.32
630.11	28362.61
630.26	28301.76
630.41	27962.38
630.56	28091.11
630.71	28016.21
630.86	28311.12
631.01	28009.19
631.16	27894.50
631.31	27924.93
631.46	27681.52
631.61	28065.36
631.76	27608.96
631.91	28154.30
632.06	27702.58
632.21	27805.56
632.36	28105.15
632.51	27796.20
632.66	28065.36
632.81	27618.32
632.96	27983.44
633.10	27938.97
633.25	27864.08
633.40	27859.40
633.55	27978.76
633.70	27709.60
633.85	27358.52
634.00	27498.95
634.15	27754.07
634.30	27281.28
634.45	27625.34
634.60	27613.64
634.75	27777.48
634.90	27300.01
635.05	27971.74
635.19	27740.03
635.34	27744.71
635.49	27641.73
635.64	27503.64
635.79	27421.72
635.94	27604.28
636.09	27735.35
636.24	27309.37
636.39	27358.52
636.53	27349.16
636.68	27332.78
636.83	27213.41
636.98	27302.35
637.13	27143.19
637.28	27487.25
637.43	27281.28
637.57	27295.33
637.72	27288.31
637.87	27477.89
638.02	27023.83
638.17	27178.30
638.32	27124.47
638.46	26904.46
638.61	26941.91
638.76	27047.23
638.91	27168.94
639.06	27173.62
639.20	27016.80
639.35	27157.24
639.50	26862.33
639.65	27377.25
639.80	27288.31
639.94	26845.94
640.09	27316.39
640.24	26981.70
640.39	26862.33
640.54	26579.12
640.68	26808.50
640.83	26668.06
640.98	26553.38
641.13	26476.14
641.27	26890.41
641.42	26766.37
641.57	27070.64
641.72	26590.83
641.86	26780.41
642.01	26546.36
642.16	26735.94
642.31	26520.61
642.45	27220.43
642.60	26775.73
642.75	26368.48
642.90	26354.43
643.04	26394.22
643.19	26888.07
643.34	26647.00
643.48	26501.89
643.63	26749.98
643.78	26462.10
643.93	26672.74
644.07	26476.14
644.22	26579.12
644.37	26796.79
644.51	26536.99
644.66	26485.50
644.81	26478.48
644.95	26623.59
645.10	26251.45
645.25	26302.94
645.39	26415.29
645.54	26455.08
645.69	26611.89
645.83	26190.59
645.98	26452.73
646.13	26663.38
646.27	26724.24
646.42	26462.10
646.57	26139.10
646.71	25935.48
646.86	26211.66
647.00	26483.16
647.15	26113.36
647.30	26136.76
647.44	25991.65
647.59	26054.84
647.74	26118.04
647.88	25933.14
648.03	26251.45
648.17	25970.58
648.32	26398.90
648.47	26293.58
648.61	25989.31
648.76	26211.66
648.90	25895.69
649.05	26345.07
649.20	26321.66
649.34	25933.14
649.49	25769.30
649.63	25797.38
649.78	25614.82
649.92	25474.39
650.07	25940.16
650.21	26059.52
650.36	25876.96
650.51	25642.91
650.65	26115.70
650.80	25862.92
650.94	25778.66
651.09	25656.95
651.23	25649.93
651.38	25647.59
651.52	25799.73
651.67	25797.38
651.81	25759.94
651.96	25640.57
652.10	25642.91
652.25	25734.19
652.39	25668.66
652.54	25558.65
652.68	25750.57
652.83	26064.21
652.97	26024.42
653.12	25933.14
653.26	25738.87
653.41	25598.44
653.55	25530.56
653.70	25425.24
653.84	25907.39
653.99	25546.95
654.13	25340.98
654.27	25198.21
654.42	25195.87
654.56	25521.20
654.71	25605.46
654.85	25170.12
655.00	25975.27
655.14	25362.04
655.29	25411.20
655.43	25303.53
655.57	25275.45
655.72	25123.31
655.86	25142.03
656.01	25006.28
656.15	25057.78
656.30	25106.93
656.44	25167.78
656.58	25343.32
656.73	25088.20
656.87	25113.95
657.01	24854.15
657.16	25104.59
657.30	25408.86
657.45	25167.78
657.59	25036.71
657.73	24634.14
657.88	25067.14
658.02	24758.19
658.16	24968.84
658.31	24905.64
658.45	24547.54
658.60	24655.20
658.74	24826.06
658.88	24652.86
659.03	24580.31
659.17	24751.17
659.31	24891.60
659.46	24795.64
659.60	24996.92
659.74	24645.84
659.89	24374.34
660.03	24603.71
660.17	24617.75
660.32	24458.60
660.46	24346.25
660.60	24166.03
660.74	24233.91
660.89	24418.81
661.03	24643.50
661.17	24453.92
661.32	24278.38
661.46	24357.96
661.60	24011.56
661.74	24638.82
661.89	24084.11
662.03	24285.40
662.17	24088.79
662.31	24390.72
662.46	24226.89
662.60	24130.92
662.74	23892.19
662.88	24278.38
663.03	23857.08
663.17	23831.33
663.31	23733.03
663.45	23709.63
663.60	23707.29
663.74	23634.73
663.88	23630.05
664.02	23608.98
664.17	24156.67
664.31	23847.72
664.45	23868.78
664.59	23653.45
664.73	23208.75
664.88	23758.78
665.02	23655.79
665.16	23559.83
665.30	23601.96
665.44	23300.03
665.59	23260.24
665.73	23646.43
665.87	23440.47
666.01	23363.23
666.15	23346.84
666.29	23269.61
666.44	23070.66
666.58	23234.50
666.72	23236.84
666.86	23285.99
667.00	23360.89
667.14	23339.82
667.28	22682.13
667.43	22995.76
667.57	22955.97
667.71	22808.52
667.85	22834.27
667.99	22698.52
668.13	22637.66
668.27	22459.78
668.41	22579.15
668.56	22445.74
668.70	22703.20
668.84	22883.42
668.98	22740.64
669.12	22740.64
669.26	22932.57
669.40	22427.01
669.54	22534.68
669.68	22300.62
669.82	22427.01
669.96	21968.27
670.10	22031.46
670.25	22293.60
670.39	22176.58
670.53	21884.01
670.67	22214.02
670.81	22097.00
670.95	22288.92
671.09	22408.29
671.23	22450.42
671.37	22511.27
671.51	22181.26
671.65	22106.36
671.79	22010.40
671.93	21851.24
672.07	21893.37
672.21	21977.63
672.35	21371.43
672.49	21268.45
672.63	21766.98
672.77	21429.94
672.91	21397.18
673.05	21355.05
673.19	21628.89
673.33	21369.09
673.47	21476.76
673.61	21600.80
673.75	21425.26
673.89	21441.65
674.03	21350.37
674.17	21294.19
674.31	21088.23
674.45	21125.68
674.59	21383.13
674.73	21137.38
674.87	21338.66
675.01	20980.56
675.15	20957.16
675.29	20783.96
675.43	20847.15
675.56	20851.83
675.70	20978.22
675.84	21050.78
675.98	20222.23
676.12	20900.98
676.26	20964.18
676.40	20879.92
676.54	20638.84
676.68	20610.76
676.82	19800.93
676.96	20467.98
677.10	20528.84
677.23	20313.51
677.37	20034.99
677.51	20070.09
677.65	20325.21
677.79	19449.85
677.93	19756.46
678.07	19847.74
678.21	19604.33
678.34	19953.07
678.48	19756.46
678.62	19784.55
678.76	19688.59
678.90	19613.69
679.04	19569.22
679.18	19330.48
679.31	19269.63
679.45	19274.31
679.59	19180.69
679.73	19183.03
679.87	18972.38
680.00	18803.86
680.14	18944.30
680.28	19140.90
680.42	19150.26
680.56	18963.02
680.70	18808.54
680.83	18721.95
680.97	18625.98
681.11	18937.27
681.25	18801.52
681.39	18782.80
681.52	18658.75
681.66	18515.98
681.80	18478.53
681.94	18579.17
682.07	18445.76
682.21	18242.14
682.35	18113.41
682.49	18019.78
682.62	17825.52
682.76	18054.89
682.90	18008.08
683.04	17841.90
683.17	18040.85
683.31	17837.22
683.45	18078.30
683.59	17865.31
683.72	17762.33
683.86	17633.60
684.00	17727.22
684.13	17638.28
684.27	17579.76
684.41	17462.74
684.55	16812.07
684.68	17123.36
684.82	17263.79
684.96	16891.65
685.09	17001.65
685.23	16996.97
685.37	17186.55
685.50	16915.05
685.64	17090.59
685.78	16870.58
685.91	17057.82
686.05	16819.09
686.19	16940.80
686.32	17050.80
686.46	16570.99
686.60	16479.71
686.73	16428.22
686.87	16458.65
687.01	16482.05
687.14	16318.22
687.28	16142.67
687.42	16056.08
687.55	16154.38
687.69	16079.48
687.82	16084.16
687.96	16191.83
688.10	16011.60
688.23	15995.22
688.37	15740.10
688.50	16166.08
688.64	15630.10
688.78	15751.81
688.91	15969.48
689.05	15667.55
689.18	15433.49
689.32	15236.89
689.46	15225.18
689.59	15520.09
689.73	15351.57
689.86	15173.69
690.00	14956.02
690.13	15028.58
690.27	15143.27
690.41	15356.25
690.54	15255.61
690.68	15253.27
690.81	15119.86
690.95	15192.42
691.08	15016.88
691.22	14757.08
691.35	14773.46
691.49	14806.23
691.62	14977.09
691.76	14682.18
691.89	14670.48
692.03	14427.06
692.16	14040.87
692.30	14122.79
692.43	14050.24
692.57	14080.66
692.70	14160.24
692.84	13958.96
692.97	14310.04
693.11	14368.55
693.24	13984.70
693.38	13930.87
693.51	14019.81
693.65	14073.64
693.78	13551.70
693.92	13984.70
694.05	13640.64
694.19	13816.18
694.32	13518.93
694.45	13516.59
694.59	13195.94
694.72	13228.71
694.86	13247.43
694.99	13125.72
695.13	12912.74
695.26	13095.30
695.39	12905.71
695.53	12922.10
695.66	13233.39
695.80	12971.25
695.93	13057.85
696.07	13165.51
696.20	12898.69
696.33	12737.20
696.47	13008.70
696.60	12697.41
696.73	12664.64
696.87	12458.67
697.00	12723.15
697.14	12322.92
697.27	12276.11
697.40	12241.00
697.54	12470.37
697.67	12468.03
697.80	12191.85
697.94	12248.02
698.07	12063.12
698.21	11990.56
698.34	12248.02
698.47	12105.25
698.61	11903.96
698.74	12168.45
698.87	12049.08
699.01	11880.56
699.14	11850.13
699.27	11679.27
699.40	11831.41
699.54	11719.06
699.67	11499.05
699.80	11571.61
699.94	11492.03
700.07	11456.92
700.20	11105.84
700.34	11311.81
700.47	11143.29
700.60	11253.30
700.73	11108.18
700.87	11087.12
701.00	11150.31
701.13	11047.33
701.26	11206.48
701.40	10949.03
701.53	11084.78
701.66	11075.42
701.79	10731.36
701.93	10775.83
702.06	10675.18
702.19	10555.82
702.32	10553.48
702.46	10403.68
702.59	10370.91
702.72	10209.42
702.85	10501.98
702.99	10403.68
703.12	10340.49
703.25	10342.83
703.38	10230.48
703.51	10148.56
703.65	10310.06
703.78	10293.68
703.91	10176.65
704.04	10080.69
704.17	9956.64
704.31	10026.86
704.44	10003.45
704.57	10003.45
704.70	9900.47
704.83	9841.95
704.96	9888.76
705.10	9439.38
705.23	9600.88
>>>>>End Processed Spectral Data<<<<<
