SpectraSuite Data File
++++++++++++++++++++++++++++++++++++
Date: Fri Oct 18 13:58:29 GMT-05:00 2013
User: bianchi
Dark Spectrum Present: No
Reference Spectrum Present: No
Number of Sampled Component Spectra: 1
Spectrometers: USB2+H05261
Integration Time (usec): 50000 (USB2+H05261)
Spectra Averaged: 1 (USB2+H05261)
Boxcar Smoothing: 0 (USB2+H05261)
Correct for Electrical Dark: No (USB2+H05261)
Strobe/Lamp Enabled: No (USB2+H05261)
Correct for Detector Non-linearity: No (USB2+H05261)
Correct for Stray Light: No (USB2+H05261)
Number of Pixels in Processed Spectrum: 2048
>>>>>Begin Processed Spectral Data<<<<<
365.73	0.00
365.92	0.00
366.12	0.00
366.32	0.00
366.52	0.00
366.72	0.00
366.91	0.00
367.11	0.00
367.31	0.00
367.51	0.00
367.70	0.00
367.90	0.00
368.10	0.00
368.30	0.00
368.49	0.00
368.69	0.00
368.89	0.00
369.09	0.00
369.28	0.00
369.48	0.00
369.68	0.00
369.87	0.00
370.07	0.00
370.27	0.00
370.47	0.00
370.66	72.56
370.86	46.81
371.06	112.35
371.25	180.22
371.45	81.92
371.65	229.37
371.84	170.86
372.04	184.90
372.24	112.35
372.44	210.65
372.63	88.94
372.83	177.88
373.03	229.37
373.22	196.60
373.42	203.63
373.62	196.60
373.81	283.20
374.01	241.08
374.21	149.79
374.40	243.42
374.60	238.73
374.79	313.63
374.99	330.02
375.19	287.89
375.38	191.92
375.58	210.65
375.78	161.50
375.97	227.03
376.17	255.12
376.37	231.71
376.56	229.37
376.76	182.56
376.95	238.73
377.15	292.57
377.35	203.63
377.54	236.39
377.74	367.46
377.93	264.48
378.13	259.80
378.33	217.67
378.52	224.69
378.72	325.33
378.91	339.38
379.11	222.35
379.31	262.14
379.50	322.99
379.70	294.91
379.89	379.17
380.09	332.36
380.28	332.36
380.48	278.52
380.68	285.55
380.87	203.63
381.07	308.95
381.26	341.72
381.46	372.15
381.65	301.93
381.85	276.18
382.04	243.42
382.24	318.31
382.43	353.42
382.63	390.87
382.83	278.52
383.02	365.12
383.22	353.42
383.41	341.72
383.61	351.08
383.80	444.70
384.00	355.76
384.19	318.31
384.39	301.93
384.58	360.44
384.78	404.91
384.97	425.98
385.17	372.15
385.36	334.70
385.56	332.36
385.75	409.59
385.95	372.15
386.14	325.33
386.34	348.74
386.53	322.99
386.72	409.59
386.92	404.91
387.11	418.96
387.31	484.49
387.50	369.80
387.70	402.57
387.89	414.27
388.09	433.00
388.28	486.83
388.48	404.91
388.67	491.51
388.86	376.83
389.06	491.51
389.25	456.40
389.45	449.38
389.64	510.24
389.84	472.79
390.03	468.11
390.22	444.70
390.42	500.87
390.61	507.90
390.81	444.70
391.00	493.85
391.19	514.92
391.39	449.38
391.58	503.22
391.78	512.58
391.97	535.98
392.16	543.00
392.36	463.43
392.55	575.77
392.75	505.56
392.94	547.69
393.13	528.96
393.33	535.98
393.52	547.69
393.71	585.13
393.91	573.43
394.10	578.11
394.29	650.67
394.49	498.53
394.68	613.22
394.88	547.69
395.07	585.13
395.26	667.05
395.46	643.65
395.65	678.76
395.84	603.86
396.04	718.54
396.23	638.97
396.42	613.22
396.62	634.29
396.81	667.05
397.00	662.37
397.19	636.63
397.39	671.73
397.58	648.33
397.77	613.22
397.97	660.03
398.16	674.07
398.35	676.41
398.55	660.03
398.74	695.14
398.93	737.27
399.12	655.35
399.32	718.54
399.51	695.14
399.70	767.70
399.90	699.82
400.09	734.93
400.28	746.63
400.47	837.91
400.67	800.46
400.86	690.46
401.05	788.76
401.24	851.96
401.44	856.64
401.63	814.51
401.82	737.27
402.01	781.74
402.21	800.46
402.40	816.85
402.59	798.12
402.78	840.25
402.97	919.83
403.17	866.00
403.36	847.27
403.55	840.25
403.74	819.19
403.93	887.06
404.13	901.11
404.32	877.70
404.51	945.58
404.70	870.68
404.89	915.15
405.09	992.39
405.28	884.72
405.47	976.00
405.66	929.19
405.85	1027.50
406.05	971.32
406.24	1001.75
406.43	1046.22
406.62	1039.20
406.81	1020.47
407.00	1046.22
407.20	1086.01
407.39	990.05
407.58	1001.75
407.77	1116.44
407.96	1067.28
408.15	1107.07
408.34	1125.80
408.54	1041.54
408.73	1062.60
408.92	1109.41
409.11	1067.28
409.30	1142.18
409.49	1107.07
409.68	1203.04
409.87	1200.69
410.07	1221.76
410.26	1198.35
410.45	1205.38
410.64	1198.35
410.83	1188.99
411.02	1153.88
411.21	1203.04
411.40	1266.23
411.59	1179.63
411.78	1191.33
411.98	1341.13
412.17	1394.96
412.36	1362.19
412.55	1275.59
412.74	1268.57
412.93	1355.17
413.12	1242.82
413.31	1472.20
413.50	1397.30
413.69	1341.13
413.88	1476.88
414.07	1453.47
414.26	1397.30
414.45	1540.07
414.64	1455.81
414.83	1540.07
415.02	1455.81
415.22	1530.71
415.41	1607.95
415.60	1497.94
415.79	1540.07
415.98	1551.78
416.17	1636.03
416.36	1659.44
416.55	1696.89
416.74	1673.48
416.93	1713.27
417.12	1650.08
417.31	1668.80
417.50	1783.49
417.69	1729.66
417.88	1750.72
418.07	1710.93
418.26	1696.89
418.45	1739.02
418.64	1816.26
418.83	1774.13
419.02	1736.68
419.21	1846.68
419.39	1785.83
419.58	1900.52
419.77	1813.92
419.96	1823.28
420.15	1952.01
420.34	1827.96
420.53	1907.54
420.72	1870.09
420.91	1921.58
421.10	1891.15
421.29	1952.01
421.48	1886.47
421.67	1907.54
421.86	1872.43
422.05	2003.50
422.24	1914.56
422.43	1926.26
422.61	1996.48
422.80	2043.29
422.99	2003.50
423.18	2019.88
423.37	2022.22
423.56	2047.97
423.75	2064.35
423.94	1968.39
424.13	1914.56
424.32	1888.81
424.50	1998.82
424.69	2092.44
424.88	2153.29
425.07	2043.29
425.26	1942.64
425.45	2099.46
425.64	2132.23
425.83	2047.97
426.01	2162.66
426.20	2085.42
426.39	2127.55
426.58	1998.82
426.77	2069.03
426.96	2211.81
427.15	2134.57
427.33	2125.21
427.52	2003.50
427.71	2223.51
427.90	2200.10
428.09	2122.87
428.28	2111.16
428.46	2129.89
428.65	2267.98
428.84	2279.68
429.03	2197.76
429.22	2125.21
429.40	2282.02
429.59	2284.36
429.78	2225.85
429.97	2186.06
430.16	2169.68
430.34	2275.00
430.53	2310.11
430.72	2331.17
430.91	2291.38
431.10	2279.68
431.28	2373.30
431.47	2375.64
431.66	2345.22
431.85	2314.79
432.03	2394.37
432.22	2478.63
432.41	2530.12
432.60	2429.48
432.79	2424.80
432.97	2413.09
433.16	2431.82
433.35	2394.37
433.54	2471.61
433.72	2457.56
433.91	2490.33
434.10	2502.03
434.28	2525.44
434.47	2518.42
434.66	2700.98
434.85	2747.79
435.03	2448.20
435.22	2553.52
435.41	2640.12
435.59	2590.97
435.78	2605.02
435.97	2476.29
436.16	2743.11
436.34	2597.99
436.53	2562.89
436.72	2658.85
436.90	2626.08
437.09	2801.62
437.28	2579.27
437.46	2726.72
437.65	2757.15
437.84	2913.97
438.02	2672.89
438.21	2759.49
438.40	2738.43
438.58	2890.56
438.77	2820.35
438.96	2787.58
439.14	2836.73
439.33	2958.44
439.52	2892.90
439.70	2923.33
439.89	2925.67
440.08	3094.19
440.26	3049.72
440.45	3145.68
440.63	3126.96
440.82	3096.53
441.01	3122.27
441.19	2958.44
441.38	3255.69
441.57	3126.96
441.75	3213.56
441.94	3321.22
442.12	3215.90
442.31	3180.79
442.50	3314.20
442.68	3276.75
442.87	3384.41
443.05	3323.56
443.24	3389.10
443.43	3309.52
443.61	3428.88
443.80	3515.48
443.98	3398.46
444.17	3190.15
444.35	3384.41
444.54	3344.63
444.73	3613.79
444.91	3391.44
445.10	3323.56
445.28	3424.20
445.47	3361.01
445.65	3405.48
445.84	3426.54
446.02	3625.49
446.21	3433.57
446.39	3471.01
446.58	3417.18
446.77	3463.99
446.95	3293.13
447.14	3421.86
447.32	3606.77
447.51	3618.47
447.69	3440.59
447.88	3501.44
448.06	3550.59
448.25	3487.40
448.43	3463.99
448.62	3454.63
448.80	3611.45
448.99	3508.46
449.17	3754.22
449.36	3538.89
449.54	3557.61
449.73	3817.41
449.91	3693.37
450.10	3723.79
450.28	3765.92
450.46	3733.15
450.65	3786.99
450.83	3709.75
451.02	3674.64
451.20	3859.54
451.39	3859.54
451.57	3660.60
451.76	3684.00
451.94	3875.93
452.13	3941.46
452.31	3812.73
452.49	3796.35
452.68	3812.73
452.86	3812.73
453.05	3896.99
453.23	3859.54
453.42	3932.10
453.60	3801.03
453.78	3822.09
453.97	3859.54
454.15	4100.62
454.34	3885.29
454.52	3971.89
454.70	3988.27
454.89	4016.36
455.07	3960.19
455.26	4009.34
455.44	4095.94
455.62	3925.08
455.81	3997.64
455.99	4173.18
456.17	4105.30
456.36	4121.68
456.54	4166.15
456.73	4196.58
456.91	4170.83
457.09	4358.08
457.28	4362.76
457.46	4325.31
457.64	4297.22
457.83	4276.16
458.01	4227.01
458.19	4337.01
458.38	4182.54
458.56	4367.44
458.74	4484.47
458.93	4362.76
459.11	4320.63
459.29	4451.70
459.48	4641.28
459.66	4393.19
459.84	4667.03
460.03	4620.22
460.21	4552.34
460.39	4589.79
460.57	4491.49
460.76	4662.35
460.94	4594.47
461.12	4652.98
461.31	4571.07
461.49	4580.43
461.67	4519.57
461.85	4851.93
462.04	4725.54
462.22	4692.77
462.40	4753.63
462.59	4699.80
462.77	4800.44
462.95	4688.09
463.13	4737.24
463.32	4856.61
463.50	4926.83
463.68	4931.51
463.86	4727.88
464.05	4767.67
464.23	4880.02
464.41	5025.13
464.59	4812.14
464.78	4954.91
464.96	4844.91
465.14	4702.14
465.32	4917.47
465.50	5102.37
465.69	5018.11
465.87	4842.57
466.05	5034.49
466.23	5008.75
466.41	5006.41
466.60	5275.57
466.78	5039.17
466.96	5055.56
467.14	5107.05
467.32	5069.60
467.51	5177.26
467.69	4950.23
467.87	4990.02
468.05	5252.16
468.23	5088.32
468.41	5217.05
468.60	5235.78
468.78	5315.36
468.96	5142.16
469.14	5305.99
469.32	5184.29
469.50	5193.65
469.69	5462.81
469.87	5331.74
470.05	5516.64
470.23	5210.03
470.41	5378.55
470.59	5460.47
470.77	5308.34
470.95	5561.11
471.14	5523.66
471.32	5453.45
471.50	5565.79
471.68	5612.60
471.86	5591.54
472.04	5516.64
472.22	5743.67
472.40	5643.03
472.58	5530.69
472.77	5762.40
472.95	5778.78
473.13	5923.90
473.31	5806.87
473.49	5963.68
473.67	5891.13
473.85	5898.15
474.03	5905.17
474.21	6017.52
474.39	6010.50
474.57	5947.30
474.75	6258.59
474.93	6118.16
475.12	6157.95
475.30	6083.05
475.48	6022.20
475.66	6312.42
475.84	6274.98
476.02	6434.13
476.20	6445.84
476.38	6462.22
476.56	6581.59
476.74	6546.48
476.92	6532.44
477.10	6565.20
477.28	6679.89
477.46	6609.67
477.64	6773.51
477.82	6722.02
478.00	6986.50
478.18	6925.65
478.36	7012.24
478.54	7119.91
478.72	6932.67
478.90	7045.01
479.08	7222.89
479.26	7206.51
479.44	7194.81
479.62	7269.70
479.80	7368.01
479.98	7501.42
480.16	7531.84
480.34	7719.09
480.52	7625.47
480.70	7550.57
480.88	7414.82
481.06	7749.51
481.24	7625.47
481.41	7786.96
481.59	7971.86
481.77	8049.10
481.95	7953.14
482.13	7955.48
482.31	7927.39
482.49	8341.67
482.67	8159.11
482.85	8329.97
483.03	8587.43
483.21	8545.30
483.39	8627.21
483.57	8524.23
483.74	8697.43
483.92	8517.21
484.10	8617.85
484.28	8727.86
484.46	8994.68
484.64	8947.87
484.82	9125.75
485.00	9032.13
485.18	9373.85
485.35	9657.05
485.53	9523.64
485.71	9380.87
485.89	9633.64
486.07	9357.46
486.25	9635.99
486.43	9710.88
486.61	9603.22
486.78	9884.08
486.96	9839.61
487.14	9998.77
487.32	10127.50
487.50	10092.39
487.68	10146.22
487.85	10174.31
488.03	10527.73
488.21	10492.62
488.39	10513.69
488.57	10553.48
488.75	10569.86
488.92	10846.04
489.10	10827.32
489.28	10911.58
489.46	11197.12
489.64	11089.46
489.81	11190.10
489.99	11227.55
490.17	11122.23
490.35	11349.26
490.53	11487.35
490.70	11578.63
490.88	11438.20
491.06	11817.36
491.24	11620.76
491.41	11779.92
491.59	11967.16
491.77	11955.46
491.95	12135.68
492.13	12208.23
492.30	12421.22
492.48	12126.32
492.66	12102.91
492.84	12241.00
493.01	12453.99
493.19	12592.08
493.37	12718.47
493.54	12826.14
493.72	12856.56
493.90	12964.23
494.08	12950.18
494.25	13041.46
494.43	12910.40
494.61	13352.76
494.79	13401.91
494.96	13341.05
495.14	13460.42
495.32	13659.37
495.49	13345.73
495.67	13488.51
495.85	13591.49
496.02	13951.93
496.20	13628.94
496.38	13860.65
496.55	13848.95
496.73	14120.45
496.91	14113.43
497.09	14125.13
497.26	14356.85
497.44	14366.21
497.62	14190.67
497.79	14710.27
497.97	14581.54
498.14	14668.14
498.32	14810.91
498.50	14658.78
498.67	14972.41
498.85	14738.35
499.03	14963.04
499.20	14876.44
499.38	15187.74
499.56	15300.08
499.73	15204.12
499.91	15213.48
500.08	15241.57
500.26	15131.56
500.44	15573.92
500.61	15438.17
500.79	15534.14
500.97	15466.26
501.14	16107.57
501.32	15728.40
501.49	15742.44
501.67	15627.76
501.84	15892.24
502.02	15719.04
502.20	15833.72
502.37	16219.91
502.55	16027.99
502.72	16105.23
502.90	16203.53
503.07	15901.60
503.25	16329.92
503.43	16573.33
503.60	16596.74
503.78	16308.85
503.95	16533.54
504.13	16620.14
504.30	16517.16
504.48	16343.96
504.65	16664.61
504.83	16879.94
505.01	16959.52
505.18	16945.48
505.36	17263.79
505.53	17027.40
505.71	17146.76
505.88	17291.88
506.06	16716.11
506.23	17596.15
506.41	17128.04
506.58	17493.16
506.76	17621.89
506.93	17317.62
507.11	17214.64
507.28	17425.29
507.46	17341.03
507.63	17844.24
507.81	17902.76
507.98	17717.86
508.16	17652.32
508.33	17699.13
508.50	17825.52
508.68	17944.89
508.85	18164.90
509.03	18120.43
509.20	18019.78
509.38	18050.21
509.55	18434.06
509.73	18258.52
509.90	18417.68
510.08	18001.06
510.25	17907.44
510.42	18649.39
510.60	18796.84
510.77	18857.70
510.95	18845.99
511.12	18434.06
511.30	18384.91
511.47	18661.09
511.64	18803.86
511.82	18906.85
511.99	18944.30
512.17	19147.92
512.34	18927.91
512.51	18829.61
512.69	19318.78
512.86	19300.06
513.04	19185.37
513.21	19426.45
513.38	19311.76
513.56	19524.75
513.73	19360.91
513.90	19414.74
514.08	19580.92
514.25	19508.37
514.43	19506.02
514.60	19962.43
514.77	19770.51
514.95	19779.87
515.12	19964.77
515.29	19969.45
515.47	19646.46
515.64	19894.55
515.81	19700.29
515.99	19943.70
516.16	20051.37
516.33	20067.75
516.51	20308.83
516.68	20072.43
516.85	20304.15
517.03	20498.41
517.20	20208.19
517.37	20350.96
517.54	20449.26
517.72	20346.28
517.89	20372.02
518.06	20556.93
518.24	20601.40
518.41	20407.13
518.58	20800.34
518.75	20851.83
518.93	20926.73
519.10	20856.51
519.27	20858.85
519.45	20807.36
519.62	20982.90
519.79	21106.95
519.96	20652.89
520.14	21289.51
520.31	21010.99
520.48	21139.72
520.65	20971.20
520.83	21420.58
521.00	21198.23
521.17	21479.10
521.34	21085.89
521.52	21532.93
521.69	21352.71
521.86	21867.63
522.03	21839.54
522.20	21596.12
522.38	21975.29
522.55	21727.19
522.72	21605.49
522.89	21539.95
523.07	21830.18
523.24	21982.31
523.41	22052.53
523.58	22040.82
523.75	22073.59
523.92	21968.27
524.10	22249.13
524.27	21996.35
524.44	22267.86
524.61	22602.55
524.78	22307.65
524.96	22279.56
525.13	22478.50
525.30	22389.56
525.47	22534.68
525.64	22501.91
525.81	22333.39
525.98	22754.69
526.16	22672.77
526.33	22895.12
526.50	22766.39
526.67	22597.87
526.84	22511.27
527.01	22808.52
527.18	22546.38
527.36	23089.38
527.53	22740.64
527.70	23480.25
527.87	23150.24
528.04	22829.59
528.21	22977.04
528.38	22939.59
528.55	23323.44
528.72	23143.22
528.89	23211.09
529.07	23506.00
529.24	23232.16
529.41	23599.62
529.58	23353.87
529.75	23466.21
529.92	23718.99
530.09	23356.21
530.26	23534.09
530.43	23498.98
530.60	23669.84
530.77	23482.59
530.94	23651.11
531.11	23569.19
531.28	23672.18
531.46	23861.76
531.63	24077.09
531.80	23960.06
531.97	24051.34
532.14	23995.17
532.31	23747.08
532.48	23735.37
532.65	24173.05
532.82	23922.62
532.99	24311.14
533.16	23758.78
533.33	24311.14
533.50	24123.90
533.67	24116.88
533.84	24086.45
534.01	23964.75
534.18	24292.42
534.35	24444.56
534.52	24570.94
534.69	24128.58
534.86	24339.23
535.03	24411.79
535.20	24301.78
535.37	24741.80
535.54	24666.91
535.71	24772.23
535.88	24809.68
536.05	24552.22
536.22	24938.41
536.38	25067.14
536.55	24802.66
536.72	24896.28
536.89	24683.29
537.06	24758.19
537.23	24999.26
537.40	25139.69
537.57	25167.78
537.74	25081.18
537.91	25371.41
538.08	24889.26
538.25	24938.41
538.42	25010.96
538.59	24950.11
538.75	24884.58
538.92	25025.01
539.09	25458.01
539.26	25500.14
539.43	25235.66
539.60	25338.64
539.77	25333.96
539.94	25490.77
540.11	25663.97
540.28	25450.99
540.44	25458.01
540.61	25446.30
540.78	25366.73
540.95	25287.15
541.12	25572.69
541.29	25593.76
541.46	25872.28
541.62	25722.49
541.79	25741.21
541.96	25584.40
542.13	25614.82
542.30	25497.80
542.47	25893.35
542.63	26040.80
542.80	26316.98
542.97	26132.08
543.14	26132.08
543.31	25837.17
543.48	26319.32
543.64	26431.67
543.81	26639.98
543.98	26654.02
544.15	26202.30
544.32	26424.65
544.48	26569.76
544.65	26441.03
544.82	26464.44
544.99	25937.82
545.16	26485.50
545.32	26150.81
545.49	26565.08
545.66	27175.96
545.83	26958.29
546.00	26906.80
546.16	26604.87
546.33	26396.56
546.50	26143.78
546.67	26831.90
546.83	26672.74
547.00	26717.22
547.17	26728.92
547.34	26850.63
547.50	27040.21
547.67	26984.04
547.84	26923.18
548.00	27307.03
548.17	27012.12
548.34	27269.58
548.51	27239.15
548.67	27440.44
548.84	27204.05
549.01	27197.02
549.18	27021.48
549.34	27337.46
549.51	27047.23
549.68	27154.90
549.84	27215.75
550.01	27501.29
550.18	27157.24
550.34	26981.70
550.51	27538.74
550.68	27213.41
550.84	27246.18
551.01	27517.68
551.18	26895.10
551.34	27136.17
551.51	27281.28
551.68	27510.66
551.84	27634.71
552.01	27161.92
552.18	27578.53
552.34	27688.54
552.51	27721.30
552.68	27646.41
552.84	27374.91
553.01	27449.80
553.18	27725.99
553.34	27786.84
553.51	27569.17
553.67	27494.27
553.84	28100.47
554.01	28231.54
554.17	27988.13
554.34	27363.20
554.51	27763.43
554.67	28093.45
554.84	28126.22
555.00	27971.74
555.17	27962.38
555.33	27718.96
555.50	27798.54
555.67	28034.94
555.83	27950.68
556.00	28360.27
556.16	28423.47
556.33	27936.63
556.50	28109.83
556.66	28158.99
556.83	28219.84
556.99	28341.55
557.16	28629.43
557.32	28496.02
557.49	28357.93
557.65	28222.18
557.82	27784.50
557.98	28140.26
558.15	28369.63
558.32	28531.13
558.48	28156.64
558.65	28320.48
558.81	28444.53
558.98	28397.72
559.14	28964.13
559.31	28547.51
559.47	28498.36
559.64	28402.40
559.80	28683.27
559.97	28491.34
560.13	28582.62
560.30	28540.49
560.46	28418.78
560.63	28570.92
560.79	28535.81
560.96	28966.47
561.12	28533.47
561.29	28397.72
561.45	28542.83
561.61	28599.01
561.78	28772.21
561.94	28577.94
562.11	28907.96
562.27	28931.36
562.44	29188.82
562.60	28500.70
562.77	28875.19
562.93	28545.17
563.10	29036.69
563.26	28732.42
563.42	29027.32
563.59	28954.77
563.75	28828.38
563.92	29383.09
564.08	29008.60
564.24	28774.55
564.41	28858.81
564.57	28739.44
564.74	29003.92
564.90	28783.91
565.07	29076.48
565.23	29235.63
565.39	29003.92
565.56	29116.26
565.72	28898.59
565.88	28811.99
566.05	28912.64
566.21	29336.27
566.38	29043.71
566.54	29193.50
566.70	29254.36
566.87	29219.25
567.03	29570.33
567.19	29504.79
567.36	29326.91
567.52	28907.96
567.68	29134.99
567.85	29156.05
568.01	28945.41
568.17	29179.46
568.34	29181.80
568.50	28837.74
568.66	29198.18
568.83	29434.58
568.99	29331.59
569.15	29163.08
569.32	29289.46
569.48	29247.33
569.64	29153.71
569.81	29422.87
569.97	29233.29
570.13	29591.39
570.30	29198.18
570.46	29188.82
570.62	29387.77
570.78	29376.06
570.95	29134.99
571.11	29083.50
571.27	29024.98
571.43	29476.71
571.60	29589.05
571.76	28999.24
571.92	29469.69
572.09	29345.64
572.25	29200.52
572.41	29380.74
572.57	29415.85
572.74	29862.90
572.90	29291.80
573.06	29677.99
573.22	29275.42
573.38	29352.66
573.55	28907.96
573.71	29521.18
573.87	29612.46
574.03	29387.77
574.20	29579.69
574.36	29432.24
574.52	29200.52
574.68	29132.65
574.84	29647.57
575.01	29343.30
575.17	29605.44
575.33	29656.93
575.49	29785.66
575.65	29806.72
575.82	29542.24
575.98	29415.85
576.14	29532.88
576.30	29914.39
576.46	29137.33
576.62	29280.10
576.79	29493.09
576.95	29462.66
577.11	29322.23
577.27	29790.34
577.43	29504.79
577.59	29467.34
577.75	29666.29
577.92	29633.52
578.08	29165.42
578.24	29851.19
578.40	29673.31
578.56	29886.30
578.72	29500.11
578.88	29930.77
579.04	30033.75
579.21	29785.66
579.37	29460.32
579.53	29886.30
579.69	29202.86
579.85	29563.31
580.01	29862.90
580.17	29504.79
580.33	29750.55
580.49	29612.46
580.65	29542.24
580.82	29811.40
580.98	29617.14
581.14	29825.45
581.30	29907.37
581.46	29355.00
581.62	29605.44
581.78	29263.72
581.94	29905.02
582.10	29516.50
582.26	29502.45
582.42	29722.46
582.58	29579.69
582.74	29312.87
582.90	29879.28
583.06	30015.03
583.22	29724.80
583.38	29912.05
583.54	29752.89
583.70	29530.54
583.86	29645.23
584.02	29387.77
584.18	29738.85
584.34	29905.02
584.50	30129.72
584.66	29956.52
584.82	29743.53
584.98	29769.27
585.14	29752.89
585.30	29825.45
585.46	29518.84
585.62	29680.33
585.78	29717.78
585.94	29397.13
586.10	29914.39
586.26	29495.43
586.42	30005.67
586.58	29731.83
586.74	29977.58
586.90	29673.31
587.06	29825.45
587.22	29813.74
587.38	29670.97
587.54	29844.17
587.70	30232.70
587.86	29837.15
588.02	29958.86
588.18	29972.90
588.34	29752.89
588.49	30110.99
588.65	29617.14
588.81	29453.30
588.97	29832.47
589.13	30113.33
589.29	29940.13
589.45	30129.72
589.61	30316.96
589.77	30134.40
589.93	30206.95
590.08	30017.37
590.24	30043.12
590.40	30134.40
590.56	30389.52
590.72	29839.49
590.88	29900.34
591.04	30089.93
591.20	30242.06
591.35	30267.81
591.51	30508.88
591.67	30621.23
591.83	30441.01
591.99	30370.79
592.15	30150.78
592.31	30080.56
592.46	29673.31
592.62	29923.75
592.78	29802.04
592.94	29979.92
593.10	29989.28
593.26	30560.37
593.41	30146.10
593.57	30314.62
593.73	30148.44
593.89	30167.16
594.05	30218.66
594.20	30237.38
594.36	30529.95
594.52	30092.27
594.68	29989.28
594.84	29647.57
594.99	30583.78
595.15	30167.16
595.31	30543.99
595.47	30160.14
595.62	30637.61
595.78	29937.79
595.94	30597.82
596.10	30190.57
596.25	30305.26
596.41	30005.67
596.57	29937.79
596.73	29792.68
596.88	30239.72
597.04	30291.21
597.20	30141.42
597.36	30370.79
597.51	30625.91
597.67	30352.07
597.83	30328.66
597.99	30347.39
598.14	30635.27
598.30	30323.98
598.46	29881.62
598.61	30120.35
598.77	30316.96
598.93	30195.25
599.09	29961.20
599.24	30541.65
599.40	30483.14
599.56	30527.61
599.71	30403.56
599.87	30366.11
600.03	30803.79
600.18	30408.24
600.34	29825.45
600.50	30263.13
600.65	30433.99
600.81	30450.37
600.97	30354.41
601.12	30333.34
601.28	30696.13
601.44	30438.67
601.59	30380.15
601.75	30286.53
601.91	30415.26
602.06	30050.14
602.22	30328.66
602.37	30125.04
602.53	30274.83
602.69	30108.65
602.84	30260.79
603.00	30513.56
603.16	30726.55
603.31	30546.33
603.47	30312.28
603.62	30190.57
603.78	30656.34
603.94	30382.49
604.09	30169.51
604.25	30033.75
604.40	30209.29
604.56	29844.17
604.71	30342.70
604.87	30230.36
605.03	30518.25
605.18	30242.06
605.34	30441.01
605.49	30338.02
605.65	30506.54
605.80	29996.31
605.96	29949.50
606.12	29979.92
606.27	30394.20
606.43	30171.85
606.58	30321.64
606.74	30501.86
606.89	29954.18
607.05	30192.91
607.20	30103.97
607.36	30171.85
607.51	30340.36
607.67	29792.68
607.82	30164.82
607.98	30307.60
608.13	30064.18
608.29	29666.29
608.44	30370.79
608.60	30110.99
608.75	30366.11
608.91	30080.56
609.06	30000.99
609.22	30167.16
609.37	29979.92
609.53	29986.94
609.68	30347.39
609.84	30085.25
609.99	29659.27
610.15	29975.24
610.30	30174.19
610.46	29914.39
610.61	30314.62
610.76	30345.05
610.92	30462.07
611.07	30225.68
611.23	29895.66
611.38	29867.58
611.54	29514.16
611.69	29755.23
611.84	29631.18
612.00	29682.67
612.15	29558.63
612.31	30199.93
612.46	29654.59
612.62	30003.33
612.77	29902.68
612.92	29879.28
613.08	29778.64
613.23	29951.84
613.39	29677.99
613.54	29762.25
613.69	29366.70
613.85	29598.41
614.00	30122.69
614.15	29802.04
614.31	29764.59
614.46	29500.11
614.62	29921.41
614.77	29757.57
614.92	29364.36
615.08	29539.90
615.23	29809.06
615.38	29455.64
615.54	29383.09
615.69	29582.03
615.84	29514.16
616.00	29434.58
616.15	29633.52
616.30	29965.88
616.46	29221.59
616.61	29804.38
616.76	29572.67
616.92	29577.35
617.07	29486.07
617.22	29415.85
617.37	29233.29
617.53	29879.28
617.68	29518.84
617.83	29418.19
617.99	29188.82
618.14	29209.89
618.29	29666.29
618.45	29830.13
618.60	29340.96
618.75	29359.68
618.90	29362.02
619.06	29387.77
619.21	29465.00
619.36	29198.18
619.51	29046.05
619.67	28961.79
619.82	28985.19
619.97	28999.24
620.12	28741.78
620.28	29048.39
620.43	29387.77
620.58	29221.59
620.73	29254.36
620.89	29312.87
621.04	29612.46
621.19	29153.71
621.34	29142.01
621.49	28797.95
621.65	28851.78
621.80	28910.30
621.95	29069.45
622.10	28999.24
622.25	28629.43
622.41	28793.27
622.56	28713.69
622.71	28924.34
622.86	29163.08
623.01	29153.71
623.16	28994.56
623.32	28945.41
623.47	28980.51
623.62	29092.86
623.77	28587.30
623.92	28856.46
624.07	28533.47
624.23	28339.21
624.38	28641.14
624.53	28823.70
624.68	28610.71
624.83	29172.44
624.98	28889.23
625.13	28793.27
625.29	28730.08
625.44	28524.11
625.59	28114.52
625.74	28711.35
625.89	28332.18
626.04	28332.18
626.19	28816.68
626.34	28463.25
626.49	28053.66
626.65	28421.13
626.80	28474.96
626.95	28786.25
627.10	28699.65
627.25	27920.25
627.40	28140.26
627.55	28276.01
627.70	28341.55
627.85	27995.15
628.00	28395.38
628.15	28386.02
628.30	28039.62
628.45	28568.58
628.60	28252.61
628.76	28278.35
628.91	28383.68
629.06	28268.99
629.21	28285.37
629.36	28091.11
629.51	28051.32
629.66	28273.67
629.81	27857.06
629.96	28105.15
630.11	28390.70
630.26	28318.14
630.41	27934.29
630.56	27721.30
630.71	27796.20
630.86	27852.38
631.01	27962.38
631.16	28093.45
631.31	27892.16
631.46	27508.32
631.61	28051.32
631.76	27840.67
631.91	27772.80
632.06	27772.80
632.21	27840.67
632.36	27754.07
632.51	27637.05
632.66	27733.01
632.81	27641.73
632.96	27754.07
633.10	28009.19
633.25	27819.61
633.40	27807.90
633.55	27770.46
633.70	27417.04
633.85	27449.80
634.00	27388.95
634.15	27562.15
634.30	27667.47
634.45	27950.68
634.60	27850.03
634.75	27283.62
634.90	27505.98
635.05	27946.00
635.19	27367.88
635.34	27515.34
635.49	27440.44
635.64	27578.53
635.79	27660.45
635.94	27398.31
636.09	27122.13
636.24	27065.96
636.39	27307.03
636.53	26895.10
636.68	27124.47
636.83	27192.34
636.98	27424.06
637.13	27686.20
637.28	27524.70
637.43	27232.13
637.57	27295.33
637.72	26958.29
637.87	26932.54
638.02	27346.82
638.17	27187.66
638.32	27164.26
638.46	27098.72
638.61	26885.73
638.76	26813.18
638.91	26855.31
639.06	26689.13
639.20	27161.92
639.35	26941.91
639.50	27300.01
639.65	27042.55
639.80	26969.99
639.94	27129.15
640.09	27285.97
640.24	26820.20
640.39	26810.84
640.54	26764.03
640.68	26682.11
640.83	26761.69
640.98	26672.74
641.13	26717.22
641.27	27065.96
641.42	26675.09
641.57	26906.80
641.72	26499.55
641.86	26766.37
642.01	26827.22
642.16	26394.22
642.31	26820.20
642.45	26728.92
642.60	26279.54
642.75	26118.04
642.90	26387.20
643.04	26544.02
643.19	26506.57
643.34	26295.92
643.48	26401.24
643.63	26534.65
643.78	26560.40
643.93	26679.77
644.07	26518.27
644.22	26485.50
644.37	26391.88
644.51	26118.04
644.66	26539.33
644.81	25958.88
644.95	26134.42
645.10	26052.50
645.25	26295.92
645.39	26307.62
645.54	26099.31
645.69	26288.90
645.83	26258.47
645.98	26368.48
646.13	26298.26
646.27	26539.33
646.42	26103.99
646.57	26398.90
646.71	26101.65
646.86	26026.76
647.00	26120.38
647.15	26178.89
647.30	26223.36
647.44	26242.09
647.59	26190.59
647.74	25895.69
647.88	26302.94
648.03	25970.58
648.17	26298.26
648.32	26136.76
648.47	26263.15
648.61	25752.91
648.76	26120.38
648.90	26043.14
649.05	26052.50
649.20	25752.91
649.34	25699.08
649.49	25979.95
649.63	25710.78
649.78	25523.54
649.92	25563.33
650.07	25975.27
650.21	25720.15
650.36	25792.70
650.51	25832.49
650.65	25626.53
650.80	26096.97
650.94	25563.33
651.09	25504.82
651.23	25565.67
651.38	25659.29
651.52	25326.94
651.67	25483.75
651.81	25722.49
651.96	25853.56
652.10	25914.41
652.25	25668.66
652.39	25710.78
652.54	25654.61
652.68	25825.47
652.83	25378.43
652.97	25731.85
653.12	25525.88
653.26	25600.78
653.41	25214.59
653.55	25766.96
653.70	25406.52
653.84	25575.03
653.99	25259.06
654.13	25343.32
654.27	25301.19
654.42	25404.17
654.56	25385.45
654.71	25064.80
654.85	25275.45
655.00	25359.70
655.14	25228.63
655.29	25345.66
655.43	25195.87
655.57	24982.88
655.72	25432.26
655.86	25123.31
656.01	25113.95
656.15	25088.20
656.30	25392.47
656.44	25137.35
656.58	24950.11
656.73	25064.80
656.87	25076.50
657.01	25027.35
657.16	25032.03
657.30	24971.18
657.45	24968.84
657.59	24765.21
657.73	25053.09
657.88	25263.74
658.02	24432.85
658.16	24711.38
658.31	25076.50
658.45	24823.72
658.60	24704.35
658.74	24730.10
658.88	24882.24
659.03	24666.91
659.17	24718.40
659.31	24793.29
659.46	24788.61
659.60	24683.29
659.74	24545.20
659.89	24453.92
660.03	24484.34
660.17	24755.85
660.32	24526.47
660.46	24376.68
660.60	24201.14
660.74	24067.73
660.89	24276.04
661.03	24203.48
661.17	23927.30
661.32	24245.61
661.46	24566.26
661.60	24105.18
661.74	24283.06
661.89	24140.29
662.03	24182.42
662.17	24341.57
662.31	24044.32
662.46	24159.01
662.60	24109.86
662.74	24072.41
662.88	23697.92
663.03	23681.54
663.17	23377.27
663.31	23995.17
663.45	23967.09
663.60	23798.57
663.74	23475.57
663.88	23840.70
664.02	23571.54
664.17	23960.06
664.31	23520.04
664.45	23744.73
664.59	23201.73
664.73	23358.55
664.88	23763.46
665.02	23424.08
665.16	23613.66
665.30	23463.87
665.44	23208.75
665.59	23159.60
665.73	23393.65
665.87	22902.14
666.01	23414.72
666.15	23119.81
666.29	23145.56
666.44	23030.87
666.58	23082.36
666.72	23005.13
666.86	23213.43
667.00	23220.45
667.14	23335.14
667.28	23103.43
667.43	22663.41
667.57	22750.01
667.71	22906.82
667.85	22691.49
667.99	22710.22
668.13	22874.06
668.27	22654.05
668.41	22967.68
668.56	22522.98
668.70	22630.64
668.84	22782.77
668.98	22677.45
669.12	22829.59
669.26	22897.46
669.40	22799.16
669.54	22998.10
669.68	22415.31
669.82	22134.45
669.96	22118.06
670.10	22221.05
670.25	22349.78
670.39	21825.50
670.53	22204.66
670.67	22043.17
670.81	22331.05
670.95	22415.31
671.09	21841.88
671.23	22073.59
671.37	22003.38
671.51	22354.46
671.65	21968.27
671.79	22104.02
671.93	21834.86
672.07	21979.97
672.21	21837.20
672.35	21504.84
672.49	21624.21
672.63	21406.54
672.77	21834.86
672.91	21596.12
673.05	21851.24
673.19	21671.02
673.33	21516.54
673.47	21317.60
673.61	21266.11
673.75	21404.20
673.89	21422.92
674.03	21167.80
674.17	20973.54
674.31	21202.91
674.45	20994.61
674.59	20809.70
674.73	21123.33
674.87	20774.60
675.01	21195.89
675.15	20936.09
675.29	21193.55
675.43	20835.45
675.56	20779.28
675.70	20795.66
675.84	20826.09
675.98	20376.70
676.12	20835.45
676.26	20870.56
676.40	20416.49
676.54	20744.17
676.68	20648.21
676.82	19908.60
676.96	20002.22
677.10	20201.16
677.23	20222.23
677.37	20023.28
677.51	19950.73
677.65	19946.05
677.79	19927.32
677.93	19630.07
678.07	19812.63
678.21	19620.71
678.34	19660.50
678.48	19559.86
678.62	19555.18
678.76	19520.07
678.90	19126.86
679.04	19300.06
679.18	19421.77
679.31	18970.04
679.45	19194.73
679.59	19173.67
679.73	19000.47
679.87	18941.96
680.00	18867.06
680.14	18838.97
680.28	18860.04
680.42	19122.18
680.56	18958.34
680.70	18611.94
680.83	18726.63
680.97	18724.29
681.11	18607.26
681.25	18595.56
681.39	18492.57
681.52	18328.74
681.66	18258.52
681.80	18195.32
681.94	18321.71
682.07	18321.71
682.21	17994.04
682.35	18239.79
682.49	18019.78
682.62	17877.01
682.76	18029.15
682.90	17884.03
683.04	17867.65
683.17	17935.53
683.31	17947.23
683.45	17958.93
683.59	17738.92
683.72	17748.28
683.86	17376.14
684.00	17525.93
684.13	17551.68
684.27	17338.69
684.41	17287.20
684.55	16971.22
684.68	17205.28
684.82	17020.38
684.96	16896.33
685.09	17022.72
685.23	16863.56
685.37	16809.73
685.50	17046.12
685.64	17011.01
685.78	16793.34
685.91	16781.64
686.05	16830.79
686.19	16758.24
686.32	16891.65
686.46	16566.31
686.60	16428.22
686.73	16498.44
686.87	16423.54
687.01	16561.63
687.14	16018.63
687.28	16147.36
687.42	16032.67
687.55	16205.87
687.69	16011.60
687.82	16016.29
687.96	16112.25
688.10	15868.83
688.23	15845.43
688.37	15658.18
688.50	15920.32
688.64	15508.39
688.78	15747.12
688.91	15510.73
689.05	15606.69
689.18	15459.24
689.32	15154.97
689.46	15199.44
689.59	15236.89
689.73	15403.07
689.86	15131.56
690.00	15005.17
690.13	15405.41
690.27	15281.36
690.41	14981.77
690.54	15105.82
690.68	15122.20
690.81	14855.38
690.95	14857.72
691.08	14920.92
691.22	15066.03
691.35	14775.80
691.49	14960.70
691.62	14665.80
691.76	14382.59
691.89	14565.15
692.03	14193.01
692.16	14209.39
692.30	14211.73
692.43	13973.00
692.57	14104.07
692.70	14129.81
692.84	13944.91
692.97	14033.85
693.11	14008.11
693.24	14036.19
693.38	13848.95
693.51	13804.48
693.65	13846.61
693.78	13832.57
693.92	13984.70
694.05	13907.46
694.19	13818.52
694.32	13427.65
694.45	13429.99
694.59	13167.85
694.72	13331.69
694.86	13310.63
694.99	13046.15
695.13	13198.28
695.26	12819.11
695.39	12865.92
695.53	13027.42
695.66	13062.53
695.80	12926.78
695.93	13027.42
696.07	12954.87
696.20	12905.71
696.33	12741.88
696.47	12657.62
696.60	12418.88
696.73	12732.51
696.87	12643.57
697.00	12339.30
697.14	12329.94
697.27	12222.28
697.40	12128.66
697.54	12222.28
697.67	12131.00
697.80	12072.48
697.94	12341.64
698.07	11925.03
698.21	12116.95
698.34	11908.65
698.47	12126.32
698.61	11997.59
698.74	12009.29
698.87	11948.43
699.01	11658.21
699.14	11772.89
699.27	11808.00
699.40	11499.05
699.54	11676.93
699.67	11470.97
699.80	11531.82
699.94	11311.81
700.07	11435.86
700.20	11246.27
700.34	11316.49
700.47	11147.97
700.60	11136.27
700.73	11227.55
700.87	10965.41
701.00	11185.42
701.13	10953.71
701.26	10960.73
701.40	10839.02
701.53	10892.85
701.66	10726.68
701.79	10827.32
701.93	10700.93
702.06	10839.02
702.19	10703.27
702.32	10553.48
702.46	10665.82
702.59	10490.28
702.72	10427.09
702.85	10293.68
702.99	10429.43
703.12	10277.29
703.25	10132.18
703.38	10202.40
703.51	10434.11
703.65	10085.37
703.78	10087.71
703.91	10003.45
704.04	10214.10
704.17	10186.01
704.31	9853.66
704.44	9678.12
704.57	9832.59
704.70	9724.93
704.83	9870.04
704.96	9610.24
705.10	9666.41
705.23	9511.94
>>>>>End Processed Spectral Data<<<<<
