SpectraSuite Data File
++++++++++++++++++++++++++++++++++++
Date: Fri Oct 18 13:57:59 GMT-05:00 2013
User: bianchi
Dark Spectrum Present: No
Reference Spectrum Present: No
Number of Sampled Component Spectra: 1
Spectrometers: USB2+H05261
Integration Time (usec): 50000 (USB2+H05261)
Spectra Averaged: 1 (USB2+H05261)
Boxcar Smoothing: 0 (USB2+H05261)
Correct for Electrical Dark: No (USB2+H05261)
Strobe/Lamp Enabled: No (USB2+H05261)
Correct for Detector Non-linearity: No (USB2+H05261)
Correct for Stray Light: No (USB2+H05261)
Number of Pixels in Processed Spectrum: 2048
>>>>>Begin Processed Spectral Data<<<<<
365.73	0.00
365.92	0.00
366.12	0.00
366.32	0.00
366.52	0.00
366.72	0.00
366.91	0.00
367.11	0.00
367.31	0.00
367.51	0.00
367.70	0.00
367.90	0.00
368.10	0.00
368.30	0.00
368.49	0.00
368.69	0.00
368.89	0.00
369.09	0.00
369.28	0.00
369.48	0.00
369.68	0.00
369.87	0.00
370.07	0.00
370.27	0.00
370.47	0.00
370.66	63.19
370.86	93.62
371.06	166.18
371.25	149.79
371.45	124.05
371.65	177.88
371.84	140.43
372.04	102.98
372.24	121.71
372.44	175.54
372.63	231.71
372.83	184.90
373.03	194.26
373.22	229.37
373.42	152.13
373.62	140.43
373.81	276.18
374.01	205.97
374.21	280.86
374.40	212.99
374.60	301.93
374.79	243.42
374.99	203.63
375.19	278.52
375.38	177.88
375.58	280.86
375.78	332.36
375.97	227.03
376.17	205.97
376.37	271.50
376.56	348.74
376.76	259.80
376.95	234.05
377.15	299.59
377.35	215.33
377.54	304.27
377.74	205.97
377.93	283.20
378.13	346.40
378.33	313.63
378.52	304.27
378.72	355.76
378.91	332.36
379.11	283.20
379.31	308.95
379.50	215.33
379.70	273.84
379.89	320.65
380.09	341.72
380.28	266.82
380.48	280.86
380.68	332.36
380.87	301.93
381.07	271.50
381.26	339.38
381.46	287.89
381.65	381.51
381.85	344.06
382.04	308.95
382.24	353.42
382.43	285.55
382.63	334.70
382.83	346.40
383.02	322.99
383.22	365.12
383.41	386.19
383.61	367.46
383.80	344.06
384.00	339.38
384.19	400.23
384.39	435.34
384.58	367.46
384.78	407.25
384.97	440.02
385.17	393.21
385.36	395.55
385.56	397.89
385.75	411.93
385.95	409.59
386.14	468.11
386.34	435.34
386.53	355.76
386.72	367.46
386.92	435.34
387.11	433.00
387.31	447.04
387.50	493.85
387.70	353.42
387.89	447.04
388.09	433.00
388.28	442.36
388.48	454.06
388.67	491.51
388.86	500.87
389.06	428.32
389.25	552.37
389.45	526.62
389.64	491.51
389.84	505.56
390.03	454.06
390.22	564.07
390.42	500.87
390.61	447.04
390.81	447.04
391.00	496.19
391.19	531.30
391.39	547.69
391.58	566.41
391.78	475.13
391.97	552.37
392.16	512.58
392.36	540.66
392.55	540.66
392.75	608.54
392.94	582.79
393.13	671.73
393.33	554.71
393.52	564.07
393.71	620.24
393.91	599.18
394.10	594.50
394.29	601.52
394.49	559.39
394.68	585.13
394.88	631.94
395.07	657.69
395.26	627.26
395.46	587.47
395.65	676.41
395.84	650.67
396.04	596.84
396.23	641.31
396.42	767.70
396.62	688.12
396.81	643.65
397.00	699.82
397.19	629.60
397.39	599.18
397.58	636.63
397.77	732.59
397.97	781.74
398.16	674.07
398.35	723.23
398.55	725.57
398.74	748.97
398.93	800.46
399.12	753.65
399.32	737.27
399.51	662.37
399.70	753.65
399.90	741.95
400.09	807.48
400.28	772.38
400.47	821.53
400.67	751.31
400.86	840.25
401.05	791.10
401.24	744.29
401.44	784.08
401.63	833.23
401.82	856.64
402.01	835.57
402.21	856.64
402.40	842.59
402.59	849.61
402.78	821.53
402.97	933.87
403.17	908.13
403.36	877.70
403.55	887.06
403.74	940.90
403.93	943.24
404.13	938.55
404.32	964.30
404.51	966.64
404.70	947.92
404.89	985.37
405.09	990.05
405.28	966.64
405.47	1004.09
405.66	957.28
405.85	1043.88
406.05	971.32
406.24	1090.69
406.43	1022.81
406.62	1090.69
406.81	1067.28
407.00	1027.50
407.20	1036.86
407.39	1095.37
407.58	1074.31
407.77	1008.77
407.96	1125.80
408.15	1067.28
408.34	1118.78
408.54	1174.95
408.73	1107.07
408.92	1177.29
409.11	1165.59
409.30	1160.91
409.49	1116.44
409.68	1144.52
409.87	1057.92
410.07	1266.23
410.26	1238.14
410.45	1306.02
410.64	1205.38
410.83	1184.31
411.02	1315.38
411.21	1301.34
411.40	1338.79
411.59	1296.66
411.78	1343.47
411.98	1256.87
412.17	1373.89
412.36	1256.87
412.55	1423.05
412.74	1446.45
412.93	1380.92
413.12	1336.45
413.31	1371.55
413.50	1446.45
413.69	1394.96
413.88	1572.84
414.07	1376.24
414.26	1497.94
414.45	1551.78
414.64	1472.20
414.83	1453.47
415.02	1479.22
415.22	1605.61
415.41	1659.44
415.60	1582.20
415.79	1596.25
415.98	1645.40
416.17	1703.91
416.36	1607.95
416.55	1680.50
416.74	1678.16
416.93	1713.27
417.12	1739.02
417.31	1729.66
417.50	1685.19
417.69	1750.72
417.88	1806.89
418.07	1846.68
418.26	1675.82
418.45	1755.40
418.64	1900.52
418.83	1783.49
419.02	1783.49
419.21	1891.15
419.39	1881.79
419.58	1886.47
419.77	1872.43
419.96	1827.96
420.15	1905.20
420.34	1968.39
420.53	1856.04
420.72	1900.52
420.91	1884.13
421.10	1944.99
421.29	1935.62
421.48	1902.86
421.67	2003.50
421.86	1949.67
422.05	2005.84
422.24	2092.44
422.43	1942.64
422.61	1991.80
422.80	1989.46
422.99	2064.35
423.18	2115.84
423.37	2104.14
423.56	2026.90
423.75	2094.78
423.94	2108.82
424.13	1930.94
424.32	1980.09
424.50	2054.99
424.69	2080.74
424.88	2115.84
425.07	2085.42
425.26	1973.07
425.45	1975.41
425.64	2099.46
425.83	1998.82
426.01	2085.42
426.20	2101.80
426.39	2083.08
426.58	2143.93
426.77	2031.58
426.96	2127.55
427.15	2122.87
427.33	2197.76
427.52	2066.69
427.71	2270.32
427.90	2174.36
428.09	2141.59
428.28	2228.19
428.46	2200.10
428.65	2232.87
428.84	2387.35
429.03	2286.70
429.22	2328.83
429.40	2335.85
429.59	2359.26
429.78	2195.42
429.97	2223.51
430.16	2228.19
430.34	2394.37
430.53	2394.37
430.72	2347.56
430.91	2347.56
431.10	2300.75
431.28	2363.94
431.47	2480.97
431.66	2495.01
431.85	2366.28
432.03	2457.56
432.22	2495.01
432.41	2480.97
432.60	2455.22
432.79	2485.65
432.97	2553.52
433.16	2612.04
433.35	2602.68
433.54	2630.76
433.72	2560.55
433.91	2511.39
434.10	2544.16
434.28	2513.74
434.47	2537.14
434.66	2733.75
434.85	2700.98
435.03	2607.36
435.22	2703.32
435.41	2745.45
435.59	2672.89
435.78	2661.19
435.97	2740.77
436.16	2834.39
436.34	2633.10
436.53	2679.91
436.72	2815.66
436.90	2644.81
437.09	2766.51
437.28	2679.91
437.46	2717.36
437.65	2792.26
437.84	2871.84
438.02	2799.28
438.21	2874.18
438.40	2932.69
438.58	2951.42
438.77	2890.56
438.96	2846.09
439.14	3023.97
439.33	3049.72
439.52	3059.08
439.70	3049.72
439.89	3108.23
440.08	3112.91
440.26	3089.51
440.45	3049.72
440.63	3220.58
440.82	3328.24
441.01	3068.44
441.19	3155.04
441.38	3295.47
441.57	3316.54
441.75	3372.71
441.94	3346.97
442.12	3274.41
442.31	3400.80
442.50	3431.23
442.68	3398.46
442.87	3461.65
443.05	3410.16
443.24	3581.02
443.43	3517.83
443.61	3363.35
443.80	3433.57
443.98	3314.20
444.17	3400.80
444.35	3517.83
444.54	3550.59
444.73	3473.36
444.91	3501.44
445.10	3496.76
445.28	3595.06
445.47	3363.35
445.65	3405.48
445.84	3456.97
446.02	3611.45
446.21	3506.12
446.39	3698.05
446.58	3698.05
446.77	3583.36
446.95	3419.52
447.14	3463.99
447.32	3602.08
447.51	3480.38
447.69	3517.83
447.88	3590.38
448.06	3494.42
448.25	3625.49
448.43	3576.34
448.62	3543.57
448.80	3585.70
448.99	3658.26
449.17	3754.22
449.36	3588.04
449.54	3822.09
449.73	3726.13
449.91	3742.52
450.10	3700.39
450.28	3712.09
450.46	3772.94
450.65	3763.58
450.83	3845.50
451.02	3831.46
451.20	3836.14
451.39	3861.88
451.57	3700.39
451.76	3868.91
451.94	3885.29
452.13	3747.20
452.31	3775.28
452.49	3826.78
452.68	3962.53
452.86	3936.78
453.05	3913.38
453.23	3976.57
453.42	3920.40
453.60	3934.44
453.78	3995.29
453.97	3885.29
454.15	3889.97
454.34	4023.38
454.52	4058.49
454.70	4032.74
454.89	4060.83
455.07	4156.79
455.26	4044.45
455.44	4135.73
455.62	4051.47
455.81	4102.96
455.99	4182.54
456.17	4231.69
456.36	4168.49
456.54	4355.74
456.73	4306.59
456.91	4269.14
457.09	4332.33
457.28	4496.17
457.46	4397.87
457.64	4564.04
457.83	4346.37
458.01	4418.93
458.19	4456.38
458.38	4416.59
458.56	4411.91
458.74	4477.44
458.93	4542.98
459.11	4634.26
459.29	4524.26
459.48	4528.94
459.66	4451.70
459.84	4627.24
460.03	4678.73
460.21	4695.11
460.39	4538.30
460.57	4660.01
460.76	4697.46
460.94	4720.86
461.12	4727.88
461.31	4697.46
461.49	4580.43
461.67	4767.67
461.85	4847.25
462.04	4709.16
462.22	5050.88
462.40	5048.54
462.59	4774.69
462.77	4898.74
462.95	4898.74
463.13	4891.72
463.32	4926.83
463.50	4856.61
463.68	4917.47
463.86	4938.53
464.05	5039.17
464.23	4880.02
464.41	5022.79
464.59	4997.04
464.78	5203.01
464.96	5020.45
465.14	4903.42
465.32	5093.01
465.50	5060.24
465.69	5029.81
465.87	5039.17
466.05	4819.16
466.23	5011.09
466.41	5263.86
466.60	5240.46
466.78	5109.39
466.96	5193.65
467.14	5041.51
467.32	5249.82
467.51	5497.92
467.69	5071.94
467.87	5123.43
468.05	5170.24
468.23	5111.73
468.41	5252.16
468.60	5254.50
468.78	5427.70
468.96	5188.97
469.14	5434.72
469.32	5392.59
469.50	5294.29
469.69	5528.35
469.87	5530.69
470.05	5411.32
470.23	5537.71
470.41	5561.11
470.59	5486.22
470.77	5479.19
470.95	5680.48
471.14	5678.14
471.32	5565.79
471.50	5736.65
471.68	5645.37
471.86	5769.42
472.04	5746.02
472.22	5959.00
472.40	5891.13
472.58	5767.08
472.77	5792.83
472.95	5879.43
473.13	5998.79
473.31	5886.45
473.49	5940.28
473.67	6001.13
473.85	5886.45
474.03	6148.59
474.21	5891.13
474.39	6183.70
474.57	6148.59
474.75	6188.38
474.93	6317.11
475.12	6253.91
475.30	6377.96
475.48	6251.57
475.66	6436.47
475.84	6455.20
476.02	6455.20
476.20	6422.43
476.38	6612.01
476.56	6799.26
476.74	6729.04
476.92	6841.39
477.10	6677.55
477.28	6759.47
477.46	6754.79
477.64	6888.20
477.82	6846.07
478.00	7091.82
478.18	6998.20
478.36	7115.23
478.54	7213.53
478.72	7087.14
478.90	7335.24
479.08	7407.80
479.26	7332.90
479.44	7375.03
479.62	7463.97
479.80	7602.06
479.98	7454.61
480.16	7709.72
480.34	7599.72
480.52	7634.83
480.70	7932.08
480.88	7836.11
481.06	7922.71
481.24	8030.38
481.41	8166.13
481.59	8124.00
481.77	8224.64
481.95	8217.62
482.13	8224.64
482.31	8175.49
482.49	8601.47
482.67	8409.54
482.85	8503.17
483.03	8681.05
483.21	8685.73
483.39	8746.58
483.57	8748.92
483.74	8702.11
483.92	8805.10
484.10	9064.89
484.28	9132.77
484.46	9345.76
484.64	9235.75
484.82	9149.15
485.00	9235.75
485.18	9441.72
485.35	9614.92
485.53	9563.43
485.71	9820.89
485.89	9832.59
486.07	9774.08
486.25	9907.49
486.43	9944.94
486.61	9940.26
486.78	10141.54
486.96	10230.48
487.14	10230.48
487.32	9989.41
487.50	10448.15
487.68	10443.47
487.85	10579.22
488.03	10576.88
488.21	10616.67
488.39	10672.84
488.57	10806.25
488.75	10839.02
488.92	11059.03
489.10	11040.31
489.28	11351.60
489.46	11470.97
489.64	11384.37
489.81	11602.04
489.99	11527.14
490.17	11597.35
490.35	11726.08
490.53	11754.17
490.70	11964.82
490.88	12217.60
491.06	12070.14
491.24	12123.98
491.41	12070.14
491.59	12386.12
491.77	12100.57
491.95	12365.05
492.13	12585.06
492.30	12381.43
492.48	12671.66
492.66	12472.71
492.84	12737.20
493.01	12882.31
493.19	12772.30
493.37	12816.77
493.54	12924.44
493.72	13067.21
493.90	13018.06
494.08	13217.01
494.25	13383.18
494.43	13228.71
494.61	13486.17
494.79	13792.78
494.96	13584.47
495.14	13708.52
495.32	13902.78
495.49	13823.20
495.67	13973.00
495.85	14190.67
496.02	14171.94
496.20	14361.53
496.38	14190.67
496.55	14263.22
496.73	14759.42
496.91	14307.69
497.09	14714.95
497.26	14794.53
497.44	14595.58
497.62	14387.27
497.79	14820.27
497.97	15047.30
498.14	14993.47
498.32	15115.18
498.50	15276.68
498.67	15431.15
498.85	15267.31
499.03	15314.13
499.20	15510.73
499.38	15740.10
499.56	15405.41
499.73	15630.10
499.91	15641.80
500.08	15906.28
500.26	15683.93
500.44	15901.60
500.61	16056.08
500.79	15763.51
500.97	15983.52
501.14	16119.27
501.32	16322.90
501.49	16273.74
501.67	16065.44
501.84	16287.79
502.02	16297.15
502.20	16608.44
502.37	16549.93
502.55	16688.02
502.72	16704.40
502.90	16533.54
503.07	16578.01
503.25	16444.60
503.43	16882.28
503.60	16982.93
503.78	17144.42
503.95	17043.78
504.13	16837.81
504.30	17228.68
504.48	16961.86
504.65	17486.14
504.83	17142.08
505.01	17596.15
505.18	17198.26
505.36	17572.74
505.53	17554.02
505.71	17404.22
505.88	17708.49
506.06	17565.72
506.23	17645.30
506.41	17610.19
506.58	17879.35
506.76	17797.43
506.93	17785.73
507.11	17926.16
507.28	18171.92
507.46	17715.51
507.63	18029.15
507.81	18066.60
507.98	17961.27
508.16	18574.49
508.33	18384.91
508.50	18134.47
508.68	18464.49
508.85	18532.36
509.03	18277.24
509.20	18677.48
509.38	18651.73
509.55	19096.43
509.73	18553.43
509.90	18963.02
510.08	18775.78
510.25	18845.99
510.42	19033.24
510.60	19171.33
510.77	19250.91
510.95	19180.69
511.12	19161.97
511.30	19143.24
511.47	19089.41
511.64	19260.27
511.82	19548.15
511.99	19597.31
512.17	19716.67
512.34	19604.33
512.51	19442.83
512.69	19824.34
512.86	19583.26
513.04	19995.20
513.21	20011.58
513.38	19957.75
513.56	20112.22
513.73	19969.45
513.90	20079.46
514.08	19850.08
514.25	20182.44
514.43	19833.70
514.60	20318.19
514.77	20372.02
514.95	20404.79
515.12	20137.97
515.29	20231.59
515.47	20343.94
515.64	20458.62
515.81	20844.81
515.99	20863.54
516.16	20915.03
516.33	20524.16
516.51	20922.05
516.68	20699.70
516.85	20702.04
517.03	20652.89
517.20	20882.26
517.37	20851.83
517.54	20978.22
517.72	21034.39
517.89	20893.96
518.06	20989.92
518.24	21088.23
518.41	21064.82
518.58	21116.31
518.75	21369.09
518.93	21525.91
519.10	21369.09
519.27	21610.17
519.45	21708.47
519.62	21671.02
519.79	21752.94
519.96	21385.47
520.14	22019.76
520.31	21926.14
520.48	21909.75
520.65	21544.63
520.83	21898.05
521.00	22029.12
521.17	22059.55
521.34	22031.46
521.52	21961.25
521.69	22441.06
521.86	22338.07
522.03	22274.88
522.20	22539.36
522.38	22427.01
522.55	22118.06
522.72	22679.79
522.89	22544.04
523.07	22801.50
523.24	22368.50
523.41	22490.21
523.58	22370.84
523.75	22738.30
523.92	22661.07
524.10	22398.93
524.27	22836.61
524.44	22761.71
524.61	22981.72
524.78	23049.60
524.96	23007.47
525.13	23056.62
525.30	23030.87
525.47	23115.13
525.64	22808.52
525.81	23417.06
525.98	23136.20
526.16	23250.88
526.33	23316.42
526.50	23693.24
526.67	23332.80
526.84	23222.80
527.01	23517.70
527.18	23665.16
527.36	23555.15
527.53	23358.55
527.70	23985.81
527.87	23665.16
528.04	23674.52
528.21	23623.03
528.38	23817.29
528.55	23819.63
528.72	23934.32
528.89	23758.78
529.07	24013.90
529.24	23740.05
529.41	24407.11
529.58	24283.06
529.75	23955.38
529.92	24044.32
530.09	23793.89
530.26	23917.93
530.43	24067.73
530.60	24231.57
530.77	24243.27
530.94	24212.84
531.11	24512.43
531.28	24292.42
531.46	24589.67
531.63	24414.13
531.80	24833.08
531.97	24919.68
532.14	24606.05
532.31	24657.54
532.48	24889.26
532.65	24819.04
532.82	24264.33
532.99	25146.72
533.16	24725.42
533.33	25188.85
533.50	25249.70
533.67	24851.81
533.84	24870.53
534.01	25085.86
534.18	24943.09
534.35	25268.42
534.52	25193.53
534.69	24865.85
534.86	25331.62
535.03	25219.27
535.20	25509.50
535.37	25390.13
535.54	25413.54
535.71	25006.28
535.88	25174.80
536.05	25312.89
536.22	25621.84
536.38	25773.98
536.55	25640.57
536.72	25560.99
536.89	25666.31
537.06	25781.00
537.23	25560.99
537.40	25310.55
537.57	25830.15
537.74	25572.69
537.91	25846.54
538.08	25862.92
538.25	25907.39
538.42	25523.54
538.59	26195.28
538.75	25771.64
538.92	25979.95
539.09	26061.87
539.26	25816.11
539.43	26120.38
539.60	26169.53
539.77	25984.63
539.94	26230.38
540.11	26408.26
540.28	26244.43
540.44	26101.65
540.61	26073.57
540.78	26302.94
540.95	26450.39
541.12	26103.99
541.29	26436.35
541.46	26167.19
541.62	26562.74
541.79	26480.82
541.96	26202.30
542.13	26225.70
542.30	26497.20
542.47	26703.17
542.63	26632.96
542.80	26590.83
542.97	26972.33
543.14	26998.08
543.31	26958.29
543.48	26705.51
543.64	27311.71
543.81	27077.66
543.98	27185.32
544.15	27089.36
544.32	27388.95
544.48	27536.40
544.65	27014.46
544.82	27154.90
544.99	26883.39
545.16	27503.64
545.32	27304.69
545.49	27484.91
545.66	27513.00
545.83	27400.65
546.00	27835.99
546.16	27618.32
546.33	27325.75
546.50	27129.15
546.67	27552.79
546.83	26944.25
547.00	27613.64
547.17	27367.88
547.34	27796.20
547.50	28013.87
547.67	28107.49
547.84	27253.20
548.00	27929.61
548.17	28037.28
548.34	28004.51
548.51	27688.54
548.67	27915.57
548.84	27819.61
549.01	27775.14
549.18	27768.12
549.34	27707.26
549.51	27819.61
549.68	28058.34
549.84	28381.34
550.01	27878.12
550.18	27920.25
550.34	27892.16
550.51	28360.27
550.68	28444.53
550.84	27934.29
551.01	28023.23
551.18	28208.14
551.34	28098.13
551.51	28123.88
551.68	28240.90
551.84	28566.24
552.01	28393.04
552.18	28467.94
552.34	28474.96
552.51	28496.02
552.68	28278.35
552.84	28732.42
553.01	28694.97
553.18	28453.89
553.34	28676.24
553.51	28362.61
553.67	28849.44
553.84	29043.71
554.01	28187.07
554.17	28891.57
554.34	28507.72
554.51	28470.28
554.67	28975.83
554.84	28837.74
555.00	28666.88
555.17	28802.63
555.33	29078.82
555.50	29046.05
555.67	28758.16
555.83	29024.98
556.00	28788.59
556.16	28797.95
556.33	28924.34
556.50	29397.13
556.66	29432.24
556.83	28833.06
556.99	29392.45
557.16	29542.24
557.32	29301.17
557.49	29476.71
557.65	29062.43
557.82	28891.57
557.98	28549.85
558.15	29338.62
558.32	29193.50
558.48	29315.21
558.65	29558.63
558.81	29223.93
558.98	29296.49
559.14	29364.36
559.31	29317.55
559.47	29240.31
559.64	29614.80
559.80	29460.32
559.97	29811.40
560.13	29486.07
560.30	29699.06
560.46	29312.87
560.63	29551.60
560.79	29467.34
560.96	29621.82
561.12	29476.71
561.29	29120.95
561.45	29497.77
561.61	29479.05
561.78	29820.77
561.94	29523.52
562.11	29914.39
562.27	29766.93
562.44	29626.50
562.60	29633.52
562.77	29834.81
562.93	29610.12
563.10	30260.79
563.26	29612.46
563.42	30228.02
563.59	29666.29
563.75	29722.46
563.92	30003.33
564.08	29649.91
564.24	30019.71
564.41	29413.51
564.57	29692.04
564.74	29785.66
564.90	30038.44
565.07	30328.66
565.23	30099.29
565.39	29954.18
565.56	30118.01
565.72	29736.51
565.88	30054.82
566.05	29560.97
566.21	29788.00
566.38	29654.59
566.54	30176.53
566.70	29989.28
566.87	30314.62
567.03	30258.45
567.19	30508.88
567.36	30089.93
567.52	30005.67
567.68	30038.44
567.85	29832.47
568.01	30408.24
568.17	30338.02
568.34	30036.09
568.50	30050.14
568.66	30321.64
568.83	30375.47
568.99	30204.61
569.15	30288.87
569.32	30134.40
569.48	29809.06
569.64	30314.62
569.81	30216.32
569.97	30216.32
570.13	30291.21
570.30	30340.36
570.46	30251.42
570.62	30038.44
570.78	30178.87
570.95	29923.75
571.11	30675.06
571.27	30192.91
571.43	30106.31
571.60	30693.79
571.76	29860.55
571.92	30445.69
572.09	30515.90
572.25	30441.01
572.41	30586.12
572.57	30202.27
572.74	30267.81
572.90	30312.28
573.06	30333.34
573.22	29958.86
573.38	30335.68
573.55	30206.95
573.71	30838.90
573.87	30380.15
574.03	30529.95
574.20	29773.95
574.36	30251.42
574.52	30412.92
574.68	30417.60
574.84	30815.49
575.01	30639.95
575.17	30569.74
575.33	30969.97
575.49	30518.25
575.65	30469.09
575.82	30579.10
575.98	30426.96
576.14	30735.92
576.30	30583.78
576.46	30731.23
576.62	30389.52
576.79	30623.57
576.95	30419.94
577.11	30452.71
577.27	30749.96
577.43	31145.51
577.59	30448.03
577.75	30747.62
577.92	30661.02
578.08	30543.99
578.24	30391.86
578.40	30553.35
578.56	30806.13
578.72	30356.75
578.88	30801.45
579.04	30801.45
579.21	30658.68
579.37	30473.78
579.53	30338.02
579.69	30572.08
579.85	30771.02
580.01	30586.12
580.17	30403.56
580.33	30417.60
580.49	30125.04
580.65	30698.47
580.82	30305.26
580.98	30696.13
581.14	30808.47
581.30	30614.21
581.46	30520.59
581.62	30665.70
581.78	30263.13
581.94	30487.82
582.10	30466.75
582.26	30728.89
582.42	30789.75
582.58	30572.08
582.74	30565.06
582.90	30675.06
583.06	30969.97
583.22	30602.50
583.38	30953.58
583.54	30724.21
583.70	30527.61
583.86	30443.35
584.02	30625.91
584.18	30738.26
584.34	30878.69
584.50	31255.51
584.66	31044.87
584.82	30478.46
584.98	30558.03
585.14	30424.62
585.30	30476.12
585.46	30298.23
585.62	30670.38
585.78	30852.94
585.94	30450.37
586.10	30885.71
586.26	31089.34
586.42	31189.98
586.58	30738.26
586.74	30754.64
586.90	30792.09
587.06	30771.02
587.22	30836.56
587.38	30637.61
587.54	30871.67
587.70	31061.25
587.86	30742.94
588.02	30972.31
588.18	31145.51
588.34	30909.11
588.49	30981.67
588.65	31182.96
588.81	30551.01
588.97	30913.80
589.13	30733.57
589.29	30841.24
589.45	31288.28
589.61	31168.91
589.77	30948.90
589.93	31150.19
590.08	31007.42
590.24	30976.99
590.40	31302.32
590.56	31009.76
590.72	30995.71
590.88	31264.88
591.04	31379.56
591.20	31510.63
591.35	31089.34
591.51	31283.60
591.67	30969.97
591.83	31510.63
591.99	31126.78
592.15	31208.70
592.31	31110.40
592.46	31072.95
592.62	31178.28
592.78	30726.55
592.94	31311.69
593.10	31274.24
593.26	31456.80
593.41	31447.44
593.57	31309.35
593.73	31531.70
593.89	31314.03
594.05	31358.50
594.20	31040.18
594.36	31419.35
594.52	31056.57
594.68	30899.75
594.84	31302.32
594.99	31264.88
595.15	31112.74
595.31	31503.61
595.47	31538.72
595.62	31566.81
595.78	31405.31
595.94	31512.97
596.10	31012.10
596.25	31143.17
596.41	31112.74
596.57	31007.42
596.73	31019.12
596.88	31131.47
597.04	31189.98
597.20	31702.56
597.36	31400.63
597.51	31882.78
597.67	31171.25
597.83	31157.21
597.99	31627.66
598.14	31515.31
598.30	31182.96
598.46	31452.12
598.61	31215.72
598.77	31461.48
598.93	31386.58
599.09	31005.08
599.24	31665.11
599.40	31381.90
599.56	31599.57
599.71	31360.84
599.87	31744.69
600.03	31206.36
600.18	31428.71
600.34	31601.91
600.50	31571.49
600.65	31339.77
600.81	31409.99
600.97	31639.36
601.12	31421.69
601.28	31330.41
601.44	31278.92
601.59	31648.72
601.75	31648.72
601.91	31524.68
602.06	31742.35
602.22	31597.23
602.37	31161.89
602.53	31330.41
602.69	31412.33
602.84	31145.51
603.00	31159.55
603.16	31412.33
603.31	31695.53
603.47	31594.89
603.62	31351.48
603.78	31644.04
603.94	31257.85
604.09	31236.79
604.25	31236.79
604.40	31065.93
604.56	31337.43
604.71	31761.07
604.87	31510.63
605.03	31660.43
605.18	31543.40
605.34	31229.77
605.49	31012.10
605.65	31232.11
605.80	30883.37
605.96	31274.24
606.12	31147.85
606.27	31487.23
606.43	31608.93
606.58	31377.22
606.74	31307.01
606.89	31510.63
607.05	31304.67
607.20	31580.85
607.36	31147.85
607.51	31634.68
607.67	31447.44
607.82	31084.65
607.98	31297.64
608.13	31475.52
608.29	31140.83
608.44	31154.87
608.60	31241.47
608.75	31393.61
608.91	31138.49
609.06	31608.93
609.22	31388.92
609.37	30923.16
609.53	31175.94
609.68	31220.41
609.84	31206.36
609.99	31077.63
610.15	30976.99
610.30	31115.08
610.46	30881.03
610.61	31173.60
610.76	31321.05
610.92	31466.16
611.07	31087.00
611.23	30391.86
611.38	31051.89
611.54	30932.52
611.69	30834.22
611.84	30939.54
612.00	31365.52
612.15	30958.27
612.31	31248.49
612.46	30764.00
612.62	31061.25
612.77	30843.58
612.92	30951.24
613.08	30731.23
613.23	31337.43
613.39	30733.57
613.54	30574.42
613.69	30979.33
613.85	30719.53
614.00	31194.66
614.15	31028.48
614.31	30824.86
614.46	30859.96
614.62	30536.97
614.77	30899.75
614.92	30787.41
615.08	30707.83
615.23	30913.80
615.38	30705.49
615.54	30443.35
615.69	30675.06
615.84	30422.28
616.00	30733.57
616.15	30253.76
616.30	30902.09
616.46	30864.64
616.61	30590.80
616.76	30740.60
616.92	30508.88
617.07	30911.46
617.22	30368.45
617.37	30323.98
617.53	30424.62
617.68	30314.62
617.83	30473.78
617.99	30398.88
618.14	30607.19
618.29	30623.57
618.45	30120.35
618.60	30429.30
618.75	30551.01
618.90	30089.93
619.06	30373.13
619.21	30600.16
619.36	30635.27
619.51	30183.55
619.67	29965.88
619.82	30190.57
619.97	29930.77
620.12	30349.73
620.28	30242.06
620.43	30637.61
620.58	30740.60
620.73	30206.95
620.89	30150.78
621.04	30368.45
621.19	30183.55
621.34	30497.18
621.49	29881.62
621.65	30150.78
621.80	30059.50
621.95	29729.48
622.10	30176.53
622.25	29909.71
622.41	29780.98
622.56	30160.14
622.71	30258.45
622.86	30314.62
623.01	30499.52
623.16	29696.72
623.32	29820.77
623.47	29998.65
623.62	29996.31
623.77	29584.37
623.92	30045.46
624.07	29895.66
624.23	29930.77
624.38	30078.22
624.53	29654.59
624.68	30029.07
624.83	30082.91
624.98	29902.68
625.13	29923.75
625.29	29741.19
625.44	29495.43
625.59	29586.71
625.74	29694.38
625.89	29502.45
626.04	29525.86
626.19	29795.02
626.34	29397.13
626.49	29460.32
626.65	29432.24
626.80	29722.46
626.95	29769.27
627.10	29694.38
627.25	29355.00
627.40	29577.35
627.55	29366.70
627.70	29259.04
627.85	29268.40
628.00	29085.84
628.15	29275.42
628.30	29170.10
628.45	29493.09
628.60	29102.22
628.76	29474.37
628.91	29151.37
629.06	29205.20
629.21	29291.80
629.36	29291.80
629.51	29113.92
629.66	28985.19
629.81	29020.30
629.96	29191.16
630.11	28858.81
630.26	28835.40
630.41	28875.19
630.56	28865.83
630.71	29158.39
630.86	28926.68
631.01	29294.14
631.16	29134.99
631.31	28772.21
631.46	29020.30
631.61	29170.10
631.76	28847.10
631.91	28943.06
632.06	28713.69
632.21	28912.64
632.36	28938.38
632.51	28409.42
632.66	28650.50
632.81	28741.78
632.96	29067.11
633.10	28910.30
633.25	29020.30
633.40	28783.91
633.55	29174.78
633.70	28404.74
633.85	28250.27
634.00	28760.50
634.15	28449.21
634.30	28580.28
634.45	28470.28
634.60	28769.86
634.75	28350.91
634.90	28615.39
635.05	28467.94
635.19	28587.30
635.34	28568.58
635.49	28842.42
635.64	28318.14
635.79	28332.18
635.94	28411.76
636.09	28456.23
636.24	28311.12
636.39	28215.16
636.53	28566.24
636.68	28386.02
636.83	28386.02
636.98	28563.90
637.13	28163.67
637.28	28383.68
637.43	28435.17
637.57	28470.28
637.72	28144.94
637.87	27995.15
638.02	28294.74
638.17	28044.30
638.32	28287.71
638.46	28056.00
638.61	27597.26
638.76	27688.54
638.91	28091.11
639.06	27735.35
639.20	28198.77
639.35	27969.40
639.50	27913.23
639.65	28367.29
639.80	28254.95
639.94	28147.28
640.09	28023.23
640.24	28325.16
640.39	27861.74
640.54	27555.13
640.68	28180.05
640.83	27793.86
640.98	27866.42
641.13	27611.30
641.27	27700.24
641.42	27924.93
641.57	27964.72
641.72	27871.10
641.86	28013.87
642.01	27613.64
642.16	27304.69
642.31	27292.99
642.45	27503.64
642.60	27515.34
642.75	27594.92
642.90	27288.31
643.04	27044.89
643.19	27644.07
643.34	27454.48
643.48	27627.68
643.63	27358.52
643.78	27838.33
643.93	27487.25
644.07	27707.26
644.22	27587.89
644.37	27349.16
644.51	27241.50
644.66	27473.21
644.81	27019.14
644.95	27555.13
645.10	27309.37
645.25	27417.04
645.39	27311.71
645.54	27068.30
645.69	27283.62
645.83	27215.75
645.98	27075.32
646.13	27335.12
646.27	27152.55
646.42	26916.16
646.57	26941.91
646.71	27321.07
646.86	26939.57
647.00	27342.14
647.15	27171.28
647.30	26689.13
647.44	26981.70
647.59	27009.78
647.74	26965.31
647.88	27084.68
648.03	27044.89
648.17	27199.37
648.32	27456.82
648.47	26948.93
648.61	27550.45
648.76	27051.91
648.90	27094.04
649.05	27232.13
649.20	27030.85
649.34	26885.73
649.49	26852.97
649.63	26251.45
649.78	26630.62
649.92	26632.96
650.07	26675.09
650.21	26602.53
650.36	27012.12
650.51	26539.33
650.65	26869.35
650.80	26962.97
650.94	26504.23
651.09	27068.30
651.23	26586.15
651.38	26733.60
651.52	26394.22
651.67	26740.62
651.81	26565.08
651.96	26754.66
652.10	26499.55
652.25	26583.80
652.39	26941.91
652.54	26998.08
652.68	26497.20
652.83	27094.04
652.97	26988.72
653.12	26391.88
653.26	26354.43
653.41	26703.17
653.55	26434.01
653.70	26396.56
653.84	26118.04
653.99	26445.71
654.13	26230.38
654.27	26314.64
654.42	26300.60
654.56	26162.51
654.71	26663.38
654.85	26471.46
655.00	26471.46
655.14	26560.40
655.29	26141.44
655.43	26352.09
655.57	26253.79
655.72	25825.47
655.86	25823.13
656.01	26218.68
656.15	26080.59
656.30	26253.79
656.44	26270.17
656.58	25900.37
656.73	26153.15
656.87	25813.77
657.01	25851.22
657.16	25986.97
657.30	26178.89
657.45	25921.43
657.59	25975.27
657.73	25771.64
657.88	25965.90
658.02	25628.87
658.16	26155.49
658.31	25626.53
658.45	25900.37
658.60	25710.78
658.74	25731.85
658.88	25792.70
659.03	25715.47
659.17	25598.44
659.31	25818.45
659.46	25472.05
659.60	25678.02
659.74	25750.57
659.89	25422.90
660.03	25394.81
660.17	25781.00
660.32	25397.15
660.46	25757.60
660.60	25113.95
660.74	25111.61
660.89	25593.76
661.03	25146.72
661.17	25233.32
661.32	25020.33
661.46	25216.93
661.60	25151.40
661.74	25291.83
661.89	25357.36
662.03	25373.75
662.17	24926.71
662.31	25228.63
662.46	25008.62
662.60	25118.63
662.74	25046.07
662.88	24521.79
663.03	24685.63
663.17	24751.17
663.31	24662.22
663.45	24320.51
663.60	24727.76
663.74	24341.57
663.88	24507.75
664.02	24493.71
664.17	25048.41
664.31	24477.32
664.45	24467.96
664.59	24421.15
664.73	24575.62
664.88	24615.41
665.02	24336.89
665.16	24203.48
665.30	24276.04
665.44	24198.80
665.59	23915.59
665.73	24144.97
665.87	23985.81
666.01	24285.40
666.15	24114.54
666.29	23964.75
666.44	24339.23
666.58	24109.86
666.72	24067.73
666.86	24149.65
667.00	24053.69
667.14	23730.69
667.28	24002.19
667.43	23955.38
667.57	23709.63
667.71	23726.01
667.85	23894.53
667.99	23618.35
668.13	23648.77
668.27	23550.47
668.41	23819.63
668.56	23447.49
668.70	23630.05
668.84	23702.61
668.98	23431.10
669.12	23840.70
669.26	23414.72
669.40	23433.44
669.54	23372.59
669.68	23410.04
669.82	23030.87
669.96	23117.47
670.10	23185.35
670.25	23026.19
670.39	22808.52
670.53	23115.13
670.67	22881.08
670.81	23154.92
670.95	22909.16
671.09	23009.81
671.23	23084.70
671.37	22965.34
671.51	22761.71
671.65	22684.47
671.79	22703.20
671.93	22574.47
672.07	22677.45
672.21	22405.95
672.35	22244.45
672.49	22412.97
672.63	22183.60
672.77	22520.63
672.91	22246.79
673.05	22258.49
673.19	22508.93
673.33	22361.48
673.47	22352.12
673.61	22335.73
673.75	22340.41
673.89	22183.60
674.03	22111.04
674.17	22171.89
674.31	22167.21
674.45	22003.38
674.59	22155.51
674.73	21888.69
674.87	21982.31
675.01	21640.59
675.15	21633.57
675.29	21539.95
675.43	21619.53
675.56	21406.54
675.70	21364.41
675.84	21565.70
675.98	20882.26
676.12	21638.25
676.26	21729.53
676.40	21432.29
676.54	21350.37
676.68	21275.47
676.82	20889.28
676.96	20978.22
677.10	20882.26
677.23	20849.49
677.37	20748.85
677.51	20781.62
677.65	20821.41
677.79	20521.82
677.93	20453.94
678.07	20613.10
678.21	20217.55
678.34	20533.52
678.48	20442.24
678.62	20236.27
678.76	20163.72
678.90	20161.37
679.04	20458.62
679.18	20458.62
679.31	19782.21
679.45	19765.82
679.59	20060.73
679.73	19716.67
679.87	19466.24
680.00	19632.41
680.14	19814.98
680.28	19880.51
680.42	19845.40
680.56	19676.88
680.70	19756.46
680.83	19487.30
680.97	19269.63
681.11	19672.20
681.25	19508.37
681.39	19246.23
681.52	19445.17
681.66	19044.94
681.80	19112.81
681.94	18775.78
682.07	18827.27
682.21	18972.38
682.35	18616.62
682.49	18548.75
682.62	18649.39
682.76	18628.32
682.90	18712.58
683.04	18478.53
683.17	18916.21
683.31	18569.81
683.45	18534.70
683.59	18382.57
683.72	18633.00
683.86	18286.61
684.00	18118.09
684.13	18209.37
684.27	18078.30
684.41	18150.85
684.55	17837.22
684.68	17738.92
684.82	17657.00
684.96	17671.04
685.09	17561.04
685.23	17607.85
685.37	17544.66
685.50	17769.35
685.64	17673.39
685.78	17261.45
685.91	17696.79
686.05	17734.24
686.19	17259.11
686.32	17535.29
686.46	17135.06
686.60	17097.61
686.73	17179.53
686.87	17102.29
687.01	16891.65
687.14	16842.50
687.28	17114.00
687.42	16788.66
687.55	16783.98
687.69	16617.80
687.82	16957.18
687.96	17003.99
688.10	16388.43
688.23	16500.78
688.37	16681.00
688.50	16233.96
688.64	16341.62
688.78	16409.50
688.91	16051.39
689.05	16065.44
689.18	16203.53
689.32	15927.35
689.46	15695.63
689.59	15796.28
689.73	15932.03
689.86	15866.49
690.00	15812.66
690.13	16006.92
690.27	15868.83
690.41	15580.95
690.54	15538.82
690.68	15559.88
690.81	15880.53
690.95	15707.34
691.08	15510.73
691.22	15538.82
691.35	15094.11
691.49	15108.16
691.62	15499.03
691.76	15026.24
691.89	15089.43
692.03	14822.61
692.16	14941.98
692.30	14918.57
692.43	14778.14
692.57	14586.22
692.70	14436.42
692.84	14677.50
692.97	14555.79
693.11	14665.80
693.24	14492.60
693.38	14417.70
693.51	14403.66
693.65	14480.89
693.78	14190.67
693.92	14359.19
694.05	14237.48
694.19	14029.17
694.32	14108.75
694.45	14066.62
694.59	13748.31
694.72	13736.60
694.86	13640.64
694.99	13610.22
695.13	13804.48
695.26	13769.37
695.39	13448.72
695.53	13561.06
695.66	13612.56
695.80	13544.68
695.93	13455.74
696.07	13345.73
696.20	13415.95
696.33	13249.77
696.47	13422.97
696.60	13135.09
696.73	13032.10
696.87	13200.62
697.00	13163.17
697.14	12959.55
697.27	12908.05
697.40	12865.92
697.54	13043.81
697.67	12781.67
697.80	12657.62
697.94	12643.57
698.07	12657.62
698.21	12524.21
698.34	12348.67
698.47	12320.58
698.61	12262.07
698.74	12388.46
698.87	12353.35
699.01	12086.53
699.14	12273.77
699.27	12187.17
699.40	12042.06
699.54	12191.85
699.67	11929.71
699.80	11976.52
699.94	12166.10
700.07	11925.03
700.20	11875.88
700.34	11566.93
700.47	11674.59
700.60	11637.14
700.73	11676.93
700.87	11585.65
701.00	11576.29
701.13	11583.31
701.26	11515.44
701.40	11494.37
701.53	11482.67
701.66	11229.89
701.79	11358.62
701.93	11171.38
702.06	10977.11
702.19	11035.63
702.32	11009.88
702.46	11056.69
702.59	10731.36
702.72	10710.29
702.85	10668.16
702.99	10775.83
703.12	10895.19
703.25	10658.80
703.38	10668.16
703.51	10530.07
703.65	10548.79
703.78	10628.37
703.91	10574.54
704.04	10539.43
704.17	10338.15
704.31	10410.70
704.44	10427.09
704.57	10396.66
704.70	10237.50
704.83	10242.18
704.96	10012.81
705.10	9914.51
705.23	9909.83
>>>>>End Processed Spectral Data<<<<<
