SpectraSuite Data File
++++++++++++++++++++++++++++++++++++
Date: Fri Oct 18 13:58:27 GMT-05:00 2013
User: bianchi
Dark Spectrum Present: No
Reference Spectrum Present: No
Number of Sampled Component Spectra: 1
Spectrometers: USB2+H05261
Integration Time (usec): 50000 (USB2+H05261)
Spectra Averaged: 1 (USB2+H05261)
Boxcar Smoothing: 0 (USB2+H05261)
Correct for Electrical Dark: No (USB2+H05261)
Strobe/Lamp Enabled: No (USB2+H05261)
Correct for Detector Non-linearity: No (USB2+H05261)
Correct for Stray Light: No (USB2+H05261)
Number of Pixels in Processed Spectrum: 2048
>>>>>Begin Processed Spectral Data<<<<<
365.73	0.00
365.92	0.00
366.12	0.00
366.32	0.00
366.52	0.00
366.72	0.00
366.91	0.00
367.11	0.00
367.31	0.00
367.51	0.00
367.70	0.00
367.90	0.00
368.10	0.00
368.30	0.00
368.49	0.00
368.69	0.00
368.89	0.00
369.09	0.00
369.28	0.00
369.48	0.00
369.68	0.00
369.87	0.00
370.07	0.00
370.27	0.00
370.47	0.00
370.66	42.13
370.86	119.37
371.06	121.71
371.25	147.45
371.45	135.75
371.65	98.30
371.84	9.36
372.04	152.13
372.24	175.54
372.44	91.28
372.63	173.20
372.83	205.97
373.03	140.43
373.22	147.45
373.42	182.56
373.62	152.13
373.81	205.97
374.01	248.10
374.21	276.18
374.40	189.58
374.60	236.39
374.79	210.65
374.99	283.20
375.19	217.67
375.38	184.90
375.58	191.92
375.78	212.99
375.97	198.95
376.17	145.11
376.37	266.82
376.56	358.10
376.76	271.50
376.95	210.65
377.15	273.84
377.35	198.95
377.54	255.12
377.74	203.63
377.93	191.92
378.13	290.23
378.33	285.55
378.52	278.52
378.72	266.82
378.91	287.89
379.11	262.14
379.31	311.29
379.50	212.99
379.70	269.16
379.89	236.39
380.09	344.06
380.28	313.63
380.48	259.80
380.68	287.89
380.87	306.61
381.07	339.38
381.26	351.08
381.46	215.33
381.65	315.97
381.85	231.71
382.04	355.76
382.24	285.55
382.43	311.29
382.63	320.65
382.83	341.72
383.02	374.49
383.22	367.46
383.41	334.70
383.61	325.33
383.80	393.21
384.00	339.38
384.19	367.46
384.39	437.68
384.58	346.40
384.78	353.42
384.97	299.59
385.17	388.53
385.36	355.76
385.56	386.19
385.75	451.72
385.95	437.68
386.14	409.59
386.34	493.85
386.53	341.72
386.72	421.30
386.92	407.25
387.11	470.45
387.31	327.68
387.50	416.62
387.70	414.27
387.89	404.91
388.09	496.19
388.28	397.89
388.48	482.15
388.67	500.87
388.86	421.30
389.06	430.66
389.25	526.62
389.45	482.15
389.64	538.32
389.84	454.06
390.03	475.13
390.22	491.51
390.42	475.13
390.61	475.13
390.81	475.13
391.00	500.87
391.19	554.71
391.39	526.62
391.58	545.34
391.78	552.37
391.97	486.83
392.16	496.19
392.36	552.37
392.55	535.98
392.75	540.66
392.94	550.03
393.13	454.06
393.33	589.82
393.52	575.77
393.71	550.03
393.91	528.96
394.10	575.77
394.29	594.50
394.49	566.41
394.68	592.16
394.88	552.37
395.07	540.66
395.26	571.09
395.46	547.69
395.65	645.99
395.84	636.63
396.04	653.01
396.23	685.78
396.42	638.97
396.62	660.03
396.81	638.97
397.00	681.10
397.19	650.67
397.39	725.57
397.58	678.76
397.77	624.92
397.97	643.65
398.16	641.31
398.35	645.99
398.55	657.69
398.74	692.80
398.93	723.23
399.12	624.92
399.32	784.08
399.51	697.48
399.70	627.26
399.90	739.61
400.09	744.29
400.28	763.01
400.47	746.63
400.67	828.55
400.86	814.51
401.05	723.23
401.24	849.61
401.44	821.53
401.63	791.10
401.82	774.72
402.01	718.54
402.21	823.87
402.40	863.66
402.59	844.93
402.78	821.53
402.97	770.04
403.17	819.19
403.36	858.98
403.55	912.81
403.74	870.68
403.93	908.13
404.13	940.90
404.32	917.49
404.51	891.74
404.70	896.43
404.89	961.96
405.09	973.66
405.28	875.36
405.47	915.15
405.66	919.83
405.85	1006.43
406.05	922.17
406.24	1029.84
406.43	990.05
406.62	1069.62
406.81	990.05
407.00	1088.35
407.20	922.17
407.39	1041.54
407.58	1027.50
407.77	1067.28
407.96	1008.77
408.15	1128.14
408.34	1053.24
408.54	945.58
408.73	1102.39
408.92	1083.67
409.11	1102.39
409.30	1088.35
409.49	1111.75
409.68	1036.86
409.87	1083.67
410.07	1191.33
410.26	1165.59
410.45	1090.69
410.64	1163.25
410.83	1294.32
411.02	1217.08
411.21	1186.65
411.40	1231.12
411.59	1172.61
411.78	1233.46
411.98	1193.67
412.17	1266.23
412.36	1287.29
412.55	1331.76
412.74	1439.43
412.93	1291.98
413.12	1261.55
413.31	1453.47
413.50	1392.62
413.69	1401.98
413.88	1406.66
414.07	1430.07
414.26	1495.60
414.45	1511.99
414.64	1521.35
414.83	1500.28
415.02	1430.07
415.22	1490.92
415.41	1455.81
415.60	1577.52
415.79	1600.93
415.98	1572.84
416.17	1657.10
416.36	1563.48
416.55	1675.82
416.74	1579.86
416.93	1645.40
417.12	1682.85
417.31	1598.59
417.50	1764.76
417.69	1706.25
417.88	1675.82
418.07	1753.06
418.26	1633.69
418.45	1764.76
418.64	1720.29
418.83	1792.85
419.02	1720.29
419.21	1785.83
419.39	1851.36
419.58	1860.73
419.77	1809.23
419.96	1809.23
420.15	1895.83
420.34	1916.90
420.53	1959.03
420.72	1961.37
420.91	1947.33
421.10	1973.07
421.29	2003.50
421.48	1865.41
421.67	1863.07
421.86	1944.99
422.05	1930.94
422.24	1874.77
422.43	1891.15
422.61	2024.56
422.80	1982.43
422.99	1933.28
423.18	1991.80
423.37	1952.01
423.56	1980.09
423.75	2024.56
423.94	2010.52
424.13	1877.11
424.32	2010.52
424.50	1998.82
424.69	2047.97
424.88	2139.25
425.07	2024.56
425.26	1949.67
425.45	2059.67
425.64	1959.03
425.83	1956.69
426.01	2003.50
426.20	2104.14
426.39	1989.46
426.58	2043.29
426.77	2132.23
426.96	2080.74
427.15	2122.87
427.33	2066.69
427.52	2127.55
427.71	2043.29
427.90	2118.18
428.09	2115.84
428.28	2155.63
428.46	2218.83
428.65	2125.21
428.84	2094.78
429.03	2246.91
429.22	2134.57
429.40	2148.61
429.59	2218.83
429.78	2125.21
429.97	2246.91
430.16	2228.19
430.34	2275.00
430.53	2399.05
430.72	2359.26
430.91	2354.58
431.10	2218.83
431.28	2417.77
431.47	2291.38
431.66	2370.96
431.85	2270.32
432.03	2586.29
432.22	2497.35
432.41	2410.75
432.60	2356.92
432.79	2441.18
432.97	2464.58
433.16	2448.20
433.35	2527.78
433.54	2443.52
433.72	2483.31
433.91	2483.31
434.10	2420.11
434.28	2516.08
434.47	2506.71
434.66	2588.63
434.85	2715.02
435.03	2633.10
435.22	2560.55
435.41	2649.49
435.59	2579.27
435.78	2581.61
435.97	2663.53
436.16	2717.36
436.34	2581.61
436.53	2693.96
436.72	2794.60
436.90	2541.82
437.09	2705.66
437.28	2553.52
437.46	2708.00
437.65	2787.58
437.84	2771.19
438.02	2839.07
438.21	2768.85
438.40	2677.57
438.58	2759.49
438.77	2846.09
438.96	2874.18
439.14	2895.24
439.33	2960.78
439.52	2958.44
439.70	2944.39
439.89	3026.31
440.08	3045.04
440.26	2946.73
440.45	2951.42
440.63	3038.02
440.82	3145.68
441.01	2918.65
441.19	3077.80
441.38	3185.47
441.57	3309.52
441.75	3339.94
441.94	3227.60
442.12	3157.38
442.31	3393.78
442.50	3197.17
442.68	3330.58
442.87	3335.26
443.05	3318.88
443.24	3300.16
443.43	3332.92
443.61	3300.16
443.80	3438.25
443.98	3321.22
444.17	3229.94
444.35	3449.95
444.54	3339.94
444.73	3506.12
444.91	3400.80
445.10	3449.95
445.28	3403.14
445.47	3398.46
445.65	3569.32
445.84	3318.88
446.02	3417.18
446.21	3400.80
446.39	3318.88
446.58	3283.77
446.77	3482.72
446.95	3466.33
447.14	3524.85
447.32	3506.12
447.51	3611.45
447.69	3382.07
447.88	3569.32
448.06	3508.46
448.25	3400.80
448.43	3449.95
448.62	3447.61
448.80	3496.76
448.99	3550.59
449.17	3613.79
449.36	3618.47
449.54	3765.92
449.73	3721.45
449.91	3693.37
450.10	3688.68
450.28	3646.55
450.46	3662.94
450.65	3765.92
450.83	3744.86
451.02	3709.75
451.20	3815.07
451.39	3691.02
451.57	3815.07
451.76	3730.81
451.94	3709.75
452.13	3939.12
452.31	3901.67
452.49	3712.09
452.68	3906.35
452.86	3847.84
453.05	3826.78
453.23	3932.10
453.42	3838.48
453.60	3904.01
453.78	3840.82
453.97	3889.97
454.15	3957.85
454.34	3889.97
454.52	4135.73
454.70	3978.91
454.89	3915.72
455.07	4002.32
455.26	4065.51
455.44	4084.23
455.62	4105.30
455.81	4049.13
455.99	4030.40
456.17	4051.47
456.36	4107.64
456.54	4273.82
456.73	4266.80
456.91	4386.16
457.09	4287.86
457.28	4430.63
457.46	4276.16
457.64	4517.23
457.83	4311.27
458.01	4386.16
458.19	4372.12
458.38	4276.16
458.56	4402.55
458.74	4404.89
458.93	4379.14
459.11	4493.83
459.29	4252.75
459.48	4437.66
459.66	4381.48
459.84	4374.46
460.03	4575.75
460.21	4596.81
460.39	4512.55
460.57	4505.53
460.76	4542.98
460.94	4571.07
461.12	4669.37
461.31	4601.49
461.49	4533.62
461.67	4533.62
461.85	4608.51
462.04	4688.09
462.22	4868.31
462.40	4709.16
462.59	4772.35
462.77	4664.69
462.95	4772.35
463.13	4777.03
463.32	4875.34
463.50	4842.57
463.68	4788.74
463.86	4840.23
464.05	4723.20
464.23	4828.53
464.41	4863.63
464.59	4697.46
464.78	4952.57
464.96	4952.57
465.14	4868.31
465.32	5074.28
465.50	5067.26
465.69	4961.94
465.87	5064.92
466.05	5078.96
466.23	4985.34
466.41	4994.70
466.60	5186.63
466.78	4985.34
466.96	4924.49
467.14	5167.90
467.32	5118.75
467.51	5263.86
467.69	4999.38
467.87	5064.92
468.05	5109.39
468.23	4975.98
468.41	5195.99
468.60	5039.17
468.78	5207.69
468.96	5121.09
469.14	5247.48
469.32	5427.70
469.50	5228.76
469.69	5317.70
469.87	5437.06
470.05	5423.02
470.23	5369.19
470.41	5259.18
470.59	5305.99
470.77	5369.19
470.95	5537.71
471.14	5523.66
471.32	5324.72
471.50	5687.50
471.68	5472.17
471.86	5628.99
472.04	5666.44
472.22	5710.91
472.40	5558.77
472.58	5643.03
472.77	5659.42
472.95	5860.70
473.13	5914.53
473.31	5731.97
473.49	5851.34
473.67	5827.93
473.85	5900.49
474.03	5977.73
474.21	5912.19
474.39	6066.67
474.57	6036.24
474.75	6155.61
474.93	6104.12
475.12	6186.04
475.30	6176.67
475.48	6263.27
475.66	6202.42
475.84	6225.82
476.02	6190.72
476.20	6324.13
476.38	6408.39
476.56	6450.52
476.74	6520.73
476.92	6375.62
477.10	6640.10
477.28	6642.44
477.46	6462.22
477.64	6752.45
477.82	6890.54
478.00	6958.41
478.18	7016.93
478.36	7070.76
478.54	7152.68
478.72	7110.55
478.90	6981.82
479.08	6942.03
479.26	7208.85
479.44	7375.03
479.62	7220.55
479.80	7344.60
479.98	7393.75
480.16	7461.63
480.34	7372.69
480.52	7368.01
480.70	7569.29
480.88	7489.71
481.06	7447.58
481.24	7634.83
481.41	7740.15
481.59	7992.93
481.77	7803.35
481.95	7985.91
482.13	8021.02
482.31	8044.42
482.49	8348.69
482.67	8109.96
482.85	8351.03
483.03	8404.86
483.21	8372.10
483.39	8599.13
483.57	8346.35
483.74	8732.54
483.92	8767.65
484.10	8606.15
484.28	9034.47
484.46	8809.78
484.64	8985.32
484.82	8980.64
485.00	8966.59
485.18	9310.65
485.35	9444.06
485.53	9343.42
485.71	9303.63
485.89	9591.52
486.07	9528.32
486.25	9610.24
486.43	9558.75
486.61	9863.02
486.78	9937.91
486.96	9884.08
487.14	9970.68
487.32	9987.07
487.50	10232.82
487.68	10214.10
487.85	10361.55
488.03	10616.67
488.21	10487.94
488.39	10279.63
488.57	10649.44
488.75	10759.44
488.92	10897.53
489.10	11016.90
489.28	10850.72
489.46	10956.05
489.64	11009.88
489.81	11201.80
489.99	11117.54
490.17	11204.14
490.35	11367.98
490.53	11344.58
490.70	11655.87
490.88	11477.99
491.06	11683.95
491.24	11667.57
491.41	11815.02
491.59	12049.08
491.77	11772.89
491.95	11995.25
492.13	12051.42
492.30	12292.49
492.48	12491.44
492.66	12098.23
492.84	12318.24
493.01	12475.06
493.19	12449.31
493.37	12730.17
493.54	12732.51
493.72	12547.61
493.90	12912.74
494.08	12791.03
494.25	12989.97
494.43	12987.63
494.61	13032.10
494.79	13371.48
494.96	13289.56
495.14	13336.37
495.32	13383.18
495.49	13582.13
495.67	13448.72
495.85	13579.79
496.02	13769.37
496.20	14057.26
496.38	13767.03
496.55	13900.44
496.73	14057.26
496.91	14188.33
497.09	14281.95
497.26	14361.53
497.44	14410.68
497.62	13937.89
497.79	14555.79
497.97	14277.27
498.14	14471.53
498.32	14611.96
498.50	14773.46
498.67	15152.63
498.85	14609.62
499.03	14916.23
499.20	14726.65
499.38	15028.58
499.56	15293.06
499.73	15094.11
499.91	15147.95
500.08	15527.11
500.26	15204.12
500.44	15286.04
500.61	15456.90
500.79	15508.39
500.97	15826.70
501.14	15815.00
501.32	15779.89
501.49	16049.05
501.67	15756.49
501.84	15859.47
502.02	15819.68
502.20	15934.37
502.37	16063.10
502.55	15831.38
502.72	16145.02
502.90	16182.46
503.07	16154.38
503.25	16252.68
503.43	16074.80
503.60	16388.43
503.78	16423.54
503.95	16592.06
504.13	16519.50
504.30	16367.37
504.48	16627.17
504.65	16861.22
504.83	16709.08
505.01	17022.72
505.18	17111.66
505.36	17088.25
505.53	16793.34
505.71	16816.75
505.88	16982.93
506.06	16823.77
506.23	17043.78
506.41	17146.76
506.58	17238.05
506.76	17612.53
506.93	17476.78
507.11	17284.86
507.28	17273.15
507.46	17713.17
507.63	17675.73
507.81	17785.73
507.98	17633.60
508.16	17488.48
508.33	17984.68
508.50	17933.18
508.68	17895.74
508.85	18033.83
509.03	17998.72
509.20	18373.21
509.38	18090.00
509.55	18274.90
509.73	18424.70
509.90	18064.25
510.08	18167.24
510.25	18232.77
510.42	18651.73
510.60	18387.25
510.77	18459.81
510.95	18735.99
511.12	18735.99
511.30	18656.41
511.47	18595.56
511.64	18743.01
511.82	18860.04
511.99	18925.57
512.17	19047.28
512.34	18670.45
512.51	19136.22
512.69	19192.39
512.86	19026.21
513.04	19131.54
513.21	19328.14
513.38	19421.77
513.56	19389.00
513.73	19597.31
513.90	19522.41
514.08	19676.88
514.25	19707.31
514.43	19728.38
514.60	19529.43
514.77	19630.07
514.95	19534.11
515.12	19756.46
515.29	19754.12
515.47	19697.95
515.64	20247.97
515.81	19875.83
515.99	20180.10
516.16	20238.61
516.33	19913.28
516.51	20606.08
516.68	20142.65
516.85	20357.98
517.03	20311.17
517.20	20271.38
517.37	20528.84
517.54	20507.77
517.72	20505.43
517.89	20493.73
518.06	20432.88
518.24	20603.74
518.41	20517.14
518.58	21064.82
518.75	20868.22
518.93	20877.58
519.10	20905.66
519.27	20779.28
519.45	20987.58
519.62	21008.65
519.79	20800.34
519.96	21092.91
520.14	21088.23
520.31	21069.50
520.48	21034.39
520.65	20870.56
520.83	21572.72
521.00	21242.70
521.17	21369.09
521.34	21303.56
521.52	21476.76
521.69	21376.11
521.86	21584.42
522.03	21647.61
522.20	21504.84
522.38	21626.55
522.55	21565.70
522.72	21434.63
522.89	21832.52
523.07	22232.75
523.24	22132.11
523.41	22164.87
523.58	21879.33
523.75	22101.68
523.92	21795.07
524.10	22242.11
524.27	22207.00
524.44	22375.52
524.61	22419.99
524.78	22309.99
524.96	22602.55
525.13	22583.83
525.30	22328.71
525.47	22244.45
525.64	22527.66
525.81	22377.86
525.98	22565.10
526.16	22850.65
526.33	23009.81
526.50	22691.49
526.67	22389.56
526.84	22841.29
527.01	22265.52
527.18	22747.67
527.36	22927.89
527.53	23253.22
527.70	23192.37
527.87	23023.85
528.04	22881.08
528.21	23269.61
528.38	23150.24
528.55	23089.38
528.72	23417.06
528.89	23019.17
529.07	23449.83
529.24	23342.16
529.41	23267.27
529.58	23285.99
529.75	23473.23
529.92	23269.61
530.09	23267.27
530.26	23232.16
530.43	23576.22
530.60	23372.59
530.77	23461.53
530.94	23639.41
531.11	23325.78
531.28	23431.10
531.46	23749.42
531.63	23859.42
531.80	23679.20
531.97	24011.56
532.14	24034.96
532.31	24177.73
532.48	24049.00
532.65	24322.85
532.82	23896.87
532.99	23852.40
533.16	24013.90
533.33	24151.99
533.50	24643.50
533.67	24109.86
533.84	24123.90
534.01	24166.03
534.18	24142.63
534.35	24547.54
534.52	24364.98
534.69	24519.45
534.86	24706.70
535.03	24283.06
535.20	24582.65
535.37	24414.13
535.54	24706.70
535.71	24362.64
535.88	24451.58
536.05	24465.62
536.22	24685.63
536.38	24907.98
536.55	25160.76
536.72	24664.57
536.89	24718.40
537.06	24269.01
537.23	25184.16
537.40	24823.72
537.57	24753.51
537.74	25252.04
537.91	25104.59
538.08	25074.16
538.25	25504.82
538.42	25104.59
538.59	25301.19
538.75	25078.84
538.92	25298.85
539.09	24837.76
539.26	25060.12
539.43	25111.61
539.60	25823.13
539.77	25172.46
539.94	25553.97
540.11	25493.12
540.28	25514.18
540.44	25488.43
540.61	25914.41
540.78	25528.22
540.95	25640.57
541.12	25530.56
541.29	25720.15
541.46	25481.41
541.62	25465.03
541.79	25614.82
541.96	25539.93
542.13	25556.31
542.30	25628.87
542.47	26075.91
542.63	26031.44
542.80	25979.95
542.97	25949.52
543.14	26218.68
543.31	26125.06
543.48	25830.15
543.64	26183.57
543.81	26288.90
543.98	26373.16
544.15	26178.89
544.32	26363.79
544.48	26602.53
544.65	26298.26
544.82	26700.83
544.99	25804.41
545.16	26211.66
545.32	26429.33
545.49	26689.13
545.66	26600.19
545.83	26712.53
546.00	26771.05
546.16	26618.91
546.33	26359.11
546.50	26422.31
546.67	26574.44
546.83	26284.22
547.00	26679.77
547.17	26635.30
547.34	26967.65
547.50	26808.50
547.67	27070.64
547.84	26740.62
548.00	27187.66
548.17	27147.87
548.34	27019.14
548.51	27084.68
548.67	27248.52
548.84	27634.71
549.01	27222.77
549.18	27117.45
549.34	26993.40
549.51	27388.95
549.68	27208.73
549.84	26794.45
550.01	27232.13
550.18	27278.94
550.34	27363.20
550.51	27426.40
550.68	27653.43
550.84	27489.59
551.01	27491.93
551.18	27068.30
551.34	27262.56
551.51	27665.13
551.68	27461.51
551.84	27496.61
552.01	27328.10
552.18	27721.30
552.34	27536.40
552.51	27550.45
552.68	27356.18
552.84	27569.17
553.01	27847.69
553.18	27328.10
553.34	27508.32
553.51	27557.47
553.67	27814.93
553.84	27974.08
554.01	28098.13
554.17	28121.54
554.34	27744.71
554.51	27693.22
554.67	27927.27
554.84	28051.32
555.00	27835.99
555.17	27751.73
555.33	27889.82
555.50	27995.15
555.67	27840.67
555.83	28051.32
556.00	28079.41
556.16	28180.05
556.33	28072.39
556.50	27960.04
556.66	28320.48
556.83	28552.20
556.99	28493.68
557.16	28713.69
557.32	28371.97
557.49	28166.01
557.65	28002.17
557.82	28332.18
557.98	27906.21
558.15	28439.85
558.32	28271.33
558.48	28371.97
558.65	28322.82
558.81	28348.57
558.98	28439.85
559.14	28315.80
559.31	28182.39
559.47	28620.07
559.64	28512.41
559.80	28620.07
559.97	28503.04
560.13	28687.95
560.30	28430.49
560.46	28512.41
560.63	28596.67
560.79	28701.99
560.96	28657.52
561.12	28912.64
561.29	28446.87
561.45	28634.11
561.61	28556.88
561.78	28882.21
561.94	28638.80
562.11	29127.97
562.27	28914.98
562.44	28929.02
562.60	28690.29
562.77	28685.61
562.93	28519.43
563.10	29139.67
563.26	28519.43
563.42	29064.77
563.59	28762.84
563.75	29022.64
563.92	28961.79
564.08	28760.50
564.24	28919.66
564.41	28910.30
564.57	28971.15
564.74	28568.58
564.90	29106.90
565.07	29153.71
565.23	28938.38
565.39	28552.20
565.56	29097.54
565.72	28938.38
565.88	28893.91
566.05	28608.37
566.21	28943.06
566.38	29001.58
566.54	29254.36
566.70	29347.98
566.87	29387.77
567.03	29233.29
567.19	29362.02
567.36	29046.05
567.52	29055.41
567.68	29319.89
567.85	28615.39
568.01	29315.21
568.17	29186.48
568.34	29191.16
568.50	29120.95
568.66	29457.98
568.83	29462.66
568.99	29322.23
569.15	29226.27
569.32	29195.84
569.48	28917.32
569.64	29043.71
569.81	29113.92
569.97	29436.92
570.13	29537.56
570.30	29687.36
570.46	29233.29
570.62	29481.39
570.78	29085.84
570.95	28938.38
571.11	29252.02
571.27	29142.01
571.43	29036.69
571.60	29160.73
571.76	29027.32
571.92	29336.27
572.09	29940.13
572.25	29591.39
572.41	29244.99
572.57	29340.96
572.74	29298.83
572.90	29467.34
573.06	29507.13
573.22	29441.60
573.38	29170.10
573.55	29542.24
573.71	29755.23
573.87	29350.32
574.03	29275.42
574.20	29614.80
574.36	28964.13
574.52	29605.44
574.68	29518.84
574.84	29544.58
575.01	29600.76
575.17	29862.90
575.33	29692.04
575.49	29736.51
575.65	29387.77
575.82	29710.76
575.98	29783.32
576.14	30038.44
576.30	29373.72
576.46	29434.58
576.62	29514.16
576.79	29584.37
576.95	29521.18
577.11	29502.45
577.27	29736.51
577.43	29593.73
577.59	29385.43
577.75	29654.59
577.92	29883.96
578.08	29415.85
578.24	29371.38
578.40	29415.85
578.56	29322.23
578.72	29881.62
578.88	29839.49
579.04	29832.47
579.21	29687.36
579.37	29563.31
579.53	29607.78
579.69	29116.26
579.85	29366.70
580.01	29582.03
580.17	29500.11
580.33	29191.16
580.49	29638.20
580.65	29701.40
580.82	29418.19
580.98	29708.42
581.14	29741.19
581.30	29802.04
581.46	29802.04
581.62	29315.21
581.78	29078.82
581.94	30043.12
582.10	29450.96
582.26	29617.14
582.42	29682.67
582.58	29972.90
582.74	29596.07
582.90	29853.53
583.06	29696.72
583.22	29586.71
583.38	30043.12
583.54	29654.59
583.70	29523.52
583.86	29326.91
584.02	29455.64
584.18	30211.64
584.34	30206.95
584.50	30108.65
584.66	29752.89
584.82	29357.34
584.98	29717.78
585.14	29696.72
585.30	29713.10
585.46	29635.86
585.62	29385.43
585.78	29677.99
585.94	29408.83
586.10	30199.93
586.26	30085.25
586.42	30052.48
586.58	29890.98
586.74	29771.61
586.90	29663.95
587.06	29724.80
587.22	29900.34
587.38	29715.44
587.54	30195.25
587.70	29916.73
587.86	29713.10
588.02	30192.91
588.18	29949.50
588.34	29996.31
588.49	30082.91
588.65	29881.62
588.81	29734.17
588.97	29876.94
589.13	29839.49
589.29	29928.43
589.45	29802.04
589.61	30167.16
589.77	30036.09
589.93	30160.14
590.08	30115.67
590.24	29865.24
590.40	30024.39
590.56	30263.13
590.72	29888.64
590.88	29951.84
591.04	29982.26
591.20	29930.77
591.35	30300.58
591.51	30323.98
591.67	30036.09
591.83	30611.87
591.99	30267.81
592.15	29958.86
592.31	30017.37
592.46	30157.80
592.62	30139.08
592.78	30099.29
592.94	29909.71
593.10	30047.80
593.26	29673.31
593.41	30221.00
593.57	30242.06
593.73	30146.10
593.89	30499.52
594.05	30316.96
594.20	30143.76
594.36	30450.37
594.52	29745.87
594.68	29982.26
594.84	30190.57
594.99	30342.70
595.15	30272.49
595.31	30897.41
595.47	30415.26
595.62	30216.32
595.78	30171.85
595.94	30382.49
596.10	30373.13
596.25	29993.97
596.41	29947.15
596.57	29968.22
596.73	30305.26
596.88	30511.22
597.04	30352.07
597.20	30419.94
597.36	30581.44
597.51	30548.67
597.67	30644.63
597.83	30143.76
597.99	30125.04
598.14	30143.76
598.30	30040.78
598.46	30384.83
598.61	30466.75
598.77	30319.30
598.93	30331.00
599.09	30246.74
599.24	30857.62
599.40	30529.95
599.56	30272.49
599.71	30504.20
599.87	30614.21
600.03	30328.66
600.18	30094.61
600.34	30398.88
600.50	29991.62
600.65	30501.86
600.81	31056.57
600.97	30157.80
601.12	30848.26
601.28	30551.01
601.44	30565.06
601.59	30501.86
601.75	30263.13
601.91	30529.95
602.06	29872.26
602.22	30319.30
602.37	29862.90
602.53	30260.79
602.69	30691.44
602.84	30206.95
603.00	30433.99
603.16	30602.50
603.31	30433.99
603.47	29905.02
603.62	30199.93
603.78	29788.00
603.94	30150.78
604.09	29937.79
604.25	30284.19
604.40	30199.93
604.56	30038.44
604.71	30298.23
604.87	30213.98
605.03	30480.80
605.18	30265.47
605.34	30293.55
605.49	30293.55
605.65	30611.87
605.80	30022.05
605.96	30202.27
606.12	30265.47
606.27	30412.92
606.43	30328.66
606.58	30527.61
606.74	30457.39
606.89	30579.10
607.05	30246.74
607.20	30607.19
607.36	30593.14
607.51	30361.43
607.67	30380.15
607.82	30314.62
607.98	30398.88
608.13	30174.19
608.29	29883.96
608.44	30312.28
608.60	30209.29
608.75	30396.54
608.91	30178.87
609.06	30202.27
609.22	30354.41
609.37	29408.83
609.53	30223.34
609.68	29949.50
609.84	29944.81
609.99	30036.09
610.15	30113.33
610.30	29631.18
610.46	29825.45
610.61	30000.99
610.76	29993.97
610.92	30448.03
611.07	29979.92
611.23	29907.37
611.38	29883.96
611.54	29970.56
611.69	30008.01
611.84	30176.53
612.00	29598.41
612.15	29895.66
612.31	30274.83
612.46	29855.87
612.62	30284.19
612.77	29649.91
612.92	30026.73
613.08	29795.02
613.23	29790.34
613.39	29399.47
613.54	29551.60
613.69	29970.56
613.85	29661.61
614.00	29942.47
614.15	30003.33
614.31	29916.73
614.46	29813.74
614.62	30047.80
614.77	29692.04
614.92	29443.94
615.08	29869.92
615.23	29771.61
615.38	29352.66
615.54	29214.57
615.69	29841.83
615.84	29465.00
616.00	29460.32
616.15	29530.54
616.30	29766.93
616.46	29734.17
616.61	29429.90
616.76	29713.10
616.92	29647.57
617.07	29685.01
617.22	29415.85
617.37	29443.94
617.53	29465.00
617.68	29247.33
617.83	29083.50
617.99	29469.69
618.14	29544.58
618.29	29244.99
618.45	29160.73
618.60	29380.74
618.75	28929.02
618.90	29645.23
619.06	29415.85
619.21	29481.39
619.36	29333.93
619.51	29261.38
619.67	29057.75
619.82	29050.73
619.97	29177.12
620.12	29333.93
620.28	29254.36
620.43	29170.10
620.58	29596.07
620.73	29088.18
620.89	29333.93
621.04	29432.24
621.19	29371.38
621.34	29240.31
621.49	28725.39
621.65	28753.48
621.80	29163.08
621.95	28891.57
622.10	28877.53
622.25	28676.24
622.41	28811.99
622.56	28996.90
622.71	29474.37
622.86	28830.72
623.01	29308.19
623.16	28893.91
623.32	28514.75
623.47	29083.50
623.62	28781.57
623.77	28292.40
623.92	28655.18
624.07	28641.14
624.23	28474.96
624.38	28861.15
624.53	29074.13
624.68	28933.70
624.83	28926.68
624.98	28533.47
625.13	28547.51
625.29	28601.35
625.44	28772.21
625.59	28601.35
625.74	28142.60
625.89	28348.57
626.04	28767.52
626.19	28659.86
626.34	28404.74
626.49	28205.80
626.65	28374.31
626.80	28650.50
626.95	28732.42
627.10	28336.87
627.25	28599.01
627.40	28041.96
627.55	28254.95
627.70	28173.03
627.85	27803.22
628.00	28098.13
628.15	28100.47
628.30	28161.33
628.45	28121.54
628.60	28222.18
628.76	28290.06
628.91	28322.82
629.06	28566.24
629.21	28009.19
629.36	28329.84
629.51	27803.22
629.66	28027.92
629.81	27995.15
629.96	27995.15
630.11	28053.66
630.26	27782.16
630.41	27901.53
630.56	27875.78
630.71	27803.22
630.86	28327.50
631.01	27983.44
631.16	28112.17
631.31	28013.87
631.46	27775.14
631.61	27983.44
631.76	28023.23
631.91	27756.41
632.06	27866.42
632.21	27646.41
632.36	27775.14
632.51	27784.50
632.66	27431.08
632.81	27363.20
632.96	28119.20
633.10	27674.49
633.25	27569.17
633.40	27772.80
633.55	28130.90
633.70	27044.89
633.85	27711.94
634.00	27562.15
634.15	27639.39
634.30	27515.34
634.45	27578.53
634.60	27704.92
634.75	27276.60
634.90	27225.11
635.05	27646.41
635.19	27496.61
635.34	27623.00
635.49	27688.54
635.64	27424.06
635.79	27442.78
635.94	27255.54
636.09	27580.87
636.24	27395.97
636.39	27702.58
636.53	27459.16
636.68	26939.57
636.83	27051.91
636.98	27288.31
637.13	27527.04
637.28	27180.64
637.43	27744.71
637.57	27339.80
637.72	27051.91
637.87	26806.16
638.02	27295.33
638.17	27012.12
638.32	26904.46
638.46	26881.05
638.61	27192.34
638.76	26764.03
638.91	26993.40
639.06	26766.37
639.20	27042.55
639.35	27218.09
639.50	27124.47
639.65	27150.21
639.80	27388.95
639.94	26934.88
640.09	27094.04
640.24	26707.85
640.39	26611.89
640.54	26850.63
640.68	26647.00
640.83	26911.48
640.98	26590.83
641.13	26403.58
641.27	26888.07
641.42	27143.19
641.57	26923.18
641.72	26869.35
641.86	26319.32
642.01	26689.13
642.16	26642.32
642.31	26305.28
642.45	26663.38
642.60	26513.59
642.75	26272.51
642.90	26338.05
643.04	26497.20
643.19	26630.62
643.34	26387.20
643.48	26508.91
643.63	26452.73
643.78	26506.57
643.93	26682.11
644.07	26382.52
644.22	26209.32
644.37	26780.41
644.51	26761.69
644.66	26485.50
644.81	26408.26
644.95	26148.46
645.10	26398.90
645.25	26120.38
645.39	26267.83
645.54	26162.51
645.69	26359.11
645.83	26148.46
645.98	26174.21
646.13	26256.13
646.27	26548.70
646.42	26583.80
646.57	26300.60
646.71	26256.13
646.86	26010.37
647.00	26230.38
647.15	26368.48
647.30	26197.62
647.44	26218.68
647.59	25883.98
647.74	26199.96
647.88	25795.04
648.03	25659.29
648.17	26300.60
648.32	25949.52
648.47	26136.76
648.61	26096.97
648.76	25954.20
648.90	26335.71
649.05	26036.12
649.20	25888.67
649.34	25933.14
649.49	25949.52
649.63	25823.13
649.78	25937.82
649.92	25830.15
650.07	25898.03
650.21	25607.80
650.36	25743.55
650.51	25408.86
650.65	25645.25
650.80	25537.59
650.94	25834.83
651.09	25645.25
651.23	25256.72
651.38	25963.56
651.52	25778.66
651.67	25502.48
651.81	25528.22
651.96	25429.92
652.10	25600.78
652.25	25596.10
652.39	25879.30
652.54	25528.22
652.68	25439.28
652.83	25521.20
652.97	25642.91
653.12	25509.50
653.26	25406.52
653.41	25420.56
653.55	25263.74
653.70	25301.19
653.84	25530.56
653.99	25090.54
654.13	25053.09
654.27	25481.41
654.42	25308.21
654.56	25343.32
654.71	25062.46
654.85	25104.59
655.00	25165.44
655.14	25406.52
655.29	25223.95
655.43	25282.47
655.57	25027.35
655.72	25116.29
655.86	25081.18
656.01	25287.15
656.15	25280.13
656.30	25036.71
656.44	25088.20
656.58	24952.45
656.73	24858.83
656.87	24936.07
657.01	24950.11
657.16	24945.43
657.30	25132.67
657.45	24868.19
657.59	25034.37
657.73	24744.14
657.88	25010.96
658.02	24781.59
658.16	24755.85
658.31	24863.51
658.45	24758.19
658.60	24393.06
658.74	24652.86
658.88	24671.59
659.03	24376.68
659.17	24716.06
659.31	24718.40
659.46	24758.19
659.60	24723.08
659.74	24680.95
659.89	24657.54
660.03	24287.74
660.17	24645.84
660.32	24196.46
660.46	24418.81
660.60	24276.04
660.74	24027.94
660.89	24187.10
661.03	23969.43
661.17	24374.34
661.32	24519.45
661.46	24456.26
661.60	23992.83
661.74	23864.10
661.89	24264.33
662.03	24379.02
662.17	24261.99
662.31	23894.53
662.46	24210.50
662.60	24121.56
662.74	24060.71
662.88	23740.05
663.03	23541.11
663.17	23681.54
663.31	23730.69
663.45	23501.32
663.60	23655.79
663.74	23527.06
663.88	23550.47
664.02	23613.66
664.17	23733.03
664.31	23491.96
664.45	23620.69
664.59	23630.05
664.73	23660.48
664.88	23875.80
665.02	23337.48
665.16	23583.24
665.30	23208.75
665.44	23630.05
665.59	23241.52
665.73	23356.21
665.87	23255.56
666.01	23541.11
666.15	23398.34
666.29	23414.72
666.44	23166.62
666.58	23051.94
666.72	22944.27
666.86	22808.52
667.00	23267.27
667.14	22944.27
667.28	22705.54
667.43	22860.01
667.57	23281.31
667.71	22967.68
667.85	22632.98
667.99	22691.49
668.13	22441.06
668.27	23028.53
668.41	22953.63
668.56	22623.62
668.70	22710.22
668.84	22766.39
668.98	22443.40
669.12	22609.58
669.26	22520.63
669.40	22731.28
669.54	22534.68
669.68	22696.17
669.82	22321.69
669.96	22328.71
670.10	22043.17
670.25	22001.04
670.39	22260.84
670.53	22361.48
670.67	22258.49
670.81	22061.89
670.95	22132.11
671.09	22019.76
671.23	21837.20
671.37	21982.31
671.51	22082.95
671.65	22005.72
671.79	21832.52
671.93	21710.81
672.07	21844.22
672.21	21502.50
672.35	21238.02
672.49	21631.23
672.63	21408.88
672.77	21329.30
672.91	21617.19
673.05	21434.63
673.19	21645.27
673.33	21343.35
673.47	21455.69
673.61	21184.19
673.75	21781.03
673.89	21378.45
674.03	21312.92
674.17	21216.96
674.31	21411.22
674.45	21102.27
674.59	20898.64
674.73	20851.83
674.87	20830.77
675.01	20861.19
675.15	20760.55
675.29	20718.42
675.43	20800.34
675.56	20872.90
675.70	20748.85
675.84	20898.64
675.98	20088.82
676.12	20819.07
676.26	20765.23
676.40	20643.52
676.54	20577.99
676.68	20063.07
676.82	19957.75
676.96	20247.97
677.10	20212.87
677.23	20201.16
677.37	19887.53
677.51	19920.30
677.65	20018.60
677.79	19826.68
677.93	19758.80
678.07	19756.46
678.21	19697.95
678.34	19524.75
678.48	19491.98
678.62	19700.29
678.76	19609.01
678.90	19765.82
679.04	19250.91
679.18	19236.86
679.31	19297.72
679.45	19232.18
679.59	18944.30
679.73	18850.67
679.87	18881.10
680.00	18991.11
680.14	18773.44
680.28	18651.73
680.42	18927.91
680.56	18941.96
680.70	18618.96
680.83	18941.96
680.97	18754.71
681.11	18787.48
681.25	18579.17
681.39	18604.92
681.52	18544.06
681.66	18225.75
681.80	18302.99
681.94	18181.28
682.07	18218.73
682.21	17862.97
682.35	17680.41
682.49	17900.42
682.62	17869.99
682.76	18066.60
682.90	18010.42
683.04	17909.78
683.17	17965.95
683.31	17610.19
683.45	17324.65
683.59	17577.42
683.72	17455.72
683.86	17741.26
684.00	17378.48
684.13	17373.80
684.27	17209.96
684.41	17270.81
684.55	17277.83
684.68	16847.18
684.82	17294.22
684.96	17039.10
685.09	17207.62
685.23	16776.96
685.37	16943.14
685.50	17116.34
685.64	17095.27
685.78	16760.58
685.91	17057.82
686.05	16718.45
686.19	16706.74
686.32	16482.05
686.46	16423.54
686.60	16517.16
686.73	16634.19
686.87	16154.38
687.01	16290.13
687.14	16081.82
687.28	15847.77
687.42	16198.85
687.55	15681.59
687.69	16339.28
687.82	15681.59
687.96	15840.75
688.10	15901.60
688.23	15981.18
688.37	15908.62
688.50	15564.56
688.64	15751.81
688.78	15646.48
688.91	15583.29
689.05	15541.16
689.18	15264.97
689.32	15262.63
689.46	15176.03
689.59	15407.75
689.73	15136.24
689.86	15435.83
690.00	15089.43
690.13	15246.25
690.27	15068.37
690.41	15133.90
690.54	15157.31
690.68	15033.26
690.81	14808.57
690.95	15117.52
691.08	14944.32
691.22	14881.13
691.35	14846.02
691.49	14766.44
691.62	14949.00
691.76	14516.00
691.89	14317.06
692.03	13991.72
692.16	14246.84
692.30	14265.57
692.43	13902.78
692.57	13898.10
692.70	14036.19
692.84	13982.36
692.97	14136.84
693.11	14061.94
693.24	13982.36
693.38	13958.96
693.51	13467.44
693.65	13745.97
693.78	13481.49
693.92	13661.71
694.05	13540.00
694.19	13558.72
694.32	13420.63
694.45	13380.84
694.59	13221.69
694.72	13177.22
694.86	13034.44
694.99	13107.00
695.13	12999.34
695.26	13034.44
695.39	13109.34
695.53	12842.52
695.66	13104.66
695.80	13198.28
695.93	13099.98
696.07	12669.32
696.20	12833.16
696.33	12795.71
696.47	12554.63
696.60	12793.37
696.73	12491.44
696.87	12498.46
697.00	12514.84
697.14	12219.94
697.27	12262.07
697.40	12437.61
697.54	12194.19
697.67	12086.53
697.80	12217.60
697.94	12119.29
698.07	12152.06
698.21	11908.65
698.34	11948.43
698.47	11824.39
698.61	12020.99
698.74	12023.33
698.87	12030.35
699.01	11978.86
699.14	11754.17
699.27	11744.81
699.40	11843.11
699.54	11552.88
699.67	11543.52
699.80	11426.50
699.94	11580.97
700.07	11623.10
700.20	11119.89
700.34	11396.07
700.47	11084.78
700.60	11257.98
700.73	11192.44
700.87	11044.99
701.00	11080.10
701.13	11145.63
701.26	11028.60
701.40	11094.14
701.53	11028.60
701.66	10981.79
701.79	11007.54
701.93	10871.79
702.06	10731.36
702.19	10712.63
702.32	10651.78
702.46	10450.49
702.59	10516.03
702.72	10436.45
702.85	10434.11
702.99	10115.80
703.12	10197.71
703.25	10298.36
703.38	10235.16
703.51	10104.09
703.65	10061.96
703.78	10391.98
703.91	10031.54
704.04	9933.23
704.17	9968.34
704.31	9914.51
704.44	9753.01
704.57	9884.08
704.70	9717.90
704.83	9717.90
704.96	9614.92
705.10	9593.86
705.23	9640.67
>>>>>End Processed Spectral Data<<<<<
