SpectraSuite Data File
++++++++++++++++++++++++++++++++++++
Date: Fri Oct 18 13:58:01 GMT-05:00 2013
User: bianchi
Dark Spectrum Present: No
Reference Spectrum Present: No
Number of Sampled Component Spectra: 1
Spectrometers: USB2+H05261
Integration Time (usec): 50000 (USB2+H05261)
Spectra Averaged: 1 (USB2+H05261)
Boxcar Smoothing: 0 (USB2+H05261)
Correct for Electrical Dark: No (USB2+H05261)
Strobe/Lamp Enabled: No (USB2+H05261)
Correct for Detector Non-linearity: No (USB2+H05261)
Correct for Stray Light: No (USB2+H05261)
Number of Pixels in Processed Spectrum: 2048
>>>>>Begin Processed Spectral Data<<<<<
365.73	0.00
365.92	0.00
366.12	0.00
366.32	0.00
366.52	0.00
366.72	0.00
366.91	0.00
367.11	0.00
367.31	0.00
367.51	0.00
367.70	0.00
367.90	0.00
368.10	0.00
368.30	0.00
368.49	0.00
368.69	0.00
368.89	0.00
369.09	0.00
369.28	0.00
369.48	0.00
369.68	0.00
369.87	0.00
370.07	0.00
370.27	0.00
370.47	0.00
370.66	74.90
370.86	98.30
371.06	166.18
371.25	177.88
371.45	74.90
371.65	58.51
371.84	107.66
372.04	156.82
372.24	149.79
372.44	187.24
372.63	222.35
372.83	245.76
373.03	271.50
373.22	262.14
373.42	177.88
373.62	191.92
373.81	252.78
374.01	170.86
374.21	245.76
374.40	280.86
374.60	198.95
374.79	245.76
374.99	212.99
375.19	276.18
375.38	257.46
375.58	257.46
375.78	205.97
375.97	280.86
376.17	313.63
376.37	259.80
376.56	236.39
376.76	208.31
376.95	320.65
377.15	273.84
377.35	231.71
377.54	259.80
377.74	318.31
377.93	234.05
378.13	273.84
378.33	344.06
378.52	203.63
378.72	334.70
378.91	285.55
379.11	304.27
379.31	330.02
379.50	294.91
379.70	330.02
379.89	306.61
380.09	362.78
380.28	276.18
380.48	245.76
380.68	315.97
380.87	264.48
381.07	287.89
381.26	334.70
381.46	304.27
381.65	353.42
381.85	344.06
382.04	266.82
382.24	360.44
382.43	262.14
382.63	341.72
382.83	367.46
383.02	379.17
383.22	355.76
383.41	203.63
383.61	404.91
383.80	409.59
384.00	365.12
384.19	423.64
384.39	404.91
384.58	330.02
384.78	320.65
384.97	320.65
385.17	374.49
385.36	327.68
385.56	388.53
385.75	315.97
385.95	423.64
386.14	362.78
386.34	388.53
386.53	383.85
386.72	407.25
386.92	414.27
387.11	365.12
387.31	437.68
387.50	472.79
387.70	475.13
387.89	416.62
388.09	430.66
388.28	400.23
388.48	505.56
388.67	465.77
388.86	440.02
389.06	463.43
389.25	388.53
389.45	514.92
389.64	475.13
389.84	503.22
390.03	404.91
390.22	442.36
390.42	559.39
390.61	465.77
390.81	447.04
391.00	440.02
391.19	512.58
391.39	533.64
391.58	468.11
391.78	486.83
391.97	531.30
392.16	561.73
392.36	512.58
392.55	578.11
392.75	498.53
392.94	578.11
393.13	561.73
393.33	484.49
393.52	514.92
393.71	617.90
393.91	571.09
394.10	524.28
394.29	594.50
394.49	596.84
394.68	578.11
394.88	622.58
395.07	688.12
395.26	603.86
395.46	564.07
395.65	613.22
395.84	697.48
396.04	636.63
396.23	603.86
396.42	610.88
396.62	669.39
396.81	697.48
397.00	662.37
397.19	648.33
397.39	660.03
397.58	683.44
397.77	699.82
397.97	645.99
398.16	643.65
398.35	690.46
398.55	678.76
398.74	751.31
398.93	725.57
399.12	711.52
399.32	676.41
399.51	692.80
399.70	702.16
399.90	727.91
400.09	777.06
400.28	711.52
400.47	779.40
400.67	746.63
400.86	781.74
401.05	809.83
401.24	748.97
401.44	858.98
401.63	791.10
401.82	819.19
402.01	788.76
402.21	774.72
402.40	774.72
402.59	795.78
402.78	880.04
402.97	767.70
403.17	908.13
403.36	823.87
403.55	770.04
403.74	894.08
403.93	861.32
404.13	919.83
404.32	912.81
404.51	931.53
404.70	891.74
404.89	847.27
405.09	940.90
405.28	905.79
405.47	1008.77
405.66	1027.50
405.85	1029.84
406.05	950.26
406.24	961.96
406.43	957.28
406.62	1029.84
406.81	1064.94
407.00	1041.54
407.20	976.00
407.39	1015.79
407.58	999.41
407.77	1088.35
407.96	1025.15
408.15	1050.90
408.34	1170.27
408.54	1076.65
408.73	1149.20
408.92	1097.71
409.11	1102.39
409.30	1090.69
409.49	1163.25
409.68	1102.39
409.87	1142.18
410.07	1273.25
410.26	1144.52
410.45	1146.86
410.64	1135.16
410.83	1181.97
411.02	1086.01
411.21	1156.22
411.40	1214.74
411.59	1254.53
411.78	1334.11
411.98	1263.89
412.17	1296.66
412.36	1270.91
412.55	1336.45
412.74	1301.34
412.93	1462.83
413.12	1270.91
413.31	1434.75
413.50	1341.13
413.69	1373.89
413.88	1369.21
414.07	1299.00
414.26	1376.24
414.45	1416.02
414.64	1465.18
414.83	1497.94
415.02	1495.60
415.22	1614.97
415.41	1547.09
415.60	1572.84
415.79	1610.29
415.98	1568.16
416.17	1500.28
416.36	1661.78
416.55	1579.86
416.74	1598.59
416.93	1650.08
417.12	1678.16
417.31	1713.27
417.50	1720.29
417.69	1596.25
417.88	1678.16
418.07	1687.53
418.26	1832.64
418.45	1678.16
418.64	1858.39
418.83	1762.42
419.02	1692.21
419.21	1818.60
419.39	1858.39
419.58	1842.00
419.77	1832.64
419.96	1865.41
420.15	1886.47
420.34	1827.96
420.53	1795.19
420.72	1916.90
420.91	2001.16
421.10	1900.52
421.29	2050.31
421.48	1912.22
421.67	1956.69
421.86	1944.99
422.05	1982.43
422.24	1935.62
422.43	1973.07
422.61	1935.62
422.80	2062.01
422.99	2029.24
423.18	1998.82
423.37	2019.88
423.56	1968.39
423.75	1994.14
423.94	2097.12
424.13	1895.83
424.32	1909.88
424.50	2029.24
424.69	2033.93
424.88	2015.20
425.07	1980.09
425.26	2031.58
425.45	1989.46
425.64	1921.58
425.83	2085.42
426.01	2148.61
426.20	2024.56
426.39	2106.48
426.58	2045.63
426.77	2001.16
426.96	2139.25
427.15	2129.89
427.33	2106.48
427.52	2078.40
427.71	2148.61
427.90	2225.85
428.09	2312.45
428.28	2155.63
428.46	2279.68
428.65	2310.11
428.84	2160.31
429.03	2282.02
429.22	2253.94
429.40	2221.17
429.59	2296.07
429.78	2167.34
429.97	2193.08
430.16	2216.49
430.34	2242.23
430.53	2270.32
430.72	2275.00
430.91	2181.38
431.10	2354.58
431.28	2345.22
431.47	2394.37
431.66	2422.45
431.85	2443.52
432.03	2487.99
432.22	2429.48
432.41	2415.43
432.60	2377.98
432.79	2359.26
432.97	2464.58
433.16	2530.12
433.35	2455.22
433.54	2616.72
433.72	2448.20
433.91	2471.61
434.10	2476.29
434.28	2527.78
434.47	2590.97
434.66	2656.51
434.85	2520.76
435.03	2593.31
435.22	2539.48
435.41	2712.68
435.59	2581.61
435.78	2553.52
435.97	2633.10
436.16	2600.34
436.34	2628.42
436.53	2745.45
436.72	2747.79
436.90	2614.38
437.09	2806.30
437.28	2548.84
437.46	2764.17
437.65	2747.79
437.84	2731.41
438.02	2708.00
438.21	2684.59
438.40	2738.43
438.58	2846.09
438.77	2888.22
438.96	2820.35
439.14	2818.00
439.33	2946.73
439.52	2860.13
439.70	3045.04
439.89	3030.99
440.08	2949.08
440.26	3066.10
440.45	3073.12
440.63	3133.98
440.82	3108.23
441.01	3243.98
441.19	3276.75
441.38	3038.02
441.57	3061.42
441.75	3225.26
441.94	3258.03
442.12	3183.13
442.31	3410.16
442.50	3213.56
442.68	3194.83
442.87	3412.50
443.05	3288.45
443.24	3339.94
443.43	3346.97
443.61	3361.01
443.80	3438.25
443.98	3302.50
444.17	3255.69
444.35	3368.03
444.54	3480.38
444.73	3452.29
444.91	3344.63
445.10	3435.91
445.28	3541.23
445.47	3353.99
445.65	3407.82
445.84	3442.93
446.02	3454.63
446.21	3379.73
446.39	3396.12
446.58	3592.72
446.77	3611.45
446.95	3405.48
447.14	3501.44
447.32	3463.99
447.51	3494.42
447.69	3595.06
447.88	3449.95
448.06	3468.67
448.25	3461.65
448.43	3456.97
448.62	3503.78
448.80	3576.34
448.99	3674.64
449.17	3667.62
449.36	3541.23
449.54	3676.98
449.73	3571.66
449.91	3545.91
450.10	3681.66
450.28	3707.41
450.46	3707.41
450.65	3772.94
450.83	3714.43
451.02	3782.31
451.20	3843.16
451.39	3929.76
451.57	3733.15
451.76	3655.92
451.94	3779.97
452.13	3782.31
452.31	3803.37
452.49	3859.54
452.68	3761.24
452.86	3852.52
453.05	3779.97
453.23	3922.74
453.42	3861.88
453.60	3826.78
453.78	3843.16
453.97	3981.25
454.15	3948.48
454.34	3826.78
454.52	4042.11
454.70	4058.49
454.89	4018.70
455.07	4044.45
455.26	4060.83
455.44	4175.52
455.62	4147.43
455.81	4145.09
455.99	4114.66
456.17	4135.73
456.36	4219.99
456.54	4168.49
456.73	4217.65
456.91	4334.67
457.09	4409.57
457.28	4322.97
457.46	4362.76
457.64	4322.97
457.83	4388.50
458.01	4241.05
458.19	4348.72
458.38	4386.16
458.56	4430.63
458.74	4538.30
458.93	4339.35
459.11	4416.59
459.29	4456.38
459.48	4535.96
459.66	4461.06
459.84	4587.45
460.03	4615.54
460.21	4489.15
460.39	4273.82
460.57	4545.32
460.76	4727.88
460.94	4503.19
461.12	4493.83
461.31	4620.22
461.49	4550.00
461.67	4629.58
461.85	4746.61
462.04	4657.67
462.22	4999.38
462.40	4678.73
462.59	4503.19
462.77	4669.37
462.95	4720.86
463.13	4678.73
463.32	4760.65
463.50	4922.15
463.68	4844.91
463.86	4842.57
464.05	4887.04
464.23	4716.18
464.41	4854.27
464.59	4753.63
464.78	4861.29
464.96	4933.85
465.14	4809.80
465.32	4954.91
465.50	5076.62
465.69	4842.57
465.87	5015.77
466.05	4985.34
466.23	4964.28
466.41	5067.26
466.60	5186.63
466.78	5074.28
466.96	5172.58
467.14	4830.87
467.32	5146.84
467.51	5053.22
467.69	5032.15
467.87	5095.35
468.05	5203.01
468.23	5123.43
468.41	5109.39
468.60	5198.33
468.78	5195.99
468.96	5203.01
469.14	5430.04
469.32	5240.46
469.50	5172.58
469.69	5385.57
469.87	5390.25
470.05	5390.25
470.23	5165.56
470.41	5451.11
470.59	5483.88
470.77	5493.24
470.95	5469.83
471.14	5542.39
471.32	5458.13
471.50	5657.07
471.68	5504.94
471.86	5568.13
472.04	5673.46
472.22	5849.00
472.40	5603.24
472.58	5556.43
472.77	5769.42
472.95	5748.36
473.13	6076.03
473.31	5949.64
473.49	6019.86
473.67	5928.58
473.85	5738.99
474.03	5879.43
474.21	6024.54
474.39	6153.27
474.57	6101.78
474.75	6132.20
474.93	6162.63
475.12	6146.25
475.30	6148.59
475.48	6235.19
475.66	6190.72
475.84	6214.12
476.02	6153.27
476.20	6375.62
476.38	6274.98
476.56	6567.54
476.74	6600.31
476.92	6518.39
477.10	6558.18
477.28	6525.41
477.46	6621.38
477.64	6544.14
477.82	6874.15
478.00	6810.96
478.18	6930.33
478.36	7014.59
478.54	6970.12
478.72	7218.21
478.90	7178.42
479.08	7194.81
479.26	7250.98
479.44	7166.72
479.62	7173.74
479.80	7485.03
479.98	7473.33
480.16	7403.11
480.34	7475.67
480.52	7702.70
480.70	7510.78
480.88	7613.76
481.06	7618.44
481.24	7606.74
481.41	7726.11
481.59	7852.50
481.77	7950.80
481.95	8126.34
482.13	8086.55
482.31	8145.06
482.49	8372.10
482.67	8372.10
482.85	8458.70
483.03	8475.08
483.21	8521.89
483.39	8650.62
483.57	8432.95
483.74	8748.92
483.92	8636.58
484.10	8535.93
484.28	8971.27
484.46	9151.49
484.64	9097.66
484.82	8954.89
485.00	9132.77
485.18	9259.16
485.35	9275.54
485.53	9210.01
485.71	9254.48
485.89	9753.01
486.07	9280.22
486.25	9568.11
486.43	9336.40
486.61	9816.21
486.78	10043.24
486.96	9755.35
487.14	9912.17
487.32	10033.88
487.50	10218.78
487.68	10230.48
487.85	10335.81
488.03	10483.26
488.21	10494.96
488.39	10700.93
488.57	10686.89
488.75	10752.42
488.92	10998.18
489.10	10829.66
489.28	10764.12
489.46	11166.70
489.64	10822.64
489.81	11150.31
489.99	11229.89
490.17	11414.79
490.35	11515.44
490.53	11470.97
490.70	11770.55
490.88	11522.46
491.06	11840.77
491.24	11637.14
491.41	11896.94
491.59	12006.95
491.77	11878.22
491.95	12196.53
492.13	11866.52
492.30	12301.86
492.48	12287.81
492.66	12145.04
492.84	12280.79
493.01	12205.89
493.19	12411.86
493.37	12496.12
493.54	12709.11
493.72	12879.97
493.90	12786.35
494.08	12886.99
494.25	13249.77
494.43	13081.25
494.61	13312.97
494.79	13406.59
494.96	13280.20
495.14	13266.16
495.32	13661.71
495.49	13493.19
495.67	13481.49
495.85	13619.58
496.02	13802.14
496.20	13818.52
496.38	13769.37
496.55	13846.61
496.73	14356.85
496.91	13823.20
497.09	14380.25
497.26	14190.67
497.44	14394.29
497.62	14267.91
497.79	14792.19
497.97	14410.68
498.14	14642.39
498.32	14836.66
498.50	14834.32
498.67	14817.93
498.85	14923.26
499.03	14808.57
499.20	14965.39
499.38	14874.10
499.56	15068.37
499.73	15527.11
499.91	15405.41
500.08	15730.74
500.26	15449.88
500.44	15351.57
500.61	15840.75
500.79	15644.14
500.97	15805.64
501.14	15744.78
501.32	15943.73
501.49	15843.09
501.67	15819.68
501.84	15957.77
502.02	15946.07
502.20	16208.21
502.37	15873.51
502.55	16189.49
502.72	16163.74
502.90	16233.96
503.07	16006.92
503.25	16320.56
503.43	16135.65
503.60	16329.92
503.78	16465.67
503.95	16166.08
504.13	16589.72
504.30	16711.42
504.48	16987.61
504.65	16727.81
504.83	16805.05
505.01	16966.54
505.18	17170.17
505.36	16999.31
505.53	16767.60
505.71	17118.68
505.88	16987.61
506.06	16823.77
506.23	17284.86
506.41	17142.08
506.58	17600.83
506.76	17214.64
506.93	17640.62
507.11	17575.08
507.28	17652.32
507.46	17584.44
507.63	18097.02
507.81	17755.30
507.98	17633.60
508.16	17750.62
508.33	17792.75
508.50	17830.20
508.68	18068.94
508.85	18066.60
509.03	18068.94
509.20	18155.54
509.38	18490.23
509.55	18464.49
509.73	18230.43
509.90	18321.71
510.08	18288.95
510.25	18324.05
510.42	18705.56
510.60	18551.09
510.77	18602.58
510.95	18618.96
511.12	18799.18
511.30	18462.15
511.47	18768.76
511.64	18780.46
511.82	18827.27
511.99	18850.67
512.17	19227.50
512.34	19016.85
512.51	19253.25
512.69	19143.24
512.86	19255.59
513.04	19573.90
513.21	19386.66
513.38	19267.29
513.56	19456.87
513.73	19349.21
513.90	19548.15
514.08	19484.96
514.25	19939.02
514.43	19810.29
514.60	19627.73
514.77	19604.33
514.95	19899.23
515.12	19749.44
515.29	19852.42
515.47	19819.66
515.64	20238.61
515.81	19988.18
515.99	20205.84
516.16	20538.20
516.33	20393.09
516.51	20163.72
516.68	20243.29
516.85	20264.36
517.03	20613.10
517.20	20503.09
517.37	20713.74
517.54	20479.69
517.72	20772.25
517.89	20472.67
518.06	20510.11
518.24	20549.90
518.41	20416.49
518.58	20821.41
518.75	20884.60
518.93	20676.29
519.10	20767.57
519.27	21092.91
519.45	21111.63
519.62	21001.63
519.79	21128.02
519.96	20884.60
520.14	21420.58
520.31	21120.99
520.48	21179.51
520.65	21425.26
520.83	21399.52
521.00	21301.22
521.17	21099.93
521.34	21500.16
521.52	21511.86
521.69	21675.70
521.86	21514.20
522.03	21986.99
522.20	21727.19
522.38	21813.79
522.55	21701.45
522.72	21652.30
522.89	22012.74
523.07	22125.08
523.24	22092.32
523.41	22031.46
523.58	21895.71
523.75	22045.51
523.92	22080.61
524.10	22085.30
524.27	22436.38
524.44	22541.70
524.61	22710.22
524.78	22513.61
524.96	22515.95
525.13	22480.85
525.30	22473.82
525.47	22548.72
525.64	22466.80
525.81	22394.25
525.98	22806.18
526.16	22565.10
526.33	22848.31
526.50	22937.25
526.67	22750.01
526.84	22778.09
527.01	22972.36
527.18	22787.46
527.36	22869.37
527.53	22838.95
527.70	23131.51
527.87	23183.01
528.04	23157.26
528.21	23257.90
528.38	23267.27
528.55	23555.15
528.72	23243.86
528.89	23241.52
529.07	23707.29
529.24	23374.93
529.41	23709.63
529.58	23367.91
529.75	23426.42
529.92	23564.51
530.09	23646.43
530.26	23608.98
530.43	24037.30
530.60	23557.49
530.77	23962.40
530.94	23644.09
531.11	24077.09
531.28	23777.50
531.46	23845.38
531.63	23424.08
531.80	23765.80
531.97	24666.91
532.14	23948.36
532.31	24072.41
532.48	24276.04
532.65	24095.82
532.82	24112.20
532.99	24217.52
533.16	24023.26
533.33	24355.61
533.50	24453.92
533.67	24137.94
533.84	24470.30
534.01	24086.45
534.18	24018.58
534.35	24442.21
534.52	24280.72
534.69	24912.66
534.86	24577.97
535.03	24409.45
535.20	24596.69
535.37	24608.39
535.54	24439.87
535.71	24680.95
535.88	24489.03
536.05	24493.71
536.22	25025.01
536.38	24821.38
536.55	25247.36
536.72	24875.21
536.89	24819.04
537.06	24814.36
537.23	25343.32
537.40	25015.65
537.57	25151.40
537.74	25158.42
537.91	25453.33
538.08	25235.66
538.25	25046.07
538.42	25364.39
538.59	25010.96
538.75	24917.34
538.92	25312.89
539.09	25614.82
539.26	25511.84
539.43	25212.25
539.60	25694.40
539.77	25294.17
539.94	25736.53
540.11	25635.89
540.28	25549.29
540.44	25577.37
540.61	25511.84
540.78	25364.39
540.95	25678.02
541.12	25998.67
541.29	25900.37
541.46	25731.85
541.62	25661.63
541.79	25813.77
541.96	25860.58
542.13	25898.03
542.30	25783.34
542.47	26113.36
542.63	26284.22
542.80	26103.99
542.97	26195.28
543.14	26272.51
543.31	26314.64
543.48	26445.71
543.64	26602.53
543.81	26111.02
543.98	26775.73
544.15	26445.71
544.32	26913.82
544.48	26590.83
544.65	26438.69
544.82	26429.33
544.99	26082.93
545.16	26576.78
545.32	26183.57
545.49	27030.85
545.66	26803.82
545.83	26560.40
546.00	27042.55
546.16	26941.91
546.33	26551.04
546.50	26253.79
546.67	26792.11
546.83	26366.13
547.00	26981.70
547.17	26691.47
547.34	26595.51
547.50	27197.02
547.67	27304.69
547.84	27103.40
548.00	27276.60
548.17	26841.26
548.34	26869.35
548.51	27103.40
548.67	27089.36
548.84	27356.18
549.01	27529.38
549.18	27538.74
549.34	27049.57
549.51	27498.95
549.68	27110.43
549.84	27468.53
550.01	27489.59
550.18	27040.21
550.34	27229.79
550.51	27740.03
550.68	27374.91
550.84	27391.29
551.01	27608.96
551.18	27573.85
551.34	27550.45
551.51	27573.85
551.68	27517.68
551.84	27381.93
552.01	27477.89
552.18	28020.89
552.34	27597.26
552.51	27487.25
552.68	27667.47
552.84	27768.12
553.01	27683.86
553.18	27552.79
553.34	27754.07
553.51	27761.09
553.67	28041.96
553.84	27978.76
554.01	28077.07
554.17	27992.81
554.34	27843.01
554.51	27887.48
554.67	28048.98
554.84	28067.70
555.00	28409.42
555.17	27887.48
555.33	28350.91
555.50	28271.33
555.67	28048.98
555.83	27992.81
556.00	28116.86
556.16	28388.36
556.33	28102.81
556.50	28285.37
556.66	28446.87
556.83	28285.37
556.99	28484.32
557.16	28666.88
557.32	28423.47
557.49	28437.51
557.65	28142.60
557.82	28243.24
557.98	28037.28
558.15	28360.27
558.32	28720.71
558.48	28374.31
558.65	28517.09
558.81	28774.55
558.98	28533.47
559.14	28294.74
559.31	28538.15
559.47	28706.67
559.64	28807.31
559.80	28772.21
559.97	28914.98
560.13	28650.50
560.30	28844.76
560.46	29144.35
560.63	28767.52
560.79	28631.77
560.96	29015.62
561.12	28671.56
561.29	28802.63
561.45	28774.55
561.61	28662.20
561.78	28957.11
561.94	29039.03
562.11	29247.33
562.27	28992.22
562.44	29053.07
562.60	28528.79
562.77	28804.97
562.93	28884.55
563.10	28938.38
563.26	29083.50
563.42	29113.92
563.59	29317.55
563.75	28931.36
563.92	29317.55
564.08	28643.48
564.24	28861.15
564.41	28861.15
564.57	28933.70
564.74	29291.80
564.90	28872.85
565.07	29507.13
565.23	29237.97
565.39	29104.56
565.56	29333.93
565.72	29015.62
565.88	29048.39
566.05	29266.06
566.21	29142.01
566.38	29123.29
566.54	29352.66
566.70	29277.76
566.87	29579.69
567.03	29460.32
567.19	29694.38
567.36	29350.32
567.52	29680.33
567.68	29069.45
567.85	29455.64
568.01	29212.23
568.17	29099.88
568.34	29200.52
568.50	29521.18
568.66	29476.71
568.83	29577.35
568.99	29305.85
569.15	29149.03
569.32	29029.66
569.48	29305.85
569.64	29205.20
569.81	29270.74
569.97	29244.99
570.13	29383.09
570.30	29237.97
570.46	29539.90
570.62	29315.21
570.78	29329.25
570.95	29294.14
571.11	29289.46
571.27	29273.08
571.43	29219.25
571.60	29530.54
571.76	29783.32
571.92	29448.62
572.09	29284.78
572.25	29886.30
572.41	29680.33
572.57	29392.45
572.74	29331.59
572.90	29453.30
573.06	29465.00
573.22	29621.82
573.38	29572.67
573.55	29298.83
573.71	29727.14
573.87	29989.28
574.03	29659.27
574.20	29902.68
574.36	29436.92
574.52	29439.26
574.68	29706.08
574.84	29935.45
575.01	29600.76
575.17	29560.97
575.33	29612.46
575.49	29532.88
575.65	29853.53
575.82	29516.50
575.98	29724.80
576.14	29951.84
576.30	29996.31
576.46	29745.87
576.62	29738.85
576.79	29507.13
576.95	29507.13
577.11	29654.59
577.27	30139.08
577.43	29785.66
577.59	29970.56
577.75	29790.34
577.92	29469.69
578.08	29490.75
578.24	29621.82
578.40	29546.92
578.56	30108.65
578.72	30155.46
578.88	30127.38
579.04	30251.42
579.21	29701.40
579.37	29713.10
579.53	29919.07
579.69	29563.31
579.85	29516.50
580.01	29933.11
580.17	29692.04
580.33	29579.69
580.49	29748.21
580.65	29876.94
580.82	29661.61
580.98	29951.84
581.14	29881.62
581.30	29914.39
581.46	30267.81
581.62	29757.57
581.78	29820.77
581.94	29729.48
582.10	29713.10
582.26	29972.90
582.42	29788.00
582.58	30249.08
582.74	29806.72
582.90	30096.95
583.06	29811.40
583.22	29860.55
583.38	30307.60
583.54	30068.86
583.70	29607.78
583.86	29890.98
584.02	29809.06
584.18	30068.86
584.34	30274.83
584.50	30024.39
584.66	29823.11
584.82	29795.02
584.98	30157.80
585.14	30022.05
585.30	29720.12
585.46	30038.44
585.62	30040.78
585.78	30167.16
585.94	29685.01
586.10	29722.46
586.26	29785.66
586.42	30235.04
586.58	30494.84
586.74	29991.62
586.90	29827.79
587.06	30089.93
587.22	29738.85
587.38	30017.37
587.54	29900.34
587.70	29895.66
587.86	29958.86
588.02	30155.46
588.18	30508.88
588.34	30188.23
588.49	29879.28
588.65	29832.47
588.81	29783.32
588.97	30012.69
589.13	30092.27
589.29	29895.66
589.45	30209.29
589.61	30139.08
589.77	30033.75
589.93	29926.09
590.08	30408.24
590.24	30689.10
590.40	30323.98
590.56	30321.64
590.72	30321.64
590.88	30089.93
591.04	29773.95
591.20	30370.79
591.35	30501.86
591.51	30773.36
591.67	30008.01
591.83	30527.61
591.99	30005.67
592.15	30616.55
592.31	30338.02
592.46	30101.63
592.62	30110.99
592.78	30487.82
592.94	30424.62
593.10	30286.53
593.26	30398.88
593.41	30426.96
593.57	30576.76
593.73	30424.62
593.89	30375.47
594.05	30398.88
594.20	30522.93
594.36	30443.35
594.52	30644.63
594.68	30331.00
594.84	30333.34
594.99	30515.90
595.15	30562.72
595.31	30684.42
595.47	30520.59
595.62	31007.42
595.78	30625.91
595.94	30342.70
596.10	30396.54
596.25	30153.12
596.41	30635.27
596.57	29905.02
596.73	30684.42
596.88	30375.47
597.04	30874.01
597.20	30728.89
597.36	30534.63
597.51	31028.48
597.67	30525.27
597.83	30349.73
597.99	30504.20
598.14	30539.31
598.30	30279.51
598.46	30670.38
598.61	30630.59
598.77	30527.61
598.93	30611.87
599.09	30635.27
599.24	30604.84
599.40	30675.06
599.56	30881.03
599.71	30883.37
599.87	30436.33
600.03	30417.60
600.18	30197.59
600.34	30450.37
600.50	30340.36
600.65	30532.29
600.81	30775.70
600.97	30525.27
601.12	30881.03
601.28	30885.71
601.44	30969.97
601.59	30635.27
601.75	30548.67
601.91	30955.93
602.06	30600.16
602.22	30646.97
602.37	30284.19
602.53	30731.23
602.69	30838.90
602.84	30445.69
603.00	30424.62
603.16	30740.60
603.31	30864.64
603.47	30630.59
603.62	30235.04
603.78	30455.05
603.94	30476.12
604.09	30316.96
604.25	30541.65
604.40	30370.79
604.56	30883.37
604.71	30600.16
604.87	30548.67
605.03	30703.15
605.18	30780.39
605.34	30471.43
605.49	30511.22
605.65	30646.97
605.80	30288.87
605.96	30384.83
606.12	30384.83
606.27	30644.63
606.43	30583.78
606.58	30787.41
606.74	30412.92
606.89	30249.08
607.05	30375.47
607.20	30801.45
607.36	30452.71
607.51	30632.93
607.67	30143.76
607.82	30527.61
607.98	29979.92
608.13	30389.52
608.29	30766.34
608.44	30326.32
608.60	29937.79
608.75	30686.76
608.91	30228.02
609.06	30593.14
609.22	30445.69
609.37	30429.30
609.53	29961.20
609.68	30300.58
609.84	30710.17
609.99	30340.36
610.15	30073.54
610.30	30000.99
610.46	30232.70
610.61	30602.50
610.76	30113.33
610.92	30478.46
611.07	30377.81
611.23	29993.97
611.38	30410.58
611.54	30019.71
611.69	30328.66
611.84	30043.12
612.00	30162.48
612.15	29935.45
612.31	30242.06
612.46	30110.99
612.62	30574.42
612.77	29993.97
612.92	30281.85
613.08	30223.34
613.23	30384.83
613.39	29771.61
613.54	29682.67
613.69	29935.45
613.85	29879.28
614.00	30024.39
614.15	30185.89
614.31	30082.91
614.46	30190.57
614.62	30122.69
614.77	29933.11
614.92	29914.39
615.08	30115.67
615.23	30047.80
615.38	29809.06
615.54	29652.25
615.69	29596.07
615.84	29865.24
616.00	29589.05
616.15	29783.32
616.30	29933.11
616.46	30206.95
616.61	29769.27
616.76	29855.87
616.92	29795.02
617.07	29890.98
617.22	29383.09
617.37	29575.01
617.53	29766.93
617.68	29296.49
617.83	29450.96
617.99	29586.71
618.14	29500.11
618.29	29373.72
618.45	29589.05
618.60	29635.86
618.75	29390.11
618.90	29612.46
619.06	29614.80
619.21	29553.94
619.36	29806.72
619.51	29181.80
619.67	29228.61
619.82	29216.91
619.97	29305.85
620.12	29174.78
620.28	29015.62
620.43	29685.01
620.58	29432.24
620.73	29397.13
620.89	29408.83
621.04	29366.70
621.19	29315.21
621.34	29188.82
621.49	29439.26
621.65	29144.35
621.80	29237.97
621.95	28980.51
622.10	29163.08
622.25	29067.11
622.41	29284.78
622.56	29024.98
622.71	28973.49
622.86	29301.17
623.01	29376.06
623.16	29310.53
623.32	28964.13
623.47	28847.10
623.62	29106.90
623.77	28929.02
623.92	29158.39
624.07	28933.70
624.23	28727.74
624.38	29144.35
624.53	29060.09
624.68	29242.65
624.83	29390.11
624.98	28919.66
625.13	28772.21
625.29	29127.97
625.44	28929.02
625.59	28491.34
625.74	28844.76
625.89	28746.46
626.04	28388.36
626.19	28933.70
626.34	28552.20
626.49	28177.71
626.65	28407.08
626.80	29104.56
626.95	28945.41
627.10	28439.85
627.25	28690.29
627.40	28496.02
627.55	28374.31
627.70	28339.21
627.85	28367.29
628.00	28402.40
628.15	28367.29
628.30	28395.38
628.45	28203.46
628.60	28357.93
628.76	28425.81
628.91	28404.74
629.06	28603.69
629.21	28343.89
629.36	28297.08
629.51	28608.37
629.66	28381.34
629.81	28444.53
629.96	28093.45
630.11	28048.98
630.26	28306.44
630.41	28170.69
630.56	27953.02
630.71	27950.68
630.86	28439.85
631.01	28271.33
631.16	27917.91
631.31	27997.49
631.46	27971.74
631.61	28170.69
631.76	28423.47
631.91	27941.32
632.06	28219.84
632.21	27639.39
632.36	28376.66
632.51	27850.03
632.66	28107.49
632.81	28133.24
632.96	28070.04
633.10	27835.99
633.25	28182.39
633.40	28182.39
633.55	28067.70
633.70	28046.64
633.85	27716.62
634.00	28023.23
634.15	27679.18
634.30	28077.07
634.45	27934.29
634.60	28034.94
634.75	27491.93
634.90	27770.46
635.05	27580.87
635.19	27651.09
635.34	27381.93
635.49	27845.35
635.64	27639.39
635.79	27910.89
635.94	27480.23
636.09	27625.34
636.24	27676.83
636.39	27360.86
636.53	27660.45
636.68	27321.07
636.83	27508.32
636.98	27346.82
637.13	27503.64
637.28	27557.47
637.43	27391.29
637.57	27222.77
637.72	27473.21
637.87	27353.84
638.02	27229.79
638.17	27353.84
638.32	27550.45
638.46	27505.98
638.61	27180.64
638.76	26986.38
638.91	26815.52
639.06	27435.76
639.20	27187.66
639.35	27374.91
639.50	27459.16
639.65	27337.46
639.80	27075.32
639.94	27260.22
640.09	27115.11
640.24	27386.61
640.39	27122.13
640.54	27091.70
640.68	26993.40
640.83	27180.64
640.98	27187.66
641.13	26572.10
641.27	27229.79
641.42	27236.81
641.57	26974.67
641.72	27101.06
641.86	27108.08
642.01	26752.32
642.16	27009.78
642.31	26546.36
642.45	26836.58
642.60	26803.82
642.75	26649.34
642.90	26473.80
643.04	26476.14
643.19	26731.26
643.34	26607.21
643.48	26244.43
643.63	26387.20
643.78	26948.93
643.93	26892.76
644.07	26686.79
644.22	27112.77
644.37	26572.10
644.51	26279.54
644.66	26780.41
644.81	26398.90
644.95	26506.57
645.10	26520.61
645.25	26532.31
645.39	26366.13
645.54	26672.74
645.69	26518.27
645.83	26654.02
645.98	26630.62
646.13	26455.08
646.27	26852.97
646.42	26291.24
646.57	26443.37
646.71	26405.92
646.86	26380.18
647.00	26583.80
647.15	26497.20
647.30	26513.59
647.44	26349.75
647.59	25841.85
647.74	26272.51
647.88	26211.66
648.03	26305.28
648.17	26387.20
648.32	26567.42
648.47	26078.25
648.61	26382.52
648.76	26272.51
648.90	26216.34
649.05	26298.26
649.20	25647.59
649.34	26361.45
649.49	26328.69
649.63	25830.15
649.78	26141.44
649.92	26274.85
650.07	26087.61
650.21	25876.96
650.36	26192.94
650.51	25883.98
650.65	26176.55
650.80	25617.16
650.94	25825.47
651.09	25935.48
651.23	26113.36
651.38	25764.62
651.52	25940.16
651.67	25764.62
651.81	26050.16
651.96	25425.24
652.10	25937.82
652.25	25713.13
652.39	25792.70
652.54	26043.14
652.68	25970.58
652.83	25851.22
652.97	26342.73
653.12	25872.28
653.26	25731.85
653.41	25942.50
653.55	25378.43
653.70	25624.18
653.84	25216.93
653.99	25455.67
654.13	25270.76
654.27	25738.87
654.42	25085.86
654.56	25387.79
654.71	25923.77
654.85	25563.33
655.00	25612.48
655.14	25610.14
655.29	25291.83
655.43	25724.83
655.57	25298.85
655.72	25401.83
655.86	25193.53
656.01	25263.74
656.15	25081.18
656.30	25516.52
656.44	25340.98
656.58	24940.75
656.73	25399.49
656.87	25434.60
657.01	25158.42
657.16	25209.91
657.30	25081.18
657.45	25352.68
657.59	25010.96
657.73	25088.20
657.88	25078.84
658.02	24884.58
658.16	25046.07
658.31	25205.23
658.45	24905.64
658.60	24800.32
658.74	24985.22
658.88	24975.86
659.03	25036.71
659.17	24931.39
659.31	25006.28
659.46	25034.37
659.60	24858.83
659.74	24805.00
659.89	25179.48
660.03	24641.16
660.17	24751.17
660.32	24442.21
660.46	24638.82
660.60	24299.44
660.74	24416.47
660.89	24322.85
661.03	24486.68
661.17	24308.80
661.32	24137.94
661.46	24552.22
661.60	24465.62
661.74	24606.05
661.89	24479.66
662.03	24622.44
662.17	24240.93
662.31	24276.04
662.46	24329.87
662.60	24037.30
662.74	24273.70
662.88	23995.17
663.03	24107.52
663.17	24058.37
663.31	23770.48
663.45	23791.55
663.60	23658.14
663.74	23852.40
663.88	23707.29
664.02	23648.77
664.17	23826.65
664.31	23737.71
664.45	23601.96
664.59	24041.98
664.73	23889.85
664.88	23721.33
665.02	23424.08
665.16	23718.99
665.30	23431.10
665.44	23597.28
665.59	23379.61
665.73	23255.56
665.87	23208.75
666.01	23384.29
666.15	23117.47
666.29	23311.74
666.44	23304.71
666.58	23091.73
666.72	23381.95
666.86	23243.86
667.00	23363.23
667.14	23131.51
667.28	23297.69
667.43	22993.42
667.57	23094.07
667.71	23117.47
667.85	23218.11
667.99	23356.21
668.13	22525.32
668.27	22831.93
668.41	22939.59
668.56	22955.97
668.70	23061.30
668.84	22775.75
668.98	22984.06
669.12	22864.69
669.26	22733.62
669.40	22665.75
669.54	22698.52
669.68	22574.47
669.82	22616.60
669.96	22249.13
670.10	22328.71
670.25	22562.76
670.39	22307.65
670.53	22321.69
670.67	22239.77
670.81	22478.50
670.95	22132.11
671.09	22183.60
671.23	22190.62
671.37	22120.40
671.51	22178.92
671.65	22352.12
671.79	21729.53
671.93	22129.77
672.07	22160.19
672.21	21745.92
672.35	21603.14
672.49	21804.43
672.63	21811.45
672.77	21645.27
672.91	21933.16
673.05	21804.43
673.19	21804.43
673.33	21621.87
673.47	21429.94
673.61	21701.45
673.75	21734.21
673.89	21661.66
674.03	21553.99
674.17	21460.37
674.31	21516.54
674.45	21188.87
674.59	21366.75
674.73	21231.00
674.87	21085.89
675.01	21111.63
675.15	20875.24
675.29	21013.33
675.43	20755.87
675.56	20912.69
675.70	20964.18
675.84	20992.26
675.98	20549.90
676.12	20805.02
676.26	21001.63
676.40	20863.54
676.54	20582.67
676.68	20592.03
676.82	20245.63
676.96	20493.73
677.10	20320.53
677.23	20245.63
677.37	20105.20
677.51	20280.74
677.65	20173.08
677.79	19953.07
677.93	19674.54
678.07	20191.80
678.21	19927.32
678.34	19756.46
678.48	19623.05
678.62	19688.59
678.76	19777.53
678.90	19627.73
679.04	19786.89
679.18	19489.64
679.31	19278.99
679.45	19428.79
679.59	19115.16
679.73	19225.16
679.87	19452.19
680.00	19236.86
680.14	19157.28
680.28	19185.37
680.42	18977.06
680.56	19220.48
680.70	19054.30
680.83	18932.59
680.97	19058.98
681.11	19084.73
681.25	18710.24
681.39	18714.92
681.52	18675.13
681.66	18761.73
681.80	18480.87
681.94	18513.64
682.07	18368.52
682.21	18518.32
682.35	18284.26
682.49	18178.94
682.62	18010.42
682.76	17958.93
682.90	18174.26
683.04	17886.37
683.17	18197.67
683.31	17935.53
683.45	18207.03
683.59	17937.87
683.72	17774.03
683.86	17724.88
684.00	17806.80
684.13	17776.37
684.27	17600.83
684.41	17429.97
684.55	17369.12
684.68	17151.45
684.82	17315.28
684.96	17259.11
685.09	16992.29
685.23	17378.48
685.37	17142.08
685.50	17245.07
685.64	17291.88
685.78	17186.55
685.91	16915.05
686.05	17118.68
686.19	16776.96
686.32	16678.66
686.46	16561.63
686.60	16709.08
686.73	16718.45
686.87	16465.67
687.01	16451.63
687.14	16816.75
687.28	16346.30
687.42	16025.65
687.55	16224.59
687.69	16175.44
687.82	16025.65
687.96	16304.17
688.10	15995.22
688.23	16107.57
688.37	16168.42
688.50	15852.45
688.64	15824.36
688.78	15623.08
688.91	15971.82
689.05	15932.03
689.18	15651.16
689.32	15253.27
689.46	15421.79
689.59	15382.00
689.73	15468.60
689.86	15208.80
690.00	15281.36
690.13	15269.66
690.27	15063.69
690.41	15243.91
690.54	15171.35
690.68	14911.55
690.81	14848.36
690.95	14956.02
691.08	14909.21
691.22	14754.74
691.35	14796.87
691.49	14869.42
691.62	14963.04
691.76	14806.23
691.89	14583.88
692.03	14396.64
692.16	14597.92
692.30	14366.21
692.43	14300.67
692.57	14295.99
692.70	14214.07
692.84	14068.96
692.97	14136.84
693.11	13865.33
693.24	14174.28
693.38	13912.14
693.51	14111.09
693.65	14167.26
693.78	14045.55
693.92	13858.31
694.05	13839.59
694.19	13738.94
694.32	13504.89
694.45	13685.11
694.59	13261.48
694.72	13177.22
694.86	13303.60
694.99	13205.30
695.13	13254.45
695.26	13245.09
695.39	13268.50
695.53	13069.55
695.66	13385.52
695.80	13111.68
695.93	13167.85
696.07	13025.08
696.20	13095.30
696.33	13018.06
696.47	13184.24
696.60	12898.69
696.73	12945.50
696.87	12709.11
697.00	12849.54
697.14	12629.53
697.27	12285.47
697.40	12376.75
697.54	12252.70
697.67	12346.33
697.80	12266.75
697.94	12058.44
698.07	12231.64
698.21	12297.17
698.34	12166.10
698.47	11976.52
698.61	11999.93
698.74	12233.98
698.87	12245.68
699.01	11854.81
699.14	11819.71
699.27	11782.26
699.40	11721.40
699.54	11681.61
699.67	11466.28
699.80	11674.59
699.94	11349.26
700.07	11290.74
700.20	11328.19
700.34	11531.82
700.47	11321.17
700.60	11283.72
700.73	11456.92
700.87	11211.17
701.00	11239.25
701.13	11260.32
701.26	11304.79
701.40	11183.08
701.53	10991.16
701.66	11000.52
701.79	10881.15
701.93	10799.23
702.06	10672.84
702.19	10794.55
702.32	10682.20
702.46	10581.56
702.59	10523.05
702.72	10410.70
702.85	10562.84
702.99	10394.32
703.12	10427.09
703.25	10394.32
703.38	10345.17
703.51	10399.00
703.65	10328.78
703.78	10312.40
703.91	10160.27
704.04	10314.74
704.17	10303.04
704.31	10270.27
704.44	10061.96
704.57	9921.53
704.70	9785.78
704.83	9771.74
704.96	9848.97
705.10	9694.50
705.23	9720.24
>>>>>End Processed Spectral Data<<<<<
