SpectraSuite Data File
++++++++++++++++++++++++++++++++++++
Date: Fri Oct 18 13:58:29 GMT-05:00 2013
User: bianchi
Dark Spectrum Present: No
Reference Spectrum Present: No
Number of Sampled Component Spectra: 1
Spectrometers: USB2+H05261
Integration Time (usec): 50000 (USB2+H05261)
Spectra Averaged: 1 (USB2+H05261)
Boxcar Smoothing: 0 (USB2+H05261)
Correct for Electrical Dark: No (USB2+H05261)
Strobe/Lamp Enabled: No (USB2+H05261)
Correct for Detector Non-linearity: No (USB2+H05261)
Correct for Stray Light: No (USB2+H05261)
Number of Pixels in Processed Spectrum: 2048
>>>>>Begin Processed Spectral Data<<<<<
365.73	0.00
365.92	0.00
366.12	0.00
366.32	0.00
366.52	0.00
366.72	0.00
366.91	0.00
367.11	0.00
367.31	0.00
367.51	0.00
367.70	0.00
367.90	0.00
368.10	0.00
368.30	0.00
368.49	0.00
368.69	0.00
368.89	0.00
369.09	0.00
369.28	0.00
369.48	0.00
369.68	0.00
369.87	0.00
370.07	0.00
370.27	18.72
370.47	0.00
370.66	91.28
370.86	65.54
371.06	135.75
371.25	105.32
371.45	173.20
371.65	222.35
371.84	110.01
372.04	163.84
372.24	135.75
372.44	112.35
372.63	177.88
372.83	175.54
373.03	194.26
373.22	243.42
373.42	198.95
373.62	217.67
373.81	180.22
374.01	252.78
374.21	280.86
374.40	184.90
374.60	238.73
374.79	229.37
374.99	287.89
375.19	189.58
375.38	245.76
375.58	250.44
375.78	276.18
375.97	224.69
376.17	262.14
376.37	297.25
376.56	201.29
376.76	224.69
376.95	220.01
377.15	222.35
377.35	273.84
377.54	184.90
377.74	180.22
377.93	304.27
378.13	215.33
378.33	278.52
378.52	264.48
378.72	348.74
378.91	337.04
379.11	255.12
379.31	250.44
379.50	236.39
379.70	346.40
379.89	234.05
380.09	306.61
380.28	308.95
380.48	276.18
380.68	337.04
380.87	313.63
381.07	390.87
381.26	280.86
381.46	299.59
381.65	320.65
381.85	287.89
382.04	315.97
382.24	351.08
382.43	351.08
382.63	365.12
382.83	318.31
383.02	430.66
383.22	337.04
383.41	358.10
383.61	306.61
383.80	372.15
384.00	250.44
384.19	301.93
384.39	416.62
384.58	320.65
384.78	297.25
384.97	458.74
385.17	379.17
385.36	390.87
385.56	344.06
385.75	421.30
385.95	362.78
386.14	514.92
386.34	400.23
386.53	344.06
386.72	358.10
386.92	376.83
387.11	381.51
387.31	421.30
387.50	402.57
387.70	458.74
387.89	402.57
388.09	369.80
388.28	400.23
388.48	451.72
388.67	475.13
388.86	428.32
389.06	418.96
389.25	484.49
389.45	454.06
389.64	407.25
389.84	498.53
390.03	470.45
390.22	440.02
390.42	423.64
390.61	496.19
390.81	470.45
391.00	519.60
391.19	528.96
391.39	430.66
391.58	402.57
391.78	468.11
391.97	442.36
392.16	498.53
392.36	538.32
392.55	573.43
392.75	514.92
392.94	407.25
393.13	486.83
393.33	557.05
393.52	524.28
393.71	526.62
393.91	533.64
394.10	573.43
394.29	578.11
394.49	535.98
394.68	610.88
394.88	514.92
395.07	557.05
395.26	615.56
395.46	653.01
395.65	585.13
395.84	662.37
396.04	660.03
396.23	615.56
396.42	655.35
396.62	629.60
396.81	685.78
397.00	681.10
397.19	594.50
397.39	589.82
397.58	594.50
397.77	688.12
397.97	688.12
398.16	631.94
398.35	650.67
398.55	706.84
398.74	709.18
398.93	847.27
399.12	697.48
399.32	739.61
399.51	589.82
399.70	819.19
399.90	793.44
400.09	767.70
400.28	695.14
400.47	809.83
400.67	730.25
400.86	788.76
401.05	805.14
401.24	770.04
401.44	812.17
401.63	819.19
401.82	798.12
402.01	763.01
402.21	770.04
402.40	767.70
402.59	765.36
402.78	821.53
402.97	823.87
403.17	884.72
403.36	821.53
403.55	847.27
403.74	847.27
403.93	823.87
404.13	1008.77
404.32	912.81
404.51	823.87
404.70	978.34
404.89	840.25
405.09	1029.84
405.28	861.32
405.47	894.08
405.66	968.98
405.85	1041.54
406.05	917.49
406.24	943.24
406.43	983.02
406.62	1057.92
406.81	1062.60
407.00	964.30
407.20	978.34
407.39	992.39
407.58	1041.54
407.77	1074.31
407.96	1006.43
408.15	1116.44
408.34	1074.31
408.54	1027.50
408.73	1083.67
408.92	1121.12
409.11	1006.43
409.30	1198.35
409.49	1090.69
409.68	1156.22
409.87	1100.05
410.07	1207.72
410.26	1184.31
410.45	1104.73
410.64	1135.16
410.83	1156.22
411.02	1116.44
411.21	1277.93
411.40	1263.89
411.59	1196.01
411.78	1177.29
411.98	1238.14
412.17	1174.95
412.36	1212.40
412.55	1228.78
412.74	1275.59
412.93	1453.47
413.12	1308.36
413.31	1378.58
413.50	1437.09
413.69	1423.05
413.88	1439.43
414.07	1446.45
414.26	1390.28
414.45	1434.75
414.64	1432.41
414.83	1502.62
415.02	1416.02
415.22	1418.36
415.41	1554.12
415.60	1497.94
415.79	1549.43
415.98	1589.22
416.17	1591.56
416.36	1549.43
416.55	1621.99
416.74	1561.14
416.93	1610.29
417.12	1640.72
417.31	1657.10
417.50	1647.74
417.69	1767.10
417.88	1673.48
418.07	1764.76
418.26	1846.68
418.45	1739.02
418.64	1802.21
418.83	1760.08
419.02	1816.26
419.21	1727.32
419.39	1767.10
419.58	1699.23
419.77	1860.73
419.96	1893.49
420.15	1799.87
420.34	1886.47
420.53	1879.45
420.72	1905.20
420.91	1863.07
421.10	1888.81
421.29	2008.18
421.48	1886.47
421.67	1898.17
421.86	1865.41
422.05	2127.55
422.24	1980.09
422.43	1886.47
422.61	1949.67
422.80	1949.67
422.99	2047.97
423.18	1980.09
423.37	2132.23
423.56	1963.71
423.75	2001.16
423.94	1994.14
424.13	1811.57
424.32	1928.60
424.50	2099.46
424.69	2139.25
424.88	2127.55
425.07	1942.64
425.26	2097.12
425.45	1935.62
425.64	2045.63
425.83	2071.37
426.01	2092.44
426.20	1984.77
426.39	1991.80
426.58	2036.27
426.77	2024.56
426.96	2066.69
427.15	2029.24
427.33	2052.65
427.52	2129.89
427.71	2099.46
427.90	2125.21
428.09	2209.47
428.28	2052.65
428.46	2066.69
428.65	2190.74
428.84	2139.25
429.03	2235.21
429.22	2120.53
429.40	2153.29
429.59	2160.31
429.78	2155.63
429.97	2066.69
430.16	2148.61
430.34	2207.13
430.53	2291.38
430.72	2305.43
430.91	2338.20
431.10	2333.51
431.28	2352.24
431.47	2434.16
431.66	2277.34
431.85	2289.04
432.03	2483.31
432.22	2504.37
432.41	2464.58
432.60	2427.14
432.79	2324.15
432.97	2429.48
433.16	2476.29
433.35	2415.43
433.54	2534.80
433.72	2495.01
433.91	2492.67
434.10	2511.39
434.28	2504.37
434.47	2415.43
434.66	2621.40
434.85	2480.97
435.03	2420.11
435.22	2630.76
435.41	2583.95
435.59	2588.63
435.78	2534.80
435.97	2569.91
436.16	2656.51
436.34	2607.36
436.53	2722.04
436.72	2640.12
436.90	2661.19
437.09	2726.72
437.28	2644.81
437.46	2745.45
437.65	2759.49
437.84	2792.26
438.02	2794.60
438.21	2703.32
438.40	2640.12
438.58	2757.15
438.77	2897.58
438.96	2782.90
439.14	2862.48
439.33	2932.69
439.52	2841.41
439.70	2869.50
439.89	2956.10
440.08	2939.71
440.26	2998.23
440.45	3108.23
440.63	3080.14
440.82	3023.97
441.01	3159.72
441.19	3098.87
441.38	3141.00
441.57	3180.79
441.75	3255.69
441.94	3227.60
442.12	3152.70
442.31	3157.38
442.50	3155.04
442.68	3171.43
442.87	3407.82
443.05	3215.90
443.24	3332.92
443.43	3391.44
443.61	3461.65
443.80	3328.24
443.98	3243.98
444.17	3213.56
444.35	3346.97
444.54	3386.76
444.73	3365.69
444.91	3506.12
445.10	3405.48
445.28	3314.20
445.47	3314.20
445.65	3419.52
445.84	3456.97
446.02	3592.72
446.21	3396.12
446.39	3300.16
446.58	3527.19
446.77	3480.38
446.95	3400.80
447.14	3557.61
447.32	3438.25
447.51	3393.78
447.69	3552.93
447.88	3426.54
448.06	3485.06
448.25	3447.61
448.43	3695.71
448.62	3520.17
448.80	3396.12
448.99	3517.83
449.17	3583.36
449.36	3496.76
449.54	3644.21
449.73	3555.27
449.91	3777.62
450.10	3630.17
450.28	3630.17
450.46	3639.53
450.65	3691.02
450.83	3695.71
451.02	3625.49
451.20	3735.50
451.39	3742.52
451.57	3770.60
451.76	3698.05
451.94	3681.66
452.13	3850.18
452.31	3796.35
452.49	3824.44
452.68	3878.27
452.86	3864.22
453.05	3798.69
453.23	3904.01
453.42	3737.84
453.60	3850.18
453.78	3796.35
453.97	3756.56
454.15	3887.63
454.34	3936.78
454.52	3887.63
454.70	3922.74
454.89	4023.38
455.07	3934.44
455.26	4154.45
455.44	3943.80
455.62	3925.08
455.81	4067.85
455.99	4030.40
456.17	4023.38
456.36	4011.68
456.54	4133.39
456.73	4243.39
456.91	4227.01
457.09	4250.41
457.28	4271.48
457.46	4234.03
457.64	4367.44
457.83	4285.52
458.01	4166.15
458.19	4428.29
458.38	4264.46
458.56	4428.29
458.74	4355.74
458.93	4447.02
459.11	4400.21
459.29	4423.61
459.48	4451.70
459.66	4320.63
459.84	4341.69
460.03	4559.36
460.21	4402.55
460.39	4498.51
460.57	4491.49
460.76	4526.60
460.94	4547.66
461.12	4428.29
461.31	4613.20
461.49	4479.79
461.67	4575.75
461.85	4720.86
462.04	4636.60
462.22	4802.78
462.40	4751.29
462.59	4599.15
462.77	4877.68
462.95	4847.25
463.13	4596.81
463.32	4692.77
463.50	4847.25
463.68	4699.80
463.86	4765.33
464.05	4706.82
464.23	4835.55
464.41	4873.00
464.59	4744.27
464.78	4807.46
464.96	4826.18
465.14	4713.84
465.32	4994.70
465.50	5043.85
465.69	5032.15
465.87	4870.65
466.05	4933.85
466.23	4880.02
466.41	4999.38
466.60	4966.62
466.78	4933.85
466.96	4908.10
467.14	5036.83
467.32	5107.05
467.51	5011.09
467.69	4931.51
467.87	4964.28
468.05	5015.77
468.23	5093.01
468.41	5095.35
468.60	5142.16
468.78	5172.58
468.96	5153.86
469.14	5153.86
469.32	5214.71
469.50	5233.44
469.69	5315.36
469.87	5362.17
470.05	5413.66
470.23	5254.50
470.41	5371.53
470.59	5423.02
470.77	5350.46
470.95	5441.75
471.14	5521.32
471.32	5247.48
471.50	5703.89
471.68	5521.32
471.86	5584.52
472.04	5628.99
472.22	5558.77
472.40	5481.53
472.58	5563.45
472.77	5673.46
472.95	5783.46
473.13	5966.03
473.31	5790.49
473.49	5837.30
473.67	5769.42
473.85	5785.80
474.03	5846.66
474.21	5767.08
474.39	5998.79
474.57	5874.74
474.75	6164.97
474.93	6080.71
475.12	6024.54
475.30	6099.44
475.48	6118.16
475.66	6242.21
475.84	6141.57
476.02	6267.95
476.20	6125.18
476.38	6394.34
476.56	6686.91
476.74	6349.87
476.92	6504.35
477.10	6464.56
477.28	6445.84
477.46	6520.73
477.64	6590.95
477.82	6722.02
478.00	6733.72
478.18	6832.02
478.36	6991.18
478.54	6897.56
478.72	6909.26
478.90	7070.76
479.08	7066.08
479.26	7162.04
479.44	7098.84
479.62	7239.28
479.80	7311.83
479.98	7300.13
480.16	7545.89
480.34	7559.93
480.52	7461.63
480.70	7632.49
480.88	7398.43
481.06	7712.07
481.24	7613.76
481.41	7691.00
481.59	8037.40
481.77	7941.44
481.95	8145.06
482.13	7908.67
482.31	7971.86
482.49	7955.48
482.67	8121.66
482.85	8095.91
483.03	8360.39
483.21	8355.71
483.39	8355.71
483.57	8702.11
483.74	8428.27
483.92	8676.37
484.10	8725.52
484.28	8753.60
484.46	8936.17
484.64	8964.25
484.82	8699.77
485.00	9214.69
485.18	9158.52
485.35	9071.92
485.53	9331.72
485.71	9312.99
485.89	9488.53
486.07	9610.24
486.25	9577.47
486.43	9600.88
486.61	9685.14
486.78	9731.95
486.96	9865.36
487.14	9865.36
487.32	9865.36
487.50	10059.62
487.68	9909.83
487.85	10305.38
488.03	10312.40
488.21	10534.75
488.39	10375.59
488.57	10499.64
488.75	10604.97
488.92	10644.76
489.10	10864.77
489.28	10686.89
489.46	10705.61
489.64	10916.26
489.81	11098.82
489.99	10916.26
490.17	11269.68
490.35	11353.94
490.53	11583.31
490.70	11506.07
490.88	11382.03
491.06	11735.45
491.24	11782.26
491.41	11585.65
491.59	11946.09
491.77	11915.67
491.95	11880.56
492.13	12030.35
492.30	11934.39
492.48	12128.66
492.66	12236.32
492.84	12252.70
493.01	12489.10
493.19	12486.76
493.37	12573.36
493.54	12339.30
493.72	12627.19
493.90	12503.14
494.08	12603.78
494.25	13116.36
494.43	12999.34
494.61	12922.10
494.79	12947.84
494.96	13050.83
495.14	13305.95
495.32	13544.68
495.49	13352.76
495.67	13610.22
495.85	13476.80
496.02	13832.57
496.20	13685.11
496.38	13659.37
496.55	13640.64
496.73	14047.90
496.91	14155.56
497.09	14207.05
497.26	14164.92
497.44	14134.50
497.62	14438.76
497.79	14443.45
497.97	14492.60
498.14	14733.67
498.32	14710.27
498.50	14897.51
498.67	14785.16
498.85	14728.99
499.03	14944.32
499.20	14892.83
499.38	14883.47
499.56	14853.04
499.73	14937.30
499.91	15133.90
500.08	15257.95
500.26	15257.95
500.44	15014.54
500.61	15332.85
500.79	15012.20
500.97	15733.08
501.14	15765.85
501.32	15665.21
501.49	15562.22
501.67	15630.10
501.84	15901.60
502.02	15756.49
502.20	15756.49
502.37	16004.58
502.55	16046.71
502.72	15976.50
502.90	15920.32
503.07	15704.99
503.25	16177.78
503.43	16262.04
503.60	16100.55
503.78	16341.62
503.95	16322.90
504.13	16493.76
504.30	16320.56
504.48	16435.24
504.65	16449.28
504.83	16606.10
505.01	16917.39
505.18	17036.76
505.36	16952.50
505.53	16783.98
505.71	16933.78
505.88	17310.60
506.06	16875.26
506.23	16863.56
506.41	17114.00
506.58	17177.19
506.76	17025.06
506.93	17247.41
507.11	17228.68
507.28	17277.83
507.46	17296.56
507.63	17245.07
507.81	17689.77
507.98	17532.95
508.16	17408.90
508.33	17542.32
508.50	17886.37
508.68	17708.49
508.85	17778.71
509.03	18015.10
509.20	17970.63
509.38	18415.34
509.55	18382.57
509.73	18188.30
509.90	18216.39
510.08	18211.71
510.25	18260.86
510.42	18317.03
510.60	18328.74
510.77	18373.21
510.95	18761.73
511.12	18417.68
511.30	18382.57
511.47	18696.20
511.64	18649.39
511.82	18546.40
511.99	18696.20
512.17	19288.35
512.34	18574.49
512.51	18937.27
512.69	19051.96
512.86	19040.26
513.04	19264.95
513.21	19021.53
513.38	19410.06
513.56	19213.46
513.73	19414.74
513.90	19372.61
514.08	18927.91
514.25	19513.05
514.43	19653.48
514.60	19679.22
514.77	19461.55
514.95	19463.90
515.12	19700.29
515.29	19410.06
515.47	19623.05
515.64	19630.07
515.81	19814.98
515.99	20067.75
516.16	20126.27
516.33	19990.52
516.51	20208.19
516.68	19927.32
516.85	20250.32
517.03	20196.48
517.20	20489.05
517.37	20322.87
517.54	20250.32
517.72	20339.26
517.89	20325.21
518.06	20463.30
518.24	20477.35
518.41	20283.08
518.58	20695.02
518.75	20629.48
518.93	20542.88
519.10	20741.83
519.27	20814.38
519.45	20666.93
519.62	20414.15
519.79	20346.28
519.96	20851.83
520.14	21116.31
520.31	21008.65
520.48	21467.39
520.65	21001.63
520.83	21158.44
521.00	21209.93
521.17	21074.18
521.34	21123.33
521.52	21282.49
521.69	21359.73
521.86	21596.12
522.03	21614.85
522.20	21720.17
522.38	21804.43
522.55	21425.26
522.72	21369.09
522.89	21256.75
523.07	21986.99
523.24	21855.92
523.41	21893.37
523.58	21598.46
523.75	21830.18
523.92	21823.16
524.10	22118.06
524.27	21664.00
524.44	22104.02
524.61	22162.53
524.78	22408.29
524.96	22171.89
525.13	22232.75
525.30	22462.12
525.47	22396.59
525.64	22008.06
525.81	22452.76
525.98	22796.82
526.16	22375.52
526.33	22452.76
526.50	22703.20
526.67	22345.09
526.84	22448.08
527.01	22480.85
527.18	22733.62
527.36	22560.42
527.53	22897.46
527.70	23168.96
527.87	23098.75
528.04	22806.18
528.21	23056.62
528.38	22649.36
528.55	23021.51
528.72	23063.64
528.89	22958.31
529.07	22991.08
529.24	23164.28
529.41	23131.51
529.58	23065.98
529.75	22874.06
529.92	23171.30
530.09	23332.80
530.26	23309.40
530.43	23026.19
530.60	23241.52
530.77	23358.55
530.94	23213.43
531.11	23227.48
531.28	23634.73
531.46	23585.58
531.63	23517.70
531.80	23779.84
531.97	23651.11
532.14	23506.00
532.31	23751.76
532.48	24051.34
532.65	24175.39
532.82	23817.29
532.99	23861.76
533.16	23601.96
533.33	23908.57
533.50	24226.89
533.67	24065.39
533.84	23623.03
534.01	24142.63
534.18	24231.57
534.35	24301.78
534.52	24018.58
534.69	24479.66
534.86	24348.59
535.03	24189.44
535.20	24231.57
535.37	24512.43
535.54	24437.53
535.71	24276.04
535.88	24451.58
536.05	24463.28
536.22	24582.65
536.38	25268.42
536.55	24709.04
536.72	24617.75
536.89	24383.70
537.06	24503.07
537.23	24900.96
537.40	24507.75
537.57	24676.27
537.74	24528.81
537.91	25081.18
538.08	25177.14
538.25	24734.78
538.42	24947.77
538.59	24812.02
538.75	24774.57
538.92	24933.73
539.09	24903.30
539.26	25261.40
539.43	25003.94
539.60	25097.56
539.77	25006.28
539.94	25563.33
540.11	25207.57
540.28	25539.93
540.44	24931.39
540.61	25144.38
540.78	25558.65
540.95	25245.02
541.12	25553.97
541.29	25589.08
541.46	25268.42
541.62	25446.30
541.79	25371.41
541.96	25209.91
542.13	25516.52
542.30	25778.66
542.47	25839.51
542.63	25958.88
542.80	25893.35
542.97	25809.09
543.14	26024.42
543.31	26019.74
543.48	26038.46
543.64	26148.46
543.81	26059.52
543.98	26387.20
544.15	26115.70
544.32	26071.23
544.48	26485.50
544.65	26064.21
544.82	26291.24
544.99	25879.30
545.16	26197.62
545.32	26054.84
545.49	26139.10
545.66	26586.15
545.83	26443.37
546.00	26710.19
546.16	26314.64
546.33	26326.35
546.50	26047.82
546.67	26536.99
546.83	26256.13
547.00	26625.93
547.17	26611.89
547.34	26469.12
547.50	26775.73
547.67	26747.64
547.84	26391.88
548.00	26817.86
548.17	26906.80
548.34	26609.55
548.51	26974.67
548.67	26876.37
548.84	26759.34
549.01	26888.07
549.18	26913.82
549.34	27232.13
549.51	27318.73
549.68	26841.26
549.84	26684.45
550.01	26691.47
550.18	27094.04
550.34	27117.45
550.51	27215.75
550.68	27044.89
550.84	26892.76
551.01	27119.79
551.18	27133.83
551.34	27232.13
551.51	26986.38
551.68	27566.83
551.84	27229.79
552.01	27304.69
552.18	27180.64
552.34	27267.24
552.51	27243.84
552.68	27253.20
552.84	27473.21
553.01	27491.93
553.18	27119.79
553.34	27332.78
553.51	27311.71
553.67	27360.86
553.84	27503.64
554.01	27428.74
554.17	27569.17
554.34	27585.55
554.51	27543.42
554.67	27477.89
554.84	27985.79
555.00	27646.41
555.17	27548.11
555.33	27714.28
555.50	28140.26
555.67	27688.54
555.83	27946.00
556.00	27896.85
556.16	28100.47
556.33	27770.46
556.50	27948.34
556.66	27967.06
556.83	27882.80
556.99	28030.26
557.16	28123.88
557.32	28093.45
557.49	28346.23
557.65	27871.10
557.82	28077.07
557.98	27917.91
558.15	28161.33
558.32	28158.99
558.48	27999.83
558.65	28168.35
558.81	28163.67
558.98	28233.88
559.14	28254.95
559.31	28376.66
559.47	27854.72
559.64	28362.61
559.80	28294.74
559.97	28374.31
560.13	28112.17
560.30	28151.96
560.46	28568.58
560.63	28292.40
560.79	28500.70
560.96	28631.77
561.12	28498.36
561.29	28402.40
561.45	28648.16
561.61	28669.22
561.78	28489.00
561.94	28606.03
562.11	28613.05
562.27	28617.73
562.44	28938.38
562.60	28418.78
562.77	28811.99
562.93	28371.97
563.10	28411.76
563.26	28467.94
563.42	28891.57
563.59	28786.25
563.75	28622.41
563.92	28697.31
564.08	28582.62
564.24	28271.33
564.41	28421.13
564.57	28561.56
564.74	28285.37
564.90	28418.78
565.07	29013.28
565.23	28685.61
565.39	28753.48
565.56	28582.62
565.72	28968.81
565.88	28531.13
566.05	28662.20
566.21	28552.20
566.38	29036.69
566.54	28858.81
566.70	28905.62
566.87	29113.92
567.03	28645.82
567.19	29275.42
567.36	28762.84
567.52	28961.79
567.68	29111.58
567.85	29050.73
568.01	29071.79
568.17	28587.30
568.34	29359.68
568.50	29298.83
568.66	29219.25
568.83	29263.72
568.99	28720.71
569.15	28779.23
569.32	28872.85
569.48	28933.70
569.64	28833.06
569.81	29006.26
569.97	28931.36
570.13	29027.32
570.30	29032.00
570.46	28804.97
570.62	29055.41
570.78	28872.85
570.95	29102.22
571.11	29198.18
571.27	29078.82
571.43	28863.49
571.60	29172.44
571.76	28769.86
571.92	29111.58
572.09	29170.10
572.25	29008.60
572.41	29015.62
572.57	29123.29
572.74	29523.52
572.90	28797.95
573.06	29017.96
573.22	29151.37
573.38	29429.90
573.55	29303.51
573.71	29593.73
573.87	29266.06
574.03	29277.76
574.20	29142.01
574.36	28898.59
574.52	28989.88
574.68	29518.84
574.84	29308.19
575.01	29212.23
575.17	29291.80
575.33	29137.33
575.49	29322.23
575.65	29319.89
575.82	29453.30
575.98	29298.83
576.14	29280.10
576.30	29333.93
576.46	28680.92
576.62	29263.72
576.79	29151.37
576.95	29015.62
577.11	29474.37
577.27	29418.19
577.43	29362.02
577.59	29392.45
577.75	29324.57
577.92	29212.23
578.08	29181.80
578.24	29270.74
578.40	29528.20
578.56	29207.55
578.72	29298.83
578.88	29261.38
579.04	29926.09
579.21	29518.84
579.37	29308.19
579.53	29589.05
579.69	29397.13
579.85	29046.05
580.01	29113.92
580.17	29200.52
580.33	29230.95
580.49	29338.62
580.65	29659.27
580.82	29237.97
580.98	29654.59
581.14	29289.46
581.30	29369.04
581.46	29514.16
581.62	29350.32
581.78	29282.44
581.94	29490.75
582.10	29261.38
582.26	29252.02
582.42	29476.71
582.58	29481.39
582.74	29397.13
582.90	29443.94
583.06	29713.10
583.22	29282.44
583.38	29455.64
583.54	29572.67
583.70	29202.86
583.86	29149.03
584.02	29476.71
584.18	29504.79
584.34	29455.64
584.50	29509.47
584.66	29441.60
584.82	29202.86
584.98	29329.25
585.14	29240.31
585.30	29186.48
585.46	29439.26
585.62	29261.38
585.78	29907.37
585.94	29673.31
586.10	29362.02
586.26	29315.21
586.42	29589.05
586.58	29497.77
586.74	29598.41
586.90	29488.41
587.06	29076.48
587.22	29890.98
587.38	29523.52
587.54	29291.80
587.70	29830.13
587.86	29809.06
588.02	29596.07
588.18	29383.09
588.34	29467.34
588.49	29530.54
588.65	29493.09
588.81	29275.42
588.97	29729.48
589.13	29652.25
589.29	29832.47
589.45	29614.80
589.61	30019.71
589.77	29944.81
589.93	29951.84
590.08	29961.20
590.24	29930.77
590.40	29474.37
590.56	30024.39
590.72	29722.46
590.88	29570.33
591.04	29687.36
591.20	30328.66
591.35	29839.49
591.51	30249.08
591.67	29872.26
591.83	30089.93
591.99	30108.65
592.15	29614.80
592.31	30057.16
592.46	29706.08
592.62	30211.64
592.78	29521.18
592.94	29682.67
593.10	29685.01
593.26	30073.54
593.41	30190.57
593.57	30146.10
593.73	29785.66
593.89	29708.42
594.05	29834.81
594.20	29837.15
594.36	29865.24
594.52	29722.46
594.68	29972.90
594.84	29535.22
594.99	29963.54
595.15	29778.64
595.31	30267.81
595.47	29652.25
595.62	30213.98
595.78	30148.44
595.94	29867.58
596.10	29949.50
596.25	29900.34
596.41	29706.08
596.57	29570.33
596.73	29797.36
596.88	30089.93
597.04	29970.56
597.20	30085.25
597.36	30223.34
597.51	30230.36
597.67	30017.37
597.83	30178.87
597.99	30015.03
598.14	30132.06
598.30	29839.49
598.46	29825.45
598.61	30118.01
598.77	30010.35
598.93	30057.16
599.09	30026.73
599.24	30384.83
599.40	30185.89
599.56	30031.41
599.71	30202.27
599.87	30160.14
600.03	29743.53
600.18	29841.83
600.34	30162.48
600.50	29888.64
600.65	29872.26
600.81	30106.31
600.97	30333.34
601.12	30260.79
601.28	30139.08
601.44	30197.59
601.59	30581.44
601.75	30319.30
601.91	29792.68
602.06	29834.81
602.22	29680.33
602.37	29942.47
602.53	29923.75
602.69	30361.43
602.84	30405.90
603.00	30705.49
603.16	30026.73
603.31	30223.34
603.47	30190.57
603.62	29795.02
603.78	30057.16
603.94	29556.28
604.09	29993.97
604.25	29841.83
604.40	30522.93
604.56	30026.73
604.71	29984.60
604.87	30148.44
605.03	30022.05
605.18	30047.80
605.34	29591.39
605.49	29902.68
605.65	30338.02
605.80	29790.34
605.96	30054.82
606.12	30106.31
606.27	30178.87
606.43	29750.55
606.58	29783.32
606.74	29816.08
606.89	30309.94
607.05	30232.70
607.20	30202.27
607.36	29958.86
607.51	29930.77
607.67	29422.87
607.82	29755.23
607.98	29972.90
608.13	29420.53
608.29	29647.57
608.44	29715.44
608.60	30050.14
608.75	29750.55
608.91	30242.06
609.06	29757.57
609.22	29830.13
609.37	29823.11
609.53	29905.02
609.68	29516.50
609.84	29546.92
609.99	30120.35
610.15	29563.31
610.30	29706.08
610.46	29893.32
610.61	29867.58
610.76	30012.69
610.92	29776.30
611.07	29504.79
611.23	29593.73
611.38	29907.37
611.54	29235.63
611.69	29439.26
611.84	29514.16
612.00	29322.23
612.15	29687.36
612.31	29773.95
612.46	29841.83
612.62	29612.46
612.77	29500.11
612.92	29759.91
613.08	29502.45
613.23	29642.88
613.39	29764.59
613.54	29851.19
613.69	29497.77
613.85	29738.85
614.00	29413.51
614.15	29537.56
614.31	29553.94
614.46	29750.55
614.62	29523.52
614.77	29703.74
614.92	29479.05
615.08	29563.31
615.23	29411.17
615.38	29542.24
615.54	29008.60
615.69	29420.53
615.84	29125.63
616.00	29090.52
616.15	29556.28
616.30	29504.79
616.46	29345.64
616.61	29546.92
616.76	29652.25
616.92	28966.47
617.07	29350.32
617.22	29252.02
617.37	29137.33
617.53	29483.73
617.68	28919.66
617.83	29130.31
617.99	28910.30
618.14	29036.69
618.29	29109.24
618.45	29172.44
618.60	29270.74
618.75	28914.98
618.90	29022.64
619.06	29331.59
619.21	28957.11
619.36	28943.06
619.51	28959.45
619.67	28807.31
619.82	28706.67
619.97	29020.30
620.12	28613.05
620.28	29039.03
620.43	29202.86
620.58	29268.40
620.73	29048.39
620.89	28858.81
621.04	29261.38
621.19	29364.36
621.34	28872.85
621.49	28884.55
621.65	28577.94
621.80	28687.95
621.95	28671.56
622.10	28620.07
622.25	28683.27
622.41	28430.49
622.56	28830.72
622.71	28716.03
622.86	28587.30
623.01	28547.51
623.16	28559.22
623.32	28166.01
623.47	28797.95
623.62	28802.63
623.77	28250.27
623.92	28561.56
624.07	28325.16
624.23	28294.74
624.38	28596.67
624.53	28531.13
624.68	28547.51
624.83	28573.26
624.98	28690.29
625.13	28540.49
625.29	28250.27
625.44	28444.53
625.59	28268.99
625.74	28254.95
625.89	28287.71
626.04	28336.87
626.19	28276.01
626.34	27964.72
626.49	28030.26
626.65	28210.48
626.80	28149.62
626.95	28245.58
627.10	28243.24
627.25	28287.71
627.40	27960.04
627.55	28063.02
627.70	28121.54
627.85	27833.65
628.00	27463.85
628.15	28039.62
628.30	27646.41
628.45	28072.39
628.60	27630.02
628.76	28301.76
628.91	28173.03
629.06	28161.33
629.21	27913.23
629.36	28016.21
629.51	27702.58
629.66	27835.99
629.81	27761.09
629.96	27510.66
630.11	27693.22
630.26	27398.31
630.41	27992.81
630.56	27550.45
630.71	27538.74
630.86	27571.51
631.01	28074.73
631.16	27559.81
631.31	27613.64
631.46	27381.93
631.61	27868.76
631.76	27569.17
631.91	27520.02
632.06	27129.15
632.21	27442.78
632.36	27835.99
632.51	27285.97
632.66	27253.20
632.81	27014.46
632.96	27332.78
633.10	27515.34
633.25	27941.32
633.40	27438.10
633.55	27452.14
633.70	27199.37
633.85	26888.07
634.00	27154.90
634.15	27159.58
634.30	27028.51
634.45	27494.27
634.60	27138.51
634.75	27091.70
634.90	27421.72
635.05	27304.69
635.19	27634.71
635.34	27571.51
635.49	27358.52
635.64	27101.06
635.79	27094.04
635.94	26944.25
636.09	27150.21
636.24	27108.08
636.39	26780.41
636.53	27140.85
636.68	27201.71
636.83	26916.16
636.98	26602.53
637.13	26993.40
637.28	27274.26
637.43	27054.25
637.57	27274.26
637.72	26869.35
637.87	26625.93
638.02	27063.61
638.17	26881.05
638.32	26991.06
638.46	26630.62
638.61	26260.81
638.76	26630.62
638.91	26665.72
639.06	26843.60
639.20	26700.83
639.35	26611.89
639.50	26906.80
639.65	26986.38
639.80	26616.57
639.94	27094.04
640.09	26331.03
640.24	26958.29
640.39	26789.77
640.54	26665.72
640.68	26415.29
640.83	26403.58
640.98	26476.14
641.13	26335.71
641.27	26410.60
641.42	26251.45
641.57	26595.51
641.72	26253.79
641.86	26052.50
642.01	26001.01
642.16	26363.79
642.31	26333.37
642.45	26499.55
642.60	25916.75
642.75	26349.75
642.90	26022.08
643.04	26082.93
643.19	26099.31
643.34	26012.71
643.48	26426.99
643.63	26291.24
643.78	26143.78
643.93	25982.29
644.07	26637.64
644.22	26214.00
644.37	26312.30
644.51	25982.29
644.66	26066.55
644.81	26171.87
644.95	25804.41
645.10	26080.59
645.25	26026.76
645.39	25778.66
645.54	26078.25
645.69	25912.07
645.83	26087.61
645.98	25977.61
646.13	26078.25
646.27	25905.05
646.42	26155.49
646.57	25642.91
646.71	25914.41
646.86	26066.55
647.00	26206.98
647.15	25991.65
647.30	25645.25
647.44	25919.09
647.59	25577.37
647.74	25755.26
647.88	25771.64
648.03	25474.39
648.17	26429.33
648.32	25727.17
648.47	26251.45
648.61	25460.35
648.76	25773.98
648.90	25832.49
649.05	25397.15
649.20	25596.10
649.34	25661.63
649.49	25476.73
649.63	25483.75
649.78	25254.38
649.92	25474.39
650.07	25862.92
650.21	25355.02
650.36	25359.70
650.51	25415.88
650.65	25326.94
650.80	25397.15
650.94	25273.10
651.09	25380.77
651.23	25135.01
651.38	25261.40
651.52	25216.93
651.67	25443.96
651.81	25174.80
651.96	25188.85
652.10	25565.67
652.25	25385.45
652.39	25287.15
652.54	25724.83
652.68	25275.45
652.83	25413.54
652.97	25525.88
653.12	25256.72
653.26	25429.92
653.41	25528.22
653.55	25127.99
653.70	24856.49
653.84	25013.31
653.99	24938.41
654.13	25001.60
654.27	25158.42
654.42	24891.60
654.56	24926.71
654.71	25331.62
654.85	25376.09
655.00	25027.35
655.14	25240.34
655.29	25167.78
655.43	24769.89
655.57	24769.89
655.72	25041.39
655.86	25013.31
656.01	24905.64
656.15	24755.85
656.30	24704.35
656.44	24528.81
656.58	24634.14
656.73	24748.82
656.87	24797.98
657.01	24685.63
657.16	24999.26
657.30	25071.82
657.45	24966.49
657.59	24561.58
657.73	24580.31
657.88	24606.05
658.02	24659.88
658.16	24641.16
658.31	24320.51
658.45	24350.93
658.60	24285.40
658.74	24372.00
658.88	24360.30
659.03	24540.52
659.17	24374.34
659.31	24215.18
659.46	24577.97
659.60	24620.10
659.74	24266.67
659.89	24276.04
660.03	24215.18
660.17	24421.15
660.32	23814.95
660.46	24210.50
660.60	23995.17
660.74	24098.16
660.89	23564.51
661.03	23929.64
661.17	23915.59
661.32	23840.70
661.46	24266.67
661.60	23962.40
661.74	23775.16
661.89	24058.37
662.03	23939.00
662.17	23871.12
662.31	24058.37
662.46	24100.50
662.60	24121.56
662.74	24070.07
662.88	23784.52
663.03	23304.71
663.17	23442.81
663.31	23070.66
663.45	23630.05
663.60	23571.54
663.74	23403.02
663.88	23910.91
664.02	23557.49
664.17	23433.44
664.31	23433.44
664.45	23550.47
664.59	23557.49
664.73	23599.62
664.88	23131.51
665.02	22689.15
665.16	22927.89
665.30	22925.55
665.44	23016.83
665.59	22890.44
665.73	22991.08
665.87	22860.01
666.01	23103.43
666.15	23030.87
666.29	22916.19
666.44	23264.92
666.58	22787.46
666.72	22934.91
666.86	22860.01
667.00	22600.21
667.14	22731.28
667.28	22513.61
667.43	22721.92
667.57	23089.38
667.71	22427.01
667.85	22618.94
667.99	22499.57
668.13	22750.01
668.27	22216.36
668.41	22759.37
668.56	22324.03
668.70	22698.52
668.84	22436.38
668.98	22207.00
669.12	22335.73
669.26	22560.42
669.40	22148.49
669.54	22597.87
669.68	22293.60
669.82	22176.58
669.96	22132.11
670.10	22150.83
670.25	21811.45
670.39	21862.94
670.53	21895.71
670.67	21741.24
670.81	22029.12
670.95	22059.55
671.09	22059.55
671.23	21834.86
671.37	21675.70
671.51	21851.24
671.65	21750.60
671.79	21771.66
671.93	21542.29
672.07	21570.38
672.21	21287.17
672.35	21160.78
672.49	21341.00
672.63	21411.22
672.77	21287.17
672.91	21249.72
673.05	21254.40
673.19	21319.94
673.33	21212.28
673.47	21355.05
673.61	21458.03
673.75	21333.98
673.89	21179.51
674.03	21025.03
674.17	21029.71
674.31	20671.61
674.45	21048.44
674.59	20912.69
674.73	20821.41
674.87	20683.31
675.01	20608.42
675.15	20769.91
675.29	20737.15
675.43	20390.75
675.56	20673.95
675.70	20627.14
675.84	20425.86
675.98	19583.26
676.12	20217.55
676.26	20533.52
676.40	20680.97
676.54	20231.59
676.68	20222.23
676.82	19733.06
676.96	19932.00
677.10	19988.18
677.23	19651.14
677.37	19681.56
677.51	19838.38
677.65	19903.92
677.79	19503.68
677.93	19695.61
678.07	19482.62
678.21	19527.09
678.34	18965.36
678.48	19473.26
678.62	19459.21
678.76	19653.48
678.90	19421.77
679.04	19302.40
679.18	19417.08
679.31	18934.93
679.45	19171.33
679.59	18892.80
679.73	18853.02
679.87	18738.33
680.00	18670.45
680.14	18600.24
680.28	18658.75
680.42	18848.33
680.56	18731.31
680.70	18483.21
680.83	18602.58
680.97	18408.31
681.11	18539.38
681.25	18487.89
681.39	18181.28
681.52	18249.16
681.66	18169.58
681.80	18183.62
681.94	18214.05
682.07	18178.94
682.21	17982.34
682.35	17717.86
682.49	17877.01
682.62	17692.11
682.76	17855.95
682.90	17827.86
683.04	17521.25
683.17	17823.18
683.31	17427.63
683.45	17507.21
683.59	17420.61
683.72	17481.46
683.86	17582.10
684.00	17254.43
684.13	17289.54
684.27	17130.38
684.41	17158.47
684.55	17081.23
684.68	16681.00
684.82	16641.21
684.96	16449.28
685.09	16964.20
685.23	16863.56
685.37	16720.79
685.50	16779.30
685.64	16549.93
685.78	16753.55
685.91	16732.49
686.05	16690.36
686.19	16341.62
686.32	16826.11
686.46	16559.29
686.60	16175.44
686.73	16388.43
686.87	16095.86
687.01	16170.76
687.14	16149.70
687.28	16145.02
687.42	15798.62
687.55	15688.61
687.69	15822.02
687.82	15618.39
687.96	15908.62
688.10	15674.57
688.23	15751.81
688.37	15789.25
688.50	15545.84
688.64	15484.98
688.78	15426.47
688.91	15697.97
689.05	15391.36
689.18	15449.88
689.32	15283.70
689.46	15154.97
689.59	15307.10
689.73	15098.80
689.86	15098.80
690.00	15124.54
690.13	15222.84
690.27	14843.68
690.41	15201.78
690.54	14918.57
690.68	14644.73
690.81	14925.60
690.95	14768.78
691.08	14714.95
691.22	14387.27
691.35	14668.14
691.49	14724.31
691.62	14663.46
691.76	14485.58
691.89	13977.68
692.03	14012.79
692.16	13935.55
692.30	14153.22
692.43	13907.46
692.57	13820.86
692.70	13898.10
692.84	13755.33
692.97	13710.86
693.11	13802.14
693.24	13757.67
693.38	14029.17
693.51	13900.44
693.65	13488.51
693.78	13666.39
693.92	13530.64
694.05	13500.21
694.19	13441.70
694.32	13334.03
694.45	13439.36
694.59	13195.94
694.72	13174.88
694.86	12943.16
694.99	12940.82
695.13	13029.76
695.26	12851.88
695.39	12943.16
695.53	12849.54
695.66	12865.92
695.80	12807.41
695.93	12505.48
696.07	13146.79
696.20	12987.63
696.33	12636.55
696.47	12311.22
696.60	12613.15
696.73	12297.17
696.87	12355.69
697.00	12273.77
697.14	12215.26
697.27	12112.27
697.40	12006.95
697.54	12175.47
697.67	12210.57
697.80	11941.41
697.94	11962.48
698.07	12039.72
698.21	12006.95
698.34	12294.83
698.47	11793.96
698.61	12039.72
698.74	11606.72
698.87	11754.17
699.01	11672.25
699.14	11557.57
699.27	11496.71
699.40	11590.33
699.54	11492.03
699.67	11344.58
699.80	11499.05
699.94	11192.44
700.07	11215.85
700.20	11112.86
700.34	11119.89
700.47	11147.97
700.60	10981.79
700.73	11187.76
700.87	11002.86
701.00	10923.28
701.13	11005.20
701.26	10904.56
701.40	11000.52
701.53	10892.85
701.66	10827.32
701.79	10492.62
701.93	10544.11
702.06	10656.46
702.19	10324.10
702.32	10469.22
702.46	10178.99
702.59	10443.47
702.72	10242.18
702.85	10296.02
702.99	10197.71
703.12	10415.38
703.25	10221.12
703.38	10071.33
703.51	10038.56
703.65	9933.23
703.78	10033.88
703.91	9966.00
704.04	9881.74
704.17	9895.78
704.31	9982.38
704.44	9886.42
704.57	9769.40
704.70	9713.22
704.83	9535.34
704.96	9511.94
705.10	9387.89
705.23	9671.09
>>>>>End Processed Spectral Data<<<<<
