SpectraSuite Data File
++++++++++++++++++++++++++++++++++++
Date: Fri Oct 18 13:58:22 GMT-05:00 2013
User: bianchi
Dark Spectrum Present: No
Reference Spectrum Present: No
Number of Sampled Component Spectra: 1
Spectrometers: USB2+H05261
Integration Time (usec): 50000 (USB2+H05261)
Spectra Averaged: 1 (USB2+H05261)
Boxcar Smoothing: 0 (USB2+H05261)
Correct for Electrical Dark: No (USB2+H05261)
Strobe/Lamp Enabled: No (USB2+H05261)
Correct for Detector Non-linearity: No (USB2+H05261)
Correct for Stray Light: No (USB2+H05261)
Number of Pixels in Processed Spectrum: 2048
>>>>>Begin Processed Spectral Data<<<<<
365.73	0.00
365.92	0.00
366.12	0.00
366.32	0.00
366.52	0.00
366.72	0.00
366.91	0.00
367.11	0.00
367.31	0.00
367.51	0.00
367.70	0.00
367.90	0.00
368.10	0.00
368.30	0.00
368.49	0.00
368.69	0.00
368.89	0.00
369.09	0.00
369.28	0.00
369.48	0.00
369.68	0.00
369.87	0.00
370.07	0.00
370.27	0.00
370.47	0.00
370.66	53.83
370.86	149.79
371.06	121.71
371.25	91.28
371.45	70.22
371.65	168.52
371.84	44.47
372.04	196.60
372.24	138.09
372.44	138.09
372.63	142.77
372.83	217.67
373.03	210.65
373.22	224.69
373.42	196.60
373.62	159.16
373.81	238.73
374.01	248.10
374.21	187.24
374.40	273.84
374.60	187.24
374.79	245.76
374.99	259.80
375.19	236.39
375.38	306.61
375.58	252.78
375.78	315.97
375.97	245.76
376.17	294.91
376.37	299.59
376.56	292.57
376.76	227.03
376.95	271.50
377.15	285.55
377.35	304.27
377.54	236.39
377.74	290.23
377.93	220.01
378.13	294.91
378.33	322.99
378.52	280.86
378.72	322.99
378.91	224.69
379.11	259.80
379.31	278.52
379.50	276.18
379.70	252.78
379.89	315.97
380.09	322.99
380.28	318.31
380.48	290.23
380.68	304.27
380.87	397.89
381.07	320.65
381.26	341.72
381.46	315.97
381.65	283.20
381.85	330.02
382.04	369.80
382.24	332.36
382.43	320.65
382.63	313.63
382.83	353.42
383.02	355.76
383.22	355.76
383.41	339.38
383.61	409.59
383.80	381.51
384.00	348.74
384.19	318.31
384.39	388.53
384.58	315.97
384.78	297.25
384.97	351.08
385.17	351.08
385.36	344.06
385.56	383.85
385.75	315.97
385.95	369.80
386.14	444.70
386.34	379.17
386.53	393.21
386.72	409.59
386.92	444.70
387.11	365.12
387.31	346.40
387.50	367.46
387.70	472.79
387.89	465.77
388.09	428.32
388.28	423.64
388.48	425.98
388.67	421.30
388.86	477.47
389.06	407.25
389.25	407.25
389.45	491.51
389.64	500.87
389.84	477.47
390.03	489.17
390.22	510.24
390.42	400.23
390.61	454.06
390.81	503.22
391.00	486.83
391.19	470.45
391.39	493.85
391.58	507.90
391.78	440.02
391.97	517.26
392.16	535.98
392.36	552.37
392.55	540.66
392.75	617.90
392.94	503.22
393.13	557.05
393.33	500.87
393.52	547.69
393.71	573.43
393.91	554.71
394.10	465.77
394.29	477.47
394.49	608.54
394.68	599.18
394.88	589.82
395.07	561.73
395.26	596.84
395.46	627.26
395.65	629.60
395.84	615.56
396.04	662.37
396.23	627.26
396.42	622.58
396.62	643.65
396.81	622.58
397.00	662.37
397.19	653.01
397.39	681.10
397.58	664.71
397.77	638.97
397.97	589.82
398.16	683.44
398.35	638.97
398.55	688.12
398.74	674.07
398.93	601.52
399.12	765.36
399.32	610.88
399.51	674.07
399.70	690.46
399.90	685.78
400.09	777.06
400.28	734.93
400.47	763.01
400.67	739.61
400.86	767.70
401.05	711.52
401.24	842.59
401.44	725.57
401.63	746.63
401.82	751.31
402.01	830.89
402.21	772.38
402.40	819.19
402.59	903.45
402.78	924.51
402.97	802.80
403.17	854.30
403.36	812.17
403.55	887.06
403.74	940.90
403.93	903.45
404.13	854.30
404.32	873.02
404.51	1006.43
404.70	943.24
404.89	905.79
405.09	1071.97
405.28	999.41
405.47	945.58
405.66	990.05
405.85	987.71
406.05	1011.11
406.24	866.00
406.43	980.68
406.62	1008.77
406.81	961.96
407.00	947.92
407.20	987.71
407.39	1025.15
407.58	1027.50
407.77	1025.15
407.96	1011.11
408.15	1029.84
408.34	1057.92
408.54	1128.14
408.73	1081.33
408.92	1018.13
409.11	1001.75
409.30	1210.06
409.49	1179.63
409.68	1102.39
409.87	1022.81
410.07	1139.84
410.26	1144.52
410.45	1149.20
410.64	1121.12
410.83	1153.88
411.02	1177.29
411.21	1270.91
411.40	1228.78
411.59	1231.12
411.78	1207.72
411.98	1282.61
412.17	1371.55
412.36	1303.68
412.55	1268.57
412.74	1465.18
412.93	1371.55
413.12	1259.21
413.31	1448.79
413.50	1308.36
413.69	1331.76
413.88	1446.45
414.07	1394.96
414.26	1430.07
414.45	1509.65
414.64	1568.16
414.83	1448.79
415.02	1556.46
415.22	1514.33
415.41	1528.37
415.60	1549.43
415.79	1453.47
415.98	1577.52
416.17	1598.59
416.36	1596.25
416.55	1673.48
416.74	1652.42
416.93	1643.06
417.12	1680.50
417.31	1682.85
417.50	1706.25
417.69	1764.76
417.88	1715.61
418.07	1764.76
418.26	1727.32
418.45	1736.68
418.64	1781.15
418.83	1790.51
419.02	1741.36
419.21	1820.94
419.39	1844.34
419.58	1923.92
419.77	1820.94
419.96	1760.08
420.15	1966.05
420.34	1849.02
420.53	1895.83
420.72	1926.26
420.91	1877.11
421.10	1870.09
421.29	1916.90
421.48	1930.94
421.67	1830.30
421.86	1891.15
422.05	1942.64
422.24	1973.07
422.43	1870.09
422.61	1902.86
422.80	1984.77
422.99	1930.94
423.18	1935.62
423.37	2083.08
423.56	2008.18
423.75	1975.41
423.94	1933.28
424.13	1874.77
424.32	1935.62
424.50	2015.20
424.69	2080.74
424.88	2094.78
425.07	1984.77
425.26	1987.11
425.45	1968.39
425.64	1996.48
425.83	2078.40
426.01	2054.99
426.20	2059.67
426.39	2094.78
426.58	2012.86
426.77	2195.42
426.96	2019.88
427.15	2099.46
427.33	2071.37
427.52	1994.14
427.71	2132.23
427.90	2162.66
428.09	2218.83
428.28	2317.13
428.46	2263.30
428.65	2214.15
428.84	2120.53
429.03	2279.68
429.22	2118.18
429.40	2204.78
429.59	2146.27
429.78	2150.95
429.97	2122.87
430.16	2260.96
430.34	2275.00
430.53	2314.79
430.72	2267.98
430.91	2321.81
431.10	2232.87
431.28	2265.64
431.47	2282.02
431.66	2452.88
431.85	2436.50
432.03	2445.86
432.22	2471.61
432.41	2408.41
432.60	2506.71
432.79	2464.58
432.97	2347.56
433.16	2347.56
433.35	2387.35
433.54	2513.74
433.72	2532.46
433.91	2504.37
434.10	2537.14
434.28	2464.58
434.47	2553.52
434.66	2532.46
434.85	2555.86
435.03	2476.29
435.22	2565.23
435.41	2635.44
435.59	2750.13
435.78	2703.32
435.97	2743.11
436.16	2616.72
436.34	2651.83
436.53	2745.45
436.72	2768.85
436.90	2576.93
437.09	2757.15
437.28	2635.44
437.46	2764.17
437.65	2731.41
437.84	2663.53
438.02	2813.32
438.21	2759.49
438.40	2860.13
438.58	2864.82
438.77	2806.30
438.96	2818.00
439.14	2841.41
439.33	2965.46
439.52	2939.71
439.70	3087.17
439.89	3112.91
440.08	2925.67
440.26	2974.82
440.45	3012.27
440.63	3063.76
440.82	3084.83
441.01	3105.89
441.19	3159.72
441.38	3197.17
441.57	3080.14
441.75	3290.79
441.94	3346.97
442.12	3201.85
442.31	3318.88
442.50	3272.07
442.68	3262.71
442.87	3283.77
443.05	3365.69
443.24	3496.76
443.43	3473.36
443.61	3361.01
443.80	3623.15
443.98	3267.39
444.17	3260.37
444.35	3363.35
444.54	3414.84
444.73	3412.50
444.91	3478.04
445.10	3478.04
445.28	3276.75
445.47	3358.67
445.65	3496.76
445.84	3478.04
446.02	3428.88
446.21	3382.07
446.39	3449.95
446.58	3414.84
446.77	3314.20
446.95	3461.65
447.14	3332.92
447.32	3431.23
447.51	3466.33
447.69	3496.76
447.88	3485.06
448.06	3414.84
448.25	3494.42
448.43	3641.87
448.62	3344.63
448.80	3492.08
448.99	3562.30
449.17	3648.90
449.36	3494.42
449.54	3588.04
449.73	3644.21
449.91	3648.90
450.10	3719.11
450.28	3791.67
450.46	3662.94
450.65	3801.03
450.83	3801.03
451.02	3637.19
451.20	3693.37
451.39	3782.31
451.57	3714.43
451.76	3723.79
451.94	3768.26
452.13	3836.14
452.31	3880.61
452.49	3901.67
452.68	3705.07
452.86	3775.28
453.05	4079.55
453.23	3936.78
453.42	3840.82
453.60	3840.82
453.78	4011.68
453.97	3761.24
454.15	3927.42
454.34	3744.86
454.52	3974.23
454.70	4051.47
454.89	4147.43
455.07	4074.87
455.26	3992.95
455.44	3929.76
455.62	3981.25
455.81	4198.92
455.99	4131.05
456.17	4058.49
456.36	4194.24
456.54	4177.86
456.73	4100.62
456.91	4271.48
457.09	4306.59
457.28	4341.69
457.46	4327.65
457.64	4355.74
457.83	4306.59
458.01	4250.41
458.19	4423.61
458.38	4400.21
458.56	4425.95
458.74	4264.46
458.93	4566.39
459.11	4353.40
459.29	4444.68
459.48	4465.74
459.66	4510.21
459.84	4505.53
460.03	4634.26
460.21	4372.12
460.39	4493.83
460.57	4564.04
460.76	4486.81
460.94	4582.77
461.12	4741.93
461.31	4526.60
461.49	4500.85
461.67	4620.22
461.85	4678.73
462.04	4709.16
462.22	4870.65
462.40	4847.25
462.59	4615.54
462.77	4690.43
462.95	4774.69
463.13	4692.77
463.32	4777.03
463.50	4791.08
463.68	4819.16
463.86	4840.23
464.05	4730.22
464.23	4807.46
464.41	4856.61
464.59	4840.23
464.78	5057.90
464.96	5013.43
465.14	4875.34
465.32	4877.68
465.50	5181.95
465.69	5001.72
465.87	5088.32
466.05	4922.15
466.23	4968.96
466.41	5022.79
466.60	5093.01
466.78	4889.38
466.96	5135.14
467.14	5060.24
467.32	5095.35
467.51	5069.60
467.69	4961.94
467.87	5135.14
468.05	5022.79
468.23	5083.64
468.41	5088.32
468.60	5210.03
468.78	5406.64
468.96	5149.18
469.14	5228.76
469.32	5280.25
469.50	5142.16
469.69	5282.59
469.87	5392.59
470.05	5575.16
470.23	5425.36
470.41	5348.12
470.59	5427.70
470.77	5357.49
470.95	5610.26
471.14	5638.35
471.32	5432.38
471.50	5682.82
471.68	5507.28
471.86	5474.51
472.04	5584.52
472.22	5799.85
472.40	5610.26
472.58	5626.65
472.77	5689.84
472.95	5755.38
473.13	5975.39
473.31	5680.48
473.49	5731.97
473.67	5959.00
473.85	5858.36
474.03	5947.30
474.21	5961.34
474.39	6157.95
474.57	5923.90
474.75	6029.22
474.93	6099.44
475.12	6239.87
475.30	6104.12
475.48	6218.80
475.66	6310.08
475.84	6181.35
476.02	6438.81
476.20	6319.45
476.38	6424.77
476.56	6445.84
476.74	6623.72
476.92	6459.88
477.10	6335.83
477.28	6539.46
477.46	6651.80
477.64	6733.72
477.82	6862.45
478.00	6782.87
478.18	6890.54
478.36	6878.83
478.54	7016.93
478.72	7115.23
478.90	7253.32
479.08	7117.57
479.26	7201.83
479.44	7332.90
479.62	7389.07
479.80	7337.58
479.98	7375.03
480.16	7632.49
480.34	7419.50
480.52	7754.19
480.70	7651.21
480.88	7543.55
481.06	7700.36
481.24	7625.47
481.41	7768.24
481.59	7939.10
481.77	8013.99
481.95	7978.89
482.13	8107.62
482.31	8006.97
482.49	8116.98
482.67	8269.11
482.85	8306.56
483.03	8362.73
483.21	8418.91
483.39	8393.16
483.57	8531.25
483.74	8564.02
483.92	8725.52
484.10	8603.81
484.28	8676.37
484.46	9095.32
484.64	9071.92
484.82	9076.60
485.00	9034.47
485.18	8961.91
485.35	9149.15
485.53	9205.33
485.71	9603.22
485.89	9530.66
486.07	9322.35
486.25	9533.00
486.43	9603.22
486.61	9701.52
486.78	9666.41
486.96	10059.62
487.14	10071.33
487.32	10125.16
487.50	10122.82
487.68	10335.81
487.85	10221.12
488.03	10438.79
488.21	10579.22
488.39	10401.34
488.57	10637.73
488.75	10719.65
488.92	10686.89
489.10	10916.26
489.28	11059.03
489.46	11115.20
489.64	10991.16
489.81	11023.92
489.99	11178.40
490.17	11239.25
490.35	11353.94
490.53	11513.10
490.70	11452.24
490.88	11475.65
491.06	11564.59
491.24	11838.43
491.41	11845.45
491.59	11831.41
491.77	12058.44
491.95	11906.31
492.13	12093.55
492.30	12287.81
492.48	12058.44
492.66	12393.14
492.84	12245.68
493.01	12561.66
493.19	12428.24
493.37	12774.64
493.54	12685.70
493.72	12908.05
493.90	12798.05
494.08	12858.90
494.25	12961.89
494.43	13018.06
494.61	13310.63
494.79	13523.62
494.96	13107.00
495.14	13142.11
495.32	13474.46
495.49	13355.10
495.67	13488.51
495.85	13703.84
496.02	13853.63
496.20	13666.39
496.38	13860.65
496.55	13944.91
496.73	14012.79
496.91	13771.71
497.09	14080.66
497.26	14422.38
497.44	14263.22
497.62	14071.30
497.79	14597.92
497.97	14394.29
498.14	14572.18
498.32	14616.65
498.50	14796.87
498.67	14850.70
498.85	14665.80
499.03	14923.26
499.20	14780.48
499.38	14867.08
499.56	15030.92
499.73	15077.73
499.91	15314.13
500.08	15721.38
500.26	15152.63
500.44	15522.43
500.61	15501.37
500.79	15272.00
500.97	15328.17
501.14	15807.98
501.32	15983.52
501.49	15693.29
501.67	15793.94
501.84	15735.42
502.02	16114.59
502.20	16006.92
502.37	16243.32
502.55	15908.62
502.72	16166.08
502.90	16100.55
503.07	16177.78
503.25	16035.01
503.43	16325.24
503.60	16390.77
503.78	16240.98
503.95	16276.09
504.13	16421.20
504.30	16601.42
504.48	16606.10
504.65	16959.52
504.83	16882.28
505.01	16987.61
505.18	16774.62
505.36	17050.80
505.53	17008.67
505.71	16917.39
505.88	17202.94
506.06	16854.20
506.23	17273.15
506.41	17261.45
506.58	17214.64
506.76	17324.65
506.93	17121.02
507.11	17076.55
507.28	17558.70
507.46	17420.61
507.63	17481.46
507.81	17617.21
507.98	17551.68
508.16	17900.42
508.33	17638.28
508.50	17514.23
508.68	18066.60
508.85	18101.70
509.03	17888.71
509.20	18005.74
509.38	18082.98
509.55	18511.30
509.73	18211.71
509.90	18192.98
510.08	18171.92
510.25	18249.16
510.42	18647.05
510.60	18515.98
510.77	18679.82
510.95	18679.82
511.12	18249.16
511.30	18572.15
511.47	18735.99
511.64	18878.76
511.82	19033.24
511.99	18693.86
512.17	18780.46
512.34	19246.23
512.51	18963.02
512.69	19110.47
512.86	19037.92
513.04	19199.41
513.21	19197.07
513.38	19201.76
513.56	19349.21
513.73	19381.98
513.90	19658.16
514.08	19136.22
514.25	19206.44
514.43	19618.37
514.60	19847.74
514.77	19646.46
514.95	19641.78
515.12	19742.42
515.29	19763.48
515.47	19861.79
515.64	19620.71
515.81	20250.32
515.99	19999.88
516.16	20166.06
516.33	20233.93
516.51	20126.27
516.68	20166.06
516.85	19847.74
517.03	20362.66
517.20	20397.77
517.37	20475.01
517.54	20435.22
517.72	20751.19
517.89	20397.77
518.06	20149.67
518.24	20486.71
518.41	20425.86
518.58	20636.50
518.75	20755.87
518.93	20748.85
519.10	20812.04
519.27	20950.14
519.45	20851.83
519.62	20695.02
519.79	21092.91
519.96	21113.97
520.14	21413.56
520.31	20896.30
520.48	21231.00
520.65	20971.20
520.83	21474.42
521.00	21200.57
521.17	21481.44
521.34	21149.08
521.52	21439.31
521.69	21628.89
521.86	21902.73
522.03	21806.77
522.20	21542.29
522.38	21626.55
522.55	21668.68
522.72	21958.91
522.89	21729.53
523.07	21816.13
523.24	21769.32
523.41	22216.36
523.58	21551.65
523.75	22139.13
523.92	22136.79
524.10	22033.80
524.27	22288.92
524.44	22183.60
524.61	22436.38
524.78	22043.17
524.96	22410.63
525.13	22099.34
525.30	22239.77
525.47	22384.88
525.64	22258.49
525.81	22567.45
525.98	22752.35
526.16	22579.15
526.33	22324.03
526.50	22579.15
526.67	22492.55
526.84	22955.97
527.01	22852.99
527.18	23058.96
527.36	22822.56
527.53	22932.57
527.70	23222.80
527.87	23222.80
528.04	22953.63
528.21	23330.46
528.38	23150.24
528.55	23056.62
528.72	23073.00
528.89	23248.54
529.07	23012.15
529.24	23136.20
529.41	23459.19
529.58	23070.66
529.75	23356.21
529.92	23690.90
530.09	23714.31
530.26	23494.30
530.43	23522.38
530.60	23269.61
530.77	23510.68
530.94	23569.19
531.11	23784.52
531.28	23644.09
531.46	23807.93
531.63	23445.15
531.80	23857.08
531.97	23714.31
532.14	23873.46
532.31	24081.77
532.48	23854.74
532.65	24086.45
532.82	24018.58
532.99	23976.45
533.16	24287.74
533.33	23927.30
533.50	24194.12
533.67	24238.59
533.84	24210.50
534.01	24245.61
534.18	24023.26
534.35	24643.50
534.52	24166.03
534.69	24580.31
534.86	24437.53
535.03	24512.43
535.20	24753.51
535.37	24697.33
535.54	24620.10
535.71	24521.79
535.88	24631.80
536.05	24458.60
536.22	24980.54
536.38	24666.91
536.55	24812.02
536.72	24999.26
536.89	24617.75
537.06	24978.20
537.23	25013.31
537.40	24875.21
537.57	24643.50
537.74	24847.13
537.91	25060.12
538.08	25170.12
538.25	25160.76
538.42	25078.84
538.59	25282.47
538.75	24858.83
538.92	25137.35
539.09	25509.50
539.26	25338.64
539.43	25479.07
539.60	25284.81
539.77	25462.69
539.94	25188.85
540.11	25488.43
540.28	25296.51
540.44	25310.55
540.61	25130.33
540.78	25656.95
540.95	25441.62
541.12	25483.75
541.29	25432.26
541.46	25692.06
541.62	25860.58
541.79	25392.47
541.96	25474.39
542.13	25612.48
542.30	25640.57
542.47	25874.62
542.63	25928.45
542.80	25827.81
542.97	26022.08
543.14	26075.91
543.31	26204.64
543.48	26096.97
543.64	26415.29
543.81	26305.28
543.98	26522.95
544.15	26436.35
544.32	26522.95
544.48	26810.84
544.65	25900.37
544.82	26724.24
544.99	26089.95
545.16	26225.70
545.32	26625.93
545.49	26576.78
545.66	26670.40
545.83	26841.26
546.00	26581.46
546.16	26576.78
546.33	26387.20
546.50	26272.51
546.67	26810.84
546.83	26108.68
547.00	26909.14
547.17	26670.40
547.34	27044.89
547.50	26700.83
547.67	27201.71
547.84	26504.23
548.00	26902.12
548.17	27325.75
548.34	26867.01
548.51	26988.72
548.67	27213.41
548.84	27140.85
549.01	26848.29
549.18	26675.09
549.34	27178.30
549.51	27002.76
549.68	27098.72
549.84	27117.45
550.01	27498.95
550.18	27426.40
550.34	27372.57
550.51	27601.94
550.68	27515.34
550.84	27192.34
551.01	27648.75
551.18	27253.20
551.34	27061.27
551.51	27384.27
551.68	27276.60
551.84	27604.28
552.01	27346.82
552.18	27843.01
552.34	27283.62
552.51	27543.42
552.68	27615.98
552.84	27456.82
553.01	27681.52
553.18	27784.50
553.34	27665.13
553.51	27555.13
553.67	27559.81
553.84	28077.07
554.01	27852.38
554.17	27899.19
554.34	27536.40
554.51	27569.17
554.67	27899.19
554.84	27740.03
555.00	27756.41
555.17	28072.39
555.33	28070.04
555.50	27821.95
555.67	27953.02
555.83	27992.81
556.00	28018.55
556.16	28128.56
556.33	28261.97
556.50	27934.29
556.66	27786.84
556.83	28304.10
556.99	28163.67
557.16	28446.87
557.32	28175.37
557.49	28154.30
557.65	28390.70
557.82	27999.83
557.98	27878.12
558.15	28322.82
558.32	28393.04
558.48	28285.37
558.65	28383.68
558.81	28364.95
558.98	28376.66
559.14	28121.54
559.31	28435.17
559.47	28222.18
559.64	28133.24
559.80	28201.11
559.97	28706.67
560.13	28685.61
560.30	28662.20
560.46	28610.71
560.63	28149.62
560.79	28491.34
560.96	28273.67
561.12	28386.02
561.29	28379.00
561.45	28568.58
561.61	28673.90
561.78	28496.02
561.94	28758.16
562.11	28606.03
562.27	28662.20
562.44	28730.08
562.60	28694.97
562.77	28694.97
562.93	28694.97
563.10	28802.63
563.26	28751.14
563.42	28758.16
563.59	28957.11
563.75	29104.56
563.92	29160.73
564.08	28725.39
564.24	28690.29
564.41	28685.61
564.57	28723.05
564.74	28919.66
564.90	28849.44
565.07	29174.78
565.23	28975.83
565.39	28985.19
565.56	28952.43
565.72	29048.39
565.88	29172.44
566.05	28954.77
566.21	28833.06
566.38	28922.00
566.54	28907.96
566.70	29235.63
566.87	29006.26
567.03	28847.10
567.19	29490.75
567.36	28926.68
567.52	29240.31
567.68	29273.08
567.85	28891.57
568.01	29228.61
568.17	29055.41
568.34	29443.94
568.50	29050.73
568.66	28929.02
568.83	29605.44
568.99	29427.56
569.15	29055.41
569.32	29088.18
569.48	28753.48
569.64	29078.82
569.81	28912.64
569.97	29057.75
570.13	29247.33
570.30	29453.30
570.46	29406.49
570.62	29336.27
570.78	29085.84
570.95	29060.09
571.11	29656.93
571.27	28966.47
571.43	29102.22
571.60	29170.10
571.76	29006.26
571.92	29570.33
572.09	29411.17
572.25	29575.01
572.41	29462.66
572.57	29223.93
572.74	29661.61
572.90	29287.12
573.06	29322.23
573.22	29359.68
573.38	29380.74
573.55	29429.90
573.71	29710.76
573.87	29699.06
574.03	29780.98
574.20	29724.80
574.36	29106.90
574.52	29598.41
574.68	29046.05
574.84	29556.28
575.01	29631.18
575.17	29202.86
575.33	29252.02
575.49	29390.11
575.65	29469.69
575.82	29516.50
575.98	29425.22
576.14	29596.07
576.30	29249.67
576.46	29301.17
576.62	29212.23
576.79	29605.44
576.95	29202.86
577.11	29127.97
577.27	29507.13
577.43	29682.67
577.59	29759.91
577.75	29673.31
577.92	29481.39
578.08	29270.74
578.24	29193.50
578.40	29120.95
578.56	29830.13
578.72	29476.71
578.88	29851.19
579.04	29591.39
579.21	29450.96
579.37	29624.16
579.53	29898.00
579.69	29378.40
579.85	29537.56
580.01	29394.79
580.17	29298.83
580.33	29481.39
580.49	29647.57
580.65	29589.05
580.82	29558.63
580.98	29373.72
581.14	29385.43
581.30	29663.95
581.46	29663.95
581.62	29610.12
581.78	29696.72
581.94	29610.12
582.10	29659.27
582.26	29893.32
582.42	29755.23
582.58	29909.71
582.74	29766.93
582.90	29521.18
583.06	29645.23
583.22	29696.72
583.38	29490.75
583.54	29626.50
583.70	29699.06
583.86	29603.10
584.02	29460.32
584.18	29844.17
584.34	29619.48
584.50	29575.01
584.66	30059.50
584.82	29455.64
584.98	29809.06
585.14	29834.81
585.30	29434.58
585.46	29750.55
585.62	29518.84
585.78	29701.40
585.94	29394.79
586.10	29692.04
586.26	29998.65
586.42	29802.04
586.58	30064.18
586.74	29654.59
586.90	29481.39
587.06	29593.73
587.22	30057.16
587.38	29593.73
587.54	29935.45
587.70	30082.91
587.86	29717.78
588.02	29663.95
588.18	30033.75
588.34	30096.95
588.49	29916.73
588.65	29343.30
588.81	29567.99
588.97	29937.79
589.13	29617.14
589.29	29713.10
589.45	29944.81
589.61	30073.54
589.77	30394.20
589.93	30162.48
590.08	30183.55
590.24	30115.67
590.40	29853.53
590.56	29982.26
590.72	29895.66
590.88	29979.92
591.04	30127.38
591.20	30260.79
591.35	30022.05
591.51	30171.85
591.67	30274.83
591.83	30239.72
591.99	30204.61
592.15	30139.08
592.31	30115.67
592.46	30155.46
592.62	30029.07
592.78	29968.22
592.94	30017.37
593.10	29951.84
593.26	29930.77
593.41	30476.12
593.57	30211.64
593.73	30012.69
593.89	30110.99
594.05	30300.58
594.20	29914.39
594.36	30288.87
594.52	30150.78
594.68	29921.41
594.84	29867.58
594.99	30150.78
595.15	29970.56
595.31	30195.25
595.47	30455.05
595.62	29930.77
595.78	30073.54
595.94	30096.95
596.10	30178.87
596.25	30071.20
596.41	29769.27
596.57	30129.72
596.73	30101.63
596.88	29919.07
597.04	30513.56
597.20	30260.79
597.36	30441.01
597.51	30649.32
597.67	30239.72
597.83	30136.74
597.99	30094.61
598.14	30171.85
598.30	30401.22
598.46	30005.67
598.61	30307.60
598.77	29921.41
598.93	30450.37
599.09	30497.18
599.24	30686.76
599.40	30298.23
599.56	30167.16
599.71	30335.68
599.87	30356.75
600.03	30239.72
600.18	30277.17
600.34	30118.01
600.50	30082.91
600.65	30094.61
600.81	30094.61
600.97	30553.35
601.12	30614.21
601.28	30260.79
601.44	30361.43
601.59	30637.61
601.75	30366.11
601.91	30347.39
602.06	30174.19
602.22	30202.27
602.37	29944.81
602.53	30157.80
602.69	30178.87
602.84	30122.69
603.00	30129.72
603.16	30403.56
603.31	30129.72
603.47	30572.08
603.62	30181.21
603.78	30522.93
603.94	30239.72
604.09	30230.36
604.25	30335.68
604.40	29813.74
604.56	30195.25
604.71	30579.10
604.87	30239.72
605.03	30305.26
605.18	30022.05
605.34	30543.99
605.49	30157.80
605.65	30284.19
605.80	29748.21
605.96	30302.92
606.12	30408.24
606.27	30232.70
606.43	30333.34
606.58	30146.10
606.74	30052.48
606.89	30295.89
607.05	30508.88
607.20	30616.55
607.36	30370.79
607.51	30181.21
607.67	29862.90
607.82	29993.97
607.98	30022.05
608.13	30031.41
608.29	30106.31
608.44	30223.34
608.60	30132.06
608.75	30382.49
608.91	30391.86
609.06	30195.25
609.22	30300.58
609.37	29776.30
609.53	29876.94
609.68	30183.55
609.84	29879.28
609.99	29710.76
610.15	29731.83
610.30	29986.94
610.46	30033.75
610.61	29755.23
610.76	30192.91
610.92	30218.66
611.07	29757.57
611.23	29755.23
611.38	30033.75
611.54	29628.84
611.69	29757.57
611.84	29699.06
612.00	29766.93
612.15	29553.94
612.31	29816.08
612.46	29935.45
612.62	30071.20
612.77	29848.85
612.92	29696.72
613.08	29649.91
613.23	30059.50
613.39	29312.87
613.54	29420.53
613.69	29841.83
613.85	29567.99
614.00	29673.31
614.15	29886.30
614.31	29659.27
614.46	29507.13
614.62	29603.10
614.77	29919.07
614.92	29612.46
615.08	29902.68
615.23	29631.18
615.38	29551.60
615.54	29537.56
615.69	29465.00
615.84	29453.30
616.00	29558.63
616.15	29340.96
616.30	29766.93
616.46	29397.13
616.61	29708.42
616.76	29570.33
616.92	29329.25
617.07	29607.78
617.22	29387.77
617.37	29418.19
617.53	29455.64
617.68	29130.31
617.83	29013.28
617.99	29415.85
618.14	29055.41
618.29	29289.46
618.45	29181.80
618.60	29408.83
618.75	29530.54
618.90	29518.84
619.06	28978.17
619.21	28919.66
619.36	29586.71
619.51	29315.21
619.67	28938.38
619.82	28737.10
619.97	29291.80
620.12	28893.91
620.28	28701.99
620.43	29490.75
620.58	29186.48
620.73	29537.56
620.89	29804.38
621.04	29301.17
621.19	29083.50
621.34	29228.61
621.49	29048.39
621.65	29205.20
621.80	29216.91
621.95	28875.19
622.10	28659.86
622.25	29064.77
622.41	28788.59
622.56	28781.57
622.71	29268.40
622.86	29235.63
623.01	29036.69
623.16	28842.42
623.32	28830.72
623.47	28905.62
623.62	28538.15
623.77	28968.81
623.92	28732.42
624.07	28718.37
624.23	28526.45
624.38	28261.97
624.53	28713.69
624.68	28655.18
624.83	29205.20
624.98	28723.05
625.13	28599.01
625.29	28910.30
625.44	28748.80
625.59	28313.46
625.74	28580.28
625.89	28566.24
626.04	28500.70
626.19	28517.09
626.34	28449.21
626.49	28114.52
626.65	28589.64
626.80	28629.43
626.95	28250.27
627.10	28376.66
627.25	28519.43
627.40	28631.77
627.55	28189.41
627.70	28276.01
627.85	28233.88
628.00	27948.34
628.15	28669.22
628.30	28046.64
628.45	28161.33
628.60	28140.26
628.76	28280.69
628.91	28332.18
629.06	27936.63
629.21	28058.34
629.36	28147.28
629.51	27793.86
629.66	28343.89
629.81	27943.66
629.96	27779.82
630.11	27910.89
630.26	27817.27
630.41	28158.99
630.56	28091.11
630.71	28325.16
630.86	27868.76
631.01	27571.51
631.16	27885.14
631.31	27803.22
631.46	27562.15
631.61	27882.80
631.76	27880.46
631.91	27566.83
632.06	27805.56
632.21	27723.65
632.36	27688.54
632.51	27503.64
632.66	27442.78
632.81	27325.75
632.96	28013.87
633.10	27646.41
633.25	27915.57
633.40	28170.69
633.55	27358.52
633.70	27733.01
633.85	27501.29
634.00	27571.51
634.15	27887.48
634.30	27381.93
634.45	27377.25
634.60	27433.42
634.75	27580.87
634.90	27566.83
635.05	27665.13
635.19	27454.48
635.34	27814.93
635.49	27447.46
635.64	27625.34
635.79	27119.79
635.94	27438.10
636.09	27309.37
636.24	27377.25
636.39	27311.71
636.53	27290.65
636.68	26661.04
636.83	27178.30
636.98	27407.67
637.13	27108.08
637.28	27129.15
637.43	27489.59
637.57	27105.74
637.72	26960.63
637.87	27136.17
638.02	27007.44
638.17	27159.58
638.32	27281.28
638.46	26944.25
638.61	27112.77
638.76	26923.18
638.91	27192.34
639.06	27056.59
639.20	26815.52
639.35	26862.33
639.50	27344.48
639.65	27098.72
639.80	27246.18
639.94	26979.36
640.09	26944.25
640.24	26857.65
640.39	26787.43
640.54	26597.85
640.68	26742.96
640.83	27072.98
640.98	27058.93
641.13	26642.32
641.27	26749.98
641.42	26485.50
641.57	26862.33
641.72	26771.05
641.86	26485.50
642.01	26363.79
642.16	26576.78
642.31	26235.06
642.45	26450.39
642.60	26324.01
642.75	26679.77
642.90	26422.31
643.04	26469.12
643.19	26551.04
643.34	26581.46
643.48	26185.91
643.63	26579.12
643.78	26551.04
643.93	26607.21
644.07	26611.89
644.22	26672.74
644.37	26497.20
644.51	26569.76
644.66	26394.22
644.81	26228.04
644.95	26478.48
645.10	26293.58
645.25	26464.44
645.39	26122.72
645.54	26457.42
645.69	26139.10
645.83	26331.03
645.98	26567.42
646.13	26279.54
646.27	26600.19
646.42	26125.06
646.57	25935.48
646.71	26022.08
646.86	26256.13
647.00	26019.74
647.15	25986.97
647.30	25802.07
647.44	26111.02
647.59	26183.57
647.74	26092.29
647.88	26026.76
648.03	26101.65
648.17	26031.44
648.32	26141.44
648.47	26094.63
648.61	26211.66
648.76	26108.68
648.90	26153.15
649.05	26183.57
649.20	25970.58
649.34	25947.18
649.49	25804.41
649.63	25797.38
649.78	25776.32
649.92	25591.42
650.07	26106.34
650.21	25811.43
650.36	25818.45
650.51	25371.41
650.65	26073.57
650.80	26139.10
650.94	25560.99
651.09	25553.97
651.23	25383.11
651.38	25553.97
651.52	25963.56
651.67	25340.98
651.81	25394.81
651.96	25156.08
652.10	25736.53
652.25	25359.70
652.39	25778.66
652.54	25832.49
652.68	25635.89
652.83	25593.76
652.97	25713.13
653.12	25425.24
653.26	25340.98
653.41	25170.12
653.55	25270.76
653.70	25383.11
653.84	25216.93
653.99	25469.71
654.13	25214.59
654.27	24968.84
654.42	25252.04
654.56	25315.23
654.71	25322.26
654.85	25488.43
655.00	25247.36
655.14	25282.47
655.29	25221.61
655.43	25303.53
655.57	25376.09
655.72	25125.65
655.86	25041.39
656.01	25186.50
656.15	25263.74
656.30	24734.78
656.44	25029.69
656.58	25062.46
656.73	24893.94
656.87	24741.80
657.01	24786.27
657.16	25212.25
657.30	25034.37
657.45	24865.85
657.59	24985.22
657.73	24900.96
657.88	25198.21
658.02	24893.94
658.16	24678.61
658.31	24952.45
658.45	24704.35
658.60	24533.50
658.74	24439.87
658.88	24540.52
659.03	24648.18
659.17	24589.67
659.31	24723.08
659.46	24687.97
659.60	24727.76
659.74	24746.48
659.89	24479.66
660.03	24364.98
660.17	24638.82
660.32	24067.73
660.46	24278.38
660.60	24217.52
660.74	24526.47
660.89	24320.51
661.03	23999.85
661.17	24334.55
661.32	23934.32
661.46	24393.06
661.60	24142.63
661.74	24390.72
661.89	24044.32
662.03	24383.70
662.17	23896.87
662.31	23758.78
662.46	24238.59
662.60	24182.42
662.74	23786.86
662.88	24112.20
663.03	23585.58
663.17	23864.10
663.31	23264.92
663.45	23854.74
663.60	23754.10
663.74	23452.17
663.88	23683.88
664.02	23482.59
664.17	23775.16
664.31	23742.39
664.45	23742.39
664.59	23562.17
664.73	23740.05
664.88	23473.23
665.02	23199.39
665.16	23211.09
665.30	23227.48
665.44	23260.24
665.59	22981.72
665.73	23094.07
665.87	23143.22
666.01	23328.12
666.15	23346.84
666.29	23192.37
666.44	22925.55
666.58	23037.89
666.72	23136.20
666.86	22836.61
667.00	23243.86
667.14	23087.04
667.28	22864.69
667.43	23033.21
667.57	22848.31
667.71	22768.73
667.85	22539.36
667.99	22876.40
668.13	22834.27
668.27	22614.26
668.41	22930.23
668.56	22459.78
668.70	22649.36
668.84	22775.75
668.98	22412.97
669.12	22822.56
669.26	22586.17
669.40	22600.21
669.54	22359.14
669.68	22340.41
669.82	22199.98
669.96	21984.65
670.10	22230.41
670.25	22019.76
670.39	22022.10
670.53	22190.62
670.67	21855.92
670.81	22162.53
670.95	22001.04
671.09	22068.91
671.23	21832.52
671.37	22052.53
671.51	22246.79
671.65	22099.34
671.79	21692.08
671.93	21654.64
672.07	21888.69
672.21	21731.87
672.35	21610.17
672.49	21231.00
672.63	21961.25
672.77	21525.91
672.91	21465.05
673.05	21806.77
673.19	21041.42
673.33	21081.21
673.47	21387.82
673.61	21715.49
673.75	21359.73
673.89	21308.24
674.03	21097.59
674.17	21268.45
674.31	21172.49
674.45	21160.78
674.59	21060.14
674.73	20933.75
674.87	21083.55
675.01	20807.36
675.15	20751.19
675.29	20992.26
675.43	20521.82
675.56	20753.53
675.70	20741.83
675.84	20678.63
675.98	20407.13
676.12	20709.06
676.26	20620.12
676.40	20435.22
676.54	20482.03
676.68	20355.64
676.82	20107.54
676.96	20273.72
677.10	20091.16
677.23	20091.16
677.37	19899.23
677.51	20245.63
677.65	19906.26
677.79	19936.68
677.93	19836.04
678.07	20018.60
678.21	19819.66
678.34	19620.71
678.48	19461.55
678.62	19192.39
678.76	19424.11
678.90	19241.54
679.04	19468.58
679.18	19339.85
679.31	19101.11
679.45	18782.80
679.59	19082.39
679.73	19119.84
679.87	18778.12
680.00	19140.90
680.14	18754.71
680.28	18750.03
680.42	18890.46
680.56	18892.80
680.70	19140.90
680.83	18721.95
680.97	18845.99
681.11	18586.19
681.25	18548.75
681.39	18492.57
681.52	18590.88
681.66	18361.50
681.80	18324.05
681.94	18396.61
682.07	18366.18
682.21	17968.29
682.35	18090.00
682.49	17867.65
682.62	17752.96
682.76	17809.14
682.90	17898.08
683.04	17757.64
683.17	17898.08
683.31	17790.41
683.45	17734.24
683.59	17734.24
683.72	17362.09
683.86	17310.60
684.00	17523.59
684.13	17207.62
684.27	17343.37
684.41	17310.60
684.55	16961.86
684.68	17022.72
684.82	17013.35
684.96	16795.68
685.09	17076.55
685.23	17048.46
685.37	16940.80
685.50	16926.75
685.64	17153.79
685.78	16929.09
685.91	16727.81
686.05	16772.28
686.19	16589.72
686.32	16610.78
686.46	16381.41
686.60	16493.76
686.73	16484.39
686.87	16350.98
687.01	16079.48
687.14	16355.66
687.28	16091.18
687.42	16177.78
687.55	16009.26
687.69	16140.33
687.82	15850.11
687.96	16074.80
688.10	16035.01
688.23	15840.75
688.37	15805.64
688.50	15751.81
688.64	15882.88
688.78	15798.62
688.91	15477.96
689.05	15552.86
689.18	15548.18
689.32	15178.37
689.46	15307.10
689.59	15204.12
689.73	15225.18
689.86	15208.80
690.00	15087.09
690.13	15016.88
690.27	14984.11
690.41	15054.33
690.54	15183.06
690.68	15068.37
690.81	15136.24
690.95	14888.15
691.08	14691.54
691.22	14817.93
691.35	14710.27
691.49	14693.88
691.62	14658.78
691.76	14700.90
691.89	14333.44
692.03	14228.12
692.16	14272.59
692.30	14022.15
692.43	13930.87
692.57	13895.76
692.70	13996.40
692.84	14033.85
692.97	13942.57
693.11	13951.93
693.24	14033.85
693.38	13853.63
693.51	13834.91
693.65	13673.41
693.78	13579.79
693.92	13755.33
694.05	13640.64
694.19	13619.58
694.32	13425.31
694.45	13455.74
694.59	13303.60
694.72	13289.56
694.86	13184.24
694.99	13064.87
695.13	12968.91
695.26	13076.57
695.39	12975.93
695.53	13221.69
695.66	13107.00
695.80	12734.85
695.93	13107.00
696.07	12856.56
696.20	12755.92
696.33	12755.92
696.47	12922.10
696.60	12655.28
696.73	12655.28
696.87	12678.68
697.00	12355.69
697.14	12290.15
697.27	12269.09
697.40	12294.83
697.54	12145.04
697.67	12166.10
697.80	11985.88
697.94	11976.52
698.07	11770.55
698.21	11878.22
698.34	12081.85
698.47	12060.78
698.61	11749.49
698.74	11990.56
698.87	11932.05
699.01	11950.78
699.14	11749.49
699.27	11651.19
699.40	11740.13
699.54	11791.62
699.67	11609.06
699.80	11466.28
699.94	11246.27
700.07	11222.87
700.20	11267.34
700.34	11206.48
700.47	11396.07
700.60	10888.17
700.73	11318.83
700.87	11063.71
701.00	11260.32
701.13	11300.11
701.26	11044.99
701.40	11178.40
701.53	10977.11
701.66	11037.97
701.79	10839.02
701.93	10813.28
702.06	10691.57
702.19	10415.38
702.32	10511.35
702.46	10576.88
702.59	10333.47
702.72	10319.42
702.85	10197.71
702.99	10263.25
703.12	10274.95
703.25	10195.37
703.38	10178.99
703.51	10015.15
703.65	10221.12
703.78	9947.28
703.91	10129.84
704.04	9987.07
704.17	10181.33
704.31	9802.16
704.44	9914.51
704.57	9781.10
704.70	9577.47
704.83	9696.84
704.96	9584.49
705.10	9528.32
705.23	9715.56
>>>>>End Processed Spectral Data<<<<<
