SpectraSuite Data File
++++++++++++++++++++++++++++++++++++
Date: Fri Oct 18 13:58:27 GMT-05:00 2013
User: bianchi
Dark Spectrum Present: No
Reference Spectrum Present: No
Number of Sampled Component Spectra: 1
Spectrometers: USB2+H05261
Integration Time (usec): 50000 (USB2+H05261)
Spectra Averaged: 1 (USB2+H05261)
Boxcar Smoothing: 0 (USB2+H05261)
Correct for Electrical Dark: No (USB2+H05261)
Strobe/Lamp Enabled: No (USB2+H05261)
Correct for Detector Non-linearity: No (USB2+H05261)
Correct for Stray Light: No (USB2+H05261)
Number of Pixels in Processed Spectrum: 2048
>>>>>Begin Processed Spectral Data<<<<<
365.73	0.00
365.92	0.00
366.12	0.00
366.32	0.00
366.52	0.00
366.72	0.00
366.91	0.00
367.11	0.00
367.31	0.00
367.51	0.00
367.70	0.00
367.90	0.00
368.10	0.00
368.30	0.00
368.49	0.00
368.69	0.00
368.89	0.00
369.09	0.00
369.28	0.00
369.48	0.00
369.68	0.00
369.87	0.00
370.07	0.00
370.27	0.00
370.47	0.00
370.66	58.51
370.86	81.92
371.06	58.51
371.25	156.82
371.45	65.54
371.65	147.45
371.84	203.63
372.04	163.84
372.24	163.84
372.44	140.43
372.63	175.54
372.83	182.56
373.03	231.71
373.22	210.65
373.42	128.73
373.62	145.11
373.81	145.11
374.01	205.97
374.21	276.18
374.40	236.39
374.60	269.16
374.79	292.57
374.99	231.71
375.19	212.99
375.38	283.20
375.58	208.31
375.78	299.59
375.97	243.42
376.17	243.42
376.37	217.67
376.56	255.12
376.76	276.18
376.95	264.48
377.15	241.08
377.35	287.89
377.54	273.84
377.74	266.82
377.93	283.20
378.13	245.76
378.33	386.19
378.52	306.61
378.72	269.16
378.91	264.48
379.11	255.12
379.31	245.76
379.50	257.46
379.70	287.89
379.89	327.68
380.09	311.29
380.28	278.52
380.48	278.52
380.68	271.50
380.87	337.04
381.07	379.17
381.26	318.31
381.46	334.70
381.65	278.52
381.85	292.57
382.04	311.29
382.24	358.10
382.43	400.23
382.63	395.55
382.83	341.72
383.02	341.72
383.22	421.30
383.41	402.57
383.61	346.40
383.80	428.32
384.00	367.46
384.19	360.44
384.39	304.27
384.58	395.55
384.78	388.53
384.97	409.59
385.17	386.19
385.36	337.04
385.56	400.23
385.75	344.06
385.95	386.19
386.14	388.53
386.34	381.51
386.53	320.65
386.72	327.68
386.92	395.55
387.11	458.74
387.31	454.06
387.50	428.32
387.70	451.72
387.89	423.64
388.09	454.06
388.28	468.11
388.48	402.57
388.67	404.91
388.86	454.06
389.06	428.32
389.25	461.09
389.45	479.81
389.64	442.36
389.84	468.11
390.03	493.85
390.22	444.70
390.42	449.38
390.61	517.26
390.81	514.92
391.00	386.19
391.19	500.87
391.39	447.04
391.58	533.64
391.78	517.26
391.97	547.69
392.16	465.77
392.36	526.62
392.55	543.00
392.75	550.03
392.94	566.41
393.13	587.47
393.33	498.53
393.52	603.86
393.71	564.07
393.91	578.11
394.10	606.20
394.29	620.24
394.49	566.41
394.68	503.22
394.88	660.03
395.07	608.54
395.26	578.11
395.46	641.31
395.65	615.56
395.84	620.24
396.04	629.60
396.23	631.94
396.42	645.99
396.62	627.26
396.81	730.25
397.00	657.69
397.19	645.99
397.39	704.50
397.58	685.78
397.77	662.37
397.97	543.00
398.16	706.84
398.35	816.85
398.55	692.80
398.74	608.54
398.93	634.29
399.12	732.59
399.32	737.27
399.51	737.27
399.70	763.01
399.90	688.12
400.09	765.36
400.28	793.44
400.47	767.70
400.67	720.88
400.86	777.06
401.05	772.38
401.24	828.55
401.44	788.76
401.63	800.46
401.82	821.53
402.01	781.74
402.21	802.80
402.40	812.17
402.59	760.67
402.78	833.23
402.97	795.78
403.17	877.70
403.36	896.43
403.55	849.61
403.74	863.66
403.93	910.47
404.13	957.28
404.32	917.49
404.51	936.21
404.70	882.38
404.89	1004.09
405.09	940.90
405.28	917.49
405.47	929.19
405.66	943.24
405.85	950.26
406.05	1053.24
406.24	1018.13
406.43	882.38
406.62	992.39
406.81	1062.60
407.00	1093.03
407.20	940.90
407.39	903.45
407.58	1088.35
407.77	1039.20
407.96	1001.75
408.15	1160.91
408.34	1015.79
408.54	1067.28
408.73	1048.56
408.92	1064.94
409.11	1116.44
409.30	1067.28
409.49	1125.80
409.68	1107.07
409.87	1123.46
410.07	1060.26
410.26	1074.31
410.45	1146.86
410.64	1151.54
410.83	1100.05
411.02	1207.72
411.21	1362.19
411.40	1287.29
411.59	1277.93
411.78	1210.06
411.98	1221.76
412.17	1259.21
412.36	1282.61
412.55	1310.70
412.74	1284.95
412.93	1343.47
413.12	1329.42
413.31	1423.05
413.50	1385.60
413.69	1387.94
413.88	1359.85
414.07	1371.55
414.26	1481.56
414.45	1462.83
414.64	1383.26
414.83	1549.43
415.02	1448.79
415.22	1467.52
415.41	1565.82
415.60	1516.67
415.79	1561.14
415.98	1488.58
416.17	1589.22
416.36	1558.80
416.55	1645.40
416.74	1638.38
416.93	1708.59
417.12	1689.87
417.31	1687.53
417.50	1741.36
417.69	1746.04
417.88	1692.21
418.07	1769.44
418.26	1816.26
418.45	1863.07
418.64	1823.28
418.83	1816.26
419.02	1778.81
419.21	1757.74
419.39	1739.02
419.58	1792.85
419.77	1809.23
419.96	1830.30
420.15	1959.03
420.34	1935.62
420.53	1912.22
420.72	1944.99
420.91	1839.66
421.10	1865.41
421.29	2008.18
421.48	1902.86
421.67	1949.67
421.86	1834.98
422.05	1881.79
422.24	1935.62
422.43	2001.16
422.61	2031.58
422.80	1987.11
422.99	2043.29
423.18	2026.90
423.37	1966.05
423.56	1954.35
423.75	2010.52
423.94	1954.35
424.13	1856.04
424.32	2073.71
424.50	2076.06
424.69	2019.88
424.88	1996.48
425.07	1952.01
425.26	1984.77
425.45	2078.40
425.64	2139.25
425.83	2097.12
426.01	2134.57
426.20	2087.76
426.39	2106.48
426.58	2010.52
426.77	2052.65
426.96	2094.78
427.15	2029.24
427.33	2080.74
427.52	2125.21
427.71	2155.63
427.90	2143.93
428.09	2169.68
428.28	2118.18
428.46	2139.25
428.65	2221.17
428.84	2282.02
429.03	2125.21
429.22	2111.16
429.40	2193.08
429.59	2282.02
429.78	2207.13
429.97	2150.95
430.16	2165.00
430.34	2321.81
430.53	2307.77
430.72	2347.56
430.91	2314.79
431.10	2214.15
431.28	2284.36
431.47	2387.35
431.66	2380.32
431.85	2307.77
432.03	2319.47
432.22	2445.86
432.41	2387.35
432.60	2448.20
432.79	2368.62
432.97	2420.11
433.16	2513.74
433.35	2459.90
433.54	2457.56
433.72	2539.48
433.91	2480.97
434.10	2534.80
434.28	2380.32
434.47	2544.16
434.66	2665.87
434.85	2541.82
435.03	2520.76
435.22	2457.56
435.41	2729.06
435.59	2602.68
435.78	2736.09
435.97	2717.36
436.16	2656.51
436.34	2689.28
436.53	2623.74
436.72	2724.38
436.90	2572.25
437.09	2722.04
437.28	2654.17
437.46	2717.36
437.65	2787.58
437.84	2717.36
438.02	2825.03
438.21	2724.38
438.40	2677.57
438.58	2869.50
438.77	2740.77
438.96	2806.30
439.14	3002.91
439.33	2862.48
439.52	2906.95
439.70	3070.78
439.89	2956.10
440.08	3019.29
440.26	2960.78
440.45	3049.72
440.63	3009.93
440.82	3091.85
441.01	3141.00
441.19	3068.44
441.38	3129.30
441.57	3178.45
441.75	3180.79
441.94	3302.50
442.12	3101.21
442.31	3304.84
442.50	3351.65
442.68	3412.50
442.87	3279.09
443.05	3337.60
443.24	3382.07
443.43	3276.75
443.61	3290.79
443.80	3496.76
443.98	3419.52
444.17	3337.60
444.35	3475.70
444.54	3548.25
444.73	3316.54
444.91	3332.92
445.10	3414.84
445.28	3328.24
445.47	3492.08
445.65	3403.14
445.84	3492.08
446.02	3478.04
446.21	3435.91
446.39	3426.54
446.58	3517.83
446.77	3515.48
446.95	3431.23
447.14	3449.95
447.32	3459.31
447.51	3428.88
447.69	3449.95
447.88	3585.70
448.06	3492.08
448.25	3630.17
448.43	3487.40
448.62	3529.53
448.80	3524.85
448.99	3578.68
449.17	3609.11
449.36	3515.48
449.54	3693.37
449.73	3742.52
449.91	3777.62
450.10	3688.68
450.28	3669.96
450.46	3595.06
450.65	3735.50
450.83	3882.95
451.02	3854.86
451.20	3707.41
451.39	3786.99
451.57	3644.21
451.76	3730.81
451.94	3772.94
452.13	3978.91
452.31	4028.06
452.49	3920.40
452.68	3803.37
452.86	3768.26
453.05	3845.50
453.23	3836.14
453.42	3740.18
453.60	3660.60
453.78	3822.09
453.97	3784.65
454.15	3775.28
454.34	3946.14
454.52	3894.65
454.70	4161.47
454.89	4072.53
455.07	3992.95
455.26	3974.23
455.44	4124.02
455.62	4046.79
455.81	4007.00
455.99	4124.02
456.17	4285.52
456.36	4163.81
456.54	4243.39
456.73	4070.19
456.91	4297.22
457.09	4304.25
457.28	4259.78
457.46	4196.58
457.64	4332.33
457.83	4329.99
458.01	4145.09
458.19	4519.57
458.38	4311.27
458.56	4432.97
458.74	4472.76
458.93	4367.44
459.11	4430.63
459.29	4463.40
459.48	4601.49
459.66	4484.47
459.84	4451.70
460.03	4533.62
460.21	4503.19
460.39	4393.19
460.57	4552.34
460.76	4535.96
460.94	4512.55
461.12	4624.90
461.31	4690.43
461.49	4645.96
461.67	4542.98
461.85	4716.18
462.04	4608.51
462.22	4716.18
462.40	4781.71
462.59	4713.84
462.77	4737.24
462.95	4753.63
463.13	4685.75
463.32	4746.61
463.50	4889.38
463.68	4863.63
463.86	4617.88
464.05	4732.56
464.23	4779.37
464.41	4760.65
464.59	4844.91
464.78	5067.26
464.96	4809.80
465.14	4830.87
465.32	5032.15
465.50	4966.62
465.69	5055.56
465.87	4917.47
466.05	4966.62
466.23	4929.17
466.41	5163.22
466.60	5188.97
466.78	4889.38
466.96	5018.11
467.14	5078.96
467.32	5111.73
467.51	5221.74
467.69	4931.51
467.87	5151.52
468.05	5071.94
468.23	5025.13
468.41	5116.41
468.60	5165.56
468.78	5273.23
468.96	4961.94
469.14	5296.63
469.32	5320.04
469.50	5107.05
469.69	5210.03
469.87	5345.78
470.05	5432.38
470.23	5364.51
470.41	5298.97
470.59	5383.23
470.77	5373.87
470.95	5451.11
471.14	5469.83
471.32	5275.57
471.50	5537.71
471.68	5540.05
471.86	5483.88
472.04	5671.12
472.22	5790.49
472.40	5696.86
472.58	5750.70
472.77	5577.50
472.95	5769.42
473.13	5867.72
473.31	5844.32
473.49	5970.71
473.67	6019.86
473.85	5860.70
474.03	5870.06
474.21	5884.11
474.39	5928.58
474.57	6193.06
474.75	6204.76
474.93	6221.14
475.12	6106.46
475.30	6223.48
475.48	6164.97
475.66	6340.51
475.84	6115.82
476.02	6324.13
476.20	6289.02
476.38	6462.22
476.56	6539.46
476.74	6635.42
476.92	6349.87
477.10	6548.82
477.28	6661.16
477.46	6562.86
477.64	6576.91
477.82	6780.53
478.00	7096.50
478.18	6855.43
478.36	6993.52
478.54	6960.75
478.72	6911.60
478.90	7105.87
479.08	7178.42
479.26	7253.32
479.44	7382.05
479.62	7421.84
479.80	7236.94
479.98	7229.91
480.16	7426.52
480.34	7461.63
480.52	7693.34
480.70	7669.94
480.88	7494.40
481.06	7637.17
481.24	7604.40
481.41	7882.92
481.59	7911.01
481.77	7955.48
481.95	8142.72
482.13	7999.95
482.31	8184.85
482.49	8285.50
482.67	8315.92
482.85	8482.10
483.03	8442.31
483.21	8519.55
483.39	8411.89
483.57	8610.83
483.74	8634.24
483.92	8840.20
484.10	8692.75
484.28	8704.45
484.46	9008.72
484.64	9163.20
484.82	9006.38
485.00	9008.72
485.18	9233.41
485.35	9392.57
485.53	9310.65
485.71	9458.10
485.89	9650.03
486.07	9376.19
486.25	9612.58
486.43	9462.79
486.61	9671.09
486.78	9820.89
486.96	9951.96
487.14	9870.04
487.32	10122.82
487.50	10045.58
487.68	10125.16
487.85	10303.04
488.03	10317.08
488.21	10668.16
488.39	10448.15
488.57	10689.23
488.75	10635.39
488.92	10766.46
489.10	10820.30
489.28	10913.92
489.46	11030.94
489.64	10930.30
489.81	11234.57
489.99	11094.14
490.17	11286.06
490.35	11365.64
490.53	11665.23
490.70	11564.59
490.88	11857.15
491.06	11737.79
491.24	11754.17
491.41	11918.01
491.59	11658.21
491.77	11847.79
491.95	12248.02
492.13	12081.85
492.30	12013.97
492.48	12077.16
492.66	12135.68
492.84	12119.29
493.01	12528.89
493.19	12468.03
493.37	12727.83
493.54	12774.64
493.72	12795.71
493.90	12755.92
494.08	12732.51
494.25	12683.36
494.43	13245.09
494.61	13202.96
494.79	13523.62
494.96	13142.11
495.14	13483.83
495.32	13327.01
495.49	13420.63
495.67	13420.63
495.85	13572.77
496.02	13898.10
496.20	14101.73
496.38	13710.86
496.55	13813.84
496.73	14230.46
496.91	14045.55
497.09	13949.59
497.26	14195.35
497.44	13973.00
497.62	14354.51
497.79	14675.16
497.97	14340.46
498.14	14562.81
498.32	14618.99
498.50	14745.38
498.67	14780.48
498.85	15007.52
499.03	15033.26
499.20	14895.17
499.38	15103.48
499.56	15302.42
499.73	15159.65
499.91	14850.70
500.08	15548.18
500.26	14944.32
500.44	15407.75
500.61	15215.82
500.79	15169.01
500.97	15255.61
501.14	15838.41
501.32	15658.18
501.49	15618.39
501.67	15470.94
501.84	15896.92
502.02	16077.14
502.20	15854.79
502.37	16011.60
502.55	15967.13
502.72	15873.51
502.90	16175.44
503.07	16081.82
503.25	16451.63
503.43	16290.13
503.60	16489.07
503.78	16587.38
503.95	16437.58
504.13	16620.14
504.30	16393.11
504.48	16580.36
504.65	16554.61
504.83	16847.18
505.01	16898.67
505.18	16985.27
505.36	17144.42
505.53	16854.20
505.71	16854.20
505.88	17163.15
506.06	17032.08
506.23	17135.06
506.41	17116.34
506.58	17261.45
506.76	17235.70
506.93	17298.90
507.11	17146.76
507.28	16943.14
507.46	17076.55
507.63	17376.14
507.81	17348.05
507.98	17554.02
508.16	17692.11
508.33	17717.86
508.50	17689.77
508.68	17525.93
508.85	18001.06
509.03	17827.86
509.20	18171.92
509.38	18307.67
509.55	18333.42
509.73	18335.76
509.90	18394.27
510.08	18113.41
510.25	18375.55
510.42	18464.49
510.60	18562.79
510.77	18403.63
510.95	18857.70
511.12	18698.54
511.30	18523.00
511.47	18841.31
511.64	18799.18
511.82	19007.49
511.99	18862.38
512.17	18860.04
512.34	18855.36
512.51	18862.38
512.69	19084.73
512.86	19435.81
513.04	19599.65
513.21	19424.11
513.38	19417.08
513.56	19538.79
513.73	19440.49
513.90	19264.95
514.08	19278.99
514.25	18965.36
514.43	19740.08
514.60	19517.73
514.77	19688.59
514.95	19805.61
515.12	19571.56
515.29	19768.16
515.47	19627.73
515.64	20231.59
515.81	19845.40
515.99	19950.73
516.16	20053.71
516.33	20119.24
516.51	20283.08
516.68	19894.55
516.85	20051.37
517.03	20123.93
517.20	20374.36
517.37	20512.46
517.54	20149.67
517.72	20477.35
517.89	20601.40
518.06	20683.31
518.24	20479.69
518.41	20762.89
518.58	20683.31
518.75	20954.82
518.93	20774.60
519.10	20877.58
519.27	20821.41
519.45	20788.64
519.62	20725.44
519.79	20912.69
519.96	20758.21
520.14	20982.90
520.31	21099.93
520.48	21249.72
520.65	21015.67
520.83	21326.96
521.00	21404.20
521.17	21284.83
521.34	21425.26
521.52	21671.02
521.69	21404.20
521.86	21298.88
522.03	21551.65
522.20	21710.81
522.38	21549.31
522.55	21706.13
522.72	21830.18
522.89	21561.02
523.07	21841.88
523.24	21689.74
523.41	22115.72
523.58	21731.87
523.75	22197.64
523.92	21844.22
524.10	22122.74
524.27	22073.59
524.44	22050.19
524.61	22085.30
524.78	22630.64
524.96	22340.41
525.13	22204.66
525.30	22525.32
525.47	22244.45
525.64	22143.81
525.81	22637.66
525.98	22963.00
526.16	22672.77
526.33	22565.10
526.50	22696.17
526.67	22658.73
526.84	22630.64
527.01	22752.35
527.18	22415.31
527.36	22597.87
527.53	22871.72
527.70	23274.29
527.87	23262.58
528.04	22981.72
528.21	23042.57
528.38	22813.20
528.55	23314.08
528.72	23356.21
528.89	23360.89
529.07	23110.45
529.24	23557.49
529.41	23367.91
529.58	23381.95
529.75	23477.91
529.92	23491.96
530.09	23449.83
530.26	23740.05
530.43	23536.43
530.60	23592.60
530.77	23517.70
530.94	23232.16
531.11	23379.61
531.28	23498.98
531.46	23564.51
531.63	23878.15
531.80	23793.89
531.97	24081.77
532.14	23805.59
532.31	23854.74
532.48	23950.70
532.65	24044.32
532.82	24070.07
532.99	24166.03
533.16	23751.76
533.33	24102.84
533.50	24381.36
533.67	24306.46
533.84	24360.30
534.01	24210.50
534.18	24140.29
534.35	24245.61
534.52	24528.81
534.69	24205.82
534.86	24231.57
535.03	24465.62
535.20	24306.46
535.37	24446.90
535.54	24687.97
535.71	24264.33
535.88	24669.25
536.05	24690.31
536.22	24737.12
536.38	25165.44
536.55	24795.64
536.72	24922.02
536.89	24706.70
537.06	24704.35
537.23	24891.60
537.40	24985.22
537.57	24694.99
537.74	24596.69
537.91	25228.63
538.08	25343.32
538.25	25340.98
538.42	24922.02
538.59	24884.58
538.75	24898.62
538.92	25071.82
539.09	25465.03
539.26	25338.64
539.43	25303.53
539.60	25280.13
539.77	25223.95
539.94	25343.32
540.11	25638.23
540.28	25504.82
540.44	25427.58
540.61	25486.09
540.78	25502.48
540.95	25678.02
541.12	25392.47
541.29	25741.21
541.46	25453.33
541.62	25563.33
541.79	25575.03
541.96	25394.81
542.13	25242.68
542.30	25841.85
542.47	25996.33
542.63	25694.40
542.80	25895.69
542.97	25961.22
543.14	25993.99
543.31	26120.38
543.48	25909.73
543.64	26384.86
543.81	26335.71
543.98	26548.70
544.15	26426.99
544.32	26485.50
544.48	26740.62
544.65	26338.05
544.82	26263.15
544.99	26118.04
545.16	26560.40
545.32	26267.83
545.49	26553.38
545.66	26422.31
545.83	26487.84
546.00	26717.22
546.16	26796.79
546.33	26359.11
546.50	26223.36
546.67	26501.89
546.83	25998.67
547.00	26506.57
547.17	26541.68
547.34	26593.17
547.50	26731.26
547.67	27044.89
547.84	27047.23
548.00	27089.36
548.17	26883.39
548.34	27058.93
548.51	27292.99
548.67	26902.12
548.84	27297.67
549.01	26836.58
549.18	26986.38
549.34	27194.68
549.51	26841.26
549.68	27063.61
549.84	27091.70
550.01	27089.36
550.18	26871.69
550.34	27337.46
550.51	27510.66
550.68	27042.55
550.84	26951.27
551.01	27236.81
551.18	27349.16
551.34	27150.21
551.51	27187.66
551.68	27583.21
551.84	27505.98
552.01	27440.44
552.18	27632.36
552.34	27379.59
552.51	27805.56
552.68	27536.40
552.84	27538.74
553.01	27077.66
553.18	27548.11
553.34	27447.46
553.51	27810.25
553.67	27878.12
553.84	28280.69
554.01	27505.98
554.17	27859.40
554.34	27679.18
554.51	27445.12
554.67	27824.29
554.84	27475.55
555.00	27508.32
555.17	27899.19
555.33	27826.63
555.50	27644.07
555.67	27964.72
555.83	27983.44
556.00	28203.46
556.16	27955.36
556.33	27824.29
556.50	27955.36
556.66	28364.95
556.83	28027.92
556.99	28379.00
557.16	28634.11
557.32	28276.01
557.49	28524.11
557.65	28229.20
557.82	27960.04
557.98	28072.39
558.15	28264.31
558.32	28367.29
558.48	28299.42
558.65	28631.77
558.81	28395.38
558.98	28769.86
559.14	28290.06
559.31	27852.38
559.47	28065.36
559.64	28561.56
559.80	28589.64
559.97	28835.40
560.13	28245.58
560.30	28811.99
560.46	28617.73
560.63	28547.51
560.79	28599.01
560.96	28882.21
561.12	28357.93
561.29	28615.39
561.45	28439.85
561.61	28732.42
561.78	28210.48
561.94	28570.92
562.11	28819.02
562.27	28720.71
562.44	28980.51
562.60	29074.13
562.77	28599.01
562.93	28203.46
563.10	28744.12
563.26	28732.42
563.42	28819.02
563.59	29013.28
563.75	28884.55
563.92	28959.45
564.08	28755.82
564.24	28772.21
564.41	28971.15
564.57	28357.93
564.74	29024.98
564.90	29149.03
565.07	28914.98
565.23	28807.31
565.39	28919.66
565.56	29366.70
565.72	29055.41
565.88	29235.63
566.05	28606.03
566.21	28844.76
566.38	28664.54
566.54	28966.47
566.70	29216.91
566.87	29469.69
567.03	29163.08
567.19	29479.05
567.36	29476.71
567.52	29106.90
567.68	29153.71
567.85	28907.96
568.01	29392.45
568.17	29303.51
568.34	29343.30
568.50	29008.60
568.66	29146.69
568.83	29205.20
568.99	29200.52
569.15	29387.77
569.32	29104.56
569.48	28987.53
569.64	28996.90
569.81	29366.70
569.97	28858.81
570.13	29266.06
570.30	29118.60
570.46	28945.41
570.62	29230.95
570.78	29235.63
570.95	29010.94
571.11	29053.07
571.27	29067.11
571.43	29308.19
571.60	29113.92
571.76	29076.48
571.92	29153.71
572.09	29275.42
572.25	29364.36
572.41	29261.38
572.57	29280.10
572.74	29521.18
572.90	29476.71
573.06	29394.79
573.22	29584.37
573.38	29249.67
573.55	29326.91
573.71	29706.08
573.87	29586.71
574.03	29027.32
574.20	29486.07
574.36	29462.66
574.52	29209.89
574.68	29399.47
574.84	29479.05
575.01	29233.29
575.17	29493.09
575.33	29015.62
575.49	29200.52
575.65	29528.20
575.82	29881.62
575.98	29572.67
576.14	29340.96
576.30	29319.89
576.46	29397.13
576.62	29507.13
576.79	29493.09
576.95	29289.46
577.11	29488.41
577.27	29446.28
577.43	29610.12
577.59	29322.23
577.75	29228.61
577.92	29289.46
578.08	29324.57
578.24	29603.10
578.40	29156.05
578.56	29411.17
578.72	29317.55
578.88	29462.66
579.04	29799.70
579.21	29654.59
579.37	29649.91
579.53	29649.91
579.69	29525.86
579.85	29193.50
580.01	29287.12
580.17	29163.08
580.33	29457.98
580.49	29324.57
580.65	30047.80
580.82	29572.67
580.98	29661.61
581.14	29366.70
581.30	29940.13
581.46	29151.37
581.62	29797.36
581.78	29167.76
581.94	29237.97
582.10	29502.45
582.26	29724.80
582.42	29743.53
582.58	29783.32
582.74	29689.70
582.90	29940.13
583.06	29603.10
583.22	29394.79
583.38	29933.11
583.54	29853.53
583.70	29535.22
583.86	29633.52
584.02	29591.39
584.18	29890.98
584.34	30169.51
584.50	29766.93
584.66	29895.66
584.82	29549.26
584.98	29708.42
585.14	29570.33
585.30	29198.18
585.46	29359.68
585.62	29394.79
585.78	29841.83
585.94	29427.56
586.10	29614.80
586.26	29736.51
586.42	29780.98
586.58	29481.39
586.74	29851.19
586.90	29392.45
587.06	29919.07
587.22	29617.14
587.38	29652.25
587.54	29968.22
587.70	30216.32
587.86	29722.46
588.02	29998.65
588.18	30080.56
588.34	29802.04
588.49	30237.38
588.65	29593.73
588.81	29652.25
588.97	29642.88
589.13	29827.79
589.29	29874.60
589.45	29958.86
589.61	29645.23
589.77	30209.29
589.93	30249.08
590.08	29954.18
590.24	30101.63
590.40	30099.29
590.56	30377.81
590.72	29670.97
590.88	29633.52
591.04	30228.02
591.20	30225.68
591.35	30057.16
591.51	30548.67
591.67	30132.06
591.83	30462.07
591.99	30291.21
592.15	30195.25
592.31	29954.18
592.46	30000.99
592.62	29766.93
592.78	29626.50
592.94	30101.63
593.10	30115.67
593.26	30363.77
593.41	30054.82
593.57	30127.38
593.73	30419.94
593.89	30188.23
594.05	30352.07
594.20	30199.93
594.36	29778.64
594.52	29982.26
594.68	30113.33
594.84	30113.33
594.99	30422.28
595.15	30096.95
595.31	30464.41
595.47	30284.19
595.62	30132.06
595.78	30211.64
595.94	30419.94
596.10	30293.55
596.25	30036.09
596.41	30054.82
596.57	29785.66
596.73	29883.96
596.88	30162.48
597.04	30377.81
597.20	30202.27
597.36	30155.46
597.51	30593.14
597.67	30059.50
597.83	30045.46
597.99	30192.91
598.14	30043.12
598.30	29958.86
598.46	30153.12
598.61	30581.44
598.77	30024.39
598.93	30525.27
599.09	30143.76
599.24	30630.59
599.40	30363.77
599.56	30319.30
599.71	29968.22
599.87	30438.67
600.03	30047.80
600.18	30291.21
600.34	30288.87
600.50	29989.28
600.65	30176.53
600.81	30635.27
600.97	30469.09
601.12	30478.46
601.28	29916.73
601.44	30436.33
601.59	30260.79
601.75	30300.58
601.91	30389.52
602.06	30260.79
602.22	30340.36
602.37	30382.49
602.53	30309.94
602.69	30115.67
602.84	30045.46
603.00	30436.33
603.16	30424.62
603.31	30511.22
603.47	30202.27
603.62	30291.21
603.78	30295.89
603.94	30335.68
604.09	30375.47
604.25	30441.01
604.40	30192.91
604.56	29654.59
604.71	30466.75
604.87	30103.97
605.03	30164.82
605.18	30209.29
605.34	30600.16
605.49	30260.79
605.65	30157.80
605.80	29670.97
605.96	30043.12
606.12	30160.14
606.27	30394.20
606.43	30043.12
606.58	30195.25
606.74	30059.50
606.89	30230.36
607.05	30396.54
607.20	30036.09
607.36	30136.74
607.51	30328.66
607.67	30141.42
607.82	30064.18
607.98	30223.34
608.13	30429.30
608.29	30181.21
608.44	30422.28
608.60	30019.71
608.75	30263.13
608.91	30352.07
609.06	30015.03
609.22	30129.72
609.37	29453.30
609.53	29720.12
609.68	29916.73
609.84	30162.48
609.99	30125.04
610.15	29673.31
610.30	29869.92
610.46	29750.55
610.61	30366.11
610.76	30082.91
610.92	30387.18
611.07	29792.68
611.23	29682.67
611.38	29645.23
611.54	29862.90
611.69	29493.09
611.84	29783.32
612.00	29666.29
612.15	29710.76
612.31	30043.12
612.46	29919.07
612.62	30148.44
612.77	29610.12
612.92	29766.93
613.08	29851.19
613.23	29493.09
613.39	29750.55
613.54	29500.11
613.69	29736.51
613.85	29567.99
614.00	29434.58
614.15	29893.32
614.31	29708.42
614.46	29923.75
614.62	29776.30
614.77	29825.45
614.92	29675.65
615.08	29476.71
615.23	29788.00
615.38	29853.53
615.54	29809.06
615.69	29486.07
615.84	28985.19
616.00	29846.51
616.15	29591.39
616.30	29624.16
616.46	29792.68
616.61	29455.64
616.76	29465.00
616.92	29523.52
617.07	29539.90
617.22	29385.43
617.37	29228.61
617.53	29298.83
617.68	29502.45
617.83	28966.47
617.99	29219.25
618.14	29207.55
618.29	29467.34
618.45	29230.95
618.60	29308.19
618.75	29399.47
618.90	29345.64
619.06	29277.76
619.21	29184.14
619.36	29263.72
619.51	28769.86
619.67	29090.52
619.82	29120.95
619.97	29118.60
620.12	28753.48
620.28	29109.24
620.43	28987.53
620.58	28847.10
620.73	29198.18
620.89	29364.36
621.04	29240.31
621.19	29125.63
621.34	29310.53
621.49	28924.34
621.65	28851.78
621.80	29111.58
621.95	28617.73
622.10	28804.97
622.25	28638.80
622.41	28833.06
622.56	28847.10
622.71	29013.28
622.86	28655.18
623.01	29085.84
623.16	28973.49
623.32	28435.17
623.47	28615.39
623.62	28397.72
623.77	28364.95
623.92	28744.12
624.07	28334.53
624.23	29043.71
624.38	28769.86
624.53	28877.53
624.68	28879.87
624.83	29020.30
624.98	28453.89
625.13	28629.43
625.29	28587.30
625.44	28856.46
625.59	28364.95
625.74	28105.15
625.89	28287.71
626.04	28166.01
626.19	28191.75
626.34	28348.57
626.49	28102.81
626.65	28198.77
626.80	28460.91
626.95	28451.55
627.10	28388.36
627.25	28243.24
627.40	28266.65
627.55	28070.04
627.70	28006.85
627.85	28056.00
628.00	27988.13
628.15	28091.11
628.30	27913.23
628.45	27873.44
628.60	28009.19
628.76	28074.73
628.91	27969.40
629.06	27955.36
629.21	28039.62
629.36	28472.62
629.51	27983.44
629.66	27440.44
629.81	28006.85
629.96	27967.06
630.11	27686.20
630.26	28184.73
630.41	27749.39
630.56	27768.12
630.71	28198.77
630.86	28065.36
631.01	28299.42
631.16	28053.66
631.31	28034.94
631.46	27524.70
631.61	27929.61
631.76	27690.88
631.91	27594.92
632.06	27578.53
632.21	27821.95
632.36	27817.27
632.51	27618.32
632.66	27735.35
632.81	27395.97
632.96	27992.81
633.10	27438.10
633.25	27906.21
633.40	27737.69
633.55	27442.78
633.70	27623.00
633.85	27213.41
634.00	27395.97
634.15	27374.91
634.30	27405.33
634.45	27342.14
634.60	27442.78
634.75	27496.61
634.90	27517.68
635.05	27274.26
635.19	27414.69
635.34	27887.48
635.49	27550.45
635.64	27161.92
635.79	27505.98
635.94	27042.55
636.09	27321.07
636.24	27199.37
636.39	27175.96
636.53	27190.00
636.68	26794.45
636.83	26962.97
636.98	27491.93
637.13	27108.08
637.28	27318.73
637.43	27527.04
637.57	27477.89
637.72	27091.70
637.87	26768.71
638.02	26998.08
638.17	26967.65
638.32	27002.76
638.46	26555.72
638.61	26876.37
638.76	26520.61
638.91	26902.12
639.06	26759.34
639.20	26969.99
639.35	26782.75
639.50	26988.72
639.65	26937.23
639.80	27187.66
639.94	27061.27
640.09	27098.72
640.24	26649.34
640.39	26717.22
640.54	26555.72
640.68	26733.60
640.83	26852.97
640.98	26532.31
641.13	26724.24
641.27	26574.44
641.42	26698.49
641.57	26794.45
641.72	26347.41
641.86	26909.14
642.01	26284.22
642.16	26632.96
642.31	26707.85
642.45	26417.63
642.60	26494.86
642.75	26202.30
642.90	26164.85
643.04	26214.00
643.19	26499.55
643.34	26316.98
643.48	26232.72
643.63	26391.88
643.78	26586.15
643.93	26403.58
644.07	26644.66
644.22	26382.52
644.37	26457.42
644.51	26216.34
644.66	26162.51
644.81	26141.44
644.95	26424.65
645.10	26108.68
645.25	26338.05
645.39	26064.21
645.54	26450.39
645.69	26375.50
645.83	26298.26
645.98	26426.99
646.13	25895.69
646.27	26319.32
646.42	26279.54
646.57	26029.10
646.71	26054.84
646.86	26087.61
647.00	26256.13
647.15	26125.06
647.30	25928.45
647.44	25713.13
647.59	26066.55
647.74	26134.42
647.88	26225.70
648.03	26164.85
648.17	26162.51
648.32	26150.81
648.47	25916.75
648.61	26047.82
648.76	25865.26
648.90	25785.68
649.05	26015.05
649.20	25741.21
649.34	25434.60
649.49	25429.92
649.63	25553.97
649.78	26087.61
649.92	25696.74
650.07	25558.65
650.21	25474.39
650.36	25769.30
650.51	25647.59
650.65	25785.68
650.80	25809.09
650.94	25764.62
651.09	25530.56
651.23	25263.74
651.38	25661.63
651.52	25724.83
651.67	25497.80
651.81	25575.03
651.96	25516.52
652.10	25479.07
652.25	25813.77
652.39	25462.69
652.54	25598.44
652.68	25467.37
652.83	25312.89
652.97	25708.44
653.12	25575.03
653.26	25291.83
653.41	25675.68
653.55	25537.59
653.70	25137.35
653.84	25338.64
653.99	24938.41
654.13	25275.45
654.27	25118.63
654.42	25240.34
654.56	25067.14
654.71	25338.64
654.85	25039.05
655.00	25450.99
655.14	25198.21
655.29	25366.73
655.43	25205.23
655.57	25312.89
655.72	24851.81
655.86	25111.61
656.01	25069.48
656.15	24858.83
656.30	24470.30
656.44	25017.99
656.58	25071.82
656.73	24702.01
656.87	24938.41
657.01	24903.30
657.16	24966.49
657.30	24999.26
657.45	24996.92
657.59	24947.77
657.73	24636.48
657.88	24917.34
658.02	24510.09
658.16	24826.06
658.31	24400.08
658.45	24606.05
658.60	24465.62
658.74	24657.54
658.88	24353.27
659.03	24393.06
659.17	24177.73
659.31	25060.12
659.46	24524.13
659.60	24634.14
659.74	24442.21
659.89	24552.22
660.03	24339.23
660.17	24556.90
660.32	24147.31
660.46	24580.31
660.60	23939.00
660.74	24044.32
660.89	24161.35
661.03	24063.05
661.17	23821.97
661.32	24198.80
661.46	24194.12
661.60	24287.74
661.74	24243.27
661.89	24379.02
662.03	24238.59
662.17	24032.62
662.31	23676.86
662.46	23920.28
662.60	24388.38
662.74	23716.65
662.88	23630.05
663.03	23475.57
663.17	23662.82
663.31	23250.88
663.45	23501.32
663.60	23480.25
663.74	23576.22
663.88	23477.91
664.02	23714.31
664.17	23875.80
664.31	23843.04
664.45	23517.70
664.59	23517.70
664.73	23318.76
664.88	23344.50
665.02	23040.23
665.16	23136.20
665.30	23070.66
665.44	22860.01
665.59	22803.84
665.73	23105.77
665.87	23166.62
666.01	23398.34
666.15	23349.18
666.29	23150.24
666.44	22981.72
666.58	23019.17
666.72	23047.26
666.86	23178.33
667.00	22913.84
667.14	22637.66
667.28	23005.13
667.43	22508.93
667.57	22824.90
667.71	22558.08
667.85	22939.59
667.99	22597.87
668.13	22696.17
668.27	22525.32
668.41	23005.13
668.56	22583.83
668.70	22567.45
668.84	22527.66
668.98	22609.58
669.12	22284.24
669.26	22361.48
669.40	22616.60
669.54	22174.24
669.68	22382.54
669.82	22279.56
669.96	22176.58
670.10	22026.78
670.25	22279.56
670.39	22164.87
670.53	21682.72
670.67	21579.74
670.81	21872.31
670.95	22026.78
671.09	21984.65
671.23	21972.95
671.37	21996.35
671.51	21926.14
671.65	22017.42
671.79	21933.16
671.93	21596.12
672.07	21792.73
672.21	21811.45
672.35	21523.57
672.49	21202.91
672.63	21401.86
672.77	21696.77
672.91	21542.29
673.05	21338.66
673.19	21497.82
673.33	20987.58
673.47	20980.56
673.61	21436.97
673.75	21287.17
673.89	21027.37
674.03	21088.23
674.17	20952.48
674.31	20975.88
674.45	21043.76
674.59	21060.14
674.73	20753.53
674.87	21144.40
675.01	20599.05
675.15	20680.97
675.29	20664.59
675.43	20718.42
675.56	20521.82
675.70	20915.03
675.84	20470.33
675.98	20184.78
676.12	20432.88
676.26	20798.00
676.40	20570.97
676.54	20255.00
676.68	20123.93
676.82	20006.90
676.96	20423.51
677.10	20177.76
677.23	19983.49
677.37	20039.67
677.51	19590.28
677.65	20173.08
677.79	19714.33
677.93	19700.29
678.07	19634.75
678.21	19232.18
678.34	19559.86
678.48	19508.37
678.62	19351.55
678.76	19260.27
678.90	19227.50
679.04	19468.58
679.18	19241.54
679.31	19063.66
679.45	19124.52
679.59	19101.11
679.73	19227.50
679.87	18747.69
680.00	18857.70
680.14	18698.54
680.28	18822.59
680.42	18963.02
680.56	18920.89
680.70	18815.57
680.83	18768.76
680.97	18637.69
681.11	18712.58
681.25	18562.79
681.39	18562.79
681.52	18429.38
681.66	18356.82
681.80	18356.82
681.94	18160.22
682.07	18195.32
682.21	18153.20
682.35	17869.99
682.49	17914.46
682.62	17921.48
682.76	17947.23
682.90	18125.11
683.04	17785.73
683.17	18054.89
683.31	17509.55
683.45	17682.75
683.59	17743.60
683.72	17481.46
683.86	17551.68
684.00	17212.30
684.13	17397.20
684.27	17411.25
684.41	16985.27
684.55	17018.04
684.68	17111.66
684.82	16678.66
684.96	17160.81
685.09	16837.81
685.23	16805.05
685.37	16776.96
685.50	17071.87
685.64	17022.72
685.78	16812.07
685.91	17020.38
686.05	16737.17
686.19	16486.73
686.32	16566.31
686.46	16418.86
686.60	16568.65
686.73	16507.80
686.87	16065.44
687.01	16379.07
687.14	16112.25
687.28	15953.09
687.42	16081.82
687.55	16196.51
687.69	15932.03
687.82	15964.79
687.96	15885.22
688.10	15796.28
688.23	15880.53
688.37	15765.85
688.50	15697.97
688.64	15864.15
688.78	15690.95
688.91	15353.91
689.05	15611.37
689.18	15442.85
689.32	15101.14
689.46	15279.02
689.59	15096.46
689.73	15225.18
689.86	15164.33
690.00	14925.60
690.13	14998.15
690.27	15173.69
690.41	15098.80
690.54	14998.15
690.68	14883.47
690.81	14707.93
690.95	14808.57
691.08	14904.53
691.22	14567.49
691.35	14736.01
691.49	14544.09
691.62	14611.96
691.76	14408.34
691.89	14251.52
692.03	14310.04
692.16	14185.99
692.30	14176.62
692.43	14108.75
692.57	13930.87
692.70	13947.25
692.84	13858.31
692.97	13916.83
693.11	14090.02
693.24	13912.14
693.38	13778.73
693.51	13760.01
693.65	13858.31
693.78	13479.15
693.92	13678.09
694.05	13645.32
694.19	13474.46
694.32	13540.00
694.45	13678.09
694.59	13254.45
694.72	13221.69
694.86	13287.22
694.99	12989.97
695.13	12884.65
695.26	13050.83
695.39	13067.21
695.53	12762.94
695.66	12919.76
695.80	12989.97
695.93	12865.92
696.07	12645.91
696.20	12924.44
696.33	12945.50
696.47	12601.44
696.60	12666.98
696.73	12615.49
696.87	12512.50
697.00	12381.43
697.14	12173.13
697.27	12217.60
697.40	12084.19
697.54	12248.02
697.67	12013.97
697.80	12105.25
697.94	12037.38
698.07	12049.08
698.21	11896.94
698.34	11903.96
698.47	11903.96
698.61	11943.75
698.74	11903.96
698.87	11878.22
699.01	11618.42
699.14	11658.21
699.27	11618.42
699.40	11613.74
699.54	11576.29
699.67	11356.28
699.80	11346.92
699.94	11487.35
700.07	11176.06
700.20	11220.53
700.34	11119.89
700.47	11098.82
700.60	11197.12
700.73	11136.27
700.87	11044.99
701.00	11016.90
701.13	10939.66
701.26	11115.20
701.40	10965.41
701.53	10995.84
701.66	10853.06
701.79	10560.50
701.93	10796.89
702.06	10394.32
702.19	10504.32
702.32	10640.08
702.46	10394.32
702.59	10188.35
702.72	10541.77
702.85	10284.31
702.99	10352.19
703.12	10204.74
703.25	10094.73
703.38	10242.18
703.51	10384.96
703.65	10162.61
703.78	10148.56
703.91	10216.44
704.04	10134.52
704.17	10132.18
704.31	10129.84
704.44	9926.21
704.57	9776.42
704.70	9774.08
704.83	9605.56
704.96	9312.99
705.10	9423.00
705.23	9364.48
>>>>>End Processed Spectral Data<<<<<
