SpectraSuite Data File
++++++++++++++++++++++++++++++++++++
Date: Fri Oct 18 13:58:37 GMT-05:00 2013
User: bianchi
Dark Spectrum Present: No
Reference Spectrum Present: No
Number of Sampled Component Spectra: 1
Spectrometers: USB2+H05261
Integration Time (usec): 50000 (USB2+H05261)
Spectra Averaged: 1 (USB2+H05261)
Boxcar Smoothing: 0 (USB2+H05261)
Correct for Electrical Dark: No (USB2+H05261)
Strobe/Lamp Enabled: No (USB2+H05261)
Correct for Detector Non-linearity: No (USB2+H05261)
Correct for Stray Light: No (USB2+H05261)
Number of Pixels in Processed Spectrum: 2048
>>>>>Begin Processed Spectral Data<<<<<
365.73	32.77
365.92	32.77
366.12	32.77
366.32	0.00
366.52	0.00
366.72	0.00
366.91	0.00
367.11	0.00
367.31	0.00
367.51	0.00
367.70	0.00
367.90	0.00
368.10	0.00
368.30	0.00
368.49	0.00
368.69	0.00
368.89	0.00
369.09	0.00
369.28	0.00
369.48	0.00
369.68	0.00
369.87	0.00
370.07	0.00
370.27	0.00
370.47	0.00
370.66	107.66
370.86	67.88
371.06	74.90
371.25	110.01
371.45	234.05
371.65	145.11
371.84	163.84
372.04	147.45
372.24	194.26
372.44	287.89
372.63	180.22
372.83	238.73
373.03	229.37
373.22	227.03
373.42	273.84
373.62	170.86
373.81	166.18
374.01	250.44
374.21	269.16
374.40	255.12
374.60	222.35
374.79	215.33
374.99	229.37
375.19	262.14
375.38	224.69
375.58	283.20
375.78	248.10
375.97	198.95
376.17	318.31
376.37	255.12
376.56	238.73
376.76	189.58
376.95	257.46
377.15	285.55
377.35	250.44
377.54	266.82
377.74	276.18
377.93	348.74
378.13	292.57
378.33	365.12
378.52	297.25
378.72	388.53
378.91	252.78
379.11	308.95
379.31	269.16
379.50	346.40
379.70	315.97
379.89	290.23
380.09	379.17
380.28	257.46
380.48	313.63
380.68	196.60
380.87	276.18
381.07	365.12
381.26	337.04
381.46	334.70
381.65	386.19
381.85	264.48
382.04	259.80
382.24	344.06
382.43	301.93
382.63	351.08
382.83	346.40
383.02	404.91
383.22	301.93
383.41	381.51
383.61	358.10
383.80	339.38
384.00	421.30
384.19	330.02
384.39	341.72
384.58	353.42
384.78	367.46
384.97	376.83
385.17	292.57
385.36	290.23
385.56	395.55
385.75	440.02
385.95	477.47
386.14	379.17
386.34	360.44
386.53	402.57
386.72	425.98
386.92	433.00
387.11	491.51
387.31	435.34
387.50	381.51
387.70	381.51
387.89	395.55
388.09	425.98
388.28	376.83
388.48	472.79
388.67	397.89
388.86	545.34
389.06	514.92
389.25	407.25
389.45	423.64
389.64	383.85
389.84	535.98
390.03	421.30
390.22	498.53
390.42	479.81
390.61	437.68
390.81	470.45
391.00	505.56
391.19	524.28
391.39	500.87
391.58	561.73
391.78	468.11
391.97	596.84
392.16	430.66
392.36	580.45
392.55	510.24
392.75	655.35
392.94	552.37
393.13	528.96
393.33	519.60
393.52	500.87
393.71	521.94
393.91	566.41
394.10	524.28
394.29	521.94
394.49	543.00
394.68	592.16
394.88	566.41
395.07	571.09
395.26	554.71
395.46	561.73
395.65	610.88
395.84	620.24
396.04	650.67
396.23	664.71
396.42	585.13
396.62	704.50
396.81	704.50
397.00	653.01
397.19	685.78
397.39	695.14
397.58	660.03
397.77	706.84
397.97	695.14
398.16	669.39
398.35	718.54
398.55	730.25
398.74	744.29
398.93	758.33
399.12	674.07
399.32	660.03
399.51	655.35
399.70	730.25
399.90	798.12
400.09	713.86
400.28	779.40
400.47	662.37
400.67	711.52
400.86	617.90
401.05	753.65
401.24	800.46
401.44	753.65
401.63	767.70
401.82	718.54
402.01	802.80
402.21	788.76
402.40	812.17
402.59	802.80
402.78	919.83
402.97	837.91
403.17	837.91
403.36	887.06
403.55	833.23
403.74	882.38
403.93	976.00
404.13	926.85
404.32	826.21
404.51	936.21
404.70	968.98
404.89	910.47
405.09	957.28
405.28	966.64
405.47	915.15
405.66	1018.13
405.85	945.58
406.05	980.68
406.24	901.11
406.43	931.53
406.62	992.39
406.81	1039.20
407.00	1004.09
407.20	971.32
407.39	997.07
407.58	1015.79
407.77	1179.63
407.96	1074.31
408.15	980.68
408.34	1057.92
408.54	1081.33
408.73	1076.65
408.92	1104.73
409.11	1151.54
409.30	1121.12
409.49	1217.08
409.68	1193.67
409.87	1107.07
410.07	1214.74
410.26	1256.87
410.45	1205.38
410.64	1188.99
410.83	1217.08
411.02	1177.29
411.21	1179.63
411.40	1186.65
411.59	1350.49
411.78	1327.08
411.98	1231.12
412.17	1291.98
412.36	1301.34
412.55	1357.51
412.74	1350.49
412.93	1387.94
413.12	1273.25
413.31	1416.02
413.50	1446.45
413.69	1432.41
413.88	1430.07
414.07	1521.35
414.26	1383.26
414.45	1486.24
414.64	1486.24
414.83	1514.33
415.02	1497.94
415.22	1467.52
415.41	1596.25
415.60	1682.85
415.79	1544.75
415.98	1584.54
416.17	1619.65
416.36	1540.07
416.55	1579.86
416.74	1636.03
416.93	1671.14
417.12	1612.63
417.31	1713.27
417.50	1767.10
417.69	1689.87
417.88	1638.38
418.07	1724.97
418.26	1827.96
418.45	1708.59
418.64	1877.11
418.83	1804.55
419.02	1870.09
419.21	1781.15
419.39	1834.98
419.58	1813.92
419.77	1898.17
419.96	1863.07
420.15	1839.66
420.34	1982.43
420.53	1930.94
420.72	1942.64
420.91	1877.11
421.10	1870.09
421.29	1942.64
421.48	1891.15
421.67	1998.82
421.86	1914.56
422.05	1860.73
422.24	1984.77
422.43	2015.20
422.61	1926.26
422.80	1933.28
422.99	2015.20
423.18	2132.23
423.37	2125.21
423.56	2031.58
423.75	2139.25
423.94	1994.14
424.13	1804.55
424.32	1851.36
424.50	2094.78
424.69	2064.35
424.88	2036.27
425.07	2008.18
425.26	1926.26
425.45	2047.97
425.64	2036.27
425.83	1968.39
426.01	2052.65
426.20	2031.58
426.39	1991.80
426.58	2104.14
426.77	2073.71
426.96	2127.55
427.15	2073.71
427.33	2040.95
427.52	2167.34
427.71	2073.71
427.90	2172.02
428.09	2200.10
428.28	2146.27
428.46	2176.70
428.65	2165.00
428.84	2183.72
429.03	2296.07
429.22	2235.21
429.40	2251.60
429.59	2246.91
429.78	2228.19
429.97	2200.10
430.16	2340.54
430.34	2363.94
430.53	2317.13
430.72	2375.64
430.91	2319.47
431.10	2303.09
431.28	2347.56
431.47	2354.58
431.66	2441.18
431.85	2370.96
432.03	2377.98
432.22	2436.50
432.41	2392.03
432.60	2427.14
432.79	2387.35
432.97	2523.10
433.16	2502.03
433.35	2466.92
433.54	2595.65
433.72	2544.16
433.91	2555.86
434.10	2394.37
434.28	2406.07
434.47	2511.39
434.66	2562.89
434.85	2710.34
435.03	2593.31
435.22	2574.59
435.41	2644.81
435.59	2693.96
435.78	2630.76
435.97	2647.15
436.16	2616.72
436.34	2567.57
436.53	2693.96
436.72	2700.98
436.90	2649.49
437.09	2686.94
437.28	2675.23
437.46	2705.66
437.65	2759.49
437.84	2888.22
438.02	2827.37
438.21	2757.15
438.40	2710.34
438.58	2881.20
438.77	2979.50
438.96	2773.53
439.14	2897.58
439.33	2916.31
439.52	2974.82
439.70	3028.65
439.89	2946.73
440.08	2984.18
440.26	3115.25
440.45	3133.98
440.63	3199.51
440.82	3141.00
441.01	3077.80
441.19	3178.45
441.38	3222.92
441.57	3077.80
441.75	3241.64
441.94	3227.60
442.12	3262.71
442.31	3332.92
442.50	3356.33
442.68	3363.35
442.87	3321.22
443.05	3344.63
443.24	3456.97
443.43	3370.37
443.61	3407.82
443.80	3595.06
443.98	3321.22
444.17	3272.07
444.35	3433.57
444.54	3489.74
444.73	3480.38
444.91	3485.06
445.10	3433.57
445.28	3445.27
445.47	3478.04
445.65	3562.30
445.84	3456.97
446.02	3447.61
446.21	3421.86
446.39	3426.54
446.58	3506.12
446.77	3571.66
446.95	3534.21
447.14	3508.46
447.32	3513.14
447.51	3482.72
447.69	3463.99
447.88	3548.25
448.06	3499.10
448.25	3531.87
448.43	3571.66
448.62	3515.48
448.80	3501.44
448.99	3592.72
449.17	3588.04
449.36	3468.67
449.54	3751.88
449.73	3625.49
449.91	3604.42
450.10	3812.73
450.28	3737.84
450.46	3758.90
450.65	3777.62
450.83	3721.45
451.02	3810.39
451.20	3819.75
451.39	3845.50
451.57	3810.39
451.76	3749.54
451.94	3782.31
452.13	3826.78
452.31	3833.80
452.49	3852.52
452.68	3901.67
452.86	3803.37
453.05	4037.42
453.23	4023.38
453.42	3948.48
453.60	3927.42
453.78	3936.78
453.97	3901.67
454.15	3906.35
454.34	3960.19
454.52	4065.51
454.70	3901.67
454.89	4081.89
455.07	3985.93
455.26	4046.79
455.44	4203.60
455.62	4014.02
455.81	4149.77
455.99	4049.13
456.17	4161.47
456.36	4294.88
456.54	4257.43
456.73	4290.20
456.91	4327.65
457.09	4273.82
457.28	4503.19
457.46	4285.52
457.64	4262.12
457.83	4332.33
458.01	4369.78
458.19	4280.84
458.38	4325.31
458.56	4472.76
458.74	4407.23
458.93	4423.61
459.11	4540.64
459.29	4489.15
459.48	4531.28
459.66	4461.06
459.84	4461.06
460.03	4550.00
460.21	4496.17
460.39	4545.32
460.57	4475.10
460.76	4601.49
460.94	4720.86
461.12	4557.02
461.31	4599.15
461.49	4456.38
461.67	4683.41
461.85	4652.98
462.04	4599.15
462.22	4842.57
462.40	4772.35
462.59	4854.27
462.77	4964.28
462.95	4727.88
463.13	4716.18
463.32	4746.61
463.50	4760.65
463.68	4798.10
463.86	4891.72
464.05	4856.61
464.23	4809.80
464.41	4898.74
464.59	4947.89
464.78	5107.05
464.96	4767.67
465.14	4945.55
465.32	5036.83
465.50	4975.98
465.69	4943.21
465.87	5067.26
466.05	4983.00
466.23	5046.20
466.41	5146.84
466.60	5121.09
466.78	5139.82
466.96	4952.57
467.14	5020.45
467.32	5238.12
467.51	5015.77
467.69	5165.56
467.87	5069.60
468.05	5167.90
468.23	5158.54
468.41	5200.67
468.60	5130.45
468.78	5317.70
468.96	5247.48
469.14	5303.65
469.32	5289.61
469.50	5109.39
469.69	5284.93
469.87	5444.09
470.05	5338.76
470.23	5387.91
470.41	5507.28
470.59	5486.22
470.77	5364.51
470.95	5579.84
471.14	5643.03
471.32	5509.62
471.50	5661.76
471.68	5802.19
471.86	5607.92
472.04	5633.67
472.22	5891.13
472.40	5467.49
472.58	5631.33
472.77	5809.21
472.95	5858.36
473.13	5891.13
473.31	5907.51
473.49	5816.23
473.67	5762.40
473.85	6015.18
474.03	6193.06
474.21	6019.86
474.39	6001.13
474.57	6169.65
474.75	6104.12
474.93	6274.98
475.12	6214.12
475.30	6282.00
475.48	6406.05
475.66	6361.58
475.84	6260.93
476.02	6399.02
476.20	6368.60
476.38	6551.16
476.56	6527.75
476.74	6750.10
476.92	6693.93
477.10	6504.35
477.28	6820.32
477.46	6682.23
477.64	6794.58
477.82	6841.39
478.00	7019.27
478.18	6927.99
478.36	6986.50
478.54	7164.38
478.72	6986.50
478.90	7187.79
479.08	7178.42
479.26	7382.05
479.44	7246.30
479.62	7159.70
479.80	7489.71
479.98	7538.87
480.16	7632.49
480.34	7492.05
480.52	7728.45
480.70	7791.64
480.88	7655.89
481.06	7728.45
481.24	7707.38
481.41	7932.08
481.59	8070.17
481.77	7702.70
481.95	7988.25
482.13	8065.49
482.31	8109.96
482.49	8283.16
482.67	8376.78
482.85	8379.12
483.03	8547.64
483.21	8664.66
483.39	8554.66
483.57	8716.16
483.74	8751.26
483.92	8868.29
484.10	8713.81
484.28	8849.57
484.46	9057.87
484.64	9202.99
484.82	8980.64
485.00	9310.65
485.18	9497.89
485.35	9589.17
485.53	9373.85
485.71	9554.07
485.89	9624.28
486.07	9820.89
486.25	9764.72
486.43	9736.63
486.61	9846.63
486.78	9872.38
486.96	9937.91
487.14	10277.29
487.32	10029.20
487.50	10127.50
487.68	10221.12
487.85	10413.04
488.03	10485.60
488.21	10597.95
488.39	10686.89
488.57	10684.55
488.75	10942.00
488.92	10906.90
489.10	10932.64
489.28	10965.41
489.46	11232.23
489.64	11162.01
489.81	11566.93
489.99	11370.32
490.17	11426.50
490.35	11557.57
490.53	11669.91
490.70	11599.70
490.88	11719.06
491.06	11988.22
491.24	11742.47
491.41	11925.03
491.59	12208.23
491.77	11796.30
491.95	12271.43
492.13	12229.30
492.30	12322.92
492.48	12528.89
492.66	12332.28
492.84	12741.88
493.01	12585.06
493.19	12503.14
493.37	12685.70
493.54	12669.32
493.72	12959.55
493.90	12837.84
494.08	13090.62
494.25	12940.82
494.43	13032.10
494.61	13322.33
494.79	13315.31
494.96	13481.49
495.14	13549.36
495.32	13628.94
495.49	13610.22
495.67	13722.56
495.85	13776.39
496.02	13996.40
496.20	14085.34
496.38	13963.64
496.55	14129.81
496.73	14452.81
496.91	14118.11
497.09	14579.20
497.26	14668.14
497.44	14321.74
497.62	14417.70
497.79	14670.48
497.97	14647.07
498.14	14670.48
498.32	15087.09
498.50	14970.07
498.67	14860.06
498.85	15077.73
499.03	14927.94
499.20	15143.27
499.38	15279.02
499.56	15393.70
499.73	15431.15
499.91	15419.45
500.08	15510.73
500.26	15484.98
500.44	15440.51
500.61	15712.02
500.79	15683.93
500.97	15822.02
501.14	16093.52
501.32	16032.67
501.49	15775.21
501.67	15796.28
501.84	15843.09
502.02	15978.84
502.20	16273.74
502.37	16343.96
502.55	16219.91
502.72	16233.96
502.90	16308.85
503.07	16416.52
503.25	16336.94
503.43	16425.88
503.60	16496.10
503.78	16531.20
503.95	16966.54
504.13	16781.64
504.30	16861.22
504.48	16865.90
504.65	16877.60
504.83	17071.87
505.01	17095.27
505.18	17109.32
505.36	17245.07
505.53	17062.51
505.71	17214.64
505.88	17467.42
506.06	16732.49
506.23	17355.07
506.41	17664.02
506.58	17254.43
506.76	17774.03
506.93	17488.48
507.11	17509.55
507.28	17900.42
507.46	17418.27
507.63	17778.71
507.81	18087.66
507.98	18008.08
508.16	17736.58
508.33	17947.23
508.50	18242.14
508.68	17905.10
508.85	18192.98
509.03	18075.96
509.20	18244.48
509.38	18288.95
509.55	18443.42
509.73	18438.74
509.90	18448.10
510.08	18471.51
510.25	18401.29
510.42	18410.65
510.60	18820.25
510.77	18986.43
510.95	19054.30
511.12	18670.45
511.30	18778.12
511.47	19112.81
511.64	18967.70
511.82	19049.62
511.99	19264.95
512.17	19384.32
512.34	19143.24
512.51	18869.40
512.69	19236.86
512.86	19426.45
513.04	19396.02
513.21	19737.74
513.38	19400.70
513.56	19487.30
513.73	19482.62
513.90	19541.13
514.08	19786.89
514.25	19948.39
514.43	19859.45
514.60	19768.16
514.77	19791.57
514.95	20123.93
515.12	19920.30
515.29	19950.73
515.47	20116.90
515.64	20512.46
515.81	19606.67
515.99	20360.32
516.16	20486.71
516.33	20154.35
516.51	20645.87
516.68	20357.98
516.85	20226.91
517.03	20486.71
517.20	20519.48
517.37	20893.96
517.54	20833.11
517.72	20823.75
517.89	20842.47
518.06	20746.51
518.24	20709.06
518.41	20732.47
518.58	21158.44
518.75	20999.29
518.93	20938.43
519.10	20809.70
519.27	21025.03
519.45	21055.46
519.62	21125.68
519.79	21139.72
519.96	21317.60
520.14	21317.60
520.31	21191.21
520.48	21556.33
520.65	21722.51
520.83	21516.54
521.00	21509.52
521.17	21453.35
521.34	21336.32
521.52	21598.46
521.69	21806.77
521.86	21912.10
522.03	22085.30
522.20	21638.25
522.38	21907.41
522.55	22136.79
522.72	21729.53
522.89	22104.02
523.07	22225.73
523.24	22298.28
523.41	22480.85
523.58	21991.67
523.75	22487.87
523.92	22361.48
524.10	22059.55
524.27	22492.55
524.44	22317.01
524.61	22305.31
524.78	22567.45
524.96	22335.73
525.13	22508.93
525.30	22527.66
525.47	22363.82
525.64	22979.38
525.81	22651.70
525.98	22752.35
526.16	23211.09
526.33	22892.78
526.50	23197.05
526.67	22764.05
526.84	22923.21
527.01	23108.11
527.18	23112.79
527.36	23417.06
527.53	23403.02
527.70	23777.50
527.87	23548.13
528.04	23234.50
528.21	23805.59
528.38	23426.42
528.55	23618.35
528.72	23351.52
528.89	23667.50
529.07	23391.31
529.24	23304.71
529.41	23606.64
529.58	23803.25
529.75	23690.90
529.92	23693.24
530.09	23775.16
530.26	24046.66
530.43	24051.34
530.60	23800.91
530.77	23985.81
530.94	24175.39
531.11	24154.33
531.28	24018.58
531.46	24093.47
531.63	24060.71
531.80	24311.14
531.97	24465.62
532.14	24285.40
532.31	23960.06
532.48	24489.03
532.65	24177.73
532.82	24332.21
532.99	24229.23
533.16	24189.44
533.33	24570.94
533.50	24678.61
533.67	24610.73
533.84	24580.31
534.01	24533.50
534.18	24353.27
534.35	24706.70
534.52	24250.29
534.69	25156.08
534.86	25193.53
535.03	24589.67
535.20	24769.89
535.37	25022.67
535.54	25048.41
535.71	24837.76
535.88	24755.85
536.05	24837.76
536.22	25071.82
536.38	25062.46
536.55	25109.27
536.72	25352.68
536.89	24973.52
537.06	25177.14
537.23	25205.23
537.40	24865.85
537.57	25406.52
537.74	25378.43
537.91	25647.59
538.08	25504.82
538.25	25460.35
538.42	25219.27
538.59	25399.49
538.75	25092.88
538.92	25530.56
539.09	25612.48
539.26	25640.57
539.43	25757.60
539.60	25839.51
539.77	25689.72
539.94	25909.73
540.11	25235.66
540.28	25741.21
540.44	26038.46
540.61	25827.81
540.78	25717.81
540.95	25813.77
541.12	25830.15
541.29	25586.74
541.46	25876.96
541.62	26033.78
541.79	25956.54
541.96	25858.24
542.13	25818.45
542.30	26232.72
542.47	26176.55
542.63	26153.15
542.80	26391.88
542.97	26139.10
543.14	26382.52
543.31	26555.72
543.48	26529.97
543.64	26806.16
543.81	26998.08
543.98	26527.63
544.15	26700.83
544.32	26965.31
544.48	26824.88
544.65	26857.65
544.82	27063.61
544.99	26354.43
545.16	26576.78
545.32	26345.07
545.49	27122.13
545.66	27253.20
545.83	27021.48
546.00	27152.55
546.16	27262.56
546.33	26749.98
546.50	26637.64
546.67	27154.90
546.83	26644.66
547.00	27623.00
547.17	27201.71
547.34	27056.59
547.50	27300.01
547.67	27302.35
547.84	27274.26
548.00	27503.64
548.17	27491.93
548.34	27438.10
548.51	27402.99
548.67	27838.33
548.84	27323.41
549.01	27515.34
549.18	27405.33
549.34	27325.75
549.51	27562.15
549.68	27531.72
549.84	27424.06
550.01	27442.78
550.18	27227.45
550.34	27929.61
550.51	27721.30
550.68	27702.58
550.84	27601.94
551.01	28011.53
551.18	27510.66
551.34	27585.55
551.51	27934.29
551.68	27831.31
551.84	28067.70
552.01	27744.71
552.18	28002.17
552.34	27843.01
552.51	27988.13
552.68	27845.35
552.84	27983.44
553.01	27934.29
553.18	28009.19
553.34	28189.41
553.51	28210.48
553.67	28451.55
553.84	28701.99
554.01	28362.61
554.17	28210.48
554.34	28182.39
554.51	28386.02
554.67	28341.55
554.84	28339.21
555.00	28063.02
555.17	28423.47
555.33	28119.20
555.50	28505.38
555.67	27946.00
555.83	28549.85
556.00	27948.34
556.16	28615.39
556.33	28503.04
556.50	28912.64
556.66	28472.62
556.83	28444.53
556.99	28947.75
557.16	28769.86
557.32	28547.51
557.49	29085.84
557.65	28587.30
557.82	28741.78
557.98	28259.63
558.15	28931.36
558.32	28973.49
558.48	28678.58
558.65	28858.81
558.81	28872.85
558.98	28996.90
559.14	28795.61
559.31	28584.96
559.47	28772.21
559.64	29312.87
559.80	29303.51
559.97	29167.76
560.13	28952.43
560.30	28900.94
560.46	28947.75
560.63	28936.04
560.79	29397.13
560.96	29071.79
561.12	28961.79
561.29	28648.16
561.45	29198.18
561.61	28975.83
561.78	29221.59
561.94	29357.34
562.11	28863.49
562.27	29312.87
562.44	29109.24
562.60	29268.40
562.77	29113.92
562.93	29252.02
563.10	29399.47
563.26	29731.83
563.42	29605.44
563.59	28945.41
563.75	29357.34
563.92	29392.45
564.08	29270.74
564.24	29647.57
564.41	29008.60
564.57	28753.48
564.74	29397.13
564.90	29158.39
565.07	29294.14
565.23	29731.83
565.39	29624.16
565.56	29640.54
565.72	29333.93
565.88	29472.03
566.05	28996.90
566.21	29469.69
566.38	29448.62
566.54	29322.23
566.70	29715.44
566.87	29427.56
567.03	29614.80
567.19	30125.04
567.36	29708.42
567.52	29511.81
567.68	29593.73
567.85	29340.96
568.01	29600.76
568.17	29387.77
568.34	29771.61
568.50	29795.02
568.66	29493.09
568.83	29998.65
568.99	30075.88
569.15	29827.79
569.32	29355.00
569.48	29673.31
569.64	30005.67
569.81	29706.08
569.97	29607.78
570.13	29687.36
570.30	29670.97
570.46	29720.12
570.62	29504.79
570.78	29565.65
570.95	29600.76
571.11	29670.97
571.27	29699.06
571.43	29729.48
571.60	29710.76
571.76	29851.19
571.92	30038.44
572.09	30068.86
572.25	29926.09
572.41	29872.26
572.57	29965.88
572.74	29921.41
572.90	29462.66
573.06	29790.34
573.22	29532.88
573.38	29970.56
573.55	29832.47
573.71	30441.01
573.87	29954.18
574.03	29954.18
574.20	29481.39
574.36	29614.80
574.52	29830.13
574.68	29855.87
574.84	29694.38
575.01	29855.87
575.17	30122.69
575.33	30066.52
575.49	30239.72
575.65	30228.02
575.82	30059.50
575.98	30026.73
576.14	29804.38
576.30	29813.74
576.46	29832.47
576.62	30010.35
576.79	30000.99
576.95	29673.31
577.11	30267.81
577.27	30061.84
577.43	29886.30
577.59	29996.31
577.75	30450.37
577.92	29710.76
578.08	29823.11
578.24	29577.35
578.40	29956.52
578.56	30089.93
578.72	29872.26
578.88	29977.58
579.04	30036.09
579.21	29949.50
579.37	30162.48
579.53	30394.20
579.69	30015.03
579.85	29848.85
580.01	29905.02
580.17	29890.98
580.33	29832.47
580.49	29947.15
580.65	30127.38
580.82	30340.36
580.98	29951.84
581.14	29788.00
581.30	30396.54
581.46	30024.39
581.62	30270.15
581.78	29848.85
581.94	29837.15
582.10	30366.11
582.26	29710.76
582.42	30054.82
582.58	30272.49
582.74	29958.86
582.90	30473.78
583.06	30050.14
583.22	30202.27
583.38	29797.36
583.54	30197.59
583.70	29603.10
583.86	30101.63
584.02	30225.68
584.18	30316.96
584.34	30221.00
584.50	30139.08
584.66	30005.67
584.82	30382.49
584.98	30195.25
585.14	30118.01
585.30	29614.80
585.46	29888.64
585.62	30373.13
585.78	30309.94
585.94	29963.54
586.10	30569.74
586.26	30384.83
586.42	30375.47
586.58	30291.21
586.74	29860.55
586.90	30101.63
587.06	30155.46
587.22	30422.28
587.38	30024.39
587.54	30370.79
587.70	30600.16
587.86	30349.73
588.02	30455.05
588.18	30164.82
588.34	30188.23
588.49	30424.62
588.65	30078.22
588.81	30396.54
588.97	30176.53
589.13	30543.99
589.29	30008.01
589.45	30462.07
589.61	30611.87
589.77	30689.10
589.93	30609.53
590.08	30604.84
590.24	30719.53
590.40	30693.79
590.56	30527.61
590.72	30389.52
590.88	30199.93
591.04	30125.04
591.20	30878.69
591.35	30878.69
591.51	31023.80
591.67	30859.96
591.83	30712.51
591.99	30543.99
592.15	30506.54
592.31	30679.74
592.46	30572.08
592.62	30464.41
592.78	30410.58
592.94	30623.57
593.10	30984.01
593.26	30228.02
593.41	30717.19
593.57	30426.96
593.73	30841.24
593.89	30602.50
594.05	30611.87
594.20	30497.18
594.36	30628.25
594.52	30438.67
594.68	30485.48
594.84	30548.67
594.99	30616.55
595.15	31119.76
595.31	30799.11
595.47	30981.67
595.62	30817.83
595.78	30829.54
595.94	30761.66
596.10	30733.57
596.25	30478.46
596.41	30462.07
596.57	30225.68
596.73	30464.41
596.88	30775.70
597.04	30476.12
597.20	31192.32
597.36	30923.16
597.51	30958.27
597.67	30508.88
597.83	30436.33
597.99	30731.23
598.14	30665.70
598.30	30745.28
598.46	30501.86
598.61	31166.57
598.77	30513.56
598.93	31000.40
599.09	30857.62
599.24	31290.62
599.40	30843.58
599.56	31131.47
599.71	30637.61
599.87	31187.64
600.03	30852.94
600.18	30836.56
600.34	30698.47
600.50	30611.87
600.65	30448.03
600.81	31082.31
600.97	31117.42
601.12	31285.94
601.28	30665.70
601.44	30738.26
601.59	30874.01
601.75	30630.59
601.91	30883.37
602.06	30668.04
602.22	30670.38
602.37	30810.81
602.53	30689.10
602.69	31103.38
602.84	30551.01
603.00	30616.55
603.16	31161.89
603.31	31016.78
603.47	31164.23
603.62	30841.24
603.78	30822.51
603.94	30565.06
604.09	30602.50
604.25	31215.72
604.40	30771.02
604.56	30778.04
604.71	31248.49
604.87	30707.83
605.03	30801.45
605.18	30749.96
605.34	30789.75
605.49	31016.78
605.65	30579.10
605.80	30361.43
605.96	30754.64
606.12	30436.33
606.27	30771.02
606.43	30455.05
606.58	30941.88
606.74	30806.13
606.89	30920.82
607.05	30852.94
607.20	30513.56
607.36	30651.66
607.51	30539.31
607.67	30771.02
607.82	30326.32
607.98	30637.61
608.13	30829.54
608.29	30316.96
608.44	30312.28
608.60	30630.59
608.75	30768.68
608.91	30703.15
609.06	30354.41
609.22	31047.21
609.37	30366.11
609.53	30473.78
609.68	30375.47
609.84	30422.28
609.99	30312.28
610.15	30534.63
610.30	30735.92
610.46	30361.43
610.61	30415.26
610.76	30794.43
610.92	30426.96
611.07	30562.72
611.23	29998.65
611.38	30543.99
611.54	30115.67
611.69	30103.97
611.84	30155.46
612.00	30398.88
612.15	30183.55
612.31	30672.72
612.46	30270.15
612.62	30368.45
612.77	30499.52
612.92	30536.97
613.08	30511.22
613.23	30415.26
613.39	30075.88
613.54	30267.81
613.69	30101.63
613.85	30211.64
614.00	30204.61
614.15	30359.09
614.31	30321.64
614.46	30375.47
614.62	30408.24
614.77	30590.80
614.92	30520.59
615.08	30539.31
615.23	30380.15
615.38	30485.48
615.54	29851.19
615.69	29933.11
615.84	30291.21
616.00	30209.29
616.15	30080.56
616.30	29649.91
616.46	30246.74
616.61	30181.21
616.76	30155.46
616.92	29956.52
617.07	30029.07
617.22	29867.58
617.37	29907.37
617.53	29926.09
617.68	29839.49
617.83	29769.27
617.99	29834.81
618.14	29677.99
618.29	29989.28
618.45	29558.63
618.60	29958.86
618.75	29970.56
618.90	29844.17
619.06	29813.74
619.21	29621.82
619.36	29790.34
619.51	29879.28
619.67	29406.49
619.82	29376.06
619.97	29158.39
620.12	29443.94
620.28	29504.79
620.43	29919.07
620.58	29830.13
620.73	30164.82
620.89	29841.83
621.04	30029.07
621.19	29474.37
621.34	29624.16
621.49	29106.90
621.65	29448.62
621.80	29530.54
621.95	29261.38
622.10	29174.78
622.25	29617.14
622.41	29139.67
622.56	28952.43
622.71	29628.84
622.86	29511.81
623.01	29443.94
623.16	29362.02
623.32	29191.16
623.47	29383.09
623.62	29326.91
623.77	29268.40
623.92	29584.37
624.07	29139.67
624.23	29039.03
624.38	29380.74
624.53	29469.69
624.68	29614.80
624.83	29137.33
624.98	29312.87
625.13	28769.86
625.29	29198.18
625.44	29134.99
625.59	28868.17
625.74	28760.50
625.89	28582.62
626.04	28587.30
626.19	28971.15
626.34	29078.82
626.49	28570.92
626.65	28566.24
626.80	29277.76
626.95	28568.58
627.10	29024.98
627.25	29064.77
627.40	28430.49
627.55	28563.90
627.70	28793.27
627.85	28734.76
628.00	28467.94
628.15	28685.61
628.30	28444.53
628.45	28704.33
628.60	29034.35
628.76	28751.14
628.91	28641.14
629.06	28631.77
629.21	28669.22
629.36	28215.16
629.51	28603.69
629.66	28428.15
629.81	28304.10
629.96	28624.75
630.11	28128.56
630.26	28210.48
630.41	28418.78
630.56	28395.38
630.71	28655.18
630.86	28336.87
631.01	28231.54
631.16	28334.53
631.31	28563.90
631.46	28067.70
631.61	27983.44
631.76	28144.94
631.91	28016.21
632.06	28009.19
632.21	28379.00
632.36	28121.54
632.51	28240.90
632.66	28304.10
632.81	28280.69
632.96	28257.29
633.10	28215.16
633.25	28327.50
633.40	28273.67
633.55	28130.90
633.70	27655.77
633.85	28187.07
634.00	27953.02
634.15	27847.69
634.30	27845.35
634.45	27875.78
634.60	28224.52
634.75	27990.47
634.90	28423.47
635.05	27960.04
635.19	27915.57
635.34	28379.00
635.49	28074.73
635.64	28077.07
635.79	28102.81
635.94	27730.67
636.09	28018.55
636.24	27807.90
636.39	27758.75
636.53	27550.45
636.68	27571.51
636.83	27639.39
636.98	27840.67
637.13	27611.30
637.28	27838.33
637.43	27709.60
637.57	28180.05
637.72	27686.20
637.87	27601.94
638.02	27859.40
638.17	27623.00
638.32	27718.96
638.46	27402.99
638.61	27632.36
638.76	27323.41
638.91	27374.91
639.06	27655.77
639.20	27138.51
639.35	27569.17
639.50	27777.48
639.65	27875.78
639.80	27590.24
639.94	27552.79
640.09	27637.05
640.24	27300.01
640.39	27379.59
640.54	27182.98
640.68	27426.40
640.83	27351.50
640.98	27016.80
641.13	26745.30
641.27	27730.67
641.42	27147.87
641.57	27218.09
641.72	27285.97
641.86	27035.53
642.01	26728.92
642.16	26934.88
642.31	26607.21
642.45	27225.11
642.60	27084.68
642.75	26590.83
642.90	26988.72
643.04	27133.83
643.19	26464.44
643.34	26637.64
643.48	27159.58
643.63	27218.09
643.78	27072.98
643.93	26780.41
644.07	26735.94
644.22	27098.72
644.37	26787.43
644.51	27084.68
644.66	26747.64
644.81	26593.17
644.95	27124.47
645.10	27147.87
645.25	26380.18
645.39	27117.45
645.54	26754.66
645.69	26504.23
645.83	26761.69
645.98	26555.72
646.13	26906.80
646.27	26635.30
646.42	26771.05
646.57	27175.96
646.71	26740.62
646.86	26548.70
647.00	26579.12
647.15	26370.82
647.30	26424.65
647.44	26321.66
647.59	26679.77
647.74	26331.03
647.88	26520.61
648.03	26445.71
648.17	26558.06
648.32	26572.10
648.47	26541.68
648.61	26426.99
648.76	26431.67
648.90	26405.92
649.05	26216.34
649.20	26616.57
649.34	26394.22
649.49	26036.12
649.63	26534.65
649.78	26185.91
649.92	26171.87
650.07	26305.28
650.21	26291.24
650.36	26410.60
650.51	26155.49
650.65	26417.63
650.80	26022.08
650.94	26206.98
651.09	25919.09
651.23	25661.63
651.38	26092.29
651.52	26071.23
651.67	25942.50
651.81	26462.10
651.96	26033.78
652.10	26134.42
652.25	25940.16
652.39	26342.73
652.54	26022.08
652.68	25942.50
652.83	26153.15
652.97	26129.74
653.12	25731.85
653.26	26043.14
653.41	26096.97
653.55	25680.36
653.70	25926.11
653.84	25860.58
653.99	25736.53
654.13	25881.64
654.27	25628.87
654.42	25982.29
654.56	25495.46
654.71	25905.05
654.85	25436.94
655.00	25823.13
655.14	25689.72
655.29	25682.70
655.43	25809.09
655.57	25436.94
655.72	25766.96
655.86	25497.80
656.01	25645.25
656.15	25383.11
656.30	25390.13
656.44	25256.72
656.58	25535.24
656.73	25357.36
656.87	25455.67
657.01	25710.78
657.16	25605.46
657.30	25600.78
657.45	25539.93
657.59	25146.72
657.73	25078.84
657.88	25371.41
658.02	25235.66
658.16	25202.89
658.31	24952.45
658.45	25394.81
658.60	25083.52
658.74	24947.77
658.88	25193.53
659.03	25067.14
659.17	24980.54
659.31	24903.30
659.46	25275.45
659.60	25296.51
659.74	25055.43
659.89	24767.55
660.03	24706.70
660.17	25099.90
660.32	24507.75
660.46	24304.12
660.60	24460.94
660.74	24266.67
660.89	24407.11
661.03	24699.67
661.17	24610.73
661.32	24898.62
661.46	24992.24
661.60	24496.05
661.74	24996.92
661.89	24638.82
662.03	24692.65
662.17	24538.18
662.31	24659.88
662.46	24320.51
662.60	24472.64
662.74	24404.77
662.88	24439.87
663.03	24252.63
663.17	24149.65
663.31	23908.57
663.45	23955.38
663.60	23913.25
663.74	24102.84
663.88	24079.43
664.02	24346.25
664.17	24266.67
664.31	24058.37
664.45	24016.24
664.59	23943.68
664.73	23786.86
664.88	23871.12
665.02	23571.54
665.16	23819.63
665.30	23878.15
665.44	23969.43
665.59	23379.61
665.73	23295.35
665.87	23438.12
666.01	23948.36
666.15	23751.76
666.29	23548.13
666.44	23583.24
666.58	23777.50
666.72	23278.97
666.86	23487.28
667.00	23793.89
667.14	23351.52
667.28	23339.82
667.43	23215.77
667.57	23459.19
667.71	23175.98
667.85	22932.57
667.99	23168.96
668.13	23136.20
668.27	23211.09
668.41	23150.24
668.56	22820.22
668.70	22752.35
668.84	23082.36
668.98	22955.97
669.12	23414.72
669.26	22911.50
669.40	23084.70
669.54	22754.69
669.68	22883.42
669.82	22831.93
669.96	22403.61
670.10	22525.32
670.25	22534.68
670.39	22487.87
670.53	22347.44
670.67	22553.40
670.81	22625.96
670.95	22335.73
671.09	22370.84
671.23	22501.91
671.37	22586.17
671.51	22459.78
671.65	22497.23
671.79	22113.38
671.93	21998.70
672.07	22403.61
672.21	22003.38
672.35	22066.57
672.49	21678.04
672.63	21898.05
672.77	21755.28
672.91	21942.52
673.05	21778.68
673.19	21710.81
673.33	22059.55
673.47	21914.44
673.61	21612.51
673.75	21689.74
673.89	21530.59
674.03	21624.21
674.17	21436.97
674.31	21542.29
674.45	21500.16
674.59	21202.91
674.73	21734.21
674.87	21329.30
675.01	21074.18
675.15	21015.67
675.29	21172.49
675.43	20919.71
675.56	21022.69
675.70	20910.35
675.84	21200.57
675.98	20390.75
676.12	21123.33
676.26	21394.84
676.40	21137.38
676.54	20692.68
676.68	20695.02
676.82	20456.28
676.96	20594.37
677.10	20650.55
677.23	20365.00
677.37	20273.72
677.51	20147.33
677.65	20390.75
677.79	19964.77
677.93	20203.50
678.07	20119.24
678.21	19709.65
678.34	20224.57
678.48	20053.71
678.62	20107.54
678.76	19756.46
678.90	19623.05
679.04	19625.39
679.18	19503.68
679.31	19461.55
679.45	19328.14
679.59	19227.50
679.73	19363.25
679.87	19552.84
680.00	19199.41
680.14	19098.77
680.28	19264.95
680.42	19220.48
680.56	19220.48
680.70	19398.36
680.83	19220.48
680.97	19023.87
681.11	18855.36
681.25	19026.21
681.39	18750.03
681.52	18597.90
681.66	18611.94
681.80	18735.99
681.94	18434.06
682.07	18555.77
682.21	18389.59
682.35	18342.78
682.49	18319.37
682.62	18136.81
682.76	18200.01
682.90	18335.76
683.04	18228.09
683.17	18162.56
683.31	18272.56
683.45	18190.64
683.59	18017.44
683.72	17928.50
683.86	17869.99
684.00	18026.81
684.13	17848.93
684.27	17657.00
684.41	17612.53
684.55	17422.95
684.68	17422.95
684.82	17441.67
684.96	17474.44
685.09	17114.00
685.23	17547.00
685.37	17242.73
685.50	17444.01
685.64	17214.64
685.78	17378.48
685.91	17029.74
686.05	16947.82
686.19	16882.28
686.32	17118.68
686.46	16744.19
686.60	16791.00
686.73	16947.82
686.87	16449.28
687.01	16521.84
687.14	16645.89
687.28	16350.98
687.42	16444.60
687.55	16472.69
687.69	16322.90
687.82	16395.45
687.96	16615.46
688.10	16369.71
688.23	15992.88
688.37	15910.96
688.50	16086.50
688.64	15997.56
688.78	16011.60
688.91	15913.30
689.05	15571.58
689.18	15833.72
689.32	15501.37
689.46	15470.94
689.59	15496.69
689.73	15742.44
689.86	15239.23
690.00	15412.43
690.13	15325.83
690.27	15215.82
690.41	15040.28
690.54	15229.87
690.68	15007.52
690.81	15304.76
690.95	15384.34
691.08	15372.64
691.22	15033.26
691.35	14881.13
691.49	15073.05
691.62	14963.04
691.76	14913.89
691.89	14986.45
692.03	14682.18
692.16	14476.21
692.30	14113.43
692.43	14221.10
692.57	14057.26
692.70	14331.10
692.84	14389.61
692.97	13991.72
693.11	14338.12
693.24	14204.71
693.38	14125.13
693.51	14012.79
693.65	14059.60
693.78	13673.41
693.92	14101.73
694.05	13935.55
694.19	13795.12
694.32	13736.60
694.45	13755.33
694.59	13364.46
694.72	13422.97
694.86	13518.93
694.99	13076.57
695.13	13231.05
695.26	13212.32
695.39	13128.06
695.53	13212.32
695.66	13238.07
695.80	13202.96
695.93	13238.07
696.07	13116.36
696.20	13165.51
696.33	13097.64
696.47	12706.77
696.60	13095.30
696.73	12858.90
696.87	12678.68
697.00	12901.03
697.14	12599.10
697.27	12437.61
697.40	12491.44
697.54	12428.24
697.67	12449.31
697.80	12280.79
697.94	12053.76
698.07	12217.60
698.21	12133.34
698.34	12236.32
698.47	12161.42
698.61	12004.61
698.74	12184.83
698.87	12180.15
699.01	11985.88
699.14	11845.45
699.27	11925.03
699.40	11737.79
699.54	11868.86
699.67	11826.73
699.80	11463.94
699.94	11515.44
700.07	11534.16
700.20	11452.24
700.34	11506.07
700.47	11524.80
700.60	11482.67
700.73	11573.95
700.87	11339.90
701.00	11353.94
701.13	11302.45
701.26	11030.94
701.40	11363.30
701.53	11040.31
701.66	11080.10
701.79	10958.39
701.93	10892.85
702.06	10714.97
702.19	10663.48
702.32	10970.09
702.46	10541.77
702.59	10352.19
702.72	10377.94
702.85	10579.22
702.99	10509.01
703.12	10480.92
703.25	10244.52
703.38	10586.24
703.51	10321.76
703.65	10459.85
703.78	10324.10
703.91	10237.50
704.04	10310.06
704.17	10445.81
704.31	10113.45
704.44	10125.16
704.57	9975.36
704.70	9895.78
704.83	9818.55
704.96	9980.04
705.10	9783.44
705.23	9750.67
>>>>>End Processed Spectral Data<<<<<
