SpectraSuite Data File
++++++++++++++++++++++++++++++++++++
Date: Fri Oct 18 13:58:43 GMT-05:00 2013
User: bianchi
Dark Spectrum Present: No
Reference Spectrum Present: No
Number of Sampled Component Spectra: 1
Spectrometers: USB2+H05261
Integration Time (usec): 50000 (USB2+H05261)
Spectra Averaged: 1 (USB2+H05261)
Boxcar Smoothing: 0 (USB2+H05261)
Correct for Electrical Dark: No (USB2+H05261)
Strobe/Lamp Enabled: No (USB2+H05261)
Correct for Detector Non-linearity: No (USB2+H05261)
Correct for Stray Light: No (USB2+H05261)
Number of Pixels in Processed Spectrum: 2048
>>>>>Begin Processed Spectral Data<<<<<
365.73	0.00
365.92	0.00
366.12	0.00
366.32	0.00
366.52	0.00
366.72	0.00
366.91	0.00
367.11	0.00
367.31	0.00
367.51	0.00
367.70	0.00
367.90	0.00
368.10	0.00
368.30	0.00
368.49	0.00
368.69	0.00
368.89	0.00
369.09	0.00
369.28	0.00
369.48	0.00
369.68	0.00
369.87	0.00
370.07	0.00
370.27	0.00
370.47	0.00
370.66	60.85
370.86	60.85
371.06	194.26
371.25	175.54
371.45	168.52
371.65	56.17
371.84	189.58
372.04	203.63
372.24	201.29
372.44	187.24
372.63	187.24
372.83	278.52
373.03	203.63
373.22	220.01
373.42	180.22
373.62	245.76
373.81	166.18
374.01	257.46
374.21	292.57
374.40	184.90
374.60	283.20
374.79	264.48
374.99	198.95
375.19	250.44
375.38	297.25
375.58	262.14
375.78	332.36
375.97	245.76
376.17	252.78
376.37	318.31
376.56	252.78
376.76	264.48
376.95	266.82
377.15	322.99
377.35	248.10
377.54	301.93
377.74	222.35
377.93	252.78
378.13	243.42
378.33	229.37
378.52	280.86
378.72	299.59
378.91	266.82
379.11	241.08
379.31	227.03
379.50	266.82
379.70	348.74
379.89	376.83
380.09	301.93
380.28	280.86
380.48	313.63
380.68	308.95
380.87	257.46
381.07	311.29
381.26	327.68
381.46	266.82
381.65	330.02
381.85	344.06
382.04	346.40
382.24	339.38
382.43	320.65
382.63	290.23
382.83	320.65
383.02	334.70
383.22	355.76
383.41	344.06
383.61	341.72
383.80	376.83
384.00	320.65
384.19	358.10
384.39	376.83
384.58	346.40
384.78	299.59
384.97	379.17
385.17	433.00
385.36	346.40
385.56	355.76
385.75	367.46
385.95	351.08
386.14	454.06
386.34	367.46
386.53	348.74
386.72	374.49
386.92	409.59
387.11	489.17
387.31	461.09
387.50	421.30
387.70	463.43
387.89	423.64
388.09	465.77
388.28	456.40
388.48	463.43
388.67	442.36
388.86	461.09
389.06	374.49
389.25	454.06
389.45	545.34
389.64	500.87
389.84	477.47
390.03	528.96
390.22	379.17
390.42	507.90
390.61	395.55
390.81	582.79
391.00	557.05
391.19	477.47
391.39	521.94
391.58	582.79
391.78	449.38
391.97	397.89
392.16	503.22
392.36	554.71
392.55	585.13
392.75	533.64
392.94	479.81
393.13	554.71
393.33	526.62
393.52	559.39
393.71	624.92
393.91	505.56
394.10	573.43
394.29	617.90
394.49	601.52
394.68	552.37
394.88	531.30
395.07	709.18
395.26	552.37
395.46	638.97
395.65	514.92
395.84	552.37
396.04	681.10
396.23	610.88
396.42	671.73
396.62	636.63
396.81	678.76
397.00	676.41
397.19	676.41
397.39	653.01
397.58	641.31
397.77	624.92
397.97	709.18
398.16	660.03
398.35	641.31
398.55	685.78
398.74	746.63
398.93	828.55
399.12	723.23
399.32	734.93
399.51	695.14
399.70	847.27
399.90	706.84
400.09	755.99
400.28	706.84
400.47	802.80
400.67	802.80
400.86	805.14
401.05	814.51
401.24	837.91
401.44	725.57
401.63	798.12
401.82	758.33
402.01	709.18
402.21	795.78
402.40	779.40
402.59	793.44
402.78	905.79
402.97	877.70
403.17	894.08
403.36	833.23
403.55	870.68
403.74	851.96
403.93	863.66
404.13	889.40
404.32	870.68
404.51	936.21
404.70	908.13
404.89	880.04
405.09	954.94
405.28	943.24
405.47	889.40
405.66	959.62
405.85	1008.77
406.05	968.98
406.24	943.24
406.43	976.00
406.62	1043.88
406.81	983.02
407.00	1001.75
407.20	882.38
407.39	980.68
407.58	1008.77
407.77	1011.11
407.96	1006.43
408.15	1107.07
408.34	1008.77
408.54	1135.16
408.73	1135.16
408.92	1078.99
409.11	1088.35
409.30	1156.22
409.49	1093.03
409.68	1144.52
409.87	1074.31
410.07	1191.33
410.26	1135.16
410.45	1114.10
410.64	1130.48
410.83	1191.33
411.02	1137.50
411.21	1231.12
411.40	1261.55
411.59	1226.44
411.78	1324.74
411.98	1219.42
412.17	1306.02
412.36	1191.33
412.55	1294.32
412.74	1380.92
412.93	1376.24
413.12	1390.28
413.31	1322.40
413.50	1275.59
413.69	1362.19
413.88	1392.62
414.07	1350.49
414.26	1432.41
414.45	1373.89
414.64	1481.56
414.83	1483.90
415.02	1418.36
415.22	1500.28
415.41	1526.03
415.60	1474.54
415.79	1568.16
415.98	1577.52
416.17	1652.42
416.36	1607.95
416.55	1638.38
416.74	1584.54
416.93	1682.85
417.12	1664.12
417.31	1771.79
417.50	1619.65
417.69	1699.23
417.88	1734.34
418.07	1703.91
418.26	1713.27
418.45	1748.38
418.64	1860.73
418.83	1769.44
419.02	1788.17
419.21	1813.92
419.39	1832.64
419.58	1771.79
419.77	1816.26
419.96	1799.87
420.15	1783.49
420.34	1888.81
420.53	1827.96
420.72	1902.86
420.91	1937.96
421.10	1914.56
421.29	1893.49
421.48	1895.83
421.67	1963.71
421.86	1977.75
422.05	1902.86
422.24	1849.02
422.43	1968.39
422.61	1956.69
422.80	2022.22
422.99	1949.67
423.18	2008.18
423.37	1984.77
423.56	1991.80
423.75	1944.99
423.94	1984.77
424.13	1797.53
424.32	1940.30
424.50	2038.61
424.69	2148.61
424.88	2083.08
425.07	1970.73
425.26	1933.28
425.45	1977.75
425.64	1977.75
425.83	2078.40
426.01	2106.48
426.20	1977.75
426.39	2057.33
426.58	1954.35
426.77	2033.93
426.96	2099.46
427.15	2111.16
427.33	2073.71
427.52	2097.12
427.71	2150.95
427.90	2113.50
428.09	2113.50
428.28	2118.18
428.46	2092.44
428.65	2169.68
428.84	2244.57
429.03	2303.09
429.22	2092.44
429.40	2319.47
429.59	2146.27
429.78	2064.35
429.97	2136.91
430.16	2275.00
430.34	2249.25
430.53	2375.64
430.72	2305.43
430.91	2324.15
431.10	2279.68
431.28	2380.32
431.47	2436.50
431.66	2490.33
431.85	2445.86
432.03	2377.98
432.22	2413.09
432.41	2354.58
432.60	2424.80
432.79	2452.88
432.97	2392.03
433.16	2466.92
433.35	2431.82
433.54	2497.35
433.72	2478.63
433.91	2502.03
434.10	2583.95
434.28	2455.22
434.47	2555.86
434.66	2487.99
434.85	2588.63
435.03	2644.81
435.22	2614.38
435.41	2696.30
435.59	2677.57
435.78	2672.89
435.97	2565.23
436.16	2583.95
436.34	2647.15
436.53	2743.11
436.72	2708.00
436.90	2560.55
437.09	2689.28
437.28	2574.59
437.46	2780.56
437.65	2647.15
437.84	2719.70
438.02	2743.11
438.21	2626.08
438.40	2764.17
438.58	2888.22
438.77	2839.07
438.96	2843.75
439.14	2841.41
439.33	2909.29
439.52	2881.20
439.70	2871.84
439.89	3021.63
440.08	3038.02
440.26	3002.91
440.45	3028.65
440.63	3101.21
440.82	3150.36
441.01	3019.29
441.19	3098.87
441.38	3061.42
441.57	3133.98
441.75	3178.45
441.94	3211.22
442.12	3255.69
442.31	3328.24
442.50	3276.75
442.68	3356.33
442.87	3152.70
443.05	3279.09
443.24	3339.94
443.43	3361.01
443.61	3258.03
443.80	3522.51
443.98	3222.92
444.17	3274.41
444.35	3435.91
444.54	3403.14
444.73	3398.46
444.91	3351.65
445.10	3339.94
445.28	3407.82
445.47	3297.81
445.65	3421.86
445.84	3452.29
446.02	3592.72
446.21	3463.99
446.39	3534.21
446.58	3548.25
446.77	3552.93
446.95	3410.16
447.14	3480.38
447.32	3389.10
447.51	3447.61
447.69	3463.99
447.88	3487.40
448.06	3583.36
448.25	3515.48
448.43	3480.38
448.62	3480.38
448.80	3609.11
448.99	3531.87
449.17	3641.87
449.36	3496.76
449.54	3557.61
449.73	3688.68
449.91	3660.60
450.10	3623.15
450.28	3791.67
450.46	3728.47
450.65	3712.09
450.83	3819.75
451.02	3737.84
451.20	3904.01
451.39	3808.05
451.57	3655.92
451.76	3777.62
451.94	3824.44
452.13	3815.07
452.31	3700.39
452.49	3861.88
452.68	3847.84
452.86	3904.01
453.05	3815.07
453.23	3857.20
453.42	3824.44
453.60	3918.06
453.78	3908.69
453.97	3831.46
454.15	3873.59
454.34	3925.08
454.52	3976.57
454.70	3908.69
454.89	3822.09
455.07	3990.61
455.26	3983.59
455.44	3997.64
455.62	3904.01
455.81	4072.53
455.99	4067.85
456.17	4166.15
456.36	4079.55
456.54	4248.07
456.73	4273.82
456.91	4222.33
457.09	4168.49
457.28	4292.54
457.46	4292.54
457.64	4306.59
457.83	4234.03
458.01	4170.83
458.19	4084.23
458.38	4273.82
458.56	4269.14
458.74	4231.69
458.93	4369.78
459.11	4416.59
459.29	4402.55
459.48	4376.80
459.66	4259.78
459.84	4496.17
460.03	4664.69
460.21	4318.29
460.39	4486.81
460.57	4440.00
460.76	4599.15
460.94	4610.86
461.12	4596.81
461.31	4533.62
461.49	4418.93
461.67	4552.34
461.85	4643.62
462.04	4610.86
462.22	4713.84
462.40	4800.44
462.59	4795.76
462.77	4833.21
462.95	4816.82
463.13	4889.38
463.32	4730.22
463.50	4917.47
463.68	4917.47
463.86	4788.74
464.05	4833.21
464.23	4723.20
464.41	4870.65
464.59	4908.10
464.78	4926.83
464.96	4950.23
465.14	4767.67
465.32	4936.19
465.50	5018.11
465.69	5102.37
465.87	4915.12
466.05	4959.60
466.23	5015.77
466.41	5048.54
466.60	5102.37
466.78	4748.95
466.96	5067.26
467.14	4880.02
467.32	4997.04
467.51	5139.82
467.69	4844.91
467.87	5114.07
468.05	5195.99
468.23	5015.77
468.41	5074.28
468.60	4980.66
468.78	5203.01
468.96	5167.90
469.14	5177.26
469.32	5219.39
469.50	5135.14
469.69	5273.23
469.87	5345.78
470.05	5341.10
470.23	5324.72
470.41	5355.15
470.59	5432.38
470.77	5460.47
470.95	5334.08
471.14	5558.77
471.32	5387.91
471.50	5612.60
471.68	5636.01
471.86	5540.05
472.04	5408.98
472.22	5612.60
472.40	5444.09
472.58	5654.73
472.77	5523.66
472.95	5708.57
473.13	6031.56
473.31	5874.74
473.49	5816.23
473.67	5902.83
473.85	5893.47
474.03	5954.32
474.21	5944.96
474.39	5895.81
474.57	6012.84
474.75	6097.10
474.93	6134.54
475.12	6235.19
475.30	6181.35
475.48	5996.45
475.66	6113.48
475.84	6230.51
476.02	6375.62
476.20	6282.00
476.38	6382.64
476.56	6438.81
476.74	6399.02
476.92	6420.09
477.10	6511.37
477.28	6626.06
477.46	6532.44
477.64	6579.25
477.82	6686.91
478.00	6764.15
478.18	6780.53
478.36	6698.61
478.54	7178.42
478.72	6942.03
478.90	7218.21
479.08	7316.51
479.26	7363.33
479.44	7110.55
479.62	7318.86
479.80	7536.52
479.98	7377.37
480.16	7510.78
480.34	7485.03
480.52	7566.95
480.70	7641.85
480.88	7375.03
481.06	7611.42
481.24	7763.56
481.41	7662.91
481.59	7833.77
481.77	7625.47
481.95	7995.27
482.13	7925.05
482.31	8070.17
482.49	8248.05
482.67	8142.72
482.85	8400.18
483.03	8336.99
483.21	8521.89
483.39	8407.20
483.57	8634.24
483.74	8819.14
483.92	8580.40
484.10	8669.34
484.28	8922.12
484.46	9050.85
484.64	9057.87
484.82	9029.79
485.00	9123.41
485.18	9210.01
485.35	9378.53
485.53	9312.99
485.71	9268.52
485.89	9535.34
486.07	9465.13
486.25	9413.63
486.43	9584.49
486.61	9661.73
486.78	9870.04
486.96	9748.33
487.14	10001.11
487.32	9898.13
487.50	9799.82
487.68	10169.63
487.85	10256.23
488.03	10434.11
488.21	10333.47
488.39	10441.13
488.57	10719.65
488.75	10628.37
488.92	10813.28
489.10	11066.05
489.28	10878.81
489.46	10651.78
489.64	11030.94
489.81	11171.38
489.99	11323.51
490.17	11265.00
490.35	11508.41
490.53	11454.58
490.70	11524.80
490.88	11578.63
491.06	11564.59
491.24	11536.50
491.41	11623.10
491.59	11850.13
491.77	11770.55
491.95	12285.47
492.13	12170.79
492.30	12119.29
492.48	12259.73
492.66	12135.68
492.84	12299.52
493.01	12423.56
493.19	12201.21
493.37	12559.31
493.54	12659.96
493.72	12751.24
493.90	12807.41
494.08	12903.37
494.25	13092.96
494.43	12931.46
494.61	13296.58
494.79	13109.34
494.96	13057.85
495.14	13310.63
495.32	13429.99
495.49	13341.05
495.67	13511.91
495.85	13804.48
496.02	13771.71
496.20	13703.84
496.38	13715.54
496.55	13891.08
496.73	14047.90
496.91	13792.78
497.09	14225.78
497.26	14469.19
497.44	14143.86
497.62	14265.57
497.79	14576.86
497.97	14548.77
498.14	14775.80
498.32	14476.21
498.50	14644.73
498.67	14731.33
498.85	14422.38
499.03	14822.61
499.20	15068.37
499.38	15103.48
499.56	14988.79
499.73	15136.24
499.91	15087.09
500.08	15241.57
500.26	15105.82
500.44	15358.60
500.61	15496.69
500.79	15424.13
500.97	15700.31
501.14	15676.91
501.32	15997.56
501.49	15770.53
501.67	15840.75
501.84	15679.25
502.02	15653.50
502.20	15992.88
502.37	16177.78
502.55	15941.39
502.72	16095.86
502.90	16126.29
503.07	16126.29
503.25	16086.50
503.43	16145.02
503.60	16346.30
503.78	16545.25
503.95	16238.64
504.13	16365.03
504.30	16393.11
504.48	16210.55
504.65	16580.36
504.83	16556.95
505.01	16847.18
505.18	16854.20
505.36	17036.76
505.53	16734.83
505.71	16987.61
505.88	17032.08
506.06	16737.17
506.23	17242.73
506.41	17238.05
506.58	17338.69
506.76	17205.28
506.93	17359.75
507.11	17256.77
507.28	17186.55
507.46	17345.71
507.63	17628.92
507.81	17930.84
507.98	17561.04
508.16	17280.18
508.33	17673.39
508.50	17715.51
508.68	17453.37
508.85	17844.24
509.03	17703.81
509.20	17994.04
509.38	18082.98
509.55	18317.03
509.73	18377.89
509.90	18148.51
510.08	18216.39
510.25	18045.53
510.42	18464.49
510.60	18534.70
510.77	18445.76
510.95	18553.43
511.12	18621.30
511.30	18398.95
511.47	18813.23
511.64	18822.59
511.82	18960.68
511.99	18527.68
512.17	18939.62
512.34	18853.02
512.51	18902.17
512.69	19040.26
512.86	18979.40
513.04	19016.85
513.21	19204.10
513.38	19421.77
513.56	19592.62
513.73	19208.78
513.90	19019.19
514.08	19143.24
514.25	19351.55
514.43	19777.53
514.60	19494.32
514.77	19779.87
514.95	19864.13
515.12	19609.01
515.29	19634.75
515.47	19847.74
515.64	19992.86
515.81	19749.44
515.99	20077.12
516.16	20173.08
516.33	20240.95
516.51	20140.31
516.68	20067.75
516.85	20226.91
517.03	20695.02
517.20	20170.74
517.37	20840.13
517.54	20484.37
517.72	20339.26
517.89	20716.08
518.06	20526.50
518.24	20397.77
518.41	20304.15
518.58	20734.81
518.75	20596.71
518.93	20893.96
519.10	20933.75
519.27	20697.36
519.45	20882.26
519.62	20833.11
519.79	20854.17
519.96	21097.59
520.14	21128.02
520.31	21219.30
520.48	20903.32
520.65	21034.39
520.83	21060.14
521.00	21319.94
521.17	20826.09
521.34	21053.12
521.52	21558.67
521.69	21439.31
521.86	21422.92
522.03	21565.70
522.20	21668.68
522.38	21291.85
522.55	21518.89
522.72	21645.27
522.89	21771.66
523.07	22127.42
523.24	21926.14
523.41	22246.79
523.58	21656.98
523.75	22104.02
523.92	21642.93
524.10	21907.41
524.27	22001.04
524.44	22015.08
524.61	22448.08
524.78	22307.65
524.96	22260.84
525.13	22237.43
525.30	22309.99
525.47	22462.12
525.64	22616.60
525.81	22565.10
525.98	22583.83
526.16	22789.80
526.33	22352.12
526.50	22562.76
526.67	22309.99
526.84	22644.68
527.01	22785.12
527.18	22789.80
527.36	22944.27
527.53	22848.31
527.70	23058.96
527.87	23440.47
528.04	23482.59
528.21	23213.43
528.38	22991.08
528.55	23065.98
528.72	22970.02
528.89	23473.23
529.07	23316.42
529.24	23311.74
529.41	23307.05
529.58	23419.40
529.75	23288.33
529.92	23293.01
530.09	23222.80
530.26	23424.08
530.43	23594.94
530.60	23250.88
530.77	23597.28
530.94	23730.69
531.11	23655.79
531.28	23761.12
531.46	23564.51
531.63	23538.77
531.80	23967.09
531.97	23843.04
532.14	24252.63
532.31	23887.51
532.48	24116.88
532.65	24226.89
532.82	23812.61
532.99	23791.55
533.16	24027.94
533.33	24086.45
533.50	24395.40
533.67	23990.49
533.84	24304.12
534.01	24369.66
534.18	24472.64
534.35	24568.60
534.52	24184.76
534.69	24091.13
534.86	24781.59
535.03	24098.16
535.20	24425.83
535.37	24552.22
535.54	24519.45
535.71	24430.51
535.88	24746.48
536.05	24592.01
536.22	24538.18
536.38	25139.69
536.55	24765.21
536.72	24826.06
536.89	24840.11
537.06	24788.61
537.23	24599.03
537.40	25039.05
537.57	24709.04
537.74	25036.71
537.91	25149.06
538.08	25174.80
538.25	24797.98
538.42	25160.76
538.59	25294.17
538.75	24936.07
538.92	25214.59
539.09	25163.10
539.26	25078.84
539.43	25270.76
539.60	25282.47
539.77	25207.57
539.94	25535.24
540.11	24945.43
540.28	25434.60
540.44	25198.21
540.61	25638.23
540.78	25373.75
540.95	25731.85
541.12	25259.06
541.29	25252.04
541.46	25474.39
541.62	25488.43
541.79	25406.52
541.96	25319.92
542.13	25434.60
542.30	25680.36
542.47	25598.44
542.63	25752.91
542.80	26209.32
542.97	26148.46
543.14	26169.53
543.31	26508.91
543.48	26211.66
543.64	26066.55
543.81	26272.51
543.98	26115.70
544.15	26335.71
544.32	26108.68
544.48	26429.33
544.65	26555.72
544.82	26188.25
544.99	26490.18
545.16	26136.76
545.32	26441.03
545.49	26548.70
545.66	26916.16
545.83	26745.30
546.00	26749.98
546.16	26728.92
546.33	26305.28
546.50	26218.68
546.67	26747.64
546.83	26473.80
547.00	26562.74
547.17	26300.60
547.34	26829.56
547.50	26792.11
547.67	26899.78
547.84	26820.20
548.00	26735.94
548.17	26820.20
548.34	26829.56
548.51	27112.77
548.67	26890.41
548.84	27063.61
549.01	26834.24
549.18	26817.86
549.34	26831.90
549.51	27342.14
549.68	26862.33
549.84	27047.23
550.01	27190.00
550.18	27133.83
550.34	27236.81
550.51	27531.72
550.68	27461.51
550.84	27379.59
551.01	27281.28
551.18	27262.56
551.34	27344.48
551.51	26930.20
551.68	27314.05
551.84	27426.40
552.01	27302.35
552.18	27463.85
552.34	27587.89
552.51	27344.48
552.68	27482.57
552.84	27627.68
553.01	27924.93
553.18	27754.07
553.34	27903.87
553.51	27473.21
553.67	27686.20
553.84	27831.31
554.01	27962.38
554.17	27744.71
554.34	27541.08
554.51	27679.18
554.67	27725.99
554.84	27889.82
555.00	27978.76
555.17	27920.25
555.33	27810.25
555.50	27857.06
555.67	27953.02
555.83	27468.53
556.00	27679.18
556.16	28219.84
556.33	27817.27
556.50	28168.35
556.66	28142.60
556.83	27826.63
556.99	28432.83
557.16	28107.49
557.32	28144.94
557.49	28360.27
557.65	28009.19
557.82	27850.03
557.98	28065.36
558.15	27985.79
558.32	28479.64
558.48	28531.13
558.65	28350.91
558.81	28245.58
558.98	28294.74
559.14	28442.19
559.31	28350.91
559.47	28086.43
559.64	28360.27
559.80	28233.88
559.97	28240.90
560.13	28245.58
560.30	28706.67
560.46	28545.17
560.63	28325.16
560.79	28491.34
560.96	28762.84
561.12	28577.94
561.29	28664.54
561.45	28844.76
561.61	28788.59
561.78	28222.18
561.94	28467.94
562.11	28610.71
562.27	28662.20
562.44	28659.86
562.60	28760.50
562.77	28591.98
562.93	28311.12
563.10	28898.59
563.26	28606.03
563.42	28851.78
563.59	28711.35
563.75	28498.36
563.92	29219.25
564.08	28830.72
564.24	28620.07
564.41	28500.70
564.57	28711.35
564.74	28840.08
564.90	29289.46
565.07	29212.23
565.23	29043.71
565.39	28957.11
565.56	29043.71
565.72	28713.69
565.88	28772.21
566.05	29090.52
566.21	28957.11
566.38	28638.80
566.54	28952.43
566.70	29741.19
566.87	29340.96
567.03	29149.03
567.19	29113.92
567.36	29132.65
567.52	28945.41
567.68	29413.51
567.85	28685.61
568.01	29256.70
568.17	28926.68
568.34	29069.45
568.50	29008.60
568.66	29036.69
568.83	29287.12
568.99	29343.30
569.15	29097.54
569.32	29453.30
569.48	28842.42
569.64	29125.63
569.81	29179.46
569.97	29235.63
570.13	29319.89
570.30	29085.84
570.46	29418.19
570.62	29228.61
570.78	29043.71
570.95	29020.30
571.11	28875.19
571.27	29071.79
571.43	28816.68
571.60	29046.05
571.76	29132.65
571.92	29174.78
572.09	28931.36
572.25	29284.78
572.41	29654.59
572.57	29446.28
572.74	29287.12
572.90	29020.30
573.06	29151.37
573.22	29134.99
573.38	29235.63
573.55	29085.84
573.71	29958.86
573.87	29429.90
574.03	29312.87
574.20	29352.66
574.36	29088.18
574.52	29181.80
574.68	29436.92
574.84	29181.80
575.01	29460.32
575.17	29532.88
575.33	29083.50
575.49	29399.47
575.65	29509.47
575.82	29694.38
575.98	29310.53
576.14	29303.51
576.30	29535.22
576.46	29570.33
576.62	29350.32
576.79	29563.31
576.95	29200.52
577.11	29694.38
577.27	29383.09
577.43	29497.77
577.59	29766.93
577.75	29654.59
577.92	29453.30
578.08	29429.90
578.24	29090.52
578.40	29642.88
578.56	29673.31
578.72	29352.66
578.88	29895.66
579.04	29670.97
579.21	29336.27
579.37	29427.56
579.53	29502.45
579.69	29228.61
579.85	29406.49
580.01	29647.57
580.17	29514.16
580.33	29631.18
580.49	29804.38
580.65	29462.66
580.82	29790.34
580.98	29675.65
581.14	29797.36
581.30	29605.44
581.46	29294.14
581.62	29347.98
581.78	29172.44
581.94	29673.31
582.10	29392.45
582.26	29523.52
582.42	29771.61
582.58	29645.23
582.74	29064.77
582.90	29785.66
583.06	29825.45
583.22	29748.21
583.38	29408.83
583.54	29469.69
583.70	29542.24
583.86	29240.31
584.02	29584.37
584.18	29825.45
584.34	29823.11
584.50	29881.62
584.66	29914.39
584.82	29694.38
584.98	29546.92
585.14	29804.38
585.30	29174.78
585.46	29474.37
585.62	29759.91
585.78	29647.57
585.94	29591.39
586.10	29694.38
586.26	29481.39
586.42	29961.20
586.58	29811.40
586.74	29855.87
586.90	29472.03
587.06	29771.61
587.22	29879.28
587.38	29514.16
587.54	29785.66
587.70	29661.61
587.86	29743.53
588.02	30237.38
588.18	29991.62
588.34	29755.23
588.49	29769.27
588.65	29453.30
588.81	29586.71
588.97	29998.65
589.13	29708.42
589.29	29792.68
589.45	29764.59
589.61	29628.84
589.77	29991.62
589.93	29811.40
590.08	30153.12
590.24	30089.93
590.40	30380.15
590.56	29820.77
590.72	29757.57
590.88	29303.51
591.04	30052.48
591.20	30307.60
591.35	30293.55
591.51	30349.73
591.67	30504.20
591.83	30260.79
591.99	29975.24
592.15	30188.23
592.31	30057.16
592.46	29790.34
592.62	29958.86
592.78	29766.93
592.94	30291.21
593.10	30258.45
593.26	29813.74
593.41	30162.48
593.57	30309.94
593.73	29998.65
593.89	30349.73
594.05	30223.34
594.20	29804.38
594.36	30213.98
594.52	29865.24
594.68	29982.26
594.84	29993.97
594.99	30340.36
595.15	30157.80
595.31	30450.37
595.47	29830.13
595.62	30199.93
595.78	30094.61
595.94	30195.25
596.10	30075.88
596.25	30073.54
596.41	29549.26
596.57	29914.39
596.73	30120.35
596.88	29727.14
597.04	30331.00
597.20	30623.57
597.36	30382.49
597.51	30560.37
597.67	29965.88
597.83	30202.27
597.99	30471.43
598.14	30059.50
598.30	30246.74
598.46	30094.61
598.61	30267.81
598.77	30082.91
598.93	30300.58
599.09	30576.76
599.24	30459.73
599.40	30384.83
599.56	30834.22
599.71	30085.25
599.87	30417.60
600.03	30410.58
600.18	29986.94
600.34	30120.35
600.50	30228.02
600.65	30064.18
600.81	30148.44
600.97	30476.12
601.12	30593.14
601.28	30855.28
601.44	30487.82
601.59	30359.09
601.75	30300.58
601.91	30192.91
602.06	29876.94
602.22	30040.78
602.37	29926.09
602.53	30394.20
602.69	30391.86
602.84	30108.65
603.00	30307.60
603.16	30384.83
603.31	30583.78
603.47	30494.84
603.62	30375.47
603.78	30017.37
603.94	30300.58
604.09	30251.42
604.25	30150.78
604.40	30125.04
604.56	30125.04
604.71	30551.01
604.87	30548.67
605.03	30504.20
605.18	30691.44
605.34	30136.74
605.49	30532.29
605.65	30036.09
605.80	29783.32
605.96	30368.45
606.12	29839.49
606.27	30331.00
606.43	29984.60
606.58	30328.66
606.74	30134.40
606.89	30279.51
607.05	30087.59
607.20	30431.65
607.36	30494.84
607.51	30307.60
607.67	29853.53
607.82	29680.33
607.98	30005.67
608.13	29905.02
608.29	30190.57
608.44	30106.31
608.60	30120.35
608.75	30099.29
608.91	30101.63
609.06	29914.39
609.22	30003.33
609.37	29923.75
609.53	29790.34
609.68	30162.48
609.84	29750.55
609.99	30272.49
610.15	29905.02
610.30	30087.59
610.46	29881.62
610.61	29954.18
610.76	29951.84
610.92	30120.35
611.07	30183.55
611.23	30216.32
611.38	29909.71
611.54	29745.87
611.69	29338.62
611.84	29621.82
612.00	29921.41
612.15	30136.74
612.31	30024.39
612.46	29383.09
612.62	30136.74
612.77	29872.26
612.92	30017.37
613.08	29673.31
613.23	29680.33
613.39	29521.18
613.54	29455.64
613.69	29773.95
613.85	29516.50
614.00	29677.99
614.15	29577.35
614.31	29422.87
614.46	29673.31
614.62	29586.71
614.77	30015.03
614.92	29294.14
615.08	29677.99
615.23	29415.85
615.38	29809.06
615.54	29280.10
615.69	29237.97
615.84	29450.96
616.00	29317.55
616.15	29553.94
616.30	29773.95
616.46	29780.98
616.61	29600.76
616.76	30017.37
616.92	29516.50
617.07	29488.41
617.22	29259.04
617.37	29095.20
617.53	29226.27
617.68	29408.83
617.83	29254.36
617.99	29132.65
618.14	29230.95
618.29	29081.16
618.45	29338.62
618.60	29572.67
618.75	29085.84
618.90	29333.93
619.06	29268.40
619.21	29385.43
619.36	29085.84
619.51	29261.38
619.67	29099.88
619.82	28734.76
619.97	28987.53
620.12	28704.33
620.28	28737.10
620.43	29717.78
620.58	29149.03
620.73	29319.89
620.89	29322.23
621.04	29170.10
621.19	28840.08
621.34	28893.91
621.49	29160.73
621.65	28692.63
621.80	29198.18
621.95	29186.48
622.10	28797.95
622.25	28577.94
622.41	28966.47
622.56	28840.08
622.71	29170.10
622.86	28929.02
623.01	28521.77
623.16	28950.09
623.32	28474.96
623.47	28524.11
623.62	28662.20
623.77	28943.06
623.92	28912.64
624.07	28645.82
624.23	28636.45
624.38	28713.69
624.53	28416.44
624.68	28636.45
624.83	28914.98
624.98	28577.94
625.13	28591.98
625.29	28959.45
625.44	28425.81
625.59	28758.16
625.74	28587.30
625.89	28322.82
626.04	28362.61
626.19	27976.42
626.34	28287.71
626.49	28360.27
626.65	28187.07
626.80	28786.25
626.95	28381.34
627.10	28166.01
627.25	28599.01
627.40	28327.50
627.55	28467.94
627.70	27995.15
627.85	28058.34
628.00	28311.12
628.15	27967.06
628.30	28184.73
628.45	28133.24
628.60	28315.80
628.76	28425.81
628.91	28233.88
629.06	28388.36
629.21	28163.67
629.36	28060.68
629.51	27901.53
629.66	28102.81
629.81	27999.83
629.96	27910.89
630.11	27648.75
630.26	27833.65
630.41	27681.52
630.56	27833.65
630.71	27948.34
630.86	27667.47
631.01	28098.13
631.16	27674.49
631.31	27957.70
631.46	27831.31
631.61	27784.50
631.76	27538.74
631.91	28084.09
632.06	27723.65
632.21	27438.10
632.36	27758.75
632.51	27747.05
632.66	27426.40
632.81	27278.94
632.96	27550.45
633.10	27618.32
633.25	27524.70
633.40	28058.34
633.55	27651.09
633.70	27615.98
633.85	27229.79
634.00	27601.94
634.15	27157.24
634.30	27491.93
634.45	27510.66
634.60	27585.55
634.75	27522.36
634.90	27215.75
635.05	27550.45
635.19	27580.87
635.34	28027.92
635.49	27290.65
635.64	27300.01
635.79	27630.02
635.94	27094.04
636.09	27271.92
636.24	27126.81
636.39	27417.04
636.53	27601.94
636.68	27468.53
636.83	27180.64
636.98	27157.24
637.13	27431.08
637.28	27351.50
637.43	27487.25
637.57	27211.07
637.72	27040.21
637.87	26831.90
638.02	27552.79
638.17	27080.00
638.32	27075.32
638.46	26850.63
638.61	27000.42
638.76	27056.59
638.91	26773.39
639.06	26740.62
639.20	26967.65
639.35	27358.52
639.50	26941.91
639.65	26852.97
639.80	27070.64
639.94	27042.55
640.09	26684.45
640.24	26754.66
640.39	26698.49
640.54	26698.49
640.68	26822.54
640.83	27012.12
640.98	26738.28
641.13	26239.75
641.27	26621.25
641.42	26473.80
641.57	26747.64
641.72	26806.16
641.86	26204.64
642.01	26455.08
642.16	26295.92
642.31	26281.88
642.45	26764.03
642.60	26352.09
642.75	26377.84
642.90	26361.45
643.04	26354.43
643.19	26265.49
643.34	26455.08
643.48	26682.11
643.63	26391.88
643.78	26551.04
643.93	26457.42
644.07	26574.44
644.22	26328.69
644.37	26490.18
644.51	26520.61
644.66	26492.52
644.81	26359.11
644.95	26237.41
645.10	25848.88
645.25	26066.55
645.39	26047.82
645.54	25860.58
645.69	26319.32
645.83	26464.44
645.98	26043.14
646.13	26258.47
646.27	26272.51
646.42	26300.60
646.57	26089.95
646.71	26157.83
646.86	25895.69
647.00	25799.73
647.15	25958.88
647.30	25668.66
647.44	25919.09
647.59	25823.13
647.74	25752.91
647.88	26008.03
648.03	25804.41
648.17	26284.22
648.32	26134.42
648.47	26202.30
648.61	25961.22
648.76	26031.44
648.90	25869.94
649.05	25661.63
649.20	25930.80
649.34	25675.68
649.49	25656.95
649.63	25467.37
649.78	25584.40
649.92	25378.43
650.07	25682.70
650.21	25661.63
650.36	25535.24
650.51	25539.93
650.65	25951.86
650.80	25926.11
650.94	25441.62
651.09	25401.83
651.23	25453.33
651.38	25329.28
651.52	25177.14
651.67	25289.49
651.81	25605.46
651.96	25315.23
652.10	25500.14
652.25	25607.80
652.39	25589.08
652.54	25862.92
652.68	25528.22
652.83	25706.10
652.97	25689.72
653.12	25532.90
653.26	25495.46
653.41	25240.34
653.55	25333.96
653.70	24980.54
653.84	25317.57
653.99	25165.44
654.13	24938.41
654.27	25294.17
654.42	25338.64
654.56	25399.49
654.71	25549.29
654.85	25275.45
655.00	25130.33
655.14	25277.79
655.29	25097.56
655.43	25289.49
655.57	25146.72
655.72	25170.12
655.86	24973.52
656.01	24954.79
656.15	24889.26
656.30	24992.24
656.44	24594.35
656.58	24762.87
656.73	24840.11
656.87	25139.69
657.01	24713.72
657.16	25088.20
657.30	24992.24
657.45	25076.50
657.59	24929.05
657.73	24926.71
657.88	25151.40
658.02	24496.05
658.16	24769.89
658.31	24575.62
658.45	24592.01
658.60	24362.64
658.74	24725.42
658.88	24418.81
659.03	24744.14
659.17	24802.66
659.31	24404.77
659.46	24854.15
659.60	24973.52
659.74	24496.05
659.89	24482.00
660.03	24549.88
660.17	24177.73
660.32	24159.01
660.46	24283.06
660.60	24105.18
660.74	24507.75
660.89	24556.90
661.03	23845.38
661.17	24156.67
661.32	24250.29
661.46	24306.46
661.60	24034.96
661.74	24123.90
661.89	23803.25
662.03	24156.67
662.17	24140.29
662.31	23620.69
662.46	24287.74
662.60	24070.07
662.74	23922.62
662.88	23924.96
663.03	23702.61
663.17	23714.31
663.31	23454.51
663.45	23442.81
663.60	23889.85
663.74	23480.25
663.88	23522.38
664.02	23770.48
664.17	23580.90
664.31	23857.08
664.45	23803.25
664.59	23557.49
664.73	23562.17
664.88	23503.66
665.02	23131.51
665.16	23459.19
665.30	23349.18
665.44	23194.71
665.59	22913.84
665.73	22817.88
665.87	23103.43
666.01	23070.66
666.15	23288.33
666.29	23318.76
666.44	23145.56
666.58	22951.29
666.72	22902.14
666.86	22742.99
667.00	22714.90
667.14	22616.60
667.28	22759.37
667.43	22738.30
667.57	22515.95
667.71	22431.69
667.85	22843.63
667.99	22836.61
668.13	22647.02
668.27	22438.72
668.41	22665.75
668.56	22632.98
668.70	22909.16
668.84	22640.00
668.98	22522.98
669.12	22354.46
669.26	22249.13
669.40	22810.86
669.54	22174.24
669.68	22377.86
669.82	22410.63
669.96	22188.28
670.10	21928.48
670.25	21984.65
670.39	21935.50
670.53	22546.38
670.67	22127.42
670.81	22122.74
670.95	22349.78
671.09	21717.83
671.23	21834.86
671.37	22157.85
671.51	22003.38
671.65	22155.51
671.79	21549.31
671.93	21476.76
672.07	21673.36
672.21	21776.34
672.35	21553.99
672.49	21331.64
672.63	21692.08
672.77	21441.65
672.91	21579.74
673.05	21507.18
673.19	21589.10
673.33	21120.99
673.47	21448.67
673.61	21001.63
673.75	21455.69
673.89	21202.91
674.03	21214.62
674.17	20982.90
674.31	21130.36
674.45	21156.10
674.59	20919.71
674.73	21315.26
674.87	20790.98
675.01	20732.47
675.15	20889.28
675.29	20655.23
675.43	21057.80
675.56	20727.78
675.70	20734.81
675.84	20727.78
675.98	19822.00
676.12	20896.30
676.26	20748.85
676.40	20678.63
676.54	20400.11
676.68	20383.73
676.82	19953.07
676.96	20184.78
677.10	20046.69
677.23	20011.58
677.37	19934.34
677.51	20006.90
677.65	19950.73
677.79	19356.23
677.93	19623.05
678.07	19681.56
678.21	19433.47
678.34	19438.15
678.48	19522.41
678.62	19494.32
678.76	19122.18
678.90	19119.84
679.04	19396.02
679.18	19403.04
679.31	19098.77
679.45	18906.85
679.59	18904.51
679.73	19103.45
679.87	18860.04
680.00	18766.42
680.14	19026.21
680.28	18937.27
680.42	18771.10
680.56	18808.54
680.70	18616.62
680.83	18553.43
680.97	18579.17
681.11	18775.78
681.25	18305.33
681.39	18600.24
681.52	18597.90
681.66	18515.98
681.80	18155.54
681.94	18523.00
682.07	18211.71
682.21	18111.07
682.35	17998.72
682.49	18171.92
682.62	17919.14
682.76	17401.88
682.90	17657.00
683.04	17790.41
683.17	17752.96
683.31	17851.27
683.45	17923.82
683.59	17642.96
683.72	17341.03
683.86	17511.89
684.00	17530.61
684.13	17509.55
684.27	17252.09
684.41	17387.84
684.55	17015.69
684.68	17165.49
684.82	17046.12
684.96	17085.91
685.09	17193.58
685.23	16753.55
685.37	17076.55
685.50	16912.71
685.64	16786.32
685.78	16636.53
685.91	16781.64
686.05	16828.45
686.19	16842.50
686.32	16762.92
686.46	16592.06
686.60	16058.42
686.73	16460.99
686.87	16327.58
687.01	16343.96
687.14	16121.61
687.28	16020.97
687.42	15946.07
687.55	15960.11
687.69	15791.59
687.82	15908.62
687.96	16173.10
688.10	15878.19
688.23	16058.42
688.37	15784.57
688.50	15836.06
688.64	15461.58
688.78	15482.64
688.91	15440.51
689.05	15515.41
689.18	15449.88
689.32	15194.76
689.46	15222.84
689.59	15445.20
689.73	15037.94
689.86	14923.26
690.00	14867.08
690.13	15147.95
690.27	14743.03
690.41	14794.53
690.54	15042.62
690.68	14705.59
690.81	14977.09
690.95	14977.09
691.08	14895.17
691.22	14850.70
691.35	14537.07
691.49	14813.25
691.62	14806.23
691.76	14616.65
691.89	14478.55
692.03	14270.25
692.16	14174.28
692.30	14033.85
692.43	14396.64
692.57	14230.46
692.70	13860.65
692.84	13919.17
692.97	14108.75
693.11	13846.61
693.24	13947.25
693.38	13961.30
693.51	13542.34
693.65	13905.12
693.78	13806.82
693.92	13870.01
694.05	13617.24
694.19	13748.31
694.32	13551.70
694.45	13509.57
694.59	13256.79
694.72	13275.52
694.86	13228.71
694.99	12999.34
695.13	13202.96
695.26	13074.23
695.39	13050.83
695.53	13062.53
695.66	12987.63
695.80	12891.67
695.93	12879.97
696.07	13011.04
696.20	12711.45
696.33	12795.71
696.47	12809.75
696.60	12592.08
696.73	12713.79
696.87	12503.14
697.00	12566.34
697.14	12212.92
697.27	12259.73
697.40	12170.79
697.54	12196.53
697.67	11978.86
697.80	12035.03
697.94	12072.48
698.07	11974.18
698.21	11852.47
698.34	11831.41
698.47	11957.80
698.61	11880.56
698.74	12037.38
698.87	11871.20
699.01	11829.07
699.14	11644.17
699.27	11679.27
699.40	11662.89
699.54	11489.69
699.67	11466.28
699.80	11510.75
699.94	11389.05
700.07	11541.18
700.20	11180.74
700.34	11112.86
700.47	11276.70
700.60	11157.33
700.73	11005.20
700.87	11019.24
701.00	11126.91
701.13	10925.62
701.26	10864.77
701.40	11073.07
701.53	10951.37
701.66	10913.92
701.79	10855.40
701.93	10785.19
702.06	10621.35
702.19	10537.09
702.32	10661.14
702.46	10441.13
702.59	10284.31
702.72	10380.28
702.85	10178.99
702.99	10384.96
703.12	10071.33
703.25	10150.90
703.38	10253.89
703.51	10218.78
703.65	10157.92
703.78	9987.07
703.91	10050.26
704.04	10010.47
704.17	10078.35
704.31	9926.21
704.44	9802.16
704.57	9837.27
704.70	9778.76
704.83	9624.28
704.96	9633.64
705.10	9570.45
705.23	9497.89
>>>>>End Processed Spectral Data<<<<<
