SpectraSuite Data File
++++++++++++++++++++++++++++++++++++
Date: Fri Oct 18 13:58:30 GMT-05:00 2013
User: bianchi
Dark Spectrum Present: No
Reference Spectrum Present: No
Number of Sampled Component Spectra: 1
Spectrometers: USB2+H05261
Integration Time (usec): 50000 (USB2+H05261)
Spectra Averaged: 1 (USB2+H05261)
Boxcar Smoothing: 0 (USB2+H05261)
Correct for Electrical Dark: No (USB2+H05261)
Strobe/Lamp Enabled: No (USB2+H05261)
Correct for Detector Non-linearity: No (USB2+H05261)
Correct for Stray Light: No (USB2+H05261)
Number of Pixels in Processed Spectrum: 2048
>>>>>Begin Processed Spectral Data<<<<<
365.73	0.00
365.92	0.00
366.12	0.00
366.32	0.00
366.52	0.00
366.72	0.00
366.91	0.00
367.11	0.00
367.31	0.00
367.51	0.00
367.70	0.00
367.90	0.00
368.10	0.00
368.30	0.00
368.49	0.00
368.69	0.00
368.89	0.00
369.09	0.00
369.28	0.00
369.48	0.00
369.68	0.00
369.87	0.00
370.07	0.00
370.27	0.00
370.47	0.00
370.66	105.32
370.86	121.71
371.06	86.60
371.25	145.11
371.45	163.84
371.65	121.71
371.84	182.56
372.04	124.05
372.24	88.94
372.44	189.58
372.63	191.92
372.83	138.09
373.03	191.92
373.22	175.54
373.42	156.82
373.62	189.58
373.81	290.23
374.01	250.44
374.21	280.86
374.40	201.29
374.60	266.82
374.79	243.42
374.99	182.56
375.19	243.42
375.38	227.03
375.58	198.95
375.78	252.78
375.97	266.82
376.17	287.89
376.37	243.42
376.56	271.50
376.76	259.80
376.95	315.97
377.15	297.25
377.35	271.50
377.54	229.37
377.74	276.18
377.93	224.69
378.13	252.78
378.33	245.76
378.52	339.38
378.72	222.35
378.91	299.59
379.11	248.10
379.31	271.50
379.50	271.50
379.70	308.95
379.89	264.48
380.09	351.08
380.28	280.86
380.48	259.80
380.68	322.99
380.87	262.14
381.07	355.76
381.26	276.18
381.46	276.18
381.65	355.76
381.85	285.55
382.04	210.65
382.24	339.38
382.43	376.83
382.63	362.78
382.83	299.59
383.02	374.49
383.22	344.06
383.41	301.93
383.61	306.61
383.80	332.36
384.00	311.29
384.19	353.42
384.39	353.42
384.58	358.10
384.78	362.78
384.97	395.55
385.17	351.08
385.36	341.72
385.56	327.68
385.75	313.63
385.95	337.04
386.14	383.85
386.34	381.51
386.53	397.89
386.72	365.12
386.92	407.25
387.11	411.93
387.31	421.30
387.50	465.77
387.70	341.72
387.89	465.77
388.09	433.00
388.28	433.00
388.48	416.62
388.67	472.79
388.86	425.98
389.06	465.77
389.25	416.62
389.45	355.76
389.64	437.68
389.84	369.80
390.03	489.17
390.22	510.24
390.42	475.13
390.61	493.85
390.81	465.77
391.00	482.15
391.19	486.83
391.39	538.32
391.58	477.47
391.78	514.92
391.97	510.24
392.16	533.64
392.36	512.58
392.55	517.26
392.75	477.47
392.94	484.49
393.13	587.47
393.33	596.84
393.52	498.53
393.71	517.26
393.91	580.45
394.10	575.77
394.29	617.90
394.49	510.24
394.68	587.47
394.88	606.20
395.07	594.50
395.26	545.34
395.46	599.18
395.65	564.07
395.84	519.60
396.04	704.50
396.23	571.09
396.42	575.77
396.62	629.60
396.81	613.22
397.00	650.67
397.19	657.69
397.39	657.69
397.58	653.01
397.77	662.37
397.97	725.57
398.16	559.39
398.35	730.25
398.55	566.41
398.74	636.63
398.93	596.84
399.12	631.94
399.32	638.97
399.51	634.29
399.70	739.61
399.90	753.65
400.09	751.31
400.28	772.38
400.47	732.59
400.67	751.31
400.86	763.01
401.05	748.97
401.24	767.70
401.44	835.57
401.63	763.01
401.82	713.86
402.01	779.40
402.21	713.86
402.40	849.61
402.59	779.40
402.78	805.14
402.97	730.25
403.17	765.36
403.36	816.85
403.55	929.19
403.74	847.27
403.93	795.78
404.13	938.55
404.32	889.40
404.51	870.68
404.70	884.72
404.89	800.46
405.09	915.15
405.28	903.45
405.47	896.43
405.66	966.64
405.85	929.19
406.05	973.66
406.24	987.71
406.43	990.05
406.62	933.87
406.81	1041.54
407.00	1008.77
407.20	929.19
407.39	964.30
407.58	1006.43
407.77	1008.77
407.96	1046.22
408.15	1069.62
408.34	1076.65
408.54	1093.03
408.73	1076.65
408.92	1128.14
409.11	1034.52
409.30	1107.07
409.49	1086.01
409.68	1086.01
409.87	1118.78
410.07	1130.48
410.26	1142.18
410.45	1214.74
410.64	1256.87
410.83	1121.12
411.02	1191.33
411.21	1144.52
411.40	1235.80
411.59	1273.25
411.78	1252.19
411.98	1128.14
412.17	1277.93
412.36	1268.57
412.55	1266.23
412.74	1301.34
412.93	1261.55
413.12	1282.61
413.31	1352.83
413.50	1413.68
413.69	1378.58
413.88	1343.47
414.07	1376.24
414.26	1493.26
414.45	1385.60
414.64	1387.94
414.83	1497.94
415.02	1439.43
415.22	1427.73
415.41	1558.80
415.60	1547.09
415.79	1479.22
415.98	1626.67
416.17	1572.84
416.36	1589.22
416.55	1488.58
416.74	1647.74
416.93	1659.44
417.12	1626.67
417.31	1790.51
417.50	1575.18
417.69	1750.72
417.88	1614.97
418.07	1703.91
418.26	1732.00
418.45	1753.06
418.64	1865.41
418.83	1732.00
419.02	1783.49
419.21	1713.27
419.39	1846.68
419.58	1827.96
419.77	1771.79
419.96	1788.17
420.15	1757.74
420.34	1750.72
420.53	1905.20
420.72	1867.75
420.91	1935.62
421.10	1856.04
421.29	1963.71
421.48	2022.22
421.67	1977.75
421.86	2001.16
422.05	1987.11
422.24	1944.99
422.43	2005.84
422.61	1961.37
422.80	1966.05
422.99	2038.61
423.18	1970.73
423.37	1975.41
423.56	2071.37
423.75	1928.60
423.94	2010.52
424.13	1921.58
424.32	1884.13
424.50	2012.86
424.69	1949.67
424.88	2029.24
425.07	2076.06
425.26	1926.26
425.45	1963.71
425.64	1933.28
425.83	2043.29
426.01	2076.06
426.20	2097.12
426.39	2036.27
426.58	2078.40
426.77	2062.01
426.96	2083.08
427.15	2029.24
427.33	2160.31
427.52	2001.16
427.71	2162.66
427.90	2141.59
428.09	2108.82
428.28	2167.34
428.46	2237.55
428.65	2080.74
428.84	2202.44
429.03	2279.68
429.22	2085.42
429.40	2176.70
429.59	2190.74
429.78	2099.46
429.97	2043.29
430.16	2195.42
430.34	2349.90
430.53	2324.15
430.72	2319.47
430.91	2366.28
431.10	2300.75
431.28	2286.70
431.47	2242.23
431.66	2319.47
431.85	2387.35
432.03	2511.39
432.22	2537.14
432.41	2445.86
432.60	2518.42
432.79	2492.67
432.97	2443.52
433.16	2422.45
433.35	2436.50
433.54	2572.25
433.72	2513.74
433.91	2438.84
434.10	2459.90
434.28	2450.54
434.47	2499.69
434.66	2558.21
434.85	2626.08
435.03	2588.63
435.22	2534.80
435.41	2576.93
435.59	2565.23
435.78	2588.63
435.97	2633.10
436.16	2523.10
436.34	2513.74
436.53	2558.21
436.72	2689.28
436.90	2600.34
437.09	2675.23
437.28	2621.40
437.46	2729.06
437.65	2808.64
437.84	2661.19
438.02	2806.30
438.21	2864.82
438.40	2736.09
438.58	2785.24
438.77	2794.60
438.96	2825.03
439.14	2895.24
439.33	2906.95
439.52	2911.63
439.70	2939.71
439.89	2925.67
440.08	2918.65
440.26	2920.99
440.45	3014.61
440.63	2963.12
440.82	3122.27
441.01	3007.59
441.19	2944.39
441.38	3098.87
441.57	3145.68
441.75	3178.45
441.94	3162.06
442.12	3173.77
442.31	3297.81
442.50	3281.43
442.68	3178.45
442.87	3229.94
443.05	3307.18
443.24	3276.75
443.43	3330.58
443.61	3281.43
443.80	3478.04
443.98	3302.50
444.17	3145.68
444.35	3358.67
444.54	3506.12
444.73	3328.24
444.91	3276.75
445.10	3421.86
445.28	3323.56
445.47	3274.41
445.65	3370.37
445.84	3351.65
446.02	3424.20
446.21	3384.41
446.39	3375.05
446.58	3489.74
446.77	3396.12
446.95	3496.76
447.14	3412.50
447.32	3496.76
447.51	3396.12
447.69	3384.41
447.88	3646.55
448.06	3585.70
448.25	3499.10
448.43	3480.38
448.62	3557.61
448.80	3461.65
448.99	3466.33
449.17	3627.83
449.36	3407.82
449.54	3719.11
449.73	3693.37
449.91	3581.02
450.10	3475.70
450.28	3707.41
450.46	3611.45
450.65	3646.55
450.83	3571.66
451.02	3571.66
451.20	3749.54
451.39	3733.15
451.57	3613.79
451.76	3592.72
451.94	3700.39
452.13	3861.88
452.31	3791.67
452.49	3840.82
452.68	3824.44
452.86	3838.48
453.05	3716.77
453.23	3751.88
453.42	3700.39
453.60	3784.65
453.78	3819.75
453.97	3735.50
454.15	3892.31
454.34	3854.86
454.52	3857.20
454.70	3819.75
454.89	3885.29
455.07	3896.99
455.26	3974.23
455.44	3927.42
455.62	4028.06
455.81	4098.28
455.99	4060.83
456.17	4074.87
456.36	3983.59
456.54	4102.96
456.73	4133.39
456.91	4245.73
457.09	4327.65
457.28	4255.09
457.46	4030.40
457.64	4259.78
457.83	4294.88
458.01	4119.34
458.19	4306.59
458.38	4217.65
458.56	4421.27
458.74	4376.80
458.93	4107.64
459.11	4388.50
459.29	4252.75
459.48	4374.46
459.66	4393.19
459.84	4409.57
460.03	4571.07
460.21	4496.17
460.39	4465.74
460.57	4400.21
460.76	4346.37
460.94	4622.56
461.12	4547.66
461.31	4620.22
461.49	4578.09
461.67	4505.53
461.85	4613.20
462.04	4528.94
462.22	4571.07
462.40	4657.67
462.59	4519.57
462.77	4533.62
462.95	4669.37
463.13	4823.84
463.32	4643.62
463.50	4762.99
463.68	4849.59
463.86	4655.33
464.05	4844.91
464.23	4589.79
464.41	4884.70
464.59	4770.01
464.78	4889.38
464.96	4706.82
465.14	4725.54
465.32	4746.61
465.50	4980.66
465.69	4868.31
465.87	4755.97
466.05	4945.55
466.23	4952.57
466.41	4884.70
466.60	5107.05
466.78	4980.66
466.96	5046.20
467.14	4814.48
467.32	5050.88
467.51	5107.05
467.69	4915.12
467.87	5020.45
468.05	5146.84
468.23	4959.60
468.41	5001.72
468.60	5055.56
468.78	5118.75
468.96	5146.84
469.14	5188.97
469.32	5128.11
469.50	5252.16
469.69	5259.18
469.87	5359.83
470.05	5252.16
470.23	5266.21
470.41	5397.28
470.59	5385.57
470.77	5282.59
470.95	5263.86
471.14	5589.20
471.32	5315.36
471.50	5390.25
471.68	5380.89
471.86	5535.37
472.04	5490.90
472.22	5699.20
472.40	5521.32
472.58	5633.67
472.77	5652.39
472.95	5750.70
473.13	5891.13
473.31	5614.95
473.49	5469.83
473.67	5724.95
473.85	5743.67
474.03	5834.96
474.21	6059.65
474.39	6040.92
474.57	5881.77
474.75	6113.48
474.93	5994.11
475.12	6078.37
475.30	6010.50
475.48	6143.91
475.66	6066.67
475.84	6230.51
476.02	6183.70
476.20	6321.79
476.38	6256.25
476.56	6319.45
476.74	6251.57
476.92	6363.92
477.10	6384.98
477.28	6675.21
477.46	6324.13
477.64	6647.12
477.82	6527.75
478.00	6834.36
478.18	6848.41
478.36	6740.74
478.54	6712.66
478.72	6951.39
478.90	7014.59
479.08	7033.31
479.26	7068.42
479.44	7232.26
479.62	7124.59
479.80	7138.63
479.98	7201.83
480.16	7536.52
480.34	7379.71
480.52	7536.52
480.70	7438.22
480.88	7485.03
481.06	7573.97
481.24	7548.23
481.41	7681.64
481.59	7742.49
481.77	7920.37
481.95	8044.42
482.13	7843.14
482.31	7901.65
482.49	8182.51
482.67	7864.20
482.85	8257.41
483.03	8149.75
483.21	8407.20
483.39	8454.02
483.57	8404.86
483.74	8549.98
483.92	8566.36
484.10	8393.16
484.28	8929.14
484.46	8711.47
484.64	8973.61
484.82	9081.28
485.00	8933.82
485.18	8882.33
485.35	9289.59
485.53	9137.45
485.71	9305.97
485.89	9572.79
486.07	9460.45
486.25	9399.59
486.43	9373.85
486.61	9671.09
486.78	9640.67
486.96	9762.37
487.14	10115.80
487.32	9811.53
487.50	9966.00
487.68	9771.74
487.85	10146.22
488.03	10232.82
488.21	10289.00
488.39	10270.27
488.57	10431.77
488.75	10494.96
488.92	10670.50
489.10	10630.71
489.28	10834.34
489.46	10743.06
489.64	10829.66
489.81	11035.63
489.99	11316.49
490.17	11091.80
490.35	11293.08
490.53	11211.17
490.70	11286.06
490.88	11255.64
491.06	11506.07
491.24	11580.97
491.41	11681.61
491.59	11824.39
491.77	11709.70
491.95	11936.73
492.13	12018.65
492.30	12079.50
492.48	12170.79
492.66	12095.89
492.84	12259.73
493.01	12301.86
493.19	12205.89
493.37	12650.60
493.54	12821.45
493.72	12652.94
493.90	12437.61
494.08	12814.43
494.25	13013.38
494.43	12961.89
494.61	13027.42
494.79	13146.79
494.96	12798.05
495.14	13067.21
495.32	13397.23
495.49	13289.56
495.67	13612.56
495.85	13488.51
496.02	13444.04
496.20	13518.93
496.38	13694.47
496.55	13767.03
496.73	13774.05
496.91	13970.66
497.09	13902.78
497.26	13958.96
497.44	14162.58
497.62	13909.80
497.79	14031.51
497.97	14361.53
498.14	14267.91
498.32	14532.39
498.50	14190.67
498.67	14649.41
498.85	14520.68
499.03	14663.46
499.20	14548.77
499.38	14902.19
499.56	14534.73
499.73	14911.55
499.91	14934.96
500.08	15176.03
500.26	15044.96
500.44	15260.29
500.61	15087.09
500.79	15236.89
500.97	15232.21
501.14	15770.53
501.32	15442.85
501.49	15447.54
501.67	15466.26
501.84	15552.86
502.02	15470.94
502.20	15662.86
502.37	15693.29
502.55	16009.26
502.72	15744.78
502.90	15772.87
503.07	16004.58
503.25	15864.15
503.43	16180.12
503.60	16271.40
503.78	16142.67
503.95	16395.45
504.13	16154.38
504.30	16416.52
504.48	16035.01
504.65	16409.50
504.83	16610.78
505.01	16563.97
505.18	16657.59
505.36	16919.73
505.53	16327.58
505.71	16669.30
505.88	16456.31
506.06	16580.36
506.23	17247.41
506.41	17027.40
506.58	17081.23
506.76	17156.13
506.93	17046.12
507.11	17013.35
507.28	17020.38
507.46	17018.04
507.63	17095.27
507.81	17764.67
507.98	17135.06
508.16	17577.42
508.33	17827.86
508.50	17488.48
508.68	17671.04
508.85	18012.76
509.03	17675.73
509.20	17891.06
509.38	18008.08
509.55	17965.95
509.73	18092.34
509.90	18354.48
510.08	17991.70
510.25	17987.02
510.42	18396.61
510.60	18370.86
510.77	18160.22
510.95	18171.92
511.12	18363.84
511.30	18466.83
511.47	18693.86
511.64	18445.76
511.82	18792.16
511.99	18700.88
512.17	18743.01
512.34	18630.66
512.51	18829.61
512.69	18562.79
512.86	19002.81
513.04	19030.90
513.21	18745.35
513.38	19246.23
513.56	19208.78
513.73	19117.50
513.90	19293.04
514.08	18775.78
514.25	19140.90
514.43	19590.28
514.60	19342.19
514.77	19262.61
514.95	19377.30
515.12	19456.87
515.29	19520.07
515.47	19506.02
515.64	19662.84
515.81	19913.28
515.99	19672.20
516.16	19819.66
516.33	19854.76
516.51	19969.45
516.68	19740.08
516.85	19723.69
517.03	19866.47
517.20	19988.18
517.37	19943.70
517.54	20152.01
517.72	20161.37
517.89	20327.55
518.06	20065.41
518.24	20404.79
518.41	20262.02
518.58	20400.11
518.75	20680.97
518.93	20606.08
519.10	20723.10
519.27	20549.90
519.45	20446.92
519.62	20592.03
519.79	20812.04
519.96	20442.24
520.14	20971.20
520.31	20748.85
520.48	20790.98
520.65	20849.49
520.83	20882.26
521.00	20889.28
521.17	21043.76
521.34	21106.95
521.52	20994.61
521.69	21036.74
521.86	21158.44
522.03	21568.04
522.20	21336.32
522.38	21460.37
522.55	21369.09
522.72	21378.45
522.89	21273.13
523.07	21577.40
523.24	21750.60
523.41	21642.93
523.58	21579.74
523.75	21949.54
523.92	21591.44
524.10	21401.86
524.27	21879.33
524.44	21858.26
524.61	22181.26
524.78	22043.17
524.96	21759.96
525.13	22120.40
525.30	21982.31
525.47	22125.08
525.64	22132.11
525.81	22242.11
525.98	22494.89
526.16	22450.42
526.33	22455.10
526.50	22609.58
526.67	22120.40
526.84	22366.16
527.01	22115.72
527.18	22515.95
527.36	22682.13
527.53	22492.55
527.70	22834.27
527.87	22881.08
528.04	22829.59
528.21	22604.89
528.38	22829.59
528.55	22918.53
528.72	23014.49
528.89	22698.52
529.07	23000.44
529.24	22806.18
529.41	22932.57
529.58	22831.93
529.75	22843.63
529.92	22906.82
530.09	23140.88
530.26	23129.17
530.43	23639.41
530.60	22836.61
530.77	23276.63
530.94	23332.80
531.11	23227.48
531.28	23302.37
531.46	23477.91
531.63	23403.02
531.80	23627.71
531.97	23850.06
532.14	23405.36
532.31	23674.52
532.48	23529.41
532.65	23470.89
532.82	23496.64
532.99	23604.30
533.16	23644.09
533.33	23571.54
533.50	24339.23
533.67	23899.21
533.84	23578.56
534.01	23660.48
534.18	23749.42
534.35	24074.75
534.52	23873.46
534.69	24360.30
534.86	24154.33
535.03	24187.10
535.20	23819.63
535.37	23953.04
535.54	24049.00
535.71	23950.70
535.88	24439.87
536.05	24350.93
536.22	24563.92
536.38	24657.54
536.55	24343.91
536.72	24362.64
536.89	24240.93
537.06	24236.25
537.23	24807.34
537.40	24524.13
537.57	24652.86
537.74	24559.24
537.91	24929.05
538.08	24680.95
538.25	24395.40
538.42	24528.81
538.59	24655.20
538.75	24297.10
538.92	24765.21
539.09	24809.68
539.26	24959.47
539.43	25120.97
539.60	25043.73
539.77	25078.84
539.94	25228.63
540.11	24924.36
540.28	25116.29
540.44	24999.26
540.61	24940.75
540.78	25191.19
540.95	25303.53
541.12	25383.11
541.29	25193.53
541.46	25172.46
541.62	25146.72
541.79	25277.79
541.96	24837.76
542.13	25490.77
542.30	25280.13
542.47	25357.36
542.63	25542.27
542.80	25865.26
542.97	25965.90
543.14	25855.90
543.31	25645.25
543.48	25582.06
543.64	25649.93
543.81	25804.41
543.98	25876.96
544.15	26150.81
544.32	26003.35
544.48	26492.52
544.65	26164.85
544.82	26010.37
544.99	25848.88
545.16	25825.47
545.32	25806.75
545.49	26057.18
545.66	26302.94
545.83	26239.75
546.00	26445.71
546.16	26057.18
546.33	26111.02
546.50	25832.49
546.67	26185.91
546.83	25659.29
547.00	26551.04
547.17	26588.49
547.34	26038.46
547.50	26618.91
547.67	26707.85
547.84	26569.76
548.00	26455.08
548.17	26436.35
548.34	26445.71
548.51	26991.06
548.67	26614.23
548.84	26693.81
549.01	26801.47
549.18	26586.15
549.34	26494.86
549.51	26223.36
549.68	26628.27
549.84	26820.20
550.01	26494.86
550.18	26920.84
550.34	26831.90
550.51	27356.18
550.68	26874.03
550.84	27159.58
551.01	27271.92
551.18	27117.45
551.34	26696.15
551.51	26932.54
551.68	26930.20
551.84	26967.65
552.01	26757.00
552.18	27044.89
552.34	27108.08
552.51	27204.05
552.68	27356.18
552.84	26785.09
553.01	27197.02
553.18	27187.66
553.34	27257.88
553.51	27215.75
553.67	27239.15
553.84	27473.21
554.01	27253.20
554.17	27192.34
554.34	27199.37
554.51	27374.91
554.67	27358.52
554.84	27594.92
555.00	27461.51
555.17	27541.08
555.33	27871.10
555.50	27405.33
555.67	27594.92
555.83	27262.56
556.00	27370.22
556.16	27782.16
556.33	27569.17
556.50	27311.71
556.66	27812.59
556.83	27395.97
556.99	28290.06
557.16	28238.56
557.32	27597.26
557.49	28154.30
557.65	27693.22
557.82	27878.12
557.98	27541.08
558.15	27592.58
558.32	28432.83
558.48	28070.04
558.65	28088.77
558.81	27817.27
558.98	27632.36
559.14	28009.19
559.31	28044.30
559.47	27725.99
559.64	27782.16
559.80	27943.66
559.97	28109.83
560.13	28154.30
560.30	28334.53
560.46	28091.11
560.63	28201.11
560.79	27992.81
560.96	28301.76
561.12	28030.26
561.29	28116.86
561.45	28371.97
561.61	28236.22
561.78	28107.49
561.94	28058.34
562.11	28453.89
562.27	28135.58
562.44	28329.84
562.60	28077.07
562.77	28063.02
562.93	28126.22
563.10	28297.08
563.26	28168.35
563.42	28521.77
563.59	27791.52
563.75	27990.47
563.92	28294.74
564.08	28222.18
564.24	28458.57
564.41	28142.60
564.57	28325.16
564.74	28514.75
564.90	28884.55
565.07	28496.02
565.23	28346.23
565.39	28769.86
565.56	28486.66
565.72	28439.85
565.88	28584.96
566.05	28566.24
566.21	28465.60
566.38	28507.72
566.54	28701.99
566.70	28840.08
566.87	28613.05
567.03	28662.20
567.19	28709.01
567.36	28526.45
567.52	28879.87
567.68	28552.20
567.85	28526.45
568.01	28819.02
568.17	28329.84
568.34	28381.34
568.50	28870.51
568.66	28690.29
568.83	28800.29
568.99	28755.82
569.15	28306.44
569.32	28556.88
569.48	28400.06
569.64	28802.63
569.81	28783.91
569.97	28947.75
570.13	28882.21
570.30	28982.85
570.46	28760.50
570.62	28563.90
570.78	28713.69
570.95	29055.41
571.11	28430.49
571.27	28418.78
571.43	28533.47
571.60	28823.70
571.76	28868.17
571.92	28666.88
572.09	28826.04
572.25	28811.99
572.41	28875.19
572.57	29125.63
572.74	29113.92
572.90	28847.10
573.06	28833.06
573.22	28694.97
573.38	28706.67
573.55	29247.33
573.71	29127.97
573.87	29081.16
574.03	28886.89
574.20	29071.79
574.36	28800.29
574.52	29001.58
574.68	29163.08
574.84	28978.17
575.01	29212.23
575.17	28933.70
575.33	28837.74
575.49	28912.64
575.65	29027.32
575.82	28945.41
575.98	28727.74
576.14	29146.69
576.30	28830.72
576.46	28716.03
576.62	28968.81
576.79	29252.02
576.95	28882.21
577.11	29420.53
577.27	29095.20
577.43	29338.62
577.59	29020.30
577.75	28802.63
577.92	28999.24
578.08	28989.88
578.24	28620.07
578.40	29118.60
578.56	29209.89
578.72	29076.48
578.88	29296.49
579.04	29399.47
579.21	29214.57
579.37	29120.95
579.53	29291.80
579.69	28985.19
579.85	28924.34
580.01	28959.45
580.17	29144.35
580.33	28566.24
580.49	29422.87
580.65	29275.42
580.82	29254.36
580.98	29469.69
581.14	29242.65
581.30	29013.28
581.46	29523.52
581.62	28858.81
581.78	29071.79
581.94	29631.18
582.10	28648.16
582.26	29340.96
582.42	29132.65
582.58	29170.10
582.74	29165.42
582.90	29415.85
583.06	29422.87
583.22	29109.24
583.38	29001.58
583.54	29223.93
583.70	29277.76
583.86	29277.76
584.02	29256.70
584.18	29338.62
584.34	29228.61
584.50	29401.81
584.66	29275.42
584.82	29039.03
584.98	29053.07
585.14	29020.30
585.30	28975.83
585.46	29296.49
585.62	29252.02
585.78	29474.37
585.94	29156.05
586.10	29179.46
586.26	29106.90
586.42	29565.65
586.58	29610.12
586.74	29160.73
586.90	29081.16
587.06	29212.23
587.22	29296.49
587.38	28980.51
587.54	29352.66
587.70	29305.85
587.86	29635.86
588.02	29584.37
588.18	29797.36
588.34	29317.55
588.49	29113.92
588.65	29207.55
588.81	29127.97
588.97	29036.69
589.13	29593.73
589.29	29336.27
589.45	29345.64
589.61	29518.84
589.77	29713.10
589.93	29242.65
590.08	29617.14
590.24	29610.12
590.40	29621.82
590.56	29909.71
590.72	29467.34
590.88	29156.05
591.04	29167.76
591.20	29560.97
591.35	29919.07
591.51	29816.08
591.67	29502.45
591.83	29816.08
591.99	29923.75
592.15	29453.30
592.31	29338.62
592.46	29394.79
592.62	29392.45
592.78	29383.09
592.94	29593.73
593.10	29521.18
593.26	29570.33
593.41	29715.44
593.57	29596.07
593.73	29652.25
593.89	29635.86
594.05	29792.68
594.20	29132.65
594.36	29727.14
594.52	29661.61
594.68	29563.31
594.84	29235.63
594.99	29944.81
595.15	29582.03
595.31	30221.00
595.47	29720.12
595.62	29593.73
595.78	29338.62
595.94	29462.66
596.10	29252.02
596.25	29614.80
596.41	29392.45
596.57	29567.99
596.73	29741.19
596.88	29635.86
597.04	29731.83
597.20	29930.77
597.36	29593.73
597.51	29944.81
597.67	30171.85
597.83	29905.02
597.99	30092.27
598.14	29675.65
598.30	29481.39
598.46	29450.96
598.61	29626.50
598.77	29319.89
598.93	29619.48
599.09	29743.53
599.24	30059.50
599.40	29947.15
599.56	29954.18
599.71	29766.93
599.87	29998.65
600.03	30078.22
600.18	29645.23
600.34	29731.83
600.50	29635.86
600.65	29607.78
600.81	30270.15
600.97	29867.58
601.12	29811.40
601.28	29649.91
601.44	29832.47
601.59	29914.39
601.75	29820.77
601.91	29596.07
602.06	29853.53
602.22	30127.38
602.37	29853.53
602.53	29860.55
602.69	29734.17
602.84	29687.36
603.00	29853.53
603.16	29888.64
603.31	30022.05
603.47	29954.18
603.62	29729.48
603.78	30050.14
603.94	29734.17
604.09	29497.77
604.25	29359.68
604.40	29493.09
604.56	29542.24
604.71	30279.51
604.87	29797.36
605.03	29532.88
605.18	30113.33
605.34	29413.51
605.49	29549.26
605.65	29462.66
605.80	29605.44
605.96	29656.93
606.12	29666.29
606.27	29788.00
606.43	29240.31
606.58	29930.77
606.74	29399.47
606.89	29713.10
607.05	29865.24
607.20	30019.71
607.36	29844.17
607.51	29661.61
607.67	29401.81
607.82	29448.62
607.98	29706.08
608.13	29420.53
608.29	29654.59
608.44	29486.07
608.60	29631.18
608.75	29675.65
608.91	29446.28
609.06	29500.11
609.22	29685.01
609.37	29401.81
609.53	29467.34
609.68	29450.96
609.84	29455.64
609.99	29160.73
610.15	29551.60
610.30	29366.70
610.46	29661.61
610.61	29572.67
610.76	29579.69
610.92	30031.41
611.07	29326.91
611.23	29443.94
611.38	29455.64
611.54	29455.64
611.69	29261.38
611.84	29186.48
612.00	29303.51
612.15	29343.30
612.31	29565.65
612.46	29172.44
612.62	29549.26
612.77	29076.48
612.92	29502.45
613.08	29296.49
613.23	29567.99
613.39	29476.71
613.54	28664.54
613.69	29202.86
613.85	29280.10
614.00	29226.27
614.15	29364.36
614.31	29294.14
614.46	29165.42
614.62	29027.32
614.77	29340.96
614.92	28987.53
615.08	28964.13
615.23	29055.41
615.38	28723.05
615.54	29036.69
615.69	28978.17
615.84	29149.03
616.00	28938.38
616.15	28910.30
616.30	29015.62
616.46	28924.34
616.61	28723.05
616.76	29055.41
616.92	28830.72
617.07	29064.77
617.22	28746.46
617.37	28701.99
617.53	28664.54
617.68	28755.82
617.83	28711.35
617.99	28797.95
618.14	28748.80
618.29	28769.86
618.45	28961.79
618.60	29324.57
618.75	28753.48
618.90	28680.92
619.06	29039.03
619.21	28493.68
619.36	28814.34
619.51	28643.48
619.67	28451.55
619.82	28898.59
619.97	28657.52
620.12	28549.85
620.28	28386.02
620.43	28769.86
620.58	28741.78
620.73	28467.94
620.89	28875.19
621.04	28680.92
621.19	28493.68
621.34	28737.10
621.49	28320.48
621.65	28514.75
621.80	28641.14
621.95	28453.89
622.10	28261.97
622.25	28400.06
622.41	28615.39
622.56	28222.18
622.71	28390.70
622.86	28189.41
623.01	28308.78
623.16	28437.51
623.32	28362.61
623.47	28395.38
623.62	28290.06
623.77	28517.09
623.92	28189.41
624.07	28187.07
624.23	28505.38
624.38	28233.88
624.53	28177.71
624.68	28126.22
624.83	28105.15
624.98	28439.85
625.13	28137.92
625.29	28400.06
625.44	27735.35
625.59	27793.86
625.74	28194.09
625.89	28254.95
626.04	27974.08
626.19	27796.20
626.34	28011.53
626.49	27950.68
626.65	27721.30
626.80	27983.44
626.95	28063.02
627.10	27934.29
627.25	28060.68
627.40	27597.26
627.55	27854.72
627.70	27810.25
627.85	27517.68
628.00	27548.11
628.15	27981.10
628.30	27452.14
628.45	27590.24
628.60	27615.98
628.76	27592.58
628.91	27702.58
629.06	27718.96
629.21	27412.35
629.36	27667.47
629.51	27632.36
629.66	27545.76
629.81	27412.35
629.96	27566.83
630.11	27637.05
630.26	27314.05
630.41	27417.04
630.56	27047.23
630.71	27597.26
630.86	27456.82
631.01	27360.86
631.16	27477.89
631.31	26841.26
631.46	27283.62
631.61	27353.84
631.76	27154.90
631.91	27220.43
632.06	27491.93
632.21	27028.51
632.36	26864.67
632.51	26686.79
632.66	27143.19
632.81	26902.12
632.96	27330.44
633.10	27243.84
633.25	27426.40
633.40	27164.26
633.55	27094.04
633.70	26944.25
633.85	26644.66
634.00	26775.73
634.15	27082.34
634.30	27005.10
634.45	27065.96
634.60	26941.91
634.75	27035.53
634.90	26885.73
635.05	27311.71
635.19	27147.87
635.34	27365.54
635.49	26773.39
635.64	26962.97
635.79	27063.61
635.94	26469.12
636.09	26796.79
636.24	26941.91
636.39	26352.09
636.53	26747.64
636.68	26829.56
636.83	26541.68
636.98	26705.51
637.13	26934.88
637.28	27056.59
637.43	26843.60
637.57	26969.99
637.72	26869.35
637.87	26569.76
638.02	26719.56
638.17	26569.76
638.32	26288.90
638.46	26565.08
638.61	26274.85
638.76	26562.74
638.91	26314.64
639.06	26096.97
639.20	26398.90
639.35	26714.87
639.50	26485.50
639.65	26522.95
639.80	26356.77
639.94	26551.04
640.09	26305.28
640.24	26389.54
640.39	26483.16
640.54	26019.74
640.68	26087.61
640.83	26190.59
640.98	26218.68
641.13	26164.85
641.27	25876.96
641.42	26164.85
641.57	26485.50
641.72	26265.49
641.86	25708.44
642.01	25811.43
642.16	25783.34
642.31	26190.59
642.45	26520.61
642.60	26171.87
642.75	25755.26
642.90	25851.22
643.04	25509.50
643.19	25628.87
643.34	25832.49
643.48	25979.95
643.63	25982.29
643.78	25764.62
643.93	26103.99
644.07	25846.54
644.22	25972.92
644.37	26153.15
644.51	25940.16
644.66	25865.26
644.81	25883.98
644.95	25715.47
645.10	25759.94
645.25	25909.73
645.39	25638.23
645.54	25802.07
645.69	25916.75
645.83	25954.20
645.98	25942.50
646.13	26052.50
646.27	25837.17
646.42	25722.49
646.57	25706.10
646.71	25722.49
646.86	25535.24
647.00	25568.01
647.15	25483.75
647.30	25635.89
647.44	25572.69
647.59	25453.33
647.74	25469.71
647.88	25329.28
648.03	25427.58
648.17	25640.57
648.32	25572.69
648.47	25254.38
648.61	25305.87
648.76	25722.49
648.90	25392.47
649.05	25348.00
649.20	25139.69
649.34	25352.68
649.49	24884.58
649.63	25179.48
649.78	25254.38
649.92	25170.12
650.07	25177.14
650.21	25254.38
650.36	25067.14
650.51	25198.21
650.65	25355.02
650.80	24870.53
650.94	25326.94
651.09	25071.82
651.23	25083.52
651.38	25034.37
651.52	25076.50
651.67	25055.43
651.81	24980.54
651.96	24987.56
652.10	25057.78
652.25	24980.54
652.39	25043.73
652.54	24762.87
652.68	25127.99
652.83	24641.16
652.97	25259.06
653.12	24657.54
653.26	24968.84
653.41	25010.96
653.55	24786.27
653.70	24833.08
653.84	25083.52
653.99	24793.29
654.13	24596.69
654.27	24938.41
654.42	25085.86
654.56	24613.07
654.71	24863.51
654.85	24842.45
655.00	24587.33
655.14	24540.52
655.29	24748.82
655.43	24617.75
655.57	24683.29
655.72	24514.77
655.86	24353.27
656.01	24376.68
656.15	24545.20
656.30	24439.87
656.44	24409.45
656.58	24734.78
656.73	24720.74
656.87	24687.97
657.01	24444.56
657.16	24189.44
657.30	24425.83
657.45	24526.47
657.59	24327.53
657.73	24091.13
657.88	24067.73
658.02	24346.25
658.16	24449.24
658.31	24294.76
658.45	24332.21
658.60	24070.07
658.74	24056.03
658.88	24154.33
659.03	24229.23
659.17	24187.10
659.31	23985.81
659.46	24182.42
659.60	24051.34
659.74	24095.82
659.89	23981.13
660.03	23960.06
660.17	23992.83
660.32	23857.08
660.46	23810.27
660.60	23756.44
660.74	23583.24
660.89	23648.77
661.03	23335.14
661.17	23878.15
661.32	23417.06
661.46	23873.46
661.60	23686.22
661.74	23634.73
661.89	23431.10
662.03	23962.40
662.17	23534.09
662.31	23428.76
662.46	23580.90
662.60	23843.04
662.74	23623.03
662.88	23197.05
663.03	23248.54
663.17	23278.97
663.31	23332.80
663.45	23281.31
663.60	23332.80
663.74	23456.85
663.88	23065.98
664.02	23035.55
664.17	23550.47
664.31	23068.32
664.45	22670.43
664.59	23047.26
664.73	22998.10
664.88	22852.99
665.02	22927.89
665.16	22817.88
665.30	22764.05
665.44	22993.42
665.59	22799.16
665.73	22820.22
665.87	22757.03
666.01	22888.10
666.15	22661.07
666.29	22679.79
666.44	22544.04
666.58	22654.05
666.72	22656.39
666.86	22494.89
667.00	22586.17
667.14	22539.36
667.28	22424.67
667.43	22375.52
667.57	22302.96
667.71	22120.40
667.85	22237.43
667.99	22232.75
668.13	22099.34
668.27	22075.93
668.41	22160.19
668.56	22394.25
668.70	22033.80
668.84	22211.68
668.98	22368.50
669.12	21942.52
669.26	22075.93
669.40	22092.32
669.54	21916.78
669.68	22015.08
669.82	21631.23
669.96	21961.25
670.10	21729.53
670.25	21954.22
670.39	21724.85
670.53	21809.11
670.67	21479.10
670.81	21951.88
670.95	21738.90
671.09	21486.12
671.23	21881.67
671.37	21568.04
671.51	22001.04
671.65	21649.96
671.79	21556.33
671.93	21219.30
672.07	21443.99
672.21	21696.77
672.35	20863.54
672.49	21064.82
672.63	21174.83
672.77	20915.03
672.91	21348.03
673.05	21029.71
673.19	21355.05
673.33	21003.97
673.47	20872.90
673.61	20952.48
673.75	21062.48
673.89	20805.02
674.03	20601.40
674.17	20872.90
674.31	20690.34
674.45	20725.44
674.59	20318.19
674.73	20627.14
674.87	20449.26
675.01	20620.12
675.15	20128.61
675.29	20294.79
675.43	20402.45
675.56	20278.40
675.70	20306.49
675.84	20458.62
675.98	19503.68
676.12	20662.25
676.26	20332.23
676.40	20278.40
676.54	20037.33
676.68	19934.34
676.82	19637.09
676.96	19810.29
677.10	19962.43
677.23	19686.25
677.37	19428.79
677.51	19337.51
677.65	19339.85
677.79	19660.50
677.93	19536.45
678.07	19529.43
678.21	19257.93
678.34	19126.86
678.48	19337.51
678.62	19173.67
678.76	18766.42
678.90	19037.92
679.04	18867.06
679.18	19054.30
679.31	18642.37
679.45	18897.49
679.59	18733.65
679.73	18684.50
679.87	18429.38
680.00	18143.83
680.14	18438.74
680.28	18684.50
680.42	18466.83
680.56	18567.47
680.70	18420.02
680.83	18640.03
680.97	18497.25
681.11	18183.62
681.25	18153.20
681.39	17972.97
681.52	18190.64
681.66	17926.16
681.80	17947.23
681.94	17797.43
682.07	18029.15
682.21	17710.83
682.35	17558.70
682.49	17729.56
682.62	17287.20
682.76	17528.27
682.90	17638.28
683.04	17411.25
683.17	17598.49
683.31	17493.16
683.45	17366.78
683.59	16968.88
683.72	17172.51
683.86	17326.99
684.00	16957.18
684.13	17015.69
684.27	16933.78
684.41	16781.64
684.55	16732.49
684.68	16673.98
684.82	16437.58
684.96	16657.59
685.09	16624.83
685.23	16526.52
685.37	16528.86
685.50	16540.57
685.64	16624.83
685.78	16475.03
685.91	16360.34
686.05	16589.72
686.19	16327.58
686.32	16210.55
686.46	15939.05
686.60	15901.60
686.73	16189.49
686.87	16016.29
687.01	15962.45
687.14	15758.83
687.28	15796.28
687.42	15700.31
687.55	15494.35
687.69	15880.53
687.82	15831.38
687.96	15709.68
688.10	15672.23
688.23	15632.44
688.37	15562.22
688.50	15573.92
688.64	15393.70
688.78	15330.51
688.91	15297.74
689.05	15281.36
689.18	15070.71
689.32	14972.41
689.46	15129.22
689.59	14930.28
689.73	14806.23
689.86	14696.22
690.00	14810.91
690.13	14810.91
690.27	14731.33
690.41	14647.07
690.54	14525.36
690.68	14398.98
690.81	14885.81
690.95	14611.96
691.08	14675.16
691.22	14178.97
691.35	14260.88
691.49	14221.10
691.62	14139.18
691.76	14164.92
691.89	14017.47
692.03	14125.13
692.16	13851.29
692.30	13858.31
692.43	13846.61
692.57	13752.99
692.70	13631.28
692.84	13797.46
692.97	13715.54
693.11	13703.84
693.24	13664.05
693.38	13605.53
693.51	13701.50
693.65	13413.61
693.78	13404.25
693.92	13469.78
694.05	13352.76
694.19	13359.78
694.32	13282.54
694.45	12940.82
694.59	13214.66
694.72	13165.51
694.86	13172.54
694.99	12606.13
695.13	13004.02
695.26	12812.09
695.39	12772.30
695.53	12751.24
695.66	12812.09
695.80	12877.63
695.93	12744.22
696.07	12601.44
696.20	12519.53
696.33	12334.62
696.47	12491.44
696.60	12416.54
696.73	12292.49
696.87	12294.83
697.00	12358.03
697.14	12175.47
697.27	12051.42
697.40	11857.15
697.54	12018.65
697.67	11861.84
697.80	11840.77
697.94	11777.58
698.07	11583.31
698.21	11854.81
698.34	11665.23
698.47	11728.42
698.61	11676.93
698.74	11791.62
698.87	12016.31
699.01	11534.16
699.14	11372.66
699.27	11414.79
699.40	11239.25
699.54	11496.71
699.67	11323.51
699.80	10988.82
699.94	10949.03
700.07	11075.42
700.20	10981.79
700.34	10951.37
700.47	10963.07
700.60	10934.98
700.73	10949.03
700.87	11030.94
701.00	10892.85
701.13	10600.29
701.26	10846.04
701.40	10991.16
701.53	10626.03
701.66	10834.34
701.79	10483.26
701.93	10527.73
702.06	10436.45
702.19	10501.98
702.32	10253.89
702.46	10277.29
702.59	9970.68
702.72	9944.94
702.85	10312.40
702.99	10251.55
703.12	10178.99
703.25	10059.62
703.38	9949.62
703.51	9982.38
703.65	9771.74
703.78	9902.81
703.91	9837.27
704.04	9804.50
704.17	9823.23
704.31	9860.68
704.44	9792.80
704.57	9612.58
704.70	9500.23
704.83	9465.13
704.96	9437.04
705.10	9320.01
705.23	9245.12
>>>>>End Processed Spectral Data<<<<<
