SpectraSuite Data File
++++++++++++++++++++++++++++++++++++
Date: Fri Oct 18 13:58:42 GMT-05:00 2013
User: bianchi
Dark Spectrum Present: No
Reference Spectrum Present: No
Number of Sampled Component Spectra: 1
Spectrometers: USB2+H05261
Integration Time (usec): 50000 (USB2+H05261)
Spectra Averaged: 1 (USB2+H05261)
Boxcar Smoothing: 0 (USB2+H05261)
Correct for Electrical Dark: No (USB2+H05261)
Strobe/Lamp Enabled: No (USB2+H05261)
Correct for Detector Non-linearity: No (USB2+H05261)
Correct for Stray Light: No (USB2+H05261)
Number of Pixels in Processed Spectrum: 2048
>>>>>Begin Processed Spectral Data<<<<<
365.73	0.00
365.92	0.00
366.12	0.00
366.32	0.00
366.52	0.00
366.72	0.00
366.91	0.00
367.11	0.00
367.31	0.00
367.51	0.00
367.70	0.00
367.90	0.00
368.10	0.00
368.30	0.00
368.49	0.00
368.69	0.00
368.89	0.00
369.09	0.00
369.28	0.00
369.48	0.00
369.68	0.00
369.87	0.00
370.07	0.00
370.27	0.00
370.47	0.00
370.66	72.56
370.86	79.58
371.06	126.39
371.25	131.07
371.45	152.13
371.65	175.54
371.84	74.90
372.04	208.31
372.24	189.58
372.44	166.18
372.63	191.92
372.83	255.12
373.03	205.97
373.22	198.95
373.42	231.71
373.62	205.97
373.81	269.16
374.01	234.05
374.21	285.55
374.40	262.14
374.60	304.27
374.79	285.55
374.99	196.60
375.19	234.05
375.38	222.35
375.58	236.39
375.78	318.31
375.97	266.82
376.17	325.33
376.37	222.35
376.56	227.03
376.76	290.23
376.95	252.78
377.15	285.55
377.35	229.37
377.54	285.55
377.74	217.67
377.93	348.74
378.13	208.31
378.33	278.52
378.52	304.27
378.72	299.59
378.91	285.55
379.11	313.63
379.31	276.18
379.50	285.55
379.70	400.23
379.89	358.10
380.09	360.44
380.28	257.46
380.48	285.55
380.68	257.46
380.87	304.27
381.07	306.61
381.26	372.15
381.46	322.99
381.65	236.39
381.85	276.18
382.04	294.91
382.24	388.53
382.43	360.44
382.63	315.97
382.83	381.51
383.02	337.04
383.22	383.85
383.41	353.42
383.61	330.02
383.80	423.64
384.00	313.63
384.19	447.04
384.39	381.51
384.58	390.87
384.78	348.74
384.97	447.04
385.17	393.21
385.36	402.57
385.56	409.59
385.75	374.49
385.95	386.19
386.14	423.64
386.34	430.66
386.53	409.59
386.72	383.85
386.92	411.93
387.11	470.45
387.31	477.47
387.50	489.17
387.70	404.91
387.89	447.04
388.09	414.27
388.28	500.87
388.48	402.57
388.67	437.68
388.86	468.11
389.06	430.66
389.25	475.13
389.45	463.43
389.64	409.59
389.84	589.82
390.03	468.11
390.22	543.00
390.42	456.40
390.61	512.58
390.81	535.98
391.00	496.19
391.19	482.15
391.39	533.64
391.58	470.45
391.78	613.22
391.97	449.38
392.16	461.09
392.36	496.19
392.55	519.60
392.75	617.90
392.94	622.58
393.13	521.94
393.33	559.39
393.52	566.41
393.71	566.41
393.91	566.41
394.10	566.41
394.29	580.45
394.49	587.47
394.68	622.58
394.88	634.29
395.07	589.82
395.26	692.80
395.46	601.52
395.65	631.94
395.84	706.84
396.04	751.31
396.23	624.92
396.42	674.07
396.62	662.37
396.81	725.57
397.00	636.63
397.19	674.07
397.39	688.12
397.58	709.18
397.77	643.65
397.97	634.29
398.16	608.54
398.35	713.86
398.55	699.82
398.74	737.27
398.93	667.05
399.12	702.16
399.32	669.39
399.51	753.65
399.70	716.20
399.90	688.12
400.09	786.42
400.28	784.08
400.47	739.61
400.67	739.61
400.86	861.32
401.05	828.55
401.24	784.08
401.44	870.68
401.63	753.65
401.82	786.42
402.01	704.50
402.21	844.93
402.40	798.12
402.59	837.91
402.78	837.91
402.97	786.42
403.17	784.08
403.36	795.78
403.55	732.59
403.74	823.87
403.93	929.19
404.13	905.79
404.32	938.55
404.51	908.13
404.70	884.72
404.89	887.06
405.09	938.55
405.28	938.55
405.47	950.26
405.66	994.73
405.85	940.90
406.05	945.58
406.24	983.02
406.43	933.87
406.62	987.71
406.81	959.62
407.00	1022.81
407.20	1055.58
407.39	1053.24
407.58	1013.45
407.77	1055.58
407.96	1071.97
408.15	1088.35
408.34	985.37
408.54	1081.33
408.73	1062.60
408.92	1046.22
409.11	1114.10
409.30	1130.48
409.49	1135.16
409.68	1165.59
409.87	1142.18
410.07	1083.67
410.26	1186.65
410.45	1086.01
410.64	1266.23
410.83	1247.51
411.02	1198.35
411.21	1299.00
411.40	1249.85
411.59	1263.89
411.78	1254.53
411.98	1266.23
412.17	1336.45
412.36	1256.87
412.55	1306.02
412.74	1308.36
412.93	1338.79
413.12	1416.02
413.31	1394.96
413.50	1310.70
413.69	1439.43
413.88	1437.09
414.07	1416.02
414.26	1404.32
414.45	1474.54
414.64	1451.13
414.83	1528.37
415.02	1448.79
415.22	1481.56
415.41	1523.69
415.60	1439.43
415.79	1533.05
415.98	1570.50
416.17	1558.80
416.36	1657.10
416.55	1624.33
416.74	1565.82
416.93	1671.14
417.12	1657.10
417.31	1682.85
417.50	1631.35
417.69	1671.14
417.88	1647.74
418.07	1636.03
418.26	1657.10
418.45	1586.88
418.64	1769.44
418.83	1811.57
419.02	1757.74
419.21	1806.89
419.39	1806.89
419.58	1760.08
419.77	1849.02
419.96	1823.28
420.15	1891.15
420.34	1867.75
420.53	1834.98
420.72	1912.22
420.91	1818.60
421.10	1954.35
421.29	1989.46
421.48	1870.09
421.67	1963.71
421.86	1942.64
422.05	1926.26
422.24	1893.49
422.43	1984.77
422.61	1994.14
422.80	2005.84
422.99	2001.16
423.18	1966.05
423.37	2001.16
423.56	2015.20
423.75	1947.33
423.94	1980.09
424.13	1905.20
424.32	1923.92
424.50	2080.74
424.69	2101.80
424.88	2139.25
425.07	2043.29
425.26	1912.22
425.45	2026.90
425.64	2050.31
425.83	2054.99
426.01	2087.76
426.20	1998.82
426.39	2059.67
426.58	2019.88
426.77	2019.88
426.96	2108.82
427.15	2036.27
427.33	2132.23
427.52	1940.30
427.71	2153.29
427.90	2204.78
428.09	2188.40
428.28	2139.25
428.46	2181.38
428.65	2195.42
428.84	2338.20
429.03	2172.02
429.22	2253.94
429.40	2183.72
429.59	2260.96
429.78	2169.68
429.97	2087.76
430.16	2216.49
430.34	2307.77
430.53	2263.30
430.72	2300.75
430.91	2345.22
431.10	2335.85
431.28	2267.98
431.47	2370.96
431.66	2427.14
431.85	2415.43
432.03	2443.52
432.22	2574.59
432.41	2431.82
432.60	2413.09
432.79	2326.49
432.97	2363.94
433.16	2387.35
433.35	2523.10
433.54	2499.69
433.72	2581.61
433.91	2534.80
434.10	2532.46
434.28	2438.84
434.47	2565.23
434.66	2427.14
434.85	2506.71
435.03	2708.00
435.22	2511.39
435.41	2733.75
435.59	2562.89
435.78	2740.77
435.97	2626.08
436.16	2590.97
436.34	2567.57
436.53	2626.08
436.72	2698.64
436.90	2656.51
437.09	2764.17
437.28	2555.86
437.46	2738.43
437.65	2689.28
437.84	2736.09
438.02	2771.19
438.21	2761.83
438.40	2771.19
438.58	2822.69
438.77	2815.66
438.96	2761.83
439.14	2787.58
439.33	2911.63
439.52	2979.50
439.70	2965.46
439.89	2918.65
440.08	3016.95
440.26	2963.12
440.45	2984.18
440.63	3059.08
440.82	2993.55
441.01	3131.64
441.19	3171.43
441.38	3201.85
441.57	3087.17
441.75	3204.19
441.94	3281.43
442.12	3215.90
442.31	3260.37
442.50	3243.98
442.68	3255.69
442.87	3290.79
443.05	3356.33
443.24	3314.20
443.43	3346.97
443.61	3328.24
443.80	3393.78
443.98	3328.24
444.17	3169.09
444.35	3541.23
444.54	3372.71
444.73	3438.25
444.91	3407.82
445.10	3419.52
445.28	3386.76
445.47	3382.07
445.65	3510.80
445.84	3370.37
446.02	3405.48
446.21	3412.50
446.39	3527.19
446.58	3527.19
446.77	3377.39
446.95	3492.08
447.14	3440.59
447.32	3606.77
447.51	3606.77
447.69	3527.19
447.88	3485.06
448.06	3482.72
448.25	3543.57
448.43	3583.36
448.62	3541.23
448.80	3473.36
448.99	3627.83
449.17	3541.23
449.36	3555.27
449.54	3803.37
449.73	3676.98
449.91	3719.11
450.10	3709.75
450.28	3904.01
450.46	3742.52
450.65	3735.50
450.83	3705.07
451.02	3700.39
451.20	3740.18
451.39	3777.62
451.57	3702.73
451.76	3758.90
451.94	3684.00
452.13	3845.50
452.31	3777.62
452.49	3782.31
452.68	3749.54
452.86	3728.47
453.05	3880.61
453.23	3943.80
453.42	3957.85
453.60	3908.69
453.78	3885.29
453.97	3744.86
454.15	3784.65
454.34	3953.16
454.52	4060.83
454.70	4072.53
454.89	4011.68
455.07	4084.23
455.26	4091.26
455.44	4121.68
455.62	4021.04
455.81	4065.51
455.99	4072.53
456.17	4046.79
456.36	4063.17
456.54	4145.09
456.73	4175.52
456.91	4294.88
457.09	4201.26
457.28	4294.88
457.46	4280.84
457.64	4327.65
457.83	4294.88
458.01	4273.82
458.19	4463.40
458.38	4280.84
458.56	4451.70
458.74	4528.94
458.93	4463.40
459.11	4416.59
459.29	4657.67
459.48	4519.57
459.66	4416.59
459.84	4409.57
460.03	4645.96
460.21	4517.23
460.39	4561.70
460.57	4528.94
460.76	4601.49
460.94	4524.26
461.12	4599.15
461.31	4702.14
461.49	4505.53
461.67	4505.53
461.85	4575.75
462.04	4648.30
462.22	4678.73
462.40	4816.82
462.59	4678.73
462.77	4762.99
462.95	4833.21
463.13	4760.65
463.32	4823.84
463.50	4854.27
463.68	4915.12
463.86	4889.38
464.05	4809.80
464.23	4781.71
464.41	4938.53
464.59	4830.87
464.78	5102.37
464.96	4887.04
465.14	4865.97
465.32	4964.28
465.50	5085.98
465.69	5013.43
465.87	4880.02
466.05	4936.19
466.23	4933.85
466.41	5013.43
466.60	5172.58
466.78	4983.00
466.96	4926.83
467.14	4851.93
467.32	5090.67
467.51	5034.49
467.69	4943.21
467.87	5093.01
468.05	5177.26
468.23	5036.83
468.41	5104.71
468.60	5174.92
468.78	5107.05
468.96	5163.22
469.14	5151.52
469.32	5200.67
469.50	5177.26
469.69	5320.04
469.87	5465.15
470.05	5205.35
470.23	5394.93
470.41	5228.76
470.59	5425.36
470.77	5427.70
470.95	5621.97
471.14	5284.93
471.32	5476.85
471.50	5659.42
471.68	5631.33
471.86	5603.24
472.04	5586.86
472.22	5755.38
472.40	5542.39
472.58	5748.36
472.77	5675.80
472.95	5687.50
473.13	5891.13
473.31	5930.92
473.49	5781.12
473.67	5715.59
473.85	5907.51
474.03	5954.32
474.21	6040.92
474.39	6164.97
474.57	6083.05
474.75	6153.27
474.93	6181.35
475.12	6099.44
475.30	6174.33
475.48	6153.27
475.66	6153.27
475.84	6277.32
476.02	6286.68
476.20	6155.61
476.38	6408.39
476.56	6392.00
476.74	6429.45
476.92	6356.90
477.10	6434.13
477.28	6527.75
477.46	6752.45
477.64	6703.29
477.82	6766.49
478.00	6902.24
478.18	7016.93
478.36	6820.32
478.54	6981.82
478.72	6942.03
478.90	7112.89
479.08	7155.02
479.26	7250.98
479.44	7342.26
479.62	7433.54
479.80	7412.48
479.98	7454.61
480.16	7414.82
480.34	7478.01
480.52	7620.78
480.70	7630.15
480.88	7634.83
481.06	7569.29
481.24	7667.60
481.41	7772.92
481.59	7847.82
481.77	7786.96
481.95	7929.74
482.13	7906.33
482.31	8072.51
482.49	8168.47
482.67	8154.43
482.85	8304.22
483.03	8454.02
483.21	8603.81
483.39	8421.25
483.57	8606.15
483.74	8777.01
483.92	8884.67
484.10	8547.64
484.28	8872.97
484.46	9018.08
484.64	9083.62
484.82	9071.92
485.00	8975.95
485.18	9298.95
485.35	9392.57
485.53	9186.60
485.71	9305.97
485.89	9394.91
486.07	9516.62
486.25	9472.15
486.43	9755.35
486.61	9734.29
486.78	9832.59
486.96	9909.83
487.14	10083.03
487.32	9902.81
487.50	10141.54
487.68	10015.15
487.85	10115.80
488.03	10485.60
488.21	10506.66
488.39	10274.95
488.57	10363.89
488.75	10569.86
488.92	10806.25
489.10	10773.49
489.28	11122.23
489.46	10932.64
489.64	10874.13
489.81	11255.64
489.99	11110.52
490.17	11358.62
490.35	11639.48
490.53	11323.51
490.70	11489.69
490.88	11688.64
491.06	11761.19
491.24	11363.30
491.41	11609.06
491.59	11602.04
491.77	11868.86
491.95	12114.61
492.13	11957.80
492.30	12329.94
492.48	12121.63
492.66	12325.26
492.84	12243.34
493.01	12306.54
493.19	12561.66
493.37	12533.57
493.54	12840.18
493.72	13067.21
493.90	12666.98
494.08	12952.52
494.25	13029.76
494.43	13081.25
494.61	13261.48
494.79	13205.30
494.96	13001.68
495.14	13315.31
495.32	13268.50
495.49	13441.70
495.67	13495.53
495.85	13631.28
496.02	13888.74
496.20	13645.32
496.38	13783.41
496.55	13912.14
496.73	14314.72
496.91	14033.85
497.09	14195.35
497.26	14307.69
497.44	14333.44
497.62	14162.58
497.79	14448.13
497.97	14317.06
498.14	14850.70
498.32	14747.72
498.50	14541.75
498.67	14991.13
498.85	14792.19
499.03	14853.04
499.20	14789.85
499.38	15192.42
499.56	15115.18
499.73	15300.08
499.91	15126.88
500.08	15594.99
500.26	15042.62
500.44	15435.83
500.61	15339.87
500.79	15351.57
500.97	15482.64
501.14	15943.73
501.32	15604.35
501.49	15800.96
501.67	15882.88
501.84	16004.58
502.02	15850.11
502.20	15992.88
502.37	16334.60
502.55	15985.86
502.72	16308.85
502.90	16126.29
503.07	16023.31
503.25	16002.24
503.43	16517.16
503.60	16407.16
503.78	16411.84
503.95	16599.08
504.13	16556.95
504.30	16596.74
504.48	16603.76
504.65	16648.23
504.83	16863.56
505.01	17006.33
505.18	17139.74
505.36	17074.21
505.53	16863.56
505.71	16697.38
505.88	17158.47
506.06	16858.88
506.23	17085.91
506.41	17219.32
506.58	17369.12
506.76	17090.59
506.93	17427.63
507.11	17146.76
507.28	17310.60
507.46	17561.04
507.63	17322.30
507.81	17832.54
507.98	17795.09
508.16	17535.29
508.33	17554.02
508.50	17916.80
508.68	17703.81
508.85	18078.30
509.03	17804.46
509.20	18113.41
509.38	18398.95
509.55	18420.02
509.73	18190.64
509.90	18352.14
510.08	18300.65
510.25	18267.88
510.42	18565.13
510.60	18520.66
510.77	18640.03
510.95	18670.45
511.12	18579.17
511.30	18562.79
511.47	18696.20
511.64	18630.66
511.82	18754.71
511.99	18740.67
512.17	19215.80
512.34	19103.45
512.51	19253.25
512.69	18946.64
512.86	19342.19
513.04	19339.85
513.21	19297.72
513.38	19232.18
513.56	19274.31
513.73	19440.49
513.90	19475.60
514.08	19503.68
514.25	19496.66
514.43	19927.32
514.60	19330.48
514.77	19740.08
514.95	19812.63
515.12	19639.44
515.29	19367.93
515.47	19908.60
515.64	20070.09
515.81	19915.62
515.99	19761.14
516.16	19953.07
516.33	20397.77
516.51	20418.83
516.68	20088.82
516.85	20194.14
517.03	20343.94
517.20	20552.24
517.37	20526.50
517.54	20475.01
517.72	20369.68
517.89	20308.83
518.06	20037.33
518.24	20615.44
518.41	20531.18
518.58	20315.85
518.75	20610.76
518.93	20648.21
519.10	20868.22
519.27	20945.45
519.45	20594.37
519.62	20840.13
519.79	20849.49
519.96	20702.04
520.14	21298.88
520.31	21003.97
520.48	21008.65
520.65	21076.52
520.83	21378.45
521.00	21221.64
521.17	21053.12
521.34	21198.23
521.52	21432.29
521.69	21539.95
521.86	21706.13
522.03	21596.12
522.20	21748.26
522.38	21755.28
522.55	21738.90
522.72	21713.15
522.89	21607.83
523.07	22036.14
523.24	21991.67
523.41	22497.23
523.58	21804.43
523.75	22031.46
523.92	21989.33
524.10	21935.50
524.27	22111.04
524.44	22462.12
524.61	22251.47
524.78	22476.16
524.96	22298.28
525.13	22141.47
525.30	22518.29
525.47	22288.92
525.64	22256.15
525.81	22766.39
525.98	22707.88
526.16	22558.08
526.33	22761.71
526.50	22895.12
526.67	22647.02
526.84	22595.53
527.01	22586.17
527.18	22834.27
527.36	22923.21
527.53	22986.40
527.70	23192.37
527.87	23108.11
528.04	23152.58
528.21	23044.91
528.38	22902.14
528.55	23264.92
528.72	23063.64
528.89	23302.37
529.07	23232.16
529.24	23344.50
529.41	23260.24
529.58	23363.23
529.75	23250.88
529.92	23370.25
530.09	23449.83
530.26	23520.04
530.43	23480.25
530.60	23484.94
530.77	23498.98
530.94	23487.28
531.11	23321.10
531.28	23868.78
531.46	23669.84
531.63	23950.70
531.80	24063.05
531.97	23740.05
532.14	24088.79
532.31	23990.49
532.48	23733.03
532.65	23873.46
532.82	23847.72
532.99	24135.60
533.16	24219.86
533.33	24467.96
533.50	24386.04
533.67	24538.18
533.84	24229.23
534.01	24245.61
534.18	24339.23
534.35	24348.59
534.52	24496.05
534.69	24727.76
534.86	24926.71
535.03	24329.87
535.20	24102.84
535.37	24254.97
535.54	24730.10
535.71	24425.83
535.88	24545.20
536.05	24790.95
536.22	24968.84
536.38	24968.84
536.55	25230.98
536.72	24786.27
536.89	24521.79
537.06	25104.59
537.23	24741.80
537.40	24716.06
537.57	24828.40
537.74	25212.25
537.91	25383.11
538.08	25076.50
538.25	24982.88
538.42	25170.12
538.59	25172.46
538.75	25069.48
538.92	25034.37
539.09	25050.75
539.26	25240.34
539.43	25123.31
539.60	25572.69
539.77	25436.94
539.94	25219.27
540.11	25593.76
540.28	25769.30
540.44	25568.01
540.61	25404.17
540.78	25474.39
540.95	25790.36
541.12	25472.05
541.29	25432.26
541.46	25631.21
541.62	25830.15
541.79	25790.36
541.96	25273.10
542.13	25656.95
542.30	25500.14
542.47	26061.87
542.63	25935.48
542.80	26174.21
542.97	26206.98
543.14	26338.05
543.31	26225.70
543.48	25951.86
543.64	26382.52
543.81	26118.04
543.98	26026.76
544.15	26548.70
544.32	26277.19
544.48	26480.82
544.65	26239.75
544.82	26438.69
544.99	26136.76
545.16	26312.30
545.32	26534.65
545.49	26771.05
545.66	26410.60
545.83	26693.81
546.00	27075.32
546.16	26857.65
546.33	26270.17
546.50	26263.15
546.67	26841.26
546.83	26867.01
547.00	26555.72
547.17	26948.93
547.34	26848.29
547.50	27358.52
547.67	26876.37
547.84	27098.72
548.00	27096.38
548.17	26974.67
548.34	26881.05
548.51	26967.65
548.67	27377.25
548.84	27150.21
549.01	27391.29
549.18	27026.17
549.34	26742.96
549.51	27407.67
549.68	27503.64
549.84	27026.17
550.01	27072.98
550.18	26717.22
550.34	27367.88
550.51	27487.25
550.68	27517.68
550.84	27054.25
551.01	27075.32
551.18	27309.37
551.34	26979.36
551.51	27080.00
551.68	27688.54
551.84	27344.48
552.01	27374.91
552.18	27613.64
552.34	27253.20
552.51	27646.41
552.68	27477.89
552.84	27599.60
553.01	27470.87
553.18	27637.05
553.34	27634.71
553.51	27793.86
553.67	27821.95
553.84	28320.48
554.01	27782.16
554.17	27733.01
554.34	27667.47
554.51	28170.69
554.67	28009.19
554.84	28009.19
555.00	28034.94
555.17	27489.59
555.33	28348.57
555.50	27915.57
555.67	28058.34
555.83	27941.32
556.00	28119.20
556.16	28098.13
556.33	28023.23
556.50	27978.76
556.66	28072.39
556.83	28535.81
556.99	28505.38
557.16	28261.97
557.32	28622.41
557.49	28474.96
557.65	28290.06
557.82	28191.75
557.98	28528.79
558.15	28070.04
558.32	28205.80
558.48	28079.41
558.65	28500.70
558.81	28510.07
558.98	28467.94
559.14	28409.42
559.31	28002.17
559.47	28395.38
559.64	28680.92
559.80	28636.45
559.97	28716.03
560.13	28683.27
560.30	28535.81
560.46	28744.12
560.63	28524.11
560.79	28528.79
560.96	28444.53
561.12	28528.79
561.29	28610.71
561.45	28734.76
561.61	28732.42
561.78	28898.59
561.94	28851.78
562.11	28758.16
562.27	28423.47
562.44	29022.64
562.60	28386.02
562.77	28730.08
562.93	28755.82
563.10	28481.98
563.26	28760.50
563.42	29081.16
563.59	28690.29
563.75	28456.23
563.92	28830.72
564.08	28678.58
564.24	28517.09
564.41	29078.82
564.57	28774.55
564.74	29034.35
564.90	29109.24
565.07	28746.46
565.23	28776.89
565.39	28961.79
565.56	29001.58
565.72	28877.53
565.88	29228.61
566.05	28933.70
566.21	28704.33
566.38	29130.31
566.54	29041.37
566.70	29254.36
566.87	28903.28
567.03	29214.57
567.19	29319.89
567.36	29453.30
567.52	29411.17
567.68	29043.71
567.85	29406.49
568.01	28940.72
568.17	29106.90
568.34	29479.05
568.50	29443.94
568.66	29113.92
568.83	29001.58
568.99	29165.42
569.15	29223.93
569.32	29097.54
569.48	29170.10
569.64	29720.12
569.81	29202.86
569.97	29111.58
570.13	29252.02
570.30	29369.04
570.46	29081.16
570.62	29329.25
570.78	28865.83
570.95	28973.49
571.11	29041.37
571.27	29132.65
571.43	29268.40
571.60	29624.16
571.76	29418.19
571.92	29415.85
572.09	29476.71
572.25	29575.01
572.41	29563.31
572.57	29324.57
572.74	29560.97
572.90	29174.78
573.06	29226.27
573.22	29249.67
573.38	29710.76
573.55	29212.23
573.71	29347.98
573.87	29390.11
574.03	29212.23
574.20	29312.87
574.36	29277.76
574.52	29034.35
574.68	29422.87
574.84	29560.97
575.01	29841.83
575.17	28973.49
575.33	29266.06
575.49	29275.42
575.65	29663.95
575.82	29862.90
575.98	29647.57
576.14	29378.40
576.30	29443.94
576.46	29762.25
576.62	29219.25
576.79	29474.37
576.95	29338.62
577.11	29397.13
577.27	29326.91
577.43	29509.47
577.59	29741.19
577.75	29404.15
577.92	29465.00
578.08	28936.04
578.24	29390.11
578.40	29373.72
578.56	29263.72
578.72	29607.78
578.88	29841.83
579.04	29928.43
579.21	29530.54
579.37	29755.23
579.53	29642.88
579.69	29223.93
579.85	29488.41
580.01	29399.47
580.17	29603.10
580.33	29734.17
580.49	29455.64
580.65	29682.67
580.82	29757.57
580.98	29890.98
581.14	29773.95
581.30	30031.41
581.46	29317.55
581.62	29769.27
581.78	29488.41
581.94	29642.88
582.10	29809.06
582.26	29626.50
582.42	29710.76
582.58	29659.27
582.74	29830.13
582.90	29355.00
583.06	30099.29
583.22	29687.36
583.38	29722.46
583.54	29497.77
583.70	29575.01
583.86	29876.94
584.02	29509.47
584.18	30040.78
584.34	29977.58
584.50	29933.11
584.66	29607.78
584.82	29514.16
584.98	29813.74
585.14	29820.77
585.30	29362.02
585.46	29537.56
585.62	29752.89
585.78	29820.77
585.94	29518.84
586.10	30059.50
586.26	29282.44
586.42	30204.61
586.58	29846.51
586.74	29474.37
586.90	29631.18
587.06	29851.19
587.22	29652.25
587.38	29722.46
587.54	30005.67
587.70	30073.54
587.86	30038.44
588.02	29830.13
588.18	30551.01
588.34	29923.75
588.49	29982.26
588.65	29727.14
588.81	29926.09
588.97	30089.93
589.13	29731.83
589.29	29764.59
589.45	29713.10
589.61	30085.25
589.77	30169.51
589.93	30167.16
590.08	30382.49
590.24	30239.72
590.40	29979.92
590.56	30288.87
590.72	29818.42
590.88	30171.85
591.04	30120.35
591.20	30494.84
591.35	30539.31
591.51	30331.00
591.67	30487.82
591.83	30008.01
591.99	30464.41
592.15	30602.50
592.31	30178.87
592.46	29677.99
592.62	30174.19
592.78	29776.30
592.94	30003.33
593.10	29780.98
593.26	30286.53
593.41	30260.79
593.57	29954.18
593.73	30043.12
593.89	30277.17
594.05	30080.56
594.20	29841.83
594.36	30422.28
594.52	29979.92
594.68	30127.38
594.84	29935.45
594.99	30211.64
595.15	30270.15
595.31	30546.33
595.47	30017.37
595.62	29923.75
595.78	30359.09
595.94	30476.12
596.10	30213.98
596.25	30398.88
596.41	30127.38
596.57	29984.60
596.73	30101.63
596.88	30136.74
597.04	30192.91
597.20	30733.57
597.36	30171.85
597.51	30426.96
597.67	30331.00
597.83	29935.45
597.99	30228.02
598.14	30078.22
598.30	30176.53
598.46	29982.26
598.61	30478.46
598.77	30284.19
598.93	30361.43
599.09	30689.10
599.24	30712.51
599.40	30228.02
599.56	30768.68
599.71	30579.10
599.87	30637.61
600.03	30089.93
600.18	30305.26
600.34	30132.06
600.50	30319.30
600.65	30204.61
600.81	30476.12
600.97	30223.34
601.12	30183.55
601.28	30452.71
601.44	30237.38
601.59	30417.60
601.75	30326.32
601.91	30438.67
602.06	30478.46
602.22	30363.77
602.37	29898.00
602.53	30228.02
602.69	30745.28
602.84	30450.37
603.00	30431.65
603.16	30621.23
603.31	30611.87
603.47	30314.62
603.62	30160.14
603.78	30309.94
603.94	30132.06
604.09	30466.75
604.25	30281.85
604.40	30085.25
604.56	30340.36
604.71	30352.07
604.87	30466.75
605.03	30115.67
605.18	30965.29
605.34	30562.72
605.49	30129.72
605.65	30265.47
605.80	30043.12
605.96	30394.20
606.12	30300.58
606.27	30333.34
606.43	30244.40
606.58	30710.17
606.74	30628.25
606.89	30422.28
607.05	30621.23
607.20	30064.18
607.36	30232.70
607.51	30054.82
607.67	30415.26
607.82	30061.84
607.98	30029.07
608.13	30284.19
608.29	29851.19
608.44	30412.92
608.60	30106.31
608.75	30235.04
608.91	30230.36
609.06	30087.59
609.22	30377.81
609.37	30005.67
609.53	30391.86
609.68	30244.40
609.84	30115.67
609.99	29954.18
610.15	30019.71
610.30	30122.69
610.46	30005.67
610.61	30270.15
610.76	30155.46
610.92	30103.97
611.07	29965.88
611.23	29900.34
611.38	30057.16
611.54	29780.98
611.69	29567.99
611.84	29436.92
612.00	29649.91
612.15	29921.41
612.31	29986.94
612.46	30043.12
612.62	30005.67
612.77	29851.19
612.92	30022.05
613.08	29242.65
613.23	29776.30
613.39	30066.52
613.54	29270.74
613.69	29862.90
613.85	29890.98
614.00	29715.44
614.15	29853.53
614.31	29921.41
614.46	29780.98
614.62	29937.79
614.77	29790.34
614.92	29635.86
615.08	29598.41
615.23	29556.28
615.38	29769.27
615.54	29483.73
615.69	29488.41
615.84	29209.89
616.00	29495.43
616.15	29811.40
616.30	29628.84
616.46	29582.03
616.61	29652.25
616.76	29699.06
616.92	29275.42
617.07	29659.27
617.22	29099.88
617.37	29605.44
617.53	29474.37
617.68	29380.74
617.83	29357.34
617.99	29188.82
618.14	29207.55
618.29	29315.21
618.45	29315.21
618.60	29275.42
618.75	29570.33
618.90	29586.71
619.06	29345.64
619.21	29479.05
619.36	29570.33
619.51	29111.58
619.67	29270.74
619.82	29158.39
619.97	28783.91
620.12	29244.99
620.28	28973.49
620.43	29352.66
620.58	29226.27
620.73	29186.48
620.89	29195.84
621.04	29270.74
621.19	29518.84
621.34	29223.93
621.49	28996.90
621.65	29006.26
621.80	29109.24
621.95	28746.46
622.10	29181.80
622.25	28987.53
622.41	28627.09
622.56	28851.78
622.71	29240.31
622.86	29024.98
623.01	29067.11
623.16	28982.85
623.32	29010.94
623.47	28816.68
623.62	28704.33
623.77	28657.52
623.92	28889.23
624.07	28933.70
624.23	28474.96
624.38	28837.74
624.53	28875.19
624.68	28954.77
624.83	29146.69
624.98	29149.03
625.13	28587.30
625.29	28706.67
625.44	28701.99
625.59	28386.02
625.74	28563.90
625.89	28395.38
626.04	28601.35
626.19	28390.70
626.34	28238.56
626.49	28531.13
626.65	28371.97
626.80	28563.90
626.95	28472.62
627.10	28231.54
627.25	28526.45
627.40	28311.12
627.55	28044.30
627.70	28081.75
627.85	28540.49
628.00	28130.90
628.15	28376.66
628.30	28268.99
628.45	28371.97
628.60	28201.11
628.76	28376.66
628.91	28566.24
629.06	28084.09
629.21	28327.50
629.36	28297.08
629.51	27821.95
629.66	28137.92
629.81	28184.73
629.96	27803.22
630.11	27976.42
630.26	28009.19
630.41	27892.16
630.56	28081.75
630.71	27889.82
630.86	27819.61
631.01	27957.70
631.16	28086.43
631.31	27964.72
631.46	27810.25
631.61	27791.52
631.76	27894.50
631.91	27901.53
632.06	27716.62
632.21	27817.27
632.36	27681.52
632.51	27363.20
632.66	27641.73
632.81	27363.20
632.96	27728.33
633.10	27531.72
633.25	27807.90
633.40	27641.73
633.55	27728.33
633.70	27248.52
633.85	27564.49
634.00	27414.69
634.15	27740.03
634.30	27583.21
634.45	27601.94
634.60	27199.37
634.75	27571.51
634.90	27475.55
635.05	27871.10
635.19	27360.86
635.34	27791.52
635.49	27288.31
635.64	27482.57
635.79	27627.68
635.94	27597.26
636.09	27772.80
636.24	27147.87
636.39	26918.50
636.53	27342.14
636.68	27374.91
636.83	27484.91
636.98	27098.72
637.13	27154.90
637.28	27218.09
637.43	27374.91
637.57	27363.20
637.72	27138.51
637.87	26913.82
638.02	27091.70
638.17	26913.82
638.32	27255.54
638.46	27077.66
638.61	26707.85
638.76	26698.49
638.91	27042.55
639.06	27206.39
639.20	26951.27
639.35	26899.78
639.50	27192.34
639.65	27484.91
639.80	26920.84
639.94	27250.86
640.09	27192.34
640.24	27014.46
640.39	26813.18
640.54	26768.71
640.68	26934.88
640.83	26616.57
640.98	26625.93
641.13	26476.14
641.27	27075.32
641.42	26665.72
641.57	26501.89
641.72	26850.63
641.86	26609.55
642.01	26836.58
642.16	26707.85
642.31	26499.55
642.45	26600.19
642.60	26281.88
642.75	26511.25
642.90	26485.50
643.04	26270.17
643.19	26291.24
643.34	26235.06
643.48	26469.12
643.63	26759.34
643.78	26656.36
643.93	26497.20
644.07	26595.51
644.22	26714.87
644.37	26195.28
644.51	26391.88
644.66	25965.90
644.81	26422.31
644.95	26139.10
645.10	26384.86
645.25	26272.51
645.39	26345.07
645.54	26319.32
645.69	26356.77
645.83	26298.26
645.98	26204.64
646.13	26146.12
646.27	26436.35
646.42	25818.45
646.57	26366.13
646.71	26122.72
646.86	25912.07
647.00	25930.80
647.15	26040.80
647.30	25813.77
647.44	25879.30
647.59	26001.01
647.74	25963.56
647.88	26026.76
648.03	25876.96
648.17	26136.76
648.32	25982.29
648.47	26331.03
648.61	26331.03
648.76	26082.93
648.90	26010.37
649.05	26103.99
649.20	25895.69
649.34	25759.94
649.49	25722.49
649.63	25839.51
649.78	25525.88
649.92	25406.52
650.07	25900.37
650.21	25933.14
650.36	25898.03
650.51	25839.51
650.65	25495.46
650.80	25769.30
650.94	26015.05
651.09	25603.12
651.23	25385.45
651.38	25694.40
651.52	25781.00
651.67	25713.13
651.81	25654.61
651.96	25378.43
652.10	25769.30
652.25	25514.18
652.39	25277.79
652.54	25724.83
652.68	25378.43
652.83	25663.97
652.97	25762.28
653.12	25546.95
653.26	25275.45
653.41	25448.64
653.55	25450.99
653.70	25406.52
653.84	25460.35
653.99	25462.69
654.13	25364.39
654.27	25188.85
654.42	25481.41
654.56	25404.17
654.71	25216.93
654.85	25340.98
655.00	25425.24
655.14	25539.93
655.29	25404.17
655.43	25434.60
655.57	25443.96
655.72	24964.15
655.86	25331.62
656.01	25078.84
656.15	24959.47
656.30	25025.01
656.44	25099.90
656.58	25118.63
656.73	24781.59
656.87	25132.67
657.01	24807.34
657.16	25120.97
657.30	25268.42
657.45	24538.18
657.59	24947.77
657.73	24882.24
657.88	25064.80
658.02	25127.99
658.16	24858.83
658.31	25013.31
658.45	24877.55
658.60	24570.94
658.74	24786.27
658.88	24767.55
659.03	24800.32
659.17	24491.37
659.31	24725.42
659.46	24615.41
659.60	24807.34
659.74	24577.97
659.89	24634.14
660.03	24444.56
660.17	24769.89
660.32	24306.46
660.46	24252.63
660.60	24393.06
660.74	24226.89
660.89	24346.25
661.03	24271.36
661.17	24320.51
661.32	24084.11
661.46	24311.14
661.60	24123.90
661.74	24114.54
661.89	24386.04
662.03	24517.11
662.17	24032.62
662.31	24133.26
662.46	24355.61
662.60	24016.24
662.74	24041.98
662.88	24100.50
663.03	23571.54
663.17	23758.78
663.31	23714.31
663.45	23681.54
663.60	23585.58
663.74	23463.87
663.88	23714.31
664.02	23484.94
664.17	23828.99
664.31	23606.64
664.45	23693.24
664.59	23627.71
664.73	23740.05
664.88	23538.77
665.02	23503.66
665.16	23197.05
665.30	23653.45
665.44	23531.75
665.59	23147.90
665.73	23346.84
665.87	23241.52
666.01	23417.06
666.15	23316.42
666.29	23112.79
666.44	23304.71
666.58	22888.10
666.72	23030.87
666.86	23171.30
667.00	23030.87
667.14	22750.01
667.28	22995.76
667.43	22780.43
667.57	22808.52
667.71	23108.11
667.85	22525.32
667.99	22883.42
668.13	22452.76
668.27	22693.83
668.41	23021.51
668.56	22635.32
668.70	22602.55
668.84	22731.28
668.98	22817.88
669.12	22457.44
669.26	22317.01
669.40	22455.10
669.54	22583.83
669.68	22614.26
669.82	21979.97
669.96	22239.77
670.10	21954.22
670.25	22099.34
670.39	22174.24
670.53	22410.63
670.67	22178.92
670.81	22389.56
670.95	21766.98
671.09	22075.93
671.23	22136.79
671.37	22059.55
671.51	22246.79
671.65	21741.24
671.79	22045.51
671.93	21933.16
672.07	22019.76
672.21	21649.96
672.35	21495.48
672.49	21448.67
672.63	21687.40
672.77	21341.00
672.91	21600.80
673.05	21488.46
673.19	21490.80
673.33	21226.32
673.47	21163.12
673.61	21610.17
673.75	21177.17
673.89	21223.98
674.03	21069.50
674.17	21088.23
674.31	21312.92
674.45	20975.88
674.59	20950.14
674.73	21027.37
674.87	20980.56
675.01	20999.29
675.15	20828.43
675.29	20692.68
675.43	20580.33
675.56	20751.19
675.70	20800.34
675.84	20697.36
675.98	20294.79
676.12	20739.49
676.26	20751.19
676.40	20823.75
676.54	20563.95
676.68	20460.96
676.82	20243.29
676.96	20112.22
677.10	20201.16
677.23	20074.77
677.37	19969.45
677.51	20100.52
677.65	19728.38
677.79	19964.77
677.93	19880.51
678.07	19793.91
678.21	19566.88
678.34	19917.96
678.48	19747.10
678.62	19473.26
678.76	19555.18
678.90	19358.57
679.04	19360.91
679.18	19506.02
679.31	18993.45
679.45	19133.88
679.59	19154.94
679.73	18878.76
679.87	19077.71
680.00	18668.11
680.14	19056.64
680.28	18724.29
680.42	18700.88
680.56	18932.59
680.70	18569.81
680.83	18923.23
680.97	18771.10
681.11	18810.89
681.25	18640.03
681.39	18700.88
681.52	18728.97
681.66	18164.90
681.80	18333.42
681.94	18314.69
682.07	18317.03
682.21	18005.74
682.35	17914.46
682.49	17767.01
682.62	17919.14
682.76	17956.59
682.90	17888.71
683.04	17685.09
683.17	17727.22
683.31	17916.80
683.45	17935.53
683.59	17792.75
683.72	17907.44
683.86	17584.44
684.00	17633.60
684.13	17596.15
684.27	17504.87
684.41	17324.65
684.55	17266.13
684.68	17165.49
684.82	17034.42
684.96	16917.39
685.09	17256.77
685.23	16856.54
685.37	16980.59
685.50	17025.06
685.64	16755.90
685.78	16910.37
685.91	17233.36
686.05	16947.82
686.19	16610.78
686.32	16578.01
686.46	16531.20
686.60	16346.30
686.73	16608.44
686.87	16510.14
687.01	16372.05
687.14	16304.17
687.28	16135.65
687.42	16023.31
687.55	15932.03
687.69	16065.44
687.82	15908.62
687.96	16018.63
688.10	16259.70
688.23	15955.43
688.37	15829.04
688.50	16004.58
688.64	15700.31
688.78	15686.27
688.91	15976.50
689.05	15522.43
689.18	15658.18
689.32	15290.72
689.46	15274.34
689.59	15396.04
689.73	15269.66
689.86	15213.48
690.00	15059.01
690.13	15108.16
690.27	15105.82
690.41	15194.76
690.54	15068.37
690.68	14991.13
690.81	15073.05
690.95	15194.76
691.08	14857.72
691.22	14696.22
691.35	14618.99
691.49	14661.12
691.62	14850.70
691.76	14621.33
691.89	14487.92
692.03	14373.23
692.16	14267.91
692.30	14022.15
692.43	14190.67
692.57	14235.14
692.70	14183.65
692.84	14068.96
692.97	14108.75
693.11	14054.92
693.24	13923.85
693.38	13877.04
693.51	14026.83
693.65	13898.10
693.78	13848.95
693.92	13722.56
694.05	13422.97
694.19	13628.94
694.32	13413.61
694.45	13287.22
694.59	13331.69
694.72	13247.43
694.86	13011.04
694.99	13195.94
695.13	13123.38
695.26	13013.38
695.39	13146.79
695.53	13142.11
695.66	13149.13
695.80	12938.48
695.93	13231.05
696.07	12861.24
696.20	13018.06
696.33	12746.56
696.47	12814.43
696.60	12840.18
696.73	12704.43
696.87	12627.19
697.00	12629.53
697.14	12482.08
697.27	12231.64
697.40	12400.16
697.54	12315.90
697.67	12215.26
697.80	12201.21
697.94	12119.29
698.07	11939.07
698.21	12004.61
698.34	12039.72
698.47	11983.54
698.61	12016.31
698.74	12023.33
698.87	12042.06
699.01	11962.48
699.14	11910.99
699.27	11555.22
699.40	11754.17
699.54	11639.48
699.67	11651.19
699.80	11417.13
699.94	11274.36
700.07	11356.28
700.20	11470.97
700.34	11300.11
700.47	11206.48
700.60	11164.36
700.73	11201.80
700.87	11213.51
701.00	11162.01
701.13	11009.88
701.26	11119.89
701.40	11049.67
701.53	10801.57
701.66	10895.19
701.79	10841.36
701.93	10839.02
702.06	10874.13
702.19	10516.03
702.32	10427.09
702.46	10436.45
702.59	10368.57
702.72	10328.78
702.85	10373.25
702.99	10436.45
703.12	10410.70
703.25	10190.69
703.38	10382.62
703.51	10190.69
703.65	10293.68
703.78	10127.50
703.91	10024.51
704.04	10118.14
704.17	10237.50
704.31	10061.96
704.44	10113.45
704.57	10094.73
704.70	9841.95
704.83	9696.84
704.96	9635.99
705.10	9834.93
705.23	9397.25
>>>>>End Processed Spectral Data<<<<<
