SpectraSuite Data File
++++++++++++++++++++++++++++++++++++
Date: Fri Oct 18 13:58:03 GMT-05:00 2013
User: bianchi
Dark Spectrum Present: No
Reference Spectrum Present: No
Number of Sampled Component Spectra: 1
Spectrometers: USB2+H05261
Integration Time (usec): 50000 (USB2+H05261)
Spectra Averaged: 1 (USB2+H05261)
Boxcar Smoothing: 0 (USB2+H05261)
Correct for Electrical Dark: No (USB2+H05261)
Strobe/Lamp Enabled: No (USB2+H05261)
Correct for Detector Non-linearity: No (USB2+H05261)
Correct for Stray Light: No (USB2+H05261)
Number of Pixels in Processed Spectrum: 2048
>>>>>Begin Processed Spectral Data<<<<<
365.73	0.00
365.92	0.00
366.12	0.00
366.32	0.00
366.52	0.00
366.72	0.00
366.91	0.00
367.11	0.00
367.31	0.00
367.51	0.00
367.70	0.00
367.90	0.00
368.10	0.00
368.30	0.00
368.49	0.00
368.69	0.00
368.89	0.00
369.09	0.00
369.28	0.00
369.48	0.00
369.68	0.00
369.87	0.00
370.07	0.00
370.27	0.00
370.47	0.00
370.66	28.09
370.86	91.28
371.06	177.88
371.25	135.75
371.45	84.26
371.65	163.84
371.84	110.01
372.04	117.03
372.24	175.54
372.44	161.50
372.63	227.03
372.83	166.18
373.03	203.63
373.22	222.35
373.42	243.42
373.62	224.69
373.81	194.26
374.01	215.33
374.21	222.35
374.40	203.63
374.60	205.97
374.79	245.76
374.99	290.23
375.19	318.31
375.38	273.84
375.58	264.48
375.78	315.97
375.97	248.10
376.17	301.93
376.37	348.74
376.56	187.24
376.76	234.05
376.95	278.52
377.15	276.18
377.35	283.20
377.54	269.16
377.74	210.65
377.93	269.16
378.13	301.93
378.33	280.86
378.52	266.82
378.72	273.84
378.91	259.80
379.11	322.99
379.31	325.33
379.50	280.86
379.70	344.06
379.89	330.02
380.09	311.29
380.28	273.84
380.48	332.36
380.68	285.55
380.87	341.72
381.07	332.36
381.26	360.44
381.46	297.25
381.65	339.38
381.85	348.74
382.04	339.38
382.24	285.55
382.43	322.99
382.63	351.08
382.83	353.42
383.02	292.57
383.22	428.32
383.41	367.46
383.61	299.59
383.80	362.78
384.00	320.65
384.19	283.20
384.39	430.66
384.58	463.43
384.78	390.87
384.97	383.85
385.17	369.80
385.36	358.10
385.56	355.76
385.75	360.44
385.95	313.63
386.14	395.55
386.34	327.68
386.53	351.08
386.72	341.72
386.92	365.12
387.11	369.80
387.31	390.87
387.50	465.77
387.70	402.57
387.89	423.64
388.09	430.66
388.28	484.49
388.48	456.40
388.67	479.81
388.86	521.94
389.06	409.59
389.25	404.91
389.45	461.09
389.64	507.90
389.84	463.43
390.03	524.28
390.22	433.00
390.42	372.15
390.61	418.96
390.81	503.22
391.00	519.60
391.19	468.11
391.39	479.81
391.58	500.87
391.78	451.72
391.97	454.06
392.16	547.69
392.36	535.98
392.55	512.58
392.75	543.00
392.94	587.47
393.13	571.09
393.33	498.53
393.52	561.73
393.71	540.66
393.91	571.09
394.10	550.03
394.29	610.88
394.49	510.24
394.68	564.07
394.88	704.50
395.07	571.09
395.26	645.99
395.46	592.16
395.65	648.33
395.84	617.90
396.04	683.44
396.23	631.94
396.42	653.01
396.62	538.32
396.81	671.73
397.00	688.12
397.19	559.39
397.39	683.44
397.58	657.69
397.77	610.88
397.97	615.56
398.16	692.80
398.35	688.12
398.55	650.67
398.74	730.25
398.93	779.40
399.12	770.04
399.32	795.78
399.51	748.97
399.70	816.85
399.90	730.25
400.09	737.27
400.28	781.74
400.47	828.55
400.67	809.83
400.86	786.42
401.05	716.20
401.24	662.37
401.44	809.83
401.63	788.76
401.82	828.55
402.01	851.96
402.21	847.27
402.40	807.48
402.59	802.80
402.78	866.00
402.97	793.44
403.17	828.55
403.36	800.46
403.55	873.02
403.74	950.26
403.93	903.45
404.13	954.94
404.32	1034.52
404.51	858.98
404.70	870.68
404.89	968.98
405.09	936.21
405.28	915.15
405.47	929.19
405.66	1055.58
405.85	1006.43
406.05	910.47
406.24	961.96
406.43	945.58
406.62	1022.81
406.81	1048.56
407.00	1055.58
407.20	929.19
407.39	1078.99
407.58	1022.81
407.77	1048.56
407.96	1111.75
408.15	1064.94
408.34	978.34
408.54	1111.75
408.73	1081.33
408.92	1184.31
409.11	1114.10
409.30	1097.71
409.49	1170.27
409.68	1156.22
409.87	1203.04
410.07	1156.22
410.26	1214.74
410.45	1210.06
410.64	1170.27
410.83	1191.33
411.02	1200.69
411.21	1219.42
411.40	1172.61
411.59	1156.22
411.78	1254.53
411.98	1277.93
412.17	1210.06
412.36	1224.10
412.55	1338.79
412.74	1343.47
412.93	1392.62
413.12	1273.25
413.31	1355.17
413.50	1306.02
413.69	1411.34
413.88	1401.98
414.07	1495.60
414.26	1394.96
414.45	1472.20
414.64	1446.45
414.83	1418.36
415.02	1556.46
415.22	1526.03
415.41	1647.74
415.60	1537.73
415.79	1467.52
415.98	1661.78
416.17	1519.01
416.36	1554.12
416.55	1678.16
416.74	1694.55
416.93	1640.72
417.12	1652.42
417.31	1678.16
417.50	1764.76
417.69	1816.26
417.88	1727.32
418.07	1809.23
418.26	1769.44
418.45	1764.76
418.64	1795.19
418.83	1717.95
419.02	1781.15
419.21	1760.08
419.39	1842.00
419.58	1832.64
419.77	1879.45
419.96	1902.86
420.15	1928.60
420.34	1877.11
420.53	1898.17
420.72	1886.47
420.91	1888.81
421.10	1834.98
421.29	1907.54
421.48	1956.69
421.67	1996.48
421.86	2059.67
422.05	2031.58
422.24	1977.75
422.43	1977.75
422.61	1980.09
422.80	2052.65
422.99	2099.46
423.18	2052.65
423.37	2115.84
423.56	2031.58
423.75	2059.67
423.94	2022.22
424.13	1907.54
424.32	1916.90
424.50	2043.29
424.69	2176.70
424.88	2076.06
425.07	2104.14
425.26	1937.96
425.45	2118.18
425.64	1959.03
425.83	2078.40
426.01	2106.48
426.20	2038.61
426.39	2071.37
426.58	2062.01
426.77	2118.18
426.96	2094.78
427.15	2125.21
427.33	2134.57
427.52	2104.14
427.71	2125.21
427.90	2069.03
428.09	2186.06
428.28	2186.06
428.46	2270.32
428.65	2218.83
428.84	2174.36
429.03	2368.62
429.22	2218.83
429.40	2176.70
429.59	2263.30
429.78	2062.01
429.97	2169.68
430.16	2232.87
430.34	2270.32
430.53	2279.68
430.72	2403.73
430.91	2253.94
431.10	2310.11
431.28	2340.54
431.47	2504.37
431.66	2541.82
431.85	2314.79
432.03	2424.80
432.22	2450.54
432.41	2466.92
432.60	2373.30
432.79	2392.03
432.97	2469.27
433.16	2429.48
433.35	2466.92
433.54	2476.29
433.72	2476.29
433.91	2572.25
434.10	2633.10
434.28	2459.90
434.47	2464.58
434.66	2588.63
434.85	2513.74
435.03	2539.48
435.22	2663.53
435.41	2609.70
435.59	2686.94
435.78	2609.70
435.97	2628.42
436.16	2644.81
436.34	2722.04
436.53	2658.85
436.72	2864.82
436.90	2626.08
437.09	2764.17
437.28	2712.68
437.46	2612.04
437.65	2649.49
437.84	2780.56
438.02	2785.24
438.21	2754.81
438.40	2768.85
438.58	2904.60
438.77	2916.31
438.96	2745.45
439.14	2993.55
439.33	2977.16
439.52	2885.88
439.70	2956.10
439.89	2981.84
440.08	3045.04
440.26	3054.40
440.45	2993.55
440.63	3059.08
440.82	3215.90
441.01	3101.21
441.19	3197.17
441.38	3157.38
441.57	3232.28
441.75	3332.92
441.94	3208.87
442.12	3236.96
442.31	3220.58
442.50	3304.84
442.68	3337.60
442.87	3346.97
443.05	3407.82
443.24	3372.71
443.43	3410.16
443.61	3478.04
443.80	3421.86
443.98	3421.86
444.17	3377.39
444.35	3269.73
444.54	3515.48
444.73	3435.91
444.91	3440.59
445.10	3459.31
445.28	3412.50
445.47	3559.95
445.65	3400.80
445.84	3459.31
446.02	3592.72
446.21	3503.78
446.39	3361.01
446.58	3545.91
446.77	3393.78
446.95	3545.91
447.14	3487.40
447.32	3618.47
447.51	3480.38
447.69	3426.54
447.88	3520.17
448.06	3471.01
448.25	3412.50
448.43	3648.90
448.62	3555.27
448.80	3442.93
448.99	3564.64
449.17	3571.66
449.36	3517.83
449.54	3702.73
449.73	3709.75
449.91	3555.27
450.10	3791.67
450.28	3847.84
450.46	3756.56
450.65	3686.34
450.83	3836.14
451.02	3709.75
451.20	3679.32
451.39	3808.05
451.57	3798.69
451.76	3761.24
451.94	3805.71
452.13	3946.14
452.31	3976.57
452.49	3709.75
452.68	3871.25
452.86	3843.16
453.05	3939.12
453.23	3936.78
453.42	3875.93
453.60	3864.22
453.78	3850.18
453.97	3850.18
454.15	3988.27
454.34	3847.84
454.52	4128.70
454.70	3908.69
454.89	3964.87
455.07	4042.11
455.26	3871.25
455.44	4133.39
455.62	4060.83
455.81	4128.70
455.99	4098.28
456.17	4152.11
456.36	4079.55
456.54	4189.56
456.73	4264.46
456.91	4348.72
457.09	4407.23
457.28	4351.06
457.46	4301.90
457.64	4425.95
457.83	4278.50
458.01	4269.14
458.19	4278.50
458.38	4430.63
458.56	4552.34
458.74	4557.02
458.93	4428.29
459.11	4461.06
459.29	4355.74
459.48	4421.27
459.66	4409.57
459.84	4566.39
460.03	4660.01
460.21	4573.41
460.39	4425.95
460.57	4512.55
460.76	4601.49
460.94	4720.86
461.12	4580.43
461.31	4629.58
461.49	4615.54
461.67	4669.37
461.85	4599.15
462.04	4688.09
462.22	5004.07
462.40	4870.65
462.59	4723.20
462.77	4784.06
462.95	4748.95
463.13	4805.12
463.32	4882.36
463.50	4727.88
463.68	4868.31
463.86	4978.32
464.05	4849.59
464.23	5032.15
464.41	4964.28
464.59	4830.87
464.78	5018.11
464.96	4994.70
465.14	4894.06
465.32	5114.07
465.50	5008.75
465.69	5041.51
465.87	4957.25
466.05	4968.96
466.23	5020.45
466.41	5104.71
466.60	5158.54
466.78	4936.19
466.96	4952.57
467.14	5102.37
467.32	5090.67
467.51	5188.97
467.69	5048.54
467.87	5050.88
468.05	5062.58
468.23	5060.24
468.41	5095.35
468.60	5280.25
468.78	5277.91
468.96	5090.67
469.14	5268.55
469.32	5282.59
469.50	5261.52
469.69	5310.68
469.87	5446.43
470.05	5542.39
470.23	5423.02
470.41	5219.39
470.59	5357.49
470.77	5565.79
470.95	5500.26
471.14	5481.53
471.32	5357.49
471.50	5631.33
471.68	5668.78
471.86	5703.89
472.04	5516.64
472.22	5769.42
472.40	5586.86
472.58	5783.46
472.77	5678.14
472.95	5650.05
473.13	6083.05
473.31	5743.67
473.49	5788.14
473.67	5736.65
473.85	5783.46
474.03	6026.88
474.21	6064.33
474.39	5982.41
474.57	6150.93
474.75	6157.95
474.93	6190.72
475.12	6141.57
475.30	6305.40
475.48	6265.61
475.66	6321.79
475.84	6401.37
476.02	6256.25
476.20	6392.00
476.38	6408.39
476.56	6462.22
476.74	6633.08
476.92	6420.09
477.10	6520.73
477.28	6675.21
477.46	6764.15
477.64	6693.93
477.82	6764.15
478.00	6899.90
478.18	6932.67
478.36	6995.86
478.54	7056.72
478.72	7159.70
478.90	7045.01
479.08	7148.00
479.26	7155.02
479.44	7124.59
479.62	7332.90
479.80	7520.14
479.98	7449.93
480.16	7452.27
480.34	7604.40
480.52	7737.81
480.70	7590.36
480.88	7590.36
481.06	7698.02
481.24	7765.90
481.41	7726.11
481.59	8021.02
481.77	8013.99
481.95	7971.86
482.13	8168.47
482.31	7971.86
482.49	8367.42
482.67	8245.71
482.85	8262.09
483.03	8491.46
483.21	8402.52
483.39	8685.73
483.57	8758.28
483.74	8519.55
483.92	8912.76
484.10	8887.01
484.28	8943.19
484.46	8985.32
484.64	9043.83
484.82	8990.00
485.00	9240.44
485.18	9240.44
485.35	9720.24
485.53	9472.15
485.71	9657.05
485.89	9736.63
486.07	9673.43
486.25	9556.41
486.43	9781.10
486.61	9846.63
486.78	10101.75
486.96	9921.53
487.14	10375.59
487.32	10143.88
487.50	10155.58
487.68	10258.57
487.85	10303.04
488.03	10422.41
488.21	10705.61
488.39	10574.54
488.57	10658.80
488.75	10717.31
488.92	10677.52
489.10	11068.39
489.28	10974.77
489.46	10944.34
489.64	11122.23
489.81	11384.37
489.99	11330.53
490.17	11410.11
490.35	11754.17
490.53	11414.79
490.70	11882.90
490.88	11698.00
491.06	11634.80
491.24	11831.41
491.41	11782.26
491.59	11742.47
491.77	11967.16
491.95	12266.75
492.13	12184.83
492.30	12276.11
492.48	12453.99
492.66	12315.90
492.84	12432.93
493.01	12631.87
493.19	12397.82
493.37	12648.26
493.54	12704.43
493.72	12760.60
493.90	12947.84
494.08	12957.21
494.25	13312.97
494.43	13057.85
494.61	13174.88
494.79	13259.13
494.96	13366.80
495.14	13516.59
495.32	13703.84
495.49	13509.57
495.67	13586.81
495.85	13851.29
496.02	13865.33
496.20	13678.09
496.38	13989.38
496.55	14132.15
496.73	14499.62
496.91	14008.11
497.09	14410.68
497.26	14202.37
497.44	14410.68
497.62	14626.01
497.79	14649.41
497.97	14434.08
498.14	14520.68
498.32	14707.93
498.50	14740.69
498.67	15082.41
498.85	14904.53
499.03	15206.46
499.20	15241.57
499.38	15346.89
499.56	15241.57
499.73	15482.64
499.91	15452.22
500.08	15756.49
500.26	15424.13
500.44	15669.89
500.61	15517.75
500.79	15676.91
500.97	15765.85
501.14	15445.20
501.32	15754.15
501.49	15735.42
501.67	15719.04
501.84	15679.25
502.02	16255.02
502.20	16358.00
502.37	16210.55
502.55	15988.20
502.72	16568.65
502.90	16159.06
503.07	16098.20
503.25	16252.68
503.43	16262.04
503.60	16627.17
503.78	16641.21
503.95	16716.11
504.13	16627.17
504.30	16627.17
504.48	16657.59
504.65	16893.99
504.83	16842.50
505.01	17034.42
505.18	17273.15
505.36	17153.79
505.53	17060.16
505.71	16973.56
505.88	17282.52
506.06	17137.40
506.23	17404.22
506.41	17392.52
506.58	17589.13
506.76	17565.72
506.93	17242.73
507.11	17509.55
507.28	17743.60
507.46	17504.87
507.63	17846.58
507.81	17692.11
507.98	17778.71
508.16	18061.91
508.33	17874.67
508.50	17858.29
508.68	17998.72
508.85	18160.22
509.03	18267.88
509.20	18150.85
509.38	18169.58
509.55	18590.88
509.73	18637.69
509.90	18459.81
510.08	18349.80
510.25	18700.88
510.42	18726.63
510.60	18848.33
510.77	18824.93
510.95	18890.46
511.12	18614.28
511.30	18820.25
511.47	18939.62
511.64	19096.43
511.82	18822.59
511.99	19206.44
512.17	18974.72
512.34	18920.89
512.51	19110.47
512.69	19197.07
512.86	19187.71
513.04	19812.63
513.21	19403.04
513.38	19520.07
513.56	19803.27
513.73	19676.88
513.90	19894.55
514.08	19625.39
514.25	19709.65
514.43	19632.41
514.60	19946.05
514.77	19831.36
514.95	19978.81
515.12	19875.83
515.29	20018.60
515.47	20128.61
515.64	20180.10
515.81	20287.76
515.99	20074.77
516.16	20465.64
516.33	20491.39
516.51	20688.00
516.68	20535.86
516.85	20233.93
517.03	20400.11
517.20	20765.23
517.37	20615.44
517.54	20856.51
517.72	20713.74
517.89	20823.75
518.06	20678.63
518.24	20505.43
518.41	20467.98
518.58	20844.81
518.75	20849.49
518.93	20821.41
519.10	20980.56
519.27	21039.08
519.45	21099.93
519.62	21207.59
519.79	21212.28
519.96	21207.59
520.14	21125.68
520.31	21411.22
520.48	21446.33
520.65	21418.24
520.83	21408.88
521.00	21385.47
521.17	21619.53
521.34	21207.59
521.52	21532.93
521.69	21839.54
521.86	21743.58
522.03	22281.90
522.20	22036.14
522.38	21984.65
522.55	22010.40
522.72	21949.54
522.89	22052.53
523.07	22321.69
523.24	21977.63
523.41	22483.19
523.58	21825.50
523.75	22312.33
523.92	22031.46
524.10	22466.80
524.27	22595.53
524.44	22354.46
524.61	22932.57
524.78	22855.33
524.96	22628.30
525.13	22441.06
525.30	22696.17
525.47	22548.72
525.64	22782.77
525.81	22764.05
525.98	22890.44
526.16	22780.43
526.33	22794.48
526.50	23040.23
526.67	22752.35
526.84	22890.44
527.01	23154.92
527.18	23115.13
527.36	23353.87
527.53	23398.34
527.70	23487.28
527.87	23452.17
528.04	23449.83
528.21	23445.15
528.38	23318.76
528.55	23227.48
528.72	23335.14
528.89	23779.84
529.07	23435.78
529.24	23590.26
529.41	23803.25
529.58	23644.09
529.75	23534.09
529.92	23616.01
530.09	23592.60
530.26	23740.05
530.43	24058.37
530.60	23782.18
530.77	23611.32
530.94	23714.31
531.11	23765.80
531.28	23772.82
531.46	23814.95
531.63	23896.87
531.80	24049.00
531.97	24114.54
532.14	24409.45
532.31	24360.30
532.48	24161.35
532.65	24676.27
532.82	24299.44
532.99	24278.38
533.16	24669.25
533.33	24294.76
533.50	25032.03
533.67	24797.98
533.84	24329.87
534.01	24339.23
534.18	24278.38
534.35	25055.43
534.52	24357.96
534.69	24790.95
534.86	25219.27
535.03	24837.76
535.20	24933.73
535.37	24711.38
535.54	24807.34
535.71	24545.20
535.88	25156.08
536.05	25003.94
536.22	24966.49
536.38	24978.20
536.55	25181.82
536.72	25153.74
536.89	24882.24
537.06	25481.41
537.23	25111.61
537.40	25083.52
537.57	25160.76
537.74	25455.67
537.91	25551.63
538.08	25532.90
538.25	24858.83
538.42	25369.07
538.59	25563.33
538.75	25242.68
538.92	25179.48
539.09	25366.73
539.26	25701.42
539.43	25465.03
539.60	25708.44
539.77	25596.10
539.94	25621.84
540.11	25551.63
540.28	25666.31
540.44	25682.70
540.61	25535.24
540.78	25472.05
540.95	25855.90
541.12	25776.32
541.29	25961.22
541.46	25951.86
541.62	25979.95
541.79	26202.30
541.96	25750.57
542.13	26338.05
542.30	25806.75
542.47	26174.21
542.63	26040.80
542.80	26316.98
542.97	26691.47
543.14	26412.95
543.31	26267.83
543.48	26544.02
543.64	26785.09
543.81	26628.27
543.98	27016.80
544.15	26558.06
544.32	26696.15
544.48	26569.76
544.65	26937.23
544.82	26787.43
544.99	26321.66
545.16	26780.41
545.32	26600.19
545.49	27110.43
545.66	27012.12
545.83	26796.79
546.00	27367.88
546.16	26986.38
546.33	26682.11
546.50	26939.57
546.67	26757.00
546.83	27047.23
547.00	27182.98
547.17	26813.18
547.34	26948.93
547.50	27152.55
547.67	27185.32
547.84	27470.87
548.00	27094.04
548.17	27513.00
548.34	27386.61
548.51	27388.95
548.67	27431.08
548.84	27807.90
549.01	27625.34
549.18	27381.93
549.34	27255.54
549.51	27379.59
549.68	27232.13
549.84	27276.60
550.01	27529.38
550.18	27402.99
550.34	27660.45
550.51	27534.06
550.68	27339.80
550.84	27690.88
551.01	27545.76
551.18	27225.11
551.34	27370.22
551.51	27407.67
551.68	27758.75
551.84	27536.40
552.01	27978.76
552.18	27917.91
552.34	27833.65
552.51	27667.47
552.68	27962.38
552.84	28072.39
553.01	28250.27
553.18	28081.75
553.34	28027.92
553.51	27906.21
553.67	28362.61
553.84	28025.57
554.01	28542.83
554.17	28166.01
554.34	28374.31
554.51	28121.54
554.67	28198.77
554.84	28191.75
555.00	28063.02
555.17	28240.90
555.33	28334.53
555.50	28308.78
555.67	28332.18
555.83	27995.15
556.00	28332.18
556.16	28503.04
556.33	28250.27
556.50	28383.68
556.66	28697.31
556.83	28346.23
556.99	28940.72
557.16	28744.12
557.32	28776.89
557.49	28861.15
557.65	28077.07
557.82	28694.97
557.98	28755.82
558.15	28797.95
558.32	28704.33
558.48	28556.88
558.65	28701.99
558.81	28713.69
558.98	28804.97
559.14	28999.24
559.31	28594.32
559.47	28744.12
559.64	28936.04
559.80	28947.75
559.97	28793.27
560.13	28907.96
560.30	28638.80
560.46	28734.76
560.63	29113.92
560.79	28833.06
560.96	29317.55
561.12	29174.78
561.29	28725.39
561.45	28720.71
561.61	29039.03
561.78	29090.52
561.94	29472.03
562.11	29240.31
562.27	28940.72
562.44	28854.12
562.60	29127.97
562.77	29214.57
562.93	29490.75
563.10	29333.93
563.26	29483.73
563.42	29626.50
563.59	29254.36
563.75	28945.41
563.92	29156.05
564.08	29078.82
564.24	28856.46
564.41	29240.31
564.57	28828.38
564.74	29036.69
564.90	29252.02
565.07	29434.58
565.23	29780.98
565.39	29383.09
565.56	29663.95
565.72	29202.86
565.88	29212.23
566.05	28989.88
566.21	29259.04
566.38	29261.38
566.54	29392.45
566.70	29439.26
566.87	29869.92
567.03	29642.88
567.19	29659.27
567.36	29432.24
567.52	29521.18
567.68	29738.85
567.85	29441.60
568.01	29436.92
568.17	29310.53
568.34	29591.39
568.50	29638.20
568.66	29762.25
568.83	29935.45
568.99	29539.90
569.15	29413.51
569.32	29425.22
569.48	29603.10
569.64	29736.51
569.81	29570.33
569.97	29287.12
570.13	29773.95
570.30	29490.75
570.46	30082.91
570.62	29429.90
570.78	29397.13
570.95	29219.25
571.11	29876.94
571.27	29455.64
571.43	29439.26
571.60	30174.19
571.76	29432.24
571.92	29968.22
572.09	29813.74
572.25	29788.00
572.41	29963.54
572.57	29872.26
572.74	29914.39
572.90	29654.59
573.06	30089.93
573.22	29486.07
573.38	29502.45
573.55	29827.79
573.71	29809.06
573.87	30050.14
574.03	29771.61
574.20	29823.11
574.36	29830.13
574.52	29893.32
574.68	29860.55
574.84	29762.25
575.01	30181.21
575.17	29872.26
575.33	29582.03
575.49	29762.25
575.65	29996.31
575.82	29972.90
575.98	29532.88
576.14	29837.15
576.30	29993.97
576.46	29806.72
576.62	29633.52
576.79	29965.88
576.95	29830.13
577.11	30366.11
577.27	29862.90
577.43	30031.41
577.59	29762.25
577.75	30019.71
577.92	29549.26
578.08	29638.20
578.24	29659.27
578.40	30012.69
578.56	30132.06
578.72	30096.95
578.88	30331.00
579.04	29806.72
579.21	30050.14
579.37	29958.86
579.53	30410.58
579.69	29771.61
579.85	30050.14
580.01	30436.33
580.17	29558.63
580.33	30192.91
580.49	29759.91
580.65	29832.47
580.82	29993.97
580.98	30237.38
581.14	29993.97
581.30	30204.61
581.46	30216.32
581.62	29694.38
581.78	29820.77
581.94	29961.20
582.10	29766.93
582.26	30188.23
582.42	30099.29
582.58	30246.74
582.74	30237.38
582.90	29993.97
583.06	30012.69
583.22	29991.62
583.38	30103.97
583.54	29715.44
583.70	30471.43
583.86	30239.72
584.02	30209.29
584.18	30305.26
584.34	30122.69
584.50	30139.08
584.66	30003.33
584.82	30052.48
584.98	30174.19
585.14	30218.66
585.30	29773.95
585.46	30366.11
585.62	29954.18
585.78	30284.19
585.94	29912.05
586.10	30611.87
586.26	29989.28
586.42	30075.88
586.58	30466.75
586.74	30087.59
586.90	29977.58
587.06	30204.61
587.22	30459.73
587.38	30305.26
587.54	30106.31
587.70	30646.97
587.86	30569.74
588.02	30684.42
588.18	30396.54
588.34	30178.87
588.49	30216.32
588.65	30202.27
588.81	29867.58
588.97	30464.41
589.13	30293.55
589.29	30316.96
589.45	30560.37
589.61	30581.44
589.77	30239.72
589.93	30286.53
590.08	30724.21
590.24	30265.47
590.40	30525.27
590.56	30536.97
590.72	30300.58
590.88	30061.84
591.04	30354.41
591.20	30836.56
591.35	30614.21
591.51	30611.87
591.67	30906.77
591.83	30838.90
591.99	30515.90
592.15	30684.42
592.31	30806.13
592.46	30995.71
592.62	30398.88
592.78	30384.83
592.94	30211.64
593.10	30253.76
593.26	30782.73
593.41	30476.12
593.57	30616.55
593.73	30698.47
593.89	30522.93
594.05	30401.22
594.20	30239.72
594.36	30593.14
594.52	30855.28
594.68	30064.18
594.84	30532.29
594.99	30778.04
595.15	30785.07
595.31	30930.18
595.47	30349.73
595.62	30742.94
595.78	30419.94
595.94	30536.97
596.10	30981.67
596.25	30698.47
596.41	30473.78
596.57	30471.43
596.73	30604.84
596.88	30389.52
597.04	30934.86
597.20	30668.04
597.36	31187.64
597.51	31124.44
597.67	30721.87
597.83	30904.43
597.99	30965.29
598.14	30808.47
598.30	30682.08
598.46	30752.30
598.61	30691.44
598.77	30714.85
598.93	31124.44
599.09	30590.80
599.24	31030.82
599.40	30831.88
599.56	31042.53
599.71	30448.03
599.87	31110.40
600.03	30518.25
600.18	30663.36
600.34	30632.93
600.50	30916.14
600.65	30995.71
600.81	30520.59
600.97	31061.25
601.12	31054.23
601.28	31028.48
601.44	30560.37
601.59	30822.51
601.75	30682.08
601.91	30953.58
602.06	30771.02
602.22	30728.89
602.37	30768.68
602.53	30904.43
602.69	30335.68
602.84	30848.26
603.00	30677.40
603.16	30754.64
603.31	30829.54
603.47	30773.36
603.62	30665.70
603.78	30738.26
603.94	30565.06
604.09	30764.00
604.25	30389.52
604.40	30677.40
604.56	30960.61
604.71	31075.29
604.87	30742.94
605.03	30752.30
605.18	30808.47
605.34	30909.11
605.49	30724.21
605.65	30686.76
605.80	30522.93
605.96	30735.92
606.12	30625.91
606.27	31019.12
606.43	30319.30
606.58	30918.48
606.74	30874.01
606.89	31023.80
607.05	30775.70
607.20	30721.87
607.36	30579.10
607.51	31178.28
607.67	30628.25
607.82	30539.31
607.98	30569.74
608.13	30656.34
608.29	30277.17
608.44	30698.47
608.60	30260.79
608.75	30717.19
608.91	30888.05
609.06	30665.70
609.22	30675.06
609.37	30228.02
609.53	30235.04
609.68	30094.61
609.84	30359.09
609.99	30373.13
610.15	30576.76
610.30	30181.21
610.46	30455.05
610.61	30778.04
610.76	30443.35
610.92	30576.76
611.07	30143.76
611.23	30305.26
611.38	30295.89
611.54	30094.61
611.69	30382.49
611.84	30347.39
612.00	30628.25
612.15	29825.45
612.31	30352.07
612.46	30094.61
612.62	30579.10
612.77	30726.55
612.92	30478.46
613.08	30841.24
613.23	30197.59
613.39	30412.92
613.54	30010.35
613.69	30384.83
613.85	29872.26
614.00	30380.15
614.15	30441.01
614.31	29890.98
614.46	30422.28
614.62	30103.97
614.77	30260.79
614.92	30323.98
615.08	30174.19
615.23	30059.50
615.38	30162.48
615.54	29811.40
615.69	30155.46
615.84	29874.60
616.00	29802.04
616.15	29909.71
616.30	30075.88
616.46	30171.85
616.61	30199.93
616.76	30073.54
616.92	29909.71
617.07	30167.16
617.22	29556.28
617.37	30054.82
617.53	29848.85
617.68	29846.51
617.83	29689.70
617.99	29813.74
618.14	29661.61
618.29	30211.64
618.45	29645.23
618.60	29933.11
618.75	29827.79
618.90	29809.06
619.06	29633.52
619.21	29905.02
619.36	29617.14
619.51	29502.45
619.67	29579.69
619.82	29202.86
619.97	29860.55
620.12	29385.43
620.28	29385.43
620.43	29345.64
620.58	29926.09
620.73	29357.34
620.89	29406.49
621.04	29448.62
621.19	29247.33
621.34	29642.88
621.49	29401.81
621.65	29186.48
621.80	29153.71
621.95	28912.64
622.10	29518.84
622.25	29156.05
622.41	29600.76
622.56	29146.69
622.71	29504.79
622.86	29757.57
623.01	29347.98
623.16	29333.93
623.32	29216.91
623.47	29050.73
623.62	29188.82
623.77	29104.56
623.92	29301.17
624.07	29055.41
624.23	28952.43
624.38	29259.04
624.53	29027.32
624.68	29151.37
624.83	29521.18
624.98	29439.26
625.13	29146.69
625.29	29036.69
625.44	28858.81
625.59	28769.86
625.74	28659.86
625.89	28545.17
626.04	28608.37
626.19	29163.08
626.34	29249.67
626.49	28624.75
626.65	28765.18
626.80	28732.42
626.95	28713.69
627.10	28985.19
627.25	28814.34
627.40	28863.49
627.55	28781.57
627.70	28697.31
627.85	28868.17
628.00	28753.48
628.15	28577.94
628.30	28383.68
628.45	28821.36
628.60	28870.51
628.76	28601.35
628.91	28961.79
629.06	28645.82
629.21	28673.90
629.36	28797.95
629.51	28357.93
629.66	28456.23
629.81	28477.30
629.96	28191.75
630.11	28360.27
630.26	28238.56
630.41	28060.68
630.56	28226.86
630.71	28493.68
630.86	28339.21
631.01	28636.45
631.16	28624.75
631.31	28280.69
631.46	28158.99
631.61	28219.84
631.76	28355.59
631.91	28184.73
632.06	28402.40
632.21	28201.11
632.36	28416.44
632.51	27938.97
632.66	28341.55
632.81	27733.01
632.96	28411.76
633.10	27960.04
633.25	28306.44
633.40	28538.15
633.55	28149.62
633.70	28070.04
633.85	28084.09
634.00	27990.47
634.15	27899.19
634.30	27946.00
634.45	27819.61
634.60	27817.27
634.75	27845.35
634.90	28212.82
635.05	27938.97
635.19	27906.21
635.34	28350.91
635.49	28353.25
635.64	27913.23
635.79	27999.83
635.94	28013.87
636.09	27931.95
636.24	27538.74
636.39	27611.30
636.53	27871.10
636.68	27552.79
636.83	27878.12
636.98	27733.01
637.13	27658.11
637.28	27742.37
637.43	27707.26
637.57	27606.62
637.72	27552.79
637.87	27566.83
638.02	27674.49
638.17	27751.73
638.32	27571.51
638.46	27325.75
638.61	27496.61
638.76	27644.07
638.91	27693.22
639.06	27300.01
639.20	27417.04
639.35	27374.91
639.50	27431.08
639.65	27749.39
639.80	27571.51
639.94	27424.06
640.09	27477.89
640.24	27201.71
640.39	27285.97
640.54	27197.02
640.68	27131.49
640.83	27417.04
640.98	27063.61
641.13	26995.74
641.27	27548.11
641.42	26972.33
641.57	27309.37
641.72	27323.41
641.86	26867.01
642.01	26738.28
642.16	26778.07
642.31	26902.12
642.45	27112.77
642.60	26834.24
642.75	26686.79
642.90	26944.25
643.04	26867.01
643.19	26686.79
643.34	27035.53
643.48	26878.71
643.63	27063.61
643.78	26827.22
643.93	26820.20
644.07	26761.69
644.22	26941.91
644.37	27005.10
644.51	26892.76
644.66	26728.92
644.81	26614.23
644.95	26768.71
645.10	26476.14
645.25	26749.98
645.39	26623.59
645.54	26583.80
645.69	26876.37
645.83	27021.48
645.98	26859.99
646.13	27000.42
646.27	26923.18
646.42	26806.16
646.57	27009.78
646.71	26974.67
646.86	26342.73
647.00	26831.90
647.15	26368.48
647.30	26485.50
647.44	26288.90
647.59	26293.58
647.74	26298.26
647.88	26434.01
648.03	26401.24
648.17	26375.50
648.32	26602.53
648.47	26766.37
648.61	26059.52
648.76	26609.55
648.90	26586.15
649.05	26553.38
649.20	26293.58
649.34	26281.88
649.49	26043.14
649.63	25963.56
649.78	26363.79
649.92	25804.41
650.07	26431.67
650.21	26162.51
650.36	26272.51
650.51	25848.88
650.65	26167.19
650.80	26347.41
650.94	25998.67
651.09	25535.24
651.23	25888.67
651.38	25928.45
651.52	26005.69
651.67	25912.07
651.81	26204.64
651.96	26139.10
652.10	26195.28
652.25	26136.76
652.39	25998.67
652.54	26256.13
652.68	26057.18
652.83	26253.79
652.97	25841.85
653.12	25663.97
653.26	25928.45
653.41	25769.30
653.55	25905.05
653.70	25628.87
653.84	26019.74
653.99	25818.45
654.13	25809.09
654.27	25598.44
654.42	25722.49
654.56	25483.75
654.71	25731.85
654.85	25867.60
655.00	25600.78
655.14	25542.27
655.29	25383.11
655.43	25741.21
655.57	25472.05
655.72	25429.92
655.86	25596.10
656.01	25373.75
656.15	25399.49
656.30	25504.82
656.44	25359.70
656.58	25277.79
656.73	25165.44
656.87	25645.25
657.01	25186.50
657.16	25422.90
657.30	25769.30
657.45	25317.57
657.59	25385.45
657.73	25582.06
657.88	25181.82
658.02	25120.97
658.16	25170.12
658.31	25118.63
658.45	25249.70
658.60	24819.04
658.74	24865.85
658.88	24755.85
659.03	24711.38
659.17	25067.14
659.31	25041.39
659.46	24781.59
659.60	25195.87
659.74	25106.93
659.89	24863.51
660.03	24910.32
660.17	24748.82
660.32	24542.86
660.46	24931.39
660.60	24542.86
660.74	24786.27
660.89	24367.32
661.03	24482.00
661.17	24816.70
661.32	24678.61
661.46	24655.20
661.60	24662.22
661.74	24641.16
661.89	24655.20
662.03	24465.62
662.17	24364.98
662.31	24393.06
662.46	24512.43
662.60	24409.45
662.74	24563.92
662.88	24041.98
663.03	24039.64
663.17	24173.05
663.31	23929.64
663.45	24144.97
663.60	24297.10
663.74	23800.91
663.88	24126.24
664.02	24105.18
664.17	24198.80
664.31	24098.16
664.45	23920.28
664.59	24168.37
664.73	23817.29
664.88	24107.52
665.02	23850.06
665.16	23431.10
665.30	23702.61
665.44	23929.64
665.59	23391.31
665.73	23454.51
665.87	23145.56
666.01	23447.49
666.15	23784.52
666.29	23550.47
666.44	23201.73
666.58	23428.76
666.72	23431.10
666.86	23718.99
667.00	23669.84
667.14	23496.64
667.28	23096.41
667.43	23648.77
667.57	23311.74
667.71	23164.28
667.85	23276.63
667.99	23049.60
668.13	23026.19
668.27	23183.01
668.41	22967.68
668.56	22937.25
668.70	23101.09
668.84	23204.07
668.98	22998.10
669.12	22829.59
669.26	22993.42
669.40	22661.07
669.54	22766.39
669.68	22808.52
669.82	22611.92
669.96	22565.10
670.10	22560.42
670.25	22431.69
670.39	22527.66
670.53	22368.50
670.67	22490.21
670.81	22368.50
670.95	22387.22
671.09	22377.86
671.23	22361.48
671.37	22551.06
671.51	22534.68
671.65	22422.33
671.79	22295.94
671.93	22174.24
672.07	22366.16
672.21	22089.98
672.35	21979.97
672.49	21696.77
672.63	22054.87
672.77	21788.05
672.91	21750.60
673.05	21656.98
673.19	21755.28
673.33	21895.71
673.47	21806.77
673.61	21804.43
673.75	21675.70
673.89	21799.75
674.03	21418.24
674.17	21383.13
674.31	21472.07
674.45	21692.08
674.59	21429.94
674.73	21488.46
674.87	21584.42
675.01	21130.36
675.15	21116.31
675.29	21172.49
675.43	21350.37
675.56	21109.29
675.70	20840.13
675.84	21149.08
675.98	20496.07
676.12	21291.85
676.26	21057.80
676.40	20882.26
676.54	20601.40
676.68	20732.47
676.82	20690.34
676.96	20519.48
677.10	20463.30
677.23	20259.68
677.37	20088.82
677.51	20491.39
677.65	20460.96
677.79	20243.29
677.93	19829.02
678.07	20051.37
678.21	20023.28
678.34	20163.72
678.48	19955.41
678.62	19749.44
678.76	19805.61
678.90	19559.86
679.04	19557.52
679.18	19829.02
679.31	19960.09
679.45	19529.43
679.59	19667.52
679.73	19489.64
679.87	19349.21
680.00	19424.11
680.14	19206.44
680.28	18986.43
680.42	19108.13
680.56	19323.46
680.70	19119.84
680.83	19042.60
680.97	19077.71
681.11	19087.07
681.25	19014.51
681.39	18747.69
681.52	18953.66
681.66	18569.81
681.80	18787.48
681.94	18670.45
682.07	18368.52
682.21	18726.63
682.35	18200.01
682.49	18167.24
682.62	18195.32
682.76	17972.97
682.90	18317.03
683.04	18104.04
683.17	18185.96
683.31	18141.49
683.45	18396.61
683.59	17935.53
683.72	17956.59
683.86	17774.03
684.00	17619.55
684.13	17823.18
684.27	17685.09
684.41	17462.74
684.55	17371.46
684.68	17366.78
684.82	17509.55
684.96	17319.96
685.09	16982.93
685.23	17184.21
685.37	17472.10
685.50	17366.78
685.64	17177.19
685.78	17233.36
685.91	17071.87
686.05	16987.61
686.19	17186.55
686.32	17188.89
686.46	16805.05
686.60	16922.07
686.73	16692.70
686.87	16699.72
687.01	16453.97
687.14	16737.17
687.28	16388.43
687.42	16369.71
687.55	16018.63
687.69	16460.99
687.82	16145.02
687.96	16348.64
688.10	16287.79
688.23	16262.04
688.37	16145.02
688.50	15978.84
688.64	15826.70
688.78	16259.70
688.91	15850.11
689.05	16006.92
689.18	15796.28
689.32	15321.15
689.46	15372.64
689.59	15538.82
689.73	15405.41
689.86	15531.80
690.00	15461.58
690.13	15391.36
690.27	15300.08
690.41	15690.95
690.54	15023.90
690.68	15253.27
690.81	15566.90
690.95	15169.01
691.08	15267.31
691.22	15115.18
691.35	14995.81
691.49	15133.90
691.62	14930.28
691.76	14841.34
691.89	14944.32
692.03	14483.24
692.16	14527.71
692.30	14310.04
692.43	14167.26
692.57	14300.67
692.70	14160.24
692.84	14291.31
692.97	14293.65
693.11	14221.10
693.24	14361.53
693.38	14005.77
693.51	13811.50
693.65	14127.47
693.78	14267.91
693.92	13811.50
694.05	14008.11
694.19	13841.93
694.32	13736.60
694.45	13678.09
694.59	13591.49
694.72	13441.70
694.86	13561.06
694.99	13146.79
695.13	13359.78
695.26	13156.15
695.39	13022.74
695.53	13217.01
695.66	13247.43
695.80	13137.43
695.93	13139.77
696.07	13158.49
696.20	13242.75
696.33	13167.85
696.47	13069.55
696.60	13011.04
696.73	12858.90
696.87	12776.98
697.00	12940.82
697.14	12741.88
697.27	12414.20
697.40	12493.78
697.54	12421.22
697.67	12484.42
697.80	12262.07
697.94	12182.49
698.07	12231.64
698.21	12222.28
698.34	12269.09
698.47	12166.10
698.61	12044.40
698.74	12297.17
698.87	12411.86
699.01	11768.21
699.14	11793.96
699.27	11936.73
699.40	11932.05
699.54	11803.32
699.67	11875.88
699.80	11566.93
699.94	11548.20
700.07	11466.28
700.20	11510.75
700.34	11403.09
700.47	11536.50
700.60	11501.39
700.73	11260.32
700.87	11609.06
701.00	11403.09
701.13	11311.81
701.26	11274.36
701.40	11255.64
701.53	11119.89
701.66	11068.39
701.79	11061.37
701.93	11063.71
702.06	10848.38
702.19	10820.30
702.32	10668.16
702.46	10469.22
702.59	10525.39
702.72	10523.05
702.85	10686.89
702.99	10441.13
703.12	10553.48
703.25	10326.44
703.38	10373.25
703.51	10345.17
703.65	10370.91
703.78	10331.12
703.91	10232.82
704.04	10403.68
704.17	10164.95
704.31	10129.84
704.44	10073.67
704.57	10211.76
704.70	9921.53
704.83	10033.88
704.96	9799.82
705.10	9633.64
705.23	9790.46
>>>>>End Processed Spectral Data<<<<<
