SpectraSuite Data File
++++++++++++++++++++++++++++++++++++
Date: Fri Oct 18 13:58:08 GMT-05:00 2013
User: bianchi
Dark Spectrum Present: No
Reference Spectrum Present: No
Number of Sampled Component Spectra: 1
Spectrometers: USB2+H05261
Integration Time (usec): 50000 (USB2+H05261)
Spectra Averaged: 1 (USB2+H05261)
Boxcar Smoothing: 0 (USB2+H05261)
Correct for Electrical Dark: No (USB2+H05261)
Strobe/Lamp Enabled: No (USB2+H05261)
Correct for Detector Non-linearity: No (USB2+H05261)
Correct for Stray Light: No (USB2+H05261)
Number of Pixels in Processed Spectrum: 2048
>>>>>Begin Processed Spectral Data<<<<<
365.73	0.00
365.92	0.00
366.12	0.00
366.32	0.00
366.52	0.00
366.72	0.00
366.91	0.00
367.11	0.00
367.31	0.00
367.51	0.00
367.70	0.00
367.90	0.00
368.10	0.00
368.30	0.00
368.49	0.00
368.69	0.00
368.89	0.00
369.09	0.00
369.28	0.00
369.48	0.00
369.68	0.00
369.87	0.00
370.07	0.00
370.27	0.00
370.47	0.00
370.66	145.11
370.86	105.32
371.06	198.95
371.25	198.95
371.45	131.07
371.65	142.77
371.84	149.79
372.04	149.79
372.24	126.39
372.44	177.88
372.63	210.65
372.83	227.03
373.03	241.08
373.22	238.73
373.42	170.86
373.62	257.46
373.81	224.69
374.01	229.37
374.21	304.27
374.40	273.84
374.60	201.29
374.79	224.69
374.99	191.92
375.19	248.10
375.38	299.59
375.58	250.44
375.78	248.10
375.97	294.91
376.17	315.97
376.37	222.35
376.56	203.63
376.76	248.10
376.95	367.46
377.15	255.12
377.35	236.39
377.54	308.95
377.74	201.29
377.93	229.37
378.13	311.29
378.33	287.89
378.52	201.29
378.72	325.33
378.91	344.06
379.11	285.55
379.31	257.46
379.50	269.16
379.70	278.52
379.89	243.42
380.09	346.40
380.28	369.80
380.48	346.40
380.68	266.82
380.87	308.95
381.07	322.99
381.26	325.33
381.46	287.89
381.65	241.08
381.85	369.80
382.04	308.95
382.24	250.44
382.43	337.04
382.63	283.20
382.83	269.16
383.02	367.46
383.22	297.25
383.41	339.38
383.61	264.48
383.80	383.85
384.00	348.74
384.19	404.91
384.39	313.63
384.58	322.99
384.78	414.27
384.97	383.85
385.17	367.46
385.36	313.63
385.56	362.78
385.75	395.55
385.95	435.34
386.14	418.96
386.34	372.15
386.53	402.57
386.72	414.27
386.92	444.70
387.11	451.72
387.31	477.47
387.50	486.83
387.70	442.36
387.89	437.68
388.09	484.49
388.28	437.68
388.48	444.70
388.67	475.13
388.86	463.43
389.06	440.02
389.25	489.17
389.45	454.06
389.64	458.74
389.84	566.41
390.03	526.62
390.22	479.81
390.42	489.17
390.61	442.36
390.81	498.53
391.00	528.96
391.19	587.47
391.39	507.90
391.58	531.30
391.78	500.87
391.97	543.00
392.16	493.85
392.36	568.75
392.55	559.39
392.75	552.37
392.94	575.77
393.13	461.09
393.33	582.79
393.52	475.13
393.71	564.07
393.91	613.22
394.10	592.16
394.29	552.37
394.49	608.54
394.68	594.50
394.88	683.44
395.07	645.99
395.26	615.56
395.46	671.73
395.65	636.63
395.84	669.39
396.04	739.61
396.23	641.31
396.42	629.60
396.62	620.24
396.81	720.88
397.00	664.71
397.19	662.37
397.39	699.82
397.58	746.63
397.77	620.24
397.97	681.10
398.16	720.88
398.35	695.14
398.55	711.52
398.74	676.41
398.93	667.05
399.12	741.95
399.32	753.65
399.51	739.61
399.70	779.40
399.90	716.20
400.09	798.12
400.28	786.42
400.47	753.65
400.67	816.85
400.86	753.65
401.05	807.48
401.24	887.06
401.44	847.27
401.63	802.80
401.82	835.57
402.01	854.30
402.21	809.83
402.40	858.98
402.59	833.23
402.78	854.30
402.97	814.51
403.17	882.38
403.36	931.53
403.55	779.40
403.74	945.58
403.93	887.06
404.13	933.87
404.32	966.64
404.51	866.00
404.70	978.34
404.89	929.19
405.09	1034.52
405.28	945.58
405.47	866.00
405.66	1025.15
405.85	973.66
406.05	922.17
406.24	983.02
406.43	973.66
406.62	1046.22
406.81	1093.03
407.00	997.07
407.20	952.60
407.39	994.73
407.58	1086.01
407.77	1055.58
407.96	1025.15
408.15	1111.75
408.34	1064.94
408.54	1214.74
408.73	1107.07
408.92	1193.67
409.11	1177.29
409.30	1095.37
409.49	1167.93
409.68	1146.86
409.87	1102.39
410.07	1170.27
410.26	1245.16
410.45	1184.31
410.64	1128.14
410.83	1212.40
411.02	1245.16
411.21	1352.83
411.40	1130.48
411.59	1291.98
411.78	1273.25
411.98	1217.08
412.17	1299.00
412.36	1275.59
412.55	1275.59
412.74	1334.11
412.93	1392.62
413.12	1345.81
413.31	1394.96
413.50	1345.81
413.69	1369.21
413.88	1392.62
414.07	1439.43
414.26	1472.20
414.45	1479.22
414.64	1423.05
414.83	1490.92
415.02	1444.11
415.22	1530.71
415.41	1511.99
415.60	1547.09
415.79	1633.69
415.98	1614.97
416.17	1652.42
416.36	1565.82
416.55	1582.20
416.74	1614.97
416.93	1617.31
417.12	1764.76
417.31	1612.63
417.50	1720.29
417.69	1776.47
417.88	1685.19
418.07	1736.68
418.26	1778.81
418.45	1785.83
418.64	1818.60
418.83	1994.14
419.02	1790.51
419.21	1837.32
419.39	1839.66
419.58	1842.00
419.77	1888.81
419.96	1867.75
420.15	1809.23
420.34	1860.73
420.53	1872.43
420.72	1902.86
420.91	1879.45
421.10	2052.65
421.29	1923.92
421.48	1947.33
421.67	1977.75
421.86	1916.90
422.05	2001.16
422.24	1937.96
422.43	2040.95
422.61	2045.63
422.80	1994.14
422.99	1987.11
423.18	2057.33
423.37	2076.06
423.56	1994.14
423.75	2045.63
423.94	2108.82
424.13	1916.90
424.32	1977.75
424.50	2001.16
424.69	2136.91
424.88	2139.25
425.07	2033.93
425.26	2047.97
425.45	2062.01
425.64	2040.95
425.83	2022.22
426.01	2129.89
426.20	1991.80
426.39	2038.61
426.58	2001.16
426.77	2066.69
426.96	2052.65
427.15	2188.40
427.33	2160.31
427.52	2125.21
427.71	2136.91
427.90	2099.46
428.09	2193.08
428.28	2015.20
428.46	2099.46
428.65	2122.87
428.84	2200.10
429.03	2272.66
429.22	2211.81
429.40	2335.85
429.59	2441.18
429.78	2209.47
429.97	2246.91
430.16	2352.24
430.34	2265.64
430.53	2427.14
430.72	2277.34
430.91	2207.13
431.10	2314.79
431.28	2417.77
431.47	2464.58
431.66	2455.22
431.85	2370.96
432.03	2448.20
432.22	2466.92
432.41	2480.97
432.60	2602.68
432.79	2469.27
432.97	2597.99
433.16	2534.80
433.35	2525.44
433.54	2546.50
433.72	2616.72
433.91	2567.57
434.10	2567.57
434.28	2534.80
434.47	2576.93
434.66	2553.52
434.85	2574.59
435.03	2567.57
435.22	2548.84
435.41	2780.56
435.59	2708.00
435.78	2736.09
435.97	2747.79
436.16	2663.53
436.34	2602.68
436.53	2799.28
436.72	2785.24
436.90	2619.06
437.09	2874.18
437.28	2684.59
437.46	2789.92
437.65	2696.30
437.84	2768.85
438.02	2785.24
438.21	2726.72
438.40	2923.33
438.58	2967.80
438.77	2820.35
438.96	2902.26
439.14	2956.10
439.33	2995.89
439.52	3014.61
439.70	2939.71
439.89	3030.99
440.08	3012.27
440.26	3075.46
440.45	3054.40
440.63	3066.10
440.82	3131.64
441.01	3143.34
441.19	3241.64
441.38	3274.41
441.57	3311.86
441.75	3286.11
441.94	3262.71
442.12	3293.13
442.31	3431.23
442.50	3473.36
442.68	3302.50
442.87	3332.92
443.05	3318.88
443.24	3459.31
443.43	3379.73
443.61	3358.67
443.80	3461.65
443.98	3337.60
444.17	3290.79
444.35	3419.52
444.54	3527.19
444.73	3545.91
444.91	3412.50
445.10	3431.23
445.28	3449.95
445.47	3405.48
445.65	3475.70
445.84	3562.30
446.02	3597.40
446.21	3499.10
446.39	3574.00
446.58	3538.89
446.77	3461.65
446.95	3454.63
447.14	3602.08
447.32	3609.11
447.51	3473.36
447.69	3480.38
447.88	3576.34
448.06	3632.51
448.25	3688.68
448.43	3637.19
448.62	3660.60
448.80	3592.72
448.99	3602.08
449.17	3634.85
449.36	3719.11
449.54	3592.72
449.73	3669.96
449.91	3695.71
450.10	3946.14
450.28	3751.88
450.46	3744.86
450.65	3838.48
450.83	3831.46
451.02	3803.37
451.20	3845.50
451.39	3894.65
451.57	3709.75
451.76	3735.50
451.94	3761.24
452.13	3941.46
452.31	3913.38
452.49	3906.35
452.68	3817.41
452.86	3964.87
453.05	3992.95
453.23	3892.31
453.42	3850.18
453.60	3925.08
453.78	4081.89
453.97	3868.91
454.15	3955.51
454.34	4009.34
454.52	3995.29
454.70	4088.92
454.89	4037.42
455.07	4081.89
455.26	4058.49
455.44	4264.46
455.62	4042.11
455.81	4168.49
455.99	4152.11
456.17	4304.25
456.36	4145.09
456.54	4257.43
456.73	4360.42
456.91	4425.95
457.09	4227.01
457.28	4493.83
457.46	4280.84
457.64	4269.14
457.83	4517.23
458.01	4271.48
458.19	4585.11
458.38	4348.72
458.56	4547.66
458.74	4430.63
458.93	4344.03
459.11	4414.25
459.29	4414.25
459.48	4552.34
459.66	4550.00
459.84	4627.24
460.03	4643.62
460.21	4683.41
460.39	4662.35
460.57	4582.77
460.76	4629.58
460.94	4657.67
461.12	4622.56
461.31	4725.54
461.49	4692.77
461.67	4697.46
461.85	4723.20
462.04	4718.52
462.22	5001.72
462.40	4807.46
462.59	4802.78
462.77	4840.23
462.95	4777.03
463.13	4793.42
463.32	4802.78
463.50	4849.59
463.68	4889.38
463.86	4971.30
464.05	4870.65
464.23	4999.38
464.41	4992.36
464.59	4821.50
464.78	5100.03
464.96	4952.57
465.14	4882.36
465.32	5027.47
465.50	5259.18
465.69	5032.15
465.87	5118.75
466.05	5022.79
466.23	5043.85
466.41	5067.26
466.60	5249.82
466.78	5121.09
466.96	5050.88
467.14	4999.38
467.32	5289.61
467.51	5238.12
467.69	5151.52
467.87	5228.76
468.05	5331.74
468.23	5076.62
468.41	5200.67
468.60	5224.08
468.78	5352.81
468.96	5043.85
469.14	5174.92
469.32	5394.93
469.50	5259.18
469.69	5441.75
469.87	5420.68
470.05	5638.35
470.23	5469.83
470.41	5558.77
470.59	5554.09
470.77	5488.56
470.95	5652.39
471.14	5558.77
471.32	5327.06
471.50	5563.45
471.68	5584.52
471.86	5841.98
472.04	5792.83
472.22	5944.96
472.40	5692.18
472.58	5799.85
472.77	5806.87
472.95	5966.03
473.13	6024.54
473.31	5937.94
473.49	5846.66
473.67	5870.06
473.85	6012.84
474.03	6155.61
474.21	5980.07
474.39	6001.13
474.57	6289.02
474.75	6176.67
474.93	6356.90
475.12	6270.30
475.30	6258.59
475.48	6270.30
475.66	6377.96
475.84	6373.28
476.02	6314.77
476.20	6408.39
476.38	6399.02
476.56	6539.46
476.74	6651.80
476.92	6595.63
477.10	6581.59
477.28	6841.39
477.46	7002.88
477.64	6829.68
477.82	6857.77
478.00	7115.23
478.18	7206.51
478.36	7063.74
478.54	7063.74
478.72	7183.10
478.90	7241.62
479.08	7297.79
479.26	7405.46
479.44	7550.57
479.62	7468.65
479.80	7522.48
479.98	7449.93
480.16	7695.68
480.34	7606.74
480.52	7805.69
480.70	7639.51
480.88	7840.79
481.06	7641.85
481.24	7744.83
481.41	7995.27
481.59	8070.17
481.77	8086.55
481.95	8093.57
482.13	8231.66
482.31	8234.00
482.49	8376.78
482.67	8226.98
482.85	8439.97
483.03	8594.45
483.21	8716.16
483.39	8826.16
483.57	8706.79
483.74	8903.40
483.92	8931.48
484.10	8940.85
484.28	9116.39
484.46	9355.12
484.64	9345.76
484.82	9048.51
485.00	9202.99
485.18	9224.05
485.35	9678.12
485.53	9610.24
485.71	9582.15
485.89	9958.98
486.07	9572.79
486.25	9827.91
486.43	9533.00
486.61	9830.25
486.78	9895.78
486.96	10087.71
487.14	10532.41
487.32	10504.32
487.50	10033.88
487.68	10310.06
487.85	10497.30
488.03	10544.11
488.21	10703.27
488.39	10757.10
488.57	10581.56
488.75	10714.97
488.92	10911.58
489.10	11014.56
489.28	11082.44
489.46	11339.90
489.64	11281.38
489.81	11309.47
489.99	11281.38
490.17	11569.27
490.35	11831.41
490.53	11447.56
490.70	11705.02
490.88	11655.87
491.06	11768.21
491.24	12042.06
491.41	11969.50
491.59	12152.06
491.77	12056.10
491.95	12215.26
492.13	12348.67
492.30	12222.28
492.48	12266.75
492.66	12671.66
492.84	12596.76
493.01	12564.00
493.19	12847.20
493.37	13069.55
493.54	12922.10
493.72	13076.57
493.90	12734.85
494.08	12985.29
494.25	13125.72
494.43	13504.89
494.61	13437.02
494.79	13692.13
494.96	13781.07
495.14	13509.57
495.32	13600.85
495.49	13752.99
495.67	13956.61
495.85	13687.45
496.02	14118.11
496.20	14038.53
496.38	14232.80
496.55	14155.56
496.73	14251.52
496.91	14352.16
497.09	14487.92
497.26	14600.26
497.44	14602.60
497.62	14647.07
497.79	14867.08
497.97	14581.54
498.14	15154.97
498.32	15084.75
498.50	15103.48
498.67	15084.75
498.85	14944.32
499.03	15386.68
499.20	15248.59
499.38	15232.21
499.56	15365.62
499.73	15557.54
499.91	15786.91
500.08	15405.41
500.26	15293.06
500.44	15784.57
500.61	15815.00
500.79	15625.42
500.97	15969.48
501.14	16109.91
501.32	16100.55
501.49	15978.84
501.67	15910.96
501.84	16224.59
502.02	16343.96
502.20	16269.06
502.37	16570.99
502.55	16306.51
502.72	16238.64
502.90	16690.36
503.07	16201.19
503.25	16512.48
503.43	16329.92
503.60	16943.14
503.78	16638.87
503.95	16772.28
504.13	16765.26
504.30	16966.54
504.48	16631.85
504.65	16917.39
504.83	17034.42
505.01	17252.09
505.18	17270.81
505.36	17242.73
505.53	17607.85
505.71	17261.45
505.88	17729.56
506.06	17275.49
506.23	17708.49
506.41	17652.32
506.58	17497.84
506.76	17759.98
506.93	17734.24
507.11	17764.67
507.28	17825.52
507.46	17844.24
507.63	18125.11
507.81	18284.26
507.98	18052.55
508.16	18118.09
508.33	18127.45
508.50	17998.72
508.68	18134.47
508.85	18171.92
509.03	18515.98
509.20	18368.52
509.38	18473.85
509.55	18576.83
509.73	18733.65
509.90	18719.60
510.08	18621.30
510.25	18487.89
510.42	18581.51
510.60	18885.78
510.77	18963.02
510.95	18869.40
511.12	18848.33
511.30	19178.35
511.47	19197.07
511.64	19314.10
511.82	19396.02
511.99	19058.98
512.17	19632.41
512.34	19264.95
512.51	19421.77
512.69	19583.26
512.86	19522.41
513.04	19847.74
513.21	19618.37
513.38	19716.67
513.56	19885.19
513.73	19421.77
513.90	19899.23
514.08	19690.93
514.25	19917.96
514.43	19929.66
514.60	20400.11
514.77	20189.46
514.95	20255.00
515.12	20056.05
515.29	20266.70
515.47	20350.96
515.64	20575.65
515.81	19915.62
515.99	20685.65
516.16	20783.96
516.33	20723.10
516.51	20790.98
516.68	20798.00
516.85	20751.19
517.03	20573.31
517.20	20489.05
517.37	20589.69
517.54	20657.57
517.72	21188.87
517.89	21106.95
518.06	20959.50
518.24	20975.88
518.41	21163.12
518.58	21235.68
518.75	21188.87
518.93	21441.65
519.10	21523.57
519.27	21530.59
519.45	21565.70
519.62	21427.60
519.79	21261.43
519.96	21497.82
520.14	21823.16
520.31	21631.23
520.48	21558.67
520.65	21694.43
520.83	22094.66
521.00	21656.98
521.17	21448.67
521.34	21802.09
521.52	21692.08
521.69	22019.76
521.86	22087.64
522.03	22277.22
522.20	22286.58
522.38	22214.02
522.55	22155.51
522.72	21996.35
522.89	22249.13
523.07	22710.22
523.24	22644.68
523.41	22679.79
523.58	22270.20
523.75	22548.72
523.92	22199.98
524.10	22555.74
524.27	22810.86
524.44	22766.39
524.61	23164.28
524.78	22852.99
524.96	22782.77
525.13	22810.86
525.30	23215.77
525.47	23229.82
525.64	22857.67
525.81	22995.76
525.98	23248.54
526.16	23089.38
526.33	23166.62
526.50	23232.16
526.67	23250.88
526.84	23098.75
527.01	22995.76
527.18	23426.42
527.36	23037.89
527.53	23620.69
527.70	24070.07
527.87	23616.01
528.04	23662.82
528.21	23433.44
528.38	23168.96
528.55	23573.88
528.72	23793.89
528.89	23777.50
529.07	23697.92
529.24	23283.65
529.41	24053.69
529.58	23723.67
529.75	23845.38
529.92	24051.34
530.09	24304.12
530.26	24144.97
530.43	24369.66
530.60	24271.36
530.77	23978.79
530.94	23960.06
531.11	24170.71
531.28	24084.11
531.46	23880.49
531.63	24137.94
531.80	24121.56
531.97	24217.52
532.14	24449.24
532.31	24374.34
532.48	24510.09
532.65	24409.45
532.82	23997.51
532.99	24545.20
533.16	24360.30
533.33	24828.40
533.50	25071.82
533.67	24783.93
533.84	24294.76
534.01	24823.72
534.18	24723.08
534.35	25139.69
534.52	24844.79
534.69	24938.41
534.86	24945.43
535.03	25064.80
535.20	24978.20
535.37	25069.48
535.54	25041.39
535.71	24989.90
535.88	24992.24
536.05	25212.25
536.22	25348.00
536.38	25600.78
536.55	25472.05
536.72	25432.26
536.89	25205.23
537.06	25525.88
537.23	25621.84
537.40	25539.93
537.57	25645.25
537.74	25773.98
537.91	25741.21
538.08	25813.77
538.25	25516.52
538.42	25596.10
538.59	25853.56
538.75	25518.86
538.92	25556.31
539.09	25972.92
539.26	25752.91
539.43	25883.98
539.60	26057.18
539.77	25846.54
539.94	26263.15
540.11	25900.37
540.28	26115.70
540.44	25928.45
540.61	26176.55
540.78	25935.48
540.95	26429.33
541.12	25898.03
541.29	26366.13
541.46	26103.99
541.62	25982.29
541.79	26391.88
541.96	26139.10
542.13	26202.30
542.30	26059.52
542.47	26693.81
542.63	26331.03
542.80	26448.05
542.97	26874.03
543.14	26749.98
543.31	26651.68
543.48	26630.62
543.64	27248.52
543.81	27330.44
543.98	26904.46
544.15	27047.23
544.32	27075.32
544.48	27047.23
544.65	26991.06
544.82	26869.35
544.99	26831.90
545.16	27143.19
545.32	27091.70
545.49	27473.21
545.66	27110.43
545.83	27517.68
546.00	27229.79
546.16	27098.72
546.33	27232.13
546.50	27124.47
546.67	27131.49
546.83	27168.94
547.00	27374.91
547.17	27122.13
547.34	27316.39
547.50	27365.54
547.67	27566.83
547.84	27700.24
548.00	27618.32
548.17	27896.85
548.34	27388.95
548.51	27810.25
548.67	27817.27
548.84	27644.07
549.01	27665.13
549.18	27583.21
549.34	27658.11
549.51	27651.09
549.68	27709.60
549.84	27630.02
550.01	27674.49
550.18	27583.21
550.34	27779.82
550.51	28266.65
550.68	28056.00
550.84	27672.15
551.01	28170.69
551.18	28154.30
551.34	27840.67
551.51	28177.71
551.68	27791.52
551.84	28409.42
552.01	28088.77
552.18	28381.34
552.34	28224.52
552.51	28367.29
552.68	27997.49
552.84	28381.34
553.01	28554.54
553.18	28137.92
553.34	28123.88
553.51	28065.36
553.67	28940.72
553.84	28613.05
554.01	28664.54
554.17	28526.45
554.34	28507.72
554.51	28966.47
554.67	28224.52
554.84	28496.02
555.00	28645.82
555.17	28566.24
555.33	28781.57
555.50	28577.94
555.67	28751.14
555.83	28996.90
556.00	28910.30
556.16	28783.91
556.33	28758.16
556.50	28816.68
556.66	29144.35
556.83	28758.16
556.99	29013.28
557.16	28982.85
557.32	28741.78
557.49	29015.62
557.65	28783.91
557.82	29022.64
557.98	28753.48
558.15	28924.34
558.32	29139.67
558.48	29214.57
558.65	29064.77
558.81	29230.95
558.98	29472.03
559.14	28968.81
559.31	29198.18
559.47	28992.22
559.64	29612.46
559.80	29357.34
559.97	29617.14
560.13	29291.80
560.30	29366.70
560.46	29186.48
560.63	28926.68
560.79	29123.29
560.96	29240.31
561.12	28973.49
561.29	29172.44
561.45	28994.56
561.61	29453.30
561.78	29404.15
561.94	29649.91
562.11	29771.61
562.27	29399.47
562.44	29624.16
562.60	29827.79
562.77	29439.26
562.93	29406.49
563.10	29699.06
563.26	29469.69
563.42	29743.53
563.59	29624.16
563.75	29972.90
563.92	29277.76
564.08	29565.65
564.24	29577.35
564.41	29401.81
564.57	29343.30
564.74	29596.07
564.90	29654.59
565.07	30113.33
565.23	29734.17
565.39	29951.84
565.56	29706.08
565.72	29738.85
565.88	29628.84
566.05	29806.72
566.21	29881.62
566.38	29560.97
566.54	29717.78
566.70	30068.86
566.87	30015.03
567.03	29963.54
567.19	30015.03
567.36	30148.44
567.52	29839.49
567.68	29907.37
567.85	29921.41
568.01	29809.06
568.17	29741.19
568.34	30113.33
568.50	29858.21
568.66	29832.47
568.83	30052.48
568.99	29575.01
569.15	30003.33
569.32	30115.67
569.48	29771.61
569.64	30064.18
569.81	29776.30
569.97	29933.11
570.13	29970.56
570.30	29993.97
570.46	30286.53
570.62	30003.33
570.78	30012.69
570.95	30026.73
571.11	30356.75
571.27	29837.15
571.43	29888.64
571.60	29736.51
571.76	29797.36
571.92	29900.34
572.09	30164.82
572.25	30361.43
572.41	30209.29
572.57	30387.18
572.74	30382.49
572.90	30431.65
573.06	30120.35
573.22	30188.23
573.38	30146.10
573.55	30253.76
573.71	30649.32
573.87	30441.01
574.03	30202.27
574.20	29923.75
574.36	29930.77
574.52	30078.22
574.68	30204.61
574.84	30408.24
575.01	30284.19
575.17	30398.88
575.33	30008.01
575.49	30223.34
575.65	30574.42
575.82	30539.31
575.98	30239.72
576.14	30457.39
576.30	30506.54
576.46	30405.90
576.62	30094.61
576.79	30431.65
576.95	30263.13
577.11	30363.77
577.27	30501.86
577.43	30462.07
577.59	30614.21
577.75	30160.14
577.92	29912.05
578.08	30401.22
578.24	29928.43
578.40	30527.61
578.56	30405.90
578.72	30485.48
578.88	30485.48
579.04	30909.11
579.21	30506.54
579.37	30555.69
579.53	30937.20
579.69	30335.68
579.85	29979.92
580.01	30080.56
580.17	30331.00
580.33	30323.98
580.49	30768.68
580.65	30529.95
580.82	30672.72
580.98	30188.23
581.14	30340.36
581.30	30361.43
581.46	30590.80
581.62	30258.45
581.78	30253.76
581.94	30595.48
582.10	30265.47
582.26	30546.33
582.42	30710.17
582.58	31072.95
582.74	30778.04
582.90	30665.70
583.06	30129.72
583.22	30288.87
583.38	30553.35
583.54	30202.27
583.70	30279.51
583.86	30260.79
584.02	30108.65
584.18	30459.73
584.34	30553.35
584.50	30738.26
584.66	30216.32
584.82	30288.87
584.98	30483.14
585.14	30223.34
585.30	30279.51
585.46	30452.71
585.62	30099.29
585.78	30274.83
585.94	30642.29
586.10	30775.70
586.26	30525.27
586.42	30389.52
586.58	30962.95
586.74	30478.46
586.90	30052.48
587.06	30668.04
587.22	30359.09
587.38	30565.06
587.54	30714.85
587.70	31002.74
587.86	30773.36
588.02	30511.22
588.18	30958.27
588.34	30803.79
588.49	30492.50
588.65	30441.01
588.81	30410.58
588.97	30691.44
589.13	30574.42
589.29	31026.14
589.45	30679.74
589.61	30724.21
589.77	31559.78
589.93	30948.90
590.08	30998.06
590.24	31314.03
590.40	30639.95
590.56	30944.22
590.72	30473.78
590.88	30129.72
591.04	30841.24
591.20	30859.96
591.35	30855.28
591.51	31124.44
591.67	31136.15
591.83	31009.76
591.99	30897.41
592.15	31133.81
592.31	30450.37
592.46	30508.88
592.62	30731.23
592.78	30958.27
592.94	30862.30
593.10	30813.15
593.26	31330.41
593.41	31218.07
593.57	30792.09
593.73	30742.94
593.89	31402.97
594.05	31026.14
594.20	30937.20
594.36	31131.47
594.52	31075.29
594.68	30899.75
594.84	31047.21
594.99	31374.88
595.15	31180.62
595.31	31278.92
595.47	30979.33
595.62	31365.52
595.78	31044.87
595.94	31454.46
596.10	31204.02
596.25	30815.49
596.41	31077.63
596.57	31084.65
596.73	31047.21
596.88	30843.58
597.04	31056.57
597.20	31204.02
597.36	31232.11
597.51	31466.16
597.67	31157.21
597.83	31016.78
597.99	31129.12
598.14	31115.08
598.30	30803.79
598.46	31075.29
598.61	31229.77
598.77	31178.28
598.93	31402.97
599.09	31241.47
599.24	31381.90
599.40	31480.21
599.56	31206.36
599.71	31267.22
599.87	31164.23
600.03	31026.14
600.18	31033.16
600.34	31393.61
600.50	30684.42
600.65	31201.68
600.81	31314.03
600.97	31594.89
601.12	31583.19
601.28	31248.49
601.44	31157.21
601.59	31101.04
601.75	31454.46
601.91	31161.89
602.06	31058.91
602.22	31115.08
602.37	31260.20
602.53	30796.77
602.69	31012.10
602.84	31101.04
603.00	31299.98
603.16	31215.72
603.31	31248.49
603.47	31257.85
603.62	31171.25
603.78	30684.42
603.94	31220.41
604.09	31019.12
604.25	31173.60
604.40	30941.88
604.56	31033.16
604.71	31173.60
604.87	31686.17
605.03	31208.70
605.18	31225.09
605.34	31377.22
605.49	30705.49
605.65	31185.30
605.80	30712.51
605.96	30848.26
606.12	31150.19
606.27	31309.35
606.43	31087.00
606.58	31522.34
606.74	30958.27
606.89	31037.84
607.05	31098.70
607.20	30984.01
607.36	31204.02
607.51	30813.15
607.67	30768.68
607.82	30855.28
607.98	30939.54
608.13	30871.67
608.29	31009.76
608.44	30913.80
608.60	30682.08
608.75	31590.21
608.91	31098.70
609.06	31227.43
609.22	30845.92
609.37	30745.28
609.53	30686.76
609.68	30773.36
609.84	30675.06
609.99	31208.70
610.15	30497.18
610.30	30740.60
610.46	30981.67
610.61	30841.24
610.76	30796.77
610.92	31112.74
611.07	30778.04
611.23	30871.67
611.38	30813.15
611.54	30759.32
611.69	30539.31
611.84	30621.23
612.00	30916.14
612.15	30466.75
612.31	31105.72
612.46	30787.41
612.62	30656.34
612.77	30855.28
612.92	31033.16
613.08	30962.95
613.23	30831.88
613.39	30476.12
613.54	30712.51
613.69	30443.35
613.85	30405.90
614.00	30768.68
614.15	30218.66
614.31	30738.26
614.46	30752.30
614.62	30312.28
614.77	30707.83
614.92	30387.18
615.08	30642.29
615.23	30771.02
615.38	30532.29
615.54	30469.09
615.69	30377.81
615.84	30452.71
616.00	30188.23
616.15	30024.39
616.30	30492.50
616.46	30293.55
616.61	30274.83
616.76	30859.96
616.92	30632.93
617.07	30438.67
617.22	30321.64
617.37	30335.68
617.53	30518.25
617.68	30026.73
617.83	30005.67
617.99	29771.61
618.14	30230.36
618.29	30040.78
618.45	30054.82
618.60	30504.20
618.75	30085.25
618.90	30574.42
619.06	30237.38
619.21	29773.95
619.36	29982.26
619.51	30176.53
619.67	30061.84
619.82	30047.80
619.97	29963.54
620.12	29921.41
620.28	29539.90
620.43	30033.75
620.58	30270.15
620.73	30703.15
620.89	30054.82
621.04	30221.00
621.19	30113.33
621.34	29905.02
621.49	30040.78
621.65	29963.54
621.80	30211.64
621.95	29457.98
622.10	29766.93
622.25	29919.07
622.41	29385.43
622.56	29813.74
622.71	30146.10
622.86	29958.86
623.01	29415.85
623.16	29617.14
623.32	29476.71
623.47	29624.16
623.62	29755.23
623.77	29605.44
623.92	29605.44
624.07	29607.78
624.23	29469.69
624.38	29853.53
624.53	29528.20
624.68	29383.09
624.83	29661.61
624.98	29907.37
625.13	29701.40
625.29	29532.88
625.44	29734.17
625.59	29333.93
625.74	29401.81
625.89	29195.84
626.04	29282.44
626.19	29558.63
626.34	29357.34
626.49	29319.89
626.65	29041.37
626.80	29663.95
626.95	29455.64
627.10	29483.73
627.25	29312.87
627.40	29240.31
627.55	29315.21
627.70	29422.87
627.85	28959.45
628.00	29195.84
628.15	29078.82
628.30	29067.11
628.45	29244.99
628.60	28936.04
628.76	29692.04
628.91	29301.17
629.06	28814.34
629.21	28821.36
629.36	28678.58
629.51	29071.79
629.66	28959.45
629.81	28861.15
629.96	28687.95
630.11	28694.97
630.26	28868.17
630.41	28957.11
630.56	28631.77
630.71	28821.36
630.86	28971.15
631.01	28535.81
631.16	28940.72
631.31	28819.02
631.46	28432.83
631.61	28753.48
631.76	28779.23
631.91	28606.03
632.06	28512.41
632.21	28872.85
632.36	28973.49
632.51	28311.12
632.66	28577.94
632.81	28411.76
632.96	28741.78
633.10	28250.27
633.25	28699.65
633.40	28711.35
633.55	28830.72
633.70	28313.46
633.85	27910.89
634.00	28236.22
634.15	28493.68
634.30	28362.61
634.45	28322.82
634.60	28343.89
634.75	28292.40
634.90	28379.00
635.05	28268.99
635.19	28594.32
635.34	28231.54
635.49	28519.43
635.64	28414.10
635.79	28547.51
635.94	28531.13
636.09	28400.06
636.24	28231.54
636.39	28224.52
636.53	27971.74
636.68	27997.49
636.83	27702.58
636.98	28060.68
637.13	28238.56
637.28	28402.40
637.43	28037.28
637.57	27950.68
637.72	28105.15
637.87	27845.35
638.02	27791.52
638.17	27688.54
638.32	27735.35
638.46	27894.50
638.61	27847.69
638.76	27482.57
638.91	27878.12
639.06	27505.98
639.20	27709.60
639.35	28168.35
639.50	27824.29
639.65	27852.38
639.80	28203.46
639.94	28006.85
640.09	28063.02
640.24	27824.29
640.39	27330.44
640.54	27623.00
640.68	27473.21
640.83	27400.65
640.98	27517.68
641.13	27433.42
641.27	27840.67
641.42	27531.72
641.57	27814.93
641.72	27459.16
641.86	27395.97
642.01	27248.52
642.16	27131.49
642.31	27318.73
642.45	27438.10
642.60	27133.83
642.75	27133.83
642.90	27321.07
643.04	27239.15
643.19	27098.72
643.34	27274.26
643.48	27288.31
643.63	27384.27
643.78	27503.64
643.93	27623.00
644.07	27632.36
644.22	27335.12
644.37	27386.61
644.51	27578.53
644.66	27175.96
644.81	26969.99
644.95	27105.74
645.10	27042.55
645.25	27136.17
645.39	27180.64
645.54	27061.27
645.69	26967.65
645.83	27089.36
645.98	27101.06
646.13	27346.82
646.27	27276.60
646.42	27180.64
646.57	26955.95
646.71	27304.69
646.86	27054.25
647.00	27122.13
647.15	26806.16
647.30	26707.85
647.44	26827.22
647.59	26618.91
647.74	26848.29
647.88	26960.63
648.03	26731.26
648.17	27304.69
648.32	26977.01
648.47	26895.10
648.61	26560.40
648.76	26616.57
648.90	27035.53
649.05	26639.98
649.20	26721.90
649.34	26555.72
649.49	26288.90
649.63	26647.00
649.78	26331.03
649.92	26696.15
650.07	26544.02
650.21	26443.37
650.36	26621.25
650.51	26148.46
650.65	26363.79
650.80	26462.10
650.94	26544.02
651.09	26616.57
651.23	26218.68
651.38	26417.63
651.52	26092.29
651.67	26218.68
651.81	26471.46
651.96	26424.65
652.10	26415.29
652.25	26174.21
652.39	26293.58
652.54	26679.77
652.68	26319.32
652.83	26548.70
652.97	26623.59
653.12	26272.51
653.26	26239.75
653.41	26340.39
653.55	26017.40
653.70	25951.86
653.84	25951.86
653.99	25734.19
654.13	26265.49
654.27	26270.17
654.42	25965.90
654.56	25970.58
654.71	26328.69
654.85	26206.98
655.00	25944.84
655.14	25942.50
655.29	26059.52
655.43	25907.39
655.57	26106.34
655.72	25921.43
655.86	26010.37
656.01	26188.25
656.15	25790.36
656.30	25986.97
656.44	25893.35
656.58	26192.94
656.73	25734.19
656.87	25766.96
657.01	25729.51
657.16	25919.09
657.30	25825.47
657.45	25832.49
657.59	25970.58
657.73	25977.61
657.88	25710.78
658.02	25146.72
658.16	25640.57
658.31	25586.74
658.45	25696.74
658.60	25291.83
658.74	25371.41
658.88	25621.84
659.03	25476.73
659.17	25413.54
659.31	25450.99
659.46	25209.91
659.60	25469.71
659.74	25462.69
659.89	25233.32
660.03	25324.60
660.17	25525.88
660.32	24835.42
660.46	25357.36
660.60	25301.19
660.74	24978.20
660.89	25135.01
661.03	25088.20
661.17	25146.72
661.32	25245.02
661.46	25373.75
661.60	24851.81
661.74	25305.87
661.89	25383.11
662.03	24610.73
662.17	25001.60
662.31	24545.20
662.46	24985.22
662.60	24683.29
662.74	24453.92
662.88	24467.96
663.03	24486.68
663.17	24180.07
663.31	24254.97
663.45	24264.33
663.60	24489.03
663.74	24676.27
663.88	24589.67
664.02	24388.38
664.17	24606.05
664.31	24271.36
664.45	24280.72
664.59	24505.41
664.73	24489.03
664.88	24474.98
665.02	24238.59
665.16	23772.82
665.30	24327.53
665.44	23882.83
665.59	23927.30
665.73	23967.09
665.87	23828.99
666.01	24180.07
666.15	24102.84
666.29	24250.29
666.44	23880.49
666.58	23658.14
666.72	24027.94
666.86	24093.47
667.00	23913.25
667.14	23660.48
667.28	23592.60
667.43	23138.54
667.57	23651.11
667.71	23201.73
667.85	23440.47
667.99	23475.57
668.13	23307.05
668.27	23534.09
668.41	23494.30
668.56	23508.34
668.70	23562.17
668.84	23557.49
668.98	23073.00
669.12	23447.49
669.26	23206.41
669.40	23138.54
669.54	23454.51
669.68	22927.89
669.82	22815.54
669.96	23271.95
670.10	23192.37
670.25	22850.65
670.39	22937.25
670.53	22623.62
670.67	22609.58
670.81	22864.69
670.95	23136.20
671.09	22876.40
671.23	22803.84
671.37	22967.68
671.51	22541.70
671.65	23007.47
671.79	22572.13
671.93	22534.68
672.07	22600.21
672.21	22134.45
672.35	22050.19
672.49	22265.52
672.63	22164.87
672.77	22314.67
672.91	21942.52
673.05	21923.80
673.19	22618.94
673.33	22043.17
673.47	22061.89
673.61	22302.96
673.75	22202.32
673.89	22125.08
674.03	21954.22
674.17	21837.20
674.31	21926.14
674.45	21806.77
674.59	21678.04
674.73	21734.21
674.87	21605.49
675.01	21717.83
675.15	21507.18
675.29	21476.76
675.43	21326.96
675.56	21673.36
675.70	21315.26
675.84	21472.07
675.98	20842.47
676.12	21333.98
676.26	21401.86
676.40	21448.67
676.54	21282.49
676.68	21083.55
676.82	20922.05
676.96	20554.58
677.10	20891.62
677.23	20416.49
677.37	20601.40
677.51	20910.35
677.65	20812.04
677.79	20273.72
677.93	20372.02
678.07	20498.41
678.21	20381.38
678.34	20329.89
678.48	20318.19
678.62	20058.39
678.76	20049.03
678.90	19978.81
679.04	20257.34
679.18	19681.56
679.31	19716.67
679.45	19838.38
679.59	19672.20
679.73	19915.62
679.87	19571.56
680.00	19442.83
680.14	19573.90
680.28	19260.27
680.42	19257.93
680.56	19601.99
680.70	19482.62
680.83	19655.82
680.97	19276.65
681.11	19449.85
681.25	19143.24
681.39	18810.89
681.52	19021.53
681.66	19019.19
681.80	18951.32
681.94	18834.29
682.07	18710.24
682.21	18565.13
682.35	18499.59
682.49	18670.45
682.62	18581.51
682.76	18647.05
682.90	18654.07
683.04	18621.30
683.17	18548.75
683.31	18630.66
683.45	18312.35
683.59	18204.69
683.72	18235.11
683.86	18436.40
684.00	18174.26
684.13	17839.56
684.27	18108.72
684.41	17736.58
684.55	17614.87
684.68	17832.54
684.82	17750.62
684.96	17820.84
685.09	17692.11
685.23	17282.52
685.37	17589.13
685.50	17612.53
685.64	17717.86
685.78	17334.01
685.91	17584.44
686.05	17312.94
686.19	17167.83
686.32	17259.11
686.46	17160.81
686.60	16837.81
686.73	17020.38
686.87	16933.78
687.01	16788.66
687.14	16692.70
687.28	16732.49
687.42	16699.72
687.55	16208.21
687.69	16580.36
687.82	16397.79
687.96	16503.12
688.10	16280.77
688.23	16439.92
688.37	16238.64
688.50	16191.83
688.64	16362.69
688.78	16079.48
688.91	16191.83
689.05	15974.16
689.18	15700.31
689.32	15545.84
689.46	15913.30
689.59	15779.89
689.73	15903.94
689.86	15779.89
690.00	15784.57
690.13	15948.41
690.27	15602.01
690.41	15751.81
690.54	15417.11
690.68	15534.14
690.81	15445.20
690.95	15733.08
691.08	15438.17
691.22	15379.66
691.35	15272.00
691.49	15105.82
691.62	15108.16
691.76	15044.96
691.89	14977.09
692.03	14728.99
692.16	14731.33
692.30	14878.79
692.43	14565.15
692.57	14586.22
692.70	14361.53
692.84	14288.97
692.97	14705.59
693.11	14366.21
693.24	14682.18
693.38	14494.94
693.51	14071.30
693.65	14244.50
693.78	14092.37
693.92	14155.56
694.05	14272.59
694.19	14029.17
694.32	14211.73
694.45	14045.55
694.59	13715.54
694.72	13390.20
694.86	13598.51
694.99	13621.92
695.13	13650.00
695.26	13422.97
695.39	13563.40
695.53	13638.30
695.66	13504.89
695.80	13214.66
695.93	13408.93
696.07	13408.93
696.20	13296.58
696.33	13254.45
696.47	13149.13
696.60	13081.25
696.73	13130.41
696.87	13095.30
697.00	12945.50
697.14	12872.95
697.27	12578.04
697.40	12573.36
697.54	12678.68
697.67	12606.13
697.80	12755.92
697.94	12315.90
698.07	12236.32
698.21	12343.99
698.34	12421.22
698.47	12463.35
698.61	12343.99
698.74	12329.94
698.87	12351.01
699.01	12088.87
699.14	12226.96
699.27	12004.61
699.40	12126.32
699.54	12133.34
699.67	12042.06
699.80	11941.41
699.94	12025.67
700.07	11845.45
700.20	11681.61
700.34	11372.66
700.47	11625.44
700.60	11522.46
700.73	11454.58
700.87	11623.10
701.00	11578.63
701.13	11541.18
701.26	11304.79
701.40	11494.37
701.53	11459.26
701.66	11225.21
701.79	11279.04
701.93	11222.87
702.06	11157.33
702.19	10853.06
702.32	10848.38
702.46	10923.28
702.59	10799.23
702.72	10850.72
702.85	10815.62
702.99	10574.54
703.12	10317.08
703.25	10682.20
703.38	10415.38
703.51	10382.62
703.65	10492.62
703.78	10593.26
703.91	10420.06
704.04	10553.48
704.17	10434.11
704.31	10534.75
704.44	10218.78
704.57	9944.94
704.70	10359.21
704.83	9949.62
704.96	10026.86
705.10	10099.41
705.23	9860.68
>>>>>End Processed Spectral Data<<<<<
