SpectraSuite Data File
++++++++++++++++++++++++++++++++++++
Date: Fri Oct 18 13:57:55 GMT-05:00 2013
User: bianchi
Dark Spectrum Present: No
Reference Spectrum Present: No
Number of Sampled Component Spectra: 1
Spectrometers: USB2+H05261
Integration Time (usec): 50000 (USB2+H05261)
Spectra Averaged: 1 (USB2+H05261)
Boxcar Smoothing: 0 (USB2+H05261)
Correct for Electrical Dark: No (USB2+H05261)
Strobe/Lamp Enabled: No (USB2+H05261)
Correct for Detector Non-linearity: No (USB2+H05261)
Correct for Stray Light: No (USB2+H05261)
Number of Pixels in Processed Spectrum: 2048
>>>>>Begin Processed Spectral Data<<<<<
365.73	9.36
365.92	9.36
366.12	9.36
366.32	0.00
366.52	0.00
366.72	0.00
366.91	0.00
367.11	0.00
367.31	0.00
367.51	0.00
367.70	0.00
367.90	0.00
368.10	0.00
368.30	0.00
368.49	0.00
368.69	0.00
368.89	0.00
369.09	0.00
369.28	0.00
369.48	0.00
369.68	0.00
369.87	0.00
370.07	0.00
370.27	0.00
370.47	0.00
370.66	37.45
370.86	124.05
371.06	166.18
371.25	117.03
371.45	156.82
371.65	152.13
371.84	208.31
372.04	184.90
372.24	184.90
372.44	217.67
372.63	140.43
372.83	194.26
373.03	196.60
373.22	147.45
373.42	229.37
373.62	227.03
373.81	243.42
374.01	205.97
374.21	203.63
374.40	229.37
374.60	243.42
374.79	269.16
374.99	269.16
375.19	269.16
375.38	297.25
375.58	248.10
375.78	250.44
375.97	351.08
376.17	355.76
376.37	227.03
376.56	292.57
376.76	280.86
376.95	271.50
377.15	308.95
377.35	346.40
377.54	304.27
377.74	271.50
377.93	196.60
378.13	278.52
378.33	292.57
378.52	290.23
378.72	182.56
378.91	283.20
379.11	280.86
379.31	318.31
379.50	290.23
379.70	351.08
379.89	344.06
380.09	243.42
380.28	344.06
380.48	280.86
380.68	294.91
380.87	353.42
381.07	353.42
381.26	341.72
381.46	313.63
381.65	393.21
381.85	425.98
382.04	315.97
382.24	313.63
382.43	379.17
382.63	252.78
382.83	311.29
383.02	402.57
383.22	416.62
383.41	315.97
383.61	283.20
383.80	339.38
384.00	376.83
384.19	414.27
384.39	346.40
384.58	322.99
384.78	428.32
384.97	376.83
385.17	388.53
385.36	456.40
385.56	386.19
385.75	430.66
385.95	454.06
386.14	475.13
386.34	397.89
386.53	407.25
386.72	332.36
386.92	430.66
387.11	414.27
387.31	360.44
387.50	437.68
387.70	425.98
387.89	437.68
388.09	376.83
388.28	346.40
388.48	435.34
388.67	489.17
388.86	447.04
389.06	393.21
389.25	486.83
389.45	500.87
389.64	510.24
389.84	479.81
390.03	468.11
390.22	498.53
390.42	514.92
390.61	489.17
390.81	470.45
391.00	514.92
391.19	507.90
391.39	433.00
391.58	524.28
391.78	514.92
391.97	554.71
392.16	479.81
392.36	557.05
392.55	587.47
392.75	557.05
392.94	571.09
393.13	594.50
393.33	552.37
393.52	545.34
393.71	634.29
393.91	613.22
394.10	580.45
394.29	564.07
394.49	500.87
394.68	624.92
394.88	596.84
395.07	704.50
395.26	634.29
395.46	601.52
395.65	688.12
395.84	627.26
396.04	655.35
396.23	711.52
396.42	685.78
396.62	662.37
396.81	683.44
397.00	683.44
397.19	695.14
397.39	638.97
397.58	655.35
397.77	692.80
397.97	795.78
398.16	692.80
398.35	765.36
398.55	741.95
398.74	739.61
398.93	709.18
399.12	784.08
399.32	748.97
399.51	772.38
399.70	793.44
399.90	727.91
400.09	777.06
400.28	741.95
400.47	805.14
400.67	805.14
400.86	730.25
401.05	812.17
401.24	772.38
401.44	894.08
401.63	812.17
401.82	887.06
402.01	828.55
402.21	840.25
402.40	945.58
402.59	814.51
402.78	788.76
402.97	999.41
403.17	851.96
403.36	835.57
403.55	849.61
403.74	987.71
403.93	849.61
404.13	933.87
404.32	954.94
404.51	908.13
404.70	933.87
404.89	910.47
405.09	971.32
405.28	1015.79
405.47	964.30
405.66	957.28
405.85	1071.97
406.05	1032.18
406.24	1025.15
406.43	997.07
406.62	1008.77
406.81	1100.05
407.00	1057.92
407.20	1088.35
407.39	1095.37
407.58	1078.99
407.77	1067.28
407.96	1165.59
408.15	1179.63
408.34	1118.78
408.54	1015.79
408.73	1123.46
408.92	1153.88
409.11	1177.29
409.30	1104.73
409.49	1245.16
409.68	1177.29
409.87	1167.93
410.07	1114.10
410.26	1242.82
410.45	1259.21
410.64	1277.93
410.83	1179.63
411.02	1123.46
411.21	1310.70
411.40	1245.16
411.59	1331.76
411.78	1277.93
411.98	1203.04
412.17	1320.06
412.36	1327.08
412.55	1387.94
412.74	1401.98
412.93	1376.24
413.12	1385.60
413.31	1430.07
413.50	1455.81
413.69	1451.13
413.88	1423.05
414.07	1474.54
414.26	1516.67
414.45	1455.81
414.64	1481.56
414.83	1458.15
415.02	1479.22
415.22	1650.08
415.41	1610.29
415.60	1689.87
415.79	1598.59
415.98	1830.30
416.17	1748.38
416.36	1542.41
416.55	1678.16
416.74	1643.06
416.93	1666.46
417.12	1746.04
417.31	1671.14
417.50	1776.47
417.69	1834.98
417.88	1921.58
418.07	1785.83
418.26	1795.19
418.45	1797.53
418.64	1732.00
418.83	1762.42
419.02	1785.83
419.21	1870.09
419.39	1947.33
419.58	1818.60
419.77	1879.45
419.96	1907.54
420.15	1881.79
420.34	1891.15
420.53	1832.64
420.72	1963.71
420.91	1984.77
421.10	1970.73
421.29	2045.63
421.48	1860.73
421.67	1940.30
421.86	1954.35
422.05	2043.29
422.24	2005.84
422.43	2029.24
422.61	2001.16
422.80	1980.09
422.99	2090.10
423.18	2106.48
423.37	2059.67
423.56	1991.80
423.75	2073.71
423.94	2005.84
424.13	1905.20
424.32	2045.63
424.50	1977.75
424.69	2136.91
424.88	2127.55
425.07	1994.14
425.26	2186.06
425.45	2106.48
425.64	2078.40
425.83	2059.67
426.01	2069.03
426.20	2125.21
426.39	2134.57
426.58	2148.61
426.77	2157.97
426.96	2183.72
427.15	2108.82
427.33	2101.80
427.52	2139.25
427.71	2136.91
427.90	2228.19
428.09	2214.15
428.28	2218.83
428.46	2214.15
428.65	2296.07
428.84	2305.43
429.03	2363.94
429.22	2207.13
429.40	2356.92
429.59	2366.28
429.78	2204.78
429.97	2279.68
430.16	2303.09
430.34	2401.39
430.53	2396.71
430.72	2373.30
430.91	2307.77
431.10	2420.11
431.28	2382.67
431.47	2363.94
431.66	2595.65
431.85	2424.80
432.03	2499.69
432.22	2595.65
432.41	2464.58
432.60	2497.35
432.79	2527.78
432.97	2466.92
433.16	2480.97
433.35	2581.61
433.54	2490.33
433.72	2492.67
433.91	2555.86
434.10	2480.97
434.28	2684.59
434.47	2630.76
434.66	2600.34
434.85	2743.11
435.03	2698.64
435.22	2656.51
435.41	2686.94
435.59	2703.32
435.78	2682.25
435.97	2684.59
436.16	2738.43
436.34	2803.96
436.53	2759.49
436.72	2778.22
436.90	2710.34
437.09	2759.49
437.28	2827.37
437.46	2710.34
437.65	2752.47
437.84	2860.13
438.02	2923.33
438.21	2897.58
438.40	2839.07
438.58	2928.01
438.77	2998.23
438.96	2935.03
439.14	2902.26
439.33	2953.76
439.52	3138.66
439.70	3045.04
439.89	3148.02
440.08	3103.55
440.26	3066.10
440.45	3063.76
440.63	3073.12
440.82	3194.83
441.01	3204.19
441.19	3159.72
441.38	3311.86
441.57	3304.84
441.75	3321.22
441.94	3368.03
442.12	3337.60
442.31	3513.14
442.50	3405.48
442.68	3372.71
442.87	3417.18
443.05	3459.31
443.24	3389.10
443.43	3459.31
443.61	3405.48
443.80	3672.30
443.98	3534.21
444.17	3468.67
444.35	3510.80
444.54	3574.00
444.73	3538.89
444.91	3538.89
445.10	3499.10
445.28	3534.21
445.47	3475.70
445.65	3529.53
445.84	3637.19
446.02	3623.15
446.21	3679.32
446.39	3494.42
446.58	3613.79
446.77	3665.28
446.95	3566.98
447.14	3618.47
447.32	3574.00
447.51	3557.61
447.69	3592.72
447.88	3496.76
448.06	3616.13
448.25	3566.98
448.43	3620.81
448.62	3637.19
448.80	3602.08
448.99	3559.95
449.17	3740.18
449.36	3606.77
449.54	3817.41
449.73	3705.07
449.91	3770.60
450.10	3805.71
450.28	3850.18
450.46	3833.80
450.65	3831.46
450.83	3882.95
451.02	3852.52
451.20	3899.33
451.39	3904.01
451.57	3763.58
451.76	3791.67
451.94	3852.52
452.13	3927.42
452.31	3847.84
452.49	3955.51
452.68	4046.79
452.86	4060.83
453.05	4074.87
453.23	4053.81
453.42	3999.98
453.60	3838.48
453.78	4030.40
453.97	4081.89
454.15	4053.81
454.34	4081.89
454.52	4030.40
454.70	4053.81
454.89	3915.72
455.07	4222.33
455.26	4259.78
455.44	4252.75
455.62	4112.32
455.81	4198.92
455.99	4180.20
456.17	4217.65
456.36	4315.95
456.54	4386.16
456.73	4280.84
456.91	4498.51
457.09	4365.10
457.28	4449.36
457.46	4449.36
457.64	4542.98
457.83	4472.76
458.01	4545.32
458.19	4458.72
458.38	4566.39
458.56	4582.77
458.74	4711.50
458.93	4561.70
459.11	4667.03
459.29	4697.46
459.48	4671.71
459.66	4610.86
459.84	4678.73
460.03	4624.90
460.21	4837.89
460.39	4685.75
460.57	4655.33
460.76	4784.06
460.94	4762.99
461.12	4765.33
461.31	4746.61
461.49	4800.44
461.67	4615.54
461.85	5013.43
462.04	4835.55
462.22	5083.64
462.40	4809.80
462.59	4894.06
462.77	4863.63
462.95	4854.27
463.13	4943.21
463.32	5018.11
463.50	4940.87
463.68	5006.41
463.86	5039.17
464.05	4821.50
464.23	4889.38
464.41	5130.45
464.59	4926.83
464.78	5004.07
464.96	5097.69
465.14	5078.96
465.32	5263.86
465.50	5036.83
465.69	5294.29
465.87	5254.50
466.05	5114.07
466.23	5144.50
466.41	5177.26
466.60	5350.46
466.78	5317.70
466.96	5268.55
467.14	5235.78
467.32	5261.52
467.51	5275.57
467.69	5153.86
467.87	5322.38
468.05	5352.81
468.23	5521.32
468.41	5254.50
468.60	5376.21
468.78	5565.79
468.96	5317.70
469.14	5535.37
469.32	5441.75
469.50	5385.57
469.69	5329.40
469.87	5542.39
470.05	5455.79
470.23	5701.54
470.41	5465.15
470.59	5533.03
470.77	5703.89
470.95	5537.71
471.14	5823.25
471.32	5624.31
471.50	5820.91
471.68	5846.66
471.86	5535.37
472.04	5654.73
472.22	5881.77
472.40	5762.40
472.58	5902.83
472.77	6038.58
472.95	5879.43
473.13	6129.86
473.31	5935.60
473.49	6031.56
473.67	6010.50
473.85	6012.84
474.03	6249.23
474.21	6195.40
474.39	6267.95
474.57	6338.17
474.75	6530.09
474.93	6181.35
475.12	6174.33
475.30	6478.60
475.48	6511.37
475.66	6516.05
475.84	6553.50
476.02	6626.06
476.20	6663.51
476.38	6656.48
476.56	6813.30
476.74	6782.87
476.92	6647.12
477.10	6637.76
477.28	6581.59
477.46	6930.33
477.64	7052.03
477.82	6937.35
478.00	7089.48
478.18	7096.50
478.36	7159.70
478.54	7197.15
478.72	7243.96
478.90	7335.24
479.08	7585.68
479.26	7672.28
479.44	7281.41
479.62	7566.95
479.80	7597.38
479.98	7492.05
480.16	7672.28
480.34	7786.96
480.52	7882.92
480.70	7929.74
480.88	7831.43
481.06	7885.26
481.24	7896.97
481.41	7997.61
481.59	8250.39
481.77	8313.58
481.95	8224.64
482.13	8395.50
482.31	8374.44
482.49	8482.10
482.67	8667.00
482.85	8517.21
483.03	8683.39
483.21	8910.42
483.39	8936.17
483.57	8737.22
483.74	8978.30
483.92	8802.75
484.10	8894.04
484.28	9289.59
484.46	9298.95
484.64	9579.81
484.82	9387.89
485.00	9345.76
485.18	9579.81
485.35	9563.43
485.53	9699.18
485.71	9731.95
485.89	10057.28
486.07	9863.02
486.25	9926.21
486.43	9905.15
486.61	10148.56
486.78	10169.63
486.96	10253.89
487.14	10333.47
487.32	10265.59
487.50	10478.58
487.68	10518.37
487.85	10560.50
488.03	10927.96
488.21	10998.18
488.39	10775.83
488.57	10848.38
488.75	11194.78
488.92	11152.65
489.10	11400.75
489.28	11360.96
489.46	11262.66
489.64	11405.43
489.81	11688.64
489.99	11700.34
490.17	11470.97
490.35	11784.60
490.53	11943.75
490.70	12025.67
490.88	11878.22
491.06	12187.17
491.24	11929.71
491.41	12208.23
491.59	12175.47
491.77	12713.79
491.95	12486.76
492.13	12498.46
492.30	12407.18
492.48	12826.14
492.66	12589.74
492.84	13013.38
493.01	12863.58
493.19	12971.25
493.37	13422.97
493.54	13228.71
493.72	13469.78
493.90	13390.20
494.08	13614.90
494.25	13565.74
494.43	13689.79
494.61	13631.28
494.79	13668.73
494.96	13809.16
495.14	13989.38
495.32	13855.97
495.49	13909.80
495.67	14143.86
495.85	14373.23
496.02	14431.74
496.20	14375.57
496.38	14462.17
496.55	14574.52
496.73	14434.08
496.91	14246.84
497.09	14728.99
497.26	14911.55
497.44	14740.69
497.62	14848.36
497.79	15094.11
497.97	14806.23
498.14	15091.77
498.32	15260.29
498.50	15477.96
498.67	15466.26
498.85	15442.85
499.03	15492.01
499.20	15704.99
499.38	15215.82
499.56	15676.91
499.73	15791.59
499.91	15866.49
500.08	16053.73
500.26	15644.14
500.44	16140.33
500.61	15974.16
500.79	16058.42
500.97	16250.34
501.14	16161.40
501.32	16439.92
501.49	16477.37
501.67	16641.21
501.84	16688.02
502.02	16535.88
502.20	16526.52
502.37	16868.24
502.55	16386.09
502.72	16812.07
502.90	16648.23
503.07	16865.90
503.25	17006.33
503.43	16540.57
503.60	17172.51
503.78	17420.61
503.95	16837.81
504.13	16893.99
504.30	17486.14
504.48	17231.02
504.65	17413.59
504.83	17329.33
505.01	17603.17
505.18	17727.22
505.36	17752.96
505.53	17563.38
505.71	17671.04
505.88	17535.29
506.06	17429.97
506.23	17858.29
506.41	17987.02
506.58	17987.02
506.76	18310.01
506.93	18036.17
507.11	17844.24
507.28	18118.09
507.46	17970.63
507.63	18328.74
507.81	18637.69
507.98	18494.91
508.16	18171.92
508.33	18216.39
508.50	18661.09
508.68	18471.51
508.85	18590.88
509.03	18934.93
509.20	18902.17
509.38	19091.75
509.55	19129.20
509.73	18843.65
509.90	19056.64
510.08	18761.73
510.25	19140.90
510.42	19222.82
510.60	19337.51
510.77	19447.51
510.95	19337.51
511.12	19349.21
511.30	19452.19
511.47	19573.90
511.64	19356.23
511.82	19428.79
511.99	19585.60
512.17	19786.89
512.34	19737.74
512.51	19892.21
512.69	19843.06
512.86	19590.28
513.04	20107.54
513.21	20240.95
513.38	20290.10
513.56	19948.39
513.73	19936.68
513.90	20173.08
514.08	20067.75
514.25	20706.72
514.43	20563.95
514.60	20503.09
514.77	20812.04
514.95	20830.77
515.12	20416.49
515.29	20580.33
515.47	20505.43
515.64	20905.66
515.81	20987.58
515.99	20919.71
516.16	20732.47
516.33	21263.77
516.51	21067.16
516.68	21163.12
516.85	21074.18
517.03	21153.76
517.20	21083.55
517.37	21149.08
517.54	20971.20
517.72	21481.44
517.89	21226.32
518.06	21362.07
518.24	21474.42
518.41	21493.14
518.58	21397.18
518.75	21575.06
518.93	21846.56
519.10	21319.94
519.27	21914.44
519.45	22033.80
519.62	21635.91
519.79	22073.59
519.96	21579.74
520.14	21977.63
520.31	22459.78
520.48	21888.69
520.65	21792.73
520.83	22218.71
521.00	22211.68
521.17	22134.45
521.34	22448.08
521.52	22506.59
521.69	22403.61
521.86	22719.58
522.03	22448.08
522.20	22389.56
522.38	22537.02
522.55	22232.75
522.72	22675.11
522.89	22569.79
523.07	22810.86
523.24	22787.46
523.41	22991.08
523.58	22747.67
523.75	22958.31
523.92	22630.64
524.10	22918.53
524.27	23168.96
524.44	23248.54
524.61	23168.96
524.78	23138.54
524.96	23403.02
525.13	23175.98
525.30	23683.88
525.47	23456.85
525.64	23466.21
525.81	23192.37
525.98	23517.70
526.16	23836.02
526.33	23433.44
526.50	23606.64
526.67	23503.66
526.84	24067.73
527.01	23571.54
527.18	23466.21
527.36	23917.93
527.53	24123.90
527.70	24238.59
527.87	23955.38
528.04	24212.84
528.21	23927.30
528.38	24168.37
528.55	24173.05
528.72	24238.59
528.89	24280.72
529.07	24451.58
529.24	24418.81
529.41	24339.23
529.58	24245.61
529.75	24222.20
529.92	24372.00
530.09	24528.81
530.26	24521.79
530.43	24512.43
530.60	24400.08
530.77	24556.90
530.94	24730.10
531.11	24386.04
531.28	24659.88
531.46	24526.47
531.63	24360.30
531.80	24858.83
531.97	25034.37
532.14	24779.25
532.31	25104.59
532.48	25301.19
532.65	25200.55
532.82	24718.40
532.99	25205.23
533.16	24837.76
533.33	25362.04
533.50	25142.03
533.67	25408.86
533.84	25125.65
534.01	25130.33
534.18	25369.07
534.35	25516.52
534.52	25479.07
534.69	25642.91
534.86	25474.39
535.03	25357.36
535.20	25722.49
535.37	25528.22
535.54	25586.74
535.71	25612.48
535.88	25741.21
536.05	25717.81
536.22	25769.30
536.38	25935.48
536.55	26190.59
536.72	26099.31
536.89	25577.37
537.06	25827.81
537.23	26043.14
537.40	25680.36
537.57	26326.35
537.74	25993.99
537.91	26108.68
538.08	25834.83
538.25	26150.81
538.42	26113.36
538.59	26043.14
538.75	26115.70
538.92	26214.00
539.09	26335.71
539.26	26284.22
539.43	26656.36
539.60	26417.63
539.77	26405.92
539.94	26782.75
540.11	26462.10
540.28	26874.03
540.44	26457.42
540.61	26494.86
540.78	26749.98
540.95	26408.26
541.12	26555.72
541.29	27005.10
541.46	26497.20
541.62	26560.40
541.79	26565.08
541.96	26639.98
542.13	26754.66
542.30	26927.86
542.47	27131.49
542.63	27283.62
542.80	27110.43
542.97	27372.57
543.14	27358.52
543.31	27138.51
543.48	27082.34
543.64	27161.92
543.81	27454.48
543.98	27281.28
544.15	27608.96
544.32	27765.78
544.48	27985.79
544.65	27475.55
544.82	27620.66
544.99	27248.52
545.16	27522.36
545.32	27491.93
545.49	27653.43
545.66	27400.65
545.83	28126.22
546.00	27938.97
546.16	27740.03
546.33	27346.82
546.50	27613.64
546.67	27889.82
546.83	27618.32
547.00	27777.48
547.17	28058.34
547.34	28222.18
547.50	28105.15
547.67	28280.69
547.84	28161.33
548.00	27938.97
548.17	28364.95
548.34	27866.42
548.51	28554.54
548.67	28439.85
548.84	28460.91
549.01	28203.46
549.18	28016.21
549.34	28779.23
549.51	28481.98
549.68	28238.56
549.84	28573.26
550.01	28498.36
550.18	28292.40
550.34	28905.62
550.51	28596.67
550.68	28615.39
550.84	28292.40
551.01	28292.40
551.18	28247.93
551.34	28444.53
551.51	28280.69
551.68	28575.60
551.84	28334.53
552.01	28538.15
552.18	28964.13
552.34	28584.96
552.51	28657.52
552.68	28989.88
552.84	28945.41
553.01	28940.72
553.18	28704.33
553.34	29142.01
553.51	28666.88
553.67	29228.61
553.84	29457.98
554.01	29158.39
554.17	29530.54
554.34	29214.57
554.51	29076.48
554.67	29465.00
554.84	29130.31
555.00	29261.38
555.17	29050.73
555.33	29441.60
555.50	29472.03
555.67	29233.29
555.83	29301.17
556.00	29780.98
556.16	29305.85
556.33	29284.78
556.50	29474.37
556.66	29977.58
556.83	29565.65
556.99	29516.50
557.16	29589.05
557.32	29383.09
557.49	29806.72
557.65	29474.37
557.82	29539.90
557.98	29486.07
558.15	29521.18
558.32	29797.36
558.48	29553.94
558.65	29816.08
558.81	29865.24
558.98	29773.95
559.14	29546.92
559.31	29631.18
559.47	29652.25
559.64	29647.57
559.80	29696.72
559.97	29673.31
560.13	29687.36
560.30	30026.73
560.46	29982.26
560.63	29755.23
560.79	30279.51
560.96	30094.61
561.12	29921.41
561.29	30087.59
561.45	29839.49
561.61	29586.71
561.78	29944.81
561.94	29680.33
562.11	30174.19
562.27	30139.08
562.44	29839.49
562.60	29951.84
562.77	30225.68
562.93	29795.02
563.10	30213.98
563.26	30356.75
563.42	30679.74
563.59	30258.45
563.75	30560.37
563.92	30663.36
564.08	29624.16
564.24	30335.68
564.41	30235.04
564.57	30246.74
564.74	29902.68
564.90	30153.12
565.07	30143.76
565.23	30483.14
565.39	30169.51
565.56	30356.75
565.72	30183.55
565.88	30492.50
566.05	29769.27
566.21	30520.59
566.38	30686.76
566.54	30380.15
566.70	30682.08
566.87	30731.23
567.03	30859.96
567.19	30836.56
567.36	30555.69
567.52	30347.39
567.68	30162.48
567.85	30565.06
568.01	30429.30
568.17	30331.00
568.34	30785.07
568.50	30682.08
568.66	30618.89
568.83	30932.52
568.99	30359.09
569.15	30422.28
569.32	30443.35
569.48	30576.76
569.64	30576.76
569.81	30927.84
569.97	30412.92
570.13	30892.73
570.30	30506.54
570.46	30712.51
570.62	30618.89
570.78	31232.11
570.95	30607.19
571.11	31019.12
571.27	30473.78
571.43	30459.73
571.60	30721.87
571.76	30494.84
571.92	30899.75
572.09	30604.84
572.25	31150.19
572.41	30883.37
572.57	31096.36
572.74	30764.00
572.90	30785.07
573.06	30586.12
573.22	30754.64
573.38	31194.66
573.55	30857.62
573.71	30993.37
573.87	31040.18
574.03	30761.66
574.20	30960.61
574.36	30796.77
574.52	31126.78
574.68	30974.65
574.84	30925.50
575.01	30712.51
575.17	30866.98
575.33	30864.64
575.49	30885.71
575.65	31241.47
575.82	31166.57
575.98	31082.31
576.14	31395.95
576.30	30808.47
576.46	31054.23
576.62	30808.47
576.79	30775.70
576.95	30698.47
577.11	31023.80
577.27	30455.05
577.43	30953.58
577.59	30937.20
577.75	31077.63
577.92	30565.06
578.08	30869.33
578.24	30883.37
578.40	30824.86
578.56	30979.33
578.72	31292.96
578.88	31234.45
579.04	31543.40
579.21	31012.10
579.37	31297.64
579.53	31435.74
579.69	31103.38
579.85	30799.11
580.01	31316.37
580.17	31023.80
580.33	31035.50
580.49	30991.03
580.65	30803.79
580.82	31386.58
580.98	30988.69
581.14	31543.40
581.30	31328.07
581.46	30881.03
581.62	31370.20
581.78	30857.62
581.94	31206.36
582.10	30693.79
582.26	31108.06
582.42	31178.28
582.58	31271.90
582.74	31150.19
582.90	30925.50
583.06	31239.13
583.22	30965.29
583.38	31019.12
583.54	31112.74
583.70	30824.86
583.86	31440.42
584.02	31094.02
584.18	31608.93
584.34	31402.97
584.50	31365.52
584.66	31227.43
584.82	31108.06
584.98	31101.04
585.14	31012.10
585.30	31108.06
585.46	31218.07
585.62	30991.03
585.78	31323.39
585.94	31056.57
586.10	31253.17
586.26	31426.37
586.42	31129.12
586.58	31035.50
586.74	31234.45
586.90	31110.40
587.06	31040.18
587.22	31278.92
587.38	30993.37
587.54	31257.85
587.70	31330.41
587.86	31054.23
588.02	31241.47
588.18	31426.37
588.34	31187.64
588.49	31023.80
588.65	31531.70
588.81	31138.49
588.97	31782.13
589.13	31353.82
589.29	31447.44
589.45	31494.25
589.61	31819.58
589.77	31328.07
589.93	31875.76
590.08	31534.04
590.24	31740.00
590.40	31688.51
590.56	31704.90
590.72	31587.87
590.88	31552.76
591.04	31395.95
591.20	31548.08
591.35	31742.35
591.51	31864.05
591.67	31835.97
591.83	31894.48
591.99	31948.31
592.15	32030.23
592.31	31798.52
592.46	31374.88
592.62	31562.12
592.78	31548.08
592.94	31599.57
593.10	31648.72
593.26	31847.67
593.41	31934.27
593.57	31873.42
593.73	31929.59
593.89	31740.00
594.05	31840.65
594.20	31428.71
594.36	31873.42
594.52	31695.53
594.68	31559.78
594.84	31367.86
594.99	31754.05
595.15	31489.57
595.31	32133.21
595.47	31611.28
595.62	32114.49
595.78	31711.92
595.94	31831.29
596.10	31793.84
596.25	31929.59
596.41	31524.68
596.57	31744.69
596.73	31351.48
596.88	31770.43
597.04	32095.77
597.20	31964.70
597.36	31782.13
597.51	32051.30
597.67	31494.25
597.83	31796.18
597.99	32065.34
598.14	31866.39
598.30	31992.78
598.46	31735.32
598.61	31885.12
598.77	31945.97
598.93	32063.00
599.09	31702.56
599.24	31866.39
599.40	31873.42
599.56	31882.78
599.71	31936.61
599.87	31833.63
600.03	31587.87
600.18	31590.21
600.34	31632.34
600.50	31630.00
600.65	31667.45
600.81	32116.83
600.97	32287.69
601.12	32084.06
601.28	32149.60
601.44	32095.77
601.59	32180.03
601.75	31644.04
601.91	32451.53
602.06	31634.68
602.22	31662.77
602.37	31295.30
602.53	32074.70
602.69	32233.86
602.84	31936.61
603.00	32072.36
603.16	32088.74
603.31	31772.77
603.47	32102.79
603.62	31901.50
603.78	31714.26
603.94	31779.79
604.09	32170.66
604.25	32219.81
604.40	31475.52
604.56	31859.37
604.71	31798.52
604.87	32093.43
605.03	32006.83
605.18	31985.76
605.34	31983.42
605.49	31847.67
605.65	32254.92
605.80	31524.68
605.96	31985.76
606.12	31819.58
606.27	31534.04
606.43	31754.05
606.58	32109.81
606.74	31798.52
606.89	32053.64
607.05	32493.66
607.20	31892.14
607.36	31728.30
607.51	31885.12
607.67	31477.86
607.82	31803.20
607.98	31723.62
608.13	31812.56
608.29	31873.42
608.44	32119.17
608.60	31569.15
608.75	31583.19
608.91	31960.02
609.06	31414.67
609.22	31737.66
609.37	31810.22
609.53	31487.23
609.68	31220.41
609.84	31775.11
609.99	31707.24
610.15	31531.70
610.30	32229.18
610.46	31433.39
610.61	31665.11
610.76	31529.36
610.92	31192.32
611.07	31807.88
611.23	31548.08
611.38	31503.61
611.54	31328.07
611.69	31058.91
611.84	31241.47
612.00	31250.83
612.15	31625.32
612.31	31711.92
612.46	31494.25
612.62	31438.08
612.77	31637.02
612.92	31679.15
613.08	31325.73
613.23	31779.79
613.39	31379.56
613.54	31042.53
613.69	31035.50
613.85	31433.39
614.00	31084.65
614.15	31307.01
614.31	31103.38
614.46	31012.10
614.62	31426.37
614.77	31920.23
614.92	31615.96
615.08	31281.26
615.23	31206.36
615.38	31215.72
615.54	30773.36
615.69	31138.49
615.84	31208.70
616.00	31054.23
616.15	31115.08
616.30	31264.88
616.46	31019.12
616.61	31225.09
616.76	31150.19
616.92	30733.57
617.07	31482.55
617.22	30874.01
617.37	31070.61
617.53	31091.68
617.68	31070.61
617.83	30635.27
617.99	30803.79
618.14	31012.10
618.29	30974.65
618.45	30822.51
618.60	30658.68
618.75	31131.47
618.90	31152.53
619.06	30864.64
619.21	30644.63
619.36	31115.08
619.51	30710.17
619.67	30370.79
619.82	30756.98
619.97	30888.05
620.12	30663.36
620.28	29926.09
620.43	30604.84
620.58	30646.97
620.73	30616.55
620.89	30780.39
621.04	31075.29
621.19	30731.23
621.34	30761.66
621.49	30375.47
621.65	31063.59
621.80	30431.65
621.95	30522.93
622.10	30590.80
622.25	30298.23
622.41	30499.52
622.56	30274.83
622.71	30366.11
622.86	30611.87
623.01	30389.52
623.16	30309.94
623.32	30740.60
623.47	30548.67
623.62	30422.28
623.77	30190.57
623.92	30331.00
624.07	30103.97
624.23	30246.74
624.38	30047.80
624.53	30274.83
624.68	30628.25
624.83	30230.36
624.98	30251.42
625.13	30724.21
625.29	30457.39
625.44	30094.61
625.59	29757.57
625.74	30225.68
625.89	30169.51
626.04	30270.15
626.19	29968.22
626.34	30239.72
626.49	29961.20
626.65	29895.66
626.80	29984.60
626.95	30085.25
627.10	29785.66
627.25	29949.50
627.40	29909.71
627.55	30054.82
627.70	29813.74
627.85	29736.51
628.00	29898.00
628.15	29841.83
628.30	29607.78
628.45	29846.51
628.60	29441.60
628.76	29764.59
628.91	29837.15
629.06	30073.54
629.21	29722.46
629.36	29514.16
629.51	29893.32
629.66	30054.82
629.81	29123.29
629.96	29626.50
630.11	29635.86
630.26	29287.12
630.41	29298.83
630.56	29577.35
630.71	29673.31
630.86	29528.20
631.01	29687.36
631.16	29539.90
631.31	29469.69
631.46	29465.00
631.61	29560.97
631.76	29621.82
631.91	29457.98
632.06	29343.30
632.21	29134.99
632.36	29582.03
632.51	29064.77
632.66	29149.03
632.81	29273.08
632.96	29247.33
633.10	29577.35
633.25	29401.81
633.40	29310.53
633.55	29099.88
633.70	29338.62
633.85	28957.11
634.00	28856.46
634.15	28884.55
634.30	28985.19
634.45	28912.64
634.60	29221.59
634.75	29010.94
634.90	28680.92
635.05	29308.19
635.19	29001.58
635.34	29252.02
635.49	28945.41
635.64	29256.70
635.79	28830.72
635.94	28844.76
636.09	28734.76
636.24	28692.63
636.39	28844.76
636.53	28886.89
636.68	28512.41
636.83	28699.65
636.98	29270.74
637.13	28858.81
637.28	29186.48
637.43	29050.73
637.57	29104.56
637.72	28624.75
637.87	28811.99
638.02	28545.17
638.17	28636.45
638.32	28402.40
638.46	28404.74
638.61	28484.32
638.76	27943.66
638.91	27941.32
639.06	28528.79
639.20	28629.43
639.35	28453.89
639.50	28367.29
639.65	28844.76
639.80	28795.61
639.94	28863.49
640.09	28900.94
640.24	28240.90
640.39	28507.72
640.54	28100.47
640.68	28151.96
640.83	28147.28
640.98	27931.95
641.13	27974.08
641.27	28479.64
641.42	28437.51
641.57	28423.47
641.72	28381.34
641.86	28208.14
642.01	28081.75
642.16	28215.16
642.31	27826.63
642.45	27861.74
642.60	27789.18
642.75	27655.77
642.90	28116.86
643.04	27789.18
643.19	27742.37
643.34	28041.96
643.48	27754.07
643.63	28163.67
643.78	28006.85
643.93	28119.20
644.07	28243.24
644.22	27960.04
644.37	27688.54
644.51	28058.34
644.66	28283.03
644.81	27417.04
644.95	27941.32
645.10	27852.38
645.25	27597.26
645.39	27941.32
645.54	27901.53
645.69	27318.73
645.83	27653.43
645.98	27524.70
646.13	27749.39
646.27	27700.24
646.42	27440.44
646.57	27662.79
646.71	28009.19
646.86	27644.07
647.00	27665.13
647.15	27662.79
647.30	27646.41
647.44	27285.97
647.59	27325.75
647.74	27672.15
647.88	27508.32
648.03	27557.47
648.17	27892.16
648.32	27307.03
648.47	27559.81
648.61	27681.52
648.76	27672.15
648.90	27583.21
649.05	27662.79
649.20	27164.26
649.34	27424.06
649.49	27505.98
649.63	27061.27
649.78	27463.85
649.92	27164.26
650.07	27379.59
650.21	27019.14
650.36	27667.47
650.51	27360.86
650.65	27505.98
650.80	27269.58
650.94	27433.42
651.09	27150.21
651.23	26913.82
651.38	27241.50
651.52	27070.64
651.67	27136.17
651.81	27124.47
651.96	26670.40
652.10	27040.21
652.25	27166.60
652.39	27187.66
652.54	27407.67
652.68	27000.42
652.83	27197.02
652.97	27227.45
653.12	26815.52
653.26	26787.43
653.41	27236.81
653.55	26616.57
653.70	26534.65
653.84	26789.77
653.99	26946.59
654.13	26661.04
654.27	26466.78
654.42	26775.73
654.56	26721.90
654.71	26871.69
654.85	26890.41
655.00	26761.69
655.14	26630.62
655.29	26604.87
655.43	26522.95
655.57	26696.15
655.72	26663.38
655.86	26408.26
656.01	26202.30
656.15	26363.79
656.30	26436.35
656.44	26529.97
656.58	26394.22
656.73	26490.18
656.87	26703.17
657.01	26125.06
657.16	26539.33
657.30	26841.26
657.45	26162.51
657.59	26316.98
657.73	26216.34
657.88	26211.66
658.02	26160.17
658.16	26153.15
658.31	26125.06
658.45	26235.06
658.60	25912.07
658.74	26012.71
658.88	25923.77
659.03	26202.30
659.17	25905.05
659.31	25888.67
659.46	25907.39
659.60	26319.32
659.74	25961.22
659.89	26101.65
660.03	26422.31
660.17	26286.56
660.32	25486.09
660.46	25542.27
660.60	25816.11
660.74	25792.70
660.89	25509.50
661.03	25682.70
661.17	25511.84
661.32	25301.19
661.46	25687.38
661.60	25652.27
661.74	25666.31
661.89	25694.40
662.03	25633.55
662.17	25287.15
662.31	25680.36
662.46	25319.92
662.60	25432.26
662.74	25418.22
662.88	25553.97
663.03	25329.28
663.17	25205.23
663.31	24875.21
663.45	24697.33
663.60	24814.36
663.74	25305.87
663.88	25139.69
664.02	25181.82
664.17	25394.81
664.31	24856.49
664.45	25050.75
664.59	24936.07
664.73	24957.13
664.88	24769.89
665.02	24666.91
665.16	24800.32
665.30	24634.14
665.44	24854.15
665.59	24425.83
665.73	24758.19
665.87	24292.42
666.01	24830.74
666.15	25081.18
666.29	24390.72
666.44	24465.62
666.58	24432.85
666.72	24322.85
666.86	24533.50
667.00	24414.13
667.14	24278.38
667.28	24247.95
667.43	24002.19
667.57	24168.37
667.71	23878.15
667.85	24348.59
667.99	23941.34
668.13	23819.63
668.27	24210.50
668.41	24044.32
668.56	24240.93
668.70	24105.18
668.84	23974.11
668.98	24098.16
669.12	24100.50
669.26	23978.79
669.40	23704.95
669.54	23686.22
669.68	23831.33
669.82	23772.82
669.96	23564.51
670.10	23321.10
670.25	23761.12
670.39	23529.41
670.53	23140.88
670.67	23082.36
670.81	23424.08
670.95	23466.21
671.09	23461.53
671.23	23255.56
671.37	23639.41
671.51	23405.36
671.65	23559.83
671.79	23222.80
671.93	23356.21
672.07	23115.13
672.21	22862.35
672.35	23131.51
672.49	22593.19
672.63	22771.07
672.77	22831.93
672.91	22803.84
673.05	22920.87
673.19	22937.25
673.33	22829.59
673.47	22560.42
673.61	22794.48
673.75	22679.79
673.89	22785.12
674.03	22429.35
674.17	22527.66
674.31	22174.24
674.45	22422.33
674.59	22263.18
674.73	22494.89
674.87	22335.73
675.01	22307.65
675.15	22258.49
675.29	22169.55
675.43	22075.93
675.56	22279.56
675.70	22082.95
675.84	22134.45
675.98	21561.02
676.12	22225.73
676.26	21710.81
676.40	21811.45
676.54	21977.63
676.68	21781.03
676.82	20879.92
676.96	21666.34
677.10	21462.71
677.23	21397.18
677.37	21088.23
677.51	21039.08
677.65	21165.46
677.79	21191.21
677.93	20865.88
678.07	20908.01
678.21	20819.07
678.34	20755.87
678.48	20573.31
678.62	20582.67
678.76	21085.89
678.90	20563.95
679.04	20908.01
679.18	20510.11
679.31	20233.93
679.45	20500.75
679.59	20367.34
679.73	19950.73
679.87	19896.89
680.00	19981.15
680.14	20332.23
680.28	20009.24
680.42	20119.24
680.56	20100.52
680.70	19969.45
680.83	20184.78
680.97	19887.53
681.11	19995.20
681.25	19555.18
681.39	19948.39
681.52	19784.55
681.66	19438.15
681.80	19168.99
681.94	19335.17
682.07	19494.32
682.21	19122.18
682.35	18946.64
682.49	18864.72
682.62	19260.27
682.76	19143.24
682.90	19351.55
683.04	19150.26
683.17	18771.10
683.31	18778.12
683.45	18925.57
683.59	18867.06
683.72	18642.37
683.86	18951.32
684.00	18621.30
684.13	18483.21
684.27	18511.30
684.41	18209.37
684.55	18356.82
684.68	18047.87
684.82	17853.61
684.96	17970.63
685.09	17984.68
685.23	18235.11
685.37	18015.10
685.50	18340.44
685.64	17958.93
685.78	17867.65
685.91	18061.91
686.05	18094.68
686.19	17642.96
686.32	17734.24
686.46	17432.31
686.60	17436.99
686.73	17376.14
686.87	17172.51
687.01	17235.70
687.14	17303.58
687.28	17053.14
687.42	16800.37
687.55	16856.54
687.69	16989.95
687.82	17106.98
687.96	16938.46
688.10	16833.13
688.23	17006.33
688.37	16631.85
688.50	16774.62
688.64	16776.96
688.78	16793.34
688.91	16369.71
689.05	16748.87
689.18	16292.47
689.32	16159.06
689.46	15805.64
689.59	16072.46
689.73	16299.49
689.86	16311.19
690.00	15936.71
690.13	15983.52
690.27	16042.03
690.41	15875.85
690.54	15786.91
690.68	15749.46
690.81	15997.56
690.95	15908.62
691.08	15737.76
691.22	15765.85
691.35	15445.20
691.49	15414.77
691.62	15751.81
691.76	15421.79
691.89	15272.00
692.03	15133.90
692.16	15241.57
692.30	14930.28
692.43	14939.64
692.57	15061.35
692.70	14714.95
692.84	15049.64
692.97	14862.40
693.11	14799.21
693.24	15012.20
693.38	14934.96
693.51	14771.12
693.65	14583.88
693.78	14689.20
693.92	14759.42
694.05	14635.37
694.19	14237.48
694.32	14225.78
694.45	14368.55
694.59	14274.93
694.72	14031.51
694.86	13975.34
694.99	13706.18
695.13	13963.64
695.26	13783.41
695.39	13860.65
695.53	13701.50
695.66	13846.61
695.80	13734.26
695.93	13729.58
696.07	13769.37
696.20	14026.83
696.33	13591.49
696.47	13507.23
696.60	13591.49
696.73	13247.43
696.87	13516.59
697.00	13469.78
697.14	13085.94
697.27	13013.38
697.40	12901.03
697.54	12917.42
697.67	13170.19
697.80	12968.91
697.94	12868.27
698.07	12666.98
698.21	12575.70
698.34	12961.89
698.47	12812.09
698.61	12886.99
698.74	12657.62
698.87	12709.11
699.01	12496.12
699.14	12641.23
699.27	12374.41
699.40	12587.40
699.54	12325.26
699.67	12135.68
699.80	12114.61
699.94	12065.46
700.07	12093.55
700.20	11983.54
700.34	11707.36
700.47	11969.50
700.60	11768.21
700.73	11929.71
700.87	11791.62
701.00	11461.60
701.13	11789.28
701.26	11660.55
701.40	11705.02
701.53	11690.98
701.66	11501.39
701.79	11396.07
701.93	11426.50
702.06	11225.21
702.19	11199.46
702.32	11126.91
702.46	11044.99
702.59	11112.86
702.72	10892.85
702.85	10956.05
702.99	11077.76
703.12	10885.83
703.25	10761.78
703.38	10808.59
703.51	10822.64
703.65	10752.42
703.78	10738.38
703.91	10717.31
704.04	10558.16
704.17	10817.96
704.31	10640.08
704.44	10588.58
704.57	10588.58
704.70	10424.75
704.83	10183.67
704.96	10249.21
705.10	10274.95
705.23	9949.62
>>>>>End Processed Spectral Data<<<<<
